DTS Sentinel unit serial number:	SN413079Multiplexer serial number:	ORYXHardware model number:	OX4-SRSoftware version number:	ORYX F/W v4.00 Oryx Data Collector v3.7.2.0data status	okinstallation	princeton_trtdifferential loss correction	single-endedforward channel	channel 2reverse channel	N/Adate	2019/09/15time	03:55:34forward acquisition time	60.00reverse acquisition time	0.00gamma	496.2192k internal	0.2325k external	0.2325temperature offset calibration	1.0028default loss term (dB/km)	0.3790temperature slope calibration	1.0000multiplexer offset coefficient	1.0000multiplexer slope coefficient	1.0000fibre end	0.00T internal ref (°C)	30.94T ext. ref 1 (°C)	4.59T ext. ref 2 (°C)	25.92length (m)	temperature (°C)	Stokes	anti-Stokes-747.200	-118.878	0.272	0.048
-746.185	-10.878	0.078	0.052
-745.171	-4.488	-0.165	-0.115
-744.156	514.560	-0.084	-0.198
-743.142	-70.294	-0.057	0.022
-742.127	-100.198	0.019	0.005
-741.112	-64.552	-0.156	0.064
-740.098	-47.733	0.173	-0.085
-739.083	-96.489	-0.102	0.027
-738.069	8.051	-0.076	-0.058
-737.054	306.761	0.078	-0.147
-736.039	76.654	-0.174	-0.186
-735.025	-200.000	-0.017	-0.226
-734.010	-200.000	0.012	-0.096
-732.996	-0.069	0.181	-0.130
-731.981	-65.455	-0.361	-0.146
-730.966	-200.000	-0.006	-0.092
-729.952	-200.000	0.018	-0.132
-728.937	-44.619	-0.126	-0.064
-727.923	31.674	-0.154	-0.134
-726.908	800.000	-0.023	0.065
-725.894	-122.004	0.226	-0.037
-724.879	-101.039	-0.064	0.016
-723.864	318.879	0.064	-0.121
-722.850	-189.841	-0.113	-0.001
-721.835	222.806	0.071	-0.116
-720.821	-165.106	-0.241	-0.011
-719.806	12.990	-0.177	0.138
-718.791	74.851	-0.070	-0.074
-717.777	-102.816	-0.429	0.103
-716.762	-200.000	0.007	-0.077
-715.748	-142.849	0.298	0.029
-714.733	-13.451	-0.353	-0.231
-713.718	535.597	0.036	0.086
-712.704	-141.308	0.183	0.019
-711.689	62.751	-0.057	-0.057
-710.675	-4.675	0.157	-0.109
-709.660	800.000	0.041	0.163
-708.645	-0.485	-0.156	0.112
-707.631	129.068	0.172	0.222
-706.616	800.000	0.098	-0.300
-705.602	-32.652	-0.047	-0.026
-704.587	449.474	-0.047	-0.104
-703.572	800.000	-0.017	0.063
-702.558	143.371	0.027	-0.037
-701.543	105.764	-0.223	-0.266
-700.529	-200.000	0.011	-0.120
-699.514	-29.115	0.042	-0.024
-698.499	-102.994	0.204	-0.049
-697.485	-183.003	-0.266	-0.005
-696.470	-115.512	0.086	-0.016
-695.456	85.145	0.192	-0.212
-694.441	430.369	0.159	-0.345
-693.426	-200.000	0.028	-0.428
-692.412	54.438	-0.115	-0.112
-691.397	-132.978	-0.132	-0.017
-690.383	800.000	0.063	0.196
-689.368	-56.904	-0.040	0.018
-688.354	13.818	0.285	-0.223
-687.339	800.000	-0.070	-0.205
-686.324	377.805	-0.035	-0.072
-685.310	-165.777	-0.198	0.009
-684.295	-200.000	-0.025	-0.158
-683.281	6.319	0.264	0.197
-682.266	800.000	-0.108	0.389
-681.251	199.380	-0.205	-0.316
-680.237	-90.407	0.083	-0.024
-679.222	-32.770	0.195	-0.109
-678.208	-89.684	-0.177	0.052
-677.193	-200.000	0.041	-0.185
-676.178	32.422	-0.192	0.167
-675.164	-21.878	0.169	-0.103
-674.149	292.460	0.153	-0.280
-673.135	-200.000	-0.031	0.423
-672.120	800.000	0.038	-0.126
-671.105	414.189	0.087	-0.185
-670.091	-69.779	0.076	-0.029
-669.076	-164.364	0.170	0.008
-668.062	192.606	-0.092	-0.140
-667.047	-9.228	0.110	0.074
-666.032	116.187	-0.137	-0.169
-665.018	-177.137	-0.277	0.007
-664.003	-58.423	0.145	0.064
-662.989	800.000	-0.071	-0.306
-661.974	-153.077	0.171	0.012
-660.959	-200.000	0.008	-0.226
-659.945	51.399	0.101	0.097
-658.930	-146.066	-0.121	-0.011
-657.916	-6.145	0.235	-0.161
-656.901	-195.516	0.245	-0.002
-655.886	-95.293	0.203	-0.055
-654.872	18.550	0.198	0.159
-653.857	7.120	0.131	-0.098
-652.843	59.287	0.114	-0.113
-651.828	-200.000	0.014	-0.093
-650.814	-104.273	0.204	-0.047
-649.799	-79.166	-0.266	-0.091
-648.784	89.052	0.062	0.070
-647.770	125.731	0.256	-0.325
-646.755	273.068	0.181	-0.322
-645.741	-83.891	-0.366	-0.117
-644.726	-200.000	-0.014	0.206
-643.711	-31.451	-0.243	0.137
-642.697	-188.894	-0.375	0.005
-641.682	139.567	-0.151	0.199
-640.668	800.000	-0.020	0.084
-639.653	768.917	-0.129	-0.354
-638.638	123.186	-0.127	0.160
-637.624	174.043	-0.146	-0.212
-636.609	-8.824	-0.302	0.203
-635.595	46.886	0.113	-0.105
-634.580	-53.350	0.190	0.087
-633.565	-69.384	-0.336	0.130
-632.551	743.038	0.023	-0.063
-631.536	-121.645	0.158	-0.026
-630.522	-112.274	0.220	-0.044
-629.507	800.000	0.030	0.113
-628.492	-200.000	-0.018	-0.134
-627.478	-82.330	-0.068	0.022
-626.463	-51.738	0.303	0.142
-625.449	127.079	-0.206	0.263
-624.434	-200.000	-0.018	0.167
-623.419	-77.039	-0.328	-0.115
-622.405	-44.713	-0.252	-0.126
-621.390	-200.000	0.008	0.057
-620.376	-29.190	0.158	-0.091
-619.361	638.391	-0.110	0.280
-618.346	70.033	0.215	-0.223
-617.332	-139.089	0.233	0.025
-616.317	19.200	0.082	-0.066
-615.303	46.422	0.244	0.228
-614.288	192.082	-0.140	0.211
-613.273	616.754	0.043	0.108
-612.259	94.153	-0.068	-0.078
-611.244	800.000	-0.065	-0.189
-610.230	-200.000	0.030	0.183
-609.215	-200.000	0.076	-0.373
-608.201	-135.987	0.406	0.048
-607.186	-47.630	-0.038	-0.018
-606.171	800.000	0.037	-0.124
-605.157	-200.000	0.013	-0.187
-604.142	180.944	-0.043	0.063
-603.128	1.827	0.181	-0.131
-602.113	301.216	0.116	0.215
-601.098	800.000	0.050	0.198
-600.084	800.000	-0.046	0.161
-599.069	800.000	-0.126	0.423
-598.055	48.028	0.237	-0.222
-597.040	-72.037	-0.139	0.052
-596.025	800.000	0.080	0.330
-595.011	-151.947	-0.012	-0.001
-593.996	578.932	-0.057	-0.140
-592.982	294.715	-0.019	0.036
-591.967	35.637	0.168	0.148
-590.952	-43.583	0.180	0.091
-589.938	-200.000	-0.067	-0.328
-588.923	-48.788	0.113	-0.054
-587.909	-200.000	0.019	-0.145
-586.894	15.269	-0.304	-0.239
-585.879	-139.813	-0.127	0.013
-584.865	800.000	0.052	-0.189
-583.850	94.161	-0.092	0.105
-582.836	-109.225	0.156	-0.033
-581.821	-12.789	0.220	0.144
-580.806	-20.741	0.206	-0.127
-579.792	-97.200	-0.219	-0.057
-578.777	-124.937	-0.259	0.040
-577.763	19.169	-0.076	-0.061
-576.748	175.606	-0.266	0.386
-575.733	-109.537	-0.189	0.040
-574.719	-110.829	0.161	0.033
-573.704	313.319	-0.053	-0.100
-572.690	-148.144	0.076	0.006
-571.675	39.825	-0.087	-0.078
-570.661	-13.812	0.256	-0.166
-569.646	-154.208	-0.094	0.006
-568.631	800.000	-0.067	0.236
-567.617	-135.408	0.244	0.029
-566.602	319.320	0.162	-0.308
-565.588	-8.010	0.195	-0.131
-564.573	-60.404	0.245	0.104
-563.558	-143.665	-0.157	0.015
-562.544	-108.171	-0.409	0.089
-561.529	19.356	0.188	0.152
-560.515	-101.072	-0.073	0.018
-559.500	800.000	-0.085	0.238
-558.485	800.000	-0.041	-0.130
-557.471	639.802	0.108	0.276
-556.456	37.557	-0.089	0.079
-555.442	686.138	0.177	-0.464
-554.427	29.085	-0.133	0.113
-553.412	285.461	0.065	-0.117
-552.398	-84.546	0.136	-0.043
-551.383	-55.432	0.320	0.144
-550.369	-200.000	0.011	0.194
-549.354	800.000	-0.071	-0.196
-548.339	-200.000	0.033	0.272
-547.325	15.114	-0.129	-0.101
-546.310	-200.000	0.011	-0.257
-545.296	-32.905	0.168	-0.093
-544.281	-116.531	0.231	-0.043
-543.266	-66.195	-0.184	0.074
-542.252	-200.000	0.003	0.039
-541.237	204.740	0.183	-0.284
-540.223	187.739	0.007	-0.011
-539.208	-21.405	-0.341	0.208
-538.193	127.592	0.110	-0.140
-537.179	57.494	-0.209	0.204
-536.164	157.568	0.120	0.166
-535.150	-114.610	0.189	-0.036
-534.135	-200.000	-0.011	0.301
-533.121	183.685	-0.154	0.227
-532.106	-48.364	0.276	-0.133
-531.091	-200.000	-0.013	0.334
-530.077	626.507	-0.086	0.218
-529.062	280.848	-0.023	-0.042
-528.048	-163.327	-0.147	0.007
-527.033	-112.168	-0.207	-0.042
-526.018	-80.205	0.093	0.031
-525.004	190.357	-0.138	-0.208
-523.989	347.585	-0.273	-0.538
-522.975	-200.000	0.025	-0.186
-521.960	800.000	-0.085	0.242
-520.945	-0.281	-0.089	0.063
-519.931	81.023	0.100	-0.108
-518.916	38.296	-0.194	-0.173
-517.902	-107.537	0.206	-0.045
-516.887	-200.000	0.086	-0.561
-515.872	-0.143	0.221	-0.157
-514.858	-200.000	0.020	-0.172
-513.843	-27.142	0.278	-0.162
-512.829	-78.459	0.139	-0.048
-511.814	495.012	0.126	-0.289
-510.799	-67.419	0.435	0.171
-509.785	-29.689	-0.311	0.178
-508.770	24.236	0.111	0.091
-507.756	141.850	0.101	0.133
-506.741	800.000	0.037	0.132
-505.726	-169.923	0.490	0.018
-504.712	237.979	0.155	0.257
-503.697	30.795	0.031	-0.027
-502.683	-200.000	0.038	0.211
-501.668	800.000	-0.032	0.091
-500.653	205.348	0.034	0.053
-499.639	173.840	0.097	-0.140
-498.624	-109.582	0.105	0.022
-497.610	17.787	0.254	0.202
-496.595	155.889	-0.154	0.212
-495.581	800.000	0.023	-0.075
-494.566	-200.000	-0.010	0.142
-493.551	54.377	-0.160	0.154
-492.537	-200.000	-0.013	0.190
-491.522	-56.028	-0.220	-0.098
-490.508	-113.108	-0.084	-0.016
-489.493	26.138	0.254	0.212
-488.478	50.975	-0.145	-0.137
-487.464	138.177	0.143	-0.187
-486.449	120.699	-0.043	0.053
-485.435	-200.000	-0.046	0.226
-484.420	-42.477	-0.255	0.130
-483.405	-200.000	0.056	-0.272
-482.391	446.027	0.117	0.258
-481.376	465.320	0.050	0.112
-480.362	-127.837	-0.317	-0.046
-479.347	-148.485	-0.311	0.025
-478.332	55.087	-0.236	-0.228
-477.318	-101.764	-0.501	-0.121
-476.303	-33.115	0.062	0.034
-475.289	-52.222	-0.163	-0.075
-474.274	-36.785	0.255	-0.136
-473.259	800.000	0.056	0.197
-472.245	800.000	-0.057	0.220
-471.230	3.472	-0.145	-0.105
-470.216	243.877	0.050	0.084
-469.201	539.154	0.075	-0.179
-468.186	68.988	-0.122	-0.125
-467.172	-115.849	0.334	-0.062
-466.157	111.941	-0.205	-0.247
-465.143	-74.854	-0.216	-0.077
-464.128	223.573	-0.198	0.320
-463.113	800.000	-0.084	0.293
-462.099	800.000	-0.111	0.311
-461.084	754.420	-0.108	-0.290
-460.070	-55.382	-0.084	-0.037
-459.055	24.882	0.164	0.135
-458.040	800.000	0.039	-0.111
-457.026	-0.417	-0.121	0.086
-456.011	800.000	0.063	0.254
-454.997	-111.062	0.079	0.016
-453.982	-52.778	0.298	-0.137
-452.968	-200.000	0.009	-0.093
-451.953	-200.000	0.009	-0.255
-450.938	-119.385	-0.283	0.049
-449.924	65.491	0.146	-0.148
-448.909	-95.187	0.067	-0.018
-447.895	22.107	0.277	-0.225
-446.880	-3.118	-0.109	0.076
-445.865	163.782	0.064	0.090
-444.851	800.000	-0.064	-0.187
-443.836	-103.596	-0.257	-0.060
-442.822	-12.732	-0.160	0.104
-441.807	112.920	-0.038	-0.046
-440.792	76.877	-0.174	-0.185
-439.778	7.753	-0.323	-0.241
-438.763	-200.000	-0.027	0.127
-437.749	-139.822	0.176	-0.019
-436.734	102.014	0.085	0.099
-435.719	69.990	-0.128	0.132
-434.705	155.073	-0.228	-0.313
-433.690	-137.437	-0.142	-0.016
-432.676	-200.000	-0.014	-0.105
-431.661	-72.804	0.262	-0.096
-430.646	139.393	0.062	0.081
-429.632	-62.048	0.265	0.110
-428.617	-82.004	-0.492	-0.160
-427.603	-22.108	-0.136	0.082
-426.588	-200.000	0.001	0.050
-425.573	-55.658	-0.189	0.084
-424.559	-8.901	0.254	0.169
-423.544	-104.508	0.231	-0.053
-422.530	656.559	0.074	-0.188
-421.515	19.991	-0.102	0.082
-420.500	-77.735	-0.340	0.117
-419.486	217.063	0.117	-0.186
-418.471	335.440	0.170	0.328
-417.457	502.811	-0.127	0.293
-416.442	-114.434	0.204	0.039
-415.428	-100.975	0.262	-0.064
-414.413	741.618	-0.092	0.246
-413.398	87.562	-0.127	-0.140
-412.384	-200.000	-0.020	-0.344
-411.369	-200.000	-0.049	-0.407
-410.355	-23.923	-0.217	-0.129
-409.340	52.716	0.247	-0.235
-408.325	46.062	0.386	-0.356
-407.311	148.710	-0.135	0.182
-406.296	18.340	-0.118	-0.094
-405.282	-8.261	-0.130	-0.087
-404.267	-69.114	-0.134	-0.051
-403.252	-41.355	-0.059	-0.030
-402.238	-97.063	-0.299	-0.078
-401.223	107.404	-0.242	-0.287
-400.209	4.881	0.105	0.077
-399.194	130.288	-0.210	-0.268
-398.179	-200.000	0.004	0.132
-397.165	-200.000	-0.016	-0.134
-396.150	800.000	-0.068	0.275
-395.136	-200.000	0.037	0.440
-394.121	-200.000	-0.043	0.206
-393.106	9.949	0.122	-0.092
-392.092	-200.000	-0.043	-0.275
-391.077	249.803	-0.289	0.488
-390.063	378.355	-0.089	0.180
-389.048	800.000	-0.078	0.322
-388.033	346.625	-0.066	0.128
-387.019	-69.098	-0.183	0.070
-386.004	112.107	-0.133	-0.160
-384.990	325.747	0.043	0.081
-383.975	-90.865	0.134	0.038
-382.960	-182.151	-0.443	0.008
-381.946	-200.000	0.004	0.253
-380.931	-200.000	0.377	0.001
-379.917	-60.198	-0.271	-0.115
-378.902	-61.112	-0.186	0.078
-377.888	-82.746	-0.140	-0.045
-376.873	253.978	0.240	-0.409
-375.858	297.439	-0.065	-0.119
-374.844	223.142	-0.050	0.079
-373.829	-52.331	-0.202	-0.093
-372.815	-15.639	-0.182	0.115
-371.800	-200.000	-0.019	0.158
-370.785	291.661	-0.049	-0.089
-369.771	555.721	0.112	0.269
-368.756	-200.000	-0.005	0.059
-367.742	-116.355	0.058	0.011
-366.727	-21.960	0.212	0.128
-365.712	250.651	0.077	0.130
-364.698	145.664	0.128	-0.170
-363.683	800.000	0.068	0.265
-362.669	99.291	0.101	-0.116
-361.654	149.645	-0.093	-0.125
-360.639	219.396	0.031	-0.050
-359.625	-200.000	0.055	-0.530
-358.610	-200.000	-0.017	-0.172
-357.596	-200.000	-0.035	0.177
-356.581	58.310	-0.278	-0.271
-355.566	-200.000	-0.039	-0.482
-354.552	270.447	-0.132	-0.231
-353.537	564.087	-0.045	-0.109
-352.523	409.599	0.058	-0.121
-351.508	-46.249	-0.042	0.021
-350.493	-200.000	0.013	-0.080
-349.479	132.306	-0.081	-0.103
-348.464	96.800	-0.159	-0.181
-347.450	224.958	-0.155	0.249
-346.435	229.824	-0.139	0.226
-345.420	-172.487	0.237	0.007
-344.406	41.593	0.118	0.106
-343.391	-76.202	0.056	-0.020
-342.377	800.000	0.030	-0.110
-341.362	76.919	-0.195	-0.206
-340.348	-200.000	0.025	-0.154
-339.333	-33.094	0.362	-0.199
-338.318	800.000	0.024	0.104
-337.304	504.728	0.163	0.374
-336.289	23.755	0.069	0.057
-335.275	-200.000	-0.001	0.076
-334.260	800.000	-0.043	0.156
-333.245	-127.181	-0.186	-0.027
-332.231	-200.000	-0.012	0.066
-331.216	-101.728	-0.205	0.049
-330.202	-1.462	0.082	-0.058
-329.187	61.888	-0.058	-0.057
-328.172	171.146	0.255	0.363
-327.158	-126.496	0.239	0.035
-326.143	565.406	-0.088	-0.211
-325.129	257.139	0.092	-0.157
-324.114	-7.708	-0.214	-0.143
-323.099	-130.732	-0.193	0.026
-322.085	-200.000	-0.026	0.183
-321.070	-55.690	0.198	0.088
-320.056	-92.963	0.350	0.097
-319.041	-200.000	0.006	-0.106
-318.026	-200.000	0.001	-0.076
-317.012	-162.016	0.363	0.018
-315.997	303.339	-0.040	-0.073
-314.983	-200.000	0.035	0.346
-313.968	0.819	0.184	-0.131
-312.953	175.348	0.037	0.054
-311.939	-200.000	0.036	-0.259
-310.924	-63.087	0.339	0.139
-309.910	177.189	0.118	0.170
-308.895	-200.000	0.051	0.291
-307.880	101.407	0.274	-0.317
-306.866	437.376	0.068	0.147
-305.851	-87.691	-0.110	0.033
-304.837	-14.352	-0.308	-0.196
-303.822	-161.758	0.079	0.004
-302.807	-92.039	-0.087	-0.024
-301.793	65.630	0.139	0.140
-300.778	49.339	0.252	-0.235
-299.764	-200.000	0.006	-0.035
-298.749	-3.850	-0.262	0.180
-297.735	-200.000	-0.001	0.108
-296.720	-168.939	-0.167	-0.006
-295.705	800.000	0.036	0.106
-294.691	-200.000	0.020	0.248
-293.676	-200.000	-0.065	0.310
-292.662	3.566	0.251	-0.181
-291.647	142.098	-0.150	0.197
-290.632	-53.447	-0.173	-0.078
-289.618	-69.595	-0.267	-0.101
-288.603	145.119	0.139	-0.184
-287.589	-200.000	0.022	0.098
-286.574	80.600	0.131	-0.139
-285.559	800.000	-0.029	0.087
-284.545	-144.222	0.271	0.025
-283.530	563.825	0.110	-0.264
-282.516	3.216	-0.205	-0.148
-281.501	1.231	0.246	-0.175
-280.486	-200.000	-0.004	-0.076
-279.472	-131.036	-0.037	0.005
-278.457	-29.418	-0.204	0.116
-277.443	334.701	0.187	-0.359
-276.428	-107.260	0.291	0.063
-275.413	-200.000	-0.011	0.165
-274.399	800.000	-0.040	-0.137
-273.384	800.000	-0.096	0.326
-272.370	800.000	-0.065	0.196
-271.355	196.310	0.048	0.073
-270.340	102.512	0.159	-0.184
-269.326	173.399	0.128	-0.183
-268.311	-200.000	0.004	0.254
-267.297	26.868	-0.195	0.162
-266.282	-58.818	0.341	0.146
-265.267	-105.830	-0.247	0.055
-264.253	800.000	0.028	0.081
-263.238	-2.024	-0.258	-0.180
-262.224	-15.075	-0.203	0.129
-261.209	45.308	0.105	-0.096
-260.195	-9.238	0.119	-0.079
-259.180	-73.194	0.234	-0.085
-258.165	800.000	0.092	0.346
-257.151	-6.783	0.060	-0.041
-256.136	-70.179	-0.132	-0.049
-255.122	2.554	-0.088	-0.063
-254.107	238.787	-0.170	-0.279
-253.092	-108.458	0.145	0.031
-252.078	-156.133	-0.395	0.025
-251.063	-200.000	0.001	-0.082
-250.049	165.589	0.146	0.204
-249.034	-120.892	0.365	0.061
-248.019	-97.424	0.359	0.092
-247.005	218.506	0.065	0.103
-245.990	-122.113	-0.153	0.025
-244.976	-74.942	0.315	0.112
-243.961	-118.634	0.178	0.031
-242.946	193.446	-0.022	0.033
-241.932	54.124	-0.145	-0.138
-240.917	-27.005	0.088	0.051
-239.903	-87.428	0.337	-0.101
-238.888	-200.000	-0.051	0.429
-237.873	800.000	0.109	0.341
-236.859	800.000	-0.177	0.504
-235.844	-200.000	0.008	-0.363
-234.830	45.585	-0.082	-0.075
-233.815	-200.000	0.180	0.001
-232.800	-37.766	0.335	0.176
-231.786	175.576	0.206	-0.295
-230.771	52.687	0.151	0.142
-229.757	-41.291	0.241	-0.123
-228.742	288.157	0.163	0.291
-227.727	99.157	0.141	0.161
-226.713	138.663	0.084	-0.109
-225.698	-200.000	0.017	-0.229
-224.684	-38.033	-0.108	-0.057
-223.669	89.990	-0.226	-0.250
-222.655	-53.281	0.104	-0.047
-221.640	-200.000	-0.011	0.354
-220.625	10.499	-0.055	0.042
-219.611	60.489	0.137	0.134
-218.596	98.271	-0.157	0.179
-217.582	800.000	0.082	-0.224
-216.567	-32.408	0.342	-0.189
-215.552	-200.000	-0.050	-0.357
-214.538	97.205	-0.187	-0.212
-213.523	-54.004	-0.138	0.062
-212.509	49.924	-0.052	-0.049
-211.494	486.345	-0.081	-0.182
-210.479	8.227	0.220	0.163
-209.465	800.000	0.063	-0.197
-208.450	-200.000	-0.003	0.075
-207.436	-57.799	-0.288	0.124
-206.421	-96.021	0.114	0.030
-205.406	-146.915	0.233	0.020
-204.392	442.999	0.052	-0.112
-203.377	-200.000	-0.059	-0.375
-202.363	-42.919	0.092	0.046
-201.348	-200.000	0.060	0.337
-200.333	384.530	-0.071	-0.144
-199.319	-168.181	0.471	-0.018
-198.304	271.439	0.117	0.204
-197.290	-41.114	0.162	0.083
-196.275	590.144	-0.119	-0.289
-195.260	-200.000	-0.001	-0.016
-194.246	-200.000	0.025	-0.411
-193.231	-200.000	0.040	-0.213
-192.217	-13.158	0.183	0.118
-191.202	211.592	0.143	0.222
-190.187	-200.000	-0.017	0.184
-189.173	-97.655	-0.100	-0.025
-188.158	-25.060	-0.155	-0.091
-187.144	-115.627	0.450	0.083
-186.129	599.736	-0.067	0.164
-185.114	-65.267	-0.088	-0.035
-184.100	-74.550	-0.219	0.078
-183.085	44.343	0.244	0.221
-182.071	-192.344	-0.513	-0.005
-181.056	225.739	0.123	0.196
-180.042	32.486	-0.186	-0.159
-179.027	-25.792	-0.255	0.148
-178.012	93.955	0.101	0.113
-176.998	-120.398	-0.276	0.046
-175.983	-67.239	-0.223	-0.087
-174.969	145.540	-0.153	0.202
-173.954	-99.155	0.184	-0.046
-172.939	800.000	-0.069	0.213
-171.925	-200.000	-0.053	0.246
-170.910	-200.000	0.061	-0.314
-169.896	4.859	-0.125	-0.090
-168.881	-200.000	0.009	-0.177
-167.866	448.706	-0.049	-0.105
-166.852	-200.000	0.047	0.311
-165.837	-200.000	0.006	0.129
-164.823	660.722	0.093	0.237
-163.808	-7.579	-0.417	-0.278
-162.793	-39.164	-0.367	0.190
-161.779	-97.413	-0.093	-0.024
-160.764	57.747	-0.235	-0.227
-159.750	294.635	0.251	-0.453
-158.735	50.307	-0.107	-0.100
-157.720	21.569	-0.107	-0.086
-156.706	-16.010	0.186	0.116
-155.691	-75.737	-0.178	0.062
-154.677	58.953	-0.221	-0.214
-153.662	-200.000	0.003	-0.035
-152.647	267.861	0.092	-0.159
-151.633	-200.000	0.029	-0.183
-150.618	-130.840	0.265	0.035
-149.604	39.891	0.197	0.175
-148.589	270.904	0.052	-0.090
-147.574	107.227	0.231	-0.271
-146.560	-34.562	0.132	-0.071
-145.545	-200.000	-0.011	-0.396
-144.531	74.153	0.123	-0.127
-143.516	-168.808	0.355	0.013
-142.502	695.504	-0.038	0.098
-141.487	-10.773	-0.501	0.326
-140.472	-121.748	0.167	-0.027
-139.458	96.771	-0.204	-0.230
-138.443	-43.278	0.174	0.087
-137.429	-112.648	-0.222	0.044
-136.414	-42.771	-0.290	-0.145
-135.399	-134.163	0.145	0.018
-134.385	-114.066	0.181	-0.035
-133.370	-1.503	0.175	-0.121
-132.356	27.895	-0.085	0.070
-131.341	-120.440	0.065	0.011
-130.326	61.681	0.382	-0.375
-129.312	203.944	0.048	0.073
-128.297	85.705	-0.175	-0.190
-127.283	170.333	0.129	0.182
-126.268	800.000	0.090	0.355
-125.253	-32.226	0.153	-0.084
-124.239	-58.354	0.176	0.075
-123.224	-18.034	0.093	0.057
-122.210	-137.657	0.259	0.029
-121.195	-71.361	0.231	0.085
-120.180	800.000	-0.054	0.163
-119.166	800.000	0.056	0.178
-118.151	-25.919	-0.103	-0.060
-117.137	-200.000	0.001	0.119
-116.122	-117.408	0.141	-0.025
-115.107	64.090	-0.092	-0.091
-114.093	-200.000	-0.028	0.381
-113.078	-200.000	0.007	0.261
-112.064	343.006	0.018	0.034
-111.049	388.009	0.007	-0.014
-110.034	155.044	0.093	0.126
-109.020	-99.229	0.236	0.059
-108.005	90.133	0.253	-0.278
-106.991	95.698	0.015	-0.017
-105.976	-200.000	-0.013	-0.189
-104.962	-6.547	0.229	-0.153
-103.947	-200.000	0.000	-0.139
-102.932	17.572	0.249	0.194
-101.918	-63.318	-0.253	0.103
-100.903	24.721	0.121	-0.099
-99.889	-28.826	-0.323	0.183
-98.874	-200.000	-0.033	0.179
-97.859	695.580	0.069	0.178
-96.845	149.174	-0.076	0.101
-95.830	800.000	0.022	-0.080
-94.816	800.000	-0.040	-0.170
-93.801	515.405	0.032	-0.074
-92.786	-200.000	0.001	0.129
-91.772	-200.000	0.019	0.172
-90.757	-108.660	-0.145	0.031
-89.743	-143.984	0.530	-0.049
-88.728	665.655	-0.055	-0.139
-87.713	435.353	-0.016	0.035
-86.699	61.234	-0.090	-0.088
-85.684	-18.447	0.244	-0.150
-84.670	82.716	0.185	-0.198
-83.655	672.945	-0.165	-0.420
-82.640	-13.180	0.293	-0.187
-81.626	-23.051	0.184	0.109
-80.611	-200.000	-0.017	-0.137
-79.597	800.000	0.046	-0.197
-78.582	-129.300	-0.239	0.033
-77.567	-24.921	-0.182	-0.106
-76.553	-47.014	-0.021	0.010
-75.538	128.516	-0.108	-0.135
-74.524	-200.000	0.095	-0.529
-73.509	88.354	0.069	0.075
-72.494	-95.667	-0.163	0.043
-71.480	800.000	-0.105	-0.294
-70.465	-164.330	-0.198	-0.009
-69.451	-142.805	0.327	-0.031
-68.436	-38.675	0.284	-0.147
-67.422	-64.973	-0.184	0.073
-66.407	44.576	0.126	-0.114
-65.392	800.000	-0.104	-0.299
-64.378	-200.000	-0.012	0.093
-63.363	-200.000	0.046	-0.225
-62.349	-200.000	-0.006	-0.036
-61.334	78.067	-0.867	-0.909
-60.319	-7.906	0.657	0.435
-59.305	415.257	-0.509	-1.065
-58.290	364.658	0.541	1.069
-57.276	369.315	0.766	1.523
-56.261	-200.000	101.157	594.208
-55.246	571.463	1414.712	3383.002
-54.232	190.126	2608.455	3845.704
-53.217	110.490	2277.097	2687.794
-52.203	40.331	1895.785	1675.192
-51.188	34.234	1684.220	1442.188
-50.173	31.614	1640.686	1385.493
-49.159	49.088	1690.185	1558.979
-48.144	50.557	1707.402	1585.846
-47.130	33.799	1666.347	1423.396
-46.115	31.047	1651.955	1390.563
-45.100	30.845	1647.387	1385.155
-44.086	30.822	1644.511	1382.516
-43.071	30.775	1642.343	1380.286
-42.057	30.766	1639.783	1378.013
-41.042	30.842	1637.507	1376.612
-40.027	30.824	1635.770	1374.965
-39.013	30.798	1633.739	1373.008
-37.998	30.820	1632.587	1372.148
-36.984	30.885	1630.818	1371.089
-35.969	30.927	1629.712	1370.413
-34.954	31.008	1627.785	1369.333
-33.940	30.949	1626.221	1367.527
-32.925	30.884	1624.759	1365.767
-31.911	30.895	1623.001	1364.315
-30.896	30.946	1621.084	1363.021
-29.881	30.914	1619.653	1361.531
-28.867	30.937	1617.561	1359.887
-27.852	30.993	1615.643	1358.630
-26.838	30.980	1614.613	1357.616
-25.823	30.941	1613.399	1356.257
-24.809	31.051	1611.891	1355.735
-23.794	30.949	1610.856	1354.068
-22.779	30.959	1609.569	1353.002
-21.765	30.846	1607.945	1350.766
-20.750	30.915	1606.130	1349.691
-19.736	30.948	1604.907	1348.844
-18.721	31.045	1602.978	1347.871
-17.706	30.932	1601.713	1345.942
-16.692	31.007	1599.651	1344.693
-15.677	30.948	1598.697	1343.417
-14.663	31.057	1597.379	1343.035
-13.648	30.909	1596.368	1341.069
-12.633	30.976	1594.410	1339.851
-11.619	30.909	1593.495	1338.551
-10.604	30.942	1591.615	1337.155
-9.590	30.966	1590.234	1336.114
-8.575	30.968	1589.373	1335.350
-7.560	30.972	1588.193	1334.336
-6.546	30.979	1587.196	1333.495
-5.531	30.952	1585.717	1332.002
-4.517	30.991	1584.600	1331.296
-3.502	30.933	1583.825	1330.177
-2.487	31.033	1582.098	1329.385
-1.473	30.728	1570.483	1317.412
-0.458	28.071	1550.761	1282.217
0.556	23.869	1551.810	1251.877
1.571	21.547	1575.805	1254.502
2.586	21.045	1588.524	1260.889
3.600	18.664	1535.502	1202.035
4.615	11.384	1428.717	1070.731
5.629	5.545	1367.688	988.131
6.644	4.629	1360.254	976.922
7.659	4.582	1358.632	975.371
8.673	4.561	1357.603	974.414
9.688	4.608	1356.004	973.477
10.702	4.554	1352.942	970.856
11.717	7.258	1358.540	991.726
12.731	14.297	1371.053	1045.094
13.746	18.810	1378.216	1078.872
14.761	18.573	1376.677	1076.081
15.775	17.763	1373.786	1068.655
16.790	16.650	1370.863	1059.323
17.804	15.780	1369.059	1052.394
18.819	15.436	1367.458	1048.922
19.834	15.106	1366.473	1046.016
20.848	14.907	1365.432	1043.883
21.863	14.642	1364.131	1041.141
22.877	14.581	1362.918	1039.743
23.892	14.509	1361.738	1038.302
24.907	14.501	1361.411	1037.915
25.921	14.620	1359.956	1037.454
26.936	14.525	1359.489	1036.416
27.950	14.561	1358.907	1036.101
28.965	14.784	1357.448	1036.282
29.980	14.820	1355.822	1035.171
30.994	14.836	1354.875	1034.457
32.009	14.934	1353.410	1033.849
33.023	14.896	1352.797	1033.055
34.038	14.776	1351.679	1031.368
35.053	14.821	1349.774	1030.101
36.067	14.715	1349.327	1029.016
37.082	14.763	1347.830	1028.082
38.096	14.817	1347.105	1027.770
39.111	14.788	1346.332	1026.908
40.126	14.685	1345.352	1025.437
41.140	14.505	1344.552	1023.632
42.155	14.479	1344.203	1023.116
43.169	14.474	1343.908	1022.772
44.184	14.433	1343.377	1022.025
45.199	14.568	1343.051	1022.515
46.213	14.547	1343.053	1022.297
47.228	14.598	1342.020	1021.734
48.242	14.670	1340.455	1020.891
49.257	14.693	1338.684	1019.595
50.271	14.773	1337.232	1018.882
51.286	14.629	1336.696	1017.511
52.301	14.613	1335.478	1016.393
53.315	14.640	1333.752	1015.152
54.330	14.533	1333.051	1013.883
55.344	14.473	1332.128	1012.722
56.359	14.517	1330.836	1011.918
57.374	14.566	1329.857	1011.383
58.388	14.411	1329.294	1009.928
59.403	14.424	1328.649	1009.426
60.417	14.470	1328.099	1009.195
61.432	14.414	1326.672	1007.684
62.447	14.353	1325.879	1006.625
63.461	14.320	1324.887	1005.580
64.476	14.376	1323.634	1004.881
65.490	14.378	1322.465	1003.913
66.505	14.391	1320.973	1002.773
67.520	14.342	1319.689	1001.417
68.534	14.407	1318.895	1001.116
69.549	14.316	1317.820	999.663
70.563	14.376	1316.634	999.034
71.578	14.312	1315.365	997.601
72.593	14.150	1315.007	996.267
73.607	14.173	1314.253	995.749
74.622	14.244	1313.275	995.343
75.636	14.278	1312.811	995.107
76.651	14.231	1312.268	994.328
77.666	14.252	1311.573	993.838
78.680	14.292	1311.279	993.767
79.695	14.385	1310.242	993.446
80.709	14.455	1309.507	993.220
81.724	14.443	1308.627	992.393
82.739	14.451	1307.988	991.869
83.753	14.696	1306.822	992.353
84.768	14.651	1305.880	991.282
85.782	14.666	1305.137	990.720
86.797	14.699	1303.846	989.845
87.812	14.642	1302.664	988.526
88.826	14.610	1301.788	987.580
89.841	14.648	1300.453	986.705
90.855	14.791	1299.213	986.523
91.870	14.771	1298.348	985.658
92.884	14.640	1297.967	984.509
93.899	14.815	1297.116	984.811
94.914	14.893	1296.421	984.655
95.928	14.824	1295.479	983.448
96.943	14.811	1294.271	982.366
97.957	14.789	1293.328	981.434
98.972	14.802	1292.096	980.487
99.987	14.807	1291.061	979.645
101.001	14.776	1290.207	978.732
102.016	14.695	1289.913	977.947
103.030	14.748	1288.851	977.361
104.045	14.769	1287.620	976.468
105.060	14.615	1286.644	974.739
106.074	14.623	1284.869	973.357
107.089	14.479	1283.687	971.537
108.103	14.332	1282.736	969.874
109.118	14.390	1281.322	969.054
110.133	14.395	1279.785	967.837
111.147	14.488	1278.535	967.346
112.162	14.459	1277.447	966.267
113.176	14.493	1276.411	965.598
114.191	14.556	1275.326	965.054
115.206	14.545	1273.978	963.885
116.220	14.511	1273.045	962.901
117.235	14.488	1272.045	961.927
118.249	14.477	1271.257	961.179
119.264	14.381	1270.160	959.714
120.279	14.418	1269.027	958.987
121.293	14.462	1267.380	957.909
122.308	14.468	1266.225	956.987
123.322	14.341	1265.546	955.659
124.337	14.343	1264.723	954.962
125.352	14.456	1263.701	954.753
126.366	14.394	1262.561	953.453
127.381	14.404	1261.657	952.743
128.395	14.468	1260.156	951.892
129.410	14.488	1259.474	951.405
130.424	14.420	1259.096	950.648
131.439	14.465	1257.976	949.978
132.454	14.608	1256.531	949.613
133.468	14.480	1256.526	948.798
134.483	14.576	1255.476	948.470
135.497	14.462	1254.486	946.989
136.512	14.583	1253.099	946.544
137.527	14.587	1252.023	945.672
138.541	14.533	1250.514	944.140
139.556	14.646	1249.181	943.691
140.570	14.678	1248.282	943.110
141.585	14.705	1247.188	942.353
142.600	14.749	1246.411	941.926
143.614	14.834	1245.002	941.260
144.629	14.854	1243.978	940.514
145.643	14.884	1242.799	939.706
146.658	14.721	1241.581	937.787
147.673	14.656	1240.502	936.524
148.687	14.707	1239.233	935.770
149.702	14.646	1237.932	934.363
150.716	14.674	1236.574	933.411
151.731	14.721	1235.347	932.668
152.746	14.704	1234.632	931.950
153.760	14.680	1233.492	930.873
154.775	14.775	1232.210	930.354
155.789	14.884	1231.567	930.392
156.804	14.918	1230.137	929.417
157.819	14.956	1229.038	928.719
158.833	14.847	1229.134	928.099
159.848	14.910	1227.776	927.343
160.862	14.872	1226.830	926.336
161.877	14.774	1225.975	925.064
162.892	14.732	1224.857	923.906
163.906	14.763	1223.759	923.169
164.921	14.781	1222.891	922.532
165.935	14.775	1222.108	921.828
166.950	14.766	1220.985	920.848
167.964	14.795	1220.544	920.595
168.979	14.831	1219.945	920.257
169.994	14.691	1219.286	918.912
171.008	14.840	1218.015	918.687
172.023	14.947	1217.158	918.548
173.037	15.001	1216.313	918.125
174.052	14.861	1216.029	917.063
175.067	14.805	1214.506	915.526
176.081	14.786	1213.553	914.622
177.096	14.755	1212.715	913.740
178.110	14.825	1211.465	913.099
179.125	14.796	1210.451	912.096
180.140	14.901	1209.641	911.979
181.154	14.906	1207.959	910.658
182.169	15.073	1206.444	910.341
183.183	14.960	1205.733	909.111
184.198	14.992	1204.534	908.304
185.213	15.090	1203.195	907.741
186.227	15.044	1202.444	906.847
187.242	15.107	1201.460	906.365
188.256	15.225	1200.748	906.386
189.271	15.158	1199.878	905.289
190.286	15.055	1198.507	903.620
191.300	14.821	1197.797	901.739
192.315	14.861	1196.802	901.126
193.329	14.786	1196.592	900.483
194.344	14.857	1195.790	900.183
195.359	15.024	1195.270	900.609
196.373	15.039	1194.879	900.315
197.388	15.214	1194.362	900.787
198.402	15.348	1193.977	901.138
199.417	15.340	1193.134	900.379
200.432	15.472	1192.674	900.659
201.446	15.462	1191.596	899.717
202.461	15.429	1190.827	898.877
203.475	15.455	1189.591	898.006
204.490	15.397	1188.432	896.738
205.504	15.312	1187.369	895.405
206.519	15.243	1186.034	893.948
207.534	15.314	1184.688	893.235
208.548	15.251	1184.159	892.422
209.563	15.382	1183.227	892.337
210.577	15.479	1182.102	891.928
211.592	15.440	1181.511	891.192
212.607	15.428	1180.983	890.655
213.621	15.489	1179.670	889.906
214.636	15.564	1179.013	889.729
215.650	15.430	1178.408	888.485
216.665	15.558	1176.810	887.878
217.680	15.516	1176.416	887.281
218.694	15.585	1175.504	886.877
219.709	15.557	1174.761	886.092
220.723	15.500	1174.122	885.231
221.738	15.464	1173.663	884.616
222.753	15.492	1172.625	883.905
223.767	15.697	1172.048	884.467
224.782	15.702	1171.401	883.928
225.796	15.807	1170.730	883.897
226.811	15.758	1169.999	883.009
227.826	15.653	1169.388	881.920
228.840	15.645	1168.452	881.092
229.855	15.802	1167.586	881.186
230.869	15.667	1167.218	880.121
231.884	15.508	1166.177	878.426
232.899	15.546	1165.222	877.830
233.913	15.459	1165.089	877.194
234.928	15.505	1164.161	876.658
235.942	15.567	1163.388	876.323
236.957	15.497	1162.702	875.366
237.972	15.542	1161.792	874.838
238.986	15.566	1161.187	874.425
240.001	15.616	1160.411	874.027
241.015	15.614	1159.524	873.271
242.030	15.668	1158.650	872.814
243.045	15.738	1158.181	872.748
244.059	15.861	1156.975	872.401
245.074	15.813	1156.386	871.630
246.088	15.869	1155.467	871.150
247.103	15.897	1154.892	870.784
248.117	15.824	1154.128	869.754
249.132	16.011	1153.304	870.022
250.147	16.117	1152.786	870.098
251.161	16.125	1152.298	869.695
252.176	16.172	1151.578	869.318
253.190	16.240	1150.818	869.018
254.205	16.181	1150.792	868.616
255.220	16.277	1149.544	868.093
256.234	16.294	1149.114	867.778
257.249	16.261	1148.618	867.156
258.263	16.329	1147.520	866.602
259.278	16.373	1146.443	865.937
260.293	16.295	1146.555	865.546
261.307	16.457	1145.668	865.628
262.322	16.372	1145.184	864.752
263.336	16.407	1144.447	864.294
264.351	16.430	1143.880	863.910
265.366	16.395	1143.231	863.163
266.380	16.438	1142.366	862.652
267.395	16.441	1141.727	862.108
268.409	16.474	1140.479	861.257
269.424	16.471	1140.065	860.857
270.439	16.353	1139.652	859.868
271.453	16.300	1138.868	858.928
272.468	16.464	1137.047	858.313
273.482	16.355	1136.972	857.625
274.497	16.298	1136.733	857.080
275.512	16.354	1135.804	856.588
276.526	16.475	1135.119	856.609
277.541	16.384	1134.514	855.616
278.555	16.406	1133.991	855.258
279.570	16.546	1133.178	855.276
280.585	16.508	1132.293	854.339
281.599	16.603	1131.129	853.868
282.614	16.499	1130.617	852.881
283.628	16.440	1129.332	851.541
284.643	16.380	1128.893	850.831
285.657	16.495	1127.783	850.495
286.672	16.486	1126.740	849.587
287.687	16.528	1125.877	849.076
288.701	16.563	1125.008	848.519
289.716	16.615	1124.241	848.127
290.730	16.589	1123.886	847.653
291.745	16.588	1123.531	847.308
292.760	16.582	1122.702	846.576
293.774	16.762	1121.522	846.510
294.789	16.716	1121.685	846.329
295.803	16.705	1120.788	845.521
296.818	16.715	1119.942	844.859
297.833	16.633	1119.258	843.859
298.847	16.781	1118.035	843.599
299.862	16.767	1117.259	842.869
300.876	16.742	1116.990	842.470
301.891	16.818	1116.251	842.215
302.906	16.871	1115.473	841.817
303.920	17.026	1114.538	841.803
304.935	17.046	1114.335	841.675
305.949	17.179	1113.314	841.488
306.964	17.030	1113.063	840.485
307.979	17.106	1111.836	839.860
308.993	16.983	1111.516	838.938
310.008	17.082	1110.306	838.441
311.022	17.049	1109.757	837.786
312.037	17.009	1108.804	836.795
313.052	16.996	1107.850	835.938
314.066	16.841	1107.380	834.747
315.081	16.863	1106.546	834.152
316.095	16.860	1105.492	833.270
317.110	16.972	1104.345	832.882
318.125	16.918	1104.386	832.574
319.139	16.901	1103.537	831.777
320.154	16.923	1102.919	831.345
321.168	16.849	1102.198	830.364
322.183	16.982	1101.528	830.439
323.197	16.926	1101.401	829.995
324.212	17.037	1100.480	829.772
325.227	17.010	1099.926	829.148
326.241	17.052	1098.907	828.508
327.256	17.018	1098.354	827.854
328.270	17.074	1097.838	827.665
329.285	17.062	1096.556	826.566
330.300	17.019	1096.105	825.944
331.314	17.011	1094.824	824.867
332.329	17.071	1093.459	824.058
333.343	17.057	1093.139	823.677
334.358	17.209	1092.308	823.714
335.373	17.146	1091.561	822.774
336.387	17.166	1090.997	822.370
337.402	17.116	1090.036	821.330
338.416	17.232	1089.228	821.209
339.431	17.256	1088.373	820.608
340.446	17.319	1088.522	820.953
341.460	17.362	1088.056	820.737
342.475	17.392	1086.936	819.962
343.489	17.593	1085.850	820.039
344.504	17.528	1085.183	819.151
345.519	17.494	1084.549	818.435
346.533	17.536	1083.861	818.048
347.548	17.619	1082.850	817.609
348.562	17.591	1082.282	816.972
349.577	17.496	1081.125	815.571
350.592	17.489	1080.583	815.059
351.606	17.469	1079.900	814.374
352.621	17.415	1079.474	813.724
353.635	17.399	1078.129	812.562
354.650	17.419	1077.450	812.072
355.665	17.437	1076.851	811.636
356.679	17.522	1076.187	811.470
357.694	17.503	1075.736	810.965
358.708	17.583	1075.130	810.820
359.723	17.508	1074.579	809.975
360.738	17.597	1073.916	809.828
361.752	17.597	1073.307	809.293
362.767	17.575	1072.474	808.491
363.781	17.719	1072.087	808.811
364.796	17.658	1071.403	807.933
365.810	17.694	1070.851	807.616
366.825	17.855	1070.389	807.958
367.840	17.861	1070.007	807.627
368.854	17.989	1068.948	807.362
369.869	17.951	1068.386	806.688
370.883	17.926	1067.356	805.718
371.898	17.848	1066.882	804.923
372.913	17.837	1066.222	804.304
373.927	17.794	1065.846	803.744
374.942	17.977	1065.186	804.037
375.956	17.926	1064.667	803.335
376.971	17.928	1064.145	802.881
377.986	18.101	1063.583	803.198
379.000	18.168	1062.854	802.887
380.015	18.002	1062.442	801.726
381.029	18.046	1061.824	801.395
382.044	18.171	1061.218	801.455
383.059	17.997	1060.607	800.110
384.073	18.075	1059.620	799.656
385.088	18.204	1058.400	799.267
386.102	18.176	1057.366	798.287
387.117	18.126	1056.604	797.408
388.132	17.995	1055.996	796.267
389.146	17.998	1055.167	795.586
390.161	17.976	1054.493	794.904
391.175	18.037	1053.861	794.643
392.190	18.044	1053.125	794.047
393.205	18.131	1052.334	793.786
394.219	18.124	1051.425	792.997
395.234	18.117	1050.945	792.534
396.248	18.169	1049.721	791.780
397.263	18.174	1048.521	790.829
398.278	18.110	1047.622	789.786
399.292	18.073	1047.145	789.187
400.307	17.989	1046.981	788.603
401.321	18.001	1046.248	788.038
402.336	18.072	1045.157	787.474
403.350	18.070	1044.478	786.882
404.365	18.175	1043.900	786.859
405.380	18.064	1043.785	786.194
406.394	18.154	1042.393	785.489
407.409	18.178	1041.718	785.019
408.423	18.252	1041.535	785.151
409.438	18.356	1040.828	785.027
410.453	18.511	1040.221	785.211
411.467	18.419	1039.197	783.946
412.482	18.528	1038.402	783.774
413.496	18.553	1037.999	783.517
414.511	18.520	1037.169	782.672
415.526	18.545	1036.921	782.527
416.540	18.654	1036.662	782.759
417.555	18.723	1035.688	782.271
418.569	18.557	1035.223	781.091
419.584	18.539	1035.184	780.914
420.599	18.576	1034.698	780.647
421.613	151.016	1401.642	1798.437
422.628	137.913	1455.087	1798.515
