DTS Sentinel unit serial number:	SN413079Multiplexer serial number:	ORYXHardware model number:	OX4-SRSoftware version number:	ORYX F/W v4.00 Oryx Data Collector v3.7.2.0data status	okinstallation	princeton_trtdifferential loss correction	single-endedforward channel	channel 2reverse channel	N/Adate	2019/09/16time	18:35:35forward acquisition time	60.00reverse acquisition time	0.00gamma	496.2192k internal	0.2322k external	0.2322temperature offset calibration	0.9957default loss term (dB/km)	0.3790temperature slope calibration	1.0000multiplexer offset coefficient	1.0000multiplexer slope coefficient	1.0000fibre end	0.00T internal ref (°C)	36.44T ext. ref 1 (°C)	-0.01T ext. ref 2 (°C)	29.85length (m)	temperature (°C)	Stokes	anti-Stokes-747.200	16.662	0.189	-0.151
-746.185	-23.623	0.119	-0.072
-745.171	-200.000	-0.065	-0.341
-744.156	-200.000	0.030	-0.241
-743.142	279.411	-0.110	-0.198
-742.127	800.000	-0.073	0.282
-741.112	71.496	-0.087	0.092
-740.098	-60.457	0.248	-0.106
-739.083	233.085	-0.195	-0.323
-738.069	-99.035	-0.126	0.032
-737.054	13.912	0.116	-0.091
-736.039	27.657	-0.055	-0.046
-735.025	76.472	-0.139	0.148
-734.010	-65.827	-0.366	-0.148
-732.996	316.137	0.033	-0.064
-731.981	-174.890	0.265	-0.008
-730.966	800.000	0.103	-0.344
-729.952	-52.078	0.100	-0.047
-728.937	627.613	0.022	-0.056
-727.923	-155.688	0.186	0.012
-726.908	103.181	-0.232	-0.275
-725.894	-19.096	0.089	-0.056
-724.879	44.018	0.175	-0.162
-723.864	4.179	-0.378	-0.279
-722.850	287.414	0.242	-0.442
-721.835	-200.000	-0.024	-0.211
-720.821	-200.000	-0.023	-0.282
-719.806	-135.578	0.151	0.018
-718.791	-63.832	-0.203	0.084
-717.777	28.509	-0.243	-0.208
-716.762	-37.364	0.084	-0.045
-715.748	360.408	0.055	0.111
-714.733	-29.931	0.292	0.168
-713.718	95.221	-0.123	-0.141
-712.704	26.073	0.225	-0.189
-711.689	-31.877	-0.101	0.057
-710.675	152.269	-0.138	0.191
-709.660	-172.982	0.135	0.004
-708.645	-200.000	0.037	-0.270
-707.631	-200.000	0.004	-0.067
-706.616	-88.989	0.144	-0.043
-705.602	-200.000	0.004	-0.045
-704.587	55.051	-0.034	-0.033
-703.572	114.199	0.163	-0.200
-702.558	-200.000	0.026	-0.332
-701.543	467.379	-0.052	0.117
-700.529	800.000	0.028	0.106
-699.514	800.000	0.008	0.034
-698.499	0.069	-0.152	0.110
-697.485	-200.000	0.010	-0.130
-696.470	-28.696	-0.331	-0.192
-695.456	491.222	0.135	-0.313
-694.441	-93.950	0.267	0.074
-693.426	800.000	-0.080	-0.348
-692.412	-115.724	-0.278	0.052
-691.397	135.912	-0.092	0.120
-690.383	3.841	0.143	-0.105
-689.368	54.210	0.278	-0.270
-688.354	-20.700	-0.224	-0.138
-687.339	-200.000	0.035	-0.201
-686.324	-65.986	-0.357	-0.144
-685.310	95.688	-0.142	0.163
-684.295	800.000	-0.072	-0.232
-683.281	-92.057	-0.155	0.044
-682.266	-68.528	0.323	-0.126
-681.251	-200.000	-0.014	0.573
-680.237	-191.694	0.120	-0.001
-679.222	-53.276	0.113	0.052
-678.208	433.866	0.043	-0.094
-677.193	47.392	0.294	-0.276
-676.178	-142.303	0.225	-0.022
-675.164	72.528	-0.145	0.152
-674.149	626.188	0.016	0.042
-673.135	-137.814	-0.134	0.015
-672.120	66.659	-0.137	-0.141
-671.105	800.000	-0.047	-0.199
-670.091	-147.855	-0.121	0.010
-669.076	-12.315	-0.200	0.132
-668.062	-42.160	0.288	0.148
-667.047	174.824	-0.100	-0.146
-666.032	132.285	-0.061	-0.079
-665.018	185.667	0.027	0.041
-664.003	182.023	-0.168	0.249
-662.989	-62.739	0.124	0.052
-661.974	800.000	-0.046	-0.191
-660.959	-178.651	0.248	-0.006
-659.945	-200.000	-0.065	-0.291
-658.930	-102.871	-0.172	0.041
-657.916	299.242	-0.151	0.279
-656.901	-71.899	-0.273	0.102
-655.886	106.410	-0.183	0.218
-654.872	-53.316	0.409	0.189
-653.857	-24.486	0.205	0.123
-652.843	-24.516	-0.193	-0.116
-651.828	-188.068	0.159	0.002
-650.814	112.831	0.188	0.230
-649.799	113.675	0.188	-0.230
-648.784	-82.496	0.145	-0.047
-647.770	-8.321	-0.207	-0.140
-646.755	-77.964	-0.437	-0.152
-645.741	19.549	0.088	0.071
-644.726	800.000	-0.031	0.100
-643.711	800.000	0.060	-0.168
-642.697	-152.420	-0.058	0.004
-641.682	-75.989	0.130	-0.046
-640.668	-200.000	0.009	0.094
-639.653	800.000	0.069	0.224
-638.638	108.754	0.167	0.201
-637.624	381.902	0.008	0.017
-636.609	-200.000	-0.015	0.122
-635.595	-122.486	0.047	0.008
-634.580	529.289	-0.060	-0.143
-633.565	800.000	0.013	-0.037
-632.551	-200.000	-0.002	-0.012
-631.536	307.836	0.026	-0.050
-630.522	800.000	-0.106	0.379
-629.507	-26.858	0.346	0.203
-628.492	-24.887	-0.072	-0.043
-627.478	46.560	0.245	-0.229
-626.463	-124.720	0.494	0.077
-625.449	-58.623	-0.272	0.118
-624.434	-116.989	-0.326	0.060
-623.419	-45.789	-0.360	0.179
-622.405	12.080	-0.043	-0.033
-621.390	-160.846	-0.168	-0.009
-620.376	-200.000	-0.054	-0.310
-619.361	236.032	-0.078	-0.129
-618.346	-125.139	0.456	-0.070
-617.332	273.388	0.129	0.230
-616.317	-153.214	-0.216	-0.015
-615.303	-111.536	-0.091	-0.019
-614.288	800.000	-0.203	-0.614
-613.273	108.441	-0.101	-0.121
-612.259	-94.916	-0.110	-0.030
-611.244	-200.000	0.004	0.135
-610.230	56.951	0.135	-0.133
-609.215	-200.000	-0.044	0.207
-608.201	538.134	-0.024	-0.058
-607.186	440.984	0.068	0.149
-606.171	-200.000	0.019	0.092
-605.157	-50.584	-0.185	-0.088
-604.142	-34.465	0.416	0.229
-603.128	457.502	0.004	0.010
-602.113	257.111	-0.282	-0.488
-601.098	-14.811	-0.117	0.075
-600.084	225.332	-0.100	0.163
-599.069	337.993	0.073	0.142
-598.055	-19.504	0.241	-0.150
-597.040	-134.302	-0.107	0.013
-596.025	136.234	-0.119	0.157
-595.011	-200.000	0.094	0.424
-593.996	287.579	-0.102	-0.185
-592.982	-105.902	0.266	-0.060
-591.967	284.604	0.103	-0.186
-590.952	136.120	0.097	0.127
-589.938	291.849	-0.096	0.176
-588.923	72.590	-0.197	-0.206
-587.909	-6.310	0.139	0.095
-586.894	26.879	-0.268	0.226
-585.879	-23.064	0.142	0.086
-584.865	98.330	0.104	-0.120
-583.850	-14.922	0.108	-0.070
-582.836	5.497	-0.142	0.105
-581.821	-78.154	-0.146	0.050
-580.806	-59.201	-0.301	0.130
-579.792	231.137	0.119	0.196
-578.777	459.781	-0.122	-0.274
-577.763	-176.761	-0.410	-0.010
-576.748	109.483	0.296	-0.356
-575.733	89.858	0.073	-0.082
-574.719	259.529	-0.051	-0.089
-573.704	800.000	-0.036	-0.117
-572.690	800.000	-0.028	-0.100
-571.675	-126.046	-0.107	0.016
-570.661	188.199	-0.106	0.159
-569.646	-145.348	-0.194	0.018
-568.631	-109.140	-0.123	-0.026
-567.617	217.846	0.082	0.131
-566.602	53.674	-0.069	0.066
-565.588	-34.750	-0.208	0.114
-564.573	102.752	-0.134	0.158
-563.558	-42.228	-0.162	-0.083
-562.544	40.271	0.269	-0.243
-561.529	-200.000	0.014	-0.252
-560.515	425.662	-0.142	0.307
-559.500	-108.696	-0.291	0.063
-558.485	12.066	0.103	-0.080
-557.471	800.000	-0.107	-0.376
-556.456	474.314	-0.029	0.066
-555.442	-125.189	-0.240	-0.037
-554.427	165.673	0.131	0.186
-553.412	432.756	-0.173	0.376
-552.398	-200.000	-0.050	0.235
-551.383	235.168	0.104	0.172
-550.369	-82.614	0.091	0.029
-549.354	266.700	-0.042	-0.074
-548.339	118.827	0.023	-0.028
-547.325	-92.746	0.072	-0.020
-546.310	111.261	0.164	0.199
-545.296	81.390	0.176	-0.191
-544.281	-200.000	-0.039	-0.292
-543.266	363.044	-0.118	0.239
-542.252	258.312	0.128	-0.220
-541.237	182.146	-0.218	-0.322
-540.223	7.795	-0.301	0.226
-539.208	-61.417	-0.307	0.130
-538.193	-200.000	0.007	-0.170
-537.179	-47.887	-0.141	0.068
-536.164	-54.896	0.181	-0.082
-535.150	-200.000	0.006	0.226
-534.135	-117.804	0.284	-0.051
-533.121	-170.029	-0.151	0.005
-532.106	8.559	-0.229	0.173
-531.091	65.998	0.237	-0.241
-530.077	5.214	-0.091	-0.067
-529.062	-87.827	-0.303	-0.091
-528.048	346.504	0.041	-0.081
-527.033	800.000	0.063	-0.198
-526.018	34.153	0.357	-0.312
-525.004	56.347	-0.129	-0.126
-523.989	-14.870	-0.150	-0.096
-522.975	182.505	-0.047	0.069
-521.960	318.245	-0.139	0.264
-520.945	189.297	0.062	0.093
-519.931	-167.385	-0.328	-0.013
-518.916	-60.328	0.117	0.050
-517.902	71.087	-0.308	-0.319
-516.887	-145.040	0.473	-0.043
-515.872	-115.104	-0.229	0.044
-514.858	-113.089	0.234	0.046
-513.843	-47.575	0.191	0.093
-512.829	-58.577	-0.183	0.080
-511.814	-58.087	-0.209	-0.091
-510.799	-28.323	-0.128	-0.074
-509.785	459.855	-0.029	-0.064
-508.770	-200.000	-0.013	0.137
-507.756	680.938	0.121	0.317
-506.741	446.356	-0.056	-0.124
-505.726	-58.259	0.065	0.028
-504.712	104.603	-0.247	-0.291
-503.697	-184.547	0.237	0.004
-502.683	-200.000	-0.014	0.209
-501.668	-183.902	-0.089	-0.001
-500.653	-99.131	-0.244	0.062
-499.639	-86.762	0.096	-0.029
-498.624	-200.000	0.036	-0.231
-497.610	58.560	-0.285	-0.280
-496.595	64.098	-0.167	0.168
-495.581	-200.000	0.056	-0.298
-494.566	-38.002	0.179	-0.095
-493.551	-200.000	0.036	0.239
-492.537	47.769	0.258	0.241
-491.522	119.878	-0.127	0.158
-490.508	-168.322	0.183	-0.007
-489.493	-200.000	-0.031	-0.437
-488.478	-97.556	0.317	0.082
-487.464	-17.028	0.384	0.243
-486.449	-34.306	0.135	-0.074
-485.435	-33.390	0.117	0.064
-484.420	-118.258	-0.321	-0.057
-483.405	237.907	-0.143	0.237
-482.391	-49.116	-0.197	-0.094
-481.376	-191.139	0.145	-0.001
-480.362	-200.000	-0.042	0.189
-479.347	37.108	0.088	-0.078
-478.332	20.250	0.417	-0.337
-477.318	-39.948	-0.246	-0.128
-476.303	800.000	0.078	0.240
-475.289	256.968	0.101	0.174
-474.274	-200.000	0.023	-0.253
-473.259	329.595	0.184	0.353
-472.245	-145.925	-0.208	0.018
-471.230	-200.000	-0.032	-0.288
-470.216	-200.000	0.006	-0.111
-469.201	-133.097	0.349	-0.044
-468.186	77.133	0.226	0.240
-467.172	-128.822	-0.374	-0.053
-466.157	422.330	0.051	0.109
-465.143	72.375	0.031	0.033
-464.128	-84.732	0.263	-0.083
-463.113	163.779	0.091	-0.128
-462.099	-49.544	0.238	-0.113
-461.084	-39.435	-0.209	-0.109
-460.070	-96.479	-0.199	-0.053
-459.055	-37.182	-0.218	0.117
-458.040	-200.000	-0.004	0.027
-457.026	380.394	-0.077	-0.157
-456.011	-87.806	-0.279	0.084
-454.997	-84.749	-0.184	-0.058
-453.982	-3.246	-0.220	0.153
-452.968	603.583	-0.060	0.150
-451.953	800.000	-0.043	0.186
-450.938	-100.740	-0.092	-0.023
-449.924	158.832	-0.174	-0.242
-448.909	-200.000	-0.012	-0.086
-447.895	123.083	-0.195	0.244
-446.880	-32.313	-0.193	0.108
-445.865	-139.150	-0.429	-0.046
-444.851	-107.326	-0.072	0.016
-443.836	-200.000	0.005	-0.154
-442.822	135.124	-0.172	0.224
-441.807	27.279	-0.235	0.197
-440.792	613.776	0.148	-0.369
-439.778	-49.832	0.207	-0.098
-438.763	-200.000	-0.028	-0.246
-437.749	-103.371	0.145	-0.034
-436.734	-128.040	-0.272	-0.039
-435.719	-161.140	0.103	0.005
-434.705	-37.135	0.143	-0.076
-433.690	-167.608	0.226	-0.009
-432.676	-115.294	0.085	-0.016
-431.661	176.036	-0.108	0.157
-430.646	-104.934	0.228	-0.052
-429.632	231.935	-0.206	-0.338
-428.617	-22.366	-0.340	-0.206
-427.603	49.196	-0.141	-0.133
-426.588	372.841	-0.005	0.011
-425.573	-91.896	0.358	-0.101
-424.559	-65.435	0.372	-0.149
-423.544	-117.586	0.147	-0.026
-422.530	-200.000	-0.033	0.290
-421.515	-74.892	0.080	0.029
-420.500	-200.000	0.014	-0.156
-419.486	130.202	-0.263	-0.337
-418.471	221.644	0.051	-0.082
-417.457	228.362	-0.176	-0.285
-416.442	92.588	0.336	-0.378
-415.428	-123.026	-0.257	-0.041
-414.413	538.085	-0.124	-0.293
-413.398	-92.765	-0.009	-0.002
-412.384	-73.822	-0.031	-0.011
-411.369	116.679	0.051	-0.062
-410.355	-99.725	0.322	0.080
-409.340	176.956	0.085	0.124
-408.325	-110.215	0.269	0.056
-407.311	65.966	-0.359	0.363
-406.296	-6.490	0.056	0.038
-405.282	14.103	-0.065	-0.051
-404.267	-10.363	0.151	-0.100
-403.252	97.945	-0.201	-0.231
-402.238	-96.472	0.381	-0.100
-401.223	445.611	0.203	0.445
-400.209	29.271	-0.211	0.179
-399.194	-119.571	-0.035	0.006
-398.179	-77.373	0.100	-0.035
-397.165	-200.000	-0.019	-0.104
-396.150	618.242	-0.027	0.066
-395.136	428.083	0.060	0.129
-394.121	18.695	-0.409	-0.326
-393.106	-200.000	-0.039	-0.225
-392.092	-50.027	0.345	0.163
-391.077	-49.747	-0.170	-0.081
-390.063	-160.291	-0.306	0.016
-389.048	41.085	-0.122	0.110
-388.033	-178.095	0.246	-0.006
-387.019	-79.629	-0.540	0.181
-386.004	-143.208	-0.443	-0.042
-384.990	327.364	0.088	0.169
-383.975	800.000	-0.059	0.243
-382.960	127.614	-0.133	0.169
-381.946	153.490	-0.126	-0.172
-380.931	71.407	-0.086	0.089
-379.917	-200.000	-0.018	0.113
-378.902	-7.053	0.308	0.208
-377.888	-67.072	-0.142	-0.056
-376.873	448.321	0.039	-0.086
-375.858	-119.636	-0.324	-0.056
-374.844	-56.405	-0.223	0.099
-373.829	800.000	0.069	-0.200
-372.815	-73.958	0.181	0.065
-371.800	12.404	-0.153	-0.117
-370.785	-157.297	0.334	-0.020
-369.771	104.962	-0.085	0.100
-368.756	800.000	-0.059	0.173
-367.742	55.902	-0.068	-0.066
-366.727	-200.000	-0.028	-0.192
-365.712	203.181	-0.076	0.116
-364.698	279.671	-0.053	0.094
-363.683	-200.000	0.003	-0.156
-362.669	800.000	-0.028	0.087
-361.654	800.000	0.054	-0.219
-360.639	-42.464	-0.095	-0.048
-359.625	-24.859	0.163	0.096
-358.610	-26.179	0.091	-0.053
-357.596	265.703	-0.085	-0.147
-356.581	204.554	0.212	0.327
-355.566	800.000	0.019	-0.082
-354.552	619.355	-0.120	0.301
-353.537	96.776	-0.343	0.391
-352.523	800.000	-0.087	-0.242
-351.508	-96.186	-0.065	-0.017
-350.493	167.448	-0.130	0.184
-349.479	-200.000	0.033	-0.253
-348.464	-144.513	0.260	0.024
-347.450	92.907	0.054	0.060
-346.435	-27.000	0.183	-0.106
-345.420	53.068	0.227	0.216
-344.406	-19.176	0.178	-0.110
-343.391	61.151	-0.096	-0.094
-342.377	61.723	0.271	-0.268
-341.362	95.707	-0.140	-0.158
-340.348	-115.262	-0.209	0.039
-339.333	78.595	-0.026	-0.028
-338.318	263.847	0.087	0.150
-337.304	-1.495	0.238	-0.167
-336.289	-91.613	0.281	0.080
-335.275	-62.167	0.230	-0.096
-334.260	16.615	0.145	-0.114
-333.245	-200.000	-0.019	0.135
-332.231	-200.000	-0.035	0.212
-331.216	-102.476	-0.444	0.106
-330.202	-89.747	0.206	0.060
-329.187	95.333	-0.133	0.150
-328.172	-72.719	0.316	-0.116
-327.158	220.855	-0.087	-0.138
-326.143	-75.095	-0.141	0.050
-325.129	-95.429	-0.126	0.034
-324.114	-200.000	-0.009	0.079
-323.099	176.979	-0.045	-0.065
-322.085	7.099	0.143	0.106
-321.070	505.912	0.070	0.162
-320.056	191.315	0.087	-0.131
-319.041	11.415	-0.074	0.056
-318.026	-75.341	0.140	0.050
-317.012	-79.774	0.174	-0.058
-315.997	9.000	-0.319	0.239
-314.983	-200.000	0.047	-0.482
-313.968	597.027	-0.141	-0.346
-312.953	-200.000	0.044	0.199
-311.939	173.658	-0.189	0.270
-310.924	800.000	-0.033	-0.115
-309.910	-43.260	0.226	0.114
-308.895	-200.000	-0.014	0.196
-307.880	-27.520	-0.047	-0.027
-306.866	-132.594	-0.104	-0.013
-305.851	-42.879	0.056	0.028
-304.837	-146.783	-0.121	0.010
-303.822	800.000	0.017	0.065
-302.807	795.666	0.084	0.230
-301.793	5.120	0.244	-0.179
-300.778	-141.234	0.179	0.018
-299.764	6.668	-0.168	-0.124
-298.749	623.091	-0.075	0.189
-297.735	-83.434	0.147	0.047
-296.720	276.587	0.137	0.241
-295.705	800.000	-0.026	-0.077
-294.691	761.043	0.058	0.156
-293.676	-66.912	-0.192	-0.075
-292.662	-1.180	0.430	-0.302
-291.647	-87.649	-0.142	0.043
-290.632	-135.959	-0.236	0.028
-289.618	800.000	-0.012	0.039
-288.603	-200.000	-0.006	-0.371
-287.589	-80.235	-0.312	0.104
-286.574	-200.000	0.038	0.239
-285.559	-130.629	0.322	-0.043
-284.545	-76.096	-0.154	-0.054
-283.530	-29.210	-0.102	-0.058
-282.516	-141.128	-0.163	-0.016
-281.501	-45.966	0.386	-0.189
-280.486	16.095	0.201	0.157
-279.472	291.998	0.224	0.404
-278.457	298.800	0.046	-0.084
-277.443	9.965	-0.159	-0.120
-276.428	2.011	0.266	-0.190
-275.413	-200.000	0.107	-0.491
-274.399	-20.571	0.189	0.115
-273.384	638.412	-0.033	-0.084
-272.370	-200.000	-0.013	-0.059
-271.355	11.172	-0.204	-0.154
-270.340	800.000	0.007	-0.023
-269.326	-31.333	0.092	0.051
-268.311	199.332	-0.143	-0.218
-267.297	219.023	0.111	-0.176
-266.282	594.897	0.147	-0.359
-265.267	168.923	0.170	0.240
-264.253	52.345	-0.258	-0.244
-263.238	96.835	0.045	-0.051
-262.224	67.153	-0.153	-0.154
-261.209	-106.937	-0.200	-0.044
-260.195	142.030	-0.235	0.309
-259.180	-67.640	0.368	0.143
-258.165	628.558	-0.075	-0.187
-257.151	-124.166	0.508	-0.079
-256.136	278.548	0.210	0.370
-255.122	-26.685	0.072	0.042
-254.107	686.576	0.039	0.101
-253.092	-148.048	0.302	0.025
-252.078	-52.801	-0.231	-0.106
-251.063	800.000	-0.062	-0.198
-250.049	-61.519	0.062	0.026
-249.034	-188.218	0.275	0.003
-248.019	-98.858	0.261	0.066
-247.005	163.121	0.167	0.233
-245.990	-130.946	-0.351	0.047
-244.976	168.326	0.153	0.215
-243.961	206.248	-0.106	0.163
-242.946	398.565	0.088	-0.183
-241.932	-113.014	0.182	0.036
-240.917	-111.131	0.149	-0.030
-239.903	77.514	-0.174	0.184
-238.888	-83.600	-0.160	-0.051
-237.873	-44.611	0.387	0.192
-236.859	-148.182	-0.132	-0.011
-235.844	-68.713	0.163	-0.062
-234.830	-58.155	0.033	-0.014
-233.815	-13.182	-0.056	-0.036
-232.800	-200.000	-0.008	-0.082
-231.786	-141.064	-0.078	-0.008
-230.771	-200.000	-0.001	-0.151
-229.757	800.000	0.018	-0.054
-228.742	43.051	0.084	-0.076
-227.727	-86.807	0.215	0.065
-226.713	-139.049	-0.211	-0.023
-225.698	-200.000	-0.043	-0.313
-224.684	-200.000	0.041	0.272
-223.669	170.891	0.306	0.434
-222.655	591.288	0.012	0.028
-221.640	119.866	0.073	0.090
-220.625	108.719	0.092	0.108
-219.611	-81.548	-0.035	-0.011
-218.596	141.233	0.153	-0.200
-217.582	314.296	0.042	-0.079
-216.567	-95.766	0.342	0.091
-215.552	-86.959	0.269	0.081
-214.538	96.264	-0.392	0.444
-213.523	800.000	-0.048	0.148
-212.509	-108.093	0.168	0.036
-211.494	-200.000	0.022	0.119
-210.479	8.350	0.144	0.107
-209.465	-126.022	-0.132	0.020
-208.450	293.381	0.212	0.382
-207.436	-79.158	0.104	-0.035
-206.421	314.516	-0.100	0.186
-205.406	32.337	0.315	0.269
-204.392	-43.401	0.209	-0.104
-203.377	800.000	0.053	0.190
-202.363	-200.000	0.050	-0.381
-201.348	5.441	0.126	0.092
-200.333	-200.000	-0.018	0.085
-199.319	2.219	-0.313	-0.223
-198.304	184.199	-0.147	0.215
-197.290	304.742	-0.053	-0.098
-196.275	-86.754	-0.064	-0.019
-195.260	-79.936	0.380	0.126
-194.246	23.890	-0.233	0.190
-193.231	128.415	0.132	-0.166
-192.217	-33.206	0.014	-0.008
-191.202	-140.839	0.240	-0.024
-190.187	-155.562	-0.148	-0.009
-189.173	-82.220	0.166	-0.054
-188.158	-76.520	-0.263	-0.091
-187.144	-106.851	0.141	0.031
-186.129	-27.016	0.179	-0.103
-185.114	-157.153	0.240	-0.014
-184.100	34.849	0.293	0.253
-183.085	-2.464	-0.215	0.149
-182.071	800.000	-0.023	-0.066
-181.056	375.439	0.117	-0.236
-180.042	-59.744	-0.325	0.138
-179.027	-66.818	-0.115	-0.045
-178.012	311.290	-0.045	0.084
-176.998	-200.000	0.001	0.217
-175.983	-107.338	0.155	-0.034
-174.969	-200.000	0.016	0.084
-173.954	-200.000	-0.006	-0.282
-172.939	-200.000	0.007	0.274
-171.925	-200.000	-0.005	0.217
-170.910	118.913	0.096	-0.117
-169.896	60.902	-0.189	0.185
-168.881	-200.000	0.024	0.284
-167.866	15.165	-0.239	0.185
-166.852	30.291	0.068	-0.058
-165.837	-123.528	-0.176	-0.028
-164.823	214.315	-0.075	-0.117
-163.808	-9.284	0.161	-0.106
-162.793	482.199	-0.141	0.315
-161.779	-200.000	-0.043	-0.451
-160.764	-200.000	-0.024	0.193
-159.750	-125.579	-0.032	0.005
-158.735	-200.000	-0.041	-0.471
-157.720	800.000	0.073	-0.216
-156.706	-115.908	-0.351	0.065
-155.691	-54.634	0.280	0.125
-154.677	-62.014	0.288	0.119
-153.662	194.377	0.084	-0.126
-152.647	65.632	-0.160	0.160
-151.633	-200.000	-0.047	-0.322
-150.618	102.524	0.249	-0.287
-149.604	-104.051	0.131	0.030
-148.589	68.981	-0.260	0.264
-147.574	169.758	0.111	-0.157
-146.560	800.000	0.084	-0.231
-145.545	183.979	-0.199	-0.291
-144.531	800.000	0.074	-0.310
-143.516	-200.000	-0.010	-0.169
-142.502	646.669	0.161	0.406
-141.487	-123.687	0.206	-0.032
-140.472	-182.736	-0.107	0.002
-139.458	93.542	0.303	-0.338
-138.443	-200.000	0.062	-0.338
-137.429	800.000	-0.031	0.105
-136.414	800.000	0.082	0.228
-135.399	-200.000	0.009	-0.332
-134.385	-99.794	-0.129	-0.032
-133.370	-120.993	0.089	-0.015
-132.356	57.599	0.233	0.225
-131.341	260.802	0.028	-0.047
-130.326	800.000	-0.099	0.368
-129.312	-200.000	0.067	0.306
-128.297	-200.000	0.028	-0.217
-127.283	-135.456	-0.278	-0.033
-126.268	-143.324	0.088	0.008
-125.253	-80.315	0.314	0.103
-124.239	28.032	-0.211	-0.175
-123.224	60.675	-0.033	-0.032
-122.210	40.947	0.226	0.201
-121.195	776.116	0.089	0.239
-120.180	-34.674	0.270	-0.145
-119.166	-134.030	-0.121	-0.015
-118.151	-3.509	0.263	0.180
-117.137	-55.095	0.212	-0.094
-116.122	7.195	-0.084	0.062
-115.107	224.401	-0.014	-0.023
-114.093	-3.993	0.129	-0.088
-113.078	340.871	0.026	0.051
-112.064	800.000	-0.060	0.180
-111.049	457.421	0.091	-0.199
-110.034	101.529	0.284	-0.327
-109.020	61.239	-0.188	0.184
-108.005	-200.000	-0.043	0.237
-106.991	-98.733	0.261	-0.065
-105.976	-61.545	0.200	-0.083
-104.962	43.948	0.224	-0.202
-103.947	484.797	0.041	0.091
-102.932	-43.843	-0.184	0.091
-101.918	-116.076	0.179	-0.033
-100.903	151.155	-0.008	-0.011
-99.889	-123.840	0.184	0.029
-98.874	320.850	0.083	0.155
-97.859	75.615	0.171	0.178
-96.845	800.000	-0.130	0.490
-95.830	126.983	-0.044	-0.055
-94.816	-39.630	0.368	-0.189
-93.801	-30.087	0.149	0.084
-92.786	800.000	0.070	-0.201
-91.772	302.961	0.147	-0.267
-90.757	-141.799	-0.073	0.007
-89.743	79.018	0.228	-0.241
-88.728	800.000	0.048	-0.174
-87.713	54.293	-0.066	0.062
-86.699	-200.000	-0.003	-0.095
-85.684	381.175	-0.023	-0.046
-84.670	-124.397	-0.246	-0.038
-83.655	800.000	0.036	0.098
-82.640	-41.269	0.062	0.031
-81.626	75.508	0.196	-0.203
-80.611	-200.000	-0.002	0.045
-79.597	-200.000	0.008	-0.051
-78.582	800.000	0.028	-0.091
-77.567	-11.681	0.222	0.144
-76.553	-200.000	0.010	-0.132
-75.538	-134.450	0.231	0.028
-74.524	-80.198	-0.217	-0.071
-73.509	362.605	0.043	-0.086
-72.494	116.290	0.151	0.182
-71.480	-120.941	-0.049	-0.008
-70.465	-77.157	0.169	0.058
-69.451	-200.000	-0.017	0.125
-68.436	313.229	-0.218	0.404
-67.422	-18.033	-0.293	0.180
-66.407	-200.000	0.062	-0.373
-65.392	-150.883	0.418	0.031
-64.378	160.734	0.046	-0.063
-63.363	-92.312	0.335	0.093
-62.349	9.765	-0.149	-0.111
-61.334	18.870	-0.998	-0.786
-60.319	86.081	0.461	0.499
-59.305	-200.000	-0.134	-0.919
-58.290	123.305	0.695	0.857
-57.276	596.714	0.578	1.408
-56.261	-200.000	92.267	540.534
-55.246	523.557	1382.392	3195.803
-54.232	153.366	2584.305	3479.378
-53.217	110.304	2305.635	2723.887
-52.203	46.118	1920.963	1749.492
-51.188	39.770	1710.028	1508.991
-50.173	37.011	1664.423	1448.116
-49.159	53.255	1710.900	1611.858
-48.144	56.770	1729.750	1656.161
-47.130	39.548	1686.373	1486.208
-46.115	36.561	1671.875	1450.995
-45.100	36.380	1667.085	1445.424
-44.086	36.356	1663.593	1442.162
-43.071	36.283	1661.543	1439.778
-42.057	36.277	1659.282	1437.717
-41.042	36.211	1657.133	1435.308
-40.027	36.341	1655.147	1434.499
-39.013	36.261	1653.647	1432.549
-37.998	36.264	1651.850	1430.959
-36.984	36.340	1650.349	1430.163
-35.969	36.382	1648.959	1429.210
-34.954	36.506	1646.942	1428.325
-33.940	36.417	1645.631	1426.475
-32.925	36.446	1643.445	1424.737
-31.911	36.478	1641.858	1423.537
-30.896	36.407	1640.015	1421.362
-29.881	36.469	1638.148	1420.143
-28.867	36.442	1636.947	1418.843
-27.852	36.478	1635.521	1417.814
-26.838	36.406	1634.199	1416.087
-25.823	36.488	1632.480	1415.143
-24.809	36.444	1631.628	1414.024
-23.794	36.397	1629.937	1412.163
-22.779	36.419	1628.399	1410.931
-21.765	36.483	1626.445	1409.651
-20.750	36.481	1624.719	1408.084
-19.736	36.555	1623.549	1407.551
-18.721	36.491	1622.193	1405.859
-17.706	36.406	1620.684	1403.875
-16.692	36.513	1618.753	1402.924
-15.677	36.422	1617.626	1401.231
-14.663	36.431	1616.673	1400.413
-13.648	36.461	1615.206	1399.303
-12.633	36.525	1613.235	1398.008
-11.619	36.475	1611.718	1396.277
-10.604	36.454	1610.391	1394.920
-9.590	36.545	1609.050	1394.355
-8.575	36.541	1607.484	1392.914
-7.560	36.448	1606.599	1391.423
-6.546	36.406	1605.910	1390.470
-5.531	36.438	1604.603	1389.513
-4.517	36.349	1603.507	1387.868
-3.502	36.464	1602.499	1387.769
-2.487	36.469	1601.002	1386.455
-1.473	36.104	1589.007	1373.411
-0.458	32.893	1568.255	1332.788
0.556	26.673	1566.657	1294.951
1.571	23.899	1589.778	1293.790
2.586	23.161	1603.472	1299.404
3.600	20.835	1550.734	1240.011
4.615	11.621	1437.928	1088.602
5.629	2.261	1367.737	975.837
6.644	0.104	1358.637	955.573
7.659	0.001	1356.459	953.301
8.673	-0.038	1355.548	952.332
9.688	-0.127	1353.936	950.548
10.702	-0.304	1350.847	947.178
11.717	3.742	1358.170	977.876
12.731	13.294	1373.382	1049.628
13.746	18.165	1379.819	1085.444
14.761	17.229	1376.187	1076.568
15.775	16.150	1372.804	1067.002
16.790	14.962	1370.663	1057.733
17.804	14.273	1368.485	1051.611
18.819	13.908	1366.867	1047.970
19.834	13.664	1365.151	1045.024
20.848	13.436	1364.223	1042.788
21.863	13.128	1362.605	1039.518
22.877	12.965	1361.518	1037.570
23.892	12.946	1360.526	1036.607
24.907	12.891	1359.944	1035.725
25.921	12.840	1359.121	1034.685
26.936	12.967	1358.082	1034.598
27.950	12.935	1357.223	1033.656
28.965	12.987	1356.532	1033.365
29.980	13.123	1355.563	1033.383
30.994	13.185	1354.264	1032.690
32.009	13.168	1353.475	1031.890
33.023	13.163	1352.482	1031.012
34.038	13.206	1350.996	1030.051
35.053	13.135	1349.653	1028.499
36.067	13.142	1348.971	1027.932
37.082	13.116	1347.862	1026.830
38.096	13.120	1346.757	1025.924
39.111	13.152	1346.009	1025.461
40.126	13.126	1345.276	1024.653
41.140	13.043	1344.076	1023.131
42.155	12.907	1344.256	1022.335
43.169	12.874	1344.261	1022.044
44.184	12.920	1343.584	1021.727
45.199	12.974	1342.813	1021.384
46.213	13.012	1342.350	1021.172
47.228	13.042	1341.583	1020.686
48.242	12.979	1340.549	1019.418
49.257	13.087	1338.757	1018.634
50.271	13.073	1337.582	1017.562
51.286	13.128	1335.736	1016.406
52.301	13.087	1334.652	1015.244
53.315	13.027	1333.833	1014.159
54.330	13.020	1332.863	1013.292
55.344	12.957	1331.827	1012.024
56.359	12.961	1330.845	1011.215
57.374	12.944	1329.771	1010.204
58.388	12.944	1328.894	1009.446
59.403	12.861	1328.638	1008.657
60.417	12.862	1328.105	1008.170
61.432	12.869	1327.087	1007.352
62.447	12.879	1326.216	1006.663
63.461	12.770	1325.171	1005.115
64.476	12.832	1324.060	1004.560
65.490	12.830	1322.815	1003.517
66.505	12.979	1320.562	1002.624
67.520	12.795	1320.138	1001.091
68.534	12.850	1319.032	1000.503
69.549	12.945	1317.932	1000.151
70.563	12.856	1316.594	998.514
71.578	12.773	1315.558	997.133
72.593	12.705	1315.205	996.369
73.607	12.757	1313.915	995.618
74.622	12.748	1313.066	994.828
75.636	12.731	1312.263	994.031
76.651	12.756	1311.382	993.428
77.666	12.837	1310.795	993.383
78.680	12.861	1310.482	993.200
79.695	12.741	1310.111	992.111
80.709	12.845	1308.974	991.787
81.724	12.947	1307.795	991.419
82.739	12.933	1306.891	990.560
83.753	12.995	1305.942	990.124
84.768	13.152	1304.576	989.942
85.782	13.088	1303.697	988.805
86.797	13.123	1302.445	987.977
87.812	12.937	1301.469	986.043
88.826	13.050	1300.315	985.755
89.841	13.067	1299.134	984.871
90.855	13.082	1298.251	984.205
91.870	13.092	1297.440	983.561
92.884	13.151	1296.581	983.175
93.899	13.165	1295.713	982.512
94.914	13.188	1294.963	981.993
95.928	13.231	1293.902	981.360
96.943	13.165	1293.405	980.500
97.957	13.083	1292.288	979.083
98.972	13.142	1290.954	978.335
99.987	13.136	1290.072	977.543
101.001	13.158	1288.946	976.733
102.016	13.000	1288.181	975.133
103.030	13.180	1287.249	975.405
104.045	13.175	1286.330	974.595
105.060	13.001	1285.553	972.896
106.074	13.070	1283.594	971.733
107.089	12.933	1282.509	970.015
108.103	12.906	1281.336	968.884
109.118	12.887	1280.232	967.853
110.133	13.016	1278.801	967.442
111.147	12.846	1277.816	965.618
112.162	13.056	1275.830	965.259
113.176	12.919	1275.401	964.048
114.191	12.995	1274.176	963.479
115.206	13.105	1272.915	963.082
116.220	13.013	1271.945	961.726
117.235	13.003	1270.562	960.539
118.249	12.972	1269.732	959.645
119.264	13.035	1268.071	958.672
120.279	12.892	1267.518	957.340
121.293	12.966	1266.590	956.982
122.308	12.887	1265.406	955.542
123.322	12.863	1264.533	954.662
124.337	12.786	1264.052	953.769
125.352	12.928	1262.152	953.072
126.366	12.869	1261.003	951.780
127.381	12.934	1259.744	951.121
128.395	12.876	1258.887	950.054
129.410	12.957	1258.211	949.927
130.424	12.999	1257.302	949.398
131.439	13.059	1256.126	948.773
132.454	13.024	1255.769	948.218
133.468	13.018	1254.735	947.318
134.483	13.048	1253.923	946.794
135.497	13.031	1252.933	945.863
136.512	13.122	1251.251	945.033
137.527	13.088	1250.052	943.849
138.541	12.920	1249.193	942.157
139.556	13.038	1247.889	941.761
140.570	13.023	1247.201	941.075
141.585	13.102	1245.646	940.268
142.600	13.225	1244.430	939.964
143.614	13.185	1243.641	939.061
144.629	13.250	1242.506	938.489
145.643	13.244	1241.205	937.387
146.658	13.227	1239.757	936.118
147.673	13.064	1238.702	934.311
148.687	12.962	1237.620	932.839
149.702	12.988	1236.248	931.868
150.716	13.061	1234.753	931.070
151.731	13.046	1233.491	929.953
152.746	13.140	1232.217	929.438
153.760	13.083	1231.071	928.172
154.775	13.210	1229.632	927.717
155.789	13.207	1229.227	927.314
156.804	13.232	1227.969	926.420
157.819	13.237	1226.849	925.521
158.833	13.421	1225.899	925.752
159.848	13.279	1224.926	924.143
160.862	13.399	1223.784	923.873
161.877	13.224	1223.106	922.300
162.892	13.185	1222.053	921.207
163.906	13.227	1220.895	920.487
164.921	13.244	1220.395	920.121
165.935	13.286	1218.895	919.143
166.950	13.280	1218.347	918.619
167.964	13.272	1217.625	917.948
168.979	13.314	1217.191	917.768
169.994	13.223	1216.916	916.979
171.008	13.314	1215.568	916.383
172.023	13.346	1214.505	915.677
173.037	13.396	1213.932	915.445
174.052	13.365	1213.107	914.568
175.067	13.391	1211.638	913.524
176.081	13.296	1210.755	912.255
177.096	13.337	1209.955	911.797
178.110	13.379	1208.658	910.970
179.125	13.328	1207.599	909.810
180.140	13.348	1206.412	908.942
181.154	13.337	1205.261	907.939
182.169	13.446	1204.168	907.631
183.183	13.403	1202.970	906.410
184.198	13.361	1201.992	905.366
185.213	13.479	1200.893	905.102
186.227	13.544	1199.578	904.386
187.242	13.539	1198.340	903.346
188.256	13.560	1197.710	902.904
189.271	13.571	1196.761	902.169
190.286	13.504	1195.438	900.726
191.300	13.401	1194.658	899.499
192.315	13.383	1193.765	898.652
193.329	13.332	1193.242	897.902
194.344	13.422	1192.259	897.569
195.359	13.379	1192.081	897.123
196.373	13.493	1191.378	897.130
197.388	13.578	1191.531	897.628
198.402	13.659	1190.922	897.527
199.417	13.782	1189.604	897.119
200.432	13.855	1189.037	897.008
201.446	13.779	1188.146	895.848
202.461	13.861	1187.183	895.483
203.475	13.934	1186.219	895.069
204.490	13.810	1185.041	893.433
205.504	13.710	1184.273	892.238
206.519	13.813	1182.743	891.559
207.534	13.714	1181.754	890.203
208.548	13.742	1180.712	889.490
209.563	13.837	1179.855	889.277
210.577	13.730	1179.103	888.060
211.592	13.827	1178.393	887.962
212.607	13.877	1177.869	887.760
213.621	13.924	1176.709	887.058
214.636	13.897	1175.565	885.973
215.650	13.934	1174.591	885.358
216.665	13.824	1174.177	884.378
217.680	13.994	1172.882	884.229
218.694	13.990	1172.498	883.840
219.709	13.981	1171.829	883.209
220.723	14.018	1170.820	882.571
221.738	13.990	1170.044	881.755
222.753	13.988	1169.494	881.255
223.767	14.021	1168.690	880.748
224.782	14.040	1167.991	880.240
225.796	14.165	1167.131	880.176
226.811	14.217	1166.372	879.803
227.826	14.089	1166.362	879.038
228.840	14.104	1165.104	878.091
229.855	14.073	1164.333	877.272
230.869	14.027	1164.019	876.714
231.884	14.066	1162.714	875.860
232.899	14.033	1162.084	875.132
233.913	14.005	1161.485	874.456
234.928	14.120	1160.418	874.180
235.942	13.989	1159.871	873.002
236.957	14.008	1158.842	872.250
237.972	13.997	1158.202	871.633
238.986	14.058	1157.469	871.325
240.001	14.076	1156.486	870.600
241.015	14.174	1155.846	870.554
242.030	14.204	1154.884	869.912
243.045	14.305	1154.093	869.769
244.059	14.225	1153.697	868.973
245.074	14.216	1152.786	868.163
246.088	14.326	1151.884	867.982
247.103	14.273	1150.888	866.876
248.117	14.401	1150.361	867.069
249.132	14.500	1149.625	866.952
250.147	14.489	1149.348	866.610
251.161	14.452	1148.754	865.893
252.176	14.479	1147.978	865.375
253.190	14.568	1147.300	865.246
254.205	14.633	1146.638	865.007
255.220	14.512	1146.498	864.200
256.234	14.541	1145.939	863.851
257.249	14.632	1144.978	863.521
258.263	14.549	1144.472	862.630
259.278	14.660	1143.581	862.459
260.293	14.634	1143.159	861.928
261.307	14.612	1142.642	861.352
262.322	14.829	1141.625	861.627
263.336	14.711	1140.829	860.344
264.351	14.786	1140.672	860.535
265.366	14.790	1139.680	859.731
266.380	14.852	1138.923	859.400
267.395	14.772	1138.446	858.555
268.409	14.630	1137.626	857.131
269.424	14.784	1136.448	856.955
270.439	14.742	1136.609	856.786
271.453	14.717	1135.683	855.885
272.468	14.753	1134.631	855.202
273.482	14.832	1134.076	855.111
274.497	14.686	1133.666	853.978
275.512	14.752	1132.795	853.586
276.526	14.767	1132.089	853.057
277.541	14.718	1131.593	852.354
278.555	14.849	1130.727	852.296
279.570	14.833	1129.854	851.480
280.585	14.920	1129.278	851.415
281.599	15.060	1128.464	851.437
282.614	14.962	1127.219	849.926
283.628	14.990	1125.934	849.022
284.643	14.912	1125.220	848.014
285.657	14.951	1124.409	847.523
286.672	14.910	1123.719	846.721
287.687	14.903	1122.733	845.866
288.701	14.948	1122.329	845.719
289.716	14.983	1121.170	844.947
290.730	14.963	1120.519	844.280
291.745	15.124	1119.468	844.227
292.760	15.149	1118.795	843.769
293.774	15.040	1118.759	843.115
294.789	15.064	1118.450	842.931
295.803	15.106	1117.767	842.552
296.818	15.103	1116.887	841.797
297.833	15.149	1115.816	841.147
298.847	15.082	1115.125	840.216
299.862	15.029	1114.448	839.368
300.876	15.070	1113.832	839.035
301.891	15.274	1112.903	839.282
302.906	15.309	1112.240	838.882
303.920	15.335	1111.548	838.415
304.935	15.186	1111.514	837.574
305.949	15.373	1110.079	837.349
306.964	15.469	1109.593	837.388
307.979	15.407	1108.757	836.375
308.993	15.365	1108.025	835.540
310.008	15.339	1107.561	834.985
311.022	15.407	1106.929	834.771
312.037	15.367	1105.844	833.680
313.052	15.509	1104.535	833.328
314.066	15.463	1103.527	832.266
315.081	15.328	1102.987	831.117
316.095	15.292	1102.326	830.366
317.110	15.327	1101.661	829.966
318.125	15.292	1100.893	829.137
319.139	15.324	1100.046	828.583
320.154	15.285	1099.559	827.951
321.168	15.383	1098.802	827.794
322.183	15.368	1098.144	827.151
323.197	15.383	1097.890	826.958
324.212	15.497	1097.175	826.910
325.227	15.496	1096.300	826.170
326.241	15.406	1095.906	825.359
327.256	15.453	1095.042	824.865
328.270	15.439	1094.475	824.300
329.285	15.527	1092.882	823.457
330.300	15.624	1092.220	823.361
331.314	15.517	1091.604	822.300
332.329	15.490	1090.465	821.238
333.343	15.581	1089.174	820.637
334.358	15.587	1088.406	820.012
335.373	15.653	1088.045	819.992
336.387	15.638	1087.148	819.170
337.402	15.586	1086.875	818.639
338.416	15.588	1086.237	818.094
339.431	15.723	1085.331	817.997
340.446	15.688	1085.058	817.546
341.460	15.876	1084.219	817.755
342.475	15.825	1083.369	816.795
343.489	15.772	1082.462	815.781
344.504	15.993	1081.410	815.986
345.519	15.922	1080.779	815.096
346.533	15.955	1079.980	814.581
347.548	15.847	1079.559	813.668
348.562	15.956	1078.697	813.472
349.577	15.930	1077.628	812.472
350.592	15.898	1076.828	811.641
351.606	15.868	1076.175	810.931
352.621	15.792	1075.378	809.895
353.635	15.939	1074.696	810.015
354.650	15.814	1074.226	808.988
355.665	15.820	1073.737	808.581
356.679	16.010	1072.809	808.722
357.694	15.990	1072.331	808.193
358.708	16.075	1071.379	807.813
359.723	15.959	1070.958	806.865
360.738	16.061	1070.616	807.026
361.752	15.872	1070.301	805.810
362.767	16.081	1068.968	805.737
363.781	16.007	1069.114	805.423
364.796	16.001	1068.304	804.709
365.810	16.197	1067.520	804.985
366.825	16.249	1066.555	804.430
367.840	16.191	1066.331	803.917
368.854	16.229	1065.662	803.523
369.869	16.325	1065.072	803.464
370.883	16.302	1064.247	802.662
371.898	16.135	1063.907	801.541
372.913	16.279	1062.988	801.461
373.927	16.245	1062.531	800.881
374.942	16.289	1061.843	800.503
375.956	16.347	1061.314	800.309
376.971	16.286	1060.751	799.522
377.986	16.491	1059.756	799.673
379.000	16.522	1059.651	799.667
380.015	16.458	1058.856	798.697
381.029	16.365	1058.491	797.911
382.044	16.559	1057.794	798.229
383.059	16.590	1056.924	797.647
384.073	16.566	1055.730	796.563
385.088	16.540	1055.183	795.957
386.102	16.468	1054.514	795.046
387.117	16.503	1053.286	794.213
388.132	16.523	1052.548	793.682
389.146	16.506	1051.730	792.916
390.161	16.495	1051.027	792.260
391.175	16.487	1050.589	791.825
392.190	16.441	1050.195	791.241
393.205	16.616	1049.372	791.370
394.219	16.557	1048.223	790.158
395.234	16.488	1047.587	789.284
396.248	16.457	1046.747	788.438
397.263	16.470	1045.456	787.458
398.278	16.552	1044.723	787.216
399.292	16.383	1044.835	786.445
400.307	16.527	1043.768	786.241
401.321	16.492	1043.113	785.517
402.336	16.497	1042.258	784.826
403.350	16.655	1041.436	784.872
404.365	16.576	1040.811	783.965
405.380	16.550	1040.231	783.340
406.394	16.662	1039.490	783.226
407.409	16.850	1038.569	783.333
408.423	16.765	1038.128	782.541
409.438	16.818	1037.274	782.073
410.453	16.901	1036.236	781.602
411.467	16.762	1036.050	780.751
412.482	16.872	1035.342	780.654
413.496	16.988	1034.725	780.654
414.511	17.016	1033.930	780.115
415.526	17.062	1033.612	780.019
416.540	17.057	1032.953	779.427
417.555	17.076	1032.411	779.036
418.569	17.043	1032.053	778.547
419.584	16.998	1031.470	777.832
420.599	17.098	1031.094	777.938
421.613	97.150	1311.026	1431.302
422.628	88.926	1351.780	1431.428
