DTS Sentinel unit serial number:	SN413079Multiplexer serial number:	ORYXHardware model number:	OX4-SRSoftware version number:	ORYX F/W v4.00 Oryx Data Collector v3.7.2.0data status	okinstallation	princeton_trtdifferential loss correction	single-endedforward channel	channel 2reverse channel	N/Adate	2019/09/16time	21:11:35forward acquisition time	60.00reverse acquisition time	0.00gamma	496.2192k internal	0.2329k external	0.2329temperature offset calibration	0.9968default loss term (dB/km)	0.3790temperature slope calibration	1.0000multiplexer offset coefficient	1.0000multiplexer slope coefficient	1.0000fibre end	0.00T internal ref (°C)	31.80T ext. ref 1 (°C)	0.06T ext. ref 2 (°C)	25.50length (m)	temperature (°C)	Stokes	anti-Stokes-747.200	-150.945	-0.179	0.014
-746.185	133.489	-0.171	-0.223
-745.171	-83.541	0.333	-0.107
-744.156	-44.600	-0.070	0.035
-743.142	800.000	-0.065	0.186
-742.127	-8.382	-0.290	-0.196
-741.112	71.755	0.237	0.248
-740.098	-200.000	-0.045	0.350
-739.083	335.047	0.062	0.121
-738.069	54.529	-0.261	0.253
-737.054	-82.401	-0.187	0.061
-736.039	-200.000	-0.029	-0.287
-735.025	-52.354	0.165	0.077
-734.010	-118.856	-0.065	0.012
-732.996	800.000	0.063	-0.231
-731.981	-161.654	-0.207	0.011
-730.966	-12.916	0.162	0.106
-729.952	-158.897	-0.205	-0.012
-728.937	-200.000	-0.026	-0.113
-727.923	-92.493	-0.231	0.065
-726.908	318.868	0.073	-0.139
-725.894	-200.000	-0.023	0.136
-724.879	57.667	0.253	-0.249
-723.864	-135.541	0.181	0.022
-722.850	800.000	0.044	-0.183
-721.835	-143.507	-0.427	-0.041
-720.821	-200.000	0.028	-0.385
-719.806	-200.000	0.009	-0.312
-718.791	-93.377	0.179	0.050
-717.777	-49.827	0.247	-0.118
-716.762	323.283	-0.135	-0.260
-715.748	-200.000	0.005	-0.057
-714.733	25.240	0.207	0.173
-713.718	-104.844	-0.160	-0.037
-712.704	57.650	0.109	-0.107
-711.689	800.000	0.048	-0.191
-710.675	800.000	-0.062	-0.205
-709.660	-140.342	-0.152	0.016
-708.645	-200.000	-0.006	-0.264
-707.631	-115.977	0.204	-0.038
-706.616	-199.633	-0.471	-0.002
-705.602	-12.857	-0.201	0.132
-704.587	-23.761	0.147	0.089
-703.572	-164.414	0.285	-0.013
-702.558	-8.588	-0.175	-0.118
-701.543	2.318	0.212	0.154
-700.529	135.293	-0.278	-0.363
-699.514	-200.000	0.021	-0.406
-698.499	800.000	0.068	-0.297
-697.485	545.429	-0.090	-0.217
-696.470	32.189	-0.043	-0.037
-695.456	97.427	0.237	0.274
-694.441	-104.156	-0.304	0.071
-693.426	6.144	-0.208	0.155
-692.412	81.488	-0.019	0.020
-691.397	39.948	0.173	-0.157
-690.383	275.567	-0.074	-0.132
-689.368	-86.651	0.266	-0.082
-688.354	158.871	-0.153	0.213
-687.339	-116.257	-0.525	0.098
-686.324	-143.331	0.346	0.033
-685.310	-10.148	-0.190	-0.127
-684.295	72.858	-0.251	-0.263
-683.281	-97.407	-0.198	-0.052
-682.266	-32.935	0.272	-0.152
-681.251	-168.367	0.116	-0.004
-680.237	-200.000	0.037	-0.181
-679.222	17.054	-0.298	-0.237
-678.208	19.491	-0.260	-0.210
-677.193	250.608	0.188	0.321
-676.178	-48.493	-0.227	0.110
-675.164	-150.715	-0.318	0.024
-674.149	187.002	-0.200	-0.300
-673.135	-200.000	-0.006	-0.111
-672.120	-200.000	-0.002	-0.247
-671.105	-23.719	0.265	-0.160
-670.091	-200.000	0.008	-0.227
-669.076	-200.000	-0.075	-0.336
-668.062	154.724	-0.216	0.298
-667.047	-200.000	0.065	-0.289
-666.032	-24.594	-0.284	0.170
-665.018	-200.000	0.035	-0.205
-664.003	800.000	-0.014	0.045
-662.989	29.028	0.156	0.133
-661.974	-200.000	0.037	0.334
-660.959	-174.469	-0.341	-0.010
-659.945	-102.075	0.377	0.091
-658.930	211.348	-0.107	0.168
-657.916	-76.399	-0.338	0.120
-656.901	-129.304	-0.225	-0.031
-655.886	389.409	0.053	-0.111
-654.872	-95.453	0.288	0.078
-653.857	-200.000	-0.018	0.284
-652.843	-76.430	-0.381	-0.134
-651.828	393.878	0.085	0.178
-650.814	-200.000	0.014	-0.107
-649.799	-200.000	0.007	-0.044
-648.784	-200.000	-0.056	-0.486
-647.770	-156.211	-0.154	-0.010
-646.755	-93.099	-0.055	0.015
-645.741	-62.565	0.315	0.131
-644.726	134.270	-0.088	0.115
-643.711	293.283	0.150	-0.275
-642.697	-169.312	-0.140	0.005
-641.682	486.043	-0.151	-0.344
-640.668	1.711	0.018	-0.013
-639.653	-27.130	-0.071	-0.041
-638.638	216.317	-0.022	0.034
-637.624	-16.599	-0.139	-0.088
-636.609	327.670	0.173	-0.334
-635.595	-115.759	-0.207	-0.039
-634.580	92.210	-0.095	-0.107
-633.565	23.731	0.183	0.151
-632.551	27.230	-0.101	0.085
-631.536	800.000	-0.060	0.246
-630.522	-70.283	0.424	-0.161
-629.507	-143.627	-0.261	-0.025
-628.492	1.235	0.320	0.231
-627.478	20.962	-0.228	0.185
-626.463	-184.151	0.270	-0.004
-625.449	64.572	-0.244	0.247
-624.434	8.144	0.170	0.128
-623.419	-13.446	0.169	-0.110
-622.405	-82.642	-0.245	-0.080
-621.390	800.000	-0.043	0.184
-620.376	89.770	0.137	0.153
-619.361	284.762	0.175	0.316
-618.346	-200.000	-0.066	0.320
-617.332	-200.000	0.038	0.389
-616.317	585.568	-0.160	0.395
-615.303	71.625	-0.093	0.097
-614.288	243.070	0.070	-0.118
-613.273	102.123	-0.207	-0.242
-612.259	-200.000	0.010	-0.135
-611.244	-80.169	0.276	-0.093
-610.230	276.612	-0.119	-0.211
-609.215	255.519	-0.073	0.126
-608.201	608.732	0.113	0.284
-607.186	209.345	0.166	-0.261
-606.171	142.427	0.137	0.182
-605.157	172.823	0.169	0.244
-604.142	-59.280	-0.110	0.047
-603.128	-34.604	-0.332	0.182
-602.113	170.970	-0.234	0.336
-601.098	208.506	0.274	-0.430
-600.084	-152.110	0.220	0.016
-599.069	-89.723	0.081	0.024
-598.055	522.891	-0.048	0.113
-597.040	-66.464	0.281	-0.112
-596.025	800.000	0.091	-0.311
-595.011	800.000	-0.205	-0.575
-593.996	-35.120	0.097	-0.053
-592.982	109.450	0.066	0.080
-591.967	-174.528	-0.188	-0.005
-590.952	133.856	0.136	-0.176
-589.938	-105.780	-0.208	0.047
-588.923	-109.477	-0.057	0.012
-587.909	-102.600	-0.311	-0.074
-586.894	-11.363	0.071	0.047
-585.879	-200.000	0.032	-0.200
-584.865	5.024	0.061	-0.045
-583.850	800.000	0.039	-0.120
-582.836	255.853	0.143	0.246
-581.821	-102.454	-0.256	0.061
-580.806	344.208	-0.144	0.284
-579.792	-200.000	-0.074	-0.653
-578.777	-35.115	-0.322	0.175
-577.763	24.225	0.274	-0.227
-576.748	523.216	-0.087	0.204
-575.733	-98.597	-0.261	-0.067
-574.719	506.519	-0.018	0.042
-573.704	93.748	-0.107	0.121
-572.690	197.423	0.168	0.257
-571.675	-200.000	0.009	-0.167
-570.661	-27.483	-0.214	-0.124
-569.646	443.283	-0.074	-0.163
-568.631	-101.841	0.032	-0.008
-567.617	263.075	0.036	-0.062
-566.602	25.077	-0.151	-0.126
-565.588	-200.000	-0.034	0.353
-564.573	302.858	0.152	0.281
-563.558	800.000	0.136	0.435
-562.544	-200.000	-0.000	-0.057
-561.529	-78.906	0.187	0.064
-560.515	33.967	0.117	-0.102
-559.500	325.061	0.036	0.070
-558.485	-152.532	-0.048	-0.003
-557.471	13.790	0.310	-0.241
-556.456	-36.914	-0.092	-0.049
-555.442	-42.457	0.074	0.038
-554.427	-200.000	-0.010	0.302
-553.412	-195.326	-0.323	-0.002
-552.398	-116.671	0.318	0.058
-551.383	68.647	0.173	0.177
-550.369	-38.861	0.229	0.120
-549.354	800.000	0.043	-0.190
-548.339	48.091	-0.101	-0.094
-547.325	62.155	-0.162	-0.162
-546.310	-89.914	-0.035	-0.010
-545.296	256.591	0.083	0.143
-544.281	133.132	0.144	-0.186
-543.266	98.064	0.070	-0.080
-542.252	-200.000	-0.014	0.395
-541.237	-23.289	0.422	0.254
-540.223	-200.000	0.022	0.205
-539.208	-0.547	0.105	-0.074
-538.193	-200.000	0.114	-0.001
-537.179	-200.000	0.002	0.097
-536.164	-73.762	0.256	-0.093
-535.150	18.304	-0.139	0.111
-534.135	221.155	0.172	-0.276
-533.121	800.000	0.023	-0.089
-532.106	-108.316	-0.282	0.061
-531.091	-200.000	0.011	-0.263
-530.077	124.227	-0.138	0.173
-529.062	443.992	0.123	-0.270
-528.048	134.004	-0.081	-0.104
-527.033	-164.508	0.175	0.008
-526.018	794.879	-0.081	-0.223
-525.004	23.579	-0.239	-0.197
-523.989	97.295	-0.109	-0.125
-522.975	-200.000	-0.025	0.351
-521.960	800.000	0.067	0.216
-520.945	-30.082	0.232	-0.132
-519.931	-59.454	-0.326	0.140
-518.916	72.873	-0.152	-0.159
-517.902	-200.000	-0.041	0.221
-516.887	-200.000	-0.005	-0.117
-515.872	-79.386	-0.038	-0.013
-514.858	-200.000	0.002	-0.058
-513.843	800.000	0.087	0.314
-512.829	800.000	-0.090	-0.298
-511.814	-200.000	0.031	-0.473
-510.799	-200.000	-0.022	0.116
-509.785	-41.023	-0.395	-0.204
-508.770	-77.851	-0.111	-0.038
-507.756	-200.000	0.025	0.274
-506.741	-200.000	0.016	-0.170
-505.726	800.000	0.032	0.111
-504.712	-200.000	-0.062	-0.284
-503.697	56.969	0.118	0.115
-502.683	96.771	0.185	-0.211
-501.668	-108.184	0.174	0.038
-500.653	81.426	0.068	0.073
-499.639	-10.413	-0.179	-0.119
-498.624	-69.742	-0.330	0.126
-497.610	449.170	-0.159	-0.350
-496.595	-18.788	-0.044	0.027
-495.581	-84.358	-0.294	-0.093
-494.566	-200.000	-0.022	0.239
-493.551	31.443	0.115	0.099
-492.537	-200.000	-0.012	0.349
-491.522	800.000	0.101	0.284
-490.508	-121.154	0.213	0.036
-489.493	-171.028	-0.204	0.007
-488.478	-200.000	0.021	-0.099
-487.464	686.842	0.017	0.045
-486.449	117.333	-0.204	0.250
-485.435	293.020	-0.079	-0.143
-484.420	-200.000	-0.047	0.306
-483.405	800.000	-0.070	0.287
-482.391	800.000	0.086	0.306
-481.376	-200.000	0.028	-0.239
-480.362	-200.000	-0.089	-0.429
-479.347	131.984	-0.147	-0.189
-478.332	18.005	-0.253	-0.201
-477.318	306.058	0.203	-0.377
-476.303	755.884	-0.022	-0.059
-475.289	-200.000	0.055	0.282
-474.274	339.928	-0.141	0.273
-473.259	-200.000	-0.086	-0.399
-472.245	-4.219	0.117	-0.081
-471.230	-195.424	0.249	-0.002
-470.216	-103.603	-0.340	0.080
-469.201	5.430	0.160	0.118
-468.186	-200.000	-0.033	-0.258
-467.172	-200.000	0.041	-0.313
-466.157	-200.000	-0.008	-0.244
-465.143	-200.000	-0.032	-0.301
-464.128	773.154	0.065	0.177
-463.113	-149.093	-0.218	0.017
-462.099	45.709	0.119	-0.110
-461.084	-200.000	-0.018	-0.319
-460.070	6.708	0.272	0.201
-459.055	-14.676	0.171	0.109
-458.040	44.309	0.135	0.124
-457.026	21.072	0.206	0.166
-456.011	-136.520	-0.278	0.032
-454.997	126.127	0.112	0.141
-453.982	228.110	-0.097	-0.157
-452.968	-88.287	-0.275	-0.082
-451.953	800.000	-0.042	-0.151
-450.938	800.000	-0.008	0.028
-449.924	-8.895	-0.206	0.138
-448.909	-49.219	0.074	0.035
-447.895	-84.376	-0.163	-0.051
-446.880	-76.832	-0.204	0.071
-445.865	326.663	-0.209	0.398
-444.851	-76.830	-0.130	-0.045
-443.836	25.841	-0.293	0.243
-442.822	353.899	-0.193	0.382
-441.807	137.337	-0.095	-0.123
-440.792	800.000	-0.024	-0.089
-439.778	110.655	0.230	0.275
-438.763	-155.238	0.216	-0.014
-437.749	-200.000	0.023	0.245
-436.734	1.115	-0.054	0.038
-435.719	255.289	-0.205	0.349
-434.705	-150.412	-0.100	-0.008
-433.690	127.386	0.268	-0.339
-432.676	3.405	0.168	0.122
-431.661	-200.000	0.017	-0.107
-430.646	536.617	-0.211	-0.498
-429.632	-36.706	0.199	-0.106
-428.617	-36.713	0.113	-0.060
-427.603	75.279	-0.084	-0.088
-426.588	281.728	-0.190	0.338
-425.573	57.964	-0.343	-0.334
-424.559	-146.567	0.280	-0.024
-423.544	273.991	0.144	0.254
-422.530	41.718	0.111	0.100
-421.515	-29.293	-0.247	-0.141
-420.500	800.000	-0.030	0.125
-419.486	-39.879	-0.207	-0.108
-418.471	-57.360	0.285	0.124
-417.457	532.619	-0.080	-0.188
-416.442	-65.343	-0.138	0.055
-415.428	-153.018	0.522	-0.037
-414.413	213.829	-0.051	-0.080
-413.398	263.396	-0.292	-0.504
-412.384	-180.882	0.226	0.005
-411.369	-30.865	0.202	-0.114
-410.355	-20.075	0.125	-0.077
-409.340	800.000	-0.054	0.191
-408.325	84.094	0.102	-0.110
-407.311	147.656	-0.223	-0.299
-406.296	-148.248	-0.140	0.012
-405.282	-52.815	0.158	-0.072
-404.267	-109.534	-0.411	0.086
-403.252	-80.574	0.156	-0.052
-402.238	-7.426	-0.147	-0.099
-401.223	25.172	0.201	-0.166
-400.209	-50.898	-0.220	-0.103
-399.194	-85.730	0.301	0.093
-398.179	48.712	0.093	0.087
-397.165	800.000	0.137	-0.561
-396.150	-200.000	0.016	0.090
-395.136	-143.176	0.297	-0.028
-394.121	367.239	-0.122	-0.244
-393.106	-54.448	0.091	-0.041
-392.092	-164.986	-0.431	0.019
-391.077	50.245	-0.067	0.062
-390.063	198.694	0.047	0.071
-389.048	-142.396	-0.235	-0.023
-388.033	-129.215	0.111	-0.015
-387.019	76.149	-0.320	-0.336
-386.004	-167.324	0.113	-0.005
-384.990	264.401	-0.093	-0.160
-383.975	-83.077	-0.262	-0.084
-382.960	-12.967	0.062	-0.040
-381.946	663.932	0.036	-0.091
-380.931	-141.411	-0.073	0.007
-379.917	-74.849	-0.215	0.077
-378.902	-21.545	0.216	-0.131
-377.888	409.537	0.096	0.202
-376.873	113.446	0.025	0.030
-375.858	-7.298	0.104	0.070
-374.844	197.446	0.148	0.224
-373.829	8.842	-0.250	0.187
-372.815	-72.592	-0.152	-0.056
-371.800	-0.765	0.281	0.198
-370.785	100.314	0.151	-0.174
-369.771	595.802	-0.074	-0.182
-368.756	15.393	-0.233	0.182
-367.742	-200.000	-0.012	0.055
-366.727	-174.644	0.524	0.015
-365.712	-36.692	0.348	-0.186
-364.698	-200.000	-0.009	-0.123
-363.683	-155.422	-0.186	0.012
-362.669	800.000	-0.025	0.070
-361.654	185.234	0.082	0.121
-360.639	139.060	-0.190	0.248
-359.625	-93.007	-0.093	-0.026
-358.610	-147.510	0.211	-0.018
-357.596	800.000	0.039	-0.168
-356.581	-121.968	-0.121	0.020
-355.566	67.238	0.301	-0.304
-354.552	275.547	0.159	0.280
-353.537	-95.049	-0.169	-0.045
-352.523	127.785	-0.128	0.161
-351.508	207.222	0.113	0.175
-350.493	417.762	-0.088	0.187
-349.479	-200.000	-0.003	0.041
-348.464	-200.000	0.000	0.126
-347.450	633.427	-0.081	-0.205
-346.435	-200.000	0.001	0.093
-345.420	-66.761	-0.316	-0.124
-344.406	-118.104	-0.208	0.037
-343.391	-74.229	-0.101	-0.036
-342.377	532.683	0.128	0.300
-341.362	-98.965	0.299	-0.075
-340.348	344.331	-0.093	-0.181
-339.333	-160.881	0.410	-0.021
-338.318	110.884	-0.117	0.140
-337.304	161.732	0.169	0.234
-336.289	5.826	0.185	-0.136
-335.275	32.229	-0.260	0.222
-334.260	-136.232	-0.226	-0.026
-333.245	-65.718	-0.252	-0.100
-332.231	23.678	0.067	-0.054
-331.216	-2.594	0.286	-0.198
-330.202	-200.000	-0.041	-0.198
-329.187	15.654	-0.124	-0.097
-328.172	-36.842	0.509	0.271
-327.158	95.071	0.073	0.082
-326.143	-7.742	-0.064	0.043
-325.129	142.730	0.059	0.077
-324.114	509.564	0.049	0.113
-323.099	-95.721	-0.301	0.080
-322.085	-87.277	0.254	0.077
-321.070	-22.481	-0.093	0.056
-320.056	65.822	-0.187	0.188
-319.041	-22.564	-0.040	-0.024
-318.026	-30.394	-0.127	-0.071
-317.012	-43.281	0.284	0.142
-315.997	106.308	-0.186	0.218
-314.983	105.310	0.088	0.102
-313.968	187.906	0.227	-0.335
-312.953	-0.444	0.222	-0.156
-311.939	333.789	0.101	-0.194
-310.924	-61.342	-0.409	-0.170
-309.910	524.080	-0.048	-0.112
-308.895	800.000	0.139	0.441
-307.880	641.954	0.151	0.381
-306.866	205.547	-0.162	0.250
-305.851	275.785	-0.088	0.154
-304.837	-117.179	0.164	0.029
-303.822	800.000	0.042	-0.159
-302.807	-58.284	-0.299	-0.129
-301.793	350.954	-0.121	-0.236
-300.778	800.000	-0.064	-0.212
-299.764	24.695	-0.149	0.122
-298.749	800.000	0.044	-0.119
-297.735	-200.000	0.050	-0.360
-296.720	-77.113	-0.097	0.034
-295.705	-97.382	-0.056	0.015
-294.691	-134.267	0.219	-0.027
-293.676	-200.000	0.009	0.179
-292.662	-140.373	-0.262	-0.027
-291.647	60.671	0.405	-0.398
-290.632	-109.285	-0.433	0.091
-289.618	800.000	-0.052	0.202
-288.603	380.616	-0.120	-0.243
-287.589	250.505	-0.168	-0.282
-286.574	-200.000	0.010	-0.090
-285.559	165.327	-0.145	-0.202
-284.545	-2.071	0.122	0.085
-283.530	-28.486	-0.261	-0.149
-282.516	-91.030	0.229	-0.065
-281.501	348.611	-0.104	0.202
-280.486	-200.000	-0.025	-0.177
-279.472	-121.835	-0.156	-0.025
-278.457	-154.267	-0.061	-0.004
-277.443	-200.000	-0.004	-0.181
-276.428	95.983	-0.105	-0.118
-275.413	139.668	-0.102	-0.133
-274.399	-3.302	-0.087	0.060
-273.384	93.677	0.057	-0.064
-272.370	130.543	-0.181	0.230
-271.355	800.000	0.094	0.315
-270.340	192.809	-0.098	-0.146
-269.326	-200.000	-0.011	0.161
-268.311	-34.880	0.180	0.097
-267.297	-53.968	0.112	0.051
-266.282	-61.122	-0.145	0.060
-265.267	-58.453	-0.230	-0.099
-264.253	27.578	-0.224	-0.187
-263.238	800.000	0.032	-0.088
-262.224	5.970	0.167	-0.122
-261.209	-200.000	0.028	0.134
-260.195	-52.832	0.174	0.079
-259.180	199.740	0.086	0.131
-258.165	45.483	0.149	-0.136
-257.151	-24.458	-0.179	0.105
-256.136	-19.562	0.290	0.178
-255.122	-86.930	0.233	-0.070
-254.107	-25.509	0.209	-0.122
-253.092	-40.751	-0.145	0.074
-252.078	800.000	0.053	0.206
-251.063	-200.000	-0.006	0.123
-250.049	250.813	-0.035	-0.058
-249.034	13.261	-0.098	0.075
-248.019	432.877	0.048	0.104
-247.005	800.000	-0.035	0.138
-245.990	188.825	0.097	0.144
-244.976	571.459	-0.174	0.417
-243.961	-30.803	0.194	0.108
-242.946	-64.829	-0.266	0.107
-241.932	-119.847	0.324	0.055
-240.917	800.000	-0.070	-0.198
-239.903	-62.570	-0.261	-0.107
-238.888	-162.957	0.235	0.011
-237.873	-66.503	0.298	0.117
-236.859	-9.246	-0.176	0.116
-235.844	18.319	0.074	0.058
-234.830	800.000	0.034	0.139
-233.815	-37.501	0.080	0.042
-232.800	22.685	0.226	0.183
-231.786	190.963	0.080	0.118
-230.771	-200.000	-0.010	0.253
-229.757	-16.618	0.121	-0.076
-228.742	124.352	0.028	0.035
-227.727	195.830	-0.247	0.370
-226.713	-109.365	0.285	0.060
-225.698	-37.248	0.273	-0.144
-224.684	-192.599	-0.077	0.001
-223.669	-70.338	0.251	0.094
-222.655	306.589	-0.129	0.236
-221.640	786.670	-0.101	-0.273
-220.625	-174.050	-0.171	-0.005
-219.611	-34.414	-0.160	0.087
-218.596	60.535	-0.227	0.222
-217.582	800.000	-0.096	0.277
-216.567	-46.476	-0.255	0.123
-215.552	-200.000	0.041	0.396
-214.538	800.000	-0.111	0.306
-213.523	-130.471	-0.193	0.026
-212.509	10.638	0.298	-0.224
-211.494	-73.434	-0.436	0.157
-210.479	800.000	-0.008	-0.028
-209.465	55.052	0.183	-0.175
-208.450	-146.239	0.298	0.026
-207.436	-200.000	-0.007	0.128
-206.421	800.000	0.058	0.232
-205.406	16.290	0.072	-0.056
-204.392	-99.703	0.051	-0.013
-203.377	-146.823	-0.280	-0.024
-202.363	151.883	0.113	-0.153
-201.348	800.000	0.062	-0.214
-200.333	-78.897	0.049	0.017
-199.319	-122.308	0.108	0.017
-198.304	87.575	0.321	-0.350
-197.290	-200.000	-0.016	-0.232
-196.275	-200.000	0.001	0.213
-195.260	446.768	-0.222	-0.481
-194.246	72.489	-0.225	0.231
-193.231	180.070	0.124	-0.179
-192.217	-173.998	0.211	-0.006
-191.202	-200.000	0.006	-0.133
-190.187	-73.755	-0.230	-0.082
-189.173	214.385	0.137	-0.214
-188.158	-106.289	0.085	0.019
-187.144	-151.950	-0.148	0.011
-186.129	84.797	0.113	-0.122
-185.114	-152.933	0.274	-0.019
-184.100	-111.498	-0.053	-0.011
-183.085	-39.825	-0.196	-0.101
-182.071	-150.458	0.193	-0.015
-181.056	93.581	-0.024	-0.027
-180.042	85.275	0.268	0.290
-179.027	-161.462	0.282	0.014
-178.012	-127.639	-0.094	0.013
-176.998	750.038	0.099	0.262
-175.983	-200.000	-0.009	-0.146
-174.969	328.380	-0.132	-0.249
-173.954	-4.610	0.144	-0.098
-172.939	-69.229	-0.164	0.062
-171.925	187.072	-0.074	-0.108
-170.910	-113.919	0.294	-0.056
-169.896	-1.542	0.242	0.168
-168.881	76.820	0.089	0.093
-167.866	28.011	-0.353	-0.294
-166.852	-125.444	-0.298	-0.045
-165.837	500.966	-0.140	-0.318
-164.823	-137.524	0.047	-0.005
-163.808	-65.013	0.197	-0.079
-162.793	-12.971	0.201	-0.129
-161.779	247.295	-0.227	0.377
-160.764	46.655	0.105	0.096
-159.750	-200.000	0.007	0.162
-158.735	-109.217	-0.119	0.025
-157.720	800.000	0.074	0.319
-156.706	-165.470	0.181	-0.008
-155.691	178.183	0.125	-0.179
-154.677	-200.000	0.040	-0.243
-153.662	-66.228	0.355	-0.139
-152.647	-151.942	0.374	-0.027
-151.633	130.509	-0.159	-0.201
-150.618	203.251	-0.172	-0.262
-149.604	252.868	-0.256	0.430
-148.589	188.506	-0.158	0.233
-147.574	-200.000	0.033	-0.478
-146.560	-2.987	-0.278	-0.191
-145.545	-126.333	-0.288	0.042
-144.531	-180.899	0.122	-0.002
-143.516	193.725	-0.059	-0.088
-142.502	-76.264	0.337	0.117
-141.487	-158.111	0.240	-0.014
-140.472	-200.000	-0.080	-0.404
-139.458	28.725	-0.088	0.074
-138.443	172.536	-0.132	0.187
-137.429	800.000	-0.048	0.182
-136.414	800.000	0.062	-0.212
-135.399	287.970	-0.047	-0.083
-134.385	-7.940	-0.184	0.122
-133.370	-154.845	0.053	-0.003
-132.356	-139.607	-0.077	0.008
-131.341	-146.447	-0.397	0.034
-130.326	14.730	-0.092	-0.071
-129.312	-77.421	-0.243	0.083
-128.297	30.575	0.373	0.314
-127.283	-12.577	0.115	0.074
-126.268	-52.929	0.241	0.109
-125.253	136.718	-0.122	0.157
-124.239	32.515	0.148	0.126
-123.224	-17.404	0.136	0.084
-122.210	-27.370	0.291	0.167
-121.195	78.098	-0.105	0.110
-120.180	205.274	-0.129	-0.198
-119.166	-62.497	-0.138	-0.057
-118.151	103.629	-0.158	-0.182
-117.137	262.577	0.169	-0.287
-116.122	42.978	0.170	0.152
-115.107	-200.000	0.004	-0.116
-114.093	-50.544	-0.241	0.112
-113.078	190.945	0.132	-0.195
-112.064	397.043	0.071	-0.146
-111.049	-200.000	-0.002	-0.194
-110.034	31.991	0.128	0.108
-109.020	-62.578	0.197	-0.080
-108.005	-118.402	0.100	-0.017
-106.991	-114.830	-0.100	0.019
-105.976	-156.444	-0.285	0.017
-104.962	-54.718	-0.145	-0.065
-103.947	800.000	0.085	0.234
-102.932	326.057	0.237	0.446
-101.918	-20.399	0.115	-0.070
-100.903	-200.000	-0.015	-0.261
-99.889	800.000	-0.053	-0.217
-98.874	-200.000	-0.017	-0.113
-97.859	-200.000	0.006	-0.045
-96.845	648.455	0.056	-0.140
-95.830	183.405	0.165	0.239
-94.816	-200.000	0.015	-0.234
-93.801	162.843	0.055	-0.076
-92.786	177.152	0.104	-0.148
-91.772	-119.755	-0.070	-0.012
-90.757	365.186	0.041	-0.081
-89.743	162.075	0.300	-0.413
-88.728	-62.893	0.114	-0.046
-87.713	-67.332	-0.045	0.017
-86.699	-179.083	-0.366	-0.008
-85.684	-200.000	-0.084	-0.478
-84.670	-30.151	-0.255	-0.142
-83.655	-200.000	-0.049	-0.246
-82.640	-22.056	0.282	-0.168
-81.626	-200.000	-0.006	-0.029
-80.611	38.491	-0.209	-0.183
-79.597	-117.562	0.475	0.084
-78.582	-64.053	-0.064	-0.026
-77.567	-200.000	0.066	0.315
-76.553	-200.000	-0.041	0.304
-75.538	216.731	0.081	0.126
-74.524	60.412	0.205	-0.199
-73.509	800.000	0.081	-0.346
-72.494	532.259	-0.115	-0.266
-71.480	117.278	0.156	0.189
-70.465	-87.193	0.341	0.102
-69.451	800.000	-0.050	0.194
-68.436	-1.304	0.135	-0.094
-67.422	-200.000	0.018	0.111
-66.407	276.482	0.102	0.178
-65.392	216.311	-0.082	0.129
-64.378	-69.110	-0.252	0.095
-63.363	-200.000	-0.048	0.214
-62.349	-200.000	-0.051	0.292
-61.334	48.095	-0.945	-0.867
-60.319	-17.300	0.520	0.322
-59.305	-200.000	0.125	-0.863
-58.290	339.282	0.603	1.152
-57.276	419.826	0.722	1.517
-56.261	-200.000	97.271	594.593
-55.246	544.828	1382.664	3238.851
-54.232	161.689	2557.130	3509.722
-53.217	107.055	2263.885	2637.192
-52.203	41.213	1892.295	1677.032
-51.188	35.108	1683.714	1446.201
-50.173	32.428	1640.214	1389.031
-49.159	50.072	1687.532	1561.506
-48.144	51.587	1704.433	1588.415
-47.130	34.595	1665.470	1426.471
-46.115	31.884	1651.438	1394.267
-45.100	31.815	1646.222	1389.301
-44.086	31.748	1643.888	1386.774
-43.071	31.722	1641.299	1384.348
-42.057	31.752	1638.731	1382.350
-41.042	31.728	1636.571	1380.295
-40.027	31.723	1635.167	1379.020
-39.013	31.642	1632.833	1376.403
-37.998	31.630	1631.535	1375.159
-36.984	31.615	1630.670	1374.270
-35.969	31.803	1628.598	1373.849
-34.954	31.862	1627.322	1373.145
-33.940	31.841	1625.438	1371.346
-32.925	31.763	1623.780	1369.329
-31.911	31.742	1622.074	1367.677
-30.896	31.746	1620.239	1366.106
-29.881	31.694	1618.916	1364.562
-28.867	31.832	1616.940	1363.843
-27.852	31.761	1615.738	1362.262
-26.838	31.683	1614.709	1360.770
-25.823	31.802	1612.600	1359.804
-24.809	31.876	1611.212	1359.112
-23.794	31.881	1609.616	1357.752
-22.779	31.905	1608.310	1356.772
-21.765	31.878	1606.708	1355.166
-20.750	31.837	1605.049	1353.418
-19.736	31.773	1604.166	1352.163
-18.721	31.823	1602.404	1350.979
-17.706	31.829	1600.954	1349.746
-16.692	31.758	1599.723	1348.146
-15.677	31.839	1598.030	1347.248
-14.663	31.905	1596.901	1346.718
-13.648	31.953	1595.640	1345.943
-12.633	31.859	1594.125	1343.938
-11.619	31.798	1592.776	1342.311
-10.604	31.778	1591.183	1340.771
-9.590	31.865	1589.888	1340.251
-8.575	31.838	1588.700	1339.001
-7.560	31.835	1587.158	1337.627
-6.546	31.854	1586.120	1336.833
-5.531	31.837	1585.079	1335.785
-4.517	31.852	1583.730	1334.704
-3.502	31.858	1582.871	1333.964
-2.487	31.873	1581.181	1332.597
-1.473	31.499	1569.552	1320.104
-0.458	28.507	1550.006	1282.719
0.556	22.884	1550.060	1249.212
1.571	20.470	1573.453	1250.594
2.586	19.985	1586.379	1257.235
3.600	18.165	1534.300	1203.064
4.615	10.204	1424.911	1064.989
5.629	1.871	1359.228	963.308
6.644	0.237	1350.604	946.847
7.659	0.052	1349.302	944.688
8.673	-0.036	1348.583	943.549
9.688	-0.003	1346.538	942.243
10.702	-0.120	1343.274	939.142
11.717	3.697	1349.317	967.223
12.731	12.358	1363.405	1031.840
13.746	17.541	1370.053	1069.408
14.761	17.299	1367.958	1066.160
15.775	16.324	1365.062	1057.705
16.790	15.208	1362.578	1048.709
17.804	14.416	1360.624	1042.163
18.819	14.035	1359.116	1038.535
19.834	13.769	1358.084	1035.990
20.848	13.632	1356.299	1033.682
21.863	13.293	1354.869	1030.391
22.877	13.166	1353.671	1028.598
23.892	13.198	1353.082	1028.261
24.907	13.063	1352.095	1026.580
25.921	13.136	1351.314	1026.345
26.936	13.203	1350.284	1025.888
27.950	13.146	1349.423	1024.792
28.965	13.180	1348.875	1024.495
29.980	13.234	1348.031	1024.098
30.994	13.265	1347.183	1023.554
32.009	13.338	1346.055	1023.059
33.023	13.440	1344.733	1022.595
34.038	13.379	1344.036	1021.599
35.053	13.241	1342.832	1019.737
36.067	13.220	1341.670	1018.635
37.082	13.275	1340.703	1018.152
38.096	13.444	1339.670	1018.320
39.111	13.331	1339.360	1017.294
40.126	13.255	1338.455	1016.056
41.140	13.125	1337.766	1014.639
42.155	13.118	1336.973	1013.909
43.169	13.229	1336.427	1014.084
44.184	13.099	1336.741	1013.435
45.199	13.232	1335.760	1013.420
46.213	13.215	1335.507	1013.029
47.228	13.187	1334.787	1012.221
48.242	13.266	1333.506	1011.644
49.257	13.289	1331.736	1010.357
50.271	13.337	1330.430	1009.565
51.286	13.257	1329.518	1008.301
52.301	13.279	1328.055	1007.232
53.315	13.186	1327.321	1006.021
54.330	13.105	1325.926	1004.383
55.344	13.098	1325.146	1003.659
56.359	13.111	1324.254	1002.973
57.374	13.170	1322.686	1002.056
58.388	13.128	1322.045	1001.225
59.403	13.124	1321.192	1000.468
60.417	13.142	1320.359	999.859
61.432	13.058	1319.446	998.571
62.447	13.085	1318.514	997.939
63.461	12.881	1317.977	996.215
64.476	13.022	1316.401	995.786
65.490	13.019	1315.415	994.929
66.505	13.073	1313.732	993.896
67.520	13.055	1312.292	992.612
68.534	13.092	1311.681	992.286
69.549	12.993	1311.017	991.099
70.563	13.109	1309.491	990.555
71.578	13.028	1307.976	988.835
72.593	12.946	1307.295	987.743
73.607	12.991	1306.587	987.388
74.622	13.035	1305.731	986.918
75.636	13.034	1305.086	986.336
76.651	13.016	1304.248	985.509
77.666	13.055	1303.653	985.203
78.680	13.031	1303.191	984.621
79.695	13.035	1302.079	983.721
80.709	13.181	1301.050	983.726
81.724	13.087	1300.540	982.694
82.739	13.185	1299.557	982.445
83.753	13.169	1298.959	981.812
84.768	13.225	1297.766	981.157
85.782	13.339	1296.864	981.061
86.797	13.428	1294.654	979.830
87.812	13.116	1294.297	977.631
88.826	13.288	1292.910	977.512
89.841	13.217	1292.089	976.383
90.855	13.303	1290.710	975.764
91.870	13.338	1290.069	975.398
92.884	13.275	1289.162	974.257
93.899	13.313	1288.590	973.963
94.914	13.337	1287.852	973.455
95.928	13.341	1287.376	973.037
96.943	13.277	1286.112	971.621
97.957	13.329	1285.200	971.146
98.972	13.295	1284.039	969.985
99.987	13.248	1283.430	969.164
101.001	13.351	1282.266	968.805
102.016	13.459	1280.891	968.313
103.030	13.309	1280.659	967.172
104.045	13.328	1279.716	966.483
105.060	13.244	1278.576	965.046
106.074	13.170	1277.357	963.613
107.089	13.137	1275.788	962.150
108.103	13.101	1274.471	960.865
109.118	13.080	1272.888	959.460
110.133	13.107	1272.028	958.884
111.147	13.157	1270.419	957.879
112.162	13.140	1269.193	956.772
113.176	13.179	1268.372	956.293
114.191	13.236	1267.475	955.860
115.206	13.264	1266.163	954.950
116.220	13.263	1264.694	953.751
117.235	13.208	1263.956	952.791
118.249	13.154	1263.173	951.805
119.264	13.109	1262.089	950.648
120.279	13.206	1260.601	949.999
121.293	13.068	1259.944	948.626
122.308	13.116	1258.879	948.017
123.322	13.103	1258.004	947.203
124.337	13.023	1256.913	945.835
125.352	13.220	1255.539	945.847
126.366	13.017	1254.751	944.007
127.381	13.151	1253.396	943.670
128.395	13.111	1252.231	942.483
129.410	13.135	1251.965	942.338
130.424	13.159	1250.969	941.641
131.439	13.180	1249.942	940.904
132.454	13.197	1248.886	940.118
133.468	13.249	1248.171	939.793
134.483	13.254	1246.959	938.826
135.497	13.294	1246.312	938.485
136.512	13.203	1244.934	936.849
137.527	13.158	1243.966	935.783
138.541	13.257	1242.419	935.092
139.556	13.250	1241.314	934.142
140.570	13.315	1240.275	933.641
141.585	13.254	1239.074	932.311
142.600	13.378	1238.227	932.290
143.614	13.334	1237.121	931.132
144.629	13.520	1235.753	931.065
145.643	13.416	1234.411	929.387
146.658	13.433	1233.251	928.526
147.673	13.293	1232.039	926.747
148.687	13.171	1231.617	925.665
149.702	13.265	1230.130	924.989
150.716	13.271	1228.288	923.555
151.731	13.428	1227.048	923.417
152.746	13.325	1226.118	922.063
153.760	13.434	1224.988	921.739
154.775	13.440	1223.738	920.751
155.789	13.466	1223.138	920.363
156.804	13.560	1221.698	919.720
157.819	13.569	1220.476	918.767
158.833	13.525	1219.941	918.039
159.848	13.480	1219.307	917.232
160.862	13.425	1218.479	916.224
161.877	13.569	1216.532	915.472
162.892	13.397	1215.963	914.012
163.906	13.381	1215.162	913.244
164.921	13.403	1214.183	912.546
165.935	13.467	1213.307	912.162
166.950	13.449	1212.779	911.584
167.964	13.448	1212.205	911.066
168.979	13.516	1211.123	910.549
169.994	13.488	1210.462	909.814
171.008	13.541	1209.667	909.428
172.023	13.602	1208.590	908.870
173.037	13.629	1208.010	908.504
174.052	13.646	1207.040	907.790
175.067	13.500	1206.236	906.303
176.081	13.544	1205.059	905.581
177.096	13.527	1204.518	904.997
178.110	13.472	1203.437	903.805
179.125	13.464	1202.282	902.816
180.140	13.683	1200.549	902.625
181.154	13.669	1199.637	901.783
182.169	13.673	1198.618	900.961
183.183	13.768	1197.508	900.564
184.198	13.679	1196.769	899.445
185.213	13.725	1195.286	898.501
186.227	13.835	1194.066	898.098
187.242	13.865	1192.943	897.339
188.256	13.768	1192.514	896.409
189.271	13.777	1191.613	895.702
190.286	13.825	1190.083	894.732
191.300	13.545	1189.812	892.941
192.315	13.575	1189.087	892.477
193.329	13.545	1188.336	891.674
194.344	13.648	1187.905	891.824
195.359	13.720	1187.047	891.489
196.373	13.752	1186.332	891.049
197.388	13.732	1186.428	890.932
198.402	13.846	1185.425	890.712
199.417	13.929	1184.579	890.445
200.432	14.019	1183.759	890.230
201.446	13.937	1183.073	889.196
202.461	14.039	1182.226	889.025
203.475	13.977	1181.269	887.897
204.490	14.018	1180.049	887.117
205.504	13.869	1179.063	885.504
206.519	14.049	1177.835	885.466
207.534	13.864	1176.721	883.566
208.548	14.077	1175.654	883.814
209.563	13.869	1174.962	882.111
210.577	13.900	1173.866	881.378
211.592	14.004	1173.283	881.413
212.607	14.127	1172.089	881.091
213.621	14.062	1171.474	880.205
214.636	14.120	1170.773	879.907
215.650	14.143	1169.615	879.082
216.665	14.135	1168.777	878.331
217.680	14.215	1167.958	878.062
218.694	14.198	1167.066	877.221
219.709	14.302	1166.139	876.995
220.723	14.241	1165.707	876.271
221.738	14.340	1164.761	876.002
222.753	14.181	1164.027	874.538
223.767	14.205	1163.500	874.191
224.782	14.349	1162.836	874.368
225.796	14.339	1162.188	873.754
226.811	14.318	1161.514	873.059
227.826	14.343	1160.478	872.333
228.840	14.287	1160.039	871.636
229.855	14.367	1159.109	871.279
230.869	14.391	1158.331	870.742
231.884	14.390	1157.573	870.090
232.899	14.308	1157.048	869.188
233.913	14.284	1155.980	868.186
234.928	14.259	1155.613	867.700
235.942	14.272	1154.896	867.152
236.957	14.346	1153.980	866.772
237.972	14.322	1153.167	865.963
238.986	14.288	1152.652	865.323
240.001	14.266	1152.024	864.658
241.015	14.370	1150.886	864.270
242.030	14.266	1150.344	863.245
243.045	14.415	1149.368	863.210
244.059	14.381	1148.761	862.502
245.074	14.419	1148.056	862.092
246.088	14.475	1146.909	861.445
247.103	14.430	1146.541	860.858
248.117	14.477	1145.787	860.457
249.132	14.597	1144.852	860.301
250.147	14.692	1144.433	860.399
251.161	14.732	1143.632	859.924
252.176	14.767	1143.078	859.614
253.190	14.706	1142.542	858.822
254.205	14.713	1141.923	858.315
255.220	14.837	1141.419	858.495
256.234	14.821	1140.621	857.740
257.249	14.944	1140.055	857.867
258.263	14.960	1138.871	856.984
259.278	14.891	1138.506	856.281
260.293	14.856	1137.892	855.561
261.307	14.904	1137.615	855.524
262.322	14.972	1136.753	855.148
263.336	15.071	1135.487	854.625
264.351	14.958	1135.276	853.814
265.366	15.013	1134.803	853.661
266.380	14.913	1134.631	852.947
267.395	15.000	1133.451	852.429
268.409	14.972	1132.550	851.536
269.424	14.913	1132.173	850.874
270.439	14.964	1131.783	850.765
271.453	14.944	1130.804	849.855
272.468	14.932	1130.026	849.134
273.482	14.899	1129.032	848.143
274.497	14.973	1128.777	848.252
275.512	14.985	1128.011	847.662
276.526	15.079	1126.857	847.195
277.541	15.112	1126.336	846.895
278.555	15.108	1125.615	846.259
279.570	15.102	1124.912	845.626
280.585	15.249	1124.231	845.777
281.599	15.234	1123.252	844.895
282.614	15.187	1122.047	843.673
283.628	15.223	1121.112	843.077
284.643	15.178	1120.231	842.114
285.657	15.242	1119.348	841.697
286.672	15.209	1118.475	840.801
287.687	15.216	1117.833	840.282
288.701	15.270	1116.998	839.846
289.716	15.345	1116.174	839.530
290.730	15.396	1115.458	839.171
291.745	15.334	1115.169	838.570
292.760	15.310	1114.484	837.862
293.774	15.363	1113.688	837.455
294.789	15.332	1113.569	837.137
295.803	15.391	1112.755	836.741
296.818	15.529	1111.680	836.546
297.833	15.346	1111.026	835.073
298.847	15.393	1110.486	834.823
299.862	15.417	1109.373	834.035
300.876	15.539	1108.726	834.077
301.891	15.381	1108.457	833.019
302.906	15.504	1107.262	832.658
303.920	15.549	1106.991	832.602
304.935	15.604	1105.968	832.030
305.949	15.596	1105.800	831.790
306.964	15.621	1104.823	831.109
307.979	15.650	1104.156	830.673
308.993	15.557	1103.478	829.630
310.008	15.584	1102.670	829.084
311.022	15.683	1101.719	828.783
312.037	15.684	1101.174	828.307
313.052	15.588	1100.345	827.134
314.066	15.564	1099.299	826.160
315.081	15.580	1098.163	825.311
316.095	15.542	1097.684	824.692
317.110	15.654	1097.016	824.664
318.125	15.597	1096.399	823.848
319.139	15.545	1095.594	822.918
320.154	15.515	1095.300	822.478
321.168	15.569	1094.290	821.910
322.183	15.709	1093.785	822.140
323.197	15.752	1092.851	821.579
324.212	15.860	1092.116	821.480
325.227	15.578	1092.546	820.353
326.241	15.595	1091.586	819.641
327.256	15.684	1090.667	819.316
328.270	15.789	1089.312	818.733
329.285	15.683	1088.850	817.797
330.300	15.758	1088.038	817.483
331.314	15.783	1086.891	816.667
332.329	15.754	1086.005	815.789
333.343	15.804	1085.053	815.245
334.358	15.843	1084.287	814.786
335.373	15.956	1083.622	814.763
336.387	15.917	1082.983	814.021
337.402	15.923	1082.210	813.394
338.416	15.888	1081.618	812.711
339.431	15.999	1080.884	812.623
340.446	15.926	1080.588	811.976
341.460	15.985	1079.484	811.360
342.475	16.052	1078.562	810.914
343.489	16.043	1077.856	810.271
344.504	16.048	1077.379	809.862
345.519	16.176	1075.854	809.260
346.533	16.094	1075.540	808.560
347.548	16.203	1075.001	808.604
348.562	16.281	1073.669	807.906
349.577	16.096	1073.327	806.692
350.592	16.068	1072.489	805.855
351.606	16.074	1071.787	805.284
352.621	16.095	1071.162	804.842
353.635	16.155	1070.346	804.445
354.650	16.090	1069.687	803.569
355.665	16.143	1068.926	803.179
356.679	16.074	1068.489	802.452
357.694	16.196	1067.918	802.533
358.708	16.084	1067.251	801.427
359.723	16.142	1067.067	801.493
360.738	16.326	1065.992	801.490
361.752	16.219	1065.573	800.597
362.767	16.307	1064.972	800.491
363.781	16.328	1064.264	799.985
364.796	16.269	1063.700	799.211
365.810	16.360	1063.276	799.255
366.825	16.466	1062.343	798.985
367.840	16.499	1062.061	798.855
368.854	16.574	1061.428	798.666
369.869	16.502	1060.595	797.625
370.883	16.488	1060.059	797.089
371.898	16.542	1058.793	796.318
372.913	16.475	1058.577	795.770
373.927	16.531	1057.965	795.503
374.942	16.700	1057.221	795.668
375.956	16.559	1057.008	794.774
376.971	16.568	1056.116	794.077
377.986	16.655	1055.764	794.151
379.000	16.764	1054.998	794.013
380.015	16.708	1054.694	793.452
381.029	16.756	1054.094	793.156
382.044	16.731	1053.438	792.476
383.059	16.722	1052.746	791.840
384.073	16.798	1051.997	791.564
385.088	16.803	1051.072	790.819
386.102	16.779	1050.234	790.009
387.117	16.650	1049.391	788.704
388.132	16.645	1048.212	787.726
389.146	16.720	1047.619	787.556
390.161	16.781	1046.578	786.989
391.175	16.721	1046.357	786.473
392.190	16.710	1045.603	785.787
393.205	16.780	1045.188	785.731
394.219	16.825	1044.185	785.116
395.234	16.836	1043.298	784.431
396.248	16.907	1041.499	783.337
397.263	16.833	1040.934	782.498
398.278	16.724	1040.548	781.636
399.292	16.857	1039.730	781.569
400.307	16.767	1039.174	780.667
401.321	16.836	1038.905	780.709
402.336	16.722	1038.157	779.554
403.350	16.755	1037.300	778.994
404.365	16.905	1036.524	779.031
405.380	17.002	1035.697	778.789
406.394	17.003	1034.876	778.105
407.409	16.981	1034.513	777.661
408.423	16.935	1033.496	776.619
409.438	17.077	1032.788	776.667
410.453	17.087	1032.511	776.438
411.467	17.108	1031.749	775.889
412.482	17.180	1031.183	775.727
413.496	17.232	1030.332	775.254
414.511	17.207	1029.570	774.497
415.526	17.260	1029.307	774.471
416.540	17.352	1028.807	774.450
417.555	17.315	1028.520	773.994
418.569	17.234	1028.518	773.558
419.584	17.269	1027.734	773.060
420.599	17.313	1026.660	772.383
421.613	102.470	1319.140	1461.711
422.628	93.689	1361.738	1461.818
