DTS Sentinel unit serial number:	SN413079Multiplexer serial number:	ORYXHardware model number:	OX4-SRSoftware version number:	ORYX F/W v4.00 Oryx Data Collector v3.7.2.0data status	okinstallation	princeton_trtdifferential loss correction	single-endedforward channel	channel 2reverse channel	N/Adate	2019/09/19time	06:55:35forward acquisition time	60.00reverse acquisition time	0.00gamma	496.2192k internal	0.2350k external	0.2350temperature offset calibration	1.0013default loss term (dB/km)	0.3790temperature slope calibration	1.0000multiplexer offset coefficient	1.0000multiplexer slope coefficient	1.0000fibre end	0.00T internal ref (°C)	19.00T ext. ref 1 (°C)	0.56T ext. ref 2 (°C)	12.76length (m)	temperature (°C)	Stokes	anti-Stokes-747.200	594.570	0.185	0.456
-746.185	-200.000	0.047	0.268
-745.171	241.320	-0.165	-0.276
-744.156	-48.191	0.224	-0.108
-743.142	97.863	-0.202	-0.232
-742.127	114.722	0.116	-0.141
-741.112	-27.954	0.440	0.254
-740.098	-35.020	-0.137	-0.074
-739.083	82.493	0.180	0.195
-738.069	-105.464	-0.257	0.058
-737.054	-62.565	0.395	0.164
-736.039	-79.552	0.268	0.090
-735.025	55.047	0.110	0.106
-734.010	-67.673	-0.116	-0.045
-732.996	800.000	0.070	-0.231
-731.981	191.470	-0.282	-0.424
-730.966	-200.000	0.012	0.201
-729.952	-200.000	-0.029	-0.156
-728.937	-5.341	0.214	-0.146
-727.923	-200.000	-0.012	-0.339
-726.908	69.907	-0.255	-0.262
-725.894	-200.000	-0.006	-0.088
-724.879	-200.000	0.015	-0.068
-723.864	-33.409	-0.235	-0.130
-722.850	-61.637	0.040	0.017
-721.835	-144.200	-0.244	-0.023
-720.821	-78.485	-0.238	0.081
-719.806	17.219	-0.151	-0.120
-718.791	-200.000	0.038	-0.411
-717.777	-66.776	-0.442	-0.174
-716.762	-9.226	-0.118	-0.079
-715.748	-169.819	-0.162	0.006
-714.733	-67.036	0.318	0.125
-713.718	-90.503	-0.162	0.047
-712.704	800.000	-0.084	0.242
-711.689	-71.245	0.207	0.078
-710.675	800.000	-0.058	-0.171
-709.660	73.301	-0.095	-0.099
-708.645	174.910	0.103	-0.149
-707.631	127.083	0.147	0.186
-706.616	540.671	-0.079	-0.186
-705.602	-200.000	0.054	0.245
-704.587	-70.578	-0.284	-0.107
-703.572	-3.357	0.092	0.064
-702.558	65.498	0.158	0.160
-701.543	-62.038	-0.195	0.081
-700.529	800.000	-0.026	0.084
-699.514	-200.000	0.003	-0.118
-698.499	321.417	0.162	-0.307
-697.485	-187.881	-0.173	0.002
-696.470	7.930	0.162	-0.121
-695.456	800.000	-0.043	0.146
-694.441	-65.102	0.133	-0.054
-693.426	800.000	-0.099	-0.331
-692.412	315.841	-0.059	0.110
-691.397	246.078	-0.079	-0.133
-690.383	-6.606	-0.142	0.096
-689.368	-137.473	0.232	0.026
-688.354	72.521	0.190	0.197
-687.339	-75.558	0.260	0.092
-686.324	800.000	-0.049	0.197
-685.310	46.691	-0.157	-0.145
-684.295	330.734	-0.070	0.135
-683.281	-200.000	0.009	-0.119
-682.266	55.048	0.240	-0.231
-681.251	44.510	-0.170	-0.156
-680.237	800.000	-0.069	0.191
-679.222	62.352	-0.259	0.257
-678.208	16.359	0.089	-0.070
-677.193	29.480	-0.236	0.200
-676.178	-200.000	0.030	-0.136
-675.164	73.932	-0.254	0.266
-674.149	402.191	-0.181	0.380
-673.135	173.247	0.058	0.083
-672.120	260.655	0.094	0.161
-671.105	2.923	-0.069	0.050
-670.091	-66.438	-0.072	-0.028
-669.076	55.931	-0.031	0.030
-668.062	149.691	-0.175	0.236
-667.047	-200.000	0.038	0.229
-666.032	-2.816	0.208	-0.145
-665.018	-17.353	-0.165	0.104
-664.003	800.000	0.098	0.421
-662.989	-200.000	-0.299	0.001
-661.974	-200.000	0.005	-0.211
-660.959	800.000	-0.070	-0.207
-659.945	-85.868	-0.119	0.037
-658.930	-200.000	-0.006	0.244
-657.916	-70.998	0.215	0.080
-656.901	-126.069	-0.207	0.031
-655.886	589.815	-0.142	-0.349
-654.872	-200.000	-0.000	-0.118
-653.857	-200.000	-0.085	-0.395
-652.843	-36.265	0.501	-0.269
-651.828	-68.454	0.124	0.048
-650.814	61.894	-0.139	-0.138
-649.799	-200.000	0.023	0.270
-648.784	-87.635	-0.126	0.038
-647.770	-78.838	-0.296	-0.100
-646.755	95.553	-0.320	-0.363
-645.741	619.279	-0.054	0.134
-644.726	-46.857	0.094	0.046
-643.711	-41.232	-0.257	-0.132
-642.697	122.719	0.102	0.127
-641.682	87.952	0.157	-0.174
-640.668	-200.000	-0.014	0.155
-639.653	-200.000	0.004	-0.236
-638.638	7.905	0.167	-0.124
-637.624	121.911	-0.176	-0.218
-636.609	132.333	0.175	-0.224
-635.595	273.349	-0.109	-0.192
-634.580	341.356	-0.095	-0.184
-633.565	100.628	0.102	-0.118
-632.551	-59.998	-0.389	-0.165
-631.536	-145.613	-0.224	0.020
-630.522	153.278	0.182	0.248
-629.507	-77.624	0.198	0.068
-628.492	44.803	-0.262	0.240
-627.478	372.191	-0.096	-0.193
-626.463	-63.278	-0.070	-0.029
-625.449	266.250	-0.033	-0.058
-624.434	-79.793	-0.337	-0.113
-623.419	-22.105	0.352	-0.212
-622.405	107.991	0.098	0.116
-621.390	169.064	-0.099	0.140
-620.376	-103.255	0.189	0.044
-619.361	426.280	-0.063	-0.134
-618.346	-120.542	0.147	-0.025
-617.332	800.000	0.041	-0.150
-616.317	574.947	-0.067	0.163
-615.303	168.459	-0.112	0.158
-614.288	-185.941	-0.231	-0.003
-613.273	-67.413	0.159	0.062
-612.259	-44.810	0.232	-0.115
-611.244	-200.000	0.008	-0.163
-610.230	-40.648	-0.287	-0.148
-609.215	800.000	0.055	0.195
-608.201	143.945	-0.257	-0.341
-607.186	6.549	0.110	0.081
-606.171	800.000	0.068	-0.253
-605.157	-72.669	-0.042	-0.015
-604.142	-20.494	-0.013	-0.008
-603.128	666.276	-0.062	-0.160
-602.113	53.893	0.260	-0.248
-601.098	-79.320	-0.246	0.083
-600.084	800.000	0.070	0.266
-599.069	-21.746	-0.162	-0.098
-598.055	-58.836	0.092	-0.040
-597.040	-112.266	-0.240	-0.048
-596.025	-75.238	0.120	-0.043
-595.011	-200.000	0.080	-0.541
-593.996	-100.946	-0.163	-0.040
-592.982	-200.000	-0.007	0.189
-591.967	800.000	0.037	-0.141
-590.952	-15.668	0.126	-0.080
-589.938	-131.028	0.262	-0.035
-588.923	-80.541	0.107	0.035
-587.909	65.655	0.133	0.134
-586.894	-9.071	-0.285	0.189
-585.879	228.231	0.192	-0.310
-584.865	-36.672	0.148	-0.079
-583.850	-200.000	0.027	0.147
-582.836	307.476	-0.182	0.336
-581.821	-200.000	-0.081	0.379
-580.806	-200.000	0.015	-0.136
-579.792	-67.637	0.228	0.089
-578.777	219.092	0.099	0.157
-577.763	-166.407	-0.136	0.006
-576.748	-147.116	0.087	-0.007
-575.733	86.715	-0.140	0.153
-574.719	771.700	-0.029	0.077
-573.704	24.284	-0.421	-0.345
-572.690	-79.122	0.463	-0.156
-571.675	-200.000	0.035	-0.270
-570.661	-65.938	-0.156	-0.062
-569.646	800.000	0.061	-0.246
-568.631	-200.000	-0.006	0.098
-567.617	57.983	-0.124	-0.120
-566.602	164.446	0.188	0.263
-565.588	133.876	0.116	-0.149
-564.573	-1.497	0.097	0.067
-563.558	-27.958	0.134	0.077
-562.544	-69.404	-0.069	0.026
-561.529	-200.000	-0.005	0.084
-560.515	15.069	0.239	-0.185
-559.500	-200.000	0.005	-0.189
-558.485	-120.264	-0.291	0.049
-557.471	-61.987	-0.170	0.070
-556.456	-98.949	-0.066	0.017
-555.442	-200.000	0.026	-0.293
-554.427	-133.954	-0.238	-0.029
-553.412	-23.227	-0.011	-0.007
-552.398	426.909	0.034	-0.073
-551.383	191.108	-0.240	0.358
-550.369	800.000	-0.131	-0.362
-549.354	48.211	0.060	0.056
-548.339	58.725	-0.147	0.143
-547.325	338.281	0.120	0.231
-546.310	-8.281	-0.190	-0.127
-545.296	321.579	0.086	0.162
-544.281	800.000	-0.135	-0.490
-543.266	-200.000	-0.013	0.258
-542.252	-53.519	-0.138	-0.062
-541.237	800.000	-0.105	-0.344
-540.223	168.337	0.045	-0.064
-539.208	51.036	0.140	0.131
-538.193	800.000	-0.057	-0.240
-537.179	17.741	-0.108	-0.085
-536.164	49.708	-0.169	0.158
-535.150	-160.953	-0.219	-0.011
-534.135	259.540	0.082	-0.141
-533.121	-12.037	0.372	0.241
-532.106	401.574	0.123	-0.256
-531.091	-78.449	-0.246	0.083
-530.077	387.357	-0.166	-0.339
-529.062	32.985	0.495	0.424
-528.048	800.000	0.064	0.214
-527.033	-114.919	0.168	0.032
-526.018	-53.027	-0.106	-0.048
-525.004	260.622	-0.037	0.063
-523.989	-150.667	-0.082	0.006
-522.975	-55.237	-0.181	-0.080
-521.960	82.108	0.117	0.126
-520.945	96.901	0.066	0.075
-519.931	-200.000	-0.042	0.242
-518.916	2.761	-0.157	-0.113
-517.902	17.966	0.049	-0.039
-516.887	-73.948	0.119	-0.043
-515.872	800.000	-0.128	-0.385
-514.858	317.285	0.069	-0.130
-513.843	-200.000	-0.056	0.443
-512.829	108.838	-0.146	-0.173
-511.814	-200.000	-0.012	-0.081
-510.799	-2.491	-0.126	-0.088
-509.785	462.127	-0.070	-0.155
-508.770	-100.543	-0.127	-0.031
-507.756	-200.000	0.004	0.291
-506.741	-164.525	0.317	0.014
-505.726	-200.000	0.005	0.046
-504.712	447.611	-0.022	-0.048
-503.697	31.152	-0.278	-0.235
-502.683	-84.659	-0.272	0.085
-501.668	141.249	-0.212	-0.277
-500.653	-22.292	0.244	0.146
-499.639	128.923	0.071	-0.089
-498.624	762.825	0.043	-0.116
-497.610	33.145	0.194	-0.166
-496.595	143.236	0.214	-0.281
-495.581	17.763	0.299	0.235
-494.566	-41.422	0.413	0.210
-493.551	-60.044	0.202	0.085
-492.537	54.564	0.187	0.179
-491.522	-94.449	-0.188	0.051
-490.508	-140.374	0.266	-0.027
-489.493	19.822	0.329	-0.262
-488.478	217.614	0.275	-0.434
-487.464	-49.619	0.303	-0.142
-486.449	-22.611	-0.360	-0.215
-485.435	-200.000	0.056	0.309
-484.420	800.000	0.037	-0.155
-483.405	205.928	-0.077	-0.119
-482.391	49.864	0.108	-0.101
-481.376	-59.969	-0.182	-0.077
-480.362	167.337	-0.063	0.088
-479.347	30.564	-0.310	-0.262
-478.332	150.451	0.151	-0.203
-477.318	286.486	-0.107	0.190
-476.303	-142.164	0.324	-0.032
-475.289	60.519	0.290	-0.283
-474.274	244.404	0.040	0.066
-473.259	-171.638	-0.303	-0.010
-472.245	58.544	-0.181	0.176
-471.230	-200.000	-0.052	-0.232
-470.216	-169.933	0.135	0.005
-469.201	-32.996	0.104	-0.057
-468.186	-20.304	0.174	0.106
-467.172	800.000	-0.060	0.250
-466.157	18.819	-0.044	-0.035
-465.143	-88.901	-0.272	0.080
-464.128	124.730	-0.112	-0.139
-463.113	-200.000	0.044	-0.247
-462.099	-90.264	0.167	0.048
-461.084	110.805	0.188	-0.223
-460.070	-200.000	0.028	-0.177
-459.055	-59.333	-0.248	-0.106
-458.040	-18.458	0.155	0.095
-457.026	800.000	-0.028	-0.118
-456.011	-200.000	0.016	0.366
-454.997	311.110	0.119	0.221
-453.982	-200.000	0.043	0.313
-452.968	-200.000	-0.047	-0.275
-451.953	-15.120	-0.118	-0.075
-450.938	64.893	0.105	0.105
-449.924	-200.000	-0.011	0.380
-448.909	800.000	0.070	0.213
-447.895	-132.441	0.139	0.018
-446.880	-126.990	0.246	0.036
-445.865	396.859	0.084	0.173
-444.851	-200.000	-0.035	0.248
-443.836	-147.661	-0.308	-0.026
-442.822	-200.000	0.046	0.202
-441.807	66.079	0.180	-0.180
-440.792	-89.871	-0.148	-0.043
-439.778	126.036	-0.138	0.172
-438.763	-200.000	0.050	0.295
-437.749	-30.870	-0.271	-0.151
-436.734	-72.723	0.440	-0.160
-435.719	-200.000	0.007	-0.036
-434.705	549.402	0.157	0.372
-433.690	1.405	-0.167	-0.118
-432.676	-200.000	0.037	0.175
-431.661	309.882	0.077	0.142
-430.646	90.997	-0.103	-0.114
-429.632	47.408	0.124	0.114
-428.617	28.070	-0.142	0.118
-427.603	-17.846	0.175	-0.109
-426.588	-166.524	-0.179	-0.007
-425.573	116.702	0.088	-0.106
-424.559	-200.000	-0.008	-0.127
-423.544	53.244	-0.124	0.117
-422.530	50.702	-0.188	0.175
-421.515	193.196	-0.254	-0.379
-420.500	-118.935	0.281	0.049
-419.486	-68.797	-0.280	0.107
-418.471	169.480	-0.217	-0.306
-417.457	-107.687	-0.148	0.032
-416.442	556.975	0.042	0.101
-415.428	215.044	-0.203	0.317
-414.413	116.099	0.196	-0.236
-413.398	-200.000	0.024	0.241
-412.384	4.611	0.198	-0.143
-411.369	243.969	0.211	0.349
-410.355	-200.000	0.033	0.351
-409.340	435.058	0.087	0.187
-408.325	88.599	0.235	0.257
-407.311	-36.781	0.255	0.135
-406.296	-125.769	-0.091	0.014
-405.282	-74.018	0.227	0.081
-404.267	318.683	-0.088	-0.164
-403.252	-200.000	0.004	0.144
-402.238	-40.251	-0.230	0.118
-401.223	-39.934	0.262	0.135
-400.209	-200.000	0.015	0.413
-399.194	-70.457	0.141	-0.053
-398.179	350.144	0.041	0.079
-397.165	-33.901	0.250	0.136
-396.150	-159.757	0.048	-0.003
-395.136	-200.000	0.029	0.184
-394.121	17.753	-0.078	-0.061
-393.106	-154.232	-0.219	0.015
-392.092	-200.000	-0.040	-0.346
-391.077	-163.754	0.254	0.012
-390.063	417.595	-0.077	0.162
-389.048	154.103	-0.049	0.066
-388.033	-133.052	-0.115	0.014
-387.019	94.454	-0.279	-0.312
-386.004	-121.153	-0.191	0.032
-384.990	344.630	0.018	-0.035
-383.975	46.440	-0.018	0.016
-382.960	-26.332	0.304	-0.175
-381.946	-56.331	-0.061	-0.027
-380.931	568.439	-0.084	0.202
-379.917	81.499	-0.159	-0.169
-378.902	57.828	-0.237	0.228
-377.888	-96.421	0.251	0.065
-376.873	36.172	0.050	0.043
-375.858	800.000	0.083	0.233
-374.844	-32.627	-0.138	0.076
-373.829	-48.564	0.172	0.081
-372.815	0.848	0.164	-0.116
-371.800	-0.942	0.157	0.109
-370.785	352.359	-0.094	0.183
-369.771	-185.321	0.055	-0.001
-368.756	142.667	-0.201	-0.263
-367.742	-200.000	0.014	-0.156
-366.727	-3.077	-0.139	-0.095
-365.712	429.250	-0.105	-0.224
-364.698	-200.000	0.067	-0.598
-363.683	-200.000	-0.000	0.167
-362.669	-200.000	0.031	-0.233
-361.654	-31.604	0.071	-0.039
-360.639	-112.343	0.183	0.036
-359.625	-12.126	-0.109	0.070
-358.610	12.385	-0.323	0.245
-357.596	-200.000	0.003	-0.070
-356.581	-181.233	-0.251	-0.005
-355.566	103.795	0.092	0.107
-354.552	-37.699	-0.088	0.046
-353.537	-99.448	0.406	0.101
-352.523	-200.000	-0.006	0.290
-351.508	663.906	0.083	-0.212
-350.493	800.000	-0.032	0.095
-349.479	-21.061	-0.247	-0.148
-348.464	-33.760	0.118	0.064
-347.450	23.023	0.070	0.057
-346.435	-2.247	-0.276	-0.191
-345.420	-200.000	-0.021	0.174
-344.406	372.163	0.008	0.016
-343.391	0.615	0.205	-0.144
-342.377	-66.875	-0.331	-0.129
-341.362	744.557	-0.191	0.506
-340.348	-118.131	-0.232	0.041
-339.333	-200.000	-0.004	-0.139
-338.318	-66.160	-0.171	0.067
-337.304	44.533	0.163	0.147
-336.289	122.329	-0.117	-0.144
-335.275	-200.000	-0.040	-0.313
-334.260	109.983	0.121	-0.142
-333.245	-82.597	0.186	-0.059
-332.231	-200.000	-0.026	-0.218
-331.216	24.004	-0.174	-0.141
-330.202	339.314	0.127	0.242
-329.187	-40.389	-0.229	-0.117
-328.172	-119.327	0.301	-0.052
-327.158	-66.326	0.080	0.031
-326.143	-136.213	0.201	0.023
-325.129	-200.000	-0.026	-0.247
-324.114	-200.000	-0.039	-0.342
-323.099	172.824	0.195	0.276
-322.085	800.000	0.039	-0.121
-321.070	-129.746	0.312	0.042
-320.056	-62.396	0.191	-0.078
-319.041	-159.618	-0.130	-0.007
-318.026	-98.336	0.345	0.087
-317.012	7.222	-0.262	-0.192
-315.997	-30.608	-0.227	0.126
-314.983	-41.311	0.137	0.069
-313.968	185.102	0.054	0.079
-312.953	34.518	-0.091	-0.078
-311.939	14.033	-0.133	0.102
-310.924	-200.000	0.029	-0.280
-309.910	-200.000	0.009	0.306
-308.895	89.077	0.210	0.230
-307.880	56.737	-0.207	0.198
-306.866	-27.947	0.304	0.173
-305.851	134.493	0.142	0.180
-304.837	-155.810	-0.259	0.016
-303.822	-200.000	0.003	-0.181
-302.807	-124.415	0.215	-0.033
-301.793	-84.539	0.148	-0.046
-300.778	-200.000	-0.042	0.278
-299.764	66.152	0.203	-0.202
-298.749	-38.240	0.365	0.190
-297.735	-37.175	-0.074	0.039
-296.720	-26.063	-0.289	0.167
-295.705	53.710	0.139	0.131
-294.691	800.000	-0.039	-0.135
-293.676	-200.000	-0.009	-0.069
-292.662	58.814	0.286	0.276
-291.647	55.261	-0.292	-0.277
-290.632	-51.981	-0.341	-0.155
-289.618	-155.245	0.314	0.020
-288.603	212.776	0.090	0.140
-287.589	7.192	-0.287	0.210
-286.574	-63.176	-0.124	0.050
-285.559	-87.100	-0.090	-0.027
-284.545	-26.678	0.212	-0.121
-283.530	110.411	-0.203	0.239
-282.516	45.305	0.202	-0.183
-281.501	149.204	0.129	0.171
-280.486	489.534	0.024	0.053
-279.472	59.982	-0.119	0.115
-278.457	-26.237	0.281	-0.162
-277.443	800.000	-0.028	0.082
-276.428	800.000	-0.045	0.137
-275.413	27.812	0.087	0.072
-274.399	-79.122	0.359	0.119
-273.384	-52.080	0.244	-0.111
-272.370	465.655	-0.026	-0.057
-271.355	133.398	-0.330	0.419
-270.340	-200.000	0.058	-0.473
-269.326	-200.000	-0.032	0.261
-268.311	-38.935	0.170	0.088
-267.297	-57.696	-0.439	-0.188
-266.282	-28.411	-0.228	0.129
-265.267	-195.018	-0.061	0.000
-264.253	-60.398	0.189	0.079
-263.238	-129.685	0.311	-0.042
-262.224	0.105	0.190	0.133
-261.209	800.000	-0.046	-0.135
-260.195	800.000	0.059	-0.239
-259.180	-200.000	0.013	0.136
-258.165	226.286	0.057	0.091
-257.151	64.944	-0.084	0.083
-256.136	-54.100	0.291	-0.130
-255.122	69.440	-0.269	0.271
-254.107	-29.219	-0.317	-0.178
-253.092	168.391	0.100	0.139
-252.078	-157.614	-0.247	0.014
-251.063	-74.213	0.148	-0.052
-250.049	-39.742	-0.120	-0.061
-249.034	-200.000	0.045	-0.256
-248.019	121.090	-0.117	0.142
-247.005	-200.000	0.032	-0.185
-245.990	-84.293	-0.049	-0.015
-244.976	-200.000	-0.096	-0.417
-243.961	-53.018	-0.085	-0.038
-242.946	110.939	0.133	-0.157
-241.932	-60.665	0.165	-0.069
-240.917	-92.021	-0.103	0.029
-239.903	-65.046	-0.346	0.137
-238.888	60.041	-0.178	0.172
-237.873	58.944	-0.105	0.101
-236.859	-163.520	0.054	-0.003
-235.844	121.983	0.236	0.289
-234.830	634.793	0.030	0.074
-233.815	-128.749	0.383	0.053
-232.800	-69.241	-0.261	0.098
-231.786	240.071	0.275	-0.449
-230.771	-170.483	0.348	0.012
-229.757	30.090	0.026	0.021
-228.742	-100.051	-0.157	0.038
-227.727	-125.039	-0.252	0.038
-226.713	-29.165	-0.247	-0.139
-225.698	163.538	-0.118	-0.162
-224.684	101.250	0.223	-0.254
-223.669	151.627	-0.165	0.219
-222.655	78.313	-0.066	-0.068
-221.640	-43.155	-0.165	0.082
-220.625	800.000	0.029	0.099
-219.611	-7.607	-0.181	0.120
-218.596	-35.023	-0.214	0.114
-217.582	95.984	0.066	0.074
-216.567	-37.851	0.104	-0.054
-215.552	-74.800	0.161	-0.057
-214.538	-5.823	0.265	0.178
-213.523	-200.000	-0.010	0.138
-212.509	40.386	-0.247	-0.217
-211.494	82.063	0.024	-0.025
-210.479	-96.011	0.116	0.030
-209.465	90.063	0.065	0.071
-208.450	800.000	-0.075	-0.208
-207.436	-17.808	0.174	-0.107
-206.421	-17.810	-0.028	-0.017
-205.406	104.764	-0.144	0.166
-204.392	733.013	-0.070	0.183
-203.377	800.000	0.095	0.337
-202.363	-36.015	-0.194	0.102
-201.348	-63.521	-0.248	-0.100
-200.333	49.836	0.037	0.034
-199.319	408.690	-0.069	-0.143
-198.304	287.910	0.047	0.083
-197.290	-157.172	-0.347	-0.021
-196.275	-200.000	-0.035	0.158
-195.260	230.214	-0.223	0.356
-194.246	-200.000	-0.006	-0.045
-193.231	30.285	-0.376	0.314
-192.217	141.405	0.042	-0.054
-191.202	82.375	0.214	0.227
-190.187	368.839	0.089	-0.175
-189.173	36.825	-0.198	-0.171
-188.158	-121.047	0.494	0.081
-187.144	181.379	-0.061	0.087
-186.129	-200.000	0.009	-0.164
-185.114	-200.000	0.019	0.318
-184.100	-117.827	-0.291	0.051
-183.085	-59.862	0.311	-0.130
-182.071	7.088	-0.119	0.087
-181.056	618.183	0.064	-0.156
-180.042	-70.981	0.225	0.083
-179.027	50.037	-0.343	0.316
-178.012	-110.624	0.165	-0.033
-176.998	-11.911	0.372	-0.238
-175.983	-200.000	0.024	-0.219
-174.969	295.777	0.064	0.114
-173.954	-79.770	-0.187	-0.061
-172.939	164.594	0.118	-0.163
-171.925	-135.573	0.160	0.019
-170.910	152.017	0.164	0.219
-169.896	-200.000	0.038	-0.229
-168.881	19.804	-0.275	0.216
-167.866	-118.259	0.102	0.018
-166.852	-22.738	-0.138	-0.081
-165.837	-53.136	0.061	0.027
-164.823	-73.441	-0.196	0.070
-163.808	81.142	0.045	-0.047
-162.793	405.483	0.075	0.155
-161.779	373.773	-0.100	-0.198
-160.764	-200.000	-0.002	0.069
-159.750	-118.247	-0.475	-0.082
-158.735	-85.392	0.158	-0.048
-157.720	130.709	-0.122	0.152
-156.706	-19.561	0.263	-0.159
-155.691	399.294	0.040	-0.081
-154.677	-200.000	-0.010	-0.084
-153.662	10.269	0.166	-0.123
-152.647	800.000	0.045	0.142
-151.633	-6.207	-0.306	-0.204
-150.618	-200.000	-0.053	-0.251
-149.604	45.069	0.109	-0.098
-148.589	318.446	0.058	-0.107
-147.574	-200.000	0.001	-0.144
-146.560	64.728	0.242	-0.238
-145.545	261.263	-0.124	-0.209
-144.531	35.443	-0.129	-0.110
-143.516	-106.978	0.316	0.068
-142.502	19.036	0.082	-0.064
-141.487	173.685	-0.083	0.117
-140.472	134.101	0.020	-0.025
-139.458	250.276	-0.202	0.335
-138.443	800.000	0.089	0.274
-137.429	131.101	0.080	-0.100
-136.414	-8.550	0.101	-0.066
-135.399	-200.000	0.043	0.244
-134.385	56.247	0.197	0.187
-133.370	287.975	0.099	0.175
-132.356	153.838	-0.038	-0.051
-131.341	5.458	0.156	0.112
-130.326	226.822	-0.082	0.129
-129.312	48.248	0.163	-0.148
-128.297	114.890	0.045	-0.054
-127.283	3.553	0.060	-0.043
-126.268	50.197	0.124	-0.114
-125.253	-103.762	-0.200	0.046
-124.239	800.000	-0.113	0.329
-123.224	800.000	-0.078	-0.265
-122.210	800.000	-0.027	0.106
-121.195	170.111	-0.136	-0.190
-120.180	-200.000	0.020	-0.203
-119.166	-200.000	0.020	-0.190
-118.151	-62.889	-0.229	-0.092
-117.137	4.068	0.184	-0.131
-116.122	324.660	0.105	0.196
-115.107	318.596	-0.152	-0.281
-114.093	-200.000	0.020	-0.211
-113.078	-70.751	-0.087	-0.032
-112.064	-200.000	0.000	-0.033
-111.049	127.306	0.317	0.392
-110.034	239.865	-0.054	0.087
-109.020	-200.000	-0.002	-0.216
-108.005	-28.993	-0.182	0.102
-106.991	632.078	0.042	-0.104
-105.976	29.822	0.109	0.091
-104.962	-71.068	0.405	-0.148
-103.947	21.348	0.177	0.140
-102.932	116.788	-0.073	0.087
-101.918	-25.254	-0.124	0.071
-100.903	-107.537	0.355	-0.076
-99.889	800.000	0.095	-0.359
-98.874	370.411	0.181	-0.357
-97.859	-86.049	0.225	0.068
-96.845	-159.241	0.117	0.006
-95.830	-0.247	0.227	-0.157
-94.816	-44.963	0.263	0.128
-93.801	-106.062	-0.355	-0.078
-92.786	360.053	-0.095	0.185
-91.772	166.074	-0.049	0.067
-90.757	-200.000	-0.062	0.318
-89.743	99.527	-0.002	-0.002
-88.728	-74.157	0.243	0.086
-87.713	-200.000	0.079	-0.551
-86.699	-136.986	0.237	-0.026
-85.684	-200.000	0.040	0.219
-84.670	-61.382	0.123	-0.050
-83.655	800.000	0.105	-0.354
-82.640	-200.000	-0.032	-0.185
-81.626	-88.156	0.241	-0.070
-80.611	81.638	0.049	-0.052
-79.597	-200.000	-0.006	-0.080
-78.582	264.354	0.054	-0.091
-77.567	-200.000	0.012	0.061
-76.553	800.000	0.064	0.173
-75.538	800.000	0.050	0.206
-74.524	19.654	0.050	0.039
-73.509	-60.845	0.164	-0.068
-72.494	-64.580	0.242	-0.096
-71.480	442.536	0.097	0.206
-70.465	800.000	-0.051	0.161
-69.451	-90.205	0.260	0.074
-68.436	-111.481	-0.150	-0.030
-67.422	261.368	0.055	-0.092
-66.407	3.066	-0.171	0.121
-65.392	80.739	0.107	-0.112
-64.378	800.000	0.075	0.227
-63.363	44.422	0.258	0.231
-62.349	568.034	-0.082	0.194
-61.334	12.230	-1.241	-0.929
-60.319	213.203	0.630	0.968
-59.305	800.000	-0.434	-1.675
-58.290	276.737	0.716	1.236
-57.276	509.246	0.784	1.770
-56.261	-200.000	135.599	630.426
-55.246	348.875	1632.438	3129.982
-54.232	137.513	2781.235	3536.790
-53.217	76.190	2300.559	2366.298
-52.203	27.312	1906.699	1556.490
-51.188	21.759	1703.782	1348.205
-50.173	20.168	1667.035	1307.090
-49.159	41.148	1741.103	1528.308
-48.144	37.273	1750.217	1506.268
-47.130	21.279	1702.134	1343.001
-46.115	19.128	1686.989	1314.587
-45.100	18.955	1680.995	1308.550
-44.086	18.920	1678.326	1306.153
-43.071	18.877	1675.489	1303.571
-42.057	18.866	1673.603	1301.968
-41.042	18.935	1671.513	1300.813
-40.027	18.823	1670.292	1298.962
-39.013	18.914	1668.127	1297.915
-37.998	18.856	1666.509	1296.163
-36.984	18.904	1665.536	1295.721
-35.969	18.972	1663.601	1294.677
-34.954	18.987	1662.024	1293.508
-33.940	19.027	1660.405	1292.498
-32.925	18.942	1658.923	1290.654
-31.911	18.979	1657.146	1289.497
-30.896	18.989	1655.355	1288.129
-29.881	18.986	1654.257	1287.201
-28.867	19.038	1652.335	1286.041
-27.852	19.020	1650.822	1284.681
-26.838	18.924	1650.020	1283.286
-25.823	19.008	1648.739	1282.865
-24.809	18.996	1647.503	1281.766
-23.794	18.958	1645.947	1280.221
-22.779	19.110	1643.858	1279.679
-21.765	18.882	1642.827	1277.128
-20.750	19.045	1640.859	1276.758
-19.736	18.987	1640.292	1275.832
-18.721	19.039	1638.783	1274.994
-17.706	19.016	1636.792	1273.229
-16.692	18.953	1635.349	1271.586
-15.677	19.146	1633.968	1271.886
-14.663	19.114	1632.279	1270.285
-13.648	19.035	1630.932	1268.607
-12.633	19.019	1629.441	1267.281
-11.619	19.029	1627.782	1266.010
-10.604	19.043	1626.363	1264.959
-9.590	18.997	1625.561	1263.946
-8.575	19.074	1624.035	1263.274
-7.560	19.087	1622.949	1262.478
-6.546	19.033	1622.320	1261.545
-5.531	19.128	1620.391	1260.690
-4.517	19.036	1619.784	1259.492
-3.502	19.221	1618.300	1259.644
-2.487	19.085	1617.251	1257.780
-1.473	18.650	1604.951	1245.009
-0.458	15.673	1585.772	1208.711
0.556	11.207	1587.797	1178.268
1.571	9.084	1612.595	1180.955
2.586	8.984	1624.413	1188.770
3.600	8.472	1569.703	1144.962
4.615	4.987	1465.276	1045.359
5.629	1.318	1410.694	982.617
6.644	0.596	1404.490	973.554
7.659	0.614	1403.428	972.844
8.673	0.608	1402.644	972.176
9.688	0.423	1400.205	969.212
10.702	0.293	1396.225	965.540
11.717	2.253	1398.384	979.517
12.731	7.786	1406.316	1020.566
13.746	14.026	1416.336	1067.957
14.761	16.863	1420.575	1089.319
15.775	16.666	1418.192	1086.128
16.790	15.548	1416.159	1077.310
17.804	14.885	1413.686	1071.089
18.819	14.463	1412.349	1067.280
19.834	14.231	1411.211	1064.839
20.848	14.009	1410.095	1062.483
21.863	13.794	1408.834	1060.064
22.877	13.665	1407.116	1057.855
23.892	13.527	1406.215	1056.208
24.907	13.536	1405.426	1055.576
25.921	13.589	1404.213	1054.909
26.936	13.665	1403.397	1054.687
27.950	13.610	1402.841	1053.827
28.965	13.707	1401.819	1053.585
29.980	13.712	1400.573	1052.586
30.994	13.764	1399.746	1052.202
32.009	13.864	1398.239	1051.607
33.023	13.753	1397.880	1050.540
34.038	13.797	1396.368	1049.589
35.053	13.747	1395.208	1048.313
36.067	13.706	1394.581	1047.486
37.082	13.713	1393.696	1046.776
38.096	13.831	1392.091	1046.219
39.111	13.757	1391.357	1045.107
40.126	13.690	1390.623	1044.042
41.140	13.694	1389.509	1043.142
42.155	13.635	1389.226	1042.464
43.169	13.651	1389.528	1042.701
44.184	13.606	1388.595	1041.626
45.199	13.556	1388.563	1041.195
46.213	13.672	1387.741	1041.213
47.228	13.662	1386.367	1040.027
48.242	13.664	1385.609	1039.380
49.257	13.666	1383.623	1037.809
50.271	13.660	1382.358	1036.734
51.286	13.691	1381.493	1036.185
52.301	13.758	1379.973	1035.369
53.315	13.633	1378.909	1033.702
54.330	13.563	1378.201	1032.643
55.344	13.634	1376.813	1031.954
56.359	13.550	1376.233	1030.909
57.374	13.496	1375.005	1029.557
58.388	13.416	1374.500	1028.589
59.403	13.531	1373.492	1028.461
60.417	13.355	1372.953	1026.877
61.432	13.434	1371.801	1026.411
62.447	13.524	1370.467	1025.879
63.461	13.444	1369.960	1024.915
64.476	13.428	1368.545	1023.665
65.490	13.437	1367.327	1022.723
66.505	13.509	1365.639	1021.813
67.520	13.528	1364.245	1020.792
68.534	13.462	1363.496	1019.740
69.549	13.501	1362.489	1019.134
70.563	13.650	1360.959	1018.817
71.578	13.575	1359.963	1017.521
72.593	13.467	1358.920	1015.988
73.607	13.422	1358.242	1015.116
74.622	13.465	1357.493	1014.725
75.636	13.490	1356.500	1014.050
76.651	13.492	1355.563	1013.271
77.666	13.334	1355.489	1012.157
78.680	13.489	1354.467	1012.253
79.695	13.320	1354.135	1010.881
80.709	13.518	1352.885	1011.068
81.724	13.515	1352.128	1010.399
82.739	13.621	1350.942	1010.066
83.753	13.630	1350.345	1009.583
84.768	13.653	1349.169	1008.757
85.782	13.659	1347.709	1007.612
86.797	13.636	1346.530	1006.500
87.812	13.580	1344.899	1004.857
88.826	13.585	1343.583	1003.810
89.841	13.601	1342.428	1002.956
90.855	13.653	1341.594	1002.561
91.870	13.737	1340.947	1002.493
92.884	13.684	1340.330	1001.623
93.899	13.701	1339.673	1001.150
94.914	13.718	1338.928	1000.607
95.928	13.735	1337.439	999.510
96.943	13.609	1337.163	998.451
97.957	13.712	1335.965	998.090
98.972	13.743	1334.567	997.146
99.987	13.649	1334.017	996.082
101.001	13.785	1332.372	995.581
102.016	13.704	1331.413	994.289
103.030	13.705	1330.772	993.730
104.045	13.738	1329.727	993.058
105.060	13.681	1328.328	991.585
106.074	13.675	1326.614	990.181
107.089	13.601	1325.998	989.194
108.103	13.622	1324.282	987.951
109.118	13.691	1322.758	987.137
110.133	13.619	1321.993	986.048
111.147	13.585	1320.486	984.634
112.162	13.649	1319.173	983.953
113.176	13.621	1318.025	982.843
114.191	13.738	1317.152	982.795
115.206	13.631	1315.903	981.142
116.220	13.668	1314.878	980.511
117.235	13.570	1313.733	978.995
118.249	13.705	1312.482	978.771
119.264	13.556	1311.671	977.203
120.279	13.599	1310.221	976.285
121.293	13.610	1309.112	975.440
122.308	13.664	1307.953	974.809
123.322	13.606	1306.869	973.575
124.337	13.611	1306.056	972.912
125.352	13.659	1304.609	972.025
126.366	13.631	1303.271	970.777
127.381	13.480	1302.595	969.305
128.395	13.616	1301.126	968.920
129.410	13.590	1300.049	967.882
130.424	13.528	1299.498	967.025
131.439	13.661	1298.487	966.961
132.454	13.683	1297.202	966.047
133.468	13.789	1296.231	965.857
134.483	13.727	1295.502	964.869
135.497	13.690	1294.397	963.745
136.512	13.717	1293.115	962.862
137.527	13.555	1292.262	961.200
138.541	13.633	1290.389	960.177
139.556	13.620	1289.094	959.051
140.570	13.717	1288.118	958.802
141.585	13.703	1286.824	957.674
142.600	13.739	1285.939	957.138
143.614	13.721	1284.573	955.929
144.629	13.838	1283.802	955.948
145.643	13.900	1282.033	954.903
146.658	13.770	1280.933	953.250
147.673	13.765	1280.015	952.457
148.687	13.862	1279.081	952.231
149.702	13.733	1277.559	950.274
150.716	13.743	1276.182	949.227
151.731	13.842	1274.802	948.681
152.746	13.658	1274.133	947.047
153.760	13.799	1272.537	946.584
154.775	13.948	1270.899	946.127
155.789	13.869	1270.573	945.354
156.804	13.887	1269.302	944.422
157.819	13.904	1268.071	943.523
158.833	13.900	1267.557	943.031
159.848	13.973	1266.366	942.480
160.862	14.031	1265.167	941.829
161.877	13.873	1264.353	940.245
162.892	13.927	1263.118	939.552
163.906	13.958	1262.034	938.837
164.921	13.950	1261.262	938.135
165.935	13.898	1260.397	937.117
166.950	13.977	1259.523	936.828
167.964	13.890	1259.307	936.091
168.979	13.926	1258.250	935.425
169.994	13.967	1257.612	935.098
171.008	14.089	1256.762	935.074
172.023	14.018	1256.122	934.113
173.037	14.088	1254.535	933.247
174.052	14.110	1253.502	932.517
175.067	14.109	1251.876	931.217
176.081	14.012	1251.638	930.417
177.096	14.113	1250.695	930.197
178.110	14.181	1249.674	929.736
179.125	14.094	1248.184	928.058
180.140	14.130	1247.197	927.446
181.154	14.094	1245.913	926.210
182.169	14.207	1244.667	925.829
183.183	14.160	1243.401	924.541
184.198	14.262	1241.822	923.854
185.213	14.244	1241.004	923.066
186.227	14.147	1240.541	922.102
187.242	14.229	1238.931	921.277
188.256	14.192	1238.254	920.488
189.271	14.130	1237.575	919.559
190.286	14.238	1236.025	918.920
191.300	14.167	1234.889	917.601
192.315	14.126	1234.832	917.251
193.329	14.071	1234.362	916.522
194.344	14.176	1232.873	915.912
195.359	14.226	1232.790	916.042
196.373	14.258	1232.126	915.647
197.388	14.475	1231.475	916.272
198.402	14.499	1230.725	915.766
199.417	14.340	1230.583	914.707
200.432	14.418	1229.489	914.240
201.446	14.468	1228.279	913.531
202.461	14.514	1227.559	913.167
203.475	14.452	1226.607	912.042
204.490	14.484	1225.266	911.140
205.504	14.483	1224.158	910.226
206.519	14.441	1222.981	909.042
207.534	14.459	1221.577	908.015
208.548	14.562	1220.703	907.847
209.563	14.401	1220.285	906.581
210.577	14.429	1219.063	905.747
211.592	14.564	1217.874	905.514
212.607	14.621	1217.029	905.117
213.621	14.559	1216.553	904.347
214.636	14.564	1215.766	903.707
215.650	14.761	1214.564	903.798
216.665	14.633	1213.494	902.229
217.680	14.707	1212.416	901.747
218.694	14.762	1211.563	901.333
219.709	14.675	1210.785	900.203
220.723	14.774	1209.980	900.060
221.738	14.673	1209.312	898.937
222.753	14.713	1208.625	898.563
223.767	14.793	1207.769	898.280
224.782	14.817	1207.290	897.970
225.796	14.860	1206.631	897.630
226.811	14.848	1205.808	896.876
227.826	14.826	1205.296	896.298
228.840	14.852	1204.702	895.917
229.855	14.842	1204.276	895.466
230.869	14.788	1203.306	894.378
231.884	14.849	1202.289	893.870
232.899	14.757	1201.774	892.913
233.913	14.838	1201.092	892.763
234.928	14.766	1200.298	891.711
235.942	14.667	1199.541	890.537
236.957	14.809	1198.381	890.358
237.972	14.876	1197.614	890.061
238.986	14.856	1197.160	889.539
240.001	14.851	1196.630	889.040
241.015	14.955	1195.433	888.628
242.030	14.984	1194.549	888.043
243.045	14.891	1193.776	886.896
244.059	15.009	1192.791	886.715
245.074	14.995	1192.211	886.131
246.088	15.091	1191.343	885.914
247.103	15.038	1190.835	885.179
248.117	15.092	1190.139	884.868
249.132	15.100	1189.191	884.125
250.147	15.160	1188.398	883.776
251.161	15.067	1187.915	882.845
252.176	15.233	1186.715	882.752
253.190	15.231	1186.082	882.192
254.205	15.319	1185.611	882.228
255.220	15.320	1184.991	881.695
256.234	15.276	1184.637	881.122
257.249	15.235	1184.021	880.369
258.263	15.381	1182.833	880.176
259.278	15.391	1182.507	879.908
260.293	15.331	1181.945	879.097
261.307	15.426	1181.281	879.019
262.322	15.380	1180.788	878.333
263.336	15.370	1179.658	877.367
264.351	15.417	1179.284	877.255
265.366	15.345	1178.705	876.368
266.380	15.452	1177.705	876.106
267.395	15.486	1176.627	875.407
268.409	15.511	1176.132	875.092
269.424	15.493	1175.935	874.771
270.439	15.471	1175.042	873.914
271.453	15.462	1174.139	873.123
272.468	15.594	1172.946	872.841
273.482	15.496	1172.654	872.037
274.497	15.481	1172.235	871.572
275.512	15.468	1171.278	870.716
276.526	15.542	1170.672	870.571
277.541	15.559	1169.716	869.871
278.555	15.569	1169.371	869.592
279.570	15.528	1168.457	868.623
280.585	15.642	1167.514	868.434
281.599	15.619	1166.592	867.551
282.614	15.639	1165.512	866.776
283.628	15.744	1164.045	866.146
284.643	15.603	1163.699	865.085
285.657	15.788	1162.277	864.903
286.672	15.692	1161.807	863.985
287.687	15.834	1160.615	863.750
288.701	15.758	1159.924	862.772
289.716	15.783	1159.144	862.241
290.730	15.751	1158.738	861.700
291.745	15.790	1157.996	861.270
292.760	15.765	1156.829	860.202
293.774	15.851	1156.256	860.136
294.789	15.858	1155.970	859.884
295.803	15.876	1155.311	859.409
296.818	15.861	1154.577	858.713
297.833	15.908	1153.473	858.055
298.847	15.951	1153.082	857.906
299.862	15.963	1151.737	856.892
300.876	15.956	1151.383	856.516
301.891	15.996	1150.827	856.228
302.906	16.012	1150.177	855.753
303.920	16.052	1149.640	855.478
304.935	16.097	1148.586	854.845
305.949	16.173	1147.740	854.528
306.964	16.104	1147.309	853.781
307.979	16.198	1146.457	853.550
308.993	16.104	1146.016	852.665
310.008	16.167	1144.793	852.002
311.022	16.195	1143.922	851.416
312.037	16.206	1143.196	850.856
313.052	16.145	1142.314	849.819
314.066	16.090	1141.677	848.993
315.081	16.151	1140.364	848.249
316.095	16.104	1140.165	847.790
317.110	16.215	1139.069	847.458
318.125	16.169	1138.652	846.841
319.139	16.097	1138.179	846.053
320.154	16.142	1137.158	845.444
321.168	16.156	1136.398	844.873
322.183	16.074	1136.278	844.300
323.197	16.188	1135.035	843.870
324.212	16.306	1134.368	843.890
325.227	16.249	1133.704	843.036
326.241	16.215	1133.113	842.356
327.256	16.266	1132.250	841.894
328.270	16.257	1131.171	840.971
329.285	16.296	1130.607	840.671
330.300	16.301	1129.359	839.693
331.314	16.307	1128.634	839.109
332.329	16.246	1127.951	838.224
333.343	16.312	1126.954	837.735
334.358	16.418	1125.967	837.457
335.373	16.315	1125.322	836.393
336.387	16.473	1124.485	836.476
337.402	16.391	1123.659	835.381
338.416	16.515	1123.123	835.521
339.431	16.506	1122.516	834.955
340.446	16.548	1121.671	834.457
341.460	16.571	1121.135	834.101
342.475	16.630	1120.213	833.627
343.489	16.565	1119.523	832.723
344.504	16.688	1117.961	832.093
345.519	16.679	1117.271	831.460
346.533	16.718	1116.988	831.367
347.548	16.746	1115.722	830.490
348.562	16.695	1115.183	829.765
349.577	16.755	1114.333	829.353
350.592	16.617	1113.956	828.325
351.606	16.692	1113.169	828.031
352.621	16.694	1112.323	827.340
353.635	16.721	1111.688	826.925
354.650	16.731	1110.712	826.177
355.665	16.727	1110.060	825.595
356.679	16.842	1109.447	825.628
357.694	16.721	1109.209	824.789
358.708	16.876	1108.445	824.903
359.723	16.823	1107.591	823.936
360.738	16.845	1107.084	823.591
361.752	16.840	1106.607	823.138
362.767	16.908	1105.906	822.874
363.781	16.958	1105.244	822.556
364.796	16.965	1104.489	821.953
365.810	16.931	1104.085	821.413
366.825	16.939	1103.183	820.707
367.840	17.118	1102.823	821.235
368.854	16.989	1102.264	820.123
369.869	17.129	1101.271	819.989
370.883	17.208	1100.354	819.613
371.898	17.033	1099.642	818.168
372.913	17.152	1099.306	818.416
373.927	17.210	1098.492	818.017
374.942	16.959	1098.488	816.734
375.956	17.137	1097.473	816.765
376.971	17.231	1096.822	816.661
377.986	17.189	1096.224	815.941
379.000	17.145	1095.965	815.465
380.015	17.095	1095.642	814.909
381.029	17.138	1095.134	814.668
382.044	17.297	1093.778	814.346
383.059	17.249	1093.149	813.579
384.073	17.268	1092.462	813.084
385.088	17.226	1091.674	812.225
386.102	17.386	1090.166	811.794
387.117	17.292	1089.339	810.660
388.132	17.337	1088.423	810.119
389.146	17.352	1087.485	809.423
390.161	17.192	1087.218	808.393
391.175	17.149	1086.783	807.790
392.190	17.249	1086.230	807.782
393.205	17.298	1084.988	807.023
394.219	17.400	1084.466	807.046
395.234	17.235	1083.441	805.429
396.248	17.476	1082.264	805.627
397.263	17.351	1081.174	804.153
398.278	17.465	1080.356	804.011
399.292	17.441	1079.955	803.527
400.307	17.406	1079.265	802.775
401.321	17.381	1078.642	802.123
402.336	17.563	1077.767	802.262
403.350	17.461	1076.972	801.115
404.365	17.513	1076.462	800.912
405.380	17.411	1075.853	799.907
406.394	17.415	1075.243	799.402
407.409	17.543	1074.564	799.429
408.423	17.543	1073.526	798.583
409.438	17.711	1072.506	798.541
410.453	17.685	1072.579	798.405
411.467	17.623	1071.483	797.229
412.482	17.719	1070.516	796.888
413.496	17.687	1069.746	796.094
414.511	17.848	1068.971	796.200
415.526	17.742	1069.076	795.711
416.540	17.867	1068.319	795.661
417.555	17.858	1067.385	794.852
418.569	17.865	1067.227	794.695
419.584	17.867	1066.868	794.368
420.599	17.785	1066.131	793.368
421.613	109.659	1332.936	1493.519
422.628	101.407	1371.737	1493.589
