DTS Sentinel unit serial number:	SN413079Multiplexer serial number:	ORYXHardware model number:	OX4-SRSoftware version number:	ORYX F/W v4.00 Oryx Data Collector v3.7.2.0data status	okinstallation	princeton_trtdifferential loss correction	single-endedforward channel	channel 2reverse channel	N/Adate	2019/09/16time	14:51:35forward acquisition time	60.00reverse acquisition time	0.00gamma	496.2192k internal	0.2299k external	0.2299temperature offset calibration	0.9939default loss term (dB/km)	0.3790temperature slope calibration	1.0000multiplexer offset coefficient	1.0000multiplexer slope coefficient	1.0000fibre end	0.00T internal ref (°C)	41.37T ext. ref 1 (°C)	14.39T ext. ref 2 (°C)	35.81length (m)	temperature (°C)	Stokes	anti-Stokes-747.200	147.542	0.051	-0.070
-746.185	-8.827	-0.246	0.169
-745.171	-200.000	0.015	0.224
-744.156	243.445	-0.028	0.048
-743.142	800.000	-0.046	0.165
-742.127	788.248	-0.149	0.419
-741.112	800.000	-0.075	0.256
-740.098	-200.000	-0.001	0.296
-739.083	35.422	0.125	-0.112
-738.069	-57.525	-0.315	-0.141
-737.054	-97.529	-0.350	0.093
-736.039	366.860	0.108	0.222
-735.025	-200.000	-0.000	0.035
-734.010	-13.468	-0.258	-0.171
-732.996	390.979	-0.145	-0.306
-731.981	419.485	-0.115	-0.251
-730.966	-44.638	0.102	-0.052
-729.952	669.565	0.110	-0.290
-728.937	0.595	-0.149	-0.109
-727.923	-34.280	-0.143	0.080
-726.908	-79.893	0.142	0.049
-725.894	696.905	0.154	-0.412
-724.879	-128.703	-0.300	-0.043
-723.864	146.468	-0.160	0.219
-722.850	206.430	0.164	-0.260
-721.835	-111.608	0.176	-0.036
-720.821	-121.117	-0.075	-0.013
-719.806	-156.486	-0.230	-0.015
-718.791	-134.450	-0.156	-0.019
-717.777	-63.915	0.214	-0.089
-716.762	-92.114	0.235	-0.068
-715.748	-55.950	0.040	0.018
-714.733	-139.078	-0.360	-0.040
-713.718	112.851	-0.199	-0.245
-712.704	162.075	0.089	-0.128
-711.689	232.095	0.102	-0.171
-710.675	-40.186	0.365	-0.194
-709.660	-52.320	0.152	-0.072
-708.645	-200.000	0.011	-0.115
-707.631	-23.692	0.190	0.116
-706.616	-80.121	0.260	-0.089
-705.602	514.598	0.053	-0.125
-704.587	-37.261	-0.094	-0.051
-703.572	800.000	0.121	-0.383
-702.558	11.512	-0.201	-0.157
-701.543	-172.298	0.248	0.008
-700.529	-200.000	0.066	0.349
-699.514	452.916	-0.115	0.259
-698.499	-169.119	0.133	0.005
-697.485	61.356	-0.090	0.091
-696.470	244.661	-0.136	-0.233
-695.456	46.325	-0.209	0.197
-694.441	-92.447	0.091	-0.026
-693.426	-29.542	-0.056	-0.033
-692.412	171.640	-0.096	0.141
-691.397	-200.000	-0.014	-0.126
-690.383	-200.000	0.002	-0.130
-689.368	640.965	-0.066	0.172
-688.354	79.899	-0.269	0.294
-687.339	181.022	0.124	0.186
-686.324	-200.000	-0.002	-0.512
-685.310	-143.302	0.073	0.007
-684.295	43.791	0.282	0.263
-683.281	159.235	-0.083	0.118
-682.266	77.264	0.220	-0.238
-681.251	-200.000	-0.036	-0.412
-680.237	-37.557	0.255	-0.138
-679.222	-200.000	0.012	-0.086
-678.208	34.671	-0.086	0.077
-677.193	-22.912	-0.195	-0.120
-676.178	-88.861	0.123	-0.037
-675.164	205.839	0.195	-0.308
-674.149	-96.059	0.311	0.084
-673.135	-15.958	-0.369	0.239
-672.120	304.714	-0.107	0.201
-671.105	-14.464	-0.393	0.257
-670.091	132.394	0.127	-0.166
-669.076	444.597	0.058	0.130
-668.062	-200.000	0.048	0.224
-667.047	-200.000	-0.008	-0.220
-666.032	286.560	-0.043	-0.079
-665.018	27.144	-0.158	0.135
-664.003	155.415	0.143	0.200
-662.989	-65.930	-0.241	0.098
-661.974	131.994	-0.197	-0.258
-660.959	-117.647	0.175	0.032
-659.945	80.063	0.049	0.054
-658.930	38.769	0.143	-0.130
-657.916	-200.000	-0.009	0.091
-656.901	-113.779	-0.040	-0.008
-655.886	220.524	0.112	0.183
-654.872	-64.381	0.442	0.183
-653.857	-160.347	-0.279	-0.015
-652.843	-200.000	-0.006	-0.155
-651.828	-148.538	-0.275	-0.023
-650.814	65.530	-0.090	-0.093
-649.799	-200.000	-0.018	-0.202
-648.784	533.901	0.142	0.341
-647.770	-15.435	-0.210	-0.136
-646.755	63.368	0.106	0.108
-645.741	-59.174	-0.131	0.057
-644.726	297.474	0.049	0.092
-643.711	-0.201	0.145	-0.105
-642.697	800.000	0.070	0.309
-641.682	-94.964	0.630	0.173
-640.668	-74.121	0.510	-0.188
-639.653	26.014	0.189	-0.160
-638.638	-151.143	0.268	-0.020
-637.624	-107.765	-0.131	-0.029
-636.609	-200.000	0.041	-0.249
-635.595	-145.879	0.492	0.044
-634.580	-99.201	0.120	0.031
-633.565	319.368	-0.192	0.370
-632.551	135.850	-0.138	0.183
-631.536	-3.333	-0.187	0.133
-630.522	-200.000	0.010	0.134
-629.507	-12.717	-0.222	-0.147
-628.492	-200.000	0.029	-0.208
-627.478	-66.682	-0.471	-0.190
-626.463	-8.126	-0.060	0.041
-625.449	67.904	0.149	-0.155
-624.434	-114.875	-0.180	0.035
-623.419	209.336	0.148	-0.236
-622.405	-163.352	0.176	0.009
-621.390	-200.000	0.028	0.253
-620.376	-25.177	-0.216	-0.130
-619.361	800.000	-0.089	-0.334
-618.346	-84.419	-0.236	-0.076
-617.332	-96.267	-0.305	-0.082
-616.317	216.371	-0.119	0.193
-615.303	-146.757	0.186	0.016
-614.288	227.002	0.060	-0.099
-613.273	125.562	-0.076	0.098
-612.259	-200.000	0.001	-0.110
-611.244	-200.000	-0.004	0.260
-610.230	585.344	0.108	-0.270
-609.215	-139.107	0.166	0.018
-608.201	14.452	-0.188	0.149
-607.186	-0.433	-0.301	-0.217
-606.171	-83.996	-0.208	0.067
-605.157	90.047	0.034	-0.039
-604.142	-25.075	-0.304	-0.183
-603.128	-114.399	-0.044	0.009
-602.113	127.184	-0.078	-0.100
-601.098	26.826	0.318	-0.271
-600.084	-200.000	-0.008	-0.310
-599.069	306.839	0.116	-0.218
-598.055	339.017	-0.058	0.115
-597.040	-46.993	-0.153	0.076
-596.025	-71.052	0.162	-0.062
-595.011	93.601	-0.109	-0.125
-593.996	-27.198	0.198	-0.117
-592.982	-34.543	-0.128	0.071
-591.967	-140.881	-0.559	0.058
-590.952	3.087	-0.179	0.132
-589.938	488.896	0.124	0.288
-588.923	1.023	-0.169	-0.123
-587.909	103.218	0.090	-0.107
-586.894	281.102	0.025	0.045
-585.879	-90.278	0.108	-0.032
-584.865	789.590	0.216	-0.602
-583.850	-70.321	0.226	0.087
-582.836	5.857	0.193	0.144
-581.821	-72.212	-0.190	-0.071
-580.806	-89.200	-0.158	-0.047
-579.792	-200.000	-0.002	0.086
-578.777	-112.042	-0.337	-0.069
-577.763	132.402	0.119	-0.156
-576.748	-200.000	-0.065	-0.381
-575.733	-18.980	-0.209	-0.132
-574.719	-145.552	-0.090	0.008
-573.704	-170.335	-0.406	0.014
-572.690	93.074	0.234	-0.268
-571.675	800.000	-0.085	-0.298
-570.661	-48.910	-0.111	0.054
-569.646	800.000	-0.047	-0.154
-568.631	687.716	0.016	0.042
-567.617	-36.895	-0.026	-0.014
-566.602	14.355	0.114	-0.090
-565.588	800.000	0.044	0.139
-564.573	31.035	0.127	0.110
-563.558	230.495	0.110	-0.182
-562.544	-124.832	-0.471	-0.074
-561.529	106.439	0.093	0.112
-560.515	185.662	0.171	0.257
-559.500	451.234	-0.158	0.353
-558.485	-151.701	-0.262	0.020
-557.471	-18.496	-0.275	0.174
-556.456	-200.000	0.025	0.346
-555.442	213.339	0.156	-0.250
-554.427	-200.000	-0.350	0.002
-553.412	-200.000	0.088	-0.405
-552.398	-83.545	-0.103	-0.033
-551.383	52.409	-0.129	-0.125
-550.369	188.575	0.228	0.345
-549.354	86.855	-0.199	-0.223
-548.339	4.652	-0.228	0.170
-547.325	129.331	0.077	-0.100
-546.310	-96.900	0.289	0.077
-545.296	180.763	-0.060	0.089
-544.281	-200.000	0.029	-0.173
-543.266	-66.771	0.300	-0.120
-542.252	464.525	-0.084	0.190
-541.237	-200.000	0.088	-0.000
-540.223	-153.028	0.102	0.007
-539.208	23.911	0.153	0.128
-538.193	430.616	-0.087	-0.191
-537.179	-55.703	-0.193	-0.087
-536.164	-78.253	0.228	0.079
-535.150	-200.000	0.054	0.245
-534.135	-6.281	0.189	-0.130
-533.121	-154.017	0.363	0.025
-532.106	663.219	-0.085	0.222
-531.091	-7.908	0.037	-0.025
-530.077	318.217	0.033	0.063
-529.062	-84.965	0.125	0.040
-528.048	-6.034	-0.125	0.086
-527.033	84.793	-0.235	0.260
-526.018	15.396	0.118	0.094
-525.004	-14.580	0.131	0.085
-523.989	-200.000	0.003	-0.230
-522.975	775.449	-0.088	0.244
-521.960	-200.000	0.006	0.174
-520.945	800.000	-0.122	0.459
-519.931	125.322	-0.285	-0.363
-518.916	-117.363	0.101	0.018
-517.902	74.205	-0.204	-0.217
-516.887	541.649	-0.068	-0.163
-515.872	-56.476	-0.038	-0.017
-514.858	800.000	0.035	0.144
-513.843	297.044	0.127	0.235
-512.829	-131.087	0.214	0.029
-511.814	47.328	-0.216	0.203
-510.799	182.084	0.026	-0.039
-509.785	-6.304	-0.193	-0.133
-508.770	-200.000	-0.043	0.365
-507.756	130.301	-0.092	-0.119
-506.741	149.712	-0.083	0.114
-505.726	-200.000	0.027	-0.171
-504.712	55.273	-0.196	0.192
-503.697	-96.622	0.029	-0.008
-502.683	121.530	-0.229	-0.289
-501.668	147.577	0.238	0.324
-500.653	141.101	0.107	0.144
-499.639	218.326	0.202	-0.327
-498.624	800.000	0.060	-0.216
-497.610	285.979	-0.110	-0.201
-496.595	217.648	-0.032	0.051
-495.581	-200.000	-0.048	-0.664
-494.566	800.000	-0.103	0.337
-493.551	42.106	-0.204	-0.187
-492.537	-200.000	0.025	0.117
-491.522	341.485	-0.098	-0.193
-490.508	-200.000	0.020	0.100
-489.493	415.571	-0.038	0.082
-488.478	-94.867	-0.092	0.025
-487.464	158.258	0.198	-0.278
-486.449	172.819	-0.177	-0.257
-485.435	80.335	-0.147	-0.160
-484.420	34.783	-0.419	-0.371
-483.405	-31.738	-0.190	-0.108
-482.391	59.213	-0.113	-0.112
-481.376	52.550	-0.173	-0.167
-480.362	33.693	-0.289	-0.254
-479.347	461.435	0.074	-0.166
-478.332	519.295	0.078	-0.185
-477.318	-120.718	0.181	0.031
-476.303	254.446	0.093	-0.160
-475.289	34.572	-0.192	-0.169
-474.274	215.411	-0.201	-0.322
-473.259	-187.751	0.168	0.002
-472.245	-21.909	0.167	-0.102
-471.230	30.977	0.117	-0.101
-470.216	681.927	0.125	0.330
-469.201	800.000	0.025	-0.078
-468.186	-117.903	0.022	0.004
-467.172	217.270	-0.041	0.067
-466.157	217.590	0.050	-0.081
-465.143	-94.965	0.337	-0.092
-464.128	242.616	-0.081	-0.137
-463.113	222.177	-0.215	-0.348
-462.099	800.000	-0.037	-0.115
-461.084	-185.289	0.181	-0.003
-460.070	499.528	-0.068	0.157
-459.055	-117.976	-0.148	-0.027
-458.040	-200.000	-0.126	0.605
-457.026	-135.762	-0.194	-0.023
-456.011	-24.393	0.306	0.184
-454.997	-117.491	0.276	0.050
-453.982	-200.000	0.056	-0.372
-452.968	-200.000	0.048	-0.393
-451.953	610.446	-0.120	-0.303
-450.938	-90.448	0.124	-0.036
-449.924	-200.000	0.058	0.396
-448.909	-118.680	0.401	0.071
-447.895	321.647	-0.125	-0.239
-446.880	800.000	-0.042	-0.121
-445.865	319.250	0.034	0.066
-444.851	800.000	0.043	-0.179
-443.836	-144.516	0.188	0.018
-442.822	-139.039	-0.373	0.041
-441.807	771.972	-0.116	0.320
-440.792	90.220	0.223	0.251
-439.778	212.042	0.055	-0.088
-438.763	800.000	-0.086	-0.249
-437.749	-200.000	-0.055	0.303
-436.734	-55.082	0.064	0.029
-435.719	394.612	-0.076	0.160
-434.705	92.702	0.082	0.093
-433.690	88.067	-0.064	-0.071
-432.676	22.060	0.249	0.205
-431.661	-36.265	0.032	-0.017
-430.646	6.651	0.120	-0.090
-429.632	-148.061	0.090	-0.008
-428.617	493.096	0.094	-0.218
-427.603	-200.000	-0.008	0.188
-426.588	-50.901	0.137	-0.065
-425.573	-112.300	-0.276	-0.056
-424.559	139.139	-0.344	0.455
-423.544	-31.237	0.079	0.045
-422.530	46.876	-0.122	0.115
-421.515	-106.996	-0.189	-0.042
-420.500	28.472	-0.208	0.177
-419.486	134.953	-0.099	0.129
-418.471	-88.118	-0.069	-0.021
-417.457	70.033	0.232	-0.241
-416.442	-144.606	0.239	-0.022
-415.428	52.274	-0.073	0.071
-414.413	800.000	-0.044	0.184
-413.398	73.248	0.146	0.154
-412.384	800.000	0.145	-0.408
-411.369	-98.614	-0.213	-0.055
-410.355	142.015	-0.086	0.114
-409.340	588.005	0.073	-0.182
-408.325	-200.000	0.025	-0.456
-407.311	-200.000	-0.024	-0.179
-406.296	-76.633	-0.430	-0.152
-405.282	-65.884	-0.213	0.086
-404.267	65.001	-0.076	-0.077
-403.252	-166.191	-0.154	0.007
-402.238	433.989	0.094	-0.207
-401.223	-7.760	0.216	-0.147
-400.209	571.155	-0.015	-0.038
-399.194	-70.717	-0.088	-0.033
-398.179	79.258	-0.030	-0.032
-397.165	2.335	0.088	0.064
-396.150	5.261	0.307	0.228
-395.136	800.000	0.041	-0.129
-394.121	782.840	-0.189	0.522
-393.106	-200.000	0.031	0.439
-392.092	-200.000	-0.004	0.198
-391.077	-26.319	-0.081	-0.048
-390.063	402.240	-0.046	-0.097
-389.048	-21.695	-0.201	-0.123
-388.033	524.562	-0.047	-0.111
-387.019	-36.070	0.389	-0.212
-386.004	76.483	0.236	-0.252
-384.990	-99.633	0.275	-0.069
-383.975	800.000	-0.068	0.207
-382.960	145.347	-0.051	0.069
-381.946	64.679	0.171	0.174
-380.931	-50.646	0.307	0.145
-379.917	314.302	-0.076	-0.145
-378.902	-68.798	-0.261	0.101
-377.888	89.772	-0.164	0.184
-376.873	-50.815	0.124	-0.059
-375.858	-151.411	-0.285	-0.021
-374.844	-85.499	0.212	-0.066
-373.829	39.979	0.181	0.164
-372.815	75.676	0.138	0.146
-371.800	-144.283	0.071	-0.007
-370.785	-108.971	0.112	-0.024
-369.771	10.560	-0.146	-0.112
-368.756	15.343	0.090	-0.071
-367.742	266.084	-0.057	0.100
-366.727	-200.000	0.058	-0.256
-365.712	-155.439	-0.281	0.018
-364.698	-27.345	-0.303	-0.178
-363.683	-40.200	0.335	0.175
-362.669	800.000	-0.048	-0.177
-361.654	281.179	0.210	0.378
-360.639	219.241	-0.364	-0.585
-359.625	-131.242	-0.083	0.011
-358.610	-92.032	0.121	0.034
-357.596	128.638	0.287	0.367
-356.581	-32.932	0.031	0.017
-355.566	-57.081	-0.179	0.079
-354.552	-56.954	-0.333	-0.148
-353.537	59.318	0.146	0.145
-352.523	-200.000	0.012	0.180
-351.508	-200.000	0.000	0.249
-350.493	-3.240	-0.125	0.088
-349.479	-200.000	0.026	0.134
-348.464	303.607	-0.013	0.024
-347.450	550.545	-0.050	0.120
-346.435	-190.308	0.183	-0.002
-345.420	-155.866	-0.100	0.006
-344.406	1.083	-0.119	0.086
-343.391	-135.335	0.146	0.018
-342.377	-118.545	0.260	-0.046
-341.362	-96.451	-0.338	0.090
-340.348	299.907	0.025	-0.046
-339.333	495.113	0.092	0.213
-338.318	-200.000	0.021	0.155
-337.304	-58.343	-0.142	0.062
-336.289	800.000	0.123	0.356
-335.275	-150.993	-0.417	0.032
-334.260	-88.105	0.087	-0.026
-333.245	-47.453	0.492	0.240
-332.231	157.576	-0.022	-0.030
-331.216	-110.651	0.285	0.059
-330.202	-200.000	-0.016	0.237
-329.187	89.525	-0.227	0.254
-328.172	86.846	-0.106	0.118
-327.158	156.857	0.170	0.236
-326.143	800.000	0.077	0.275
-325.129	-105.110	-0.307	0.070
-324.114	330.274	0.055	-0.107
-323.099	241.446	0.151	-0.253
-322.085	-38.321	-0.067	-0.036
-321.070	162.732	-0.147	-0.207
-320.056	-168.058	0.165	-0.006
-319.041	-101.980	0.195	0.047
-318.026	203.701	0.062	0.097
-317.012	349.481	0.047	-0.093
-315.997	-143.999	-0.111	-0.010
-314.983	195.607	-0.183	-0.279
-313.968	-108.616	-0.242	0.052
-312.953	-200.000	-0.023	0.347
-311.939	-72.293	-0.057	0.021
-310.924	-56.585	-0.220	-0.098
-309.910	-64.205	-0.229	0.094
-308.895	-179.629	0.122	-0.003
-307.880	800.000	0.066	0.215
-306.866	88.485	-0.089	0.099
-305.851	-200.000	-0.025	0.244
-304.837	800.000	-0.027	0.081
-303.822	9.901	0.189	-0.144
-302.807	800.000	0.029	0.087
-301.793	458.806	0.077	0.173
-300.778	164.641	0.057	0.081
-299.764	100.066	-0.047	-0.055
-298.749	-22.485	-0.170	-0.103
-297.735	-29.100	0.234	0.135
-296.720	-200.000	-0.055	0.322
-295.705	128.659	-0.077	0.098
-294.691	-86.926	0.296	-0.090
-293.676	-130.762	0.147	0.020
-292.662	800.000	0.013	-0.045
-291.647	176.151	0.094	-0.137
-290.632	223.391	0.095	-0.154
-289.618	102.389	-0.229	0.269
-288.603	24.471	0.083	0.069
-287.589	-16.525	0.073	0.046
-286.574	-200.000	-0.004	0.274
-285.559	-11.401	-0.281	0.185
-284.545	325.221	0.058	0.111
-283.530	-84.228	0.330	-0.105
-282.516	-91.851	0.394	-0.112
-281.501	-57.956	0.514	0.225
-280.486	148.163	0.204	0.276
-279.472	-124.556	0.083	-0.013
-278.457	-140.285	-0.248	0.026
-277.443	-171.419	-0.336	-0.011
-276.428	-151.014	-0.039	0.003
-275.413	-123.065	-0.086	-0.014
-274.399	476.722	-0.141	0.320
-273.384	-71.139	-0.101	0.038
-272.370	-86.192	-0.111	0.034
-271.355	108.081	0.111	-0.132
-270.340	-90.159	-0.160	-0.047
-269.326	263.666	-0.043	0.074
-268.311	-200.000	0.032	0.158
-267.297	800.000	0.050	0.192
-266.282	117.836	-0.084	0.103
-265.267	-200.000	-0.006	0.068
-264.253	2.627	0.200	-0.145
-263.238	200.445	-0.012	-0.018
-262.224	800.000	-0.037	0.158
-261.209	-98.966	0.415	0.105
-260.195	800.000	-0.060	-0.214
-259.180	800.000	-0.012	0.038
-258.165	800.000	-0.067	0.208
-257.151	-113.121	-0.353	0.070
-256.136	77.719	-0.251	-0.268
-255.122	-11.689	-0.198	0.130
-254.107	481.294	0.101	0.231
-253.092	-101.509	0.172	-0.042
-252.078	-19.960	-0.101	-0.062
-251.063	51.620	0.292	-0.277
-250.049	-129.718	-0.300	0.041
-249.034	-200.000	0.019	-0.253
-248.019	-200.000	0.010	-0.238
-247.005	-28.130	0.085	0.049
-245.990	-137.650	0.454	0.051
-244.976	-7.791	0.317	-0.214
-243.961	-27.900	0.169	0.098
-242.946	381.232	-0.118	-0.242
-241.932	-28.062	0.302	-0.175
-240.917	78.776	0.272	-0.291
-239.903	-200.000	0.017	-0.407
-238.888	800.000	0.010	-0.031
-237.873	800.000	-0.046	0.160
-236.859	-57.856	0.128	-0.056
-235.844	-80.064	0.181	-0.061
-234.830	-36.101	0.158	-0.085
-233.815	124.889	0.092	0.116
-232.800	80.725	0.287	0.310
-231.786	-200.000	0.001	-0.086
-230.771	-33.564	0.196	0.108
-229.757	204.442	0.092	0.142
-228.742	-91.382	-0.603	-0.172
-227.727	11.956	-0.134	-0.103
-226.713	-47.012	0.051	-0.025
-225.698	79.654	-0.080	-0.086
-224.684	199.548	0.100	-0.153
-223.669	800.000	-0.034	-0.096
-222.655	7.466	-0.211	-0.158
-221.640	-12.514	0.302	-0.197
-220.625	-56.457	-0.250	-0.111
-219.611	-24.013	-0.211	0.126
-218.596	61.351	0.238	0.237
-217.582	-200.000	0.013	0.165
-216.567	800.000	0.043	0.160
-215.552	-92.099	0.120	0.034
-214.538	-1.000	0.260	-0.184
-213.523	-105.784	0.190	-0.043
-212.509	-200.000	0.000	0.413
-211.494	-200.000	-0.021	0.100
-210.479	21.370	-0.066	-0.053
-209.465	800.000	-0.052	-0.164
-208.450	-200.000	0.046	0.212
-207.436	-122.644	0.217	-0.035
-206.421	800.000	-0.072	-0.233
-205.406	637.750	-0.010	0.024
-204.392	228.160	-0.122	-0.199
-203.377	-98.861	0.186	-0.047
-202.363	-25.401	-0.229	-0.135
-201.348	130.177	0.072	0.093
-200.333	321.169	-0.158	0.300
-199.319	-200.000	-0.024	-0.152
-198.304	172.266	-0.312	-0.448
-197.290	-26.871	0.301	-0.175
-196.275	-128.188	-0.194	0.028
-195.260	289.838	-0.101	-0.183
-194.246	195.403	0.102	-0.154
-193.231	-150.976	0.077	0.006
-192.217	152.741	-0.042	-0.058
-191.202	287.351	0.088	-0.159
-190.187	513.353	0.197	-0.460
-189.173	-200.000	-0.039	0.325
-188.158	-63.383	0.179	-0.074
-187.144	620.280	-0.143	-0.359
-186.129	-126.080	-0.150	-0.022
-185.114	11.735	0.232	0.178
-184.100	-75.099	-0.092	-0.033
-183.085	-80.125	0.321	-0.107
-182.071	-200.000	-0.009	-0.438
-181.056	130.347	0.022	0.028
-180.042	-1.143	-0.287	0.203
-179.027	-6.382	0.137	0.094
-178.012	800.000	0.033	-0.090
-176.998	-161.013	0.156	0.008
-175.983	35.708	0.270	0.237
-174.969	-200.000	-0.213	0.000
-173.954	-200.000	-0.011	0.052
-172.939	-22.117	-0.182	0.110
-171.925	-60.950	0.357	-0.151
-170.910	-96.506	-0.390	0.103
-169.896	-18.527	-0.074	-0.046
-168.881	-16.493	-0.154	0.097
-167.866	-51.774	-0.240	0.111
-166.852	-43.420	-0.139	0.070
-165.837	-110.897	0.288	-0.059
-164.823	800.000	-0.026	0.107
-163.808	311.810	0.207	0.388
-162.793	15.157	0.147	0.115
-161.779	712.923	0.086	-0.226
-160.764	63.084	-0.397	0.397
-159.750	-200.000	-0.006	0.219
-158.735	-79.865	-0.088	-0.030
-157.720	800.000	-0.013	0.048
-156.706	-170.614	0.112	0.004
-155.691	-200.000	0.031	-0.211
-154.677	69.090	0.048	0.050
-153.662	-80.463	-0.199	0.066
-152.647	800.000	0.125	0.375
-151.633	98.298	-0.081	0.094
-150.618	-7.754	0.095	-0.064
-149.604	78.698	-0.228	-0.243
-148.589	30.287	0.278	0.237
-147.574	-200.000	0.032	0.222
-146.560	-200.000	0.006	0.176
-145.545	66.095	0.153	0.154
-144.531	542.220	0.058	0.139
-143.516	-55.427	0.129	0.057
-142.502	-200.000	0.043	0.382
-141.487	120.103	0.156	-0.192
-140.472	-3.918	-0.274	-0.189
-139.458	800.000	0.048	0.179
-138.443	-148.895	0.177	0.014
-137.429	-200.000	-0.014	0.188
-136.414	108.951	0.214	0.255
-135.399	211.323	-0.046	-0.072
-134.385	-200.000	0.038	0.234
-133.370	800.000	-0.051	-0.180
-132.356	-29.356	0.087	-0.049
-131.341	-200.000	-0.046	0.244
-130.326	-200.000	0.010	0.200
-129.312	231.802	-0.145	0.237
-128.297	243.847	-0.114	-0.191
-127.283	-112.286	-0.169	0.034
-126.268	187.516	-0.097	0.144
-125.253	800.000	0.044	0.153
-124.239	81.964	-0.254	-0.274
-123.224	291.453	-0.186	-0.337
-122.210	27.329	0.255	-0.213
-121.195	1.166	-0.151	0.108
-120.180	442.933	-0.083	-0.182
-119.166	21.943	-0.195	-0.158
-118.151	-93.031	0.239	-0.066
-117.137	-200.000	0.027	0.152
-116.122	800.000	0.022	-0.064
-115.107	182.731	-0.079	-0.117
-114.093	-200.000	0.039	-0.182
-113.078	689.404	-0.048	-0.124
-112.064	121.181	-0.131	-0.163
-111.049	170.913	-0.346	-0.493
-110.034	-161.230	-0.089	0.005
-109.020	-22.199	0.207	0.125
-108.005	-200.000	0.062	0.000
-106.991	-15.206	0.432	0.275
-105.976	118.179	0.113	-0.139
-104.962	800.000	-0.012	-0.043
-103.947	-92.559	-0.186	0.052
-102.932	-64.502	-0.140	0.057
-101.918	19.525	-0.130	0.104
-100.903	-32.393	0.234	0.130
-99.889	-80.010	0.094	0.031
-98.874	800.000	-0.085	-0.321
-97.859	-24.237	-0.219	-0.130
-96.845	54.976	-0.340	0.327
-95.830	-70.537	0.239	-0.090
-94.816	598.151	-0.074	-0.184
-93.801	-24.752	-0.367	-0.217
-92.786	-87.800	-0.054	-0.016
-91.772	-117.082	0.495	0.090
-90.757	800.000	-0.048	-0.135
-89.743	-111.884	-0.276	-0.055
-88.728	511.696	-0.086	0.200
-87.713	800.000	-0.077	-0.249
-86.699	191.320	0.133	-0.200
-85.684	138.777	-0.124	-0.162
-84.670	-200.000	-0.013	-0.155
-83.655	-47.286	0.207	0.100
-82.640	-71.095	0.254	0.095
-81.626	428.075	0.089	0.191
-80.611	800.000	0.124	-0.352
-79.597	-106.321	0.082	0.018
-78.582	-56.366	0.069	0.031
-77.567	73.089	-0.173	0.180
-76.553	145.194	-0.158	-0.210
-75.538	41.332	0.087	-0.078
-74.524	-106.183	0.118	-0.026
-73.509	171.928	0.185	0.265
-72.494	43.479	0.073	0.066
-71.480	-48.096	0.139	-0.067
-70.465	800.000	-0.058	-0.169
-69.451	33.993	0.151	0.131
-68.436	585.795	-0.060	-0.147
-67.422	-190.464	-0.413	0.004
-66.407	800.000	-0.063	0.227
-65.392	31.873	-0.211	0.181
-64.378	-200.000	0.027	-0.235
-63.363	537.360	-0.027	0.063
-62.349	-39.415	-0.215	0.112
-61.334	9.161	-0.873	-0.655
-60.319	374.230	0.180	0.363
-59.305	-200.000	-0.135	-0.646
-58.290	-200.000	0.137	0.703
-57.276	800.000	0.592	1.653
-56.261	-200.000	75.938	520.184
-55.246	537.428	1313.399	3099.731
-54.232	148.139	2548.667	3416.270
-53.217	111.837	2352.597	2821.848
-52.203	50.697	1971.587	1853.975
-51.188	44.661	1760.865	1608.271
-50.173	41.851	1715.732	1545.307
-49.159	56.341	1750.641	1689.788
-48.144	61.591	1768.509	1747.766
-47.130	44.691	1732.291	1582.155
-46.115	41.510	1718.287	1544.727
-45.100	41.304	1713.684	1538.932
-44.086	41.298	1711.236	1536.629
-43.071	41.295	1708.288	1533.897
-42.057	41.226	1705.997	1531.254
-41.042	41.210	1704.012	1529.282
-40.027	41.283	1701.818	1527.818
-39.013	41.170	1700.232	1525.464
-37.998	41.178	1698.737	1524.125
-36.984	41.275	1697.110	1523.348
-35.969	41.416	1695.376	1522.805
-34.954	41.383	1694.015	1521.271
-33.940	41.374	1691.937	1519.277
-32.925	41.487	1689.586	1517.966
-31.911	41.361	1688.429	1515.907
-30.896	41.427	1686.111	1514.264
-29.881	41.408	1684.618	1512.722
-28.867	41.452	1682.720	1511.290
-27.852	41.390	1681.976	1510.094
-26.838	41.474	1680.150	1509.029
-25.823	41.332	1679.066	1506.918
-24.809	41.423	1677.152	1505.832
-23.794	41.486	1675.918	1505.138
-22.779	41.390	1674.764	1503.318
-21.765	41.381	1672.780	1501.410
-20.750	41.423	1670.778	1499.873
-19.736	41.412	1669.712	1498.768
-18.721	41.340	1668.522	1497.105
-17.706	41.370	1666.910	1495.821
-16.692	41.436	1664.883	1494.440
-15.677	41.389	1663.764	1493.024
-14.663	41.387	1662.271	1491.612
-13.648	41.367	1661.235	1490.473
-12.633	41.431	1659.602	1489.427
-11.619	41.362	1658.191	1487.585
-10.604	41.388	1655.974	1485.726
-9.590	41.313	1655.197	1484.416
-8.575	41.362	1653.584	1483.276
-7.560	41.402	1652.482	1482.525
-6.546	41.391	1651.118	1481.160
-5.531	41.434	1650.108	1480.518
-4.517	41.332	1649.284	1478.956
-3.502	41.392	1648.014	1478.208
-2.487	41.528	1645.749	1477.120
-1.473	41.189	1634.260	1464.260
-0.458	38.090	1612.189	1421.899
0.556	31.117	1609.355	1378.978
1.571	28.007	1632.904	1375.661
2.586	26.880	1646.956	1378.820
3.600	25.047	1597.502	1323.771
4.615	20.187	1491.764	1202.432
5.629	15.590	1426.960	1119.533
6.644	14.480	1417.869	1104.950
7.659	14.384	1416.726	1103.324
8.673	14.423	1415.075	1102.199
9.688	14.273	1413.869	1100.171
10.702	14.154	1411.005	1097.062
11.717	16.193	1414.969	1113.514
12.731	20.062	1421.527	1144.181
13.746	20.030	1419.782	1142.465
14.761	17.674	1413.765	1122.028
15.775	16.259	1410.235	1109.830
16.790	15.224	1407.574	1100.844
17.804	14.376	1404.951	1093.135
18.819	13.843	1403.204	1088.182
19.834	13.425	1402.026	1084.435
20.848	13.168	1400.578	1081.536
21.863	12.961	1399.671	1079.387
22.877	12.799	1398.255	1077.139
23.892	12.778	1397.035	1075.965
24.907	12.669	1396.690	1074.893
25.921	12.732	1395.434	1074.243
26.936	12.802	1394.874	1074.175
27.950	12.884	1393.486	1073.542
28.965	12.881	1392.611	1072.759
29.980	12.951	1391.638	1072.369
30.994	13.061	1389.841	1071.602
32.009	13.057	1388.983	1070.819
33.023	13.024	1387.882	1069.662
34.038	12.991	1386.171	1068.038
35.053	12.907	1385.119	1066.584
36.067	12.889	1383.824	1065.379
37.082	12.883	1382.683	1064.369
38.096	12.881	1381.934	1063.683
39.111	12.914	1381.112	1063.169
40.126	12.891	1380.322	1062.320
41.140	12.781	1379.431	1060.829
42.155	12.639	1379.145	1059.605
43.169	12.647	1378.698	1059.219
44.184	12.605	1378.180	1058.457
45.199	12.660	1377.645	1058.308
46.213	12.760	1377.305	1058.596
47.228	12.769	1376.285	1057.775
48.242	12.826	1374.830	1056.925
49.257	12.832	1373.206	1055.622
50.271	12.861	1371.940	1054.743
51.286	12.864	1370.555	1053.605
52.301	12.849	1369.426	1052.543
53.315	12.758	1368.156	1050.895
54.330	12.767	1366.746	1049.780
55.344	12.780	1365.534	1048.835
56.359	12.675	1365.144	1047.777
57.374	12.771	1363.681	1047.171
58.388	12.778	1362.870	1046.500
59.403	12.640	1362.297	1045.092
60.417	12.590	1361.935	1044.406
61.432	12.669	1360.878	1044.002
62.447	12.578	1359.847	1042.542
63.461	12.625	1358.319	1041.573
64.476	12.500	1357.508	1040.071
65.490	12.615	1356.366	1039.829
66.505	12.511	1355.431	1038.364
67.520	12.592	1353.696	1037.457
68.534	12.702	1352.196	1036.908
69.549	12.686	1351.623	1036.277
70.563	12.780	1350.302	1035.763
71.578	12.475	1349.824	1033.384
72.593	12.524	1348.781	1032.803
73.607	12.455	1347.819	1031.543
74.622	12.477	1347.136	1031.065
75.636	12.469	1346.329	1030.305
76.651	12.518	1345.675	1030.026
77.666	12.516	1345.362	1029.679
78.680	12.429	1344.844	1028.651
79.695	12.566	1343.548	1028.424
80.709	12.572	1343.032	1027.973
81.724	12.621	1342.071	1027.451
82.739	12.702	1341.654	1027.546
83.753	12.796	1340.391	1027.073
84.768	12.829	1339.205	1026.280
85.782	12.891	1337.962	1025.625
86.797	12.819	1336.983	1024.337
87.812	12.776	1335.673	1022.974
88.826	12.770	1334.393	1021.864
89.841	12.773	1333.200	1020.884
90.855	12.977	1331.829	1021.002
91.870	12.825	1331.816	1019.961
92.884	12.836	1330.484	1018.921
93.899	12.891	1330.047	1018.835
94.914	12.945	1329.064	1018.326
95.928	12.943	1328.260	1017.605
96.943	12.864	1327.197	1016.213
97.957	12.912	1326.136	1015.612
98.972	12.835	1325.139	1014.283
99.987	12.949	1323.490	1013.629
101.001	12.835	1323.219	1012.630
102.016	12.751	1322.459	1011.445
103.030	12.910	1320.997	1011.211
104.045	12.964	1319.878	1010.598
105.060	12.894	1318.531	1009.047
106.074	12.814	1317.169	1007.425
107.089	12.723	1316.083	1005.950
108.103	12.654	1314.714	1004.396
109.118	12.771	1313.595	1004.164
110.133	12.639	1312.190	1002.201
111.147	12.704	1310.740	1001.397
112.162	12.770	1309.570	1000.818
113.176	12.762	1308.332	999.732
114.191	12.705	1307.460	998.635
115.206	12.749	1306.250	997.887
116.220	12.820	1304.780	997.108
117.235	12.700	1303.752	995.504
118.249	12.742	1302.923	995.040
119.264	12.793	1301.622	994.264
120.279	12.782	1300.314	993.109
121.293	12.723	1299.495	992.042
122.308	12.598	1298.589	990.509
123.322	12.736	1296.648	989.771
124.337	12.710	1295.706	988.808
125.352	12.606	1295.287	987.776
126.366	12.642	1293.526	986.565
127.381	12.712	1292.999	986.493
128.395	12.593	1292.159	985.053
129.410	12.648	1290.692	984.178
130.424	12.710	1290.173	984.066
131.439	12.798	1288.905	983.537
132.454	12.805	1287.957	982.765
133.468	12.756	1287.062	981.703
134.483	12.835	1286.166	981.405
135.497	12.873	1285.111	980.738
136.512	12.763	1284.609	979.614
137.527	12.822	1282.596	978.346
138.541	12.840	1280.801	976.997
139.556	12.877	1279.678	976.273
140.570	12.892	1278.842	975.636
141.585	12.868	1277.258	974.198
142.600	12.924	1276.131	973.582
143.614	13.029	1274.459	972.842
144.629	13.014	1274.105	972.394
145.643	13.040	1272.676	971.370
146.658	12.912	1271.271	969.461
147.673	12.954	1270.254	968.845
148.687	12.820	1268.960	966.990
149.702	12.800	1267.761	965.871
150.716	12.805	1266.771	965.060
151.731	12.812	1265.057	963.710
152.746	12.846	1264.167	963.144
153.760	12.887	1262.613	962.114
154.775	12.916	1262.032	961.758
155.789	12.940	1260.981	961.010
156.804	13.000	1259.780	960.360
157.819	12.957	1258.505	959.051
158.833	13.099	1257.414	958.960
159.848	13.125	1256.940	958.670
160.862	13.060	1255.485	957.094
161.877	12.987	1254.578	955.896
162.892	12.969	1253.487	954.877
163.906	12.954	1252.226	953.745
164.921	12.940	1251.559	953.074
165.935	13.064	1250.432	952.845
166.950	12.952	1249.705	951.562
167.964	13.040	1248.972	951.428
168.979	12.960	1248.436	950.470
169.994	13.010	1247.369	949.861
171.008	13.028	1246.684	949.361
172.023	13.089	1245.643	948.836
173.037	13.056	1245.274	948.278
174.052	13.108	1243.869	947.426
175.067	13.123	1242.870	946.666
176.081	13.055	1241.917	945.467
177.096	12.934	1241.170	944.121
178.110	13.070	1239.467	943.520
179.125	13.025	1238.688	942.587
180.140	13.107	1237.319	941.928
181.154	13.084	1236.386	941.004
182.169	13.234	1234.756	940.535
183.183	13.209	1233.594	939.425
184.198	13.218	1232.445	938.520
185.213	13.312	1231.164	937.995
186.227	13.180	1230.620	936.748
187.242	13.318	1229.184	936.353
188.256	13.335	1228.578	935.904
189.271	13.305	1227.714	934.991
190.286	13.154	1226.729	933.306
191.300	13.108	1225.468	932.007
192.315	13.076	1224.877	931.293
193.329	13.089	1223.892	930.533
194.344	13.274	1222.731	930.614
195.359	13.172	1222.631	929.878
196.373	13.173	1222.549	929.738
197.388	13.209	1221.952	929.404
198.402	13.379	1220.974	929.537
199.417	13.440	1220.747	929.623
200.432	13.522	1219.691	929.196
201.446	13.584	1218.997	928.935
202.461	13.544	1217.998	927.863
203.475	13.478	1216.800	926.502
204.490	13.584	1215.506	926.025
205.504	13.498	1213.929	924.262
206.519	13.554	1212.892	923.705
207.534	13.429	1212.184	922.385
208.548	13.517	1211.064	921.941
209.563	13.505	1210.193	921.131
210.577	13.553	1209.094	920.480
211.592	13.614	1207.977	919.886
212.607	13.637	1207.369	919.473
213.621	13.601	1206.941	918.864
214.636	13.524	1205.868	917.539
215.650	13.546	1205.040	916.950
216.665	13.683	1203.675	916.588
217.680	13.690	1203.197	916.182
218.694	13.733	1202.117	915.513
219.709	13.647	1201.965	914.841
220.723	13.742	1200.582	914.234
221.738	13.740	1200.022	913.712
222.753	13.705	1199.235	912.841
223.767	13.778	1198.364	912.499
224.782	13.792	1197.895	912.141
225.796	13.868	1196.963	911.765
226.811	13.867	1196.160	911.066
227.826	13.789	1195.693	910.202
228.840	13.780	1194.848	909.429
229.855	13.864	1194.273	909.373
230.869	13.788	1193.412	908.219
231.884	13.743	1192.822	907.446
232.899	13.826	1191.669	906.944
233.913	13.739	1191.257	906.073
234.928	13.779	1190.167	905.379
235.942	13.800	1189.400	904.829
236.957	13.810	1188.691	904.267
237.972	13.709	1187.815	902.971
238.986	13.903	1187.038	903.354
240.001	13.793	1186.724	902.437
241.015	13.779	1185.668	901.478
242.030	13.822	1184.758	900.943
243.045	13.905	1184.184	900.876
244.059	13.878	1183.511	900.136
245.074	13.910	1182.397	899.382
246.088	14.036	1181.695	899.451
247.103	14.036	1180.515	898.473
248.117	14.002	1179.982	897.807
249.132	14.072	1179.168	897.486
250.147	14.196	1178.739	897.748
251.161	14.203	1177.792	896.985
252.176	14.166	1177.489	896.474
253.190	14.267	1177.044	896.601
254.205	14.322	1176.371	896.305
255.220	14.369	1175.225	895.606
256.234	14.376	1174.940	895.346
257.249	14.332	1174.009	894.323
258.263	14.401	1173.136	893.946
259.278	14.392	1173.195	893.867
260.293	14.445	1172.002	893.162
261.307	14.564	1171.233	893.133
262.322	14.461	1170.541	891.976
263.336	14.475	1169.730	891.351
264.351	14.456	1169.577	891.057
265.366	14.474	1168.749	890.446
266.380	14.495	1168.080	889.969
267.395	14.567	1166.850	889.336
268.409	14.533	1166.561	888.852
269.424	14.489	1165.886	888.026
270.439	14.534	1165.001	887.514
271.453	14.462	1164.410	886.601
272.468	14.475	1163.536	885.928
273.482	14.436	1162.955	885.200
274.497	14.422	1162.319	884.564
275.512	14.466	1161.612	884.182
276.526	14.526	1160.819	883.815
277.541	14.476	1160.353	883.119
278.555	14.534	1159.278	882.529
279.570	14.624	1158.364	882.230
280.585	14.667	1157.468	881.699
281.599	14.734	1156.518	881.251
282.614	14.635	1156.192	880.401
283.628	14.556	1155.232	879.175
284.643	14.590	1153.794	878.182
285.657	14.678	1152.774	877.792
286.672	14.747	1151.768	877.307
287.687	14.727	1151.210	876.701
288.701	14.723	1150.517	876.076
289.716	14.770	1149.387	875.383
290.730	14.723	1148.792	874.609
291.745	14.796	1148.205	874.466
292.760	14.758	1147.208	873.427
293.774	14.913	1146.560	873.666
294.789	14.856	1146.338	873.126
295.803	14.836	1145.825	872.554
296.818	14.894	1144.532	871.791
297.833	14.792	1143.998	870.776
298.847	14.775	1143.301	870.080
299.862	14.914	1142.372	870.022
300.876	14.936	1141.510	869.403
301.891	14.941	1140.895	868.884
302.906	15.064	1140.291	868.984
303.920	14.998	1139.998	868.343
304.935	14.993	1138.992	867.473
305.949	15.072	1138.335	867.303
306.964	15.104	1137.308	866.610
307.979	15.028	1136.357	865.414
308.993	15.084	1136.110	865.440
310.008	15.142	1135.411	865.133
311.022	15.081	1134.588	864.113
312.037	15.125	1133.683	863.574
313.052	15.120	1132.793	862.795
314.066	15.155	1131.639	862.019
315.081	14.910	1131.130	860.292
316.095	15.043	1129.680	859.801
317.110	15.054	1129.182	859.403
318.125	15.131	1128.712	859.364
319.139	15.087	1127.779	858.348
320.154	15.109	1127.328	858.045
321.168	15.100	1127.073	857.726
322.183	15.112	1126.315	857.138
323.197	15.091	1125.743	856.518
324.212	15.200	1124.915	856.370
325.227	15.181	1124.321	855.744
326.241	15.184	1123.735	855.235
327.256	15.187	1122.829	854.486
328.270	15.187	1121.808	853.637
329.285	15.143	1120.978	852.705
330.300	15.250	1119.857	852.321
331.314	15.129	1119.416	851.295
332.329	15.284	1118.355	851.198
333.343	15.340	1117.317	850.615
334.358	15.399	1116.075	849.896
335.373	15.329	1115.978	849.392
336.387	15.300	1115.492	848.798
337.402	15.322	1114.551	848.119
338.416	15.411	1113.640	847.801
339.431	15.389	1113.308	847.363
340.446	15.457	1112.363	846.913
341.460	15.466	1111.738	846.407
342.475	15.469	1110.929	845.732
343.489	15.532	1110.004	845.268
344.504	15.574	1109.249	844.831
345.519	15.667	1108.258	844.468
346.533	15.632	1107.264	843.458
347.548	15.771	1106.432	843.447
348.562	15.724	1105.854	842.699
349.577	15.446	1105.579	841.022
350.592	15.623	1104.310	840.866
351.606	15.647	1103.498	840.294
352.621	15.551	1103.068	839.413
353.635	15.667	1102.164	839.228
354.650	15.563	1101.636	838.232
355.665	15.637	1100.794	837.888
356.679	15.605	1100.525	837.448
357.694	15.718	1099.367	837.056
358.708	15.734	1098.698	836.555
359.723	15.790	1098.332	836.478
360.738	15.814	1097.518	835.903
361.752	15.759	1097.240	835.347
362.767	15.756	1096.602	834.770
363.781	15.700	1096.174	834.094
364.796	15.797	1095.525	834.007
365.810	15.936	1094.630	833.941
366.825	15.987	1094.157	833.759
367.840	15.992	1093.481	833.194
368.854	15.971	1092.912	832.582
369.869	16.012	1092.220	832.183
370.883	15.926	1091.397	831.058
371.898	15.845	1090.453	829.868
372.913	16.067	1089.777	830.374
373.927	16.049	1089.397	829.922
374.942	16.117	1088.849	829.767
375.956	15.979	1088.628	828.845
376.971	16.050	1087.620	828.351
377.986	16.127	1087.087	828.253
379.000	16.187	1086.577	828.082
380.015	16.104	1086.147	827.274
381.029	16.286	1085.369	827.505
382.044	16.179	1084.606	826.322
383.059	16.266	1083.566	825.886
384.073	16.325	1082.904	825.594
385.088	16.230	1082.357	824.642
386.102	16.332	1081.355	824.303
387.117	16.179	1080.267	822.654
388.132	16.050	1079.582	821.432
389.146	16.183	1078.594	821.253
390.161	16.221	1077.704	820.690
391.175	16.245	1077.139	820.303
392.190	16.208	1076.881	819.854
393.205	16.341	1076.097	819.831
394.219	16.325	1075.263	819.045
395.234	16.395	1074.054	818.388
396.248	16.307	1072.774	816.915
397.263	16.336	1071.832	816.267
398.278	16.274	1071.182	815.401
399.292	16.167	1071.009	814.677
400.307	16.187	1070.115	814.024
401.321	16.201	1069.622	813.644
402.336	16.258	1068.813	813.232
403.350	16.354	1067.817	812.864
404.365	16.390	1067.310	812.580
405.380	16.393	1066.334	811.777
406.394	16.420	1065.685	811.344
407.409	16.500	1064.886	811.044
408.423	16.473	1064.399	810.472
409.438	16.451	1063.533	809.639
410.453	16.601	1062.596	809.570
411.467	16.635	1062.173	809.339
412.482	16.610	1061.583	808.696
413.496	16.659	1060.739	808.216
414.511	16.682	1060.124	807.789
415.526	16.710	1059.911	807.689
416.540	16.757	1059.428	807.471
417.555	16.753	1058.757	806.867
418.569	16.809	1058.383	806.778
419.584	16.660	1058.074	805.761
420.599	16.659	1057.412	805.185
421.613	85.083	1295.690	1368.190
422.628	78.415	1330.411	1368.304
