DTS Sentinel unit serial number:	SN413079Multiplexer serial number:	ORYXHardware model number:	OX4-SRSoftware version number:	ORYX F/W v4.00 Oryx Data Collector v3.7.2.0data status	okinstallation	princeton_trtdifferential loss correction	single-endedforward channel	channel 2reverse channel	N/Adate	2019/09/12time	02:25:11forward acquisition time	60.00reverse acquisition time	0.00gamma	496.2192k internal	0.2326k external	0.2326temperature offset calibration	1.0089default loss term (dB/km)	0.3790temperature slope calibration	1.0000multiplexer offset coefficient	1.0000multiplexer slope coefficient	1.0000fibre end	0.00T internal ref (°C)	32.52T ext. ref 1 (°C)	2.08T ext. ref 2 (°C)	27.10length (m)	temperature (°C)	Stokes	anti-Stokes-747.200	800.000	-0.032	0.137
-746.185	35.262	0.098	0.087
-745.171	-64.311	-0.150	-0.062
-744.156	-70.180	0.146	-0.056
-743.142	-200.000	-0.003	-0.084
-742.127	-200.000	-0.048	0.313
-741.112	-200.000	-0.014	-0.112
-740.098	800.000	0.145	0.437
-739.083	477.227	0.151	0.345
-738.069	-96.205	-0.280	0.075
-737.054	248.390	-0.063	-0.107
-736.039	-200.000	-0.012	0.265
-735.025	-200.000	0.003	0.037
-734.010	226.296	-0.245	-0.400
-732.996	-4.606	0.095	-0.066
-731.981	-200.000	0.038	0.336
-730.966	6.136	-0.275	0.205
-729.952	-71.682	0.166	-0.063
-728.937	479.711	0.053	0.122
-727.923	800.000	0.030	-0.088
-726.908	190.459	-0.398	-0.602
-725.894	-119.131	-0.450	0.079
-724.879	-48.932	-0.075	0.036
-723.864	-123.571	0.271	0.043
-722.850	621.340	-0.041	0.105
-721.835	-200.000	-0.023	-0.348
-720.821	-8.698	0.279	-0.189
-719.806	211.130	0.093	-0.148
-718.791	-37.672	0.051	0.027
-717.777	256.703	0.100	0.173
-716.762	-63.045	-0.158	-0.066
-715.748	493.595	0.103	0.238
-714.733	-200.000	-0.024	0.312
-713.718	15.678	0.076	-0.060
-712.704	-200.000	-0.025	-0.227
-711.689	800.000	-0.034	0.137
-710.675	370.686	0.150	0.306
-709.660	-54.213	-0.166	0.076
-708.645	-125.838	-0.560	-0.085
-707.631	800.000	0.079	0.283
-706.616	-200.000	0.006	0.107
-705.602	666.874	0.100	0.259
-704.587	30.373	0.157	-0.135
-703.572	430.462	-0.076	0.167
-702.558	338.501	0.101	-0.199
-701.543	800.000	-0.077	-0.230
-700.529	235.189	0.123	-0.205
-699.514	800.000	-0.050	0.192
-698.499	232.785	0.044	0.072
-697.485	-200.000	-0.040	0.384
-696.470	-20.343	0.167	0.104
-695.456	-200.000	0.026	-0.172
-694.441	152.793	0.109	0.150
-693.426	125.521	-0.130	-0.166
-692.412	-138.136	-0.217	-0.024
-691.397	800.000	-0.074	0.327
-690.383	-130.481	0.113	0.015
-689.368	-38.425	-0.241	-0.128
-688.354	-37.453	0.117	0.063
-687.339	-136.032	0.119	0.014
-686.324	-101.689	-0.055	0.013
-685.310	-97.311	0.151	-0.040
-684.295	76.549	0.158	-0.169
-683.281	-66.913	-0.057	0.023
-682.266	157.942	-0.184	-0.256
-681.251	95.602	0.442	-0.507
-680.237	20.641	0.122	-0.099
-679.222	-140.663	0.324	-0.034
-678.208	800.000	0.020	-0.080
-677.193	5.976	0.387	0.288
-676.178	16.413	0.106	-0.084
-675.164	119.069	0.031	0.038
-674.149	-43.210	-0.408	-0.208
-673.135	63.699	0.130	-0.131
-672.120	-200.000	-0.043	-0.411
-671.105	191.447	-0.106	0.161
-670.091	-142.700	-0.125	0.012
-669.076	-28.172	-0.106	-0.062
-668.062	184.850	0.102	0.152
-667.047	800.000	0.045	-0.130
-666.032	-200.000	-0.002	-0.594
-665.018	-152.287	0.364	0.026
-664.003	-112.109	-0.223	-0.045
-662.989	-61.176	-0.076	0.032
-661.974	-56.883	-0.279	0.124
-660.959	62.045	0.184	-0.185
-659.945	-193.886	0.190	0.002
-658.930	-16.476	0.064	-0.041
-657.916	-46.011	-0.237	-0.118
-656.901	-124.984	0.170	0.026
-655.886	-48.242	-0.168	-0.082
-654.872	-107.700	-0.070	0.015
-653.857	153.200	-0.168	-0.231
-652.843	-200.000	-0.005	-0.288
-651.828	-42.164	-0.209	-0.107
-650.814	-62.601	-0.175	-0.073
-649.799	352.421	-0.112	-0.224
-648.784	-175.537	-0.070	0.002
-647.770	463.239	-0.168	0.377
-646.755	800.000	0.012	0.041
-645.741	100.951	-0.074	0.087
-644.726	-200.000	0.029	-0.232
-643.711	492.009	-0.208	-0.478
-642.697	800.000	0.086	0.265
-641.682	391.495	0.171	0.357
-640.668	20.487	0.161	0.130
-639.653	167.193	-0.003	0.004
-638.638	114.815	0.059	0.073
-637.624	353.242	-0.037	0.073
-636.609	-40.443	0.108	0.057
-635.595	-63.157	0.284	0.118
-634.580	-77.505	-0.242	0.084
-633.565	5.030	-0.118	-0.087
-632.551	-50.681	0.140	0.066
-631.536	-200.000	0.043	0.243
-630.522	-163.163	-0.064	0.003
-629.507	-9.125	-0.121	-0.082
-628.492	277.192	-0.065	-0.117
-627.478	134.695	0.314	-0.409
-626.463	800.000	-0.091	-0.277
-625.449	718.194	-0.051	-0.136
-624.434	-55.232	-0.167	-0.075
-623.419	-87.235	-0.406	0.124
-622.405	-200.000	0.266	0.000
-621.390	-36.667	-0.295	0.159
-620.376	-167.367	0.191	0.008
-619.361	-200.000	0.014	-0.247
-618.346	-200.000	-0.004	-0.060
-617.332	102.482	0.193	0.226
-616.317	-72.783	-0.441	-0.163
-615.303	-34.677	-0.202	0.111
-614.288	800.000	0.052	-0.221
-613.273	11.542	-0.255	-0.196
-612.259	24.009	-0.049	0.041
-611.244	-50.930	0.216	-0.102
-610.230	-200.000	0.006	0.061
-609.215	-200.000	0.015	-0.325
-608.201	800.000	0.055	-0.172
-607.186	-64.615	-0.173	-0.071
-606.171	311.077	0.125	0.236
-605.157	-128.198	0.315	-0.045
-604.142	-145.427	-0.138	-0.012
-603.128	28.483	0.216	-0.183
-602.113	-200.000	-0.038	-0.197
-601.098	800.000	-0.056	-0.157
-600.084	71.427	0.263	0.274
-599.069	159.382	-0.129	-0.180
-598.055	-138.165	-0.296	-0.033
-597.040	46.002	0.035	-0.033
-596.025	-120.720	-0.357	0.060
-595.011	-200.000	-0.038	-0.544
-593.996	-78.579	0.227	-0.078
-592.982	-200.000	0.050	-0.298
-591.967	221.143	-0.256	-0.412
-590.952	-58.024	-0.139	-0.061
-589.938	-200.000	-0.001	-0.030
-588.923	220.128	-0.092	-0.147
-587.909	-200.000	0.000	-0.203
-586.894	403.854	0.112	0.237
-585.879	-200.000	0.031	-0.139
-584.865	465.125	-0.141	0.316
-583.850	-7.085	0.105	-0.071
-582.836	-200.000	0.005	-0.127
-581.821	-142.660	0.238	0.023
-580.806	155.024	-0.061	-0.084
-579.792	-51.344	-0.228	0.107
-578.777	-200.000	-0.012	0.113
-577.763	-66.475	0.159	-0.063
-576.748	-54.456	0.250	0.113
-575.733	-102.284	0.135	0.033
-574.719	640.939	0.022	-0.057
-573.704	233.461	0.272	-0.449
-572.690	-104.026	-0.107	-0.025
-571.675	-200.000	-0.009	0.158
-570.661	343.641	0.165	0.323
-569.646	-47.458	-0.028	0.014
-568.631	-46.313	-0.256	-0.126
-567.617	82.156	0.114	0.123
-566.602	285.671	-0.141	-0.254
-565.588	-200.000	-0.001	-0.153
-564.573	-200.000	0.045	0.286
-563.558	77.158	0.184	-0.196
-562.544	199.876	-0.033	0.050
-561.529	-61.437	0.183	0.077
-560.515	-200.000	-0.006	-0.140
-559.500	-136.413	0.260	-0.030
-558.485	-191.404	-0.055	0.001
-557.471	-84.635	-0.201	-0.064
-556.456	629.414	-0.021	-0.052
-555.442	29.009	-0.193	-0.164
-554.427	-183.113	-0.153	-0.003
-553.412	117.559	0.109	-0.135
-552.398	800.000	0.148	-0.455
-551.383	74.461	0.147	-0.155
-550.369	-109.540	-0.165	-0.035
-549.354	-80.796	0.284	0.094
-548.339	-132.537	0.355	0.046
-547.325	246.261	0.032	-0.054
-546.310	-185.319	0.214	-0.003
-545.296	354.328	0.043	-0.086
-544.281	-106.419	0.330	-0.074
-543.266	800.000	-0.022	0.094
-542.252	-120.745	0.280	-0.047
-541.237	-125.606	0.167	0.025
-540.223	-200.000	0.002	-0.064
-539.208	-200.000	0.034	-0.345
-538.193	-200.000	0.008	0.250
-537.179	60.264	-0.154	0.153
-536.164	137.418	0.156	-0.204
-535.150	-200.000	0.019	-0.128
-534.135	-84.531	0.361	0.114
-533.121	-42.323	-0.168	0.086
-532.106	99.101	0.166	0.191
-531.091	3.858	0.201	-0.147
-530.077	44.286	0.144	0.132
-529.062	-82.169	-0.316	-0.103
-528.048	-37.589	-0.150	0.080
-527.033	-200.000	0.009	-0.078
-526.018	800.000	0.041	0.126
-525.004	-55.812	-0.118	-0.053
-523.989	-200.000	-0.174	0.000
-522.975	-28.533	0.115	0.066
-521.960	-200.000	0.078	0.410
-520.945	800.000	0.047	0.131
-519.931	16.091	-0.061	-0.048
-518.916	800.000	-0.070	-0.210
-517.902	-25.544	-0.295	0.174
-516.887	443.041	0.065	0.142
-515.872	22.748	0.225	0.184
-514.858	-200.000	-0.005	-0.068
-513.843	-35.029	0.136	-0.074
-512.829	4.816	0.207	-0.152
-511.814	-45.449	-0.100	-0.050
-510.799	176.907	-0.039	-0.057
-509.785	-200.000	0.027	-0.254
-508.770	800.000	0.101	-0.300
-507.756	0.981	0.095	-0.068
-506.741	395.998	0.103	0.215
-505.726	-80.173	-0.174	0.058
-504.712	800.000	-0.092	0.268
-503.697	-61.590	0.430	0.180
-502.683	258.759	0.060	0.103
-501.668	789.149	0.116	-0.319
-500.653	-16.097	0.312	-0.198
-499.639	-200.000	0.013	-0.152
-498.624	218.484	0.148	0.235
-497.610	147.611	0.161	0.216
-496.595	350.984	-0.072	0.143
-495.581	-200.000	-0.006	-0.203
-494.566	-128.942	-0.281	-0.039
-493.551	-91.120	-0.097	0.028
-492.537	-25.202	0.135	0.080
-491.522	391.076	0.101	-0.210
-490.508	-51.237	-0.419	-0.196
-489.493	171.313	-0.216	-0.309
-488.478	-200.000	-0.005	-0.059
-487.464	-104.984	-0.148	0.034
-486.449	-200.000	-0.065	0.346
-485.435	349.965	0.064	0.126
-484.420	-200.000	0.012	-0.095
-483.405	147.066	0.182	0.244
-482.391	-75.658	-0.197	-0.070
-481.376	-200.000	0.025	-0.260
-480.362	121.535	-0.174	0.217
-479.347	-167.083	0.087	0.004
-478.332	698.113	-0.148	0.389
-477.318	-68.716	0.137	-0.053
-476.303	4.815	0.173	-0.127
-475.289	-200.000	-0.015	0.141
-474.274	-66.872	-0.259	-0.102
-473.259	-149.975	0.227	-0.018
-472.245	192.674	0.199	-0.300
-471.230	800.000	0.054	-0.193
-470.216	53.165	-0.119	-0.114
-469.201	235.922	-0.073	0.121
-468.186	72.980	-0.179	0.187
-467.172	-72.525	-0.255	0.094
-466.157	800.000	-0.056	0.194
-465.143	-200.000	-0.042	-0.263
-464.128	565.123	-0.041	-0.098
-463.113	149.040	-0.025	0.034
-462.099	215.604	-0.169	0.268
-461.084	-200.000	-0.005	-0.313
-460.070	22.526	0.253	-0.206
-459.055	70.687	-0.222	0.229
-458.040	518.102	-0.246	0.575
-457.026	52.152	0.075	-0.071
-456.011	-87.736	0.228	-0.068
-454.997	-93.574	0.195	-0.054
-453.982	-113.006	0.251	0.049
-452.968	2.445	-0.373	-0.269
-451.953	46.264	0.123	-0.114
-450.938	800.000	0.048	0.188
-449.924	800.000	0.059	0.215
-448.909	-200.000	-0.053	-0.236
-447.895	-99.631	-0.176	0.044
-446.880	-36.861	-0.174	-0.093
-445.865	0.180	0.275	-0.195
-444.851	-200.000	-0.052	-0.371
-443.836	-59.031	-0.199	-0.086
-442.822	-200.000	0.017	0.137
-441.807	-116.557	0.363	-0.067
-440.792	-200.000	0.026	0.118
-439.778	-64.451	-0.188	0.076
-438.763	-200.000	0.021	-0.101
-437.749	611.217	0.069	-0.171
-436.734	-153.193	0.258	-0.018
-435.719	397.005	0.113	-0.236
-434.705	111.832	-0.225	0.271
-433.690	-66.540	-0.143	-0.057
-432.676	60.034	-0.096	0.095
-431.661	55.220	0.211	0.203
-430.646	406.094	-0.028	0.059
-429.632	-140.516	-0.237	-0.024
-428.617	-200.000	-0.021	-0.161
-427.603	603.179	0.033	-0.082
-426.588	147.686	-0.142	-0.191
-425.573	-199.150	0.638	0.003
-424.559	99.789	0.193	0.222
-423.544	311.325	0.208	-0.389
-422.530	-15.845	-0.235	-0.149
-421.515	-104.267	0.277	0.064
-420.500	52.833	0.106	-0.101
-419.486	800.000	-0.019	-0.078
-418.471	800.000	-0.025	0.095
-417.457	155.713	-0.126	-0.173
-416.442	-200.000	0.030	0.336
-415.428	310.306	-0.089	0.166
-414.413	-174.291	-0.151	-0.004
-413.398	93.529	0.135	0.152
-412.384	183.170	0.196	0.288
-411.369	800.000	0.040	0.127
-410.355	800.000	0.100	-0.341
-409.340	117.192	-0.060	0.073
-408.325	351.333	-0.044	0.086
-407.311	-131.572	-0.112	-0.015
-406.296	207.003	0.109	0.169
-405.282	-86.146	-0.328	-0.101
-404.267	183.513	-0.220	-0.324
-403.252	-200.000	-0.066	0.304
-402.238	-200.000	-0.014	0.096
-401.223	-91.265	0.195	0.056
-400.209	-39.654	-0.211	-0.110
-399.194	-86.072	0.087	-0.027
-398.179	-88.550	0.298	0.088
-397.165	369.924	0.113	0.227
-396.150	114.760	-0.166	-0.202
-395.136	-105.913	0.128	-0.029
-394.121	-139.546	-0.175	-0.019
-393.106	800.000	0.055	-0.222
-392.092	-46.620	-0.252	0.123
-391.077	106.785	0.071	0.084
-390.063	-95.873	0.051	-0.013
-389.048	181.687	-0.195	-0.286
-388.033	3.844	0.224	-0.163
-387.019	-200.000	-0.051	0.232
-386.004	100.373	0.189	0.218
-384.990	-38.190	-0.319	0.168
-383.975	623.073	-0.107	0.269
-382.960	225.567	-0.132	0.213
-381.946	366.488	0.073	-0.146
-380.931	10.115	0.306	0.231
-379.917	46.516	0.087	0.080
-378.902	47.432	-0.277	0.256
-377.888	-200.000	-0.000	0.118
-376.873	-26.808	-0.312	0.181
-375.858	249.790	0.261	0.440
-374.844	-180.288	-0.250	-0.005
-373.829	103.619	0.249	0.291
-372.815	196.461	-0.126	-0.191
-371.800	800.000	0.105	0.323
-370.785	-144.008	-0.086	-0.008
-369.771	-100.573	0.120	-0.029
-368.756	-200.000	0.059	0.299
-367.742	-131.542	0.268	-0.035
-366.727	27.675	0.159	-0.133
-365.712	199.843	0.056	-0.085
-364.698	165.084	-0.258	-0.362
-363.683	164.893	-0.133	-0.186
-362.669	-49.736	0.545	0.258
-361.654	61.938	0.218	0.216
-360.639	299.457	-0.091	-0.167
-359.625	-200.000	0.019	-0.096
-358.610	209.329	0.190	-0.296
-357.596	116.210	-0.114	0.139
-356.581	125.505	-0.092	0.115
-355.566	-200.000	-0.016	-0.350
-354.552	-133.534	0.105	-0.013
-353.537	-200.000	-0.025	-0.118
-352.523	-36.392	0.306	0.164
-351.508	-35.465	0.158	0.085
-350.493	-3.370	-0.128	0.088
-349.479	70.425	-0.123	0.126
-348.464	-79.715	0.234	-0.078
-347.450	-26.121	0.343	-0.200
-346.435	227.285	0.054	-0.087
-345.420	-71.390	0.154	0.057
-344.406	-74.772	-0.145	-0.052
-343.391	727.996	-0.114	-0.302
-342.377	-200.000	-0.005	0.103
-341.362	800.000	-0.014	-0.051
-340.348	-59.650	-0.122	0.052
-339.333	800.000	0.042	-0.151
-338.318	800.000	-0.052	0.178
-337.304	-147.108	0.195	-0.017
-336.289	800.000	-0.091	-0.278
-335.275	-200.000	-0.009	0.137
-334.260	-162.194	-0.200	-0.010
-333.245	-4.293	-0.231	0.159
-332.231	389.531	0.033	-0.068
-331.216	-200.000	-0.002	-0.150
-330.202	-141.587	0.310	-0.031
-329.187	-35.807	0.169	0.091
-328.172	-200.000	-0.023	-0.103
-327.158	219.936	-0.176	-0.279
-326.143	-71.954	-0.130	0.048
-325.129	-90.467	-0.336	-0.097
-324.114	68.265	0.135	0.137
-323.099	-67.769	-0.075	-0.029
-322.085	-146.327	0.277	0.024
-321.070	-127.627	-0.304	-0.044
-320.056	-89.654	-0.102	-0.030
-319.041	-124.694	0.062	-0.010
-318.026	800.000	0.082	0.349
-317.012	-148.743	-0.357	0.029
-315.997	-200.000	-0.055	0.250
-314.983	-108.872	-0.256	0.054
-313.968	-69.863	0.204	0.077
-312.953	332.854	-0.091	-0.173
-311.939	-200.000	-0.008	0.254
-310.924	630.024	-0.180	-0.450
-309.910	-144.176	0.215	0.020
-308.895	77.742	-0.145	0.153
-307.880	-77.097	-0.198	-0.068
-306.866	95.185	0.124	-0.140
-305.851	16.318	-0.116	0.091
-304.837	190.733	-0.168	-0.250
-303.822	-57.098	0.247	0.108
-302.807	-41.520	0.123	0.062
-301.793	800.000	-0.002	0.006
-300.778	48.041	-0.290	-0.268
-299.764	-130.917	0.154	0.020
-298.749	105.220	0.021	0.024
-297.735	176.183	0.152	0.219
-296.720	617.587	-0.115	0.287
-295.705	6.992	-0.082	-0.061
-294.691	-36.820	0.082	-0.044
-293.676	-97.932	-0.185	-0.047
-292.662	-87.132	0.242	-0.073
-291.647	-200.000	-0.037	0.164
-290.632	-200.000	-0.007	0.325
-289.618	-54.725	0.233	0.104
-288.603	364.473	-0.062	0.125
-287.589	287.246	0.224	-0.402
-286.574	-34.898	-0.273	0.147
-285.559	-200.000	0.009	0.075
-284.545	-114.948	-0.231	-0.044
-283.530	-82.890	-0.222	0.071
-282.516	800.000	0.023	-0.092
-281.501	-5.127	-0.028	0.019
-280.486	-132.307	-0.246	-0.032
-279.472	-124.487	-0.398	0.061
-278.457	-2.867	0.159	-0.110
-277.443	-200.000	0.009	0.168
-276.428	646.205	0.006	-0.015
-275.413	-134.022	0.121	-0.015
-274.399	-200.000	-0.012	0.080
-273.384	102.971	0.136	-0.158
-272.370	-200.000	0.006	0.176
-271.355	-200.000	-0.003	-0.102
-270.340	582.332	-0.132	0.321
-269.326	31.643	-0.227	0.193
-268.311	136.097	0.276	0.356
-267.297	800.000	0.073	0.290
-266.282	139.923	-0.156	-0.203
-265.267	-154.323	-0.285	0.019
-264.253	-93.345	-0.093	-0.025
-263.238	273.918	-0.085	-0.149
-262.224	79.847	0.173	0.183
-261.209	-52.705	-0.123	0.056
-260.195	6.746	-0.091	0.067
-259.180	-200.000	-0.005	-0.231
-258.165	-200.000	0.054	0.286
-257.151	47.857	0.114	-0.105
-256.136	-200.000	0.020	-0.182
-255.122	-25.280	0.264	-0.155
-254.107	-200.000	0.051	0.395
-253.092	-139.067	0.036	-0.004
-252.078	-47.372	-0.212	-0.102
-251.063	688.254	0.040	-0.104
-250.049	-200.000	0.036	-0.182
-249.034	116.376	-0.228	-0.276
-248.019	800.000	0.040	-0.127
-247.005	-93.533	-0.339	0.093
-245.990	-64.948	0.485	-0.194
-244.976	87.158	-0.104	0.113
-243.961	398.985	-0.073	-0.150
-242.946	-9.637	-0.314	0.207
-241.932	-200.000	0.005	0.133
-240.917	-153.607	-0.161	0.011
-239.903	283.984	-0.070	-0.124
-238.888	105.350	-0.158	0.184
-237.873	-200.000	0.018	-0.189
-236.859	6.319	0.132	-0.097
-235.844	-35.541	-0.202	0.108
-234.830	188.220	-0.110	-0.163
-233.815	797.405	-0.156	0.424
-232.800	-200.000	-0.043	0.240
-231.786	-56.457	-0.055	0.024
-230.771	-142.285	0.236	-0.023
-229.757	98.795	0.047	0.054
-228.742	800.000	-0.032	0.135
-227.727	660.736	-0.115	0.293
-226.713	-200.000	0.064	0.307
-225.698	42.319	0.299	-0.269
-224.684	-53.313	-0.069	0.031
-223.669	44.251	0.455	0.412
-222.655	800.000	-0.077	-0.261
-221.640	231.271	0.040	-0.064
-220.625	-38.789	0.317	-0.165
-219.611	24.504	0.086	-0.070
-218.596	261.168	0.070	-0.120
-217.582	207.851	-0.080	-0.123
-216.567	-25.206	-0.260	-0.152
-215.552	74.640	-0.363	0.378
-214.538	20.079	-0.449	0.357
-213.523	156.070	-0.280	0.382
-212.509	-200.000	0.057	0.260
-211.494	800.000	0.132	0.414
-210.479	597.386	-0.074	-0.182
-209.465	-200.000	-0.005	0.079
-208.450	800.000	0.047	0.142
-207.436	-200.000	0.006	-0.410
-206.421	800.000	-0.042	-0.114
-205.406	-103.220	0.326	0.076
-204.392	661.263	-0.172	-0.438
-203.377	50.162	0.012	0.011
-202.363	-14.602	-0.083	-0.053
-201.348	800.000	-0.017	-0.046
-200.333	-63.717	-0.183	-0.074
-199.319	-200.000	0.017	-0.213
-198.304	-67.912	0.108	0.042
-197.290	-15.731	-0.182	-0.115
-196.275	313.107	-0.226	0.420
-195.260	95.952	-0.140	-0.158
-194.246	110.152	0.090	-0.106
-193.231	-200.000	-0.001	-0.099
-192.217	181.184	-0.195	0.283
-191.202	16.952	0.102	-0.080
-190.187	10.622	-0.179	-0.135
-189.173	170.297	0.138	0.195
-188.158	-200.000	-0.008	0.320
-187.144	-200.000	0.000	0.014
-186.129	431.705	-0.043	0.093
-185.114	-200.000	-0.037	-0.181
-184.100	800.000	0.076	-0.283
-183.085	-200.000	0.006	-0.057
-182.071	298.684	0.198	0.359
-181.056	-53.967	0.203	0.091
-180.042	110.611	0.130	-0.154
-179.027	79.567	-0.154	0.164
-178.012	515.916	0.161	-0.370
-176.998	146.765	-0.169	0.224
-175.983	139.326	0.317	-0.411
-174.969	-157.096	0.265	-0.016
-173.954	-68.373	-0.053	-0.020
-172.939	-19.846	-0.086	-0.052
-171.925	-151.701	-0.341	-0.025
-170.910	-174.851	0.162	-0.004
-169.896	-200.000	0.013	-0.129
-168.881	264.514	-0.084	0.145
-167.866	-155.285	0.127	-0.008
-166.852	246.866	-0.086	-0.143
-165.837	-200.000	-0.033	0.147
-164.823	299.835	-0.047	0.085
-163.808	293.823	0.098	-0.176
-162.793	800.000	0.035	0.114
-161.779	330.234	0.088	0.167
-160.764	487.138	-0.153	0.345
-159.750	92.393	-0.283	0.314
-158.735	-50.667	-0.189	-0.088
-157.720	-200.000	-0.001	-0.154
-156.706	-87.127	0.097	-0.029
-155.691	-16.804	0.164	-0.102
-154.677	228.918	-0.077	0.124
-153.662	447.676	0.032	-0.070
-152.647	16.427	0.352	0.274
-151.633	281.595	-0.057	0.101
-150.618	29.850	0.086	-0.072
-149.604	150.984	-0.104	-0.139
-148.589	196.294	0.347	0.521
-147.574	800.000	0.089	0.335
-146.560	107.204	0.157	0.183
-145.545	106.005	0.144	0.168
-144.531	124.387	-0.196	0.243
-143.516	231.660	-0.193	0.312
-142.502	-200.000	-0.007	0.151
-141.487	-200.000	0.042	0.242
-140.472	800.000	-0.109	0.297
-139.458	361.001	-0.025	-0.050
-138.443	-200.000	-0.040	-0.253
-137.429	1.059	0.075	-0.053
-136.414	-78.265	-0.046	0.015
-135.399	127.875	0.115	-0.144
-134.385	-70.183	0.120	-0.045
-133.370	1.283	0.058	-0.041
-132.356	-200.000	-0.065	-0.344
-131.341	800.000	-0.008	-0.030
-130.326	-97.239	0.325	-0.084
-129.312	151.417	0.212	0.284
-128.297	308.753	0.137	-0.253
-127.283	157.824	-0.120	-0.163
-126.268	-7.597	-0.170	0.113
-125.253	3.007	0.334	0.239
-124.239	-121.706	-0.397	0.065
-123.224	-61.297	0.112	-0.046
-122.210	800.000	0.056	-0.198
-121.195	-200.000	-0.042	-0.275
-120.180	-17.140	-0.219	-0.136
-119.166	252.918	0.055	0.093
-118.151	-200.000	0.006	0.077
-117.137	230.223	0.166	0.267
-116.122	-200.000	0.006	-0.139
-115.107	-169.279	-0.258	-0.009
-114.093	15.859	-0.056	0.043
-113.078	-200.000	0.378	0.001
-112.064	-200.000	0.008	0.137
-111.049	-121.332	0.311	0.051
-110.034	-161.870	-0.300	0.015
-109.020	-103.404	0.264	-0.061
-108.005	150.363	-0.128	-0.170
-106.991	439.233	-0.042	-0.090
-105.976	-200.000	-0.001	0.177
-104.962	531.483	-0.052	0.121
-103.947	-200.000	0.013	-0.204
-102.932	-200.000	-0.029	0.167
-101.918	-75.444	0.247	-0.087
-100.903	310.090	0.249	0.458
-99.889	-200.000	0.083	0.424
-98.874	-200.000	0.065	0.374
-97.859	-78.824	0.364	0.122
-96.845	-19.977	-0.349	-0.212
-95.830	90.504	0.133	-0.146
-94.816	-69.436	-0.244	-0.092
-93.801	-64.954	0.064	0.025
-92.786	168.129	0.145	0.203
-91.772	73.021	-0.190	0.195
-90.757	-119.579	0.190	-0.032
-89.743	304.608	-0.086	-0.156
-88.728	229.122	0.208	0.334
-87.713	410.681	-0.214	0.447
-86.699	-200.000	0.009	0.124
-85.684	11.545	-0.038	0.029
-84.670	-30.524	0.160	0.089
-83.655	-140.306	-0.278	-0.029
-82.640	800.000	0.054	-0.191
-81.626	73.148	-0.168	0.172
-80.611	800.000	-0.078	0.262
-79.597	-200.000	-0.019	0.138
-78.582	560.166	0.036	-0.086
-77.567	-200.000	-0.026	-0.306
-76.553	286.508	0.192	0.341
-75.538	-147.266	0.145	0.012
-74.524	-198.399	-0.238	-0.001
-73.509	-95.532	-0.078	0.021
-72.494	800.000	0.057	0.192
-71.480	18.791	0.103	-0.081
-70.465	-132.904	-0.294	-0.037
-69.451	-106.326	0.063	-0.014
-68.436	-100.247	0.195	0.048
-67.422	800.000	0.070	0.243
-66.407	-140.776	0.158	0.016
-65.392	490.363	0.135	-0.303
-64.378	-200.000	-0.008	0.138
-63.363	-90.969	0.377	0.106
-62.349	-51.717	0.212	-0.097
-61.334	69.548	-0.875	-0.885
-60.319	79.784	0.374	0.395
-59.305	116.715	-0.487	-0.586
-58.290	102.488	0.840	0.964
-57.276	-200.000	0.236	1.674
-56.261	-200.000	95.995	584.080
-55.246	568.043	1368.936	3264.443
-54.232	162.429	2548.504	3508.558
-53.217	106.826	2261.906	2635.735
-52.203	41.903	1890.362	1682.987
-51.188	35.820	1680.426	1450.342
-50.173	33.075	1636.320	1392.038
-49.159	50.188	1683.070	1559.957
-48.144	52.001	1699.303	1588.479
-47.130	35.395	1660.135	1429.437
-46.115	32.598	1646.365	1396.825
-45.100	32.476	1641.290	1391.556
-44.086	32.432	1638.360	1388.694
-43.071	32.508	1635.509	1386.780
-42.057	32.380	1633.300	1383.912
-41.042	32.355	1631.569	1382.209
-40.027	32.490	1629.329	1381.248
-39.013	32.423	1627.426	1379.090
-37.998	32.340	1626.504	1377.644
-36.984	32.467	1624.195	1376.565
-35.969	32.507	1623.343	1376.078
-34.954	32.544	1621.383	1374.632
-33.940	32.452	1619.831	1372.593
-32.925	32.421	1618.459	1371.146
-31.911	32.539	1616.389	1370.201
-30.896	32.451	1614.977	1368.310
-29.881	32.409	1613.346	1366.568
-28.867	32.514	1611.569	1365.765
-27.852	32.499	1610.076	1364.336
-26.838	32.447	1608.417	1362.503
-25.823	32.438	1607.531	1361.633
-24.809	32.465	1605.935	1360.422
-23.794	32.528	1604.167	1359.324
-22.779	32.563	1602.676	1358.262
-21.765	32.521	1601.700	1357.075
-20.750	32.631	1599.431	1355.891
-19.736	32.554	1598.200	1354.241
-18.721	32.646	1596.449	1353.363
-17.706	32.616	1595.248	1352.081
-16.692	32.530	1593.812	1350.190
-15.677	32.616	1592.291	1349.463
-14.663	32.626	1591.161	1348.525
-13.648	32.572	1589.781	1346.914
-12.633	32.550	1588.049	1345.235
-11.619	32.586	1586.529	1344.153
-10.604	32.477	1585.635	1342.563
-9.590	32.583	1583.772	1341.693
-8.575	32.627	1582.524	1340.892
-7.560	32.472	1581.638	1338.987
-6.546	32.586	1580.362	1338.663
-5.531	32.585	1578.630	1337.136
-4.517	32.532	1578.061	1336.221
-3.502	32.524	1576.877	1335.114
-2.487	32.596	1575.287	1334.226
-1.473	32.236	1563.711	1321.834
-0.458	29.545	1544.339	1286.688
0.556	26.468	1545.624	1256.961
1.571	24.286	1569.336	1260.724
2.586	23.935	1582.512	1268.686
3.600	21.348	1530.427	1208.958
4.615	12.298	1420.670	1063.781
5.629	3.702	1354.772	961.048
6.644	2.221	1345.645	945.333
7.659	2.087	1344.925	943.916
8.673	2.033	1343.505	942.499
9.688	1.989	1341.665	940.857
10.702	1.764	1338.447	937.129
11.717	5.270	1345.906	963.936
12.731	15.352	1364.949	1040.303
13.746	23.917	1379.227	1104.530
14.761	26.118	1382.379	1120.637
15.775	26.488	1381.980	1122.512
16.790	26.519	1381.964	1122.590
17.804	26.714	1380.887	1122.826
18.819	26.833	1381.163	1123.688
19.834	27.038	1380.504	1124.321
20.848	27.013	1379.628	1123.357
21.863	27.020	1378.334	1122.245
22.877	26.931	1377.848	1121.197
23.892	27.108	1376.379	1120.996
24.907	26.996	1376.263	1120.115
25.921	26.985	1375.506	1119.331
26.936	27.060	1374.266	1118.686
27.950	26.978	1372.865	1116.941
28.965	26.975	1372.050	1116.159
29.980	27.080	1370.534	1115.471
30.994	26.982	1369.645	1114.046
32.009	27.096	1368.121	1113.407
33.023	27.041	1367.306	1112.309
34.038	26.977	1366.361	1111.048
35.053	27.049	1365.080	1110.353
36.067	27.110	1364.035	1109.778
37.082	26.985	1362.875	1107.971
38.096	27.019	1362.309	1107.618
39.111	27.086	1361.694	1107.429
40.126	26.958	1361.416	1106.324
41.140	26.982	1360.176	1105.371
42.155	27.037	1360.112	1105.553
43.169	27.085	1359.927	1105.595
44.184	26.965	1360.027	1104.850
45.199	26.908	1359.736	1104.165
46.213	27.024	1359.144	1104.297
47.228	27.040	1357.842	1103.237
48.242	27.068	1356.745	1102.421
49.257	27.086	1354.912	1100.937
50.271	27.076	1353.562	1099.682
51.286	26.973	1352.626	1098.202
52.301	27.026	1351.208	1097.276
53.315	27.019	1350.370	1096.454
54.330	27.021	1349.321	1095.521
55.344	26.989	1348.525	1094.585
56.359	27.049	1347.329	1093.876
57.374	26.930	1347.012	1092.805
58.388	26.932	1346.189	1092.054
59.403	26.959	1345.650	1091.680
60.417	27.020	1345.157	1091.551
61.432	27.053	1344.406	1091.046
62.447	27.026	1343.284	1089.876
63.461	27.043	1342.352	1089.122
64.476	26.981	1341.607	1088.052
65.490	27.136	1339.801	1087.421
66.505	27.096	1338.635	1086.138
67.520	26.977	1337.680	1084.558
68.534	26.928	1337.369	1083.916
69.549	26.956	1335.983	1082.863
70.563	27.102	1334.293	1082.265
71.578	27.017	1333.552	1081.066
72.593	27.022	1332.877	1080.453
73.607	26.942	1332.651	1079.696
74.622	26.999	1331.535	1079.036
75.636	27.053	1330.530	1078.447
76.651	27.003	1330.063	1077.675
77.666	27.074	1329.504	1077.550
78.680	26.984	1329.116	1076.603
79.695	27.036	1328.217	1076.092
80.709	27.123	1327.225	1075.707
81.724	27.102	1326.935	1075.252
82.739	27.068	1325.921	1074.137
83.753	27.014	1324.950	1072.933
84.768	27.041	1323.500	1071.825
85.782	27.034	1322.437	1070.826
86.797	27.030	1321.503	1069.951
87.812	27.031	1320.534	1069.075
88.826	27.039	1319.359	1068.077
89.841	27.072	1318.540	1067.513
90.855	27.089	1317.218	1066.451
91.870	27.108	1316.206	1065.650
92.884	27.169	1315.331	1065.202
93.899	27.168	1314.541	1064.466
94.914	27.172	1313.738	1063.741
95.928	27.089	1313.700	1063.134
96.943	27.077	1313.146	1062.519
97.957	27.109	1312.075	1061.745
98.972	27.111	1311.413	1061.125
99.987	27.052	1310.594	1060.030
101.001	27.001	1309.614	1058.844
102.016	26.975	1308.798	1057.935
103.030	26.989	1307.745	1057.073
104.045	27.138	1306.690	1056.998
105.060	27.131	1305.347	1055.772
106.074	27.204	1304.359	1055.304
107.089	27.109	1303.904	1054.296
108.103	27.138	1302.747	1053.432
109.118	27.081	1302.135	1052.512
110.133	27.161	1300.562	1051.614
111.147	27.165	1299.383	1050.589
112.162	27.107	1298.681	1049.594
113.176	27.272	1297.240	1049.287
114.191	27.170	1296.509	1048.017
115.206	27.170	1295.504	1047.112
116.220	27.159	1294.345	1046.019
117.235	27.119	1293.595	1045.092
118.249	27.136	1292.637	1044.322
119.264	27.184	1291.542	1043.620
120.279	27.106	1291.650	1043.167
121.293	27.215	1290.171	1042.508
122.308	27.184	1289.422	1041.631
123.322	27.186	1288.578	1040.867
124.337	27.191	1288.192	1040.492
125.352	27.362	1286.556	1040.057
126.366	27.306	1285.915	1039.124
127.381	27.192	1285.618	1038.143
128.395	27.111	1284.862	1036.981
129.410	27.219	1283.656	1036.529
130.424	27.124	1283.135	1035.473
131.439	27.155	1282.412	1034.979
132.454	27.139	1281.483	1034.045
133.468	27.251	1280.616	1033.888
134.483	27.226	1280.425	1033.501
135.497	27.165	1279.265	1032.129
136.512	27.204	1278.487	1031.629
137.527	27.097	1277.541	1030.168
138.541	27.155	1276.418	1029.501
139.556	27.114	1274.926	1027.972
140.570	27.090	1274.393	1027.315
141.585	27.196	1272.716	1026.475
142.600	27.214	1271.567	1025.557
143.614	27.228	1271.245	1025.287
144.629	27.234	1270.085	1024.293
145.643	27.159	1269.219	1023.080
146.658	27.091	1268.177	1021.772
147.673	27.150	1266.982	1021.049
148.687	27.151	1265.970	1020.149
149.702	27.092	1264.960	1018.914
150.716	27.248	1263.694	1018.674
151.731	27.185	1263.137	1017.785
152.746	27.205	1261.885	1016.797
153.760	27.294	1260.564	1016.142
154.775	27.259	1259.962	1015.368
155.789	27.252	1259.063	1014.518
156.804	27.276	1258.157	1013.828
157.819	27.179	1257.661	1012.801
158.833	27.323	1256.471	1012.554
159.848	27.209	1256.178	1011.594
160.862	27.283	1255.257	1011.175
161.877	27.274	1254.105	1010.106
162.892	27.296	1253.741	1009.847
163.906	27.313	1252.819	1009.107
164.921	27.273	1252.249	1008.339
165.935	27.267	1251.849	1007.895
166.950	27.317	1250.976	1007.378
167.964	27.421	1250.241	1007.274
168.979	27.398	1249.719	1006.638
169.994	27.285	1249.662	1005.878
171.008	27.311	1248.834	1005.266
172.023	27.365	1247.891	1004.717
173.037	27.451	1247.207	1004.549
174.052	27.259	1246.414	1002.764
175.067	27.388	1245.613	1002.740
176.081	27.335	1244.993	1001.864
177.096	27.332	1243.873	1000.854
178.110	27.380	1243.330	1000.591
179.125	27.405	1242.136	999.684
180.140	27.323	1241.090	998.300
181.154	27.328	1240.264	997.576
182.169	27.466	1239.068	997.280
183.183	27.374	1237.865	995.722
184.198	27.322	1237.062	994.704
185.213	27.457	1236.160	994.630
186.227	27.412	1235.664	993.894
187.242	27.416	1234.336	992.762
188.256	27.469	1233.800	992.529
189.271	27.489	1232.813	991.756
190.286	27.505	1231.736	990.891
191.300	27.390	1231.789	990.219
192.315	27.343	1231.256	989.447
193.329	27.427	1230.491	989.203
194.344	27.414	1230.320	988.905
195.359	27.438	1229.935	988.639
196.373	27.356	1229.069	987.413
197.388	27.387	1228.779	987.257
198.402	27.406	1228.260	986.857
199.417	27.519	1227.705	986.935
200.432	27.403	1227.138	985.764
201.446	27.468	1226.595	985.592
202.461	27.519	1225.616	984.993
203.475	27.352	1225.105	983.595
204.490	27.488	1224.229	983.539
205.504	27.425	1223.050	982.164
206.519	27.471	1222.573	981.941
207.534	27.600	1221.415	981.622
208.548	27.349	1220.748	979.649
209.563	27.579	1220.029	980.220
210.577	27.496	1219.096	978.941
211.592	27.504	1218.395	978.333
212.607	27.509	1217.619	977.651
213.621	27.592	1216.705	977.276
214.636	27.525	1216.273	976.482
215.650	27.521	1215.354	975.633
216.665	27.512	1214.342	974.691
217.680	27.527	1213.425	973.946
218.694	27.591	1212.537	973.488
219.709	27.542	1211.991	972.706
220.723	27.565	1211.693	972.501
221.738	27.569	1210.648	971.599
222.753	27.508	1209.951	970.626
223.767	27.602	1209.662	970.810
224.782	27.546	1209.187	970.047
225.796	27.578	1208.813	969.829
226.811	27.674	1207.917	969.535
227.826	27.592	1207.341	968.550
228.840	27.645	1206.787	968.304
229.855	27.684	1206.006	967.795
230.869	27.606	1205.428	966.834
231.884	27.632	1204.880	966.448
232.899	27.670	1203.887	965.767
233.913	27.798	1202.746	965.443
234.928	27.768	1202.723	965.182
235.942	27.694	1202.149	964.240
236.957	27.728	1201.207	963.583
237.972	27.717	1200.530	962.895
238.986	27.666	1199.982	962.101
240.001	27.729	1199.668	962.097
241.015	27.809	1199.125	961.999
242.030	27.859	1197.935	961.221
243.045	27.848	1197.068	960.382
244.059	27.896	1196.348	959.972
245.074	27.900	1195.509	959.232
246.088	27.821	1195.002	958.328
247.103	27.802	1194.286	957.568
248.117	27.862	1193.426	957.108
249.132	27.791	1192.683	956.057
250.147	27.898	1192.319	956.242
251.161	27.905	1191.432	955.481
252.176	27.953	1190.566	954.955
253.190	27.950	1189.976	954.382
254.205	27.908	1189.568	953.746
255.220	27.928	1188.954	953.276
256.234	27.838	1188.453	952.324
257.249	27.904	1187.529	951.843
258.263	27.957	1186.772	951.428
259.278	27.876	1186.706	950.867
260.293	27.922	1186.043	950.492
261.307	27.981	1185.449	950.238
262.322	27.927	1184.844	949.387
263.336	28.039	1184.253	949.411
264.351	28.011	1183.770	948.795
265.366	27.944	1183.141	947.858
266.380	27.947	1182.331	947.142
267.395	27.882	1181.533	946.084
268.409	27.967	1180.966	945.985
269.424	27.923	1180.895	945.618
270.439	28.023	1180.029	945.359
271.453	27.984	1179.466	944.621
272.468	27.931	1178.722	943.667
273.482	27.919	1178.169	943.079
274.497	28.039	1177.486	943.068
275.512	28.098	1176.726	942.678
276.526	28.056	1176.495	942.196
277.541	28.036	1175.657	941.338
278.555	28.115	1174.966	941.110
279.570	28.066	1174.090	940.070
280.585	28.104	1173.232	939.496
281.599	28.076	1172.359	938.572
282.614	28.113	1171.523	938.005
283.628	28.186	1170.637	937.591
284.643	28.181	1170.001	936.969
285.657	28.132	1169.048	935.876
286.672	28.026	1168.302	934.653
287.687	28.077	1167.766	934.400
288.701	28.251	1166.975	934.572
289.716	28.248	1165.936	933.645
290.730	28.211	1165.680	933.167
291.745	28.301	1164.877	932.903
292.760	28.105	1165.004	931.919
293.774	28.224	1163.979	931.623
294.789	28.337	1163.383	931.642
295.803	28.369	1161.935	930.563
296.818	28.420	1161.761	930.595
297.833	28.194	1161.629	929.261
298.847	28.290	1160.756	928.970
299.862	28.289	1159.757	928.080
300.876	28.399	1159.176	928.093
301.891	28.332	1158.832	927.396
302.906	28.420	1158.124	927.191
303.920	28.370	1157.746	926.554
304.935	28.387	1156.956	925.925
305.949	28.335	1155.916	924.749
306.964	28.416	1155.646	924.862
307.979	28.547	1154.725	924.701
308.993	28.567	1153.863	924.028
310.008	28.427	1153.397	922.870
311.022	28.344	1152.775	921.871
312.037	28.450	1152.076	921.766
313.052	28.382	1151.295	920.717
314.066	28.313	1150.609	919.742
315.081	28.315	1150.142	919.299
316.095	28.409	1148.962	918.743
317.110	28.499	1148.478	918.726
318.125	28.521	1147.575	918.034
319.139	28.487	1147.249	917.522
320.154	28.302	1147.394	916.629
321.168	28.463	1146.312	916.490
322.183	28.560	1145.706	916.409
323.197	28.432	1145.101	915.201
324.212	28.380	1144.596	914.461
325.227	28.427	1144.112	914.225
326.241	28.506	1143.546	914.088
327.256	28.568	1142.670	913.614
328.270	28.538	1141.559	912.494
329.285	28.631	1140.974	912.413
330.300	28.560	1140.458	911.563
331.314	28.619	1139.435	910.958
332.329	28.589	1139.273	910.601
333.343	28.556	1138.314	909.588
334.358	28.674	1137.342	909.316
335.373	28.774	1136.553	909.100
336.387	28.669	1136.036	908.087
337.402	28.844	1135.164	908.173
338.416	28.729	1134.734	907.183
339.431	28.695	1134.244	906.542
340.446	28.736	1133.566	906.121
341.460	28.823	1132.967	905.993
342.475	28.728	1132.275	904.892
343.489	28.673	1131.359	903.807
344.504	28.725	1130.168	903.032
345.519	28.718	1129.722	902.561
346.533	28.838	1128.576	902.153
347.548	28.735	1128.572	901.566
348.562	28.789	1127.585	900.962
349.577	28.691	1126.645	899.653
350.592	28.804	1126.072	899.668
351.606	28.786	1125.257	898.847
352.621	28.739	1124.768	898.150
353.635	28.826	1124.252	898.082
354.650	28.790	1123.386	897.134
355.665	28.977	1122.959	897.630
356.679	28.892	1122.344	896.642
357.694	28.993	1121.643	896.497
358.708	28.905	1121.044	895.507
359.723	28.890	1120.608	895.008
360.738	28.856	1119.884	894.184
361.752	28.845	1119.634	893.852
362.767	28.866	1118.973	893.347
363.781	29.015	1118.299	893.453
364.796	28.949	1117.666	892.549
365.810	29.002	1117.142	892.310
366.825	29.044	1116.334	891.788
367.840	29.004	1115.974	891.226
368.854	29.204	1115.002	891.341
369.869	29.137	1114.541	890.568
370.883	29.071	1114.014	889.751
371.898	29.178	1113.014	889.391
372.913	29.112	1112.526	888.601
373.927	29.093	1112.395	888.327
374.942	29.183	1111.728	888.150
375.956	29.137	1111.167	887.402
376.971	29.153	1110.640	886.980
377.986	29.086	1110.373	886.367
379.000	29.123	1109.749	885.967
380.015	29.181	1109.154	885.693
381.029	29.102	1108.601	884.791
382.044	29.168	1107.651	884.273
383.059	29.067	1107.551	883.631
384.073	29.308	1106.342	883.744
385.088	29.375	1105.213	883.084
386.102	29.217	1105.008	882.087
387.117	29.217	1103.602	880.883
388.132	29.290	1102.808	880.522
389.146	29.310	1102.291	880.126
390.161	29.211	1101.565	878.999
391.175	29.167	1101.529	878.680
392.190	29.318	1101.083	878.966
393.205	29.247	1100.101	877.764
394.219	29.242	1099.503	877.189
395.234	29.337	1098.156	876.487
396.248	29.353	1097.577	876.025
397.263	29.353	1096.892	875.402
398.278	29.448	1096.519	875.473
399.292	29.474	1095.763	874.919
400.307	29.415	1094.907	873.878
401.321	29.558	1094.442	874.106
402.336	29.407	1094.026	872.983
403.350	29.349	1092.904	871.737
404.365	29.478	1092.554	871.987
405.380	29.547	1091.976	871.777
406.394	29.541	1091.210	871.060
407.409	29.545	1090.372	870.332
408.423	29.557	1089.292	869.448
409.438	29.623	1089.172	869.588
410.453	29.603	1088.380	868.783
411.467	29.602	1087.692	868.151
412.482	29.528	1086.811	867.023
413.496	29.503	1086.211	866.354
414.511	29.628	1085.493	866.287
415.526	29.628	1085.491	866.211
416.540	29.608	1085.361	865.938
417.555	29.579	1084.485	865.027
418.569	29.754	1083.892	865.294
419.584	29.772	1083.445	864.947
420.599	29.667	1083.211	864.189
421.613	104.988	1321.010	1460.568
422.628	97.721	1355.646	1460.684
