DTS Sentinel unit serial number:	SN413079Multiplexer serial number:	ORYXHardware model number:	OX4-SRSoftware version number:	ORYX F/W v4.00 Oryx Data Collector v3.7.2.0data status	okinstallation	princeton_trtdifferential loss correction	single-endedforward channel	channel 2reverse channel	N/Adate	2019/09/12time	19:09:48forward acquisition time	15.00reverse acquisition time	0.00gamma	496.2192k internal	0.2324k external	0.2324temperature offset calibration	1.0152default loss term (dB/km)	0.3790temperature slope calibration	1.0000multiplexer offset coefficient	1.0000multiplexer slope coefficient	1.0000fibre end	0.00T internal ref (°C)	32.62T ext. ref 1 (°C)	3.23T ext. ref 2 (°C)	27.21length (m)	temperature (°C)	Stokes	anti-Stokes-747.200	-115.997	0.979	-0.184
-746.185	231.110	0.173	-0.285
-745.171	800.000	-0.208	0.700
-744.156	241.561	-0.216	0.364
-743.142	275.066	-0.116	0.208
-742.127	800.000	0.218	0.651
-741.112	-39.442	-0.121	-0.064
-740.098	-20.694	-0.326	-0.202
-739.083	609.164	0.102	-0.256
-738.069	35.734	-0.143	-0.127
-737.054	-52.477	0.222	-0.104
-736.039	5.922	-0.389	0.291
-735.025	32.887	0.611	-0.534
-734.010	-32.482	-0.056	0.032
-732.996	-84.891	0.778	0.246
-731.981	27.130	-0.234	-0.198
-730.966	96.406	-0.243	-0.281
-729.952	744.736	-0.051	-0.138
-728.937	192.452	0.136	-0.207
-727.923	330.546	-0.162	0.315
-726.908	-91.333	-0.637	-0.184
-725.894	163.233	-0.339	0.480
-724.879	70.014	0.800	0.832
-723.864	-120.380	0.183	-0.031
-722.850	303.318	-0.181	0.338
-721.835	800.000	0.136	0.525
-720.821	106.806	-0.385	0.461
-719.806	33.900	0.397	-0.349
-718.791	-67.292	-0.487	-0.193
-717.777	59.902	0.288	-0.287
-716.762	-200.000	-0.174	-0.894
-715.748	260.045	0.209	0.364
-714.733	45.645	-0.312	0.290
-713.718	800.000	0.098	0.383
-712.704	-69.534	0.750	-0.290
-711.689	-35.476	0.352	0.193
-710.675	-200.000	-0.142	0.925
-709.660	24.686	-0.590	0.493
-708.645	-149.896	-0.273	-0.021
-707.631	-44.346	-0.406	-0.205
-706.616	-200.000	0.063	0.323
-705.602	71.140	-0.616	-0.644
-704.587	-3.217	-0.202	0.142
-703.572	118.396	-0.240	0.299
-702.558	239.012	0.295	0.495
-701.543	-76.624	-0.621	0.219
-700.529	73.796	0.601	-0.635
-699.514	800.000	-0.179	0.644
-698.499	36.755	-0.130	0.116
-697.485	116.455	-0.536	0.662
-696.470	-200.000	0.110	-0.672
-695.456	59.571	-0.239	0.237
-694.441	-58.660	-0.795	-0.347
-693.426	69.863	0.625	-0.649
-692.412	-200.000	0.054	0.790
-691.397	-200.000	0.158	1.179
-690.383	800.000	-0.172	0.675
-689.368	-174.714	-0.359	0.010
-688.354	151.370	-0.359	0.493
-687.339	-38.438	0.705	-0.375
-686.324	24.289	-0.756	-0.629
-685.310	-200.000	-0.046	-0.833
-684.295	-200.000	0.016	-0.583
-683.281	-53.610	0.771	-0.355
-682.266	218.202	-0.330	0.530
-681.251	-200.000	0.029	-0.177
-680.237	-200.000	-0.098	-0.437
-679.222	-84.936	-0.529	-0.167
-678.208	-74.508	-0.626	0.227
-677.193	-147.820	-0.255	0.021
-676.178	-9.590	-0.624	-0.418
-675.164	124.221	-0.401	0.507
-674.149	479.076	0.296	-0.675
-673.135	186.849	-0.330	0.495
-672.120	-200.000	0.081	-0.601
-671.105	-98.170	-0.444	0.115
-670.091	344.855	-0.255	0.505
-669.076	170.023	-0.365	-0.525
-668.062	360.109	-0.104	0.208
-667.047	-200.000	0.033	0.495
-666.032	-169.525	-0.337	0.012
-665.018	-176.280	0.475	0.012
-664.003	-200.000	-0.072	-0.355
-662.989	408.631	0.190	0.405
-661.974	-128.088	0.548	0.079
-660.959	-200.000	0.102	0.893
-659.945	349.985	-0.470	-0.934
-658.930	-106.908	0.790	-0.176
-657.916	24.102	-0.234	-0.194
-656.901	-12.193	0.268	-0.176
-655.886	-68.418	0.610	-0.238
-654.872	-15.516	-0.663	-0.426
-653.857	800.000	-0.103	0.453
-652.843	-80.507	0.912	0.306
-651.828	800.000	-0.113	0.336
-650.814	226.794	0.328	0.536
-649.799	800.000	-0.066	-0.202
-648.784	1.039	0.460	-0.331
-647.770	-78.478	0.851	-0.293
-646.755	-200.000	-0.008	-0.073
-645.741	85.043	-0.763	-0.841
-644.726	48.595	0.244	0.230
-643.711	-31.452	0.700	0.396
-642.697	800.000	-0.299	-0.855
-641.682	83.671	-0.141	-0.154
-640.668	-58.143	0.663	0.291
-639.653	70.390	-0.692	-0.719
-638.638	-118.905	-0.858	0.151
-637.624	-79.743	0.071	-0.024
-636.609	22.429	-0.371	0.305
-635.595	256.812	-0.191	-0.330
-634.580	-122.598	0.444	0.072
-633.565	2.813	-0.120	-0.088
-632.551	-200.000	-0.078	-0.354
-631.536	343.697	-0.147	0.289
-630.522	205.243	0.474	0.740
-629.507	77.479	0.265	0.283
-628.492	800.000	-0.164	0.702
-627.478	122.765	0.317	-0.398
-626.463	21.228	0.543	-0.443
-625.449	-69.653	0.751	0.288
-624.434	-90.989	-0.931	0.269
-623.419	44.509	-0.160	-0.148
-622.405	-133.486	-1.073	-0.135
-621.390	105.177	-0.475	0.563
-620.376	-160.468	-0.377	0.020
-619.361	276.850	0.028	0.050
-618.346	-96.425	-0.271	-0.072
-617.332	-200.000	-0.019	-0.672
-616.317	177.759	0.471	-0.689
-615.303	572.865	-0.172	-0.421
-614.288	-200.000	0.079	-0.584
-613.273	22.529	0.652	-0.535
-612.259	2.952	0.520	-0.379
-611.244	61.572	-0.344	0.344
-610.230	800.000	0.344	-1.178
-609.215	91.441	-0.458	-0.517
-608.201	-115.429	-0.175	0.033
-607.186	149.171	0.328	0.446
-606.171	-90.221	-0.607	0.177
-605.157	375.779	-0.436	-0.893
-604.142	59.541	-0.656	-0.649
-603.128	-46.526	1.022	0.503
-602.113	142.278	-0.430	0.573
-601.098	800.000	0.218	-0.954
-600.084	-192.993	0.653	-0.006
-599.069	800.000	0.166	0.516
-598.055	8.071	-0.941	-0.708
-597.040	128.172	-0.522	-0.667
-596.025	98.888	0.598	0.693
-595.011	-172.600	0.243	0.008
-593.996	-48.820	-0.294	-0.141
-592.982	-200.000	-0.051	-0.590
-591.967	14.220	-1.149	-0.898
-590.952	-112.882	-0.128	-0.025
-589.938	15.940	0.448	0.354
-588.923	612.079	-0.258	0.648
-587.909	-65.125	1.167	-0.472
-586.894	-140.520	-0.600	0.063
-585.879	189.099	0.233	0.350
-584.865	-200.000	0.073	0.370
-583.850	-200.000	-0.013	-0.270
-582.836	800.000	-0.224	0.785
-581.821	800.000	-0.041	-0.145
-580.806	74.575	-0.246	-0.260
-579.792	800.000	-0.101	0.357
-578.777	-118.765	0.774	-0.137
-577.763	-141.334	-0.997	-0.101
-576.748	-68.354	0.506	-0.197
-575.733	-53.520	-0.500	-0.229
-574.719	-66.385	-0.189	0.075
-573.704	800.000	-0.144	0.564
-572.690	-85.601	-0.282	-0.088
-571.675	287.593	-0.304	0.551
-570.661	-33.736	0.809	0.447
-569.646	31.810	0.369	-0.318
-568.631	120.090	-0.202	0.252
-567.617	-144.978	-0.952	0.087
-566.602	-159.621	-0.040	0.002
-565.588	-158.234	-0.774	0.045
-564.573	-11.865	0.553	0.364
-563.558	-45.638	-0.371	-0.184
-562.544	359.615	0.121	0.242
-561.529	277.221	-0.366	0.652
-560.515	31.034	0.505	0.434
-559.500	-82.513	-0.707	0.230
-558.485	527.593	-0.200	-0.471
-557.471	-153.579	-1.023	-0.071
-556.456	35.599	0.226	0.199
-555.442	14.004	0.727	0.567
-554.427	298.141	0.574	-1.057
-553.412	496.036	0.475	-1.095
-552.398	430.152	-0.317	0.688
-551.383	793.571	-0.014	0.038
-550.369	-89.132	-0.257	-0.076
-549.354	-200.000	0.006	0.511
-548.339	75.856	-0.274	-0.290
-547.325	-70.077	0.448	-0.171
-546.310	-172.680	-0.708	-0.022
-545.296	13.040	-0.657	-0.510
-544.281	280.126	-0.406	-0.726
-543.266	-108.182	-0.308	-0.067
-542.252	-74.182	0.294	0.107
-541.237	800.000	-0.204	0.724
-540.223	-135.807	0.793	-0.094
-539.208	46.233	-0.702	-0.651
-538.193	-97.439	-0.862	-0.224
-537.179	38.783	-0.340	0.304
-536.164	-164.041	0.616	-0.029
-535.150	800.000	0.286	-1.212
-534.135	-34.106	0.489	-0.269
-533.121	-133.485	-0.462	-0.058
-532.106	324.757	-0.136	-0.261
-531.091	-31.386	0.795	-0.448
-530.077	-6.992	0.734	0.499
-529.062	8.922	-0.255	0.193
-528.048	459.725	-0.430	0.959
-527.033	-167.757	-0.447	-0.018
-526.018	241.014	-0.288	-0.481
-525.004	-126.132	-0.622	-0.093
-523.989	-200.000	-0.194	0.922
-522.975	-22.020	-0.247	-0.150
-521.960	144.428	-0.415	0.555
-520.945	-39.097	0.903	0.475
-519.931	150.369	0.032	0.044
-518.916	-73.029	0.741	-0.272
-517.902	-92.779	0.459	0.129
-516.887	-200.000	0.087	-0.457
-515.872	126.453	-0.809	-1.024
-514.858	-52.772	-0.595	0.274
-513.843	592.263	-0.304	-0.752
-512.829	-83.181	0.545	0.175
-511.814	-200.000	0.054	-0.395
-510.799	-85.190	-0.181	-0.057
-509.785	550.525	-0.391	-0.938
-508.770	-200.000	-0.020	0.256
-507.756	-32.688	0.753	0.419
-506.741	-200.000	-0.014	0.076
-505.726	405.434	0.106	-0.224
-504.712	800.000	-0.071	0.280
-503.697	-130.151	0.477	0.065
-502.683	507.462	0.120	-0.279
-501.668	-146.109	-0.867	-0.076
-500.653	259.564	-0.155	0.268
-499.639	-200.000	0.043	-0.320
-498.624	-113.008	0.125	-0.025
-497.610	-22.291	0.695	0.421
-496.595	80.137	-0.585	-0.629
-495.581	800.000	0.168	-0.597
-494.566	-200.000	0.106	0.530
-493.551	-18.005	-0.141	0.088
-492.537	-200.000	-0.005	0.088
-491.522	-0.433	-1.522	1.081
-490.508	-41.713	0.414	0.212
-489.493	24.502	0.384	-0.317
-488.478	370.446	0.469	0.950
-487.464	-59.931	-0.854	0.365
-486.449	-76.055	-0.583	-0.206
-485.435	-82.992	-1.271	0.409
-484.420	-99.384	0.305	0.077
-483.405	800.000	0.132	0.504
-482.391	19.383	0.304	0.244
-481.376	-200.000	-0.007	-0.214
-480.362	131.406	0.432	0.555
-479.347	414.814	-0.194	0.413
-478.332	534.548	0.058	0.137
-477.318	-200.000	-0.069	-0.407
-476.303	-99.790	0.472	0.118
-475.289	-121.318	-0.824	-0.137
-474.274	800.000	-0.082	-0.325
-473.259	187.833	-0.295	-0.440
-472.245	-200.000	0.046	0.590
-471.230	-50.643	-0.459	-0.216
-470.216	-110.102	0.395	-0.082
-469.201	156.849	-0.696	-0.960
-468.186	150.568	-0.236	0.320
-467.172	-139.096	0.238	0.026
-466.157	131.375	0.244	0.313
-465.143	-54.153	0.501	0.227
-464.128	-31.472	0.507	0.285
-463.113	48.750	-0.365	0.342
-462.099	-169.905	0.470	0.017
-461.084	231.251	-0.105	0.172
-460.070	83.795	0.245	-0.267
-459.055	-8.750	-0.276	-0.185
-458.040	651.795	-0.234	-0.598
-457.026	800.000	0.361	1.081
-456.011	-200.000	-0.068	-0.893
-454.997	800.000	0.245	-0.883
-453.982	-10.174	-0.822	0.545
-452.968	-107.907	0.388	0.084
-451.953	-36.334	-0.448	0.241
-450.938	-98.658	0.460	-0.117
-449.924	22.170	0.126	0.103
-448.909	-96.518	0.888	-0.234
-447.895	41.734	0.052	-0.047
-446.880	-147.642	0.373	-0.031
-445.865	32.938	0.311	0.269
-444.851	-200.000	-0.165	1.058
-443.836	60.580	0.269	0.266
-442.822	-71.700	0.360	0.134
-441.807	-200.000	0.005	0.065
-440.792	-89.612	0.521	-0.152
-439.778	42.619	-0.335	-0.304
-438.763	100.601	-0.273	0.317
-437.749	-200.000	0.169	0.867
-436.734	-200.000	-0.006	0.401
-435.719	-89.911	0.220	0.064
-434.705	129.579	0.677	0.863
-433.690	-26.626	0.514	-0.300
-432.676	21.310	-0.472	0.382
-431.661	-200.000	0.017	-0.335
-430.646	-63.912	0.327	0.133
-429.632	800.000	-0.224	-0.714
-428.617	146.908	-0.186	0.250
-427.603	517.919	0.142	0.331
-426.588	186.987	-0.598	0.889
-425.573	-52.445	-0.412	-0.190
-424.559	800.000	0.246	0.685
-423.544	-200.000	-0.001	-0.113
-422.530	-104.490	1.268	-0.292
-421.515	56.558	0.393	0.381
-420.500	-70.172	-0.979	-0.371
-419.486	182.889	0.226	0.333
-418.471	800.000	-0.307	1.246
-417.457	70.932	0.245	-0.253
-416.442	155.786	-0.376	0.516
-415.428	-140.797	0.270	-0.028
-414.413	-45.634	0.669	-0.330
-413.398	583.808	0.209	0.512
-412.384	-94.174	-0.702	0.192
-411.369	-200.000	0.049	0.590
-410.355	800.000	0.173	0.527
-409.340	487.792	0.260	-0.591
-408.325	-136.572	-0.302	0.035
-407.311	-200.000	0.038	0.456
-406.296	9.565	-0.408	0.308
-405.282	245.011	-0.524	0.877
-404.267	-83.592	0.635	-0.202
-403.252	-200.000	-0.030	-0.511
-402.238	37.777	0.299	-0.265
-401.223	-200.000	0.002	-0.169
-400.209	192.489	-0.141	0.212
-399.194	-115.377	-0.587	0.110
-398.179	-59.693	-0.325	-0.139
-397.165	-144.687	-0.364	0.033
-396.150	-107.484	0.496	-0.108
-395.136	281.916	-0.265	-0.472
-394.121	-200.000	-0.158	0.693
-393.106	10.490	0.386	0.293
-392.092	-149.414	-0.459	-0.036
-391.077	-200.000	0.139	0.611
-390.063	-124.194	1.378	0.215
-389.048	55.946	0.217	-0.209
-388.033	-101.967	0.987	0.237
-387.019	-200.000	0.138	-0.620
-386.004	30.657	-0.209	0.178
-384.990	800.000	-0.117	-0.465
-383.975	-200.000	-0.214	-1.230
-382.960	-7.741	-0.258	-0.174
-381.946	-147.210	-0.496	0.042
-380.931	23.764	-0.320	0.262
-379.917	800.000	0.281	-0.896
-378.902	-200.000	0.088	0.481
-377.888	-150.635	0.141	0.011
-376.873	238.117	0.377	-0.622
-375.858	-200.000	-0.041	-1.479
-374.844	50.242	0.273	-0.257
-373.829	165.361	0.060	-0.085
-372.815	132.147	0.555	-0.711
-371.800	-88.352	-0.618	-0.184
-370.785	-76.911	-0.594	-0.207
-369.771	-60.150	-0.101	-0.043
-368.756	-120.079	-0.483	0.082
-367.742	108.091	-0.262	-0.311
-366.727	-8.069	0.283	0.190
-365.712	24.995	0.603	-0.498
-364.698	160.695	-0.170	-0.236
-363.683	-200.000	1.203	0.001
-362.669	-166.191	0.479	0.020
-361.654	79.876	-0.150	0.160
-360.639	-13.632	0.245	-0.158
-359.625	518.546	0.147	-0.342
-358.610	126.046	-0.243	-0.305
-357.596	-122.811	-0.672	0.108
-356.581	-170.801	-0.760	0.026
-355.566	-200.000	-0.034	0.907
-354.552	-67.528	-0.511	-0.199
-353.537	800.000	-0.124	0.400
-352.523	23.345	0.697	-0.569
-351.508	800.000	-0.279	-0.891
-350.493	-149.811	-0.187	-0.015
-349.479	173.554	0.138	-0.198
-348.464	800.000	-0.113	-0.407
-347.450	-200.000	-0.025	-0.682
-346.435	-67.125	-0.354	0.139
-345.420	235.829	-0.361	-0.593
-344.406	-86.962	0.928	0.281
-343.391	-22.799	-0.313	0.188
-342.377	164.699	0.548	-0.768
-341.362	265.163	-0.094	-0.163
-340.348	-53.402	-0.471	0.214
-339.333	-96.923	-0.740	0.193
-338.318	-200.000	-0.031	0.866
-337.304	102.872	-0.321	-0.373
-336.289	-71.241	0.537	-0.200
-335.275	521.333	0.155	0.362
-334.260	-200.000	-0.021	0.212
-333.245	-75.182	0.416	0.148
-332.231	395.820	-0.142	0.294
-331.216	502.688	-0.195	0.448
-330.202	800.000	0.097	0.293
-329.187	-28.568	0.574	0.328
-328.172	-6.235	-0.574	0.389
-327.158	26.841	-0.367	0.305
-326.143	56.856	0.401	-0.388
-325.129	38.555	0.262	0.232
-324.114	-96.759	0.476	0.124
-323.099	-134.196	-0.419	-0.051
-322.085	26.334	0.412	0.342
-321.070	800.000	0.116	0.488
-320.056	-200.000	-0.024	-0.464
-319.041	800.000	0.313	-0.865
-318.026	476.678	0.105	0.236
-317.012	-155.563	-0.367	-0.023
-315.997	-50.456	-0.427	0.200
-314.983	-47.161	0.491	-0.238
-313.968	103.701	0.043	0.050
-312.953	-100.154	0.403	0.100
-311.939	-200.000	0.016	-0.120
-310.924	69.989	0.549	-0.562
-309.910	67.925	-0.377	-0.382
-308.895	525.655	-0.179	-0.418
-307.880	-86.315	0.535	-0.163
-306.866	-200.000	0.104	0.957
-305.851	800.000	0.130	0.436
-304.837	11.807	0.448	0.342
-303.822	-84.904	0.765	0.238
-302.807	800.000	-0.079	-0.295
-301.793	800.000	-0.027	-0.088
-300.778	-65.394	0.517	0.206
-299.764	740.665	-0.221	0.588
-298.749	49.356	0.553	0.516
-297.735	4.482	-0.591	0.430
-296.720	117.687	-0.420	-0.513
-295.705	-4.782	0.600	0.411
-294.691	257.962	-0.090	-0.154
-293.676	188.536	-0.177	-0.262
-292.662	-200.000	0.077	0.367
-291.647	-152.212	-0.310	-0.022
-290.632	-200.000	0.037	0.229
-289.618	49.015	0.449	0.418
-288.603	-200.000	0.149	0.954
-287.589	-35.811	-0.448	0.240
-286.574	-30.761	0.318	0.178
-285.559	-48.261	0.286	-0.137
-284.545	-87.204	0.681	-0.205
-283.530	-38.714	-0.435	-0.227
-282.516	-97.772	-0.431	0.110
-281.501	249.767	-0.194	-0.327
-280.486	800.000	-0.224	0.613
-279.472	-64.952	0.317	0.127
-278.457	-151.607	-0.275	-0.020
-277.443	-32.101	0.545	-0.302
-276.428	199.909	-0.071	0.109
-275.413	-200.000	0.032	1.185
-274.399	-137.538	-0.262	-0.029
-273.384	-117.253	0.175	0.032
-272.370	-68.595	0.572	0.220
-271.355	700.951	-0.197	0.515
-270.340	-83.135	-0.530	0.169
-269.326	93.614	-0.316	0.355
-268.311	-106.481	-0.689	0.152
-267.297	207.415	-0.162	-0.251
-266.282	-54.578	1.125	-0.504
-265.267	630.424	0.184	-0.460
-264.253	-93.787	0.631	-0.172
-263.238	738.617	-0.186	0.496
-262.224	800.000	0.167	-0.625
-261.209	-103.143	1.054	-0.247
-260.195	549.801	0.237	0.564
-259.180	800.000	0.029	-0.089
-258.165	-200.000	-0.109	-0.786
-257.151	-67.938	0.182	0.070
-256.136	6.231	-0.403	0.296
-255.122	544.789	-0.316	-0.747
-254.107	93.234	-0.036	-0.041
-253.092	-59.382	-1.085	-0.462
-252.078	-8.545	0.468	0.311
-251.063	-68.034	-0.398	0.154
-250.049	698.928	-0.125	0.326
-249.034	-34.193	-0.408	0.222
-248.019	571.811	0.153	-0.370
-247.005	-200.000	-0.129	0.612
-245.990	66.572	0.270	-0.272
-244.976	-159.148	-0.815	-0.046
-243.961	800.000	0.136	-0.571
-242.946	136.961	0.256	-0.331
-241.932	-200.000	-0.104	-0.462
-240.917	51.835	0.435	-0.409
-239.903	106.526	-0.699	0.820
-238.888	-124.840	-0.459	-0.070
-237.873	-141.392	0.654	0.066
-236.859	572.712	0.146	0.353
-235.844	67.721	0.259	-0.262
-234.830	800.000	0.231	-0.971
-233.815	-200.000	-0.159	-0.697
-232.800	-107.257	0.698	0.152
-231.786	226.359	0.144	-0.232
-230.771	-163.297	0.329	-0.016
-229.757	-93.989	-0.329	-0.089
-228.742	63.482	0.341	-0.338
-227.727	242.636	0.196	-0.325
-226.713	382.233	0.117	-0.238
-225.698	-76.746	-0.717	0.248
-224.684	-85.671	-0.317	0.097
-223.669	30.887	-0.308	-0.261
-222.655	298.933	-0.300	0.547
-221.640	-24.153	0.316	0.186
-220.625	-99.333	-0.804	-0.201
-219.611	-200.000	0.016	0.268
-218.596	-200.000	0.129	-0.592
-217.582	-79.199	-0.535	-0.179
-216.567	-169.688	0.367	0.013
-215.552	-16.610	0.957	0.599
-214.538	-17.509	-0.176	-0.110
-213.523	624.836	-0.067	-0.166
-212.509	117.973	-0.386	0.471
-211.494	-172.845	1.762	-0.054
-210.479	303.596	-0.096	0.175
-209.465	-200.000	-0.037	0.551
-208.450	-41.826	0.425	-0.215
-207.436	25.040	-0.342	0.280
-206.421	-65.102	-0.443	-0.177
-205.406	-26.734	0.283	0.164
-204.392	-200.000	0.069	-0.657
-203.377	-200.000	-0.001	0.174
-202.363	-137.025	0.370	0.042
-201.348	-200.000	-0.001	0.303
-200.333	212.173	0.053	-0.082
-199.319	652.080	-0.189	0.478
-198.304	800.000	0.038	-0.130
-197.290	-2.523	-0.946	0.654
-196.275	29.858	-0.601	-0.506
-195.260	84.910	0.191	0.207
-194.246	-200.000	-0.022	0.240
-193.231	-19.460	-0.396	-0.242
-192.217	-92.692	0.285	0.079
-191.202	800.000	0.236	-0.689
-190.187	22.235	0.283	0.228
-189.173	231.809	-0.154	0.250
-188.158	-200.000	0.089	-0.750
-187.144	-107.102	-0.187	-0.041
-186.129	-88.528	0.465	-0.137
-185.114	-62.777	0.480	-0.196
-184.100	296.486	-0.359	0.651
-183.085	406.740	-0.319	-0.664
-182.071	79.272	0.348	0.368
-181.056	286.043	0.369	-0.657
-180.042	-189.602	0.692	-0.008
-179.027	4.568	-0.411	0.298
-178.012	-157.110	0.368	-0.022
-176.998	-10.412	-0.918	-0.600
-175.983	-200.000	-0.063	0.427
-174.969	800.000	-0.137	-0.438
-173.954	71.471	0.553	0.567
-172.939	587.532	-0.109	0.264
-171.925	-120.624	1.216	0.203
-170.910	15.865	-0.249	0.193
-169.896	156.787	-0.151	0.205
-168.881	-200.000	0.020	-0.318
-167.866	241.099	-0.103	-0.170
-166.852	110.417	-0.084	0.100
-165.837	660.639	0.285	-0.725
-164.823	580.413	-0.389	0.941
-163.808	800.000	-0.067	-0.197
-162.793	-200.000	0.018	0.178
-161.779	114.066	0.535	0.642
-160.764	65.267	0.417	-0.416
-159.750	-45.344	0.474	0.232
-158.735	-145.842	-1.376	0.121
-157.720	-200.000	-0.004	0.194
-156.706	-200.000	0.002	0.354
-155.691	-68.855	-0.804	-0.306
-154.677	-127.056	-0.666	-0.096
-153.662	177.355	0.321	0.461
-152.647	-125.702	0.583	-0.087
-151.633	-153.184	0.227	-0.016
-150.618	-200.000	-0.051	0.714
-149.604	42.652	0.929	-0.834
-148.589	-94.910	-0.282	0.075
-147.574	-69.675	-1.089	-0.411
-146.560	71.430	0.312	0.319
-145.545	-46.001	-0.265	0.129
-144.531	239.743	-0.163	-0.268
-143.516	-30.145	0.328	0.184
-142.502	191.906	-0.392	-0.583
-141.487	163.408	0.463	0.642
-140.472	-200.000	-0.026	-0.554
-139.458	642.028	0.101	-0.254
-138.443	157.231	-0.283	0.386
-137.429	-59.168	0.199	0.084
-136.414	-21.032	0.393	-0.237
-135.399	92.813	-0.539	-0.600
-134.385	-7.112	-0.200	-0.133
-133.370	63.009	-0.179	-0.177
-132.356	-20.048	-0.238	-0.145
-131.341	43.604	0.254	0.229
-130.326	-49.251	0.336	-0.158
-129.312	800.000	-0.283	-0.797
-128.297	-135.071	-0.473	-0.056
-127.283	160.900	-0.156	-0.214
-126.268	-68.301	0.281	0.108
-125.253	-47.807	-0.392	0.187
-124.239	800.000	-0.064	0.258
-123.224	-90.697	-0.300	-0.085
-122.210	112.109	0.312	0.371
-121.195	-148.734	-0.472	-0.038
-120.180	105.066	0.605	0.703
-119.166	-33.273	-0.204	-0.112
-118.151	-82.625	0.221	-0.071
-117.137	-114.387	0.370	-0.070
-116.122	-136.862	-0.553	-0.063
-115.107	-101.685	-1.362	0.325
-114.093	-200.000	-0.084	-0.433
-113.078	106.497	0.395	0.461
-112.064	161.286	0.198	-0.272
-111.049	-200.000	-0.050	-0.337
-110.034	800.000	0.127	-0.456
-109.020	-200.000	-0.074	0.380
-108.005	163.829	0.546	-0.757
-106.991	412.861	-0.372	0.778
-105.976	421.767	0.244	0.516
-104.962	800.000	-0.348	1.154
-103.947	10.322	0.261	0.196
-102.932	-14.536	-0.504	-0.319
-101.918	-67.620	0.053	0.020
-100.903	-26.476	-0.661	0.381
-99.889	383.540	-0.100	0.203
-98.874	-139.525	0.743	-0.078
-97.859	-200.000	0.049	0.458
-96.845	-5.550	-0.389	0.262
-95.830	-139.505	0.574	0.060
-94.816	-200.000	-0.058	0.609
-93.801	-179.696	-0.287	0.006
-92.786	-104.851	-0.418	0.095
-91.772	-150.781	0.161	0.012
-90.757	-149.139	0.795	-0.063
-89.743	800.000	-0.041	-0.173
-88.728	-44.087	-0.560	-0.277
-87.713	204.515	-0.297	0.453
-86.699	-22.754	-0.467	-0.277
-85.684	-112.845	0.315	0.061
-84.670	184.345	0.269	-0.392
-83.655	800.000	-0.145	-0.593
-82.640	-200.000	0.090	-0.435
-81.626	16.065	0.505	0.391
-80.611	-101.229	0.359	-0.086
-79.597	-19.751	-0.511	0.310
-78.582	-200.000	0.110	-0.799
-77.567	-77.617	-0.646	0.220
-76.553	557.327	0.141	0.334
-75.538	-11.844	0.300	0.194
-74.524	9.362	0.261	0.194
-73.509	218.801	0.229	-0.360
-72.494	-200.000	0.009	0.686
-71.480	-100.309	0.436	-0.106
-70.465	172.057	0.137	-0.194
-69.451	-17.851	0.470	0.290
-68.436	-100.384	0.432	0.105
-67.422	-177.102	-0.602	0.015
-66.407	-200.000	-0.070	-0.416
-65.392	800.000	-0.235	0.847
-64.378	441.774	0.204	-0.439
-63.363	-0.750	0.437	0.304
-62.349	-34.454	-0.392	-0.211
-61.334	-200.000	-0.210	-1.349
-60.319	748.924	-0.119	0.314
-59.305	551.875	-0.559	-1.319
-58.290	453.523	0.477	1.038
-57.276	245.481	0.848	1.403
-56.261	-200.000	95.673	590.839
-55.246	679.862	1355.258	3466.211
-54.232	203.933	2523.477	3839.121
-53.217	113.725	2244.872	2679.658
-52.203	42.255	1879.607	1677.698
-51.188	35.980	1671.523	1445.015
-50.173	33.142	1629.999	1388.263
-49.159	51.632	1678.120	1567.272
-48.144	52.207	1694.167	1586.477
-47.130	35.398	1654.631	1425.864
-46.115	32.648	1640.194	1393.073
-45.100	32.665	1635.183	1388.884
-44.086	32.461	1632.944	1385.428
-43.071	32.612	1630.089	1384.055
-42.057	32.537	1627.757	1381.471
-41.042	32.629	1625.229	1379.948
-40.027	32.552	1623.880	1378.182
-39.013	32.561	1621.771	1376.402
-37.998	32.445	1620.224	1374.187
-36.984	32.437	1619.015	1373.051
-35.969	32.700	1617.142	1373.323
-34.954	32.675	1615.970	1372.095
-33.940	32.661	1614.052	1370.311
-32.925	32.619	1611.637	1367.900
-31.911	32.610	1610.852	1367.114
-30.896	32.619	1608.504	1365.130
-29.881	32.602	1607.310	1363.940
-28.867	32.739	1605.772	1363.572
-27.852	32.404	1605.056	1360.487
-26.838	32.597	1602.591	1359.742
-25.823	32.704	1601.939	1359.902
-24.809	32.677	1599.362	1357.467
-23.794	32.593	1599.787	1357.168
-22.779	32.670	1596.209	1354.631
-21.765	32.744	1595.797	1354.762
-20.750	32.489	1594.843	1352.067
-19.736	32.488	1592.423	1349.956
-18.721	32.494	1591.886	1349.489
-17.706	32.705	1588.888	1348.405
-16.692	32.516	1588.570	1346.725
-15.677	32.479	1586.597	1344.734
-14.663	32.798	1584.726	1345.375
-13.648	32.905	1583.540	1345.074
-12.633	32.716	1582.190	1342.531
-11.619	32.616	1581.343	1341.045
-10.604	32.753	1579.205	1340.153
-9.590	32.749	1577.325	1338.474
-8.575	32.547	1577.094	1336.790
-7.560	32.844	1575.009	1337.078
-6.546	32.610	1574.490	1334.929
-5.531	32.742	1572.907	1334.464
-4.517	32.864	1571.087	1333.730
-3.502	32.781	1570.654	1332.724
-2.487	32.993	1568.493	1332.332
-1.473	32.470	1556.841	1318.721
-0.458	29.641	1537.916	1283.028
0.556	27.099	1539.821	1249.864
1.571	24.802	1560.970	1250.882
2.586	24.218	1574.030	1257.118
3.600	21.597	1520.627	1196.471
4.615	12.715	1413.212	1055.194
5.629	5.002	1348.568	959.521
6.644	3.094	1341.156	942.480
7.659	3.301	1339.361	942.401
8.673	3.455	1338.293	942.503
9.688	3.071	1337.649	939.620
10.702	3.212	1333.098	937.200
11.717	6.329	1340.961	961.716
12.731	15.940	1357.794	1032.905
13.746	23.555	1368.700	1088.001
14.761	25.150	1370.851	1099.402
15.775	25.435	1370.425	1100.709
16.790	25.020	1369.408	1097.251
17.804	24.732	1368.801	1094.905
18.819	24.590	1369.089	1094.169
19.834	25.113	1366.797	1095.441
20.848	24.864	1367.290	1094.217
21.863	24.972	1366.515	1094.156
22.877	25.168	1365.098	1094.122
23.892	25.090	1363.570	1092.323
24.907	24.801	1364.291	1091.045
25.921	25.014	1362.744	1091.005
26.936	25.058	1361.427	1090.121
27.950	25.289	1359.295	1089.724
28.965	24.861	1360.397	1087.909
29.980	25.006	1359.544	1088.008
30.994	25.139	1358.628	1087.986
32.009	24.956	1357.559	1085.927
33.023	25.254	1356.188	1086.538
34.038	25.307	1353.350	1084.491
35.053	25.153	1353.406	1083.509
36.067	24.894	1352.631	1081.227
37.082	24.895	1351.673	1080.374
38.096	24.965	1351.236	1080.347
39.111	25.221	1348.710	1079.775
40.126	25.005	1350.276	1079.634
41.140	25.034	1348.767	1078.506
42.155	25.030	1346.639	1076.681
43.169	24.792	1347.629	1075.946
44.184	24.911	1347.656	1076.593
45.199	24.898	1347.601	1076.376
46.213	24.935	1347.079	1076.082
47.228	25.041	1345.738	1075.555
48.242	24.908	1344.791	1073.902
49.257	25.275	1343.362	1074.866
50.271	25.139	1342.684	1073.414
51.286	25.096	1340.942	1071.671
52.301	25.097	1339.395	1070.346
53.315	25.086	1338.566	1069.524
54.330	25.048	1338.003	1068.752
55.344	24.763	1337.982	1066.937
56.359	24.888	1336.915	1066.736
57.374	24.731	1336.454	1065.342
58.388	24.872	1333.529	1063.752
59.403	24.562	1334.527	1062.613
60.417	24.702	1333.802	1062.773
61.432	24.618	1332.758	1061.349
62.447	24.930	1331.656	1062.226
63.461	24.693	1330.900	1060.125
64.476	24.662	1329.708	1058.897
65.490	24.730	1328.298	1058.082
66.505	24.704	1327.606	1057.283
67.520	24.770	1326.061	1056.350
68.534	24.795	1325.100	1055.641
69.549	24.883	1324.139	1055.298
70.563	24.872	1322.591	1053.905
71.578	24.588	1322.537	1052.099
72.593	24.531	1321.377	1050.746
73.607	24.663	1319.929	1050.281
74.622	24.723	1319.992	1050.589
75.636	24.750	1319.839	1050.532
76.651	24.591	1318.448	1048.399
77.666	24.639	1317.735	1048.021
78.680	24.419	1318.575	1047.304
79.695	24.693	1316.945	1047.526
80.709	24.937	1315.609	1047.794
81.724	25.033	1315.636	1048.288
82.739	24.916	1315.026	1047.022
83.753	24.990	1313.383	1046.053
84.768	25.161	1312.976	1046.638
85.782	25.263	1312.688	1046.908
86.797	25.051	1311.478	1044.615
87.812	24.990	1310.365	1043.279
88.826	25.058	1308.823	1042.360
89.841	25.113	1307.377	1041.430
90.855	25.000	1307.659	1040.907
91.870	25.250	1307.341	1042.018
92.884	25.371	1305.799	1041.393
93.899	25.332	1304.927	1040.385
94.914	25.469	1304.222	1040.523
95.928	25.167	1303.189	1037.857
96.943	25.265	1302.277	1037.606
97.957	25.087	1302.478	1036.645
98.972	25.256	1301.073	1036.414
99.987	25.269	1300.229	1035.723
101.001	24.939	1299.958	1033.511
102.016	25.130	1298.064	1033.013
103.030	25.283	1297.106	1033.043
104.045	25.125	1297.381	1032.260
105.060	25.163	1295.335	1030.760
106.074	24.796	1295.170	1028.424
107.089	24.871	1291.627	1025.950
108.103	24.821	1290.871	1024.975
109.118	24.803	1290.287	1024.318
110.133	24.727	1289.139	1022.882
111.147	24.758	1287.911	1021.992
112.162	24.716	1287.823	1021.592
113.176	24.750	1286.542	1020.683
114.191	24.558	1285.103	1018.352
115.206	24.870	1284.552	1019.605
116.220	25.053	1283.966	1020.091
117.235	24.877	1281.397	1016.961
118.249	24.360	1281.577	1014.076
119.264	24.481	1280.197	1013.579
120.279	24.811	1279.153	1014.536
121.293	24.805	1279.081	1014.354
122.308	24.691	1278.562	1013.209
123.322	24.583	1276.924	1011.205
124.337	24.459	1275.423	1009.230
125.352	24.752	1274.696	1010.222
126.366	24.370	1274.695	1007.971
127.381	24.570	1274.049	1008.499
128.395	24.464	1272.301	1006.431
129.410	24.533	1271.113	1005.791
130.424	24.068	1271.783	1003.612
131.439	24.552	1269.326	1004.304
132.454	24.730	1268.769	1004.774
133.468	24.909	1268.716	1005.649
134.483	24.877	1268.551	1005.252
135.497	24.972	1267.490	1004.855
136.512	24.966	1267.117	1004.435
137.527	24.894	1264.841	1002.142
138.541	24.839	1263.983	1001.064
139.556	24.798	1263.225	1000.144
140.570	24.975	1262.498	1000.472
141.585	25.008	1262.105	1000.254
142.600	25.106	1261.042	999.870
143.614	25.232	1259.806	999.502
144.629	25.469	1259.371	1000.389
145.643	25.124	1258.344	997.563
146.658	24.988	1257.234	995.844
147.673	25.226	1256.441	996.450
148.687	25.172	1254.944	994.872
149.702	24.773	1253.903	991.748
150.716	24.600	1251.739	988.988
151.731	24.792	1250.330	988.849
152.746	24.724	1250.615	988.613
153.760	25.003	1249.561	989.232
154.775	25.318	1247.604	989.335
155.789	25.256	1247.387	988.731
156.804	25.031	1245.605	985.993
157.819	24.927	1244.763	984.667
158.833	24.926	1245.353	985.039
159.848	25.190	1244.747	985.926
160.862	25.147	1243.729	984.797
161.877	24.909	1242.769	982.645
162.892	24.709	1240.917	979.997
163.906	24.667	1240.645	979.465
164.921	24.703	1239.839	978.942
165.935	24.993	1239.208	979.943
166.950	24.829	1238.228	978.184
167.964	25.021	1237.387	978.483
168.979	24.880	1237.455	977.676
169.994	25.132	1236.451	978.171
171.008	25.048	1235.699	977.032
172.023	25.273	1234.214	976.999
173.037	25.245	1234.073	976.647
174.052	25.179	1233.506	975.752
175.067	25.049	1232.708	974.327
176.081	24.620	1232.276	971.566
177.096	24.917	1230.258	971.505
178.110	24.900	1229.897	971.039
179.125	24.935	1229.154	970.556
180.140	24.850	1228.275	969.319
181.154	24.809	1227.609	968.483
182.169	25.053	1225.706	968.219
183.183	24.826	1224.603	966.036
184.198	25.081	1224.208	967.015
185.213	25.329	1223.276	967.528
186.227	25.153	1222.902	966.199
187.242	25.298	1221.915	966.113
188.256	25.409	1219.656	964.840
189.271	25.268	1219.460	963.839
190.286	24.804	1219.557	961.341
191.300	24.851	1218.291	960.506
192.315	24.982	1217.572	960.558
193.329	24.926	1218.331	960.770
194.344	24.961	1216.294	959.271
195.359	24.893	1215.633	958.297
196.373	24.682	1214.175	955.936
197.388	24.412	1214.356	954.550
198.402	24.860	1214.007	956.585
199.417	25.309	1213.898	958.813
200.432	25.189	1214.504	958.567
201.446	25.261	1212.577	957.344
202.461	25.045	1213.005	956.444
203.475	25.392	1210.460	956.199
204.490	25.097	1209.337	953.662
205.504	24.572	1207.757	949.540
206.519	24.923	1206.768	950.545
207.534	24.829	1206.099	949.433
208.548	24.888	1204.917	948.732
209.563	24.774	1204.618	947.808
210.577	24.623	1204.264	946.646
211.592	24.714	1204.118	946.927
212.607	25.000	1203.281	947.701
213.621	25.153	1202.945	948.158
214.636	24.703	1201.509	944.566
215.650	25.036	1200.145	945.169
216.665	25.169	1199.482	945.266
217.680	24.948	1200.153	944.541
218.694	25.237	1198.303	944.524
219.709	25.125	1197.809	943.466
220.723	25.129	1195.688	941.729
221.738	24.842	1196.772	940.990
222.753	24.720	1196.354	939.941
223.767	24.549	1195.351	938.167
224.782	25.213	1194.245	940.700
225.796	25.363	1193.742	941.008
226.811	25.169	1192.983	939.313
227.826	24.971	1192.000	937.416
228.840	25.091	1191.022	937.191
229.855	25.098	1190.016	936.355
230.869	24.890	1189.995	935.169
231.884	25.086	1188.495	934.931
232.899	24.598	1187.568	931.573
233.913	24.712	1187.390	931.944
234.928	24.805	1187.118	932.136
235.942	24.747	1187.479	932.032
236.957	24.718	1185.700	930.403
237.972	24.509	1184.599	928.372
238.986	24.430	1184.134	927.514
240.001	24.823	1183.619	929.069
241.015	24.851	1182.227	928.042
242.030	24.805	1181.684	927.295
243.045	24.932	1181.002	927.332
244.059	24.932	1180.662	926.985
245.074	25.164	1179.932	927.531
246.088	25.111	1178.925	926.384
247.103	24.962	1179.247	925.784
248.117	25.431	1177.444	926.705
249.132	25.428	1176.695	926.018
250.147	25.626	1177.566	927.641
251.161	25.646	1177.572	927.669
252.176	25.691	1175.274	926.007
253.190	25.887	1174.862	926.607
254.205	25.980	1173.942	926.278
255.220	26.030	1174.069	926.555
256.234	25.921	1173.919	925.793
257.249	26.019	1173.104	925.570
258.263	25.497	1172.412	922.265
259.278	25.786	1171.373	922.848
260.293	25.858	1169.789	921.886
261.307	25.479	1170.485	920.413
262.322	25.743	1170.083	921.367
263.336	25.488	1169.845	919.793
264.351	25.768	1168.134	919.796
265.366	25.791	1168.008	919.736
266.380	25.839	1167.729	919.678
267.395	25.581	1167.989	918.485
268.409	25.378	1165.469	915.386
269.424	25.662	1164.870	916.280
270.439	25.631	1164.397	915.669
271.453	25.765	1162.917	915.110
272.468	25.902	1161.656	914.732
273.482	25.482	1162.251	912.985
274.497	25.091	1162.718	911.285
275.512	25.434	1160.779	911.423
276.526	25.388	1160.568	910.946
277.541	25.532	1159.110	910.447
278.555	25.701	1158.847	911.018
279.570	26.025	1157.398	911.434
280.585	25.890	1158.221	911.316
281.599	25.945	1156.607	910.244
282.614	25.671	1155.814	908.160
283.628	25.410	1154.595	905.805
284.643	25.402	1153.481	904.812
285.657	25.629	1153.062	905.547
286.672	25.464	1152.778	904.409
287.687	25.390	1151.100	902.640
288.701	25.669	1150.705	903.653
289.716	25.506	1149.399	901.734
290.730	25.661	1148.747	901.917
291.745	25.324	1149.165	900.476
292.760	25.464	1148.813	900.820
293.774	25.680	1147.374	900.692
294.789	25.924	1147.332	901.801
295.803	26.090	1145.569	901.167
296.818	25.859	1144.946	899.444
297.833	25.683	1145.404	898.845
298.847	25.357	1144.303	896.273
299.862	25.595	1143.403	896.678
300.876	25.392	1142.886	895.178
301.891	25.753	1142.415	896.530
302.906	26.151	1141.541	897.745
303.920	25.988	1141.873	897.117
304.935	25.874	1140.833	895.651
305.949	25.960	1139.267	894.769
306.964	25.945	1139.829	895.056
307.979	25.869	1138.315	893.413
308.993	25.718	1138.155	892.462
310.008	26.121	1137.244	893.660
311.022	25.872	1136.681	891.911
312.037	25.985	1135.321	891.323
313.052	25.942	1134.163	890.123
314.066	25.760	1133.748	888.817
315.081	25.545	1132.826	886.958
316.095	25.602	1130.690	885.487
317.110	25.610	1130.610	885.382
318.125	25.540	1129.686	884.236
319.139	25.411	1129.925	883.711
320.154	25.408	1128.461	882.474
321.168	25.612	1128.581	883.492
322.183	25.527	1127.809	882.390
323.197	25.778	1127.882	883.603
324.212	25.707	1125.930	881.649
325.227	25.599	1126.439	881.442
326.241	25.725	1126.119	881.730
327.256	25.601	1125.217	880.335
328.270	25.676	1123.248	879.086
329.285	25.521	1123.947	878.795
330.300	25.569	1123.233	878.395
331.314	25.452	1122.413	877.103
332.329	25.468	1120.644	875.723
333.343	25.488	1120.790	875.855
334.358	25.597	1119.554	875.346
335.373	26.211	1118.555	877.470
336.387	25.922	1119.210	876.502
337.402	26.063	1118.237	876.344
338.416	26.106	1117.855	876.181
339.431	26.004	1116.885	874.846
340.446	26.210	1116.392	875.381
341.460	26.222	1116.191	875.207
342.475	26.209	1115.535	874.549
343.489	26.250	1113.949	873.426
344.504	26.385	1113.400	873.573
345.519	26.249	1113.311	872.768
346.533	26.528	1111.024	872.243
347.548	26.406	1111.276	871.773
348.562	26.264	1110.028	870.034
349.577	26.044	1109.632	868.590
350.592	25.938	1107.961	866.695
351.606	25.686	1107.222	864.828
352.621	25.993	1105.823	865.130
353.635	25.739	1106.166	864.107
354.650	25.536	1105.529	862.558
355.665	25.936	1105.015	863.995
356.679	26.078	1102.945	862.982
357.694	25.935	1104.377	863.342
358.708	26.021	1102.057	861.863
359.723	26.091	1101.817	861.934
360.738	25.855	1101.357	860.369
361.752	25.900	1101.298	860.462
362.767	26.035	1101.079	860.856
363.781	25.954	1099.419	859.100
364.796	26.142	1100.042	860.403
365.810	26.347	1099.711	861.048
366.825	26.210	1100.217	860.713
367.840	26.925	1098.137	862.410
368.854	26.722	1097.180	860.620
369.869	26.411	1096.991	858.917
370.883	26.350	1096.490	858.159
371.898	26.647	1094.699	858.090
372.913	26.049	1095.124	855.514
373.927	26.159	1094.397	855.389
374.942	26.573	1093.734	856.756
375.956	26.495	1093.281	855.955
376.971	26.415	1092.863	855.174
377.986	26.505	1091.567	854.508
379.000	26.799	1091.654	855.890
380.015	26.582	1091.633	854.775
381.029	26.769	1089.956	854.264
382.044	26.743	1090.321	854.355
383.059	26.528	1088.912	852.164
384.073	26.536	1088.155	851.531
385.088	26.653	1087.537	851.523
386.102	26.781	1085.696	850.606
387.117	26.318	1085.448	848.166
388.132	26.344	1083.721	846.863
389.146	26.045	1084.350	845.875
390.161	26.197	1082.703	845.229
391.175	26.338	1081.468	844.848
392.190	26.383	1081.742	845.200
393.205	26.467	1081.172	845.069
394.219	26.737	1080.575	845.789
395.234	26.416	1080.034	843.794
396.248	26.254	1078.898	842.075
397.263	26.261	1077.655	841.065
398.278	26.255	1077.107	840.534
399.292	26.171	1076.561	839.644
400.307	26.436	1075.491	839.968
401.321	26.279	1075.401	839.093
402.336	26.105	1074.489	837.500
403.350	26.028	1074.221	836.860
404.365	26.162	1073.276	836.668
405.380	26.398	1072.586	837.150
406.394	26.144	1072.655	835.953
407.409	26.056	1072.072	835.019
408.423	26.637	1071.535	837.212
409.438	26.582	1070.554	836.117
410.453	26.719	1069.653	835.971
411.467	26.551	1069.559	835.052
412.482	26.612	1067.433	833.596
413.496	26.720	1067.406	834.000
414.511	27.054	1066.825	835.006
415.526	27.007	1066.762	834.668
416.540	27.008	1066.535	834.422
417.555	26.881	1066.032	833.369
418.569	26.413	1065.104	830.425
419.584	26.640	1065.114	831.399
420.599	26.837	1063.848	831.242
421.613	153.404	1404.397	1792.491
422.628	141.097	1453.999	1792.596
