DTS Sentinel unit serial number:	SN413079Multiplexer serial number:	ORYXHardware model number:	OX4-SRSoftware version number:	ORYX F/W v4.00 Oryx Data Collector v3.7.2.0data status	okinstallation	princeton_trtdifferential loss correction	single-endedforward channel	channel 2reverse channel	N/Adate	2019/09/11time	01:17:10forward acquisition time	60.00reverse acquisition time	0.00gamma	496.2192k internal	0.2332k external	0.2332temperature offset calibration	0.9943default loss term (dB/km)	0.3790temperature slope calibration	1.0000multiplexer offset coefficient	1.0000multiplexer slope coefficient	1.0000fibre end	0.00T internal ref (°C)	29.12T ext. ref 1 (°C)	-0.30T ext. ref 2 (°C)	23.15length (m)	temperature (°C)	Stokes	anti-Stokes-747.200	-31.812	-0.112	0.063
-746.185	87.315	0.118	0.131
-745.171	-129.040	-0.282	-0.040
-744.156	252.767	0.142	-0.244
-743.142	573.634	-0.039	-0.096
-742.127	-70.828	0.195	0.074
-741.112	800.000	-0.047	-0.148
-740.098	-200.000	0.021	0.214
-739.083	464.901	0.064	0.145
-738.069	323.592	0.145	0.278
-737.054	-140.285	-0.074	0.008
-736.039	800.000	0.018	0.054
-735.025	-54.948	0.109	-0.049
-734.010	800.000	-0.114	-0.330
-732.996	-200.000	0.039	-0.183
-731.981	132.232	-0.050	0.064
-730.966	-200.000	-0.004	-0.076
-729.952	-54.230	0.127	-0.058
-728.937	-118.750	-0.089	-0.016
-727.923	159.732	-0.244	-0.341
-726.908	-120.256	-0.112	0.019
-725.894	-200.000	0.044	0.251
-724.879	588.578	0.097	-0.240
-723.864	131.153	-0.160	-0.206
-722.850	-200.000	-0.016	-0.117
-721.835	-56.438	-0.165	0.074
-720.821	122.511	-0.163	0.205
-719.806	230.535	-0.055	0.090
-718.791	-79.540	-0.166	-0.056
-717.777	-169.290	-0.220	-0.008
-716.762	601.660	0.023	-0.058
-715.748	-61.425	0.201	-0.085
-714.733	122.613	0.038	-0.047
-713.718	33.794	-0.101	-0.088
-712.704	-128.547	-0.270	-0.038
-711.689	-68.980	-0.190	0.074
-710.675	-64.175	-0.221	-0.091
-709.660	-108.901	0.129	-0.028
-708.645	800.000	0.061	-0.217
-707.631	110.785	-0.124	-0.150
-706.616	255.917	-0.120	0.206
-705.602	212.435	0.266	0.421
-704.587	-132.075	0.303	0.040
-703.572	361.632	-0.220	-0.444
-702.558	-31.066	0.072	0.041
-701.543	9.886	-0.183	0.140
-700.529	-91.910	-0.250	0.071
-699.514	-51.124	0.110	0.052
-698.499	393.070	-0.028	0.059
-697.485	132.081	-0.144	-0.187
-696.470	-29.326	0.278	0.160
-695.456	-165.619	-0.347	0.015
-694.441	-147.495	-0.224	0.019
-693.426	-200.000	-0.035	-0.336
-692.412	-5.028	-0.150	0.104
-691.397	800.000	-0.082	-0.245
-690.383	-72.737	-0.042	-0.016
-689.368	-134.043	0.401	-0.050
-688.354	-61.832	-0.343	0.144
-687.339	232.401	-0.236	0.389
-686.324	800.000	0.039	0.121
-685.310	127.432	0.125	0.159
-684.295	-5.636	0.048	-0.033
-683.281	-186.446	-0.030	0.000
-682.266	-158.541	-0.322	-0.019
-681.251	123.675	0.224	-0.282
-680.237	54.826	0.168	0.162
-679.222	-96.851	0.135	-0.036
-678.208	-200.000	0.026	0.226
-677.193	74.135	0.305	0.322
-676.178	-123.726	-0.227	-0.036
-675.164	-150.404	-0.219	-0.017
-674.149	-75.988	-0.234	0.083
-673.135	-17.578	0.138	0.087
-672.120	90.557	0.165	-0.185
-671.105	287.669	-0.072	-0.131
-670.091	-106.835	0.192	-0.043
-669.076	-46.705	0.248	0.122
-668.062	-50.832	-0.147	-0.070
-667.047	800.000	-0.044	-0.179
-666.032	432.483	-0.062	0.135
-665.018	-107.443	0.330	0.073
-664.003	-2.070	0.072	0.050
-662.989	-200.000	0.001	-0.176
-661.974	-126.878	-0.053	0.008
-660.959	-59.829	0.146	0.063
-659.945	-187.503	-0.268	0.004
-658.930	800.000	-0.045	0.153
-657.916	800.000	-0.031	-0.105
-656.901	-15.930	0.102	0.065
-655.886	398.394	0.053	-0.111
-654.872	-10.145	-0.012	-0.008
-653.857	-173.340	-0.079	0.002
-652.843	-29.938	-0.184	-0.105
-651.828	-200.000	0.009	-0.226
-650.814	142.596	-0.113	-0.151
-649.799	-103.873	0.295	0.069
-648.784	158.645	-0.160	0.223
-647.770	109.425	0.061	-0.073
-646.755	437.647	0.224	0.489
-645.741	-152.884	-0.177	-0.013
-644.726	-200.000	0.003	-0.026
-643.711	160.654	-0.173	-0.242
-642.697	800.000	0.074	-0.273
-641.682	-200.000	0.009	0.106
-640.668	125.356	-0.047	-0.060
-639.653	-200.000	0.012	0.084
-638.638	-163.563	-0.191	0.009
-637.624	33.535	-0.061	-0.053
-636.609	-131.758	-0.165	-0.022
-635.595	-200.000	-0.015	0.343
-634.580	-117.455	-0.234	0.042
-633.565	-200.000	-0.060	-0.282
-632.551	208.016	-0.087	-0.136
-631.536	-117.401	0.320	-0.058
-630.522	-28.146	-0.200	-0.116
-629.507	-80.437	0.144	-0.048
-628.492	57.316	-0.294	-0.288
-627.478	-122.420	-0.148	-0.024
-626.463	195.977	0.052	-0.079
-625.449	-46.783	-0.218	-0.107
-624.434	-140.397	-0.392	-0.041
-623.419	279.015	0.106	-0.189
-622.405	64.968	0.172	-0.174
-621.390	16.774	-0.066	0.052
-620.376	166.395	-0.119	0.169
-619.361	537.152	-0.149	-0.355
-618.346	-200.000	0.018	0.100
-617.332	176.715	0.121	0.175
-616.317	113.985	0.084	0.103
-615.303	75.335	-0.024	0.026
-614.288	-21.481	-0.373	-0.228
-613.273	-45.386	-0.485	0.241
-612.259	343.028	0.146	-0.285
-611.244	-200.000	0.061	0.314
-610.230	-15.740	-0.178	0.114
-609.215	302.054	-0.096	-0.177
-608.201	-200.000	0.046	-0.239
-607.186	-97.456	0.218	0.057
-606.171	189.541	0.124	0.187
-605.157	-50.929	0.352	0.165
-604.142	250.842	0.123	-0.209
-603.128	-157.919	-0.041	0.002
-602.113	-12.454	0.122	0.079
-601.098	-3.431	-0.261	0.182
-600.084	-200.000	-0.007	0.338
-599.069	-200.000	0.013	0.157
-598.055	-78.525	-0.071	0.024
-597.040	59.095	-0.125	-0.123
-596.025	76.942	-0.132	0.140
-595.011	-200.000	0.485	0.002
-593.996	-23.197	-0.135	0.081
-592.982	-116.284	-0.186	-0.034
-591.967	-52.609	0.315	0.146
-590.952	-140.018	-0.274	-0.029
-589.938	26.586	0.188	0.158
-588.923	11.088	-0.081	0.062
-587.909	213.758	-0.117	0.184
-586.894	-95.720	0.121	-0.032
-585.879	-200.000	0.006	-0.330
-584.865	64.784	-0.317	-0.319
-583.850	800.000	-0.016	0.051
-582.836	800.000	0.101	0.364
-581.821	249.735	-0.112	-0.190
-580.806	-92.101	0.057	0.016
-579.792	31.351	0.120	-0.103
-578.777	-73.716	0.231	-0.084
-577.763	-119.923	-0.120	0.021
-576.748	-200.000	-0.020	0.238
-575.733	542.127	-0.068	0.162
-574.719	91.704	0.173	0.194
-573.704	335.687	-0.266	-0.516
-572.690	374.215	0.214	0.435
-571.675	1.497	0.399	-0.287
-570.661	484.725	-0.105	-0.238
-569.646	-127.236	0.204	0.030
-568.631	-1.482	-0.024	-0.017
-567.617	47.913	-0.197	-0.184
-566.602	-200.000	-0.001	0.325
-565.588	-36.289	0.105	0.056
-564.573	800.000	-0.076	0.278
-563.558	363.980	0.061	-0.123
-562.544	-17.454	-0.302	-0.189
-561.529	-168.240	-0.138	0.005
-560.515	125.355	-0.214	-0.270
-559.500	112.870	-0.092	0.111
-558.485	-70.015	-0.335	0.127
-557.471	246.007	0.199	0.335
-556.456	-200.000	0.008	-0.102
-555.442	-200.000	0.023	-0.213
-554.427	-200.000	-0.008	-0.164
-553.412	-133.527	-0.283	0.035
-552.398	-200.000	0.009	-0.102
-551.383	53.697	0.041	0.039
-550.369	-9.499	0.122	-0.081
-549.354	800.000	0.041	0.142
-548.339	-90.014	0.130	0.038
-547.325	-200.000	-0.031	0.155
-546.310	-81.896	-0.093	-0.031
-545.296	709.534	0.066	0.175
-544.281	-55.724	0.075	-0.033
-543.266	800.000	-0.046	0.155
-542.252	-200.000	-0.001	0.107
-541.237	37.559	0.033	0.029
-540.223	287.848	-0.034	0.061
-539.208	160.357	0.074	0.103
-538.193	-200.000	-0.094	0.470
-537.179	800.000	-0.071	0.305
-536.164	5.234	-0.019	0.014
-535.150	105.036	0.127	0.149
-534.135	-10.709	0.135	-0.089
-533.121	-86.921	0.245	0.075
-532.106	-145.268	-0.281	0.025
-531.091	5.957	0.139	-0.103
-530.077	-95.013	-0.357	-0.096
-529.062	-53.073	-0.155	-0.071
-528.048	69.883	0.283	-0.291
-527.033	60.266	-0.287	0.283
-526.018	108.523	-0.080	-0.095
-525.004	32.823	0.055	0.047
-523.989	86.143	-0.217	-0.238
-522.975	-73.792	0.307	-0.111
-521.960	-200.000	-0.023	0.126
-520.945	-200.000	0.009	-0.102
-519.931	-200.000	-0.015	-0.130
-518.916	-38.625	0.077	0.040
-517.902	164.574	-0.065	-0.091
-516.887	-71.316	-0.271	0.101
-515.872	-63.655	-0.166	-0.068
-514.858	86.346	0.064	-0.071
-513.843	-94.544	0.360	-0.098
-512.829	-19.308	0.089	-0.055
-511.814	-55.655	-0.221	-0.098
-510.799	-200.000	0.041	0.234
-509.785	-200.000	0.016	-0.242
-508.770	-200.000	-0.001	-0.080
-507.756	95.815	0.274	0.312
-506.741	112.562	0.090	0.108
-505.726	-200.000	-0.026	0.215
-504.712	160.056	-0.248	0.344
-503.697	-19.371	-0.483	-0.298
-502.683	-125.271	0.124	-0.019
-501.668	-112.208	0.149	0.030
-500.653	23.666	0.145	-0.119
-499.639	-200.000	0.006	0.039
-498.624	-200.000	0.034	-0.150
-497.610	38.082	0.142	-0.126
-496.595	-200.000	0.001	0.211
-495.581	-142.740	-0.183	-0.018
-494.566	353.502	0.088	-0.173
-493.551	-18.298	0.060	-0.037
-492.537	800.000	0.030	0.096
-491.522	70.500	-0.291	-0.300
-490.508	-200.000	0.047	-0.316
-489.493	443.929	0.170	-0.372
-488.478	80.494	0.061	-0.065
-487.464	800.000	0.062	0.175
-486.449	-69.456	0.179	-0.069
-485.435	-121.761	0.118	-0.019
-484.420	181.878	0.039	0.058
-483.405	-147.740	-0.522	-0.044
-482.391	800.000	0.026	-0.110
-481.376	800.000	-0.115	0.334
-480.362	117.500	0.184	-0.225
-479.347	165.200	-0.124	-0.174
-478.332	0.416	0.091	-0.065
-477.318	45.402	-0.103	-0.094
-476.303	46.389	-0.044	0.041
-475.289	61.843	0.073	-0.072
-474.274	-90.155	0.275	0.080
-473.259	-200.000	0.009	0.156
-472.245	210.727	0.187	-0.293
-471.230	-80.315	-0.125	-0.041
-470.216	311.858	0.159	0.297
-469.201	800.000	0.011	-0.033
-468.186	-73.210	0.272	0.099
-467.172	149.537	0.105	0.142
-466.157	-35.800	-0.645	-0.347
-465.143	800.000	-0.042	-0.168
-464.128	-200.000	-0.009	-0.084
-463.113	545.739	0.152	-0.361
-462.099	-36.038	-0.065	0.035
-461.084	-69.679	-0.299	-0.114
-460.070	-106.301	0.405	-0.090
-459.055	-22.623	-0.272	-0.163
-458.040	-50.806	-0.151	-0.071
-457.026	61.715	-0.188	-0.186
-456.011	154.937	0.119	0.162
-454.997	497.933	0.095	0.218
-453.982	800.000	-0.101	0.345
-452.968	-104.998	0.219	0.050
-451.953	-200.000	-0.022	-0.284
-450.938	68.746	-0.148	-0.151
-449.924	143.859	-0.130	0.172
-448.909	800.000	0.025	-0.097
-447.895	81.529	0.245	0.264
-446.880	455.794	-0.043	-0.095
-445.865	-39.399	0.148	-0.077
-444.851	100.076	-0.058	-0.067
-443.836	-132.365	0.178	0.023
-442.822	142.378	-0.032	0.042
-441.807	115.164	0.026	0.032
-440.792	800.000	-0.037	0.107
-439.778	168.294	-0.190	0.269
-438.763	-73.042	-0.371	-0.135
-437.749	-13.092	-0.215	-0.139
-436.734	-156.388	-0.157	-0.010
-435.719	246.477	0.169	0.283
-434.705	-22.149	0.147	-0.089
-433.690	-46.831	0.326	-0.158
-432.676	-200.000	-0.034	-0.147
-431.661	-71.020	-0.180	0.067
-430.646	-94.654	0.147	0.040
-429.632	-132.871	0.117	-0.015
-428.617	-167.817	0.326	0.013
-427.603	-161.552	0.163	-0.008
-426.588	255.119	-0.131	-0.224
-425.573	221.987	-0.192	-0.307
-424.559	13.281	-0.352	0.271
-423.544	-200.000	-0.026	0.159
-422.530	139.385	0.296	0.386
-421.515	-25.218	0.021	-0.012
-420.500	800.000	-0.073	0.207
-419.486	276.522	-0.100	-0.176
-418.471	-176.720	0.066	0.002
-417.457	334.747	0.046	-0.088
-416.442	101.613	-0.167	0.193
-415.428	194.829	0.275	0.414
-414.413	-85.302	0.098	0.030
-413.398	-107.177	0.175	-0.038
-412.384	-200.000	-0.037	0.188
-411.369	42.941	0.104	0.094
-410.355	800.000	0.057	-0.159
-409.340	800.000	0.067	0.223
-408.325	-159.836	-0.280	-0.015
-407.311	241.324	-0.054	-0.090
-406.296	660.504	0.071	-0.181
-405.282	354.417	0.073	-0.144
-404.267	-200.000	-0.077	-0.396
-403.252	117.848	-0.150	-0.184
-402.238	-108.756	0.154	0.033
-401.223	-200.000	0.041	0.322
-400.209	-108.844	-0.104	0.022
-399.194	-111.959	-0.121	-0.024
-398.179	-127.462	0.239	-0.035
-397.165	-122.536	0.058	-0.009
-396.150	-84.336	0.421	-0.132
-395.136	800.000	0.076	-0.229
-394.121	88.103	-0.019	0.021
-393.106	121.020	-0.133	-0.164
-392.092	-106.728	-0.087	0.019
-391.077	800.000	-0.023	-0.082
-390.063	-122.756	-0.023	0.004
-389.048	800.000	-0.006	0.024
-388.033	-122.358	0.217	0.035
-387.019	-18.984	-0.249	-0.154
-386.004	-200.000	0.044	0.286
-384.990	237.077	0.205	0.337
-383.975	328.627	-0.137	-0.261
-382.960	-200.000	0.010	0.047
-381.946	45.131	0.074	0.067
-380.931	-101.657	0.129	0.031
-379.917	-81.426	0.040	-0.013
-378.902	37.686	-0.370	-0.326
-377.888	-163.992	0.401	-0.019
-376.873	-200.000	0.034	0.212
-375.858	152.593	-0.043	0.058
-374.844	-200.000	0.023	-0.117
-373.829	85.963	0.269	0.294
-372.815	527.616	0.097	-0.228
-371.800	82.464	-0.101	-0.108
-370.785	-62.649	0.436	0.179
-369.771	31.329	-0.155	0.132
-368.756	25.013	0.045	0.037
-367.742	39.717	-0.158	0.140
-366.727	58.228	0.147	-0.143
-365.712	-144.397	-0.298	0.027
-364.698	800.000	-0.032	0.126
-363.683	20.666	-0.172	-0.138
-362.669	-47.189	0.237	-0.114
-361.654	41.947	-0.150	-0.135
-360.639	33.216	-0.308	0.265
-359.625	-66.680	0.359	0.141
-358.610	-200.000	-0.001	0.083
-357.596	-158.771	-0.619	-0.035
-356.581	485.778	-0.111	0.250
-355.566	170.859	0.082	-0.116
-354.552	-82.381	0.156	0.050
-353.537	800.000	-0.079	0.283
-352.523	-38.192	0.050	-0.026
-351.508	698.501	-0.128	0.332
-350.493	251.823	-0.101	-0.170
-349.479	-116.362	-0.216	-0.040
-348.464	320.526	0.026	-0.048
-347.450	-44.123	0.171	0.085
-346.435	-200.000	-0.015	-0.129
-345.420	-200.000	0.019	-0.103
-344.406	343.004	0.158	0.306
-343.391	359.045	-0.050	0.099
-342.377	663.137	0.130	0.332
-341.362	-39.518	0.160	0.083
-340.348	327.657	0.094	0.178
-339.333	800.000	-0.094	0.283
-338.318	-200.000	0.000	0.132
-337.304	35.656	0.286	0.248
-336.289	173.349	-0.140	0.200
-335.275	101.938	0.224	-0.259
-334.260	-98.921	-0.105	0.026
-333.245	465.998	0.131	0.291
-332.231	-200.000	-0.006	0.197
-331.216	38.304	0.327	-0.288
-330.202	-6.823	0.249	-0.167
-329.187	90.311	-0.208	0.230
-328.172	-53.551	0.082	-0.037
-327.158	-72.843	0.115	-0.042
-326.143	68.254	0.105	0.107
-325.129	-45.491	-0.174	0.085
-324.114	-109.569	-0.249	-0.052
-323.099	800.000	0.098	0.394
-322.085	-200.000	0.042	-0.205
-321.070	147.924	-0.174	-0.233
-320.056	-200.000	-0.033	0.158
-319.041	523.275	0.076	-0.176
-318.026	-12.074	-0.055	0.035
-317.012	67.390	0.185	-0.187
-315.997	-200.000	-0.002	0.070
-314.983	-141.387	0.334	-0.033
-313.968	-200.000	0.001	0.110
-312.953	800.000	0.079	-0.280
-311.939	302.334	-0.060	-0.109
-310.924	-53.160	0.217	-0.099
-309.910	-200.000	0.040	-0.275
-308.895	56.664	-0.221	0.213
-307.880	278.725	-0.108	0.191
-306.866	-113.910	-0.131	-0.025
-305.851	654.083	-0.040	0.102
-304.837	281.189	0.036	0.064
-303.822	-170.690	-0.390	0.013
-302.807	-200.000	0.008	0.036
-301.793	165.891	-0.184	-0.257
-300.778	-60.821	0.473	0.198
-299.764	-200.000	0.070	-0.347
-298.749	800.000	-0.018	-0.077
-297.735	-129.621	-0.231	0.032
-296.720	82.160	0.093	-0.099
-295.705	761.883	-0.064	-0.172
-294.691	-109.757	-0.186	-0.039
-293.676	-53.686	-0.081	0.036
-292.662	62.447	0.112	0.111
-291.647	-71.539	-0.244	-0.090
-290.632	16.171	0.252	0.196
-289.618	-159.724	-0.422	-0.023
-288.603	-152.091	0.155	0.011
-287.589	241.675	0.089	0.147
-286.574	-164.802	-0.093	-0.004
-285.559	150.021	-0.183	-0.246
-284.545	-200.000	0.081	-0.481
-283.530	577.613	0.100	-0.241
-282.516	-50.838	0.088	-0.041
-281.501	-200.000	-0.017	-0.166
-280.486	106.393	-0.265	0.310
-279.472	-126.216	0.117	-0.017
-278.457	-200.000	-0.000	0.011
-277.443	-112.317	0.219	-0.043
-276.428	-50.913	-0.224	0.104
-275.413	58.506	0.137	0.133
-274.399	-108.779	0.177	0.037
-273.384	-20.244	-0.277	0.169
-272.370	81.313	0.137	-0.146
-271.355	-131.146	-0.327	-0.043
-270.340	800.000	-0.017	0.053
-269.326	798.633	0.044	0.121
-268.311	272.974	-0.033	-0.057
-267.297	164.305	-0.131	0.182
-266.282	-75.359	0.282	-0.099
-265.267	131.299	-0.228	0.290
-264.253	42.009	-0.252	0.226
-263.238	714.499	-0.062	-0.161
-262.224	-200.000	-0.030	0.174
-261.209	-78.163	0.432	0.147
-260.195	-1.310	-0.253	-0.176
-259.180	236.945	0.051	0.083
-258.165	62.944	0.404	0.399
-257.151	-114.251	0.346	-0.066
-256.136	37.455	-0.216	0.189
-255.122	-123.564	-0.143	0.022
-254.107	-200.000	0.029	-0.138
-253.092	-71.763	0.211	0.078
-252.078	-87.726	-0.229	-0.068
-251.063	-200.000	-0.007	0.074
-250.049	215.658	0.192	0.302
-249.034	-67.704	0.155	-0.060
-248.019	800.000	0.034	-0.097
-247.005	466.922	0.100	0.221
-245.990	42.103	0.230	-0.206
-244.976	-103.640	0.183	-0.042
-243.961	77.426	0.081	-0.085
-242.946	54.139	0.314	-0.298
-241.932	46.095	0.183	-0.167
-240.917	-163.867	-0.151	0.007
-239.903	152.743	-0.083	0.112
-238.888	-47.053	-0.043	0.021
-237.873	800.000	-0.121	-0.354
-236.859	52.280	-0.047	-0.044
-235.844	-117.454	0.272	0.049
-234.830	512.046	-0.160	-0.368
-233.815	-133.056	-0.249	-0.031
-232.800	531.324	0.028	0.066
-231.786	69.904	0.282	0.287
-230.771	-19.600	-0.136	-0.083
-229.757	-188.850	0.497	0.006
-228.742	800.000	0.046	-0.134
-227.727	-93.907	-0.075	0.020
-226.713	49.806	0.252	-0.234
-225.698	199.062	0.210	-0.318
-224.684	132.054	0.152	-0.194
-223.669	-200.000	-0.010	-0.200
-222.655	211.425	0.275	-0.427
-221.640	-21.511	-0.132	0.079
-220.625	70.413	-0.145	-0.148
-219.611	170.434	-0.059	-0.083
-218.596	212.489	-0.148	-0.229
-217.582	404.309	-0.051	0.106
-216.567	-146.737	0.190	0.016
-215.552	505.552	-0.029	0.067
-214.538	-59.952	-0.274	-0.115
-213.523	-112.591	-0.098	0.019
-212.509	-87.846	-0.289	0.086
-211.494	800.000	-0.065	0.221
-210.479	71.553	-0.169	-0.172
-209.465	-200.000	0.021	-0.287
-208.450	695.954	-0.087	0.224
-207.436	-200.000	0.012	0.289
-206.421	72.903	0.185	-0.190
-205.406	-32.640	-0.131	0.072
-204.392	-156.926	-0.101	0.006
-203.377	-139.950	0.129	-0.013
-202.363	-11.811	0.181	0.117
-201.348	-143.869	-0.404	-0.037
-200.333	-200.000	0.035	-0.199
-199.319	33.494	-0.192	-0.164
-198.304	492.176	-0.053	-0.120
-197.290	10.445	0.237	-0.177
-196.275	171.672	0.042	0.060
-195.260	800.000	-0.010	-0.027
-194.246	486.294	-0.053	0.119
-193.231	128.966	-0.031	-0.038
-192.217	70.393	0.167	0.170
-191.202	147.480	-0.111	-0.147
-190.187	-45.195	-0.181	-0.089
-189.173	-155.764	0.281	0.018
-188.158	124.032	-0.121	0.149
-187.144	22.377	0.207	-0.167
-186.129	-200.000	0.040	0.207
-185.114	-92.576	0.133	0.037
-184.100	-200.000	-0.034	0.217
-183.085	7.526	-0.067	0.050
-182.071	275.547	-0.077	0.135
-181.056	-133.074	0.284	0.035
-180.042	12.728	-0.120	-0.091
-179.027	-20.873	0.177	-0.107
-178.012	131.960	-0.071	-0.090
-176.998	140.070	0.121	0.157
-175.983	-99.870	-0.139	0.034
-174.969	800.000	-0.037	0.130
-173.954	-200.000	-0.001	-0.331
-172.939	-54.144	0.235	0.105
-171.925	3.261	-0.388	-0.277
-170.910	800.000	-0.035	-0.115
-169.896	140.348	0.083	0.108
-168.881	25.958	-0.328	-0.269
-167.866	-82.085	0.304	-0.098
-166.852	588.870	-0.047	-0.114
-165.837	12.324	0.038	0.029
-164.823	173.969	0.112	0.159
-163.808	20.410	-0.223	0.177
-162.793	522.925	0.195	0.450
-161.779	-175.155	-0.212	0.006
-160.764	-200.000	0.007	-0.102
-159.750	-125.848	0.121	-0.018
-158.735	-200.000	-0.004	-0.223
-157.720	-105.391	-0.099	0.022
-156.706	-106.816	0.177	-0.039
-155.691	170.821	0.105	0.149
-154.677	-200.000	-0.011	0.184
-153.662	8.158	0.159	0.117
-152.647	-17.078	-0.262	0.162
-151.633	-114.299	-0.186	-0.035
-150.618	63.307	0.403	0.397
-149.604	800.000	-0.061	0.230
-148.589	70.570	0.182	0.185
-147.574	50.979	-0.066	-0.062
-146.560	-59.356	0.157	0.066
-145.545	-94.897	0.443	0.118
-144.531	277.781	-0.090	0.157
-143.516	-200.000	0.021	0.298
-142.502	-200.000	0.007	0.204
-141.487	-137.162	-0.130	-0.015
-140.472	-200.000	0.035	-0.247
-139.458	700.525	0.079	-0.205
-138.443	-79.725	0.193	0.064
-137.429	457.521	-0.062	0.136
-136.414	-93.261	0.320	0.087
-135.399	-200.000	0.019	0.116
-134.385	3.832	0.312	0.224
-133.370	-136.550	0.403	0.046
-132.356	-35.445	0.264	-0.141
-131.341	-200.000	0.025	0.154
-130.326	-94.277	-0.328	-0.088
-129.312	-99.603	0.217	-0.054
-128.297	124.665	0.054	-0.067
-127.283	-34.766	-0.292	-0.157
-126.268	-55.230	0.197	0.087
-125.253	-44.532	0.198	-0.097
-124.239	-30.380	0.269	0.150
-123.224	800.000	0.044	-0.180
-122.210	-46.239	-0.080	-0.039
-121.195	-40.853	0.294	-0.149
-120.180	-67.453	0.116	0.045
-119.166	-200.000	0.060	-0.451
-118.151	-200.000	0.004	0.122
-117.137	-132.654	-0.339	0.043
-116.122	-146.918	0.494	0.042
-115.107	-67.742	-0.225	-0.086
-114.093	-200.000	0.035	-0.356
-113.078	719.565	0.098	0.256
-112.064	-200.000	-0.014	0.464
-111.049	-38.170	0.220	0.115
-110.034	-157.720	0.094	0.006
-109.020	-69.646	0.237	0.089
-108.005	-141.638	0.269	0.027
-106.991	-112.729	-0.067	-0.013
-105.976	-123.370	-0.087	0.014
-104.962	598.103	-0.076	-0.185
-103.947	651.261	-0.023	0.057
-102.932	-3.633	0.118	0.080
-101.918	-200.000	-0.072	0.403
-100.903	-200.000	0.004	0.099
-99.889	416.081	-0.114	0.239
-98.874	107.462	-0.135	-0.158
-97.859	800.000	0.059	-0.200
-96.845	799.817	0.106	0.287
-95.830	85.205	-0.298	-0.321
-94.816	-6.122	-0.171	-0.114
-93.801	343.546	0.047	0.090
-92.786	-53.943	-0.285	0.127
-91.772	-6.330	0.075	-0.050
-90.757	-38.289	0.220	0.114
-89.743	800.000	-0.070	-0.190
-88.728	551.019	-0.088	0.206
-87.713	-92.336	-0.308	0.085
-86.699	218.249	0.140	-0.219
-85.684	-14.536	-0.298	-0.188
-84.670	-93.416	0.193	0.052
-83.655	-200.000	0.009	0.242
-82.640	-200.000	0.024	0.103
-81.626	310.664	-0.237	0.434
-80.611	58.810	0.255	-0.246
-79.597	431.869	0.064	0.135
-78.582	-74.150	0.095	-0.034
-77.567	-17.581	-0.193	0.119
-76.553	753.418	-0.067	0.178
-75.538	-200.000	-0.027	-0.125
-74.524	-130.659	-0.152	-0.020
-73.509	164.770	-0.080	0.110
-72.494	800.000	0.119	0.387
-71.480	-104.400	0.230	-0.052
-70.465	36.499	-0.152	-0.131
-69.451	-12.883	0.165	-0.106
-68.436	-82.594	0.280	0.089
-67.422	-200.000	-0.007	-0.447
-66.407	-34.364	-0.022	0.012
-65.392	-58.713	0.390	0.166
-64.378	-26.416	0.174	-0.100
-63.363	234.649	0.069	0.112
-62.349	201.262	-0.147	0.222
-61.334	56.076	-0.957	-0.909
-60.319	21.704	0.434	0.346
-59.305	-200.000	-0.014	-1.018
-58.290	224.037	0.739	1.168
-57.276	383.354	0.745	1.502
-56.261	-200.000	107.457	627.023
-55.246	524.697	1514.457	3488.591
-54.232	174.910	2713.271	3845.945
-53.217	105.207	2296.120	2653.871
-52.203	38.496	1899.884	1658.327
-51.188	32.437	1686.567	1426.323
-50.173	29.700	1643.499	1369.597
-49.159	48.559	1697.993	1557.604
-48.144	48.674	1713.080	1572.251
-47.130	31.821	1670.169	1407.612
-46.115	29.143	1655.709	1375.398
-45.100	29.079	1650.284	1370.359
-44.086	29.082	1647.635	1368.128
-43.071	28.939	1645.506	1365.247
-42.057	28.977	1642.609	1363.072
-41.042	29.029	1640.181	1361.385
-40.027	28.989	1638.913	1359.982
-39.013	28.921	1637.254	1358.050
-37.998	29.006	1635.441	1357.116
-36.984	29.076	1633.937	1356.331
-35.969	29.117	1632.747	1355.596
-34.954	29.255	1630.891	1355.013
-33.940	29.173	1629.407	1353.123
-32.925	29.105	1627.575	1351.051
-31.911	29.089	1625.693	1349.319
-30.896	29.146	1623.974	1348.256
-29.881	29.049	1622.525	1346.286
-28.867	29.122	1620.597	1345.168
-27.852	29.108	1619.133	1343.798
-26.838	29.153	1617.415	1342.648
-25.823	29.111	1616.053	1341.155
-24.809	29.136	1615.388	1340.733
-23.794	29.135	1613.732	1339.296
-22.779	29.083	1612.400	1337.765
-21.765	29.151	1609.868	1336.099
-20.750	29.128	1608.680	1334.893
-19.736	29.089	1607.725	1333.768
-18.721	29.162	1605.936	1332.761
-17.706	29.064	1604.586	1330.874
-16.692	29.176	1602.833	1330.179
-15.677	29.167	1601.605	1329.044
-14.663	29.256	1600.224	1328.489
-13.648	29.190	1599.291	1327.183
-12.633	29.209	1597.264	1325.585
-11.619	29.164	1596.031	1324.187
-10.604	29.193	1594.457	1323.035
-9.590	29.185	1593.241	1321.919
-8.575	29.178	1592.163	1320.917
-7.560	29.154	1591.294	1319.974
-6.546	29.101	1590.272	1318.691
-5.531	29.146	1588.798	1317.741
-4.517	29.130	1587.640	1316.614
-3.502	29.281	1586.185	1316.431
-2.487	29.287	1584.764	1315.248
-1.473	28.911	1572.930	1302.710
-0.458	26.213	1553.241	1267.444
0.556	20.491	1555.386	1237.736
1.571	18.436	1580.068	1242.382
2.586	18.174	1594.164	1251.432
3.600	16.454	1541.670	1197.940
4.615	8.728	1432.253	1061.768
5.629	1.243	1368.863	967.109
6.644	-0.154	1360.625	952.348
7.659	-0.295	1359.570	950.633
8.673	-0.373	1358.815	949.527
9.688	-0.378	1356.516	947.807
10.702	-0.593	1353.243	944.078
11.717	2.458	1359.940	967.980
12.731	11.628	1376.726	1038.329
13.746	19.286	1389.555	1096.834
14.761	21.170	1392.420	1111.002
15.775	21.510	1392.336	1112.999
16.790	21.554	1391.612	1112.600
17.804	21.635	1390.997	1112.525
18.819	21.858	1391.030	1113.870
19.834	21.868	1390.628	1113.510
20.848	21.939	1389.742	1113.152
21.863	21.952	1388.619	1112.242
22.877	21.866	1388.225	1111.280
23.892	21.999	1386.985	1111.030
24.907	21.830	1386.671	1109.613
25.921	21.949	1385.012	1108.937
26.936	21.954	1384.217	1108.232
27.950	21.914	1383.161	1107.037
28.965	21.868	1381.756	1105.528
29.980	21.940	1380.431	1104.822
30.994	21.883	1379.070	1103.279
32.009	22.047	1378.088	1103.424
33.023	21.910	1377.645	1102.111
34.038	22.001	1376.111	1101.356
35.053	21.993	1375.101	1100.399
36.067	21.939	1373.963	1099.055
37.082	21.985	1373.255	1098.681
38.096	22.002	1371.847	1097.564
39.111	21.952	1371.636	1096.981
40.126	21.990	1370.957	1096.583
41.140	21.949	1370.526	1095.884
42.155	21.857	1370.260	1095.000
43.169	21.871	1370.414	1095.112
44.184	21.850	1369.699	1094.316
45.199	21.895	1369.320	1094.195
46.213	21.889	1368.464	1093.378
47.228	22.009	1367.376	1093.156
48.242	21.992	1366.198	1092.014
49.257	22.017	1364.859	1091.003
50.271	22.018	1363.438	1089.777
51.286	21.888	1362.149	1087.843
52.301	21.924	1361.081	1087.114
53.315	21.936	1359.912	1086.162
54.330	21.974	1358.995	1085.566
55.344	21.914	1358.343	1084.578
56.359	21.889	1357.369	1083.552
57.374	21.945	1356.543	1083.142
58.388	21.989	1355.500	1082.482
59.403	21.919	1355.177	1081.701
60.417	22.065	1354.378	1081.867
61.432	22.058	1353.570	1081.084
62.447	21.954	1353.091	1079.961
63.461	21.997	1351.752	1079.063
64.476	21.987	1351.317	1078.559
65.490	21.962	1349.648	1076.978
66.505	21.996	1348.222	1075.953
67.520	22.012	1346.752	1074.784
68.534	22.013	1345.601	1073.772
69.549	22.105	1344.730	1073.546
70.563	22.038	1343.734	1072.246
71.578	22.061	1342.519	1071.327
72.593	21.933	1342.023	1070.052
73.607	21.970	1341.082	1069.432
74.622	21.897	1340.637	1068.537
75.636	21.964	1339.733	1068.131
76.651	22.088	1339.026	1068.225
77.666	21.877	1339.124	1066.926
78.680	21.928	1338.660	1066.774
79.695	21.877	1337.375	1065.345
80.709	22.038	1336.247	1065.333
81.724	22.003	1335.383	1064.337
82.739	22.041	1334.115	1063.461
83.753	21.922	1333.740	1062.346
84.768	21.903	1332.511	1061.160
85.782	22.064	1330.854	1060.715
86.797	22.022	1329.827	1059.555
87.812	22.104	1328.635	1059.001
88.826	21.951	1328.523	1057.898
89.841	21.998	1327.259	1057.079
90.855	21.939	1326.514	1056.037
91.870	22.062	1325.145	1055.598
92.884	22.004	1324.392	1054.557
93.899	22.046	1323.830	1054.265
94.914	22.037	1322.935	1053.406
95.928	21.907	1322.537	1052.217
96.943	22.072	1321.310	1052.132
97.957	22.022	1320.743	1051.293
98.972	22.099	1319.692	1050.821
99.987	22.046	1318.804	1049.701
101.001	21.990	1318.021	1048.653
102.016	21.959	1316.623	1047.266
103.030	22.110	1315.391	1047.090
104.045	22.116	1314.891	1046.637
105.060	22.002	1314.152	1045.277
106.074	22.159	1312.640	1044.914
107.089	22.041	1311.959	1043.576
108.103	22.007	1311.011	1042.530
109.118	22.067	1309.520	1041.606
110.133	22.098	1308.537	1040.916
111.147	22.022	1307.815	1039.801
112.162	22.081	1306.254	1038.819
113.176	22.129	1305.407	1038.336
114.191	22.030	1304.509	1036.948
115.206	22.125	1303.491	1036.605
116.220	22.038	1302.400	1035.135
117.235	22.126	1301.167	1034.581
118.249	22.101	1300.612	1033.898
119.264	22.079	1299.313	1032.644
120.279	22.251	1298.260	1032.728
121.293	22.161	1297.842	1031.778
122.308	22.229	1296.297	1030.856
123.322	22.245	1295.513	1030.236
124.337	22.180	1294.758	1029.162
125.352	22.183	1293.829	1028.347
126.366	22.280	1292.890	1028.082
127.381	22.252	1292.147	1027.232
128.395	22.186	1291.312	1026.092
129.410	22.206	1289.998	1025.078
130.424	22.300	1289.349	1025.020
131.439	22.190	1288.848	1023.886
132.454	22.109	1287.560	1022.302
133.468	22.187	1286.857	1022.108
134.483	22.224	1286.417	1021.883
135.497	22.098	1285.832	1020.598
136.512	22.066	1284.511	1019.270
137.527	22.191	1283.605	1019.188
138.541	22.185	1281.991	1017.779
139.556	22.155	1280.612	1016.422
140.570	22.129	1279.689	1015.448
141.585	22.150	1278.485	1014.527
142.600	22.073	1277.265	1013.024
143.614	22.050	1277.087	1012.658
144.629	22.067	1275.725	1011.587
145.643	21.996	1274.680	1010.263
146.658	21.978	1274.168	1009.661
147.673	22.107	1272.873	1009.287
148.687	22.024	1271.954	1007.993
149.702	22.002	1270.730	1006.806
150.716	22.040	1269.525	1005.982
151.731	22.026	1268.971	1005.376
152.746	22.184	1267.225	1004.806
153.760	22.170	1266.433	1004.007
154.775	22.261	1265.335	1003.568
155.789	22.107	1264.492	1001.932
156.804	22.207	1263.740	1001.819
157.819	22.058	1262.789	1000.129
158.833	22.205	1261.976	1000.231
159.848	22.236	1261.075	999.604
160.862	22.278	1260.437	999.249
161.877	22.245	1259.588	998.303
162.892	22.180	1258.899	997.297
163.906	22.192	1258.669	997.093
164.921	22.228	1257.650	996.404
165.935	22.248	1256.655	995.639
166.950	22.275	1255.821	995.042
167.964	22.278	1255.154	994.445
168.979	22.334	1254.201	993.917
169.994	22.224	1254.352	993.326
171.008	22.268	1253.527	992.834
172.023	22.307	1252.470	992.130
173.037	22.178	1252.321	991.197
174.052	22.283	1251.435	991.001
175.067	22.395	1249.969	990.380
176.081	22.308	1249.320	989.292
177.096	22.196	1248.612	988.010
178.110	22.345	1247.572	987.940
179.125	22.349	1246.780	987.245
180.140	22.338	1245.809	986.330
181.154	22.315	1244.148	984.796
182.169	22.251	1243.373	983.740
183.183	22.334	1242.349	983.308
184.198	22.331	1241.681	982.674
185.213	22.333	1240.743	981.858
186.227	22.422	1239.757	981.485
187.242	22.450	1238.429	980.505
188.256	22.404	1238.006	979.827
189.271	22.377	1237.010	978.800
190.286	22.298	1236.290	977.703
191.300	22.385	1235.933	977.817
192.315	22.270	1235.874	977.048
193.329	22.368	1234.832	976.679
194.344	22.520	1233.984	976.768
195.359	22.360	1234.107	975.890
196.373	22.364	1233.132	975.056
197.388	22.331	1233.063	974.728
198.402	22.357	1232.798	974.581
199.417	22.349	1231.975	973.797
200.432	22.359	1231.646	973.505
201.446	22.450	1230.685	973.163
202.461	22.382	1230.057	972.208
203.475	22.386	1228.756	971.112
204.490	22.324	1228.068	970.140
205.504	22.359	1227.433	969.745
206.519	22.456	1226.217	969.234
207.534	22.424	1225.697	968.561
208.548	22.371	1224.174	966.980
209.563	22.436	1223.654	966.842
210.577	22.477	1222.976	966.443
211.592	22.399	1221.843	965.037
212.607	22.404	1221.179	964.457
213.621	22.492	1220.620	964.413
214.636	22.505	1219.487	963.499
215.650	22.561	1218.841	963.210
216.665	22.462	1218.009	961.926
217.680	22.514	1217.193	961.482
218.694	22.520	1216.628	960.984
219.709	22.500	1215.699	960.058
220.723	22.505	1215.042	959.480
221.738	22.434	1214.136	958.291
222.753	22.436	1213.231	957.501
223.767	22.493	1213.048	957.583
224.782	22.488	1212.969	957.413
225.796	22.597	1212.218	957.324
226.811	22.605	1211.205	956.484
227.826	22.667	1210.130	955.886
228.840	22.609	1209.941	955.339
229.855	22.609	1209.245	954.702
230.869	22.511	1208.633	953.603
231.884	22.597	1207.935	953.437
232.899	22.588	1207.252	952.764
233.913	22.630	1206.626	952.413
234.928	22.755	1206.133	952.616
235.942	22.779	1205.045	951.798
236.957	22.719	1204.751	951.161
237.972	22.534	1204.328	949.746
238.986	22.629	1203.438	949.471
240.001	22.628	1203.087	949.101
241.015	22.896	1201.654	949.331
242.030	22.858	1201.118	948.620
243.045	22.772	1200.877	947.884
244.059	22.726	1200.105	946.943
245.074	22.785	1199.397	946.616
246.088	22.781	1198.427	945.747
247.103	22.784	1197.410	944.877
248.117	22.787	1196.557	944.132
249.132	22.684	1196.012	943.073
250.147	22.778	1195.135	942.798
251.161	22.933	1194.364	942.936
252.176	22.806	1193.822	941.743
253.190	22.806	1193.353	941.293
254.205	22.793	1192.748	940.661
255.220	22.846	1191.885	940.180
256.234	22.755	1191.548	939.349
257.249	22.808	1190.906	939.041
258.263	22.924	1190.257	939.060
259.278	22.828	1189.748	938.065
260.293	22.810	1189.330	937.557
261.307	22.832	1188.658	937.064
262.322	22.973	1188.049	937.248
263.336	22.929	1187.372	936.396
264.351	22.850	1186.834	935.469
265.366	22.791	1186.288	934.643
266.380	22.876	1185.799	934.629
267.395	22.929	1184.661	933.926
268.409	22.793	1184.201	932.764
269.424	22.835	1183.797	932.583
270.439	22.864	1183.640	932.533
271.453	22.954	1182.765	932.237
272.468	22.931	1181.795	931.268
273.482	22.848	1180.851	930.004
274.497	22.975	1180.673	930.448
275.512	23.034	1180.072	930.206
276.526	22.958	1179.145	928.992
277.541	23.001	1178.487	928.615
278.555	23.025	1178.080	928.342
279.570	23.087	1177.427	928.067
280.585	23.051	1176.264	926.881
281.599	23.099	1175.136	926.160
282.614	22.986	1174.600	925.064
283.628	23.069	1173.746	924.745
284.643	23.068	1173.008	924.076
285.657	22.979	1172.389	923.042
286.672	23.001	1171.619	922.467
287.687	23.081	1170.611	922.010
288.701	23.094	1170.084	921.584
289.716	23.151	1169.362	921.229
290.730	23.145	1168.679	920.577
291.745	22.999	1168.482	919.580
292.760	23.137	1167.658	919.571
293.774	23.114	1166.891	918.763
294.789	23.164	1166.510	918.644
295.803	23.113	1165.817	917.754
296.818	23.205	1165.329	917.761
297.833	23.174	1164.309	916.719
298.847	23.271	1163.769	916.712
299.862	23.246	1162.541	915.536
300.876	23.188	1162.160	914.856
301.891	23.286	1161.610	914.848
302.906	23.306	1161.091	914.459
303.920	23.258	1160.663	913.793
304.935	23.146	1160.282	912.836
305.949	23.343	1159.128	912.864
306.964	23.364	1158.506	912.400
307.979	23.286	1157.985	911.507
308.993	23.305	1157.257	910.954
310.008	23.367	1156.501	910.597
311.022	23.303	1155.922	909.727
312.037	23.354	1154.737	908.981
313.052	23.313	1154.206	908.269
314.066	23.389	1153.099	907.709
315.081	23.341	1152.475	906.888
316.095	23.357	1152.179	906.661
317.110	23.413	1151.487	906.320
318.125	23.410	1150.361	905.341
319.139	23.461	1150.035	905.264
320.154	23.379	1149.575	904.402
321.168	23.460	1148.682	904.033
322.183	23.487	1148.090	903.626
323.197	23.439	1147.857	903.115
324.212	23.327	1147.100	901.869
325.227	23.434	1147.128	902.355
326.241	23.504	1146.135	901.852
327.256	23.447	1145.428	900.927
328.270	23.558	1144.382	900.588
329.285	23.424	1143.868	899.424
330.300	23.489	1142.930	898.937
331.314	23.592	1142.052	898.686
332.329	23.522	1141.300	897.661
333.343	23.535	1140.613	897.109
334.358	23.664	1139.596	896.881
335.373	23.680	1138.972	896.389
336.387	23.691	1138.702	896.155
337.402	23.525	1137.760	894.495
338.416	23.568	1137.462	894.400
339.431	23.687	1136.674	894.299
340.446	23.643	1136.165	893.598
341.460	23.626	1135.454	892.875
342.475	23.708	1134.565	892.512
343.489	23.718	1133.885	891.947
344.504	23.660	1132.716	890.656
345.519	23.750	1131.945	890.423
346.533	23.840	1130.885	889.963
347.548	23.683	1130.494	888.787
348.562	23.825	1129.457	888.604
349.577	23.697	1129.249	887.720
350.592	23.655	1128.618	886.937
351.606	23.654	1128.201	886.529
352.621	23.609	1127.476	885.654
353.635	23.788	1126.571	885.758
354.650	23.765	1125.888	885.029
355.665	23.859	1124.799	884.561
356.679	23.748	1124.658	883.820
357.694	23.808	1124.220	883.698
358.708	23.953	1123.108	883.462
359.723	23.676	1123.234	882.107
360.738	23.854	1122.039	881.975
361.752	23.883	1121.492	881.610
362.767	23.938	1120.735	881.210
363.781	24.005	1119.807	880.732
364.796	24.034	1119.469	880.534
365.810	23.894	1119.050	879.436
366.825	23.948	1118.415	879.125
367.840	24.024	1118.255	879.298
368.854	24.013	1117.915	878.895
369.869	24.089	1116.716	878.250
370.883	24.029	1116.003	877.315
371.898	24.103	1115.270	877.028
372.913	23.940	1114.925	875.877
373.927	24.001	1114.473	875.742
374.942	24.168	1113.759	875.927
375.956	24.008	1113.454	874.822
376.971	24.112	1112.505	874.509
377.986	24.119	1111.941	874.022
379.000	24.007	1111.714	873.221
380.015	24.025	1111.301	872.905
381.029	24.143	1110.381	872.683
382.044	24.009	1110.047	871.685
383.059	24.158	1108.923	871.458
384.073	24.245	1108.287	871.306
385.088	24.174	1107.410	870.193
386.102	24.144	1106.691	869.402
387.117	24.217	1105.581	868.808
388.132	24.152	1105.039	867.992
389.146	24.127	1104.390	867.280
390.161	24.221	1103.709	867.129
391.175	24.214	1103.038	866.490
392.190	24.213	1102.399	865.908
393.205	24.196	1101.503	865.045
394.219	24.197	1100.952	864.538
395.234	24.268	1100.087	864.130
396.248	24.301	1099.194	863.508
397.263	24.261	1098.542	862.726
398.278	24.241	1098.026	862.150
399.292	24.407	1097.450	862.425
400.307	24.306	1096.935	861.455
401.321	24.358	1096.051	860.935
402.336	24.287	1095.589	860.154
403.350	24.323	1094.958	859.758
404.365	24.432	1093.953	859.414
405.380	24.458	1093.352	858.993
406.394	24.501	1092.613	858.541
407.409	24.418	1091.792	857.424
408.423	24.487	1091.014	857.069
409.438	24.520	1090.146	856.469
410.453	24.517	1089.666	855.999
411.467	24.405	1089.182	855.005
412.482	24.604	1088.324	855.208
413.496	24.576	1087.788	854.579
414.511	24.470	1087.063	853.426
415.526	24.585	1086.799	853.693
416.540	24.656	1086.184	853.476
417.555	24.542	1085.807	852.561
418.569	24.500	1085.628	852.144
419.584	24.460	1084.886	851.293
420.599	24.592	1084.561	851.595
421.613	149.043	1402.191	1799.297
422.628	137.746	1448.443	1799.388
