DTS Sentinel unit serial number:	SN413079Multiplexer serial number:	ORYXHardware model number:	OX4-SRSoftware version number:	ORYX F/W v4.00 Oryx Data Collector v3.7.2.0data status	okinstallation	princeton_trtdifferential loss correction	single-endedforward channel	channel 2reverse channel	N/Adate	2019/09/14time	22:11:35forward acquisition time	60.00reverse acquisition time	0.00gamma	496.2192k internal	0.2324k external	0.2324temperature offset calibration	1.0063default loss term (dB/km)	0.3790temperature slope calibration	1.0000multiplexer offset coefficient	1.0000multiplexer slope coefficient	1.0000fibre end	0.00T internal ref (°C)	32.64T ext. ref 1 (°C)	4.71T ext. ref 2 (°C)	27.61length (m)	temperature (°C)	Stokes	anti-Stokes-747.200	800.000	0.053	0.160
-746.185	93.997	0.264	0.303
-745.171	-200.000	0.371	0.000
-744.156	-148.622	-0.254	-0.021
-743.142	800.000	0.048	0.196
-742.127	800.000	-0.023	0.101
-741.112	-122.433	-0.282	0.046
-740.098	-82.830	0.410	-0.134
-739.083	281.116	-0.123	-0.222
-738.069	-86.088	0.070	0.022
-737.054	257.241	-0.127	0.220
-736.039	-164.278	-0.290	-0.013
-735.025	-200.000	-0.008	-0.454
-734.010	-29.940	0.213	-0.123
-732.996	549.944	-0.148	-0.358
-731.981	-88.979	0.147	0.044
-730.966	-28.105	-0.081	-0.048
-729.952	800.000	0.010	0.039
-728.937	-181.945	-0.358	-0.007
-727.923	-131.676	0.198	-0.026
-726.908	195.152	-0.268	-0.411
-725.894	41.758	-0.164	-0.150
-724.879	276.193	-0.078	-0.140
-723.864	306.502	0.109	-0.205
-722.850	-11.629	-0.332	-0.220
-721.835	258.946	-0.083	-0.145
-720.821	51.406	-0.038	0.037
-719.806	-137.656	0.116	-0.013
-718.791	-4.126	-0.124	0.086
-717.777	800.000	0.084	-0.266
-716.762	-115.706	-0.167	0.032
-715.748	-39.378	-0.041	-0.022
-714.733	-110.740	-0.263	-0.055
-713.718	138.298	0.094	0.124
-712.704	-200.000	-0.017	0.100
-711.689	-36.256	0.149	-0.081
-710.675	-200.000	-0.111	0.000
-709.660	-89.089	-0.071	0.021
-708.645	-91.385	0.129	-0.037
-707.631	40.417	0.152	0.138
-706.616	-137.662	-0.283	-0.032
-705.602	156.013	-0.205	0.285
-704.587	800.000	0.041	0.162
-703.572	58.353	0.138	0.137
-702.558	-200.000	-0.002	-0.248
-701.543	-200.000	-0.036	-0.172
-700.529	-195.437	-0.235	0.002
-699.514	157.802	0.014	-0.020
-698.499	-200.000	-0.055	-0.261
-697.485	356.596	-0.210	-0.421
-696.470	-143.746	-0.232	-0.022
-695.456	565.322	-0.076	0.185
-694.441	-200.000	0.053	-0.267
-693.426	-143.364	-0.406	-0.039
-692.412	92.105	-0.183	0.208
-691.397	214.493	0.049	0.079
-690.383	1.673	-0.070	0.051
-689.368	-200.000	0.035	0.214
-688.354	58.202	-0.111	-0.110
-687.339	124.714	0.210	-0.266
-686.324	229.147	0.012	0.019
-685.310	-200.000	0.057	-0.488
-684.295	-61.902	0.034	0.014
-683.281	39.307	0.342	0.309
-682.266	148.539	-0.215	-0.292
-681.251	10.955	0.310	-0.239
-680.237	-78.999	0.150	0.051
-679.222	-200.000	-0.012	-0.082
-678.208	-200.000	-0.018	-0.334
-677.193	85.983	0.268	-0.297
-676.178	12.024	0.168	0.130
-675.164	-107.489	0.253	0.056
-674.149	800.000	-0.042	-0.167
-673.135	-200.000	-0.003	-0.048
-672.120	-77.665	-0.300	0.105
-671.105	428.185	-0.055	-0.120
-670.091	173.540	0.176	0.255
-669.076	-200.000	0.003	-0.033
-668.062	77.620	0.160	0.171
-667.047	-58.903	-0.066	0.029
-666.032	-55.217	-0.179	-0.081
-665.018	-122.712	-0.066	0.011
-664.003	67.644	-0.232	0.239
-662.989	-169.122	0.216	0.008
-661.974	76.933	0.196	0.209
-660.959	-18.730	0.338	0.212
-659.945	-72.446	0.100	0.037
-658.930	-200.000	-0.033	-0.246
-657.916	-20.431	-0.123	-0.076
-656.901	-148.944	0.050	-0.004
-655.886	364.127	-0.010	0.019
-654.872	-200.000	-0.067	0.349
-653.857	-200.000	0.003	0.216
-652.843	39.871	0.214	0.193
-651.828	-27.156	0.170	0.100
-650.814	-97.418	-0.265	0.069
-649.799	359.189	-0.121	-0.243
-648.784	125.204	0.280	-0.356
-647.770	84.287	-0.304	0.335
-646.755	-139.210	0.565	-0.061
-645.741	-3.571	-0.335	-0.234
-644.726	134.665	0.098	-0.128
-643.711	268.868	-0.163	0.288
-642.697	-130.848	0.085	-0.012
-641.682	-3.034	0.180	0.126
-640.668	-75.301	0.234	-0.084
-639.653	-167.951	-0.293	0.012
-638.638	283.880	-0.095	0.172
-637.624	89.180	-0.065	0.072
-636.609	-100.510	-0.230	0.057
-635.595	181.890	-0.149	-0.221
-634.580	-152.693	0.113	0.008
-633.565	-60.121	-0.128	0.055
-632.551	22.771	-0.208	-0.171
-631.536	57.445	-0.134	-0.132
-630.522	-200.000	-0.055	-0.281
-629.507	-200.000	0.005	-0.056
-628.492	301.003	0.061	0.114
-627.478	218.599	-0.120	-0.193
-626.463	-200.000	-0.014	-0.332
-625.449	8.722	0.152	-0.115
-624.434	-72.803	-0.241	0.089
-623.419	50.742	-0.075	-0.071
-622.405	-126.408	-0.105	-0.016
-621.390	29.764	-0.172	0.147
-620.376	363.504	0.049	0.099
-619.361	435.481	-0.027	0.059
-618.346	-145.210	-0.169	-0.015
-617.332	263.117	-0.072	-0.125
-616.317	574.053	-0.015	0.036
-615.303	-200.000	0.040	-0.209
-614.288	545.204	0.082	0.197
-613.273	-200.000	0.003	-0.057
-612.259	-29.344	0.104	-0.060
-611.244	-78.489	0.337	-0.116
-610.230	120.506	-0.248	-0.309
-609.215	103.844	-0.267	-0.315
-608.201	103.620	-0.163	-0.192
-607.186	525.725	-0.115	-0.272
-606.171	-2.310	-0.173	-0.122
-605.157	800.000	-0.024	-0.077
-604.142	-129.225	-0.322	0.045
-603.128	40.546	-0.204	0.184
-602.113	-200.000	-0.038	0.383
-601.098	-30.031	-0.345	0.197
-600.084	209.873	0.076	0.120
-599.069	-200.000	0.033	-0.160
-598.055	800.000	-0.053	0.223
-597.040	-121.545	0.477	-0.079
-596.025	-200.000	-0.011	-0.109
-595.011	195.190	0.095	-0.145
-593.996	173.547	-0.186	0.269
-592.982	-200.000	0.049	-0.423
-591.967	-65.451	-0.175	0.071
-590.952	34.091	-0.161	-0.141
-589.938	-200.000	0.006	0.111
-588.923	-51.765	-0.299	0.140
-587.909	-28.398	-0.356	0.206
-586.894	-200.000	-0.037	-0.238
-585.879	-50.980	-0.318	-0.150
-584.865	-200.000	-0.143	0.001
-583.850	-1.433	0.338	0.239
-582.836	-100.253	0.176	-0.044
-581.821	800.000	-0.022	-0.092
-580.806	123.550	-0.112	0.140
-579.792	180.537	-0.158	-0.233
-578.777	17.512	-0.198	0.158
-577.763	-107.980	0.155	0.034
-576.748	-102.171	-0.377	0.091
-575.733	-100.563	0.300	-0.074
-574.719	-200.000	0.034	-0.221
-573.704	-147.711	0.389	0.033
-572.690	488.853	0.105	0.241
-571.675	800.000	-0.074	0.249
-570.661	150.334	-0.058	0.079
-569.646	800.000	0.029	-0.087
-568.631	493.416	0.043	-0.098
-567.617	55.953	-0.019	0.018
-566.602	-118.710	-0.407	0.072
-565.588	-200.000	0.013	-0.064
-564.573	-49.646	0.119	0.057
-563.558	-65.374	-0.015	-0.006
-562.544	-155.654	0.323	0.021
-561.529	107.448	-0.196	-0.234
-560.515	-200.000	0.046	-0.290
-559.500	-200.000	-0.019	-0.233
-558.485	800.000	-0.054	0.207
-557.471	84.732	-0.136	-0.149
-556.456	-17.768	-0.198	-0.124
-555.442	147.695	-0.154	-0.208
-554.427	29.508	-0.028	-0.023
-553.412	-30.067	0.099	0.057
-552.398	104.177	0.296	-0.349
-551.383	414.823	0.097	-0.206
-550.369	467.864	0.163	0.367
-549.354	25.031	-0.133	0.111
-548.339	-57.093	-0.173	-0.077
-547.325	-129.649	0.104	-0.014
-546.310	269.872	0.056	0.099
-545.296	-200.000	0.019	-0.172
-544.281	-46.464	-0.171	0.084
-543.266	259.953	-0.168	0.291
-542.252	-200.000	0.009	0.096
-541.237	-8.531	0.082	0.055
-540.223	-123.690	-0.153	-0.024
-539.208	9.654	0.232	-0.176
-538.193	123.993	0.121	-0.152
-537.179	405.864	0.104	0.220
-536.164	-157.044	-0.372	-0.023
-535.150	286.924	0.084	-0.153
-534.135	114.641	0.263	-0.320
-533.121	800.000	0.027	0.084
-532.106	-9.457	-0.127	0.085
-531.091	560.155	-0.100	0.242
-530.077	-200.000	-0.054	0.258
-529.062	-106.423	-0.122	-0.027
-528.048	-141.166	0.162	-0.017
-527.033	-200.000	0.004	0.197
-526.018	-59.212	0.175	0.075
-525.004	800.000	0.121	0.349
-523.989	72.714	-0.105	-0.110
-522.975	141.314	0.140	-0.186
-521.960	184.220	0.222	-0.329
-520.945	-200.000	0.037	-0.248
-519.931	40.574	0.109	-0.098
-518.916	-112.743	-0.469	-0.093
-517.902	800.000	-0.173	0.503
-516.887	103.582	0.129	0.151
-515.872	800.000	-0.007	0.022
-514.858	-85.974	0.121	-0.037
-513.843	-12.943	0.230	-0.150
-512.829	32.469	-0.226	-0.195
-511.814	289.243	0.127	-0.231
-510.799	-129.126	-0.093	-0.013
-509.785	194.694	-0.087	0.132
-508.770	-200.000	0.002	0.136
-507.756	28.357	-0.091	-0.077
-506.741	19.908	-0.196	0.158
-505.726	-18.157	-0.249	0.156
-504.712	-99.627	-0.172	0.043
-503.697	800.000	-0.038	-0.157
-502.683	-167.753	0.550	0.022
-501.668	-84.291	0.094	-0.030
-500.653	-68.889	-0.264	-0.102
-499.639	-200.000	-0.010	0.235
-498.624	-36.290	0.100	0.054
-497.610	800.000	0.083	-0.282
-496.595	-39.779	-0.059	0.031
-495.581	-200.000	-0.011	0.277
-494.566	-69.988	-0.130	-0.049
-493.551	53.786	0.143	-0.137
-492.537	114.335	-0.017	0.020
-491.522	172.220	0.202	0.290
-490.508	157.042	0.219	0.303
-489.493	27.028	0.319	0.267
-488.478	73.115	-0.170	-0.178
-487.464	-43.392	0.313	-0.158
-486.449	39.727	0.222	-0.199
-485.435	-200.000	0.012	0.252
-484.420	-122.288	-0.226	0.037
-483.405	800.000	-0.079	0.326
-482.391	145.323	-0.074	0.099
-481.376	-30.117	0.185	0.105
-480.362	800.000	-0.047	0.148
-479.347	-200.000	-0.021	-0.122
-478.332	116.545	-0.078	-0.096
-477.318	72.018	-0.084	-0.088
-476.303	577.282	0.114	0.279
-475.289	57.090	-0.083	-0.081
-474.274	-2.618	-0.089	-0.062
-473.259	-7.545	-0.229	-0.155
-472.245	27.528	-0.272	0.229
-471.230	-21.479	-0.191	-0.116
-470.216	-88.610	0.218	-0.065
-469.201	-200.000	-0.001	-0.127
-468.186	422.043	0.153	-0.327
-467.172	-23.952	0.060	0.036
-466.157	175.709	0.334	0.484
-465.143	-2.774	-0.318	0.222
-464.128	-148.066	0.200	0.017
-463.113	337.837	-0.080	-0.155
-462.099	800.000	-0.013	-0.040
-461.084	-162.217	0.140	-0.007
-460.070	-151.103	0.046	0.003
-459.055	-33.622	0.176	-0.097
-458.040	418.473	0.046	0.097
-457.026	225.702	-0.108	0.175
-456.011	-65.395	0.111	0.044
-454.997	63.975	-0.123	0.124
-453.982	136.329	-0.029	-0.037
-452.968	219.304	-0.093	0.149
-451.953	800.000	-0.150	0.426
-450.938	92.117	0.224	0.252
-449.924	368.316	0.096	-0.193
-448.909	360.300	0.068	0.135
-447.895	800.000	-0.132	0.468
-446.880	-44.929	-0.058	-0.029
-445.865	-138.127	-0.093	0.010
-444.851	11.407	-0.221	0.169
-443.836	-200.000	-0.046	0.337
-442.822	-154.080	-0.106	-0.007
-441.807	-32.098	0.156	-0.087
-440.792	-61.804	-0.208	-0.087
-439.778	88.483	-0.255	0.283
-438.763	-200.000	-0.050	0.229
-437.749	627.753	0.055	-0.138
-436.734	312.503	0.199	-0.372
-435.719	457.653	-0.022	-0.048
-434.705	-200.000	-0.010	-0.084
-433.690	536.528	0.016	0.038
-432.676	158.755	-0.143	0.198
-431.661	800.000	0.018	-0.067
-430.646	-110.850	0.206	0.042
-429.632	-22.215	-0.052	0.032
-428.617	359.682	-0.117	-0.234
-427.603	-129.850	0.059	-0.008
-426.588	-131.383	0.221	-0.029
-425.573	800.000	-0.040	-0.165
-424.559	-116.025	0.248	-0.046
-423.544	-122.717	-0.224	0.036
-422.530	470.457	-0.094	0.210
-421.515	447.760	-0.063	0.138
-420.500	-75.963	-0.610	0.215
-419.486	195.176	0.095	-0.143
-418.471	105.617	0.164	0.194
-417.457	800.000	-0.045	-0.142
-416.442	-153.593	-0.438	-0.030
-415.428	-33.693	0.460	0.253
-414.413	55.083	-0.144	0.139
-413.398	163.211	0.058	-0.081
-412.384	800.000	-0.124	0.390
-411.369	-88.568	0.213	0.063
-410.355	21.881	0.355	-0.289
-409.340	787.717	0.094	0.257
-408.325	-75.267	0.171	0.061
-407.311	-200.000	0.029	-0.163
-406.296	-14.946	-0.115	-0.074
-405.282	-185.604	-0.133	-0.002
-404.267	135.282	-0.190	-0.247
-403.252	-56.994	0.240	0.105
-402.238	90.530	0.127	-0.142
-401.223	-173.927	-0.210	-0.006
-400.209	239.255	-0.145	-0.241
-399.194	694.114	0.061	0.159
-398.179	-90.941	-0.207	-0.059
-397.165	-16.520	-0.340	-0.214
-396.150	184.514	-0.081	0.119
-395.136	-47.328	-0.225	0.109
-394.121	268.941	0.082	0.143
-393.106	55.645	0.204	0.197
-392.092	184.586	0.182	0.269
-391.077	-200.000	-0.036	0.164
-390.063	800.000	0.042	-0.133
-389.048	21.047	0.071	-0.057
-388.033	-63.370	0.221	-0.091
-387.019	202.776	-0.132	-0.202
-386.004	-30.296	-0.214	-0.121
-384.990	56.441	-0.192	-0.186
-383.975	-107.758	-0.179	-0.039
-382.960	222.514	0.053	0.084
-381.946	125.530	0.172	0.216
-380.931	-8.335	-0.177	-0.118
-379.917	-99.940	-0.115	0.028
-378.902	800.000	-0.048	-0.205
-377.888	5.952	0.125	0.092
-376.873	92.328	-0.142	-0.159
-375.858	642.665	0.069	0.174
-374.844	-15.478	-0.076	0.048
-373.829	40.379	0.105	0.094
-372.815	-106.847	-0.139	0.031
-371.800	39.454	0.315	-0.281
-370.785	-200.000	-0.008	-0.114
-369.771	122.786	0.086	0.107
-368.756	-116.436	-0.109	-0.020
-367.742	-107.389	0.190	0.041
-366.727	-182.566	0.290	-0.005
-365.712	664.036	-0.082	-0.211
-364.698	-200.000	0.026	-0.116
-363.683	-108.559	0.281	0.060
-362.669	-200.000	-0.028	-0.177
-361.654	146.945	-0.255	0.341
-360.639	-30.172	0.207	-0.117
-359.625	-200.000	0.024	0.146
-358.610	800.000	-0.114	0.395
-357.596	33.571	0.072	-0.063
-356.581	18.733	-0.216	-0.172
-355.566	-200.000	-0.030	0.347
-354.552	-80.701	-0.157	0.052
-353.537	-71.799	-0.240	-0.089
-352.523	-200.000	-0.019	-0.286
-351.508	-141.307	-0.454	0.046
-350.493	-55.013	-0.090	-0.040
-349.479	-200.000	-0.002	-0.291
-348.464	-102.763	-0.087	0.021
-347.450	-156.083	0.068	0.004
-346.435	-80.042	0.140	0.047
-345.420	-26.931	-0.251	-0.146
-344.406	350.155	-0.052	-0.102
-343.391	-136.746	0.313	0.036
-342.377	800.000	-0.062	-0.235
-341.362	800.000	0.049	-0.198
-340.348	733.565	0.103	-0.274
-339.333	-77.577	0.207	-0.071
-338.318	403.393	-0.100	0.210
-337.304	-200.000	-0.015	-0.383
-336.289	689.340	-0.094	0.246
-335.275	-35.951	-0.321	0.173
-334.260	800.000	-0.046	-0.129
-333.245	-200.000	0.059	-0.363
-332.231	-46.197	-0.073	-0.036
-331.216	290.205	0.151	0.272
-330.202	-63.866	0.263	-0.107
-329.187	800.000	0.041	0.150
-328.172	346.478	-0.092	0.180
-327.158	-24.239	-0.261	0.155
-326.143	-59.217	0.024	0.010
-325.129	-200.000	-0.050	0.315
-324.114	-84.826	-0.354	0.110
-323.099	-200.000	-0.013	-0.168
-322.085	-33.074	-0.116	0.064
-321.070	96.190	0.228	-0.259
-320.056	70.242	-0.049	0.051
-319.041	154.157	-0.051	-0.070
-318.026	-200.000	-0.014	-0.094
-317.012	-42.370	-0.166	0.084
-315.997	103.014	-0.180	-0.209
-314.983	150.813	-0.097	0.131
-313.968	32.740	0.279	0.239
-312.953	87.154	0.080	0.088
-311.939	323.711	-0.061	0.115
-310.924	45.093	-0.059	0.054
-309.910	21.641	-0.275	0.222
-308.895	800.000	0.116	-0.425
-307.880	-48.704	-0.175	-0.083
-306.866	153.863	0.182	-0.248
-305.851	-150.672	0.213	0.016
-304.837	-53.372	-0.063	-0.029
-303.822	-93.402	-0.265	0.073
-302.807	79.886	-0.137	0.146
-301.793	-106.941	-0.187	-0.041
-300.778	91.527	0.088	0.098
-299.764	103.517	0.184	0.214
-298.749	21.957	0.169	-0.137
-297.735	-121.434	0.336	0.055
-296.720	15.029	0.234	-0.182
-295.705	4.459	-0.200	-0.146
-294.691	-54.051	-0.185	-0.084
-293.676	-200.000	-0.029	0.360
-292.662	28.926	0.174	0.146
-291.647	-35.427	0.114	-0.062
-290.632	-200.000	-0.015	0.235
-289.618	150.637	-0.099	0.134
-288.603	-73.713	-0.109	-0.039
-287.589	-70.613	0.218	-0.082
-286.574	-36.811	0.218	-0.116
-285.559	-25.113	-0.141	0.083
-284.545	474.940	0.056	-0.125
-283.530	1.813	0.306	-0.219
-282.516	207.456	-0.078	-0.120
-281.501	-11.615	-0.218	0.142
-280.486	-150.592	-0.330	-0.025
-279.472	26.883	0.255	-0.212
-278.457	-68.661	-0.178	0.068
-277.443	-105.440	0.232	0.052
-276.428	-200.000	-0.005	-0.268
-275.413	12.927	0.186	-0.143
-274.399	86.731	-0.153	-0.167
-273.384	362.073	-0.188	0.374
-272.370	300.821	-0.053	0.096
-271.355	284.978	0.083	-0.149
-270.340	800.000	-0.111	0.341
-269.326	245.448	-0.219	-0.365
-268.311	-200.000	0.022	-0.185
-267.297	61.982	-0.091	0.090
-266.282	-113.136	0.299	0.058
-265.267	14.311	-0.090	-0.070
-264.253	-179.029	0.301	-0.007
-263.238	202.151	-0.173	0.264
-262.224	-200.000	-0.025	-0.392
-261.209	61.287	0.236	0.232
-260.195	800.000	-0.028	0.115
-259.180	-97.850	0.229	0.059
-258.165	155.360	-0.158	-0.215
-257.151	61.554	-0.107	0.106
-256.136	124.447	0.128	-0.160
-255.122	381.821	-0.110	-0.224
-254.107	-120.319	-0.418	0.071
-253.092	11.565	0.182	-0.139
-252.078	236.370	0.071	0.117
-251.063	131.869	-0.023	0.029
-250.049	-119.325	-0.133	-0.023
-249.034	142.082	0.121	0.159
-248.019	-183.041	0.361	0.006
-247.005	800.000	-0.028	-0.078
-245.990	128.390	0.125	0.158
-244.976	320.763	0.196	0.369
-243.961	-107.128	0.413	0.090
-242.946	125.093	-0.133	0.166
-241.932	800.000	0.018	0.068
-240.917	3.130	0.062	0.044
-239.903	-200.000	0.000	-0.362
-238.888	-200.000	0.008	0.225
-237.873	-0.753	0.309	-0.217
-236.859	44.091	0.427	0.387
-235.844	-23.656	0.283	-0.168
-234.830	-51.349	-0.150	0.070
-233.815	-114.162	0.083	0.016
-232.800	472.832	0.041	0.091
-231.786	-136.031	-0.143	0.017
-230.771	-42.674	-0.399	-0.201
-229.757	58.568	0.143	0.139
-228.742	313.549	0.072	-0.134
-227.727	197.016	0.085	-0.129
-226.713	-17.445	0.518	-0.322
-225.698	-200.000	0.030	0.216
-224.684	108.350	-0.106	-0.125
-223.669	-200.000	0.035	0.188
-222.655	79.232	-0.132	-0.140
-221.640	36.849	-0.109	0.095
-220.625	-200.000	-0.031	-0.328
-219.611	-200.000	-0.001	-0.267
-218.596	-54.513	-0.326	-0.146
-217.582	-200.000	-0.012	-0.089
-216.567	93.459	-0.116	0.130
-215.552	-71.312	-0.112	0.042
-214.538	-95.979	0.201	-0.053
-213.523	-200.000	0.011	0.145
-212.509	506.763	0.075	-0.172
-211.494	800.000	-0.027	0.105
-210.479	663.083	0.186	-0.475
-209.465	-200.000	0.024	-0.130
-208.450	170.208	0.084	0.118
-207.436	96.197	0.007	0.008
-206.421	-51.310	0.211	0.097
-205.406	-200.000	0.309	0.001
-204.392	799.231	-0.083	-0.226
-203.377	639.245	0.060	-0.151
-202.363	-147.526	-0.040	-0.003
-201.348	800.000	-0.008	-0.030
-200.333	-75.338	0.373	0.132
-199.319	-119.784	0.193	-0.033
-198.304	-37.370	-0.152	-0.080
-197.290	-158.865	0.369	-0.021
-196.275	-200.000	0.034	-0.183
-195.260	-100.760	0.363	0.088
-194.246	179.998	-0.221	-0.321
-193.231	112.979	-0.124	0.149
-192.217	-200.000	-0.273	-0.000
-191.202	800.000	0.018	0.058
-190.187	-21.813	0.219	0.132
-189.173	-200.000	0.029	0.216
-188.158	90.371	0.163	-0.180
-187.144	-200.000	0.002	0.161
-186.129	311.795	0.033	0.061
-185.114	52.961	0.053	0.050
-184.100	125.646	0.118	-0.147
-183.085	-200.000	0.006	0.274
-182.071	-121.760	0.236	-0.039
-181.056	-200.000	-0.024	0.128
-180.042	-15.141	0.077	0.049
-179.027	-4.277	-0.205	-0.140
-178.012	-91.846	0.372	0.104
-176.998	800.000	0.037	0.149
-175.983	26.222	0.064	0.053
-174.969	-200.000	-0.054	0.240
-173.954	-118.112	-0.248	0.044
-172.939	190.314	-0.132	0.195
-171.925	375.297	-0.113	0.228
-170.910	-4.522	0.169	0.115
-169.896	-200.000	-0.001	-0.056
-168.881	-200.000	0.036	-0.258
-167.866	491.593	0.079	-0.180
-166.852	132.819	0.225	0.287
-165.837	-200.000	-0.041	0.182
-164.823	-200.000	-0.005	-0.045
-163.808	-55.756	0.120	-0.053
-162.793	-124.778	0.323	-0.049
-161.779	284.797	-0.093	0.165
-160.764	-200.000	-0.009	0.122
-159.750	-81.609	0.338	0.110
-158.735	-111.901	0.289	-0.058
-157.720	81.918	-0.232	-0.248
-156.706	1.402	-0.020	0.014
-155.691	-8.116	0.226	-0.150
-154.677	-200.000	-0.018	0.215
-153.662	216.146	0.092	-0.144
-152.647	795.553	0.018	-0.050
-151.633	3.014	0.198	-0.142
-150.618	-126.806	-0.318	0.046
-149.604	-200.000	-0.077	-0.517
-148.589	-200.000	0.036	-0.425
-147.574	166.083	0.184	0.258
-146.560	800.000	0.030	0.113
-145.545	355.342	-0.112	0.219
-144.531	-61.106	0.090	-0.038
-143.516	352.968	-0.059	-0.115
-142.502	596.538	-0.061	-0.150
-141.487	-65.376	0.146	0.058
-140.472	-148.909	-0.204	-0.016
-139.458	-61.583	-0.215	-0.089
-138.443	-200.000	-0.026	-0.158
-137.429	-65.493	-0.218	-0.086
-136.414	800.000	0.048	-0.171
-135.399	-67.080	0.070	-0.027
-134.385	-200.000	0.021	-0.260
-133.370	117.308	0.147	-0.178
-132.356	331.796	0.008	-0.016
-131.341	-71.062	0.152	0.056
-130.326	-111.100	0.095	-0.019
-129.312	-188.723	0.289	-0.003
-128.297	150.840	0.190	-0.255
-127.283	71.844	0.146	-0.150
-126.268	-200.000	-0.016	-0.345
-125.253	58.766	0.129	-0.125
-124.239	-200.000	0.002	-0.266
-123.224	42.097	0.135	0.120
-122.210	-185.998	0.284	0.004
-121.195	-200.000	-0.008	-0.373
-120.180	-121.996	0.304	0.049
-119.166	800.000	-0.089	0.340
-118.151	574.406	0.074	0.179
-117.137	45.448	0.106	-0.096
-116.122	512.275	0.016	0.036
-115.107	800.000	0.045	-0.162
-114.093	174.789	-0.121	-0.173
-113.078	-94.616	0.218	-0.058
-112.064	66.643	0.140	-0.140
-111.049	218.589	0.114	0.180
-110.034	-57.200	-0.306	0.133
-109.020	800.000	-0.043	-0.119
-108.005	-143.659	0.201	0.019
-106.991	-19.939	0.131	0.080
-105.976	51.504	0.089	0.083
-104.962	198.606	0.167	-0.251
-103.947	-49.472	0.270	0.127
-102.932	530.411	0.043	0.101
-101.918	-102.445	0.189	-0.045
-100.903	456.417	0.093	0.202
-99.889	-21.098	-0.252	-0.152
-98.874	300.150	0.021	0.039
-97.859	800.000	-0.092	0.307
-96.845	-54.141	-0.407	-0.182
-95.830	800.000	-0.040	0.119
-94.816	-144.157	0.170	-0.016
-93.801	394.972	-0.164	0.336
-92.786	-56.801	-0.231	-0.101
-91.772	105.705	-0.194	-0.226
-90.757	14.068	-0.135	-0.103
-89.743	-17.905	0.218	0.135
-88.728	-98.644	0.180	-0.045
-87.713	-140.118	-0.200	-0.021
-86.699	3.436	-0.327	0.234
-85.684	-139.133	-0.295	-0.031
-84.670	1.269	0.223	-0.157
-83.655	-89.346	0.076	-0.022
-82.640	36.228	0.072	-0.062
-81.626	-51.630	0.166	-0.076
-80.611	205.723	-0.069	0.105
-79.597	-99.315	0.342	-0.085
-78.582	800.000	-0.086	0.320
-77.567	25.248	-0.074	0.060
-76.553	-200.000	0.010	-0.226
-75.538	-200.000	0.004	0.147
-74.524	461.082	0.118	0.258
-73.509	-131.374	-0.242	0.031
-72.494	800.000	-0.120	0.331
-71.480	126.920	0.071	0.089
-70.465	110.723	0.116	0.138
-69.451	388.680	-0.062	-0.126
-68.436	-157.434	-0.408	0.024
-67.422	-169.039	0.377	-0.014
-66.407	-78.097	-0.025	-0.009
-65.392	-31.709	0.276	0.152
-64.378	800.000	-0.086	0.258
-63.363	-200.000	-0.006	-0.094
-62.349	800.000	0.059	0.201
-61.334	56.214	-0.842	-0.804
-60.319	800.000	0.136	0.518
-59.305	-200.000	0.028	-0.893
-58.290	800.000	0.314	0.915
-57.276	575.836	0.707	1.698
-56.261	-200.000	94.764	575.443
-55.246	660.347	1370.442	3468.213
-54.232	199.444	2550.855	3843.855
-53.217	114.337	2267.886	2713.493
-52.203	42.203	1894.266	1690.890
-51.188	36.000	1684.898	1457.198
-50.173	33.189	1641.040	1398.458
-49.159	50.649	1686.539	1568.353
-48.144	52.235	1703.061	1595.529
-47.130	35.548	1664.214	1435.704
-46.115	32.783	1649.997	1402.851
-45.100	32.570	1645.206	1397.139
-44.086	32.628	1641.851	1394.668
-43.071	32.528	1639.297	1391.706
-42.057	32.598	1636.851	1390.090
-41.042	32.523	1635.071	1387.965
-40.027	32.513	1633.352	1386.378
-39.013	32.542	1630.962	1384.513
-37.998	32.545	1629.484	1383.222
-36.984	32.508	1628.599	1382.144
-35.969	32.607	1627.079	1381.524
-34.954	32.628	1625.631	1380.398
-33.940	32.749	1623.376	1379.309
-32.925	32.666	1621.845	1377.346
-31.911	32.590	1620.421	1375.529
-30.896	32.611	1618.393	1373.906
-29.881	32.556	1617.471	1372.671
-28.867	32.702	1615.135	1371.695
-27.852	32.685	1613.531	1370.153
-26.838	32.638	1612.115	1368.555
-25.823	32.656	1611.127	1367.790
-24.809	32.741	1609.265	1366.777
-23.794	32.612	1608.227	1364.904
-22.779	32.636	1606.510	1363.566
-21.765	32.647	1605.410	1362.661
-20.750	32.597	1603.590	1360.696
-19.736	32.663	1602.053	1359.816
-18.721	32.696	1600.674	1358.826
-17.706	32.714	1599.103	1357.574
-16.692	32.735	1597.865	1356.621
-15.677	32.574	1596.453	1354.206
-14.663	32.667	1595.178	1353.740
-13.648	32.681	1593.800	1352.615
-12.633	32.687	1591.529	1350.681
-11.619	32.660	1590.290	1349.380
-10.604	32.805	1588.480	1348.828
-9.590	32.590	1587.554	1346.455
-8.575	32.628	1586.228	1345.544
-7.560	32.680	1584.968	1344.794
-6.546	32.658	1584.246	1343.975
-5.531	32.677	1582.740	1342.778
-4.517	32.657	1581.175	1341.256
-3.502	32.685	1580.267	1340.631
-2.487	32.669	1578.986	1339.375
-1.473	32.508	1567.150	1328.150
-0.458	29.721	1548.415	1292.762
0.556	26.005	1549.031	1261.225
1.571	23.642	1572.559	1263.471
2.586	23.209	1585.407	1270.573
3.600	20.564	1532.042	1209.329
4.615	12.580	1423.735	1071.915
5.629	5.799	1360.840	982.125
6.644	4.828	1353.700	970.832
7.659	4.632	1351.700	968.093
8.673	4.687	1350.601	967.561
9.688	4.703	1348.999	966.428
10.702	4.590	1346.384	963.768
11.717	7.584	1352.359	986.579
12.731	15.336	1365.418	1044.466
13.746	19.874	1372.730	1078.316
14.761	19.384	1370.704	1073.577
15.775	18.313	1368.495	1065.094
16.790	17.227	1365.796	1056.153
17.804	16.657	1363.160	1050.486
18.819	16.076	1362.087	1045.960
19.834	15.857	1360.771	1043.501
20.848	15.699	1359.171	1041.202
21.863	15.429	1358.122	1038.635
22.877	15.288	1357.363	1037.092
23.892	15.289	1355.815	1035.825
24.907	15.270	1354.872	1034.891
25.921	15.241	1354.301	1034.187
26.936	15.317	1353.549	1033.988
27.950	15.348	1352.464	1033.263
28.965	15.412	1351.340	1032.704
29.980	15.426	1350.898	1032.359
30.994	15.590	1349.550	1032.247
32.009	15.669	1348.190	1031.602
33.023	15.565	1347.016	1029.975
34.038	15.595	1345.622	1029.003
35.053	15.503	1343.926	1027.048
36.067	15.401	1343.886	1026.305
37.082	15.476	1341.878	1025.139
38.096	15.491	1341.007	1024.475
39.111	15.467	1340.646	1023.962
40.126	15.435	1339.589	1022.867
41.140	15.232	1338.983	1021.076
42.155	15.125	1338.532	1019.990
43.169	15.193	1338.379	1020.200
44.184	15.142	1337.453	1019.094
45.199	15.110	1337.966	1019.195
46.213	15.261	1336.827	1019.159
47.228	15.376	1335.851	1019.022
48.242	15.351	1335.444	1018.470
49.257	15.391	1333.392	1017.060
50.271	15.370	1331.935	1015.731
51.286	15.433	1330.751	1015.115
52.301	15.359	1329.506	1013.630
53.315	15.242	1328.374	1011.971
54.330	15.223	1327.474	1011.084
55.344	15.194	1326.439	1010.030
56.359	15.221	1325.146	1009.116
57.374	15.240	1324.267	1008.471
58.388	15.201	1323.664	1007.693
59.403	15.125	1322.944	1006.595
60.417	15.142	1322.294	1006.118
61.432	15.071	1321.342	1004.877
62.447	15.122	1320.099	1004.145
63.461	15.062	1319.474	1003.225
64.476	15.043	1318.165	1002.026
65.490	14.941	1316.863	1000.340
66.505	15.056	1315.092	999.591
67.520	15.065	1314.137	998.828
68.534	15.024	1313.575	998.068
69.549	15.075	1312.267	997.289
70.563	15.111	1311.257	996.648
71.578	15.004	1310.048	995.005
72.593	14.938	1308.969	993.704
73.607	14.861	1308.786	993.022
74.622	14.980	1307.774	992.873
75.636	14.829	1307.663	991.804
76.651	14.965	1306.485	991.632
77.666	14.972	1305.944	991.171
78.680	15.012	1305.160	990.728
79.695	15.099	1304.523	990.669
80.709	15.134	1303.615	990.099
81.724	15.012	1303.608	989.285
82.739	15.127	1302.759	989.236
83.753	15.314	1301.102	988.992
84.768	15.384	1300.346	988.742
85.782	15.469	1299.041	988.163
86.797	15.476	1298.190	987.466
87.812	15.243	1296.976	985.087
88.826	15.453	1295.412	985.047
89.841	15.401	1294.857	984.230
90.855	15.359	1294.220	983.412
91.870	15.478	1292.853	982.988
92.884	15.550	1291.916	982.606
93.899	15.477	1291.402	981.702
94.914	15.551	1290.411	981.295
95.928	15.631	1289.625	981.076
96.943	15.452	1288.942	979.428
97.957	15.412	1287.676	978.143
98.972	15.512	1286.799	977.975
99.987	15.542	1285.661	977.200
101.001	15.417	1284.952	975.844
102.016	15.442	1284.114	975.264
103.030	15.454	1283.072	974.457
104.045	15.539	1281.989	974.045
105.060	15.429	1280.728	972.360
106.074	15.204	1279.493	970.036
107.089	15.140	1277.895	968.368
108.103	15.066	1277.006	967.180
109.118	15.058	1275.876	966.192
110.133	15.110	1274.336	965.242
111.147	15.124	1272.801	964.077
112.162	15.164	1271.646	963.345
113.176	15.235	1270.501	962.798
114.191	15.254	1269.712	962.227
115.206	15.179	1268.723	960.963
116.220	15.165	1267.328	959.740
117.235	15.251	1266.217	959.306
118.249	15.259	1265.541	958.757
119.264	15.114	1264.370	956.955
120.279	15.165	1263.157	956.245
121.293	15.013	1262.263	954.614
122.308	15.080	1261.317	954.195
123.322	15.086	1259.858	953.042
124.337	15.094	1258.731	952.153
125.352	15.053	1257.327	950.771
126.366	14.993	1256.671	949.850
127.381	15.118	1255.577	949.646
128.395	15.029	1254.730	948.417
129.410	15.074	1254.037	948.065
130.424	15.037	1253.765	947.569
131.439	15.216	1252.040	947.193
132.454	15.171	1250.933	946.015
133.468	15.157	1250.229	945.323
134.483	15.253	1249.772	945.431
135.497	15.141	1248.740	943.935
136.512	15.174	1247.542	943.134
137.527	15.248	1245.988	942.295
138.541	15.249	1244.885	941.379
139.556	15.254	1243.850	940.545
140.570	15.434	1242.664	940.574
141.585	15.384	1241.503	939.333
142.600	15.407	1240.611	938.700
143.614	15.494	1239.774	938.469
144.629	15.564	1238.179	937.570
145.643	15.553	1237.273	936.740
146.658	15.425	1236.194	935.127
147.673	15.345	1235.075	933.754
148.687	15.372	1233.713	932.788
149.702	15.374	1232.053	931.467
150.716	15.313	1231.030	930.269
151.731	15.280	1230.017	929.239
152.746	15.231	1228.861	928.011
153.760	15.391	1227.523	927.803
154.775	15.383	1226.970	927.260
155.789	15.425	1225.842	926.558
156.804	15.484	1224.902	926.090
157.819	15.525	1223.576	925.234
158.833	15.529	1222.968	924.714
159.848	15.691	1221.959	924.759
160.862	15.597	1221.161	923.557
161.877	15.459	1219.963	921.812
162.892	15.384	1218.849	920.478
163.906	15.454	1217.950	920.099
164.921	15.428	1217.108	919.240
165.935	15.504	1216.113	918.823
166.950	15.428	1215.786	918.080
167.964	15.526	1215.100	918.015
168.979	15.450	1213.972	916.665
169.994	15.471	1213.613	916.431
171.008	15.536	1212.475	915.843
172.023	15.664	1211.550	915.760
173.037	15.550	1210.849	914.529
174.052	15.685	1210.013	914.551
175.067	15.554	1209.094	913.065
176.081	15.558	1208.075	912.234
177.096	15.440	1207.435	911.032
178.110	15.544	1206.241	910.615
179.125	15.539	1204.788	909.411
180.140	15.469	1203.547	908.012
181.154	15.519	1202.425	907.357
182.169	15.664	1201.333	907.236
183.183	15.620	1200.507	906.291
184.198	15.758	1198.843	905.703
185.213	15.727	1197.819	904.678
186.227	15.781	1196.869	904.175
187.242	15.771	1196.006	903.389
188.256	15.824	1194.965	902.803
189.271	15.889	1193.967	902.318
190.286	15.792	1193.044	901.023
191.300	15.515	1192.062	898.721
192.315	15.399	1191.507	897.601
193.329	15.398	1190.848	897.022
194.344	15.567	1190.221	897.369
195.359	15.623	1189.447	897.004
196.373	15.709	1189.156	897.164
197.388	15.727	1189.048	897.100
198.402	15.990	1188.120	897.724
199.417	16.030	1187.358	897.280
200.432	15.946	1186.888	896.401
201.446	16.133	1185.928	896.589
202.461	16.091	1185.023	895.604
203.475	16.115	1184.206	895.033
204.490	16.006	1183.125	893.562
205.504	15.894	1181.777	891.869
206.519	15.858	1180.503	890.638
207.534	15.888	1179.605	890.041
208.548	16.003	1178.156	889.477
209.563	15.930	1177.590	888.585
210.577	16.005	1176.655	888.196
211.592	16.105	1175.878	888.060
212.607	16.218	1175.143	888.019
213.621	16.044	1174.290	886.381
214.636	16.133	1173.160	885.914
215.650	16.111	1172.277	885.055
216.665	16.182	1171.614	884.847
217.680	16.294	1170.758	884.711
218.694	16.209	1170.183	883.756
219.709	16.228	1168.954	882.848
220.723	16.265	1168.257	882.437
221.738	16.203	1167.855	881.731
222.753	16.312	1166.968	881.551
223.767	16.358	1166.298	881.209
224.782	16.451	1165.538	881.040
225.796	16.410	1165.158	880.463
226.811	16.440	1164.262	879.864
227.826	16.377	1163.125	878.596
228.840	16.221	1162.831	877.486
229.855	16.298	1162.115	877.268
230.869	16.372	1161.219	876.901
231.884	16.255	1160.618	875.761
232.899	16.149	1159.848	874.551
233.913	16.221	1158.781	874.041
234.928	16.177	1157.809	873.004
235.942	16.185	1157.331	872.611
236.957	16.201	1156.877	872.270
237.972	16.265	1156.017	871.876
238.986	16.204	1155.373	870.998
240.001	16.293	1154.620	870.816
241.015	16.296	1153.900	870.210
242.030	16.258	1153.461	869.607
243.045	16.406	1152.450	869.529
244.059	16.409	1151.735	868.929
245.074	16.418	1150.512	867.971
246.088	16.358	1150.218	867.366
247.103	16.550	1149.157	867.476
248.117	16.575	1148.741	867.212
249.132	16.621	1148.100	866.887
250.147	16.763	1147.434	867.034
251.161	16.951	1146.685	867.351
252.176	16.876	1145.955	866.342
253.190	16.889	1145.234	865.786
254.205	16.910	1144.796	865.484
255.220	16.898	1144.418	865.064
256.234	16.952	1143.516	864.580
257.249	16.928	1143.046	864.023
258.263	16.915	1142.499	863.470
259.278	16.942	1141.256	862.589
260.293	16.884	1141.310	862.261
261.307	17.030	1140.336	862.188
262.322	17.120	1139.705	862.094
263.336	17.058	1139.193	861.313
264.351	17.128	1138.742	861.252
265.366	17.052	1137.981	860.215
266.380	17.096	1137.070	859.675
267.395	16.974	1136.105	858.248
268.409	17.071	1135.550	858.244
269.424	17.064	1134.775	857.550
270.439	17.077	1134.192	857.098
271.453	16.988	1133.648	856.160
272.468	17.101	1132.438	855.741
273.482	17.010	1132.058	854.920
274.497	16.979	1131.413	854.204
275.512	17.029	1130.508	853.694
276.526	17.034	1129.942	853.216
277.541	16.939	1129.604	852.409
278.555	17.103	1128.394	852.243
279.570	17.152	1127.945	852.073
280.585	17.215	1127.136	851.703
281.599	17.238	1126.232	851.062
282.614	17.154	1125.312	849.868
283.628	17.203	1123.572	848.724
284.643	17.073	1122.995	847.563
285.657	17.186	1121.975	847.285
286.672	17.089	1121.362	846.264
287.687	17.299	1120.475	846.563
288.701	17.167	1119.638	845.199
289.716	17.194	1118.771	844.605
290.730	17.228	1118.242	844.300
291.745	17.321	1117.330	843.998
292.760	17.322	1117.016	843.690
293.774	17.376	1116.314	843.353
294.789	17.466	1115.835	843.361
295.803	17.432	1114.900	842.416
296.818	17.391	1114.054	841.497
297.833	17.285	1113.698	840.630
298.847	17.334	1112.795	840.116
299.862	17.410	1111.913	839.752
300.876	17.394	1111.495	839.284
301.891	17.404	1110.945	838.842
302.906	17.539	1110.115	838.807
303.920	17.586	1109.224	838.287
304.935	17.513	1109.391	837.984
305.949	17.662	1108.639	838.074
306.964	17.723	1107.443	837.396
307.979	17.557	1107.052	836.211
308.993	17.599	1106.204	835.702
310.008	17.541	1105.461	834.782
311.022	17.600	1104.887	834.562
312.037	17.742	1103.466	834.112
313.052	17.592	1102.765	832.773
314.066	17.644	1101.792	832.217
315.081	17.503	1100.711	830.641
316.095	17.521	1100.279	830.331
317.110	17.525	1099.598	829.763
318.125	17.441	1098.855	828.719
319.139	17.450	1098.132	828.146
320.154	17.514	1097.744	828.088
321.168	17.442	1096.967	827.079
322.183	17.553	1096.762	827.392
323.197	17.595	1095.693	826.716
324.212	17.649	1095.085	826.444
325.227	17.687	1094.403	826.043
326.241	17.636	1093.979	825.400
327.256	17.675	1093.084	824.840
328.270	17.661	1092.226	824.054
329.285	17.525	1091.601	822.850
330.300	17.673	1090.502	822.663
331.314	17.651	1089.372	821.635
332.329	17.600	1088.390	820.574
333.343	17.664	1087.993	820.509
334.358	17.751	1087.014	820.116
335.373	17.718	1086.342	819.378
336.387	17.746	1085.642	818.917
337.402	17.853	1084.780	818.703
338.416	17.918	1084.373	818.636
339.431	17.979	1083.450	818.161
340.446	17.987	1083.085	817.850
341.460	18.069	1082.445	817.685
342.475	18.090	1081.863	817.273
343.489	18.154	1080.737	816.659
344.504	18.130	1079.557	815.581
345.519	18.265	1078.585	815.419
346.533	18.278	1077.967	814.940
347.548	18.273	1077.522	814.505
348.562	18.233	1076.823	813.714
349.577	18.161	1076.105	812.761
350.592	18.026	1075.195	811.358
351.606	18.061	1074.400	810.855
352.621	18.082	1073.383	810.113
353.635	17.976	1073.049	809.289
354.650	18.027	1072.178	808.802
355.665	18.050	1071.679	808.462
356.679	18.123	1071.192	808.366
357.694	18.129	1070.474	807.783
358.708	18.138	1069.949	807.359
359.723	18.237	1069.095	807.109
360.738	18.129	1068.664	806.203
361.752	18.216	1068.156	806.160
362.767	18.221	1067.534	805.642
363.781	18.172	1067.355	805.206
364.796	18.325	1066.644	805.317
365.810	18.403	1065.707	804.903
366.825	18.501	1065.022	804.777
367.840	18.526	1064.881	804.717
368.854	18.371	1064.480	803.615
369.869	18.532	1063.543	803.589
370.883	18.595	1062.352	802.912
371.898	18.456	1061.586	801.614
372.913	18.452	1061.509	801.468
373.927	18.485	1060.748	800.976
374.942	18.631	1060.082	801.084
375.956	18.545	1059.561	800.217
376.971	18.637	1058.795	799.999
377.986	18.598	1058.628	799.618
379.000	18.567	1058.380	799.216
380.015	18.775	1057.661	799.568
381.029	18.755	1056.958	798.872
382.044	18.764	1056.180	798.256
383.059	18.762	1055.575	797.723
384.073	18.771	1054.954	797.220
385.088	18.822	1053.815	796.525
386.102	18.718	1053.192	795.502
387.117	18.664	1051.798	794.129
388.132	18.651	1050.676	793.152
389.146	18.642	1050.520	792.926
390.161	18.630	1049.216	791.813
391.175	18.708	1048.776	791.771
392.190	18.595	1048.184	790.733
393.205	18.759	1047.542	790.935
394.219	18.735	1046.533	789.992
395.234	18.726	1045.762	789.302
396.248	18.743	1044.746	788.544
397.263	18.810	1043.558	787.880
398.278	18.642	1043.167	786.749
399.292	18.634	1042.430	786.086
400.307	18.636	1041.486	785.314
401.321	18.618	1040.985	784.785
402.336	18.754	1040.052	784.630
403.350	18.707	1039.684	784.070
404.365	18.666	1039.116	783.383
405.380	18.666	1038.704	783.006
406.394	18.739	1037.768	782.562
407.409	18.889	1036.729	782.394
408.423	19.001	1036.086	782.349
409.438	19.066	1035.559	782.174
410.453	19.168	1034.747	781.958
411.467	19.066	1034.272	781.065
412.482	19.141	1034.030	781.153
413.496	19.207	1032.968	780.584
414.511	19.185	1032.655	780.177
415.526	19.205	1031.991	779.697
416.540	19.314	1031.664	779.873
417.555	19.390	1030.763	779.465
418.569	19.193	1030.607	778.389
419.584	19.278	1030.237	778.425
420.599	19.461	1029.411	778.560
421.613	151.907	1400.636	1796.703
422.628	138.597	1454.718	1796.813
