DTS Sentinel unit serial number:	SN413079Multiplexer serial number:	ORYXHardware model number:	OX4-SRSoftware version number:	ORYX F/W v4.00 Oryx Data Collector v3.7.2.0data status	okinstallation	princeton_trtdifferential loss correction	single-endedforward channel	channel 2reverse channel	N/Adate	2019/09/13time	06:11:34forward acquisition time	60.00reverse acquisition time	0.00gamma	496.2192k internal	0.2337k external	0.2337temperature offset calibration	1.0193default loss term (dB/km)	0.3790temperature slope calibration	1.0000multiplexer offset coefficient	1.0000multiplexer slope coefficient	1.0000fibre end	0.00T internal ref (°C)	26.12T ext. ref 1 (°C)	4.08T ext. ref 2 (°C)	20.93length (m)	temperature (°C)	Stokes	anti-Stokes-747.200	-200.000	-0.018	0.295
-746.185	-39.212	-0.211	-0.111
-745.171	-200.000	-0.057	0.294
-744.156	-131.183	-0.318	-0.042
-743.142	800.000	0.100	0.437
-742.127	-162.911	0.379	0.018
-741.112	-179.956	-0.389	0.008
-740.098	-200.000	-0.002	0.169
-739.083	-200.000	0.004	0.241
-738.069	76.083	-0.245	0.260
-737.054	9.548	-0.179	0.136
-736.039	153.317	0.058	-0.080
-735.025	800.000	-0.062	0.210
-734.010	280.420	-0.160	-0.287
-732.996	-103.083	0.111	0.026
-731.981	-96.659	-0.298	-0.079
-730.966	-62.255	-0.132	0.055
-729.952	-171.249	-0.160	-0.005
-728.937	629.868	0.027	-0.068
-727.923	-200.000	-0.021	0.199
-726.908	64.118	0.061	-0.061
-725.894	247.417	-0.108	-0.183
-724.879	24.449	0.159	-0.132
-723.864	-137.672	-0.317	-0.036
-722.850	-2.646	-0.223	-0.157
-721.835	118.044	-0.111	0.137
-720.821	15.434	-0.115	-0.091
-719.806	-100.921	-0.219	-0.054
-718.791	-55.043	-0.177	-0.080
-717.777	639.035	0.035	-0.090
-716.762	-200.000	-0.439	0.000
-715.748	800.000	0.104	-0.296
-714.733	-200.000	-0.012	0.061
-713.718	-2.410	0.147	0.103
-712.704	-189.408	-0.079	0.001
-711.689	110.004	-0.046	-0.056
-710.675	-51.965	0.097	0.045
-709.660	173.419	-0.166	-0.240
-708.645	82.685	0.115	0.126
-707.631	5.234	0.130	0.096
-706.616	-90.622	0.296	-0.086
-705.602	-200.000	-0.093	-0.574
-704.587	-166.760	0.201	0.008
-703.572	17.585	-0.213	-0.170
-702.558	25.755	-0.082	0.069
-701.543	-29.373	-0.326	0.187
-700.529	-172.410	0.213	-0.007
-699.514	28.143	-0.258	-0.218
-698.499	-200.000	0.024	-0.223
-697.485	5.724	-0.245	-0.182
-696.470	75.487	-0.094	0.099
-695.456	25.539	0.176	-0.147
-694.441	48.068	-0.196	-0.184
-693.426	291.226	0.176	-0.322
-692.412	-25.593	0.069	0.041
-691.397	231.165	0.106	-0.174
-690.383	530.371	0.063	-0.148
-689.368	-118.676	0.063	-0.011
-688.354	-200.000	0.005	-0.193
-687.339	6.907	-0.226	-0.169
-686.324	-157.247	-0.284	0.017
-685.310	-26.148	-0.268	-0.158
-684.295	-50.947	-0.268	0.126
-683.281	141.835	-0.121	-0.160
-682.266	-200.000	0.071	0.361
-681.251	495.743	-0.095	0.219
-680.237	-24.314	-0.216	0.129
-679.222	-200.000	-0.053	-0.238
-678.208	-200.000	-0.079	0.389
-677.193	268.672	0.184	-0.322
-676.178	-33.118	-0.418	-0.232
-675.164	800.000	0.024	0.094
-674.149	155.995	0.076	0.105
-673.135	-200.000	-0.053	-0.326
-672.120	-170.867	0.222	0.008
-671.105	126.613	-0.096	-0.122
-670.091	-6.847	0.200	-0.136
-669.076	-59.641	-0.436	-0.187
-668.062	-67.318	-0.291	-0.115
-667.047	-90.462	0.110	-0.032
-666.032	602.702	-0.069	-0.171
-665.018	-200.000	0.035	-0.567
-664.003	-200.000	0.004	0.140
-662.989	-37.196	-0.052	-0.028
-661.974	-21.143	-0.485	0.297
-660.959	-133.740	-0.083	0.010
-659.945	-146.830	-0.273	-0.024
-658.930	800.000	-0.027	0.094
-657.916	-200.000	-0.027	0.193
-656.901	-128.059	0.412	0.059
-655.886	800.000	0.033	-0.143
-654.872	-92.481	-0.035	-0.010
-653.857	-35.538	-0.132	-0.072
-652.843	-63.544	-0.243	-0.100
-651.828	27.929	0.081	0.068
-650.814	4.076	-0.158	-0.115
-649.799	527.088	-0.061	0.144
-648.784	800.000	0.049	0.144
-647.770	172.191	-0.167	-0.240
-646.755	-59.844	-0.128	0.055
-645.741	136.796	-0.198	-0.258
-644.726	307.353	-0.082	0.154
-643.711	195.796	0.023	-0.035
-642.697	-118.715	0.291	-0.051
-641.682	648.865	0.020	-0.051
-640.668	158.922	0.136	-0.189
-639.653	77.976	-0.224	0.238
-638.638	-159.328	-0.451	-0.025
-637.624	800.000	-0.017	-0.053
-636.609	-84.072	-0.266	0.084
-635.595	116.248	0.144	-0.176
-634.580	64.187	-0.150	0.151
-633.565	800.000	0.089	-0.345
-632.551	-114.746	0.201	-0.038
-631.536	-183.610	0.110	-0.002
-630.522	254.191	-0.052	0.089
-629.507	-194.370	-0.051	-0.000
-628.492	-90.421	-0.024	-0.007
-627.478	125.123	-0.052	0.066
-626.463	-200.000	0.001	0.018
-625.449	226.613	-0.089	0.145
-624.434	142.001	-0.047	0.062
-623.419	-114.499	-0.307	-0.059
-622.405	800.000	0.047	-0.179
-621.390	800.000	-0.133	-0.437
-620.376	574.459	-0.120	-0.292
-619.361	92.663	-0.045	0.050
-618.346	-95.785	0.169	-0.045
-617.332	-200.000	0.010	0.052
-616.317	98.473	0.302	-0.348
-615.303	223.985	-0.106	-0.172
-614.288	503.812	-0.064	-0.148
-613.273	-112.927	-0.190	0.038
-612.259	13.455	-0.134	-0.104
-611.244	115.944	0.165	-0.201
-610.230	800.000	-0.063	-0.237
-609.215	-13.840	-0.178	-0.115
-608.201	-60.500	0.321	0.136
-607.186	800.000	-0.097	-0.319
-606.171	130.034	0.110	-0.140
-605.157	-200.000	-0.001	0.031
-604.142	-134.301	-0.153	0.019
-603.128	688.734	-0.076	0.199
-602.113	405.084	-0.111	0.234
-601.098	-200.000	0.042	0.203
-600.084	-138.054	-0.171	0.019
-599.069	-136.681	0.303	-0.035
-598.055	141.004	-0.186	0.245
-597.040	794.558	0.022	0.061
-596.025	236.068	-0.116	0.192
-595.011	-16.996	-0.088	0.055
-593.996	-200.000	-0.088	-0.528
-592.982	-200.000	-0.000	-0.129
-591.967	-200.000	-0.029	0.256
-590.952	-23.670	-0.142	-0.085
-589.938	-46.596	0.106	-0.052
-588.923	800.000	0.136	0.549
-587.909	231.153	-0.043	-0.070
-586.894	-200.000	-0.052	-0.391
-585.879	302.678	-0.044	0.082
-584.865	645.513	-0.030	-0.077
-583.850	-187.387	0.025	-0.000
-582.836	92.221	0.117	-0.132
-581.821	800.000	-0.013	0.042
-580.806	-121.049	0.393	-0.066
-579.792	36.475	-0.148	-0.130
-578.777	800.000	0.121	0.413
-577.763	-42.519	-0.069	0.035
-576.748	-52.361	0.392	0.181
-575.733	658.289	-0.027	-0.069
-574.719	-200.000	0.023	0.143
-573.704	39.212	-0.098	-0.088
-572.690	-200.000	-0.018	0.312
-571.675	712.026	-0.052	0.138
-570.661	444.823	0.053	-0.115
-569.646	47.095	-0.116	-0.107
-568.631	622.898	0.124	-0.312
-567.617	-128.625	-0.142	-0.020
-566.602	-93.692	-0.230	-0.063
-565.588	425.431	0.083	-0.178
-564.573	93.080	0.128	0.144
-563.558	-160.234	0.192	0.010
-562.544	98.026	-0.172	0.197
-561.529	-19.894	-0.373	0.230
-560.515	-167.542	0.292	0.012
-559.500	354.302	0.019	0.038
-558.485	24.065	-0.151	-0.124
-557.471	800.000	-0.038	-0.165
-556.456	615.226	0.070	-0.176
-555.442	242.084	-0.007	0.012
-554.427	513.699	-0.099	0.229
-553.412	-87.445	0.166	-0.050
-552.398	-157.492	0.221	0.013
-551.383	435.318	0.202	-0.438
-550.369	-200.000	-0.019	-0.091
-549.354	279.727	-0.166	0.296
-548.339	-9.035	0.269	-0.180
-547.325	-125.717	0.172	0.026
-546.310	93.811	0.415	0.468
-545.296	800.000	-0.073	0.295
-544.281	-200.000	-0.021	-0.157
-543.266	-200.000	0.016	-0.237
-542.252	-59.901	-0.140	-0.060
-541.237	269.764	-0.045	0.079
-540.223	239.470	0.091	0.151
-539.208	85.330	-0.152	-0.167
-538.193	52.096	-0.076	-0.072
-537.179	-37.550	-0.021	0.011
-536.164	-31.648	-0.262	0.147
-535.150	274.649	0.179	-0.316
-534.135	-98.628	-0.364	-0.093
-533.121	582.586	0.092	-0.224
-532.106	557.387	0.126	-0.302
-531.091	800.000	-0.058	-0.168
-530.077	-20.823	-0.293	0.179
-529.062	-161.786	0.140	0.007
-528.048	-160.283	-0.193	-0.010
-527.033	800.000	-0.091	0.275
-526.018	800.000	-0.064	0.225
-525.004	800.000	0.060	-0.231
-523.989	-77.287	-0.088	0.030
-522.975	-82.698	0.088	0.028
-521.960	-200.000	-0.043	-0.203
-520.945	767.300	-0.039	-0.107
-519.931	-31.287	-0.190	0.107
-518.916	-5.277	0.236	-0.162
-517.902	-82.946	-0.094	-0.030
-516.887	82.671	0.068	-0.074
-515.872	201.033	-0.210	-0.322
-514.858	138.418	0.061	-0.080
-513.843	22.213	0.279	0.226
-512.829	-200.000	-0.002	0.029
-511.814	-115.410	-0.240	-0.045
-510.799	150.527	0.238	-0.322
-509.785	-200.000	-0.018	-0.083
-508.770	76.096	0.074	-0.078
-507.756	60.957	-0.075	0.074
-506.741	366.580	-0.066	-0.132
-505.726	261.957	-0.071	-0.122
-504.712	-97.342	-0.353	0.091
-503.697	-91.872	0.131	0.037
-502.683	-57.001	0.338	0.148
-501.668	89.496	-0.165	0.183
-500.653	251.769	-0.046	0.078
-499.639	-41.056	-0.229	-0.117
-498.624	-200.000	0.019	-0.118
-497.610	330.618	-0.120	-0.230
-496.595	-79.215	0.182	0.061
-495.581	-200.000	-0.033	0.281
-494.566	46.213	-0.173	-0.160
-493.551	-50.995	-0.360	0.168
-492.537	-8.681	0.288	-0.192
-491.522	-80.325	-0.229	-0.076
-490.508	-25.367	-0.210	-0.124
-489.493	-11.551	-0.164	-0.107
-488.478	239.694	-0.106	0.175
-487.464	-121.511	0.145	-0.024
-486.449	-200.000	-0.047	-0.310
-485.435	-200.000	-0.031	-0.245
-484.420	-8.993	-0.305	-0.203
-483.405	-134.485	-0.163	-0.020
-482.391	198.598	0.200	0.304
-481.376	-33.690	-0.074	-0.040
-480.362	0.245	-0.218	-0.154
-479.347	501.163	0.156	0.359
-478.332	138.006	-0.098	-0.128
-477.318	261.592	-0.108	0.186
-476.303	-14.587	0.050	-0.032
-475.289	0.076	0.195	-0.138
-474.274	9.921	0.243	-0.183
-473.259	-106.397	-0.358	0.080
-472.245	147.365	0.289	-0.387
-471.230	266.221	0.040	-0.069
-470.216	-3.048	-0.210	0.145
-469.201	-24.466	-0.083	0.049
-468.186	414.294	-0.029	0.061
-467.172	-82.278	0.143	0.046
-466.157	-200.000	-0.007	0.297
-465.143	800.000	0.037	-0.148
-464.128	-6.786	0.372	0.251
-463.113	-16.780	0.072	-0.045
-462.099	800.000	-0.088	0.281
-461.084	149.948	-0.027	0.036
-460.070	800.000	-0.054	-0.172
-459.055	674.772	0.065	0.168
-458.040	800.000	0.025	-0.091
-457.026	800.000	0.036	0.136
-456.011	-192.798	-0.323	0.003
-454.997	800.000	0.066	0.253
-453.982	58.055	-0.196	0.190
-452.968	493.162	0.105	-0.239
-451.953	-141.802	-0.127	-0.013
-450.938	-164.595	0.373	0.017
-449.924	-3.059	-0.118	-0.082
-448.909	-81.588	0.025	-0.008
-447.895	14.504	-0.102	0.079
-446.880	800.000	-0.033	0.111
-445.865	-135.158	0.048	-0.006
-444.851	113.292	-0.037	0.044
-443.836	-167.271	-0.345	-0.014
-442.822	-124.355	0.224	0.035
-441.807	-63.105	-0.190	0.078
-440.792	439.146	-0.178	0.385
-439.778	184.623	-0.035	0.051
-438.763	60.843	-0.124	0.122
-437.749	-200.000	0.004	0.356
-436.734	-86.014	-0.225	0.069
-435.719	83.061	0.152	-0.165
-434.705	-20.062	-0.082	-0.050
-433.690	195.286	0.025	-0.038
-432.676	-114.413	0.115	-0.022
-431.661	238.468	-0.035	0.058
-430.646	146.720	-0.124	-0.166
-429.632	-200.000	0.001	0.278
-428.617	-136.237	0.297	-0.034
-427.603	97.955	0.116	0.132
-426.588	87.795	0.143	0.158
-425.573	-134.655	0.275	0.033
-424.559	709.624	-0.060	0.157
-423.544	800.000	-0.050	-0.196
-422.530	-166.837	0.330	-0.013
-421.515	-119.322	-0.267	-0.046
-420.500	800.000	0.051	-0.192
-419.486	-108.795	0.384	-0.081
-418.471	538.531	-0.031	0.072
-417.457	-69.702	0.268	-0.102
-416.442	-34.660	0.172	-0.093
-415.428	425.520	-0.130	0.277
-414.413	636.335	0.044	-0.110
-413.398	-200.000	-0.134	-0.590
-412.384	-132.132	0.144	-0.019
-411.369	800.000	-0.087	-0.258
-410.355	-121.583	0.356	0.058
-409.340	-49.319	-0.151	0.072
-408.325	-45.322	0.376	0.185
-407.311	-69.175	0.159	-0.061
-406.296	-138.703	-0.117	0.013
-405.282	-33.088	0.017	0.009
-404.267	123.187	-0.217	0.269
-403.252	-200.000	0.056	-0.248
-402.238	456.935	0.046	0.100
-401.223	-60.994	0.103	0.043
-400.209	-55.382	0.339	-0.151
-399.194	-200.000	0.024	0.302
-398.179	-54.086	-0.267	0.120
-397.165	211.034	-0.022	0.034
-396.150	15.190	0.169	0.131
-395.136	-26.211	-0.292	0.170
-394.121	-84.627	0.562	-0.175
-393.106	14.545	0.067	-0.052
-392.092	83.848	0.235	0.253
-391.077	-200.000	0.034	0.180
-390.063	25.204	0.113	-0.093
-389.048	-83.351	0.175	0.056
-388.033	101.887	0.250	0.289
-387.019	152.953	0.053	0.072
-386.004	-32.150	-0.205	0.114
-384.990	106.715	0.050	-0.059
-383.975	127.309	-0.116	-0.145
-382.960	24.460	0.179	-0.146
-381.946	229.514	-0.117	-0.188
-380.931	24.875	0.143	-0.118
-379.917	215.779	-0.149	-0.235
-378.902	99.737	0.072	-0.083
-377.888	800.000	-0.039	-0.124
-376.873	-154.302	0.182	0.012
-375.858	596.826	0.085	-0.208
-374.844	-200.000	0.028	0.145
-373.829	124.117	0.159	-0.197
-372.815	-124.791	-0.169	0.026
-371.800	9.787	0.372	0.279
-370.785	-144.293	-0.356	-0.033
-369.771	54.528	-0.048	-0.046
-368.756	14.561	0.178	0.138
-367.742	-200.000	0.028	0.293
-366.727	13.067	-0.245	0.187
-365.712	-78.026	0.172	0.059
-364.698	354.993	-0.130	-0.255
-363.683	141.089	-0.120	-0.157
-362.669	-69.930	-0.077	0.029
-361.654	-99.404	-0.485	-0.121
-360.639	-200.000	-0.010	0.391
-359.625	-83.088	-0.173	-0.055
-358.610	-49.425	-0.382	-0.180
-357.596	-200.000	0.010	-0.054
-356.581	10.513	-0.136	-0.102
-355.566	-106.010	0.198	0.044
-354.552	-143.969	-0.179	-0.017
-353.537	178.600	0.198	-0.285
-352.523	-13.919	0.270	-0.173
-351.508	-50.590	0.255	0.119
-350.493	110.665	0.095	-0.113
-349.479	-95.950	0.174	-0.046
-348.464	-106.267	0.346	-0.077
-347.450	-95.066	-0.042	-0.011
-346.435	-43.698	0.066	0.033
-345.420	-101.526	0.138	0.033
-344.406	38.829	0.144	0.127
-343.391	-165.136	-0.196	-0.009
-342.377	-36.466	-0.273	0.145
-341.362	-169.498	0.246	-0.009
-340.348	-68.561	0.203	-0.078
-339.333	278.389	0.053	-0.093
-338.318	-126.363	-0.207	-0.030
-337.304	794.878	-0.060	-0.164
-336.289	155.316	-0.188	-0.255
-335.275	-122.687	0.075	-0.012
-334.260	-38.507	-0.360	0.188
-333.245	-25.684	0.135	0.079
-332.231	-200.000	0.003	0.156
-331.216	177.382	-0.074	-0.106
-330.202	-200.000	0.009	-0.212
-329.187	-200.000	-0.086	-0.400
-328.172	57.148	-0.129	0.125
-327.158	-110.994	0.324	-0.066
-326.143	-122.838	-0.186	-0.030
-325.129	-12.448	0.194	0.125
-324.114	800.000	0.129	0.352
-323.099	672.699	0.133	-0.340
-322.085	-87.806	-0.133	-0.040
-321.070	-200.000	0.011	0.085
-320.056	141.125	0.206	0.269
-319.041	-61.230	0.269	-0.112
-318.026	-79.616	-0.292	-0.097
-317.012	-200.000	-0.019	-0.135
-315.997	-28.150	-0.189	0.108
-314.983	128.818	-0.116	0.146
-313.968	65.103	0.506	0.505
-312.953	150.725	-0.143	-0.192
-311.939	800.000	0.039	0.168
-310.924	20.319	-0.172	0.137
-309.910	-200.000	0.071	0.451
-308.895	-111.699	-0.139	-0.028
-307.880	-35.095	-0.143	0.077
-306.866	-200.000	-0.008	0.045
-305.851	-64.205	-0.137	0.055
-304.837	54.586	0.254	0.241
-303.822	-35.930	0.091	-0.049
-302.807	-105.023	0.148	-0.033
-301.793	271.017	0.019	-0.033
-300.778	262.915	-0.024	-0.042
-299.764	800.000	-0.078	0.254
-298.749	-138.320	-0.099	-0.011
-297.735	57.306	-0.193	-0.186
-296.720	172.748	0.232	0.329
-295.705	-78.616	0.260	0.088
-294.691	389.230	-0.180	-0.367
-293.676	226.648	0.098	-0.158
-292.662	800.000	0.056	0.191
-291.647	-74.884	-0.207	0.073
-290.632	180.922	-0.188	0.272
-289.618	-128.697	0.169	0.024
-288.603	184.301	0.150	0.219
-287.589	51.439	0.253	0.237
-286.574	446.046	0.058	-0.125
-285.559	800.000	0.027	-0.098
-284.545	269.546	0.026	0.046
-283.530	70.208	0.092	-0.093
-282.516	28.508	-0.217	0.181
-281.501	386.662	0.041	-0.084
-280.486	315.649	0.080	0.149
-279.472	-200.000	-0.018	-0.209
-278.457	-46.498	0.373	-0.180
-277.443	299.314	-0.108	0.196
-276.428	-52.871	0.200	0.091
-275.413	85.508	0.141	0.153
-274.399	123.487	-0.041	0.051
-273.384	348.591	-0.140	-0.273
-272.370	27.673	-0.138	0.115
-271.355	28.034	-0.159	-0.132
-270.340	500.674	-0.097	0.221
-269.326	20.177	-0.348	0.277
-268.311	12.821	-0.330	-0.251
-267.297	-55.769	0.214	-0.094
-266.282	-25.080	-0.284	0.166
-265.267	48.293	-0.099	0.091
-264.253	200.809	-0.198	0.299
-263.238	582.000	0.029	0.071
-262.224	690.325	0.068	-0.176
-261.209	-115.259	0.073	-0.014
-260.195	47.611	-0.298	0.274
-259.180	220.580	0.046	-0.072
-258.165	-200.000	0.004	-0.051
-257.151	-144.943	-0.199	0.018
-256.136	800.000	0.066	-0.241
-255.122	33.940	0.112	0.096
-254.107	-200.000	-0.010	-0.101
-253.092	312.623	0.125	-0.231
-252.078	-106.769	-0.153	0.034
-251.063	-7.005	-0.274	-0.183
-250.049	-120.030	-0.424	-0.072
-249.034	191.073	-0.031	-0.046
-248.019	-122.141	-0.098	-0.016
-247.005	800.000	0.040	0.119
-245.990	-99.337	-0.192	0.048
-244.976	-24.950	-0.128	0.075
-243.961	599.679	0.145	0.355
-242.946	800.000	0.088	0.248
-241.932	-25.876	-0.345	0.200
-240.917	-15.807	0.216	0.135
-239.903	80.735	-0.160	-0.170
-238.888	-53.891	0.174	0.078
-237.873	163.318	-0.107	-0.148
-236.859	-137.550	-0.225	0.025
-235.844	-200.000	0.017	-0.274
-234.830	800.000	0.011	0.041
-233.815	-155.911	-0.197	0.012
-232.800	-200.000	-0.001	0.125
-231.786	800.000	0.073	-0.272
-230.771	-200.000	-0.012	0.102
-229.757	307.779	-0.085	0.156
-228.742	39.552	0.127	0.112
-227.727	15.856	-0.201	-0.156
-226.713	-135.945	0.253	0.029
-225.698	-37.943	-0.087	0.045
-224.684	458.359	-0.010	0.023
-223.669	-54.617	0.190	-0.085
-222.655	-133.999	-0.211	-0.026
-221.640	137.538	0.112	0.144
-220.625	27.172	-0.153	-0.127
-219.611	800.000	0.049	0.184
-218.596	182.197	-0.045	-0.065
-217.582	190.664	-0.098	0.146
-216.567	800.000	0.057	-0.159
-215.552	69.557	-0.128	-0.130
-214.538	-60.165	0.350	-0.147
-213.523	180.940	-0.188	0.271
-212.509	-55.532	0.211	0.093
-211.494	21.194	0.258	-0.206
-210.479	-77.235	-0.372	-0.127
-209.465	-143.244	0.238	-0.023
-208.450	800.000	-0.094	0.292
-207.436	-78.638	-0.242	-0.081
-206.421	130.370	-0.139	0.175
-205.406	17.223	0.139	-0.108
-204.392	-65.384	0.184	-0.073
-203.377	224.053	-0.031	-0.050
-202.363	-140.156	0.400	-0.041
-201.348	-200.000	-0.035	0.158
-200.333	-81.906	0.262	0.084
-199.319	-17.210	0.085	-0.053
-198.304	38.878	-0.114	0.100
-197.290	497.529	0.086	0.194
-196.275	-112.814	0.109	0.021
-195.260	148.109	-0.175	-0.232
-194.246	-190.111	0.227	0.002
-193.231	34.922	0.204	0.175
-192.217	-200.000	0.023	0.181
-191.202	-100.927	-0.042	-0.010
-190.187	800.000	0.070	-0.232
-189.173	-200.000	-0.061	0.383
-188.158	495.949	0.084	0.191
-187.144	-200.000	0.033	-0.144
-186.129	800.000	-0.055	0.222
-185.114	800.000	-0.046	-0.173
-184.100	173.826	-0.122	-0.173
-183.085	800.000	0.092	-0.293
-182.071	800.000	0.043	-0.154
-181.056	-44.288	0.183	0.090
-180.042	524.841	0.116	0.267
-179.027	-200.000	-0.041	0.438
-178.012	528.555	-0.028	0.065
-176.998	189.139	-0.136	-0.199
-175.983	5.999	-0.108	0.078
-174.969	13.551	0.194	-0.148
-173.954	69.517	0.146	0.148
-172.939	80.447	-0.109	-0.115
-171.925	-200.000	0.029	-0.166
-170.910	-129.300	0.103	-0.014
-169.896	-200.000	0.090	-0.412
-168.881	126.811	-0.090	0.112
-167.866	-21.011	0.266	-0.160
-166.852	266.579	0.120	-0.206
-165.837	-24.162	0.186	-0.109
-164.823	800.000	0.046	0.169
-163.808	-200.000	-0.018	-0.432
-162.793	39.107	0.148	-0.130
-161.779	-108.885	-0.157	-0.033
-160.764	-68.955	-0.489	0.185
-159.750	-1.615	0.100	0.069
-158.735	-166.046	0.131	-0.005
-157.720	192.555	-0.159	0.235
-156.706	-48.247	0.314	-0.148
-155.691	-20.930	0.203	-0.122
-154.677	800.000	-0.061	-0.202
-153.662	-13.570	0.219	0.139
-152.647	-116.119	0.071	-0.013
-151.633	-200.000	-0.015	0.413
-150.618	-61.619	-0.098	-0.040
-149.604	800.000	-0.021	-0.080
-148.589	417.544	-0.070	0.146
-147.574	-9.945	-0.314	0.205
-146.560	-111.753	0.241	0.048
-145.545	593.014	0.143	-0.345
-144.531	541.456	-0.050	-0.117
-143.516	40.225	0.073	0.065
-142.502	379.895	0.035	0.069
-141.487	-71.143	-0.297	-0.109
-140.472	115.365	0.097	0.116
-139.458	96.521	0.127	0.143
-138.443	-69.269	-0.170	0.064
-137.429	-26.499	-0.040	0.023
-136.414	-40.388	0.234	-0.119
-135.399	-149.312	-0.504	-0.039
-134.385	-58.744	0.129	-0.055
-133.370	-116.525	-0.378	0.068
-132.356	79.883	0.089	-0.094
-131.341	-200.000	-0.045	0.238
-130.326	292.023	-0.105	-0.188
-129.312	642.402	-0.129	-0.323
-128.297	800.000	0.076	-0.235
-127.283	-27.668	-0.286	0.162
-126.268	-200.000	-0.003	-0.232
-125.253	-200.000	0.026	-0.229
-124.239	-7.031	0.117	-0.078
-123.224	800.000	0.040	0.140
-122.210	304.139	0.092	-0.167
-121.195	98.085	-0.110	-0.124
-120.180	800.000	0.074	0.254
-119.166	-200.000	0.011	0.118
-118.151	15.512	0.102	0.078
-117.137	165.095	-0.138	0.191
-116.122	44.412	-0.059	-0.053
-115.107	266.369	0.049	0.084
-114.093	-36.631	-0.086	-0.045
-113.078	-51.175	-0.138	0.063
-112.064	64.701	-0.182	-0.180
-111.049	-18.760	0.175	0.107
-110.034	185.599	-0.132	0.192
-109.020	68.729	-0.120	0.121
-108.005	27.816	0.087	0.072
-106.991	152.783	-0.095	0.127
-105.976	218.398	-0.135	0.211
-104.962	-127.796	0.191	0.027
-103.947	-74.237	-0.138	-0.049
-102.932	17.108	-0.288	-0.223
-101.918	-30.269	0.080	-0.045
-100.903	150.784	0.218	0.291
-99.889	-200.000	-0.016	-0.074
-98.874	137.377	0.049	0.063
-97.859	-160.069	0.256	-0.014
-96.845	2.415	-0.217	-0.154
-95.830	-2.974	-0.073	-0.050
-94.816	43.267	-0.152	0.136
-93.801	164.684	-0.199	0.275
-92.786	-21.200	0.206	0.123
-91.772	-200.000	0.084	0.429
-90.757	349.126	-0.194	0.374
-89.743	-144.744	0.328	-0.029
-88.728	698.001	0.078	0.202
-87.713	-114.889	-0.189	-0.035
-86.699	-38.565	-0.135	-0.070
-85.684	-160.309	0.255	-0.013
-84.670	-131.187	-0.292	0.038
-83.655	128.713	0.045	-0.056
-82.640	-200.000	-0.017	-0.262
-81.626	616.423	0.159	0.390
-80.611	-146.728	-0.165	-0.014
-79.597	800.000	0.149	-0.630
-78.582	800.000	-0.057	0.199
-77.567	252.005	-0.134	-0.223
-76.553	226.661	0.214	0.340
-75.538	96.460	-0.232	-0.259
-74.524	563.523	0.118	0.278
-73.509	-87.840	0.332	-0.098
-72.494	-35.245	-0.140	0.075
-71.480	21.933	0.120	0.096
-70.465	-200.000	-0.011	0.074
-69.451	800.000	-0.140	-0.377
-68.436	-50.612	0.282	0.130
-67.422	800.000	0.019	0.059
-66.407	337.771	0.140	0.266
-65.392	203.698	-0.062	0.094
-64.378	449.412	-0.029	-0.063
-63.363	-200.000	-0.003	0.151
-62.349	-148.269	-0.177	-0.014
-61.334	165.387	-1.075	-1.485
-60.319	149.490	0.545	0.722
-59.305	454.566	-0.429	-0.928
-58.290	295.074	0.691	1.235
-57.276	368.688	0.746	1.474
-56.261	-200.000	117.273	640.942
-55.246	486.057	1551.517	3454.691
-54.232	172.808	2730.709	3841.717
-53.217	97.039	2296.083	2572.241
-52.203	34.999	1902.224	1626.915
-51.188	29.239	1696.084	1406.734
-50.173	26.934	1654.524	1355.020
-49.159	46.593	1713.474	1553.417
-48.144	45.473	1726.580	1556.721
-47.130	28.793	1683.427	1392.636
-46.115	26.140	1669.540	1361.119
-45.100	25.937	1664.903	1355.753
-44.086	25.991	1661.829	1353.602
-43.071	25.933	1659.572	1351.274
-42.057	25.929	1657.064	1349.150
-41.042	25.960	1654.449	1347.197
-40.027	25.984	1652.722	1345.918
-39.013	25.964	1650.523	1343.929
-37.998	25.922	1649.757	1342.936
-36.984	25.983	1648.375	1342.214
-35.969	26.089	1646.622	1341.521
-34.954	26.178	1644.691	1340.557
-33.940	26.158	1643.062	1339.023
-32.925	26.155	1641.441	1337.633
-31.911	26.001	1640.214	1335.437
-30.896	26.101	1637.795	1334.152
-29.881	26.122	1636.029	1332.818
-28.867	26.098	1634.514	1331.349
-27.852	26.163	1633.360	1330.841
-26.838	26.143	1632.200	1329.691
-25.823	26.118	1630.811	1328.327
-24.809	26.121	1629.448	1327.187
-23.794	26.188	1628.433	1326.799
-22.779	26.190	1626.702	1325.347
-21.765	26.125	1624.729	1323.213
-20.750	26.075	1623.359	1321.675
-19.736	26.181	1622.042	1321.327
-18.721	26.210	1620.131	1319.928
-17.706	26.175	1618.681	1318.443
-16.692	26.164	1617.247	1317.142
-15.677	26.121	1616.137	1315.872
-14.663	26.225	1614.492	1315.241
-13.648	26.160	1613.532	1313.928
-12.633	26.144	1611.775	1312.327
-11.619	26.222	1609.674	1311.131
-10.604	26.150	1608.612	1309.692
-9.590	26.133	1607.301	1308.452
-8.575	26.174	1605.601	1307.313
-7.560	26.110	1604.501	1305.906
-6.546	26.230	1603.503	1305.906
-5.531	26.203	1602.208	1304.608
-4.517	26.128	1601.426	1303.372
-3.502	26.168	1600.160	1302.584
-2.487	26.256	1598.660	1301.940
-1.473	25.896	1586.436	1289.362
-0.458	23.038	1567.105	1253.367
0.556	21.477	1569.251	1222.328
1.571	19.260	1593.214	1225.138
2.586	18.825	1605.835	1231.618
3.600	17.122	1551.726	1178.203
4.615	10.808	1444.499	1055.784
5.629	4.988	1385.245	976.036
6.644	4.027	1377.763	964.692
7.659	4.029	1376.582	963.796
8.673	4.097	1375.764	963.560
9.688	4.157	1373.702	962.400
10.702	4.122	1371.049	960.241
11.717	6.955	1375.358	980.769
12.731	14.250	1389.031	1035.985
13.746	20.748	1399.943	1084.653
14.761	22.656	1402.420	1098.372
15.775	22.173	1400.428	1093.712
16.790	21.192	1398.099	1085.700
17.804	20.431	1396.681	1079.775
18.819	20.130	1395.151	1076.626
19.834	20.161	1393.544	1075.483
20.848	20.120	1392.802	1074.562
21.863	19.845	1391.663	1071.883
22.877	19.822	1390.728	1070.923
23.892	19.816	1389.505	1069.850
24.907	19.700	1388.665	1068.395
25.921	19.744	1387.585	1067.740
26.936	19.695	1387.175	1067.025
27.950	19.773	1386.155	1066.629
28.965	19.814	1385.569	1066.334
29.980	20.001	1384.035	1066.211
30.994	20.170	1383.248	1066.555
32.009	20.245	1382.037	1065.986
33.023	20.104	1381.392	1064.525
34.038	19.955	1379.676	1062.197
35.053	19.879	1378.075	1060.407
36.067	19.931	1376.869	1059.703
37.082	19.963	1375.914	1059.069
38.096	20.013	1375.272	1058.783
39.111	19.982	1374.734	1058.087
40.126	19.866	1373.785	1056.559
41.140	19.533	1372.307	1053.292
42.155	19.393	1371.898	1052.036
43.169	19.399	1371.391	1051.586
44.184	19.317	1371.236	1050.874
45.199	19.393	1371.179	1051.201
46.213	19.500	1370.697	1051.393
47.228	19.840	1369.947	1052.794
48.242	19.790	1369.253	1051.860
49.257	19.695	1367.648	1049.960
50.271	19.758	1366.140	1049.094
51.286	19.833	1364.984	1048.564
52.301	19.697	1363.472	1046.487
53.315	19.617	1362.245	1044.967
54.330	19.501	1361.282	1043.440
55.344	19.429	1359.867	1041.828
56.359	19.327	1359.057	1040.495
57.374	19.377	1357.968	1039.870
58.388	19.299	1357.337	1038.825
59.403	19.228	1356.882	1037.959
60.417	19.284	1355.882	1037.439
61.432	19.128	1355.711	1036.277
62.447	19.052	1354.132	1034.524
63.461	18.979	1353.060	1033.176
64.476	18.982	1352.008	1032.300
65.490	19.159	1350.326	1031.984
66.505	19.168	1348.845	1030.812
67.520	19.137	1347.837	1029.764
68.534	19.125	1346.864	1028.860
69.549	19.131	1346.301	1028.373
70.563	18.909	1344.992	1025.959
71.578	18.890	1343.860	1024.892
72.593	18.766	1342.767	1023.231
73.607	18.796	1342.159	1022.854
74.622	18.917	1341.231	1022.775
75.636	18.797	1340.817	1021.656
76.651	18.983	1339.713	1021.831
77.666	19.062	1339.387	1021.959
78.680	19.155	1338.873	1022.026
79.695	19.185	1338.138	1021.557
80.709	19.233	1337.475	1021.243
81.724	19.415	1336.835	1021.739
82.739	19.440	1336.097	1021.237
83.753	19.663	1335.406	1021.938
84.768	19.782	1335.408	1022.552
85.782	19.978	1333.606	1022.235
86.797	19.985	1332.402	1021.266
87.812	19.855	1331.345	1019.596
88.826	19.776	1330.082	1018.074
89.841	19.881	1328.983	1017.762
90.855	19.985	1328.050	1017.569
91.870	20.076	1327.310	1017.446
92.884	20.058	1326.318	1016.492
93.899	19.983	1326.084	1015.783
94.914	20.012	1325.557	1015.459
95.928	20.121	1324.403	1015.125
96.943	19.871	1323.675	1013.012
97.957	19.998	1322.255	1012.578
98.972	19.882	1321.460	1011.199
99.987	19.945	1320.583	1010.807
101.001	19.982	1319.739	1010.288
102.016	19.951	1318.633	1009.169
103.030	20.055	1317.681	1008.961
104.045	19.918	1316.527	1007.191
105.060	19.741	1315.083	1004.969
106.074	19.463	1313.464	1002.030
107.089	19.123	1311.877	998.753
108.103	19.057	1310.846	997.502
109.118	19.102	1309.483	996.637
110.133	19.150	1307.936	995.650
111.147	19.196	1307.066	995.162
112.162	19.258	1305.650	994.355
113.176	19.256	1305.017	993.772
114.191	19.252	1304.068	992.938
115.206	19.383	1302.478	992.394
116.220	19.296	1301.459	991.030
117.235	19.271	1300.510	990.073
118.249	19.122	1299.238	988.167
119.264	19.101	1297.940	986.967
120.279	19.006	1296.943	985.578
121.293	18.959	1296.092	984.576
122.308	18.919	1294.837	983.308
123.322	18.908	1293.430	982.091
124.337	18.763	1292.665	980.594
125.352	18.773	1291.927	980.003
126.366	18.777	1290.658	978.975
127.381	18.783	1289.189	977.813
128.395	18.832	1288.261	977.296
129.410	18.904	1287.356	976.934
130.424	18.989	1286.959	977.030
131.439	19.064	1286.630	977.122
132.454	19.216	1285.576	977.099
133.468	19.191	1284.890	976.348
134.483	19.192	1283.904	975.515
135.497	19.225	1283.201	975.081
136.512	19.177	1281.978	973.795
137.527	19.328	1280.369	973.338
138.541	19.448	1278.982	972.876
139.556	19.440	1278.015	972.011
140.570	19.518	1277.080	971.653
141.585	19.671	1276.267	971.808
142.600	19.767	1275.287	971.514
143.614	19.891	1274.461	971.497
144.629	19.952	1273.582	971.082
145.643	19.823	1272.662	969.570
146.658	19.737	1270.643	967.469
147.673	19.569	1269.462	965.544
148.687	19.437	1268.301	963.835
149.702	19.330	1266.901	962.088
150.716	19.297	1265.710	960.919
151.731	19.268	1264.502	959.752
152.746	19.283	1263.285	958.827
153.760	19.387	1262.229	958.521
154.775	19.495	1261.076	958.161
155.789	19.632	1260.290	958.235
156.804	19.614	1259.308	957.306
157.819	19.658	1258.528	956.872
158.833	19.823	1257.548	956.956
159.848	19.986	1257.249	957.546
160.862	19.943	1255.972	956.250
161.877	19.647	1254.196	953.177
162.892	19.270	1253.413	950.420
163.906	19.318	1252.119	949.619
164.921	19.369	1251.155	949.086
165.935	19.463	1250.708	949.180
166.950	19.437	1250.283	948.628
167.964	19.509	1249.255	948.161
168.979	19.463	1248.496	947.251
169.994	19.405	1248.325	946.718
171.008	19.589	1246.631	946.358
172.023	19.525	1246.678	945.958
173.037	19.755	1245.810	946.476
174.052	19.715	1245.423	945.879
175.067	19.533	1243.430	943.289
176.081	19.295	1242.326	941.065
177.096	19.326	1241.791	940.748
178.110	19.299	1240.765	939.741
179.125	19.414	1239.493	939.320
180.140	19.521	1238.253	938.879
181.154	19.707	1236.700	938.631
182.169	19.858	1236.030	938.859
183.183	19.811	1235.364	938.012
184.198	19.859	1234.285	937.371
185.213	19.869	1233.000	936.367
186.227	20.062	1231.710	936.347
187.242	20.066	1231.103	935.827
188.256	20.116	1230.195	935.322
189.271	20.084	1229.524	934.554
190.286	19.849	1228.125	932.142
191.300	19.407	1226.585	928.515
192.315	19.319	1225.670	927.266
193.329	19.339	1225.406	927.089
194.344	19.517	1224.771	927.486
195.359	19.492	1224.711	927.221
196.373	19.642	1223.971	927.385
197.388	19.693	1224.213	927.763
198.402	19.997	1223.580	928.827
199.417	20.242	1223.211	929.781
200.432	20.306	1222.316	929.362
201.446	20.398	1221.590	929.216
202.461	20.517	1220.956	929.291
203.475	20.407	1219.919	927.834
204.490	20.095	1218.771	925.212
205.504	20.068	1216.772	923.466
206.519	19.950	1215.812	922.032
207.534	19.813	1214.612	920.306
208.548	19.828	1214.018	919.859
209.563	19.950	1213.293	919.873
210.577	19.950	1211.587	918.498
211.592	19.988	1211.084	918.237
212.607	20.194	1210.669	918.936
213.621	20.240	1209.831	918.459
214.636	20.065	1209.124	916.917
215.650	20.172	1208.261	916.747
216.665	20.340	1207.018	916.612
217.680	20.469	1206.120	916.525
218.694	20.420	1205.647	915.831
219.709	20.392	1204.693	914.877
220.723	20.293	1203.974	913.727
221.738	20.376	1203.456	913.687
222.753	20.238	1202.454	912.124
223.767	20.288	1201.924	911.903
224.782	20.414	1201.219	911.948
225.796	20.601	1200.849	912.568
226.811	20.520	1199.743	911.223
227.826	20.382	1199.130	909.954
228.840	20.378	1198.022	909.011
229.855	20.343	1197.024	907.992
230.869	20.188	1196.640	906.810
231.884	20.135	1195.394	905.508
232.899	20.032	1194.354	904.100
233.913	20.012	1193.411	903.201
234.928	20.028	1192.708	902.675
235.942	19.897	1192.042	901.409
236.957	19.832	1191.502	900.583
237.972	19.941	1190.887	900.604
238.986	19.967	1190.003	899.993
240.001	19.932	1189.588	899.417
241.015	20.052	1188.633	899.236
242.030	20.081	1188.025	898.847
243.045	20.313	1187.166	899.320
244.059	20.191	1186.527	898.126
245.074	20.305	1185.636	897.963
246.088	20.274	1185.216	897.405
247.103	20.576	1183.995	897.958
248.117	20.692	1183.872	898.384
249.132	20.805	1183.125	898.325
250.147	20.982	1182.947	899.019
251.161	21.137	1182.398	899.324
252.176	21.303	1181.527	899.435
253.190	21.280	1181.252	899.028
254.205	21.332	1180.652	898.761
255.220	21.409	1179.959	898.546
256.234	21.279	1179.491	897.443
257.249	21.336	1178.313	896.762
258.263	21.226	1177.985	895.866
259.278	21.235	1177.145	895.197
260.293	21.278	1176.858	895.119
261.307	21.280	1176.378	894.685
262.322	21.531	1175.302	895.074
263.336	21.497	1174.694	894.354
264.351	21.457	1174.319	893.786
265.366	21.580	1173.066	893.382
266.380	21.357	1173.041	892.145
267.395	21.353	1171.928	891.197
268.409	21.165	1171.225	889.627
269.424	21.226	1170.151	889.043
270.439	21.070	1169.974	888.037
271.453	21.125	1168.991	887.493
272.468	21.013	1167.143	885.442
273.482	21.033	1166.894	885.275
274.497	20.959	1166.669	884.652
275.512	21.026	1165.975	884.387
276.526	20.940	1164.910	883.064
277.541	20.969	1164.398	882.743
278.555	21.078	1164.105	882.994
279.570	21.350	1163.526	883.856
280.585	21.493	1162.623	883.812
281.599	21.455	1161.229	882.482
282.614	21.227	1160.439	880.654
283.628	21.197	1159.023	879.351
284.643	21.082	1158.297	878.145
285.657	21.164	1156.986	877.485
286.672	21.177	1156.315	876.964
287.687	21.209	1155.670	876.558
288.701	21.249	1154.856	876.064
289.716	21.238	1153.337	874.779
290.730	21.236	1153.374	874.717
291.745	21.259	1152.596	874.169
292.760	21.199	1152.328	873.588
293.774	21.354	1151.730	873.833
294.789	21.421	1151.461	873.885
295.803	21.520	1150.376	873.480
296.818	21.232	1149.640	871.405
297.833	21.097	1149.034	870.194
298.847	21.144	1148.316	869.808
299.862	21.254	1147.292	869.503
300.876	21.250	1146.662	868.929
301.891	21.359	1146.196	869.042
302.906	21.521	1145.741	869.422
303.920	21.710	1145.420	870.041
304.935	21.671	1144.634	869.177
305.949	21.797	1144.315	869.480
306.964	21.831	1143.292	868.795
307.979	21.688	1142.516	867.418
308.993	21.611	1141.711	866.354
310.008	21.676	1140.983	866.041
311.022	21.747	1140.208	865.731
312.037	21.731	1139.517	865.047
313.052	21.498	1138.266	862.875
314.066	21.411	1136.950	861.372
315.081	21.203	1136.162	859.673
316.095	21.199	1135.302	858.928
317.110	21.164	1134.520	858.089
318.125	21.193	1133.560	857.430
319.139	21.222	1133.274	857.277
320.154	21.197	1132.623	856.589
321.168	21.267	1132.113	856.471
322.183	21.284	1131.550	856.050
323.197	21.312	1130.484	855.307
324.212	21.328	1130.509	855.328
325.227	21.504	1129.475	855.331
326.241	21.436	1129.167	854.688
327.256	21.392	1127.577	853.195
328.270	21.330	1126.877	852.286
329.285	21.332	1126.155	851.675
330.300	21.373	1125.309	851.159
331.314	21.241	1124.163	849.576
332.329	21.418	1123.528	849.879
333.343	21.384	1122.538	848.894
334.358	21.633	1121.570	849.291
335.373	21.760	1120.837	849.278
336.387	21.771	1120.827	849.249
337.402	21.769	1119.875	848.443
338.416	21.765	1119.538	848.091
339.431	21.789	1118.856	847.617
340.446	22.006	1118.048	847.980
341.460	22.103	1117.833	848.209
342.475	22.204	1117.029	848.012
343.489	22.281	1116.242	847.707
344.504	22.368	1114.966	847.085
345.519	22.444	1113.930	846.584
346.533	22.492	1113.436	846.367
347.548	22.384	1113.150	845.555
348.562	22.276	1112.377	844.375
349.577	22.188	1110.991	842.829
350.592	21.950	1110.044	840.894
351.606	21.794	1109.088	839.348
352.621	21.680	1108.082	837.970
353.635	21.641	1107.814	837.502
354.650	21.756	1106.724	837.154
355.665	21.916	1106.388	837.592
356.679	21.859	1105.830	836.823
357.694	21.891	1105.439	836.603
358.708	22.135	1104.667	837.111
359.723	22.297	1104.009	837.306
360.738	22.058	1103.586	835.773
361.752	21.952	1102.729	834.547
362.767	21.977	1102.385	834.332
363.781	22.020	1101.900	834.095
364.796	22.148	1101.450	834.292
365.810	22.364	1101.091	834.968
366.825	22.537	1100.390	835.181
367.840	22.761	1099.972	835.852
368.854	22.830	1099.383	835.659
369.869	22.745	1098.735	834.693
370.883	22.479	1098.128	832.900
371.898	22.319	1096.881	831.123
372.913	22.402	1096.518	831.165
373.927	22.529	1095.923	831.242
374.942	22.764	1095.373	831.859
375.956	22.604	1094.901	830.670
376.971	22.550	1093.760	829.480
377.986	22.730	1093.469	830.034
379.000	22.767	1092.951	829.738
380.015	22.877	1092.844	830.100
381.029	22.908	1092.098	829.608
382.044	22.815	1091.274	828.473
383.059	22.851	1090.248	827.789
384.073	22.825	1089.543	827.055
385.088	22.799	1088.615	826.159
386.102	22.797	1087.825	825.474
387.117	22.735	1085.943	823.685
388.132	22.410	1085.331	821.632
389.146	22.408	1085.064	821.349
390.161	22.316	1083.945	819.998
391.175	22.331	1083.450	819.621
392.190	22.593	1082.718	820.216
393.205	22.774	1082.112	820.526
394.219	22.770	1081.327	819.838
395.234	22.669	1079.915	818.229
396.248	22.517	1078.917	816.692
397.263	22.528	1077.949	815.938
398.278	22.435	1077.049	814.757
399.292	22.135	1076.778	813.089
400.307	22.191	1075.821	812.553
401.321	22.218	1074.868	811.890
402.336	22.225	1074.266	811.392
403.350	22.135	1073.950	810.667
404.365	22.204	1073.067	810.248
405.380	22.400	1072.531	810.675
406.394	22.484	1072.155	810.705
407.409	22.650	1071.523	810.920
408.423	22.887	1070.690	811.303
409.438	22.892	1070.163	810.858
410.453	22.938	1069.453	810.457
411.467	23.274	1067.951	810.787
412.482	23.151	1068.053	810.231
413.496	23.327	1067.428	810.488
414.511	23.198	1067.314	809.738
415.526	23.370	1066.855	810.105
416.540	23.422	1066.555	810.046
417.555	23.336	1065.597	808.854
418.569	23.354	1064.981	808.395
419.584	23.074	1064.271	806.511
420.599	23.261	1063.880	806.993
421.613	157.760	1405.089	1797.113
422.628	145.184	1454.751	1797.160
