DTS Sentinel unit serial number:	SN413079Multiplexer serial number:	ORYXHardware model number:	OX4-SRSoftware version number:	ORYX F/W v4.00 Oryx Data Collector v3.7.2.0data status	okinstallation	princeton_trtdifferential loss correction	single-endedforward channel	channel 2reverse channel	N/Adate	2019/09/17time	04:59:34forward acquisition time	60.00reverse acquisition time	0.00gamma	496.2192k internal	0.2328k external	0.2328temperature offset calibration	0.9978default loss term (dB/km)	0.3790temperature slope calibration	1.0000multiplexer offset coefficient	1.0000multiplexer slope coefficient	1.0000fibre end	0.00T internal ref (°C)	29.50T ext. ref 1 (°C)	0.14T ext. ref 2 (°C)	23.95length (m)	temperature (°C)	Stokes	anti-Stokes-747.200	3.566	-0.120	0.088
-746.185	43.513	0.422	0.389
-745.171	-200.000	0.009	-0.119
-744.156	-18.294	0.139	0.088
-743.142	45.827	-0.059	0.055
-742.127	489.404	-0.154	0.354
-741.112	-49.074	-0.261	0.126
-740.098	140.360	0.047	0.063
-739.083	800.000	0.088	-0.258
-738.069	14.149	-0.232	-0.182
-737.054	228.248	-0.083	0.136
-736.039	-30.706	-0.121	0.069
-735.025	556.048	-0.066	0.159
-734.010	263.559	0.156	0.273
-732.996	81.085	-0.163	-0.177
-731.981	40.023	0.102	-0.092
-730.966	-200.000	0.004	-0.101
-729.952	98.045	0.035	0.040
-728.937	-200.000	0.036	0.263
-727.923	800.000	-0.035	-0.146
-726.908	20.930	0.310	-0.253
-725.894	-112.972	-0.279	-0.056
-724.879	-200.000	-0.000	-0.084
-723.864	800.000	0.119	0.438
-722.850	-24.483	0.115	0.069
-721.835	-200.000	0.004	-0.235
-720.821	-200.000	-0.045	-0.239
-719.806	12.871	-0.028	0.022
-718.791	-200.000	-0.025	-0.142
-717.777	621.812	0.007	-0.017
-716.762	-39.172	0.160	0.084
-715.748	24.009	-0.127	-0.105
-714.733	639.454	-0.121	-0.309
-713.718	-200.000	0.067	-0.633
-712.704	-47.710	-0.007	0.003
-711.689	363.563	0.170	-0.344
-710.675	129.332	0.096	0.124
-709.660	800.000	0.101	0.307
-708.645	-56.358	0.061	-0.027
-707.631	-91.946	0.218	0.062
-706.616	159.053	0.130	0.181
-705.602	-200.000	0.001	0.065
-704.587	-150.960	0.322	-0.024
-703.572	396.706	0.029	-0.061
-702.558	800.000	0.061	-0.195
-701.543	790.246	0.061	0.169
-700.529	80.701	0.060	-0.065
-699.514	-148.982	-0.232	0.019
-698.499	-8.499	0.224	0.151
-697.485	-200.000	0.018	0.120
-696.470	180.856	0.109	0.160
-695.456	524.648	-0.010	-0.025
-694.441	-26.275	0.026	0.015
-693.426	-200.000	0.009	0.148
-692.412	800.000	-0.094	-0.414
-691.397	27.910	-0.097	-0.082
-690.383	45.801	-0.196	0.183
-689.368	91.244	0.133	0.150
-688.354	-191.493	0.307	-0.003
-687.339	8.352	-0.135	0.102
-686.324	-76.654	0.111	0.039
-685.310	-200.000	-0.001	-0.088
-684.295	616.533	-0.053	0.132
-683.281	152.471	-0.093	-0.127
-682.266	85.359	-0.107	-0.118
-681.251	-58.303	-0.121	-0.053
-680.237	-119.680	-0.349	0.061
-679.222	-124.102	-0.082	-0.013
-678.208	-72.166	-0.465	-0.173
-677.193	-200.000	0.029	0.302
-676.178	-36.176	-0.302	-0.164
-675.164	-200.000	-0.187	-0.000
-674.149	800.000	-0.071	0.224
-673.135	-107.107	-0.302	-0.067
-672.120	35.057	0.268	-0.236
-671.105	-91.934	-0.054	0.015
-670.091	-200.000	-0.020	-0.182
-669.076	149.901	-0.204	0.278
-668.062	87.164	-0.060	0.067
-667.047	-39.379	-0.136	-0.072
-666.032	149.166	-0.226	-0.307
-665.018	-69.380	0.120	0.046
-664.003	800.000	0.030	0.128
-662.989	-200.000	0.064	-0.295
-661.974	800.000	0.007	-0.025
-660.959	-28.647	-0.161	-0.093
-659.945	-49.353	0.235	-0.113
-658.930	-119.661	0.304	0.053
-657.916	13.368	-0.131	0.102
-656.901	-84.531	0.258	-0.082
-655.886	125.719	0.189	0.240
-654.872	160.541	-0.292	-0.409
-653.857	128.230	-0.353	-0.451
-652.843	-129.010	0.076	-0.011
-651.828	-200.000	-0.031	0.431
-650.814	-34.442	-0.015	0.008
-649.799	91.064	0.112	-0.126
-648.784	189.818	-0.134	-0.201
-647.770	-110.250	-0.228	0.048
-646.755	733.911	-0.121	-0.324
-645.741	-200.000	-0.037	-0.270
-644.726	0.301	0.200	0.143
-643.711	-200.000	-0.002	-0.221
-642.697	-122.006	0.333	-0.055
-641.682	572.380	-0.046	0.111
-640.668	800.000	0.073	0.253
-639.653	296.687	0.101	-0.186
-638.638	24.603	-0.332	-0.275
-637.624	163.756	0.173	0.245
-636.609	-6.153	0.129	0.088
-635.595	-166.550	-0.305	0.013
-634.580	148.777	-0.106	-0.143
-633.565	712.136	0.028	-0.075
-632.551	373.757	-0.031	-0.064
-631.536	-200.000	0.017	-0.295
-630.522	-200.000	0.049	-0.293
-629.507	6.455	0.141	-0.105
-628.492	-85.036	-0.180	-0.057
-627.478	800.000	-0.030	0.133
-626.463	-140.700	0.018	0.002
-625.449	-140.091	-0.111	0.012
-624.434	-120.182	-0.089	0.015
-623.419	91.841	0.209	-0.236
-622.405	575.225	-0.193	0.472
-621.390	56.176	0.169	-0.164
-620.376	-4.357	0.198	0.138
-619.361	231.692	0.109	0.180
-618.346	800.000	-0.038	-0.145
-617.332	-200.000	0.004	-0.042
-616.317	800.000	-0.112	-0.402
-615.303	-200.000	-0.033	-0.217
-614.288	-61.859	0.223	-0.094
-613.273	-138.154	-0.024	0.003
-612.259	-200.000	-0.006	-0.038
-611.244	602.143	-0.111	-0.277
-610.230	-150.191	-0.151	-0.012
-609.215	387.231	0.196	0.405
-608.201	800.000	-0.048	-0.205
-607.186	-200.000	-0.006	0.350
-606.171	-107.769	0.405	-0.088
-605.157	166.750	0.063	0.090
-604.142	800.000	-0.042	-0.164
-603.128	-104.819	-0.095	-0.022
-602.113	8.082	-0.225	0.169
-601.098	728.184	-0.018	0.047
-600.084	-98.720	0.382	0.098
-599.069	-200.000	0.007	-0.295
-598.055	-200.000	-0.022	-0.599
-597.040	193.103	-0.091	0.138
-596.025	-47.409	-0.086	-0.042
-595.011	-200.000	-0.002	-0.332
-593.996	209.146	-0.214	0.336
-592.982	-177.900	0.081	0.002
-591.967	-122.917	-0.106	-0.017
-590.952	8.169	0.275	-0.207
-589.938	55.389	-0.055	0.054
-588.923	-31.467	-0.366	-0.206
-587.909	287.377	-0.068	-0.122
-586.894	-200.000	0.025	0.112
-585.879	274.262	-0.051	0.091
-584.865	56.383	-0.090	-0.087
-583.850	-112.839	0.125	0.025
-582.836	24.478	-0.152	-0.126
-581.821	244.364	-0.124	-0.208
-580.806	-186.253	-0.174	0.003
-579.792	800.000	-0.040	0.174
-578.777	-30.954	-0.210	0.119
-577.763	24.087	0.182	-0.150
-576.748	456.222	0.157	-0.349
-575.733	36.091	-0.268	-0.236
-574.719	311.265	0.058	0.109
-573.704	341.249	-0.104	-0.204
-572.690	44.079	-0.295	0.271
-571.675	-141.697	-0.050	0.005
-570.661	-84.239	0.079	-0.025
-569.646	466.145	-0.023	-0.051
-568.631	137.514	-0.144	-0.188
-567.617	800.000	-0.111	-0.400
-566.602	32.874	-0.228	-0.197
-565.588	192.185	-0.166	-0.251
-564.573	-200.000	-0.090	-0.425
-563.558	-140.322	-0.151	-0.016
-562.544	-1.078	-0.066	-0.047
-561.529	246.475	0.180	0.304
-560.515	-200.000	-0.045	-0.246
-559.500	-120.540	-0.158	-0.027
-558.485	537.366	0.122	0.289
-557.471	0.714	-0.169	0.121
-556.456	-189.336	0.303	0.004
-555.442	91.562	0.076	0.086
-554.427	-73.281	-0.263	0.096
-553.412	800.000	0.073	-0.249
-552.398	800.000	-0.123	0.346
-551.383	-33.420	0.057	0.032
-550.369	71.766	0.132	0.137
-549.354	3.942	-0.266	0.194
-548.339	-8.352	0.196	0.132
-547.325	183.344	-0.191	-0.282
-546.310	800.000	-0.042	0.162
-545.296	-33.344	0.111	0.062
-544.281	177.938	0.174	-0.254
-543.266	115.337	0.160	-0.195
-542.252	189.634	0.045	-0.068
-541.237	36.413	0.144	0.127
-540.223	-139.606	0.166	0.018
-539.208	-18.994	0.285	-0.177
-538.193	156.590	0.158	0.218
-537.179	120.642	0.194	0.241
-536.164	-46.465	-0.071	0.035
-535.150	-48.450	-0.204	-0.098
-534.135	-102.915	0.023	0.005
-533.121	-14.222	-0.357	0.230
-532.106	713.160	0.048	-0.128
-531.091	679.087	0.102	-0.266
-530.077	800.000	0.207	0.614
-529.062	513.598	-0.112	0.262
-528.048	250.801	-0.177	-0.300
-527.033	-128.725	0.187	-0.026
-526.018	51.468	0.157	0.149
-525.004	800.000	-0.029	-0.093
-523.989	25.854	0.178	-0.148
-522.975	-98.743	0.231	-0.059
-521.960	202.956	-0.062	-0.096
-520.945	-106.257	0.096	0.021
-519.931	-100.121	-0.231	-0.058
-518.916	-91.631	-0.209	0.059
-517.902	16.899	-0.209	-0.165
-516.887	77.269	-0.062	-0.066
-515.872	169.666	0.037	0.053
-514.858	-200.000	0.013	0.246
-513.843	432.689	0.073	0.157
-512.829	-109.954	0.227	0.047
-511.814	-61.541	-0.217	-0.091
-510.799	-18.715	-0.299	0.186
-509.785	-200.000	0.027	0.260
-508.770	23.422	-0.154	0.127
-507.756	27.818	-0.046	0.039
-506.741	-11.206	-0.106	-0.070
-505.726	98.904	0.207	-0.239
-504.712	-200.000	0.005	0.028
-503.697	-98.229	-0.062	-0.016
-502.683	-130.974	-0.110	0.015
-501.668	-105.527	0.275	-0.062
-500.653	336.928	-0.054	-0.105
-499.639	-81.924	0.012	0.004
-498.624	419.515	-0.076	-0.162
-497.610	-31.908	-0.242	0.136
-496.595	-121.003	-0.214	0.036
-495.581	364.990	-0.175	-0.352
-494.566	-104.814	0.116	-0.027
-493.551	-72.669	0.169	-0.062
-492.537	800.000	0.026	0.077
-491.522	-33.785	0.213	0.117
-490.508	-142.024	-0.156	0.016
-489.493	-68.349	0.169	-0.065
-488.478	92.680	0.095	0.107
-487.464	-118.325	-0.035	0.006
-486.449	210.718	0.231	-0.362
-485.435	-66.567	-0.199	0.079
-484.420	-138.194	-0.270	-0.030
-483.405	-200.000	-0.008	0.094
-482.391	-116.932	0.186	-0.034
-481.376	-92.059	0.229	-0.065
-480.362	-140.769	0.059	0.006
-479.347	327.066	-0.046	0.087
-478.332	-53.485	-0.129	0.059
-477.318	-200.000	-0.034	-0.354
-476.303	125.374	-0.203	0.255
-475.289	59.545	0.095	0.093
-474.274	455.331	0.156	-0.345
-473.259	-103.392	-0.376	-0.088
-472.245	-1.623	0.165	0.116
-471.230	75.762	0.264	-0.278
-470.216	800.000	0.087	-0.273
-469.201	-200.000	-0.031	0.183
-468.186	-76.182	-0.263	-0.093
-467.172	86.309	0.195	0.214
-466.157	103.204	-0.039	-0.045
-465.143	7.695	0.286	-0.213
-464.128	800.000	0.193	0.573
-463.113	-200.000	-0.017	0.260
-462.099	-65.722	0.138	0.055
-461.084	314.857	0.084	0.158
-460.070	-102.607	-0.194	-0.046
-459.055	15.637	-0.156	-0.122
-458.040	-136.848	0.076	0.009
-457.026	-27.986	-0.333	-0.192
-456.011	-57.777	-0.191	-0.083
-454.997	800.000	-0.069	-0.290
-453.982	153.988	-0.142	-0.194
-452.968	56.745	-0.286	-0.278
-451.953	-200.000	-0.003	-0.049
-450.938	28.463	0.028	0.024
-449.924	-81.555	-0.068	0.022
-448.909	-124.211	-0.143	0.022
-447.895	-111.347	0.162	-0.033
-446.880	800.000	-0.076	0.283
-445.865	-170.689	-0.510	-0.018
-444.851	-146.813	-0.131	0.011
-443.836	800.000	0.022	0.079
-442.822	167.487	-0.125	-0.177
-441.807	89.197	-0.047	-0.053
-440.792	-170.437	0.238	-0.008
-439.778	-81.133	0.457	0.150
-438.763	114.336	-0.110	0.134
-437.749	-152.529	0.073	-0.005
-436.734	-200.000	-0.004	-0.058
-435.719	-16.385	0.276	-0.174
-434.705	-41.352	0.041	-0.021
-433.690	-110.060	0.381	0.079
-432.676	-24.819	0.231	-0.136
-431.661	-49.000	-0.107	0.051
-430.646	-92.783	0.559	0.156
-429.632	-97.823	0.251	0.064
-428.617	-11.219	0.131	-0.086
-427.603	-168.482	0.085	0.003
-426.588	306.216	0.108	-0.199
-425.573	800.000	-0.058	0.161
-424.559	-110.418	0.091	0.019
-423.544	3.638	-0.500	0.363
-422.530	-113.554	-0.370	-0.072
-421.515	-200.000	-0.239	0.000
-420.500	-200.000	0.060	-0.365
-419.486	-200.000	0.041	-0.214
-418.471	88.044	-0.384	-0.424
-417.457	800.000	0.176	0.492
-416.442	-200.000	0.009	0.350
-415.428	-200.000	0.023	-0.259
-414.413	800.000	0.055	-0.219
-413.398	-83.617	-0.110	-0.035
-412.384	78.566	-0.131	-0.140
-411.369	-144.830	-0.038	-0.003
-410.355	-26.793	-0.393	0.228
-409.340	800.000	0.110	0.433
-408.325	126.441	-0.039	-0.049
-407.311	-152.438	0.169	-0.012
-406.296	-136.997	-0.129	-0.015
-405.282	195.238	0.126	-0.190
-404.267	50.977	0.144	-0.136
-403.252	306.570	0.136	0.252
-402.238	39.892	0.069	0.061
-401.223	-174.694	-0.077	0.002
-400.209	222.375	0.094	0.151
-399.194	-107.602	-0.302	-0.066
-398.179	-54.067	-0.351	-0.159
-397.165	-53.480	0.046	-0.021
-396.150	-119.865	-0.133	-0.023
-395.136	152.593	-0.156	0.212
-394.121	212.768	-0.029	-0.045
-393.106	-102.100	0.093	0.022
-392.092	183.338	-0.210	0.308
-391.077	178.521	-0.049	-0.072
-390.063	-200.000	0.009	0.177
-389.048	38.698	0.299	-0.265
-388.033	-3.325	0.283	0.196
-387.019	-200.000	0.028	0.310
-386.004	283.430	-0.077	0.138
-384.990	800.000	0.054	-0.149
-383.975	-200.000	0.012	-0.105
-382.960	-154.819	0.497	-0.033
-381.946	-200.000	0.011	-0.229
-380.931	389.423	0.172	0.353
-379.917	-103.811	-0.264	0.061
-378.902	-49.433	-0.334	0.158
-377.888	-118.015	0.155	-0.028
-376.873	44.091	0.093	0.085
-375.858	-196.962	-0.024	0.000
-374.844	107.642	0.058	-0.069
-373.829	-136.277	-0.221	-0.026
-372.815	50.590	-0.109	0.103
-371.800	544.962	-0.060	0.141
-370.785	588.550	0.128	0.313
-369.771	-77.696	-0.344	0.118
-368.756	-200.000	-0.011	0.121
-367.742	-155.371	-0.219	0.014
-366.727	-98.773	0.210	-0.053
-365.712	-200.000	0.002	0.135
-364.698	-58.406	-0.172	0.074
-363.683	-200.000	-0.014	0.186
-362.669	19.244	-0.109	0.087
-361.654	159.855	0.015	0.020
-360.639	-88.349	0.303	-0.090
-359.625	-72.071	-0.179	0.066
-358.610	-40.053	-0.120	0.062
-357.596	-200.000	0.009	-0.058
-356.581	220.435	-0.140	0.222
-355.566	800.000	-0.106	-0.360
-354.552	129.327	0.141	-0.179
-353.537	-123.680	-0.065	0.010
-352.523	-121.381	-0.290	0.048
-351.508	-16.849	-0.133	-0.084
-350.493	-72.769	-0.239	0.087
-349.479	-80.645	0.105	0.035
-348.464	-182.967	0.257	0.005
-347.450	214.209	0.158	-0.248
-346.435	-200.000	0.037	-0.230
-345.420	-200.000	0.136	0.000
-344.406	25.140	0.098	0.081
-343.391	213.240	-0.146	0.229
-342.377	154.161	0.140	0.190
-341.362	-200.000	0.001	-0.145
-340.348	443.041	0.249	0.541
-339.333	161.084	0.133	-0.184
-338.318	-11.629	-0.201	0.131
-337.304	73.424	-0.175	-0.182
-336.289	800.000	0.069	0.235
-335.275	324.673	0.049	-0.092
-334.260	-200.000	0.011	-0.190
-333.245	-31.940	-0.413	0.229
-332.231	-27.641	0.326	0.188
-331.216	104.426	-0.129	-0.151
-330.202	38.393	0.102	-0.090
-329.187	800.000	0.033	0.122
-328.172	-200.000	-0.077	0.405
-327.158	-200.000	0.032	-0.220
-326.143	-38.762	0.168	-0.088
-325.129	800.000	-0.063	0.228
-324.114	-32.411	0.243	-0.134
-323.099	-0.206	0.274	0.193
-322.085	139.419	-0.106	-0.139
-321.070	-138.322	0.417	-0.046
-320.056	-102.071	-0.120	0.029
-319.041	-10.453	0.091	0.060
-318.026	16.756	0.147	-0.115
-317.012	800.000	0.091	-0.292
-315.997	-200.000	0.025	-0.424
-314.983	-19.331	0.225	-0.138
-313.968	-200.000	-0.046	-0.215
-312.953	152.102	-0.099	-0.133
-311.939	800.000	-0.041	-0.173
-310.924	-63.055	-0.160	0.065
-309.910	36.589	-0.221	-0.193
-308.895	36.198	-0.104	0.091
-307.880	578.007	0.066	-0.160
-306.866	800.000	-0.104	0.429
-305.851	-131.572	-0.259	0.034
-304.837	-67.885	-0.075	0.029
-303.822	-81.825	0.279	0.090
-302.807	414.091	-0.147	-0.309
-301.793	-192.582	0.505	-0.005
-300.778	43.813	0.141	0.128
-299.764	-30.954	0.072	0.040
-298.749	216.432	0.068	0.107
-297.735	23.226	0.123	-0.100
-296.720	-200.000	-0.047	-0.222
-295.705	-43.444	-0.079	0.039
-294.691	-93.665	-0.202	-0.055
-293.676	-54.692	0.091	0.041
-292.662	52.506	0.075	-0.071
-291.647	-200.000	-0.024	-0.171
-290.632	12.423	0.285	-0.217
-289.618	-200.000	0.041	-0.434
-288.603	-37.440	-0.104	-0.055
-287.589	-200.000	-0.018	-0.511
-286.574	594.343	-0.142	0.348
-285.559	-46.026	-0.139	0.068
-284.545	-157.500	0.262	0.016
-283.530	-106.674	0.222	0.049
-282.516	-58.722	-0.264	-0.113
-281.501	131.131	0.136	0.173
-280.486	-200.000	0.012	0.060
-279.472	132.819	0.093	0.118
-278.457	59.591	0.262	-0.256
-277.443	-99.674	-0.167	0.041
-276.428	-175.320	0.158	-0.004
-275.413	-136.582	-0.126	-0.014
-274.399	609.016	-0.151	0.373
-273.384	318.011	-0.030	0.056
-272.370	-134.624	-0.165	-0.020
-271.355	399.844	-0.126	0.261
-270.340	14.885	0.123	-0.095
-269.326	-58.225	-0.124	0.053
-268.311	-200.000	-0.024	0.198
-267.297	41.685	-0.149	0.134
-266.282	117.744	-0.173	0.211
-265.267	-200.000	-0.034	-0.207
-264.253	-84.567	0.218	0.068
-263.238	-111.344	-0.106	0.021
-262.224	-124.080	0.144	0.022
-261.209	151.041	-0.235	-0.316
-260.195	-74.629	0.186	0.066
-259.180	-11.974	-0.062	0.040
-258.165	-43.621	0.418	-0.208
-257.151	-74.579	0.241	-0.086
-256.136	-73.515	-0.092	-0.033
-255.122	120.082	0.280	0.343
-254.107	-62.743	-0.167	0.068
-253.092	-108.386	-0.195	0.042
-252.078	-200.000	0.034	0.465
-251.063	711.547	0.123	0.322
-250.049	800.000	-0.059	0.213
-249.034	-108.740	-0.266	-0.056
-248.019	118.978	-0.104	0.127
-247.005	800.000	-0.115	-0.360
-245.990	800.000	-0.054	-0.192
-244.976	800.000	0.087	-0.274
-243.961	626.018	0.046	-0.114
-242.946	105.936	0.128	0.150
-241.932	731.765	-0.135	-0.356
-240.917	767.385	-0.043	-0.115
-239.903	-200.000	-0.011	0.436
-238.888	185.807	0.022	-0.033
-237.873	800.000	0.074	0.233
-236.859	-11.138	0.030	0.019
-235.844	-76.946	0.160	-0.055
-234.830	-102.255	-0.237	0.056
-233.815	-200.000	0.027	0.210
-232.800	-39.539	-0.374	0.193
-231.786	366.668	-0.164	-0.326
-230.771	427.919	0.105	0.223
-229.757	120.613	0.126	0.155
-228.742	800.000	0.055	0.188
-227.727	92.776	0.063	-0.071
-226.713	591.985	-0.173	0.422
-225.698	53.245	0.057	-0.054
-224.684	-9.410	-0.075	0.049
-223.669	-200.000	-0.002	0.025
-222.655	-134.071	0.060	-0.007
-221.640	-77.720	0.130	0.044
-220.625	-44.844	-0.140	0.069
-219.611	-111.565	0.019	0.004
-218.596	800.000	0.059	-0.194
-217.582	-200.000	-0.170	0.000
-216.567	191.068	0.043	0.064
-215.552	800.000	0.036	0.101
-214.538	-100.071	0.116	0.029
-213.523	-200.000	-0.005	-0.192
-212.509	-39.998	0.327	-0.168
-211.494	-20.965	0.056	-0.034
-210.479	187.330	-0.135	0.199
-209.465	-200.000	-0.029	-0.255
-208.450	223.031	0.133	-0.211
-207.436	800.000	0.058	0.202
-206.421	730.211	-0.033	-0.088
-205.406	-115.300	0.260	-0.048
-204.392	-54.786	-0.197	0.088
-203.377	800.000	0.059	-0.218
-202.363	-172.455	0.150	0.005
-201.348	1.240	0.215	-0.152
-200.333	-5.004	-0.105	0.071
-199.319	800.000	-0.050	0.196
-198.304	-200.000	0.027	0.161
-197.290	-200.000	0.019	0.148
-196.275	-126.259	0.272	0.040
-195.260	-200.000	-0.002	-0.051
-194.246	-200.000	0.033	0.269
-193.231	92.057	0.257	0.285
-192.217	75.149	-0.162	-0.168
-191.202	128.325	-0.165	0.207
-190.187	-28.555	0.121	-0.069
-189.173	-17.951	0.120	0.074
-188.158	-147.177	0.075	-0.006
-187.144	-134.773	0.260	0.031
-186.129	-69.526	-0.178	-0.067
-185.114	255.523	-0.158	0.267
-184.100	27.299	-0.224	-0.185
-183.085	89.612	0.179	-0.196
-182.071	9.123	0.198	-0.147
-181.056	416.019	-0.132	0.277
-180.042	797.387	0.068	-0.186
-179.027	458.569	-0.120	0.264
-178.012	266.815	0.160	0.275
-176.998	-40.431	0.391	-0.200
-175.983	-133.279	0.105	0.013
-174.969	-55.433	0.147	0.065
-173.954	-69.187	0.235	0.089
-172.939	102.578	0.067	0.078
-171.925	596.987	-0.065	0.159
-170.910	-200.000	-0.031	0.289
-169.896	-200.000	-0.011	-0.169
-168.881	419.966	0.221	0.466
-167.866	-200.000	0.003	0.281
-166.852	-98.497	0.197	-0.050
-165.837	82.109	0.244	-0.261
-164.823	-84.109	-0.323	-0.101
-163.808	800.000	0.060	0.197
-162.793	-77.781	0.227	0.077
-161.779	-139.511	-0.288	0.030
-160.764	800.000	0.128	0.518
-159.750	-96.086	-0.207	0.054
-158.735	56.204	-0.024	-0.023
-157.720	-41.661	0.175	0.089
-156.706	150.932	-0.207	0.278
-155.691	-101.499	-0.239	0.057
-154.677	-151.290	-0.022	0.002
-153.662	-10.857	-0.302	-0.197
-152.647	129.925	-0.242	-0.304
-151.633	-200.000	0.016	-0.222
-150.618	-20.101	0.189	0.115
-149.604	-22.718	-0.108	-0.064
-148.589	-4.112	-0.284	0.193
-147.574	42.761	-0.071	0.064
-146.560	-200.000	0.013	-0.144
-145.545	-12.274	-0.048	0.031
-144.531	-114.420	-0.091	0.017
-143.516	-200.000	-0.037	-0.302
-142.502	-56.194	0.316	-0.139
-141.487	236.242	-0.115	-0.188
-140.472	800.000	-0.105	0.330
-139.458	315.509	-0.090	0.168
-138.443	-24.280	-0.273	0.160
-137.429	235.381	0.017	-0.028
-136.414	515.239	-0.132	0.303
-135.399	-200.000	0.052	0.235
-134.385	-74.121	0.091	0.032
-133.370	-200.000	0.032	-0.222
-132.356	-32.992	-0.279	-0.152
-131.341	800.000	-0.061	0.197
-130.326	-148.827	0.138	-0.011
-129.312	-110.624	-0.294	0.060
-128.297	-66.600	-0.208	0.081
-127.283	187.853	-0.148	0.218
-126.268	-200.000	0.033	0.345
-125.253	-63.372	0.197	-0.080
-124.239	-122.855	0.265	0.042
-123.224	-181.950	0.034	-0.001
-122.210	20.321	-0.062	-0.049
-121.195	-200.000	0.020	-0.149
-120.180	800.000	0.059	0.197
-119.166	-85.670	-0.130	-0.040
-118.151	14.224	0.186	-0.142
-117.137	-200.000	-0.019	-0.302
-116.122	-200.000	0.053	-0.253
-115.107	-52.675	-0.259	0.118
-114.093	-98.197	0.320	0.081
-113.078	-200.000	0.013	-0.114
-112.064	-118.122	0.106	0.019
-111.049	2.306	-0.313	-0.223
-110.034	800.000	-0.111	0.359
-109.020	216.840	-0.130	-0.204
-108.005	179.296	0.084	0.121
-106.991	-90.546	-0.247	0.070
-105.976	-66.330	0.329	-0.129
-104.962	-64.415	0.293	-0.117
-103.947	-121.827	0.437	-0.071
-102.932	-53.690	0.036	-0.016
-101.918	800.000	0.050	-0.207
-100.903	-122.865	0.118	-0.019
-99.889	287.521	-0.130	0.230
-98.874	125.207	0.130	0.161
-97.859	-200.000	-0.062	-0.374
-96.845	206.246	-0.017	0.026
-95.830	-200.000	0.039	0.197
-94.816	-48.468	0.216	-0.102
-93.801	38.581	-0.055	0.048
-92.786	-48.594	-0.216	-0.102
-91.772	-200.000	0.019	-0.241
-90.757	199.403	0.056	-0.085
-89.743	-36.805	0.336	0.177
-88.728	83.530	0.186	-0.199
-87.713	-56.295	-0.164	-0.071
-86.699	-155.737	0.204	-0.013
-85.684	114.038	0.137	-0.164
-84.670	11.258	0.419	0.315
-83.655	-7.120	-0.128	0.086
-82.640	-173.366	0.342	0.010
-81.626	-200.000	0.003	-0.062
-80.611	16.866	0.169	-0.131
-79.597	-200.000	-0.046	-0.387
-78.582	-200.000	-0.012	0.165
-77.567	-123.801	-0.319	-0.050
-76.553	-39.482	-0.176	0.091
-75.538	800.000	0.047	0.157
-74.524	117.620	0.050	0.060
-73.509	-132.515	-0.154	0.019
-72.494	548.219	0.126	0.296
-71.480	369.277	0.008	-0.015
-70.465	-36.601	0.219	-0.115
-69.451	251.014	0.112	0.186
-68.436	-64.799	0.215	0.086
-67.422	714.128	-0.054	-0.142
-66.407	222.350	0.145	-0.229
-65.392	28.289	0.240	0.199
-64.378	800.000	-0.066	-0.243
-63.363	163.412	0.122	0.168
-62.349	-90.437	0.067	0.019
-61.334	94.525	-0.979	-1.092
-60.319	2.009	0.664	0.471
-59.305	800.000	-0.140	-0.553
-58.290	448.934	0.502	1.085
-57.276	330.436	0.608	1.148
-56.261	-200.000	108.915	594.167
-55.246	444.799	1487.241	3201.955
-54.232	145.090	2681.475	3517.961
-53.217	99.489	2294.028	2602.820
-52.203	38.499	1904.363	1664.948
-51.188	32.743	1692.513	1435.993
-50.173	30.177	1648.590	1379.611
-49.159	49.075	1702.736	1568.349
-48.144	49.481	1718.209	1585.601
-47.130	32.282	1675.967	1418.257
-46.115	29.648	1661.062	1385.861
-45.100	29.413	1656.218	1380.003
-44.086	29.438	1653.189	1377.617
-43.071	29.310	1650.924	1374.715
-42.057	29.371	1648.165	1372.819
-41.042	29.392	1646.134	1371.232
-40.027	29.369	1644.656	1369.775
-39.013	29.334	1642.451	1367.623
-37.998	29.375	1640.745	1366.451
-36.984	29.355	1639.918	1365.558
-35.969	29.486	1638.620	1365.395
-34.954	29.560	1636.840	1364.403
-33.940	29.546	1634.890	1362.622
-32.925	29.391	1633.703	1360.436
-31.911	29.556	1631.558	1359.809
-30.896	29.535	1629.503	1357.890
-29.881	29.491	1627.706	1356.017
-28.867	29.462	1626.655	1354.875
-27.852	29.477	1625.003	1353.551
-26.838	29.430	1623.704	1352.070
-25.823	29.572	1622.334	1351.916
-24.809	29.531	1621.264	1350.672
-23.794	29.522	1619.435	1349.029
-22.779	29.518	1618.026	1347.774
-21.765	29.517	1616.380	1346.339
-20.750	29.540	1614.599	1344.972
-19.736	29.559	1613.469	1344.116
-18.721	29.598	1611.615	1342.804
-17.706	29.557	1609.956	1341.069
-16.692	29.502	1608.819	1339.671
-15.677	29.523	1607.762	1338.887
-14.663	29.560	1605.731	1337.409
-13.648	29.563	1604.817	1336.618
-12.633	29.587	1603.214	1335.405
-11.619	29.535	1601.337	1333.411
-10.604	29.459	1600.555	1332.156
-9.590	29.447	1599.630	1331.251
-8.575	29.557	1597.842	1330.504
-7.560	29.534	1596.566	1329.221
-6.546	29.575	1595.127	1328.265
-5.531	29.494	1594.683	1327.256
-4.517	29.526	1592.965	1326.005
-3.502	29.459	1592.250	1324.877
-2.487	29.566	1590.752	1324.346
-1.473	29.297	1578.109	1311.851
-0.458	26.381	1558.795	1275.216
0.556	21.071	1559.649	1242.897
1.571	18.682	1583.231	1244.283
2.586	18.401	1596.033	1252.181
3.600	16.999	1542.974	1200.527
4.615	9.508	1434.008	1066.208
5.629	1.790	1369.993	969.545
6.644	0.216	1361.294	953.345
7.659	0.180	1360.035	952.152
8.673	0.078	1359.224	950.854
9.688	0.087	1357.143	949.373
10.702	-0.126	1354.146	945.852
11.717	3.536	1360.022	972.998
12.731	12.054	1373.205	1036.396
13.746	17.286	1379.614	1074.289
14.761	17.343	1378.639	1073.792
15.775	16.426	1375.874	1065.767
16.790	15.230	1373.844	1056.562
17.804	14.489	1371.622	1050.098
18.819	14.165	1369.702	1046.498
19.834	13.888	1368.390	1043.658
20.848	13.600	1367.328	1040.949
21.863	13.490	1366.129	1039.252
22.877	13.307	1364.507	1036.777
23.892	13.234	1363.702	1035.617
24.907	13.223	1363.128	1035.020
25.921	13.205	1362.186	1034.103
26.936	13.215	1361.680	1033.690
27.950	13.303	1360.431	1033.201
28.965	13.306	1359.850	1032.683
29.980	13.299	1358.657	1031.646
30.994	13.503	1357.012	1031.575
32.009	13.421	1356.412	1030.515
33.023	13.446	1355.316	1029.749
34.038	13.373	1354.449	1028.548
35.053	13.420	1353.481	1028.013
36.067	13.385	1352.015	1026.588
37.082	13.382	1351.256	1025.904
38.096	13.417	1350.214	1025.242
39.111	13.452	1349.443	1024.780
40.126	13.344	1348.755	1023.495
41.140	13.237	1347.951	1022.134
42.155	13.142	1347.776	1021.325
43.169	13.153	1347.336	1020.968
44.184	13.148	1347.167	1020.721
45.199	13.217	1346.445	1020.507
46.213	13.274	1345.991	1020.428
47.228	13.311	1344.773	1019.643
48.242	13.224	1344.156	1018.544
49.257	13.238	1342.437	1017.237
50.271	13.253	1341.394	1016.453
51.286	13.360	1339.522	1015.598
52.301	13.339	1338.016	1014.238
53.315	13.190	1337.557	1012.890
54.330	13.301	1336.630	1012.776
55.344	13.187	1334.952	1010.717
56.359	13.276	1334.221	1010.618
57.374	13.168	1333.656	1009.441
58.388	13.085	1332.813	1008.211
59.403	13.128	1331.946	1007.729
60.417	13.094	1331.343	1006.971
61.432	13.128	1330.332	1006.327
62.447	13.063	1329.375	1005.120
63.461	12.995	1328.777	1004.165
64.476	13.082	1327.265	1003.460
65.490	13.075	1326.070	1002.427
66.505	13.145	1324.343	1001.454
67.520	13.088	1323.783	1000.601
68.534	13.086	1322.744	999.711
69.549	13.101	1321.626	998.870
70.563	13.077	1320.630	997.882
71.578	13.144	1319.209	997.127
72.593	12.973	1318.551	995.507
73.607	13.009	1317.841	995.099
74.622	13.107	1316.336	994.465
75.636	13.067	1315.837	993.763
76.651	13.112	1315.182	993.451
77.666	13.066	1314.822	992.814
78.680	12.998	1314.224	991.867
79.695	13.044	1313.193	991.273
80.709	13.162	1312.051	991.036
81.724	13.212	1311.204	990.606
82.739	13.157	1310.693	989.802
83.753	13.196	1309.853	989.313
84.768	13.286	1308.818	988.982
85.782	13.325	1307.533	988.160
86.797	13.246	1306.432	986.764
87.812	13.228	1305.028	985.510
88.826	13.289	1304.488	985.383
89.841	13.302	1302.964	984.222
90.855	13.321	1302.345	983.780
91.870	13.353	1301.383	983.153
92.884	13.300	1300.450	982.048
93.899	13.309	1299.962	981.648
94.914	13.385	1299.193	981.427
95.928	13.443	1297.705	980.563
96.943	13.428	1296.995	979.849
97.957	13.346	1296.362	978.800
98.972	13.257	1295.113	977.242
99.987	13.425	1293.942	977.268
101.001	13.331	1293.135	976.013
102.016	13.354	1292.325	975.451
103.030	13.400	1291.577	975.076
104.045	13.347	1290.635	973.962
105.060	13.307	1289.128	972.502
106.074	13.295	1287.828	971.369
107.089	13.187	1286.383	969.559
108.103	13.192	1285.068	968.513
109.118	13.263	1283.438	967.611
110.133	13.205	1282.329	966.351
111.147	13.125	1281.180	964.933
112.162	13.180	1280.101	964.353
113.176	13.244	1278.732	963.615
114.191	13.192	1278.110	962.757
115.206	13.307	1276.794	962.347
116.220	13.274	1275.599	961.168
117.235	13.177	1274.635	959.797
118.249	13.305	1273.273	959.428
119.264	13.230	1272.559	958.371
120.279	13.253	1271.355	957.514
121.293	13.261	1270.340	956.707
122.308	13.186	1269.187	955.323
123.322	13.182	1268.327	954.567
124.337	13.150	1267.205	953.451
125.352	13.073	1266.583	952.457
126.366	13.193	1265.177	952.007
127.381	13.153	1264.135	950.911
128.395	13.224	1262.601	950.081
129.410	13.214	1262.114	949.571
130.424	13.154	1261.337	948.556
131.439	13.168	1260.300	947.773
132.454	13.349	1259.197	947.896
133.468	13.221	1258.470	946.535
134.483	13.324	1257.770	946.514
135.497	13.314	1256.681	945.551
136.512	13.203	1255.368	943.844
137.527	13.263	1254.003	943.080
138.541	13.292	1252.569	942.082
139.556	13.232	1251.332	940.725
140.570	13.408	1249.998	940.640
141.585	13.359	1249.000	939.529
142.600	13.335	1247.800	938.407
143.614	13.426	1247.022	938.255
144.629	13.460	1245.765	937.421
145.643	13.358	1245.026	936.201
146.658	13.476	1243.276	935.472
147.673	13.415	1241.784	933.922
148.687	13.263	1241.390	932.686
149.702	13.327	1239.626	931.635
150.716	13.371	1238.352	930.844
151.731	13.339	1237.262	929.762
152.746	13.494	1235.626	929.321
153.760	13.432	1234.896	928.343
154.775	13.420	1234.228	927.692
155.789	13.489	1232.674	926.827
156.804	13.496	1231.687	926.041
157.819	13.513	1230.599	925.238
158.833	13.542	1229.718	924.658
159.848	13.508	1229.129	923.942
160.862	13.490	1228.416	923.224
161.877	13.631	1226.428	922.432
162.892	13.455	1225.766	920.875
163.906	13.527	1225.180	920.754
164.921	13.418	1224.368	919.457
165.935	13.501	1223.007	918.811
166.950	13.584	1222.320	918.673
167.964	13.602	1221.403	918.007
168.979	13.516	1221.260	917.336
169.994	13.619	1220.504	917.261
171.008	13.575	1219.320	916.044
172.023	13.593	1218.615	915.533
173.037	13.615	1218.264	915.310
174.052	13.704	1216.698	914.543
175.067	13.620	1215.731	913.275
176.081	13.571	1215.084	912.439
177.096	13.496	1214.460	911.478
178.110	13.615	1213.114	911.041
179.125	13.723	1211.332	910.213
180.140	13.681	1210.700	909.429
181.154	13.731	1209.309	908.574
182.169	13.672	1208.122	907.282
183.183	13.874	1206.481	907.073
184.198	13.854	1205.719	906.308
185.213	13.787	1204.540	904.979
186.227	13.837	1203.701	904.539
187.242	13.905	1202.803	904.158
188.256	13.940	1201.505	903.290
189.271	13.918	1200.687	902.473
190.286	13.780	1199.399	900.678
191.300	13.666	1198.895	899.602
192.315	13.740	1197.841	899.133
193.329	13.611	1197.758	898.291
194.344	13.691	1197.058	898.122
195.359	13.801	1196.433	898.168
196.373	13.777	1196.056	897.675
197.388	13.891	1195.432	897.741
198.402	13.967	1194.958	897.718
199.417	14.045	1193.810	897.196
200.432	13.967	1192.955	896.056
201.446	13.981	1192.316	895.570
202.461	14.079	1191.403	895.335
203.475	14.167	1189.803	894.527
204.490	14.033	1188.900	893.049
205.504	14.010	1187.739	891.973
206.519	14.074	1186.496	891.306
207.534	14.003	1185.489	890.087
208.548	14.019	1184.517	889.368
209.563	13.961	1183.612	888.298
210.577	14.056	1182.518	887.906
211.592	14.083	1181.739	887.388
212.607	14.127	1181.325	887.231
213.621	14.151	1180.300	886.509
214.636	14.142	1179.366	885.681
215.650	14.130	1178.259	884.706
216.665	14.200	1177.430	884.383
217.680	14.346	1176.426	884.325
218.694	14.330	1175.904	883.767
219.709	14.231	1174.677	882.242
220.723	14.313	1174.352	882.357
221.738	14.351	1173.450	881.801
222.753	14.264	1172.726	880.716
223.767	14.367	1172.141	880.743
224.782	14.440	1171.345	880.458
225.796	14.467	1171.025	880.276
226.811	14.422	1170.469	879.548
227.826	14.326	1169.862	878.503
228.840	14.391	1168.569	877.799
229.855	14.386	1168.104	877.346
230.869	14.445	1167.092	876.816
231.884	14.292	1166.318	875.353
232.899	14.280	1165.549	874.636
233.913	14.348	1164.795	874.349
234.928	14.358	1163.973	873.707
235.942	14.272	1163.736	873.004
236.957	14.373	1162.687	872.666
237.972	14.366	1161.845	871.922
238.986	14.435	1160.883	871.481
240.001	14.383	1160.521	870.861
241.015	14.470	1159.170	870.228
242.030	14.527	1158.856	870.214
243.045	14.430	1157.994	868.979
244.059	14.535	1157.227	868.878
245.074	14.505	1156.867	868.370
246.088	14.582	1155.580	867.731
247.103	14.551	1155.067	867.105
248.117	14.559	1154.157	866.388
249.132	14.705	1153.129	866.299
250.147	14.815	1152.490	866.311
251.161	14.806	1151.999	865.820
252.176	14.859	1151.708	865.800
253.190	14.867	1151.126	865.323
254.205	14.850	1150.309	864.549
255.220	14.839	1150.171	864.310
256.234	14.904	1149.099	863.761
257.249	14.900	1148.294	863.059
258.263	14.924	1147.640	862.619
259.278	15.012	1146.865	862.413
260.293	14.944	1146.560	861.757
261.307	14.972	1145.773	861.230
262.322	15.019	1145.174	860.947
263.336	14.959	1144.757	860.248
264.351	15.113	1143.764	860.217
265.366	15.132	1143.047	859.698
266.380	15.029	1142.805	858.911
267.395	15.061	1141.896	858.317
268.409	14.998	1141.013	857.254
269.424	15.067	1140.623	857.239
270.439	14.938	1140.246	856.222
271.453	14.982	1139.437	855.764
272.468	15.074	1138.245	855.259
273.482	15.067	1137.613	854.675
274.497	15.094	1136.999	854.275
275.512	15.102	1136.426	853.809
276.526	15.158	1135.140	853.055
277.541	15.104	1134.466	852.200
278.555	15.288	1133.837	852.587
279.570	15.252	1133.314	851.936
280.585	15.255	1132.410	851.192
281.599	15.243	1131.493	850.368
282.614	15.170	1130.716	849.339
283.628	15.101	1129.847	848.262
284.643	15.385	1128.400	848.539
285.657	15.242	1127.722	847.229
286.672	15.220	1126.934	846.453
287.687	15.313	1126.038	846.175
288.701	15.421	1125.340	846.117
289.716	15.291	1124.853	845.022
290.730	15.346	1123.786	844.425
291.745	15.269	1123.580	843.804
292.760	15.317	1122.863	843.434
293.774	15.405	1122.051	843.193
294.789	15.434	1121.753	843.038
295.803	15.466	1120.978	842.541
296.818	15.411	1120.021	841.473
297.833	15.474	1119.336	841.199
298.847	15.435	1118.823	840.543
299.862	15.442	1118.148	839.997
300.876	15.530	1117.324	839.745
301.891	15.661	1116.514	839.713
302.906	15.541	1115.656	838.395
303.920	15.632	1115.076	838.338
304.935	15.606	1114.611	837.789
305.949	15.717	1113.783	837.644
306.964	15.682	1113.109	836.886
307.979	15.645	1112.349	836.061
308.993	15.688	1112.047	835.972
310.008	15.688	1111.016	835.123
311.022	15.740	1110.540	834.948
312.037	15.663	1109.262	833.534
313.052	15.703	1107.990	832.700
314.066	15.722	1107.246	832.162
315.081	15.786	1106.389	831.759
316.095	15.574	1105.834	830.221
317.110	15.654	1105.118	830.005
318.125	15.843	1104.166	830.152
319.139	15.744	1103.668	829.214
320.154	15.818	1103.070	829.055
321.168	15.713	1102.672	828.168
322.183	15.742	1102.173	827.862
323.197	15.829	1101.017	827.348
324.212	15.767	1100.482	826.568
325.227	15.761	1099.942	826.060
326.241	15.728	1099.293	825.335
327.256	15.736	1098.457	824.673
328.270	15.878	1097.387	824.494
329.285	15.851	1096.853	823.889
330.300	15.776	1096.155	822.923
331.314	15.760	1094.923	821.849
332.329	15.892	1093.826	821.599
333.343	15.917	1092.963	820.999
334.358	15.854	1092.204	820.049
335.373	15.871	1091.713	819.689
336.387	15.999	1090.745	819.515
337.402	16.049	1090.075	819.180
338.416	16.004	1089.847	818.719
339.431	16.014	1088.790	817.900
340.446	15.992	1088.254	817.319
341.460	16.130	1087.679	817.485
342.475	16.124	1086.739	816.675
343.489	16.232	1085.447	816.152
344.504	16.264	1084.397	815.444
345.519	16.191	1083.812	814.581
346.533	16.308	1083.470	814.818
347.548	16.323	1082.209	813.867
348.562	16.176	1081.915	812.866
349.577	16.186	1081.229	812.328
350.592	16.242	1079.973	811.583
351.606	16.162	1079.677	810.906
352.621	16.097	1079.306	810.241
353.635	16.184	1078.360	809.878
354.650	16.198	1077.694	809.374
355.665	16.218	1077.115	808.963
356.679	16.151	1076.784	808.319
357.694	16.376	1075.683	808.498
358.708	16.369	1075.321	808.123
359.723	16.360	1074.309	807.246
360.738	16.274	1073.523	806.175
361.752	16.276	1073.399	806.020
362.767	16.327	1073.152	806.004
363.781	16.423	1071.763	805.352
364.796	16.495	1071.476	805.404
365.810	16.447	1071.098	804.824
366.825	16.525	1070.450	804.634
367.840	16.567	1069.479	804.032
368.854	16.567	1068.935	803.551
369.869	16.592	1068.453	803.240
370.883	16.556	1067.598	802.354
371.898	16.605	1066.782	801.901
372.913	16.663	1065.932	801.466
373.927	16.594	1065.795	800.965
374.942	16.686	1065.420	801.049
375.956	16.687	1064.647	800.403
376.971	16.737	1064.047	800.115
377.986	16.733	1063.591	799.685
379.000	16.823	1063.199	799.740
380.015	16.824	1062.304	799.001
381.029	16.895	1061.762	798.858
382.044	16.833	1061.180	798.057
383.059	16.809	1060.489	797.356
384.073	16.929	1059.556	797.149
385.088	16.888	1058.518	796.105
386.102	16.833	1057.828	795.257
387.117	16.815	1056.756	794.295
388.132	16.764	1056.195	793.565
389.146	16.730	1055.361	792.706
390.161	16.752	1054.941	792.427
391.175	16.834	1053.575	791.714
392.190	16.885	1053.010	791.458
393.205	16.952	1052.456	791.282
394.219	16.975	1051.587	790.667
395.234	17.015	1050.887	790.258
396.248	16.928	1049.539	788.769
397.263	16.843	1048.469	787.500
398.278	16.861	1047.821	787.026
399.292	17.014	1047.030	787.075
400.307	16.953	1046.612	786.404
401.321	16.804	1046.390	785.479
402.336	16.864	1045.783	785.229
403.350	16.876	1045.205	784.785
404.365	16.920	1044.103	784.090
405.380	17.064	1043.523	784.253
406.394	17.046	1042.694	783.474
407.409	16.993	1042.092	782.708
408.423	16.992	1041.576	782.249
409.438	17.083	1040.759	781.985
410.453	17.185	1039.941	781.768
411.467	17.217	1039.251	781.328
412.482	17.308	1038.398	781.034
413.496	17.310	1037.862	780.571
414.511	17.337	1037.089	780.047
415.526	17.348	1036.526	779.604
416.540	17.378	1036.446	779.612
417.555	17.410	1035.866	779.256
418.569	17.265	1035.911	778.554
419.584	17.437	1034.991	778.584
420.599	17.487	1034.167	778.120
421.613	103.592	1322.675	1470.080
422.628	94.903	1364.666	1470.183
