DTS Sentinel unit serial number:	SN413079Multiplexer serial number:	ORYXHardware model number:	OX4-SRSoftware version number:	ORYX F/W v4.00 Oryx Data Collector v3.7.2.0data status	okinstallation	princeton_trtdifferential loss correction	single-endedforward channel	channel 2reverse channel	N/Adate	2019/09/16time	10:31:35forward acquisition time	60.00reverse acquisition time	0.00gamma	496.2192k internal	0.2318k external	0.2318temperature offset calibration	0.9957default loss term (dB/km)	0.3790temperature slope calibration	1.0000multiplexer offset coefficient	1.0000multiplexer slope coefficient	1.0000fibre end	0.00T internal ref (°C)	35.36T ext. ref 1 (°C)	12.57T ext. ref 2 (°C)	33.76length (m)	temperature (°C)	Stokes	anti-Stokes-747.200	121.485	-0.168	0.212
-746.185	-127.444	0.184	-0.027
-745.171	-200.000	0.033	-0.169
-744.156	510.262	0.042	-0.098
-743.142	202.825	0.079	-0.124
-742.127	-51.812	-0.359	-0.169
-741.112	440.155	0.036	-0.080
-740.098	-77.465	0.139	0.049
-739.083	-159.690	0.200	0.011
-738.069	-79.429	0.090	0.031
-737.054	-92.868	0.251	-0.071
-736.039	800.000	-0.108	-0.316
-735.025	-73.987	0.332	0.122
-734.010	800.000	0.056	0.195
-732.996	-63.380	-0.208	0.086
-731.981	-115.571	-0.073	0.014
-730.966	800.000	-0.035	-0.138
-729.952	32.321	0.037	-0.032
-728.937	-70.664	-0.293	-0.112
-727.923	-38.738	-0.391	-0.209
-726.908	-73.897	0.324	0.119
-725.894	75.657	0.277	-0.296
-724.879	376.538	-0.044	0.092
-723.864	-139.972	0.329	-0.035
-722.850	-74.101	0.069	-0.025
-721.835	6.138	0.427	-0.320
-720.821	-200.000	-0.008	-0.388
-719.806	-200.000	-0.010	-0.085
-718.791	212.739	0.091	-0.145
-717.777	146.987	0.150	-0.204
-716.762	115.596	-0.283	0.350
-715.748	-200.000	-0.019	-0.235
-714.733	-115.019	-0.191	0.037
-713.718	74.379	-0.149	0.158
-712.704	-187.375	-0.201	-0.003
-711.689	-108.104	-0.151	0.033
-710.675	800.000	-0.030	0.111
-709.660	602.876	0.022	0.056
-708.645	-181.449	0.274	0.005
-707.631	698.620	-0.094	-0.249
-706.616	86.120	-0.128	-0.142
-705.602	-200.000	0.023	0.256
-704.587	503.464	-0.057	0.133
-703.572	-200.000	-0.054	-0.266
-702.558	383.780	0.122	0.253
-701.543	96.156	0.143	0.165
-700.529	92.850	-0.047	0.054
-699.514	189.547	-0.038	0.058
-698.499	275.832	-0.056	0.101
-697.485	-36.504	0.021	-0.011
-696.470	-84.499	0.058	-0.019
-695.456	800.000	0.091	0.269
-694.441	-200.000	0.046	0.437
-693.426	-200.000	0.082	0.370
-692.412	-22.052	-0.479	0.294
-691.397	-91.354	0.213	-0.062
-690.383	17.444	-0.102	-0.082
-689.368	-86.971	-0.286	-0.088
-688.354	35.264	0.014	-0.013
-687.339	-200.000	0.024	-0.153
-686.324	800.000	-0.030	-0.101
-685.310	27.687	-0.339	-0.288
-684.295	-23.708	-0.198	-0.120
-683.281	800.000	0.054	0.212
-682.266	12.425	0.093	0.072
-681.251	-200.000	-0.032	0.149
-680.237	800.000	0.060	-0.194
-679.222	-77.527	-0.403	0.141
-678.208	-46.173	0.295	0.146
-677.193	-141.050	-0.091	0.009
-676.178	772.053	0.084	-0.231
-675.164	26.810	-0.061	-0.052
-674.149	-127.403	0.120	-0.018
-673.135	45.132	0.145	-0.135
-672.120	7.612	-0.410	0.310
-671.105	800.000	0.035	-0.110
-670.091	800.000	0.052	-0.193
-669.076	15.602	0.255	-0.202
-668.062	-200.000	0.034	-0.179
-667.047	-164.805	-0.293	-0.013
-666.032	-200.000	0.023	-0.326
-665.018	-200.000	-0.033	0.350
-664.003	-180.754	-0.198	-0.004
-662.989	261.014	0.237	-0.414
-661.974	421.060	-0.101	0.217
-660.959	800.000	0.105	0.376
-659.945	704.186	-0.141	-0.376
-658.930	800.000	-0.103	-0.309
-657.916	-3.945	0.324	0.227
-656.901	14.710	-0.178	-0.141
-655.886	-72.275	0.163	-0.061
-654.872	-200.000	-0.048	0.336
-653.857	373.934	-0.151	0.310
-652.843	800.000	-0.037	0.107
-651.828	-107.069	-0.070	-0.016
-650.814	56.444	0.232	0.227
-649.799	-200.000	-0.037	-0.266
-648.784	140.072	-0.265	-0.352
-647.770	51.222	-0.316	0.303
-646.755	42.837	-0.113	0.103
-645.741	-200.000	-0.018	-0.251
-644.726	-61.927	0.225	0.095
-643.711	73.481	0.177	0.187
-642.697	-122.615	0.295	0.048
-641.682	-40.422	-0.230	0.120
-640.668	800.000	0.084	0.317
-639.653	-91.389	0.115	-0.033
-638.638	545.229	-0.045	-0.107
-637.624	800.000	0.064	0.259
-636.609	-132.325	-0.206	-0.027
-635.595	800.000	0.044	0.141
-634.580	-119.230	0.295	0.052
-633.565	63.649	-0.036	-0.036
-632.551	-200.000	-0.028	-0.203
-631.536	6.351	-0.147	-0.110
-630.522	-100.445	-0.275	0.069
-629.507	-130.161	0.315	-0.043
-628.492	-35.527	0.199	0.109
-627.478	285.101	-0.072	-0.130
-626.463	32.191	-0.314	-0.273
-625.449	-50.148	-0.146	0.070
-624.434	-78.009	0.355	-0.123
-623.419	-65.022	0.197	0.080
-622.405	191.336	-0.224	0.340
-621.390	-28.967	0.110	0.064
-620.376	-151.558	-0.174	0.013
-619.361	592.843	-0.101	-0.250
-618.346	162.094	0.094	0.132
-617.332	129.170	-0.046	0.059
-616.317	19.729	0.242	-0.197
-615.303	800.000	0.048	-0.166
-614.288	-66.710	0.075	0.030
-613.273	-25.710	-0.233	0.138
-612.259	-153.860	-0.307	0.021
-611.244	-108.590	-0.206	0.045
-610.230	-200.000	0.004	0.045
-609.215	-92.854	-0.319	0.090
-608.201	-60.702	-0.191	0.081
-607.186	41.643	-0.160	0.146
-606.171	-23.858	-0.201	0.121
-605.157	37.461	-0.173	-0.154
-604.142	-200.000	0.036	-0.418
-603.128	399.503	-0.175	0.368
-602.113	800.000	-0.033	-0.108
-601.098	706.166	0.094	-0.250
-600.084	404.081	0.081	0.173
-599.069	-8.202	-0.065	0.044
-598.055	-86.381	-0.332	0.103
-597.040	-118.167	0.267	-0.048
-596.025	-87.278	-0.146	-0.044
-595.011	-40.837	0.273	-0.142
-593.996	140.229	0.081	-0.107
-592.982	28.204	0.259	0.220
-591.967	196.378	0.057	-0.087
-590.952	5.527	-0.250	-0.186
-589.938	187.741	-0.082	-0.124
-588.923	304.624	0.122	0.228
-587.909	-67.195	-0.205	-0.081
-586.894	258.630	-0.018	0.032
-585.879	71.414	-0.191	-0.199
-584.865	800.000	0.116	-0.383
-583.850	-27.732	-0.127	-0.074
-582.836	-74.397	-0.468	0.170
-581.821	800.000	-0.098	-0.353
-580.806	54.203	-0.281	-0.272
-579.792	-200.000	0.034	-0.277
-578.777	413.088	0.022	0.048
-577.763	68.434	0.046	0.047
-576.748	249.803	-0.097	-0.165
-575.733	163.532	-0.174	-0.246
-574.719	-148.946	0.169	0.014
-573.704	246.505	0.099	0.168
-572.690	288.502	0.065	0.118
-571.675	-64.697	0.441	0.180
-570.661	-131.058	0.282	-0.038
-569.646	800.000	0.039	0.153
-568.631	-80.552	-0.345	0.116
-567.617	-17.962	-0.417	-0.263
-566.602	-37.932	-0.116	0.062
-565.588	257.915	-0.166	0.287
-564.573	-200.000	0.004	0.096
-563.558	-67.737	0.192	-0.075
-562.544	-79.640	-0.069	-0.023
-561.529	-200.000	-0.052	-0.242
-560.515	-200.000	0.030	-0.244
-559.500	-200.000	-0.066	-0.380
-558.485	800.000	-0.048	-0.136
-557.471	276.474	0.042	-0.074
-556.456	265.960	-0.111	-0.195
-555.442	641.294	-0.032	-0.081
-554.427	-160.379	0.295	0.016
-553.412	34.124	-0.136	-0.119
-552.398	558.524	0.053	-0.130
-551.383	-200.000	-0.035	0.201
-550.369	800.000	-0.036	-0.119
-549.354	325.756	-0.071	-0.137
-548.339	48.735	-0.133	-0.125
-547.325	61.114	0.404	0.403
-546.310	800.000	-0.070	0.272
-545.296	-200.000	0.014	0.105
-544.281	800.000	-0.145	0.532
-543.266	-200.000	0.025	-0.118
-542.252	175.335	-0.147	0.213
-541.237	325.966	-0.056	0.108
-540.223	-65.755	-0.190	-0.076
-539.208	-53.119	0.117	0.054
-538.193	488.703	0.087	0.199
-537.179	800.000	0.065	-0.209
-536.164	-51.654	0.375	0.176
-535.150	-33.687	0.060	0.033
-534.135	-12.252	-0.086	0.056
-533.121	-70.895	0.202	0.076
-532.106	-200.000	0.013	-0.136
-531.091	244.851	0.135	0.228
-530.077	-88.827	0.116	-0.034
-529.062	-58.314	-0.114	-0.050
-528.048	-84.376	0.071	-0.023
-527.033	-200.000	-0.033	0.329
-526.018	-103.379	0.266	0.063
-525.004	-153.916	0.192	-0.013
-523.989	-145.994	0.186	0.017
-522.975	578.030	-0.124	0.304
-521.960	64.485	-0.145	-0.147
-520.945	315.936	-0.126	-0.238
-519.931	80.201	-0.146	0.157
-518.916	9.097	-0.112	0.085
-517.902	205.791	0.074	-0.116
-516.887	-200.000	-0.049	0.273
-515.872	47.021	0.042	0.039
-514.858	-200.000	-0.000	0.064
-513.843	-140.811	-0.232	-0.024
-512.829	111.858	0.103	-0.125
-511.814	26.961	0.213	0.179
-510.799	-181.397	-0.095	-0.002
-509.785	-13.616	0.189	0.123
-508.770	800.000	-0.040	-0.155
-507.756	50.578	0.191	-0.181
-506.741	-200.000	-0.007	-0.059
-505.726	-100.855	-0.147	0.036
-504.712	42.082	0.260	0.237
-503.697	67.058	0.103	-0.105
-502.683	420.286	-0.166	-0.357
-501.668	630.448	-0.126	-0.319
-500.653	3.375	0.280	-0.204
-499.639	121.700	0.185	-0.231
-498.624	412.556	0.048	-0.101
-497.610	-70.875	-0.132	-0.050
-496.595	-104.098	0.112	-0.026
-495.581	-150.006	0.221	-0.017
-494.566	488.597	0.145	0.333
-493.551	391.284	0.047	0.098
-492.537	202.287	-0.193	0.299
-491.522	461.770	-0.014	-0.031
-490.508	-81.235	0.199	-0.066
-489.493	800.000	-0.050	-0.207
-488.478	47.564	-0.339	0.316
-487.464	-101.209	-0.402	0.098
-486.449	800.000	0.092	-0.255
-485.435	-131.637	-0.207	0.027
-484.420	79.598	-0.182	0.196
-483.405	-78.942	0.090	-0.031
-482.391	-73.742	-0.395	0.144
-481.376	-200.000	-0.024	-0.343
-480.362	5.856	-0.194	0.144
-479.347	127.076	0.073	-0.093
-478.332	-200.000	0.004	0.109
-477.318	-200.000	-0.005	0.096
-476.303	-40.730	-0.276	-0.143
-475.289	-91.684	-0.392	-0.112
-474.274	-76.006	0.169	0.060
-473.259	-55.356	0.153	0.069
-472.245	800.000	0.101	-0.340
-471.230	5.529	0.291	0.215
-470.216	-74.628	0.305	-0.110
-469.201	-54.278	-0.084	0.038
-468.186	174.301	-0.213	0.308
-467.172	-200.000	-0.008	-0.080
-466.157	-55.655	0.374	0.168
-465.143	800.000	-0.052	0.217
-464.128	234.329	0.146	0.240
-463.113	251.795	0.041	-0.070
-462.099	-67.756	0.210	-0.082
-461.084	-77.779	-0.478	-0.165
-460.070	-105.543	-0.054	0.012
-459.055	-42.213	0.217	-0.111
-458.040	-200.000	0.020	0.137
-457.026	96.288	-0.005	-0.006
-456.011	-42.105	-0.153	0.079
-454.997	48.371	0.103	0.097
-453.982	800.000	-0.078	0.269
-452.968	22.538	0.276	-0.226
-451.953	546.162	0.123	-0.295
-450.938	-200.000	0.021	0.267
-449.924	156.079	0.082	-0.114
-448.909	-68.589	0.249	-0.096
-447.895	-200.000	-0.005	-0.149
-446.880	-200.000	-0.012	0.116
-445.865	-99.802	0.463	-0.116
-444.851	-200.000	-0.044	0.257
-443.836	800.000	-0.120	0.353
-442.822	58.274	-0.139	-0.136
-441.807	62.525	-0.150	0.150
-440.792	-8.209	-0.016	-0.011
-439.778	134.700	0.133	0.172
-438.763	-109.087	-0.166	0.035
-437.749	800.000	0.134	0.508
-436.734	335.793	0.062	0.120
-435.719	-127.532	-0.042	0.006
-434.705	697.716	-0.138	-0.364
-433.690	-200.000	-0.055	0.309
-432.676	70.871	-0.201	0.208
-431.661	173.202	-0.284	-0.409
-430.646	-38.871	-0.391	-0.206
-429.632	155.081	0.168	-0.231
-428.617	-200.000	0.014	0.069
-427.603	53.360	0.261	0.250
-426.588	209.152	0.114	0.179
-425.573	50.939	0.164	-0.155
-424.559	573.159	-0.138	-0.336
-423.544	13.836	0.262	-0.204
-422.530	800.000	0.080	-0.316
-421.515	19.810	-0.241	-0.194
-420.500	-37.039	-0.056	0.030
-419.486	164.731	0.217	0.306
-418.471	-200.000	-0.019	0.229
-417.457	-110.555	-0.182	0.038
-416.442	-200.000	0.000	0.152
-415.428	-19.310	0.118	0.073
-414.413	-18.435	-0.208	-0.130
-413.398	-39.536	0.187	0.098
-412.384	-11.204	-0.159	0.105
-411.369	152.570	0.105	-0.143
-410.355	-11.703	0.044	-0.029
-409.340	-20.985	0.267	-0.163
-408.325	193.174	0.094	-0.141
-407.311	800.000	0.060	-0.245
-406.296	88.351	0.220	0.245
-405.282	-122.208	-0.145	0.024
-404.267	-19.113	0.044	0.027
-403.252	16.207	-0.020	0.016
-402.238	152.509	-0.153	0.209
-401.223	110.533	0.141	0.169
-400.209	-75.116	0.310	-0.111
-399.194	-98.705	-0.203	0.052
-398.179	-15.516	-0.280	-0.178
-397.165	-4.912	-0.341	-0.235
-396.150	246.161	0.115	0.193
-395.136	325.722	-0.141	-0.269
-394.121	-134.641	-0.186	-0.023
-393.106	183.227	-0.160	-0.236
-392.092	-2.679	-0.306	-0.214
-391.077	-100.114	-0.115	-0.029
-390.063	-99.153	0.307	0.078
-389.048	-49.500	0.200	-0.095
-388.033	-101.825	-0.351	0.085
-387.019	-55.002	0.118	0.053
-386.004	-200.000	-0.009	-0.511
-384.990	800.000	0.127	0.396
-383.975	35.093	0.227	0.199
-382.960	800.000	0.062	0.179
-381.946	-82.498	0.203	-0.066
-380.931	-48.167	0.246	-0.119
-379.917	-94.859	0.455	-0.123
-378.902	-117.957	0.481	0.086
-377.888	-107.144	-0.040	0.009
-376.873	800.000	0.059	0.172
-375.858	-200.000	-0.048	-0.270
-374.844	439.961	-0.025	-0.055
-373.829	7.273	-0.172	-0.128
-372.815	191.007	0.268	0.402
-371.800	-110.108	0.076	0.016
-370.785	-63.029	0.090	-0.037
-369.771	-138.350	-0.056	-0.006
-368.756	-200.000	-0.011	-0.244
-367.742	-146.726	-0.138	0.012
-366.727	-145.402	0.176	-0.016
-365.712	-187.196	-0.082	0.001
-364.698	800.000	0.019	-0.055
-363.683	-200.000	-0.035	0.196
-362.669	7.251	-0.196	-0.146
-361.654	-200.000	0.081	0.405
-360.639	31.603	-0.096	-0.082
-359.625	40.580	-0.162	0.145
-358.610	53.217	0.203	0.194
-357.596	-147.758	0.243	0.020
-356.581	-128.371	-0.216	0.031
-355.566	-129.273	0.458	0.064
-354.552	131.501	-0.169	-0.216
-353.537	-200.000	0.022	0.251
-352.523	188.859	-0.081	-0.121
-351.508	-200.000	-0.013	-0.109
-350.493	148.523	0.101	-0.136
-349.479	-18.136	0.227	-0.141
-348.464	186.662	-0.118	0.175
-347.450	265.815	-0.137	-0.239
-346.435	-59.685	0.380	-0.162
-345.420	800.000	-0.082	-0.287
-344.406	522.684	0.109	-0.256
-343.391	800.000	0.140	-0.401
-342.377	-74.671	-0.026	0.009
-341.362	-200.000	0.003	0.092
-340.348	-121.179	-0.108	0.018
-339.333	800.000	0.041	-0.114
-338.318	6.524	0.154	0.114
-337.304	800.000	-0.070	-0.222
-336.289	17.960	-0.201	-0.159
-335.275	-175.465	0.145	0.004
-334.260	800.000	-0.072	0.242
-333.245	238.047	0.060	0.098
-332.231	800.000	0.020	0.070
-331.216	800.000	-0.117	0.380
-330.202	231.586	0.250	0.408
-329.187	800.000	0.038	0.124
-328.172	-2.869	-0.160	-0.111
-327.158	38.708	-0.108	-0.096
-326.143	153.694	-0.058	0.079
-325.129	800.000	0.180	0.501
-324.114	38.940	-0.115	0.102
-323.099	183.307	-0.104	0.152
-322.085	23.809	-0.163	0.134
-321.070	10.832	-0.123	-0.094
-320.056	324.032	-0.133	0.253
-319.041	-146.791	0.172	0.015
-318.026	-31.235	0.116	0.065
-317.012	87.155	-0.209	0.230
-315.997	800.000	0.038	-0.111
-314.983	-200.000	-0.001	0.252
-313.968	-78.786	-0.243	0.083
-312.953	800.000	-0.092	0.352
-311.939	11.556	-0.200	0.152
-310.924	-69.656	0.300	-0.114
-309.910	103.222	0.064	0.074
-308.895	-200.000	0.056	0.429
-307.880	223.115	0.050	-0.081
-306.866	103.214	-0.072	0.084
-305.851	249.077	-0.073	0.123
-304.837	-83.568	-0.114	0.036
-303.822	702.246	0.069	-0.180
-302.807	-200.000	-0.011	0.067
-301.793	-35.965	-0.037	0.020
-300.778	230.990	-0.190	-0.309
-299.764	-91.953	-0.193	0.054
-298.749	251.275	-0.092	0.155
-297.735	548.684	-0.094	-0.224
-296.720	-159.497	0.264	0.015
-295.705	-10.376	-0.474	-0.312
-294.691	-200.000	0.015	0.156
-293.676	35.099	0.141	0.123
-292.662	39.710	0.209	-0.186
-291.647	800.000	0.021	-0.063
-290.632	-170.046	0.392	-0.014
-289.618	-200.000	-0.020	0.121
-288.603	67.239	0.140	0.142
-287.589	274.564	-0.036	0.063
-286.574	189.923	0.182	-0.271
-285.559	196.051	-0.211	-0.319
-284.545	-181.767	-0.455	0.009
-283.530	-127.591	0.457	-0.066
-282.516	274.573	0.150	-0.265
-281.501	-73.317	-0.170	-0.062
-280.486	-200.000	-0.002	-0.056
-279.472	-200.000	0.053	0.303
-278.457	-146.374	-0.194	-0.017
-277.443	-76.912	0.131	0.046
-276.428	-200.000	0.012	0.232
-275.413	-57.275	-0.242	-0.106
-274.399	80.157	0.082	0.088
-273.384	98.446	0.168	0.192
-272.370	258.060	-0.194	-0.332
-271.355	-200.000	-0.023	-0.215
-270.340	-143.258	-0.150	0.014
-269.326	-200.000	0.084	0.516
-268.311	30.603	-0.383	0.326
-267.297	-94.984	-0.212	0.057
-266.282	-49.421	0.418	0.198
-265.267	800.000	0.102	-0.284
-264.253	69.211	0.014	-0.015
-263.238	128.726	-0.165	0.209
-262.224	800.000	-0.123	-0.390
-261.209	61.234	-0.096	0.095
-260.195	241.733	0.113	-0.188
-259.180	206.684	0.187	-0.289
-258.165	111.589	0.025	0.030
-257.151	674.803	-0.103	-0.266
-256.136	-64.585	-0.290	-0.117
-255.122	-51.968	-0.044	-0.020
-254.107	23.327	0.351	0.287
-253.092	55.716	0.182	0.175
-252.078	-200.000	-0.016	0.419
-251.063	-200.000	0.025	0.159
-250.049	-39.313	-0.287	-0.150
-249.034	-186.759	0.110	0.002
-248.019	-66.163	-0.037	0.015
-247.005	-80.904	0.297	-0.098
-245.990	-83.873	0.195	-0.062
-244.976	-85.570	-0.134	0.041
-243.961	551.599	0.035	-0.083
-242.946	-11.751	-0.352	-0.229
-241.932	-33.103	0.284	-0.156
-240.917	76.015	0.068	-0.071
-239.903	-102.035	-0.175	-0.042
-238.888	-32.562	-0.175	0.097
-237.873	800.000	0.042	-0.123
-236.859	-200.000	-0.002	-0.174
-235.844	-159.025	0.186	-0.010
-234.830	-18.574	-0.108	-0.067
-233.815	-10.108	-0.089	-0.059
-232.800	-47.976	-0.282	-0.136
-231.786	249.972	-0.076	0.128
-230.771	-79.077	0.293	-0.099
-229.757	-200.000	-0.004	0.046
-228.742	-200.000	-0.067	0.324
-227.727	-200.000	-0.001	-0.067
-226.713	-96.171	0.441	0.116
-225.698	-90.682	0.184	0.053
-224.684	-101.130	0.203	0.049
-223.669	800.000	0.105	-0.298
-222.655	33.814	-0.034	0.030
-221.640	-200.000	0.005	0.138
-220.625	101.198	0.090	0.104
-219.611	-161.939	-0.229	0.012
-218.596	-60.669	-0.212	-0.089
-217.582	-200.000	-0.021	0.099
-216.567	-200.000	-0.035	0.205
-215.552	-1.040	-0.122	-0.085
-214.538	-84.095	-0.106	0.033
-213.523	212.857	-0.199	0.311
-212.509	-41.878	0.112	-0.057
-211.494	-38.523	0.145	0.076
-210.479	800.000	0.064	0.203
-209.465	-200.000	-0.054	0.264
-208.450	-0.717	0.216	-0.152
-207.436	-22.623	0.470	-0.281
-206.421	800.000	-0.024	0.086
-205.406	301.641	-0.067	0.122
-204.392	-200.000	0.017	0.281
-203.377	-200.000	0.034	-0.167
-202.363	800.000	-0.051	-0.202
-201.348	800.000	0.135	-0.435
-200.333	-140.581	-0.187	-0.019
-199.319	800.000	0.064	0.258
-198.304	-200.000	-0.045	-0.231
-197.290	200.008	0.045	-0.069
-196.275	-43.418	-0.160	-0.080
-195.260	-71.711	0.235	0.087
-194.246	482.983	-0.023	0.051
-193.231	800.000	-0.143	0.450
-192.217	-200.000	-0.010	-0.047
-191.202	-108.292	0.357	0.076
-190.187	118.480	-0.280	-0.342
-189.173	-117.559	-0.197	0.035
-188.158	-121.278	0.390	0.064
-187.144	-70.766	-0.211	0.079
-186.129	-200.000	-0.011	0.068
-185.114	-200.000	0.038	-0.241
-184.100	800.000	0.044	-0.131
-183.085	142.207	-0.107	0.141
-182.071	-57.066	0.095	-0.042
-181.056	-63.712	-0.215	-0.087
-180.042	69.984	-0.092	0.094
-179.027	800.000	0.119	0.357
-178.012	75.605	-0.099	0.103
-176.998	800.000	0.073	-0.281
-175.983	150.271	-0.130	-0.175
-174.969	-79.336	0.303	0.102
-173.954	-200.000	0.011	-0.260
-172.939	379.027	0.072	-0.145
-171.925	-132.532	0.150	0.019
-170.910	35.711	0.203	-0.176
-169.896	103.068	-0.215	-0.250
-168.881	109.742	-0.230	-0.273
-167.866	-29.689	0.205	0.116
-166.852	-200.000	0.029	0.168
-165.837	-200.000	-0.040	-0.364
-164.823	214.054	0.065	-0.102
-163.808	46.868	0.073	0.067
-162.793	323.621	0.100	-0.190
-161.779	-55.820	-0.140	-0.062
-160.764	-200.000	-0.029	-0.156
-159.750	61.655	0.118	-0.116
-158.735	617.283	-0.047	-0.116
-157.720	800.000	0.071	0.219
-156.706	388.520	0.169	0.346
-155.691	-117.173	0.043	0.008
-154.677	124.287	-0.257	-0.320
-153.662	122.121	-0.127	0.156
-152.647	317.023	-0.020	-0.038
-151.633	30.964	-0.107	-0.091
-150.618	94.024	0.175	0.196
-149.604	-36.507	0.164	-0.087
-148.589	41.840	0.119	-0.107
-147.574	-129.258	0.183	0.025
-146.560	-169.233	-0.237	-0.009
-145.545	-200.000	-0.150	-0.001
-144.531	-200.000	0.067	0.564
-143.516	-200.000	-0.037	0.345
-142.502	158.201	-0.118	-0.162
-141.487	800.000	-0.055	0.198
-140.472	-152.500	0.183	0.013
-139.458	566.558	-0.140	-0.336
-138.443	175.502	-0.079	-0.114
-137.429	-15.675	0.306	0.193
-136.414	-58.777	-0.274	0.117
-135.399	800.000	-0.031	-0.105
-134.385	-61.684	0.277	0.115
-133.370	800.000	0.076	0.231
-132.356	95.153	-0.054	-0.061
-131.341	16.702	-0.225	0.176
-130.326	-77.794	-0.355	0.121
-129.312	102.596	-0.066	0.076
-128.297	800.000	0.091	0.347
-127.283	-174.155	0.234	0.007
-126.268	-200.000	-0.021	0.242
-125.253	262.628	0.057	0.098
-124.239	-5.782	0.325	0.220
-123.224	800.000	0.052	0.184
-122.210	-156.603	0.120	-0.007
-121.195	-106.067	-0.082	0.018
-120.180	-12.376	-0.311	-0.201
-119.166	-37.336	-0.097	-0.051
-118.151	405.222	0.137	-0.284
-117.137	800.000	0.052	0.152
-116.122	-0.827	0.231	-0.162
-115.107	-79.429	-0.223	-0.075
-114.093	-63.456	0.160	0.065
-113.078	-200.000	0.022	-0.132
-112.064	-200.000	-0.010	0.198
-111.049	1.058	0.238	0.169
-110.034	-26.078	-0.211	-0.123
-109.020	800.000	0.091	-0.260
-108.005	-86.998	-0.084	-0.025
-106.991	-200.000	-0.002	-0.069
-105.976	-54.298	-0.085	0.038
-104.962	-200.000	-0.095	-0.413
-103.947	-87.105	0.279	-0.084
-102.932	-111.672	0.352	0.070
-101.918	800.000	0.019	-0.074
-100.903	-200.000	0.018	0.416
-99.889	104.764	-0.244	-0.284
-98.874	-46.992	-0.088	0.042
-97.859	363.535	0.144	0.286
-96.845	-45.861	0.279	0.136
-95.830	-141.230	-0.175	-0.018
-94.816	269.422	0.113	-0.196
-93.801	-161.775	0.046	0.002
-92.786	188.618	0.165	-0.244
-91.772	28.274	0.133	-0.111
-90.757	-200.000	-0.016	-0.110
-89.743	-16.349	-0.073	-0.045
-88.728	-120.064	-0.081	-0.014
-87.713	800.000	-0.062	-0.176
-86.699	-200.000	-0.001	-0.208
-85.684	117.353	0.073	0.088
-84.670	227.577	0.094	0.151
-83.655	71.550	0.171	-0.176
-82.640	-26.353	-0.083	-0.048
-81.626	-200.000	0.003	0.129
-80.611	26.113	0.322	0.265
-79.597	-200.000	0.022	0.136
-78.582	-103.697	-0.093	0.022
-77.567	-10.704	-0.512	-0.334
-76.553	-74.173	0.306	0.109
-75.538	15.512	-0.083	0.064
-74.524	-182.839	-0.020	0.000
-73.509	-160.697	-0.217	0.011
-72.494	-143.334	0.238	-0.022
-71.480	12.034	-0.374	-0.284
-70.465	-65.715	0.315	0.124
-69.451	344.749	-0.047	-0.091
-68.436	3.983	-0.266	0.192
-67.422	-88.315	0.114	-0.034
-66.407	-47.367	0.278	-0.133
-65.392	-117.552	-0.238	0.042
-64.378	69.540	0.116	-0.118
-63.363	-200.000	-0.025	-0.156
-62.349	242.432	0.084	0.138
-61.334	-4.309	-1.016	-0.693
-60.319	308.115	0.265	0.487
-59.305	467.022	-0.354	-0.782
-58.290	507.659	0.449	1.027
-57.276	325.854	0.831	1.567
-56.261	-200.000	91.587	533.798
-55.246	487.573	1417.154	3186.138
-54.232	145.528	2638.587	3481.475
-53.217	106.159	2358.609	2751.734
-52.203	44.760	1962.464	1778.304
-51.188	38.604	1744.460	1532.722
-50.173	35.794	1698.192	1470.566
-49.159	51.533	1743.951	1632.403
-48.144	54.527	1762.021	1672.446
-47.130	38.389	1719.420	1508.821
-46.115	35.468	1704.621	1473.397
-45.100	35.336	1699.705	1468.078
-44.086	35.182	1696.872	1464.390
-43.071	35.176	1694.931	1462.615
-42.057	35.203	1692.087	1460.307
-41.042	35.138	1690.493	1458.381
-40.027	35.242	1688.637	1457.514
-39.013	35.178	1686.404	1455.044
-37.998	35.172	1685.036	1453.760
-36.984	35.204	1683.947	1453.003
-35.969	35.407	1681.852	1452.677
-34.954	35.441	1680.435	1451.648
-33.940	35.402	1678.486	1449.612
-32.925	35.460	1676.276	1448.084
-31.911	35.413	1674.641	1446.265
-30.896	35.378	1672.848	1444.395
-29.881	35.313	1671.253	1442.466
-28.867	35.308	1669.678	1441.017
-27.852	35.367	1668.053	1439.996
-26.838	35.355	1666.258	1438.298
-25.823	35.357	1665.709	1437.785
-24.809	35.409	1664.247	1436.854
-23.794	35.417	1662.781	1435.594
-22.779	35.441	1661.040	1434.212
-21.765	35.336	1659.579	1432.111
-20.750	35.316	1657.818	1430.380
-19.736	35.521	1656.023	1430.302
-18.721	35.467	1654.497	1428.527
-17.706	35.353	1653.512	1426.772
-16.692	35.427	1650.919	1425.031
-15.677	35.298	1649.973	1423.198
-14.663	35.376	1649.099	1422.965
-13.648	35.411	1647.115	1421.456
-12.633	35.402	1645.465	1419.913
-11.619	35.441	1643.252	1418.231
-10.604	35.347	1642.127	1416.515
-9.590	35.413	1641.132	1416.084
-8.575	35.396	1639.878	1414.817
-7.560	35.271	1638.545	1412.691
-6.546	35.336	1637.546	1412.253
-5.531	35.339	1636.531	1411.343
-4.517	35.383	1634.823	1410.136
-3.502	35.340	1634.196	1409.223
-2.487	35.388	1632.852	1408.367
-1.473	35.588	1621.906	1400.326
-0.458	33.539	1603.971	1369.994
0.556	28.349	1604.997	1340.962
1.571	26.094	1629.624	1344.632
2.586	25.311	1643.414	1350.005
3.600	23.441	1592.283	1294.252
4.615	18.402	1485.331	1172.803
5.629	13.735	1422.516	1092.434
6.644	12.600	1414.764	1078.943
7.659	12.581	1412.892	1077.295
8.673	12.599	1412.025	1076.658
9.688	12.521	1410.034	1074.537
10.702	12.436	1407.314	1071.813
11.717	14.722	1411.308	1089.692
12.731	18.929	1418.893	1122.993
13.746	19.622	1418.453	1127.070
14.761	17.917	1413.613	1112.027
15.775	16.591	1410.752	1101.052
16.790	15.543	1407.924	1091.937
17.804	14.637	1405.533	1084.104
18.819	14.128	1404.421	1079.850
19.834	13.792	1402.618	1076.188
20.848	13.688	1401.235	1074.354
21.863	13.356	1400.257	1071.362
22.877	13.186	1398.707	1068.984
23.892	13.123	1398.063	1067.986
24.907	13.198	1397.261	1067.766
25.921	13.261	1395.568	1066.787
26.936	13.193	1395.362	1066.093
27.950	13.240	1394.199	1065.414
28.965	13.219	1393.421	1064.592
29.980	13.295	1392.267	1064.101
30.994	13.388	1390.945	1063.597
32.009	13.482	1389.269	1062.821
33.023	13.453	1388.014	1061.582
34.038	13.402	1387.108	1060.472
35.053	13.317	1385.851	1058.873
36.067	13.364	1384.579	1058.108
37.082	13.280	1383.681	1056.787
38.096	13.323	1382.250	1055.877
39.111	13.450	1381.288	1055.863
40.126	13.248	1380.635	1053.980
41.140	13.143	1380.162	1052.858
42.155	13.160	1379.033	1052.008
43.169	13.146	1379.199	1051.951
44.184	13.123	1378.862	1051.454
45.199	13.106	1378.469	1050.955
46.213	13.247	1377.374	1050.924
47.228	13.371	1376.390	1050.869
48.242	13.268	1375.507	1049.448
49.257	13.292	1374.144	1048.465
50.271	13.158	1372.673	1046.405
51.286	13.324	1370.745	1045.891
52.301	13.221	1369.965	1044.553
53.315	13.240	1368.596	1043.536
54.330	13.161	1367.685	1042.248
55.344	13.152	1366.491	1041.194
56.359	13.198	1365.422	1040.575
57.374	13.101	1364.577	1039.230
58.388	13.141	1363.481	1038.552
59.403	13.092	1363.170	1037.915
60.417	13.051	1362.387	1036.968
61.432	13.061	1361.392	1036.188
62.447	12.982	1360.684	1035.057
63.461	13.019	1359.082	1033.982
64.476	13.019	1358.390	1033.360
65.490	13.001	1357.116	1032.191
66.505	13.018	1355.368	1030.875
67.520	13.101	1353.883	1030.172
68.534	13.026	1352.953	1028.907
69.549	13.096	1351.582	1028.209
70.563	13.055	1350.818	1027.277
71.578	13.054	1349.917	1026.500
72.593	12.968	1348.934	1025.124
73.607	12.922	1348.208	1024.195
74.622	12.896	1346.809	1022.884
75.636	12.892	1346.663	1022.658
76.651	12.969	1345.960	1022.509
77.666	12.903	1345.518	1021.673
78.680	13.054	1344.975	1022.109
79.695	12.942	1344.559	1021.006
80.709	12.958	1343.435	1020.161
81.724	13.053	1342.471	1019.927
82.739	13.125	1341.737	1019.725
83.753	13.189	1340.714	1019.252
84.768	13.268	1339.499	1018.724
85.782	13.277	1338.294	1017.769
86.797	13.287	1336.820	1016.622
87.812	13.226	1335.575	1015.211
88.826	13.170	1335.225	1014.513
89.841	13.285	1333.683	1013.956
90.855	13.237	1333.015	1013.066
91.870	13.292	1331.870	1012.437
92.884	13.256	1331.234	1011.649
93.899	13.259	1330.342	1010.898
94.914	13.394	1329.363	1010.887
95.928	13.338	1328.379	1009.708
96.943	13.343	1327.669	1009.109
97.957	13.286	1326.845	1008.047
98.972	13.338	1325.394	1007.173
99.987	13.372	1324.223	1006.400
101.001	13.240	1323.430	1004.908
102.016	13.337	1322.385	1004.611
103.030	13.303	1322.014	1004.036
104.045	13.406	1320.528	1003.446
105.060	13.233	1319.247	1001.333
106.074	13.208	1317.998	1000.148
107.089	13.124	1316.611	998.499
108.103	13.116	1315.104	997.219
109.118	13.027	1313.995	995.752
110.133	13.062	1312.619	994.830
111.147	13.140	1311.405	994.291
112.162	13.065	1310.088	992.755
113.176	13.116	1309.095	992.221
114.191	13.142	1307.952	991.421
115.206	13.139	1306.832	990.466
116.220	13.100	1305.871	989.417
117.235	13.161	1304.486	988.650
118.249	13.131	1303.253	987.444
119.264	13.163	1302.034	986.626
120.279	13.057	1301.235	985.302
121.293	13.066	1300.127	984.430
122.308	12.968	1299.175	983.039
123.322	13.141	1297.614	982.800
124.337	13.163	1296.614	982.087
125.352	13.053	1295.705	980.655
126.366	13.015	1294.360	979.327
127.381	13.089	1293.416	978.966
128.395	13.099	1292.561	978.291
129.410	13.083	1291.523	977.320
130.424	13.081	1290.963	976.800
131.439	13.085	1289.554	975.673
132.454	13.188	1288.912	975.706
133.468	13.283	1287.345	974.995
134.483	13.188	1287.276	974.297
135.497	13.158	1286.388	973.364
136.512	13.238	1284.387	972.234
137.527	13.267	1283.134	971.369
138.541	13.284	1281.479	970.126
139.556	13.362	1280.116	969.469
140.570	13.246	1279.619	968.327
141.585	13.386	1277.990	967.826
142.600	13.343	1277.048	966.777
143.614	13.378	1276.377	966.387
144.629	13.465	1274.788	965.604
145.643	13.428	1273.635	964.432
146.658	13.331	1272.716	963.086
147.673	13.268	1271.394	961.631
148.687	13.277	1270.109	960.628
149.702	13.178	1268.520	958.766
150.716	13.166	1267.210	957.624
151.731	13.231	1266.132	957.103
152.746	13.317	1264.681	956.415
153.760	13.335	1263.738	955.725
154.775	13.383	1262.666	955.105
155.789	13.360	1261.676	954.138
156.804	13.378	1260.376	953.177
157.819	13.405	1259.939	952.918
158.833	13.509	1258.748	952.526
159.848	13.467	1257.398	951.183
160.862	13.462	1256.367	950.289
161.877	13.415	1255.309	949.132
162.892	13.414	1253.880	947.964
163.906	13.365	1253.115	947.022
164.921	13.379	1252.252	946.366
165.935	13.323	1251.512	945.402
166.950	13.415	1250.422	945.022
167.964	13.307	1250.363	944.275
168.979	13.378	1249.445	943.906
169.994	13.544	1248.459	944.024
171.008	13.440	1247.569	942.672
172.023	13.518	1247.055	942.645
173.037	13.572	1246.135	942.172
174.052	13.544	1245.121	941.167
175.067	13.475	1244.209	939.999
176.081	13.394	1243.147	938.654
177.096	13.458	1241.756	937.885
178.110	13.463	1241.164	937.384
179.125	13.534	1239.446	936.405
180.140	13.518	1238.141	935.245
181.154	13.558	1236.860	934.419
182.169	13.611	1235.714	933.769
183.183	13.586	1234.889	932.926
184.198	13.712	1233.385	932.416
185.213	13.721	1232.215	931.496
186.227	13.686	1231.278	930.511
187.242	13.784	1230.254	930.201
188.256	13.823	1229.484	929.759
189.271	13.810	1228.285	928.695
190.286	13.700	1227.570	927.459
191.300	13.634	1226.241	926.000
192.315	13.554	1225.886	925.205
193.329	13.455	1225.517	924.291
194.344	13.620	1224.436	924.319
195.359	13.692	1224.029	924.327
196.373	13.827	1223.443	924.554
197.388	13.707	1223.041	923.501
198.402	13.932	1222.078	923.947
199.417	13.974	1221.469	923.637
200.432	13.990	1220.465	922.886
201.446	13.955	1219.797	922.103
202.461	13.951	1219.224	921.563
203.475	14.040	1217.702	920.827
204.490	13.908	1216.591	919.174
205.504	13.927	1215.370	918.276
206.519	13.945	1214.051	917.298
207.534	13.916	1212.781	916.095
208.548	13.950	1212.161	915.734
209.563	13.856	1211.665	914.762
210.577	13.827	1210.987	914.007
211.592	13.924	1209.545	913.375
212.607	13.995	1208.824	913.140
213.621	14.046	1207.907	912.646
214.636	14.088	1206.572	911.785
215.650	13.998	1205.835	910.654
216.665	14.114	1204.798	910.425
217.680	14.127	1203.786	909.654
218.694	14.162	1203.368	909.449
219.709	14.238	1202.295	908.971
220.723	14.232	1202.001	908.634
221.738	14.085	1201.530	907.397
222.753	14.149	1200.311	906.742
223.767	14.127	1199.763	906.130
224.782	14.175	1199.031	905.760
225.796	14.281	1198.189	905.621
226.811	14.179	1197.646	904.575
227.826	14.259	1196.634	904.167
228.840	14.187	1196.244	903.401
229.855	14.191	1195.389	902.696
230.869	14.289	1194.512	902.484
231.884	14.259	1193.804	901.706
232.899	14.143	1192.880	900.303
233.913	14.255	1191.949	900.125
234.928	14.409	1190.862	900.054
235.942	14.199	1190.358	898.462
236.957	14.143	1189.591	897.499
237.972	14.206	1188.900	897.238
238.986	14.282	1188.231	897.063
240.001	14.266	1187.524	896.367
241.015	14.208	1186.917	895.518
242.030	14.325	1185.752	895.186
243.045	14.272	1185.320	894.494
244.059	14.428	1183.826	894.126
245.074	14.391	1182.960	893.195
246.088	14.360	1182.500	892.606
247.103	14.363	1181.924	892.104
248.117	14.555	1180.936	892.309
249.132	14.595	1180.357	892.005
250.147	14.729	1179.208	891.772
251.161	14.654	1179.244	891.321
252.176	14.771	1178.185	891.069
253.190	14.707	1177.601	890.203
254.205	14.724	1176.872	889.666
255.220	14.745	1176.477	889.398
256.234	14.840	1175.694	889.233
257.249	14.682	1175.210	887.951
258.263	14.852	1174.332	888.110
259.278	14.858	1173.286	887.274
260.293	14.916	1173.005	887.288
261.307	14.761	1173.063	886.435
262.322	14.857	1172.069	886.110
263.336	14.925	1171.087	885.650
264.351	14.903	1170.536	885.040
265.366	14.927	1169.609	884.387
266.380	14.890	1169.410	883.964
267.395	14.909	1168.447	883.258
268.409	14.799	1167.850	882.145
269.424	14.873	1166.959	881.787
270.439	14.853	1166.159	881.001
271.453	15.000	1165.403	881.126
272.468	14.927	1164.419	879.918
273.482	14.882	1163.787	879.126
274.497	14.895	1163.322	878.767
275.512	14.955	1162.651	878.496
276.526	14.876	1161.769	877.335
277.541	14.929	1161.132	877.059
278.555	14.929	1160.630	876.600
279.570	14.959	1160.036	876.233
280.585	15.175	1158.902	876.428
281.599	15.043	1158.350	875.240
282.614	15.207	1156.862	874.894
283.628	15.189	1155.609	873.776
284.643	15.091	1154.888	872.644
285.657	15.094	1154.144	872.019
286.672	15.078	1153.395	871.291
287.687	15.068	1152.375	870.392
288.701	15.202	1151.645	870.461
289.716	15.214	1151.105	870.039
290.730	15.279	1149.874	869.367
291.745	15.198	1149.920	868.905
292.760	15.213	1148.826	868.083
293.774	15.141	1148.735	867.564
294.789	15.346	1147.815	867.853
295.803	15.411	1146.653	867.234
296.818	15.191	1146.427	865.846
297.833	15.320	1145.693	865.882
298.847	15.348	1144.506	865.053
299.862	15.319	1143.677	864.201
300.876	15.263	1143.254	863.518
301.891	15.302	1142.857	863.342
302.906	15.446	1141.719	863.146
303.920	15.472	1141.109	862.744
304.935	15.586	1140.348	862.676
305.949	15.465	1140.123	861.810
306.964	15.647	1138.900	861.738
307.979	15.598	1137.992	860.723
308.993	15.692	1136.846	860.263
310.008	15.632	1136.543	859.652
311.022	15.611	1135.809	858.915
312.037	15.573	1134.924	857.975
313.052	15.483	1134.401	857.041
314.066	15.482	1132.895	855.825
315.081	15.439	1132.360	855.124
316.095	15.514	1131.587	854.848
317.110	15.433	1130.967	853.891
318.125	15.487	1129.941	853.315
319.139	15.432	1129.631	852.728
320.154	15.433	1128.914	852.114
321.168	15.548	1128.031	851.957
322.183	15.479	1127.490	851.122
323.197	15.539	1126.892	850.900
324.212	15.636	1125.585	850.328
325.227	15.585	1125.844	850.189
326.241	15.645	1124.895	849.702
327.256	15.638	1124.022	848.931
328.270	15.677	1123.122	848.374
329.285	15.652	1121.876	847.230
330.300	15.588	1121.538	846.582
331.314	15.720	1119.904	845.938
332.329	15.634	1119.348	845.009
333.343	15.661	1118.462	844.401
334.358	15.646	1117.891	843.818
335.373	15.824	1117.149	844.075
336.387	15.855	1116.191	843.431
337.402	15.863	1115.447	842.839
338.416	15.808	1115.117	842.237
339.431	15.849	1114.522	841.918
340.446	15.851	1113.692	841.226
341.460	15.993	1112.970	841.317
342.475	15.973	1111.921	840.350
343.489	16.131	1110.877	840.275
344.504	16.065	1110.128	839.303
345.519	16.050	1109.431	838.629
346.533	16.067	1108.616	838.022
347.548	16.125	1108.090	837.839
348.562	16.162	1107.518	837.518
349.577	16.133	1106.354	836.417
350.592	16.054	1105.591	835.376
351.606	16.074	1104.602	834.651
352.621	16.034	1103.910	833.856
353.635	15.893	1103.712	832.937
354.650	16.062	1102.536	832.813
355.665	16.020	1102.124	832.219
356.679	16.032	1101.570	831.786
357.694	16.122	1100.609	831.429
358.708	16.148	1099.799	830.875
359.723	16.129	1099.545	830.513
360.738	16.141	1098.879	829.999
361.752	16.097	1098.424	829.366
362.767	16.130	1098.014	829.143
363.781	16.212	1097.213	828.866
364.796	16.242	1096.525	828.424
365.810	16.242	1095.796	827.797
366.825	16.387	1095.111	827.916
367.840	16.375	1094.799	827.548
368.854	16.420	1094.406	827.399
369.869	16.432	1093.259	826.516
370.883	16.336	1092.310	825.258
371.898	16.444	1091.387	825.013
372.913	16.400	1091.003	824.440
373.927	16.475	1090.284	824.185
374.942	16.527	1089.939	824.108
375.956	16.578	1089.545	823.983
376.971	16.512	1088.942	823.132
377.986	16.561	1088.571	823.021
379.000	16.538	1087.800	822.252
380.015	16.686	1086.953	822.256
381.029	16.558	1086.856	821.490
382.044	16.623	1086.051	821.124
383.059	16.692	1084.878	820.501
384.073	16.664	1084.310	819.863
385.088	16.657	1083.108	818.845
386.102	16.863	1082.132	819.031
387.117	16.697	1081.238	817.482
388.132	16.660	1080.279	816.505
389.146	16.580	1079.730	815.632
390.161	16.580	1079.332	815.260
391.175	16.588	1078.445	814.555
392.190	16.738	1077.795	814.712
393.205	16.674	1076.850	813.619
394.219	16.743	1076.175	813.371
395.234	16.731	1075.114	812.439
396.248	16.698	1074.249	811.553
397.263	16.800	1072.909	810.960
398.278	16.605	1072.597	809.718
399.292	16.599	1071.900	809.092
400.307	16.746	1071.140	809.150
401.321	16.691	1070.324	808.198
402.336	16.606	1070.088	807.543
403.350	16.749	1069.363	807.604
404.365	16.766	1068.346	806.849
405.380	16.770	1067.434	806.105
406.394	16.812	1066.508	805.535
407.409	16.885	1065.927	805.371
408.423	17.030	1065.444	805.626
409.438	16.932	1064.689	804.515
410.453	17.024	1064.382	804.651
411.467	17.006	1063.813	804.063
412.482	17.110	1062.419	803.432
413.496	17.033	1061.756	802.496
414.511	17.025	1061.463	802.165
415.526	17.120	1060.970	802.170
416.540	17.117	1060.621	801.818
417.555	17.270	1060.028	802.021
418.569	17.191	1059.664	801.303
419.584	17.307	1059.019	801.292
420.599	17.271	1058.229	800.452
421.613	96.429	1314.410	1433.454
422.628	88.923	1351.736	1433.566
