DTS Sentinel unit serial number:	SN413079Multiplexer serial number:	ORYXHardware model number:	OX4-SRSoftware version number:	ORYX F/W v4.00 Oryx Data Collector v3.7.2.0data status	okinstallation	princeton_trtdifferential loss correction	single-endedforward channel	channel 2reverse channel	N/Adate	2019/09/10time	23:01:11forward acquisition time	60.00reverse acquisition time	0.00gamma	496.2192k internal	0.2330k external	0.2330temperature offset calibration	0.9944default loss term (dB/km)	0.3790temperature slope calibration	1.0000multiplexer offset coefficient	1.0000multiplexer slope coefficient	1.0000fibre end	0.00T internal ref (°C)	30.03T ext. ref 1 (°C)	-0.31T ext. ref 2 (°C)	23.49length (m)	temperature (°C)	Stokes	anti-Stokes-747.200	-21.804	-0.245	-0.150
-746.185	229.800	-0.038	0.063
-745.171	800.000	0.093	0.302
-744.156	-165.585	-0.128	-0.006
-743.142	-167.012	-0.195	0.008
-742.127	472.185	-0.039	0.089
-741.112	-200.000	-0.021	-0.140
-740.098	23.812	-0.049	-0.041
-739.083	64.960	0.178	-0.181
-738.069	-144.137	-0.151	-0.014
-737.054	625.683	-0.108	0.273
-736.039	-32.769	-0.208	-0.117
-735.025	-200.000	-0.016	0.144
-734.010	-200.000	0.007	-0.191
-732.996	800.000	0.079	-0.342
-731.981	328.784	0.140	-0.272
-730.966	12.442	-0.183	0.142
-729.952	248.779	0.116	-0.197
-728.937	286.103	-0.157	0.285
-727.923	174.176	-0.119	-0.172
-726.908	130.171	0.120	-0.154
-725.894	-53.404	-0.249	-0.115
-724.879	-116.161	-0.325	0.061
-723.864	87.295	-0.140	0.155
-722.850	-30.730	0.184	0.105
-721.835	5.251	0.008	0.006
-720.821	800.000	-0.043	-0.152
-719.806	-11.143	-0.095	0.063
-718.791	-200.000	0.007	-0.199
-717.777	-174.012	-0.019	-0.001
-716.762	62.600	0.138	0.139
-715.748	-158.550	-0.112	-0.006
-714.733	-200.000	-0.043	-0.360
-713.718	-200.000	-0.007	0.057
-712.704	-103.699	0.137	-0.032
-711.689	-200.000	0.022	-0.124
-710.675	76.520	-0.124	0.132
-709.660	213.795	-0.104	-0.165
-708.645	187.628	0.182	-0.273
-707.631	-69.745	-0.067	-0.026
-706.616	-38.947	-0.091	-0.048
-705.602	57.494	0.270	0.266
-704.587	147.184	-0.249	0.337
-703.572	-178.955	-0.230	0.005
-702.558	173.160	0.182	-0.263
-701.543	344.466	0.005	-0.010
-700.529	29.483	-0.098	0.083
-699.514	-200.000	-0.094	-0.452
-698.499	172.569	0.089	0.129
-697.485	39.089	-0.316	0.284
-696.470	94.722	0.239	0.273
-695.456	-159.790	0.110	0.006
-694.441	5.942	-0.446	-0.332
-693.426	-149.923	-0.176	0.014
-692.412	193.766	-0.146	-0.223
-691.397	8.662	-0.076	-0.058
-690.383	294.253	-0.202	-0.371
-689.368	146.003	-0.098	-0.133
-688.354	599.365	-0.060	-0.150
-687.339	177.710	0.090	0.132
-686.324	-14.317	0.314	-0.203
-685.310	-126.179	0.296	0.045
-684.295	-58.271	-0.073	-0.032
-683.281	-93.566	0.195	-0.054
-682.266	-87.303	0.108	0.033
-681.251	-200.000	-0.010	-0.068
-680.237	98.324	0.173	0.200
-679.222	-94.178	-0.271	0.074
-678.208	-69.483	-0.170	-0.065
-677.193	-7.389	0.169	-0.115
-676.178	178.391	-0.086	0.126
-675.164	800.000	-0.028	-0.104
-674.149	-199.974	-0.148	0.001
-673.135	-148.738	0.402	0.033
-672.120	-200.000	0.001	-0.227
-671.105	-4.770	-0.270	-0.187
-670.091	-11.558	-0.180	-0.119
-669.076	-128.672	-0.209	-0.030
-668.062	10.452	0.113	0.087
-667.047	19.361	-0.148	-0.119
-666.032	112.135	-0.084	0.101
-665.018	-200.000	-0.004	-0.113
-664.003	-95.143	0.153	0.042
-662.989	7.019	0.099	0.074
-661.974	337.900	0.137	0.268
-660.959	-53.558	-0.124	-0.057
-659.945	13.620	0.208	-0.162
-658.930	800.000	-0.041	0.133
-657.916	-5.782	-0.128	0.088
-656.901	-200.000	-0.020	-0.102
-655.886	226.347	0.069	0.112
-654.872	353.268	-0.119	-0.237
-653.857	-74.878	0.145	0.052
-652.843	-63.481	0.206	0.085
-651.828	-35.023	-0.137	0.075
-650.814	-132.703	-0.062	-0.008
-649.799	199.768	0.063	-0.098
-648.784	-200.000	-0.032	-0.210
-647.770	122.621	0.104	-0.131
-646.755	416.579	-0.015	-0.033
-645.741	-76.671	0.100	0.035
-644.726	603.165	0.077	-0.192
-643.711	-66.499	0.384	-0.153
-642.697	133.266	0.083	0.108
-641.682	-118.305	0.142	0.025
-640.668	-200.000	-0.004	0.060
-639.653	88.683	0.037	-0.042
-638.638	-200.000	-0.008	0.089
-637.624	-200.000	-0.002	0.113
-636.609	-163.350	0.176	-0.008
-635.595	272.061	0.118	-0.208
-634.580	-119.414	-0.306	-0.053
-633.565	-60.020	-0.249	0.107
-632.551	562.418	-0.116	-0.281
-631.536	-132.319	0.179	0.023
-630.522	-200.000	0.013	-0.277
-629.507	-89.795	0.142	-0.042
-628.492	-150.162	-0.141	-0.011
-627.478	-140.812	-0.266	-0.027
-626.463	-200.000	0.008	-0.541
-625.449	-77.786	-0.164	0.057
-624.434	-200.000	-0.006	0.067
-623.419	-128.705	-0.265	-0.038
-622.405	800.000	-0.122	-0.347
-621.390	-105.939	-0.131	0.030
-620.376	676.770	-0.069	-0.179
-619.361	-27.194	0.506	0.295
-618.346	89.981	-0.116	-0.130
-617.332	-200.000	0.010	0.087
-616.317	-117.728	0.082	0.015
-615.303	106.111	0.252	0.298
-614.288	-40.925	0.213	-0.110
-613.273	692.944	0.051	-0.135
-612.259	-113.541	-0.241	-0.047
-611.244	-180.108	-0.196	-0.004
-610.230	-200.000	-0.054	-0.268
-609.215	296.832	0.026	-0.047
-608.201	800.000	0.048	0.155
-607.186	190.205	0.010	-0.015
-606.171	-100.644	-0.109	0.027
-605.157	271.812	-0.151	0.266
-604.142	23.582	-0.160	0.132
-603.128	100.340	-0.030	0.035
-602.113	35.393	-0.167	-0.147
-601.098	173.914	-0.065	0.094
-600.084	-12.696	0.075	0.049
-599.069	165.706	-0.067	-0.096
-598.055	104.377	0.091	-0.107
-597.040	-200.000	-0.009	-0.065
-596.025	-200.000	-0.018	0.241
-595.011	800.000	0.025	0.074
-593.996	34.764	-0.280	0.245
-592.982	249.371	-0.142	-0.241
-591.967	-3.889	-0.079	-0.055
-590.952	-200.000	-0.018	0.161
-589.938	-109.993	-0.175	-0.037
-588.923	-200.000	0.006	-0.271
-587.909	800.000	0.021	-0.069
-586.894	57.389	-0.141	-0.138
-585.879	-28.872	0.078	-0.045
-584.865	714.693	-0.074	0.195
-583.850	-200.000	0.025	0.135
-582.836	-135.831	0.065	-0.008
-581.821	58.806	-0.055	-0.054
-580.806	-106.398	-0.310	-0.069
-579.792	-36.325	0.188	0.101
-578.777	45.543	0.230	-0.212
-577.763	-110.543	-0.139	0.029
-576.748	493.643	-0.067	0.154
-575.733	800.000	0.140	-0.406
-574.719	-2.036	0.101	0.071
-573.704	-153.408	-0.179	-0.012
-572.690	31.406	0.107	0.091
-571.675	-141.019	0.085	-0.009
-570.661	-200.000	0.030	0.165
-569.646	526.574	-0.037	0.087
-568.631	-200.000	0.026	0.236
-567.617	-77.415	0.227	-0.079
-566.602	82.260	0.170	-0.184
-565.588	800.000	0.055	-0.163
-564.573	4.636	-0.206	0.151
-563.558	-200.000	-0.210	-0.001
-562.544	-13.363	0.165	0.107
-561.529	288.787	0.119	0.216
-560.515	-84.268	0.349	0.110
-559.500	-200.000	-0.001	-0.143
-558.485	-81.789	-0.092	0.030
-557.471	173.558	0.083	-0.120
-556.456	-163.601	-0.358	0.017
-555.442	-7.190	-0.180	0.122
-554.427	-3.948	0.050	-0.035
-553.412	-132.590	-0.065	-0.008
-552.398	-143.338	0.319	0.031
-551.383	125.586	0.194	0.245
-550.369	-133.403	-0.089	0.011
-549.354	800.000	0.076	0.260
-548.339	23.117	0.097	0.079
-547.325	-200.000	0.015	0.129
-546.310	784.966	0.035	-0.097
-545.296	-200.000	-0.042	0.306
-544.281	800.000	-0.057	-0.171
-543.266	-50.921	-0.267	0.125
-542.252	-97.249	-0.224	0.058
-541.237	-200.000	0.000	-0.002
-540.223	-200.000	0.009	0.138
-539.208	-35.262	-0.093	-0.051
-538.193	-69.457	0.257	-0.098
-537.179	-59.709	0.267	-0.114
-536.164	145.076	-0.113	-0.151
-535.150	43.235	0.215	0.196
-534.135	-200.000	0.046	0.254
-533.121	374.070	0.087	-0.177
-532.106	-123.971	-0.221	0.035
-531.091	161.174	0.217	-0.303
-530.077	201.243	-0.146	-0.224
-529.062	318.688	-0.104	0.196
-528.048	-33.861	0.084	0.046
-527.033	96.200	0.172	-0.196
-526.018	87.828	0.199	-0.221
-525.004	-83.759	-0.293	-0.093
-523.989	3.470	-0.183	-0.133
-522.975	673.140	-0.045	-0.117
-521.960	800.000	-0.061	0.201
-520.945	324.570	0.092	-0.175
-519.931	129.305	-0.137	0.174
-518.916	154.974	-0.017	0.023
-517.902	-85.700	0.303	-0.094
-516.887	-124.981	-0.332	-0.051
-515.872	171.533	0.207	-0.296
-514.858	275.039	0.144	-0.255
-513.843	-155.264	-0.206	-0.013
-512.829	-68.149	0.100	-0.039
-511.814	-157.631	-0.266	0.016
-510.799	-108.220	-0.060	0.013
-509.785	393.407	-0.038	-0.078
-508.770	103.544	-0.350	-0.409
-507.756	88.046	-0.197	0.218
-506.741	-119.992	-0.257	0.044
-505.726	-77.239	0.161	-0.056
-504.712	-67.645	-0.399	0.156
-503.697	-200.000	-0.022	-0.153
-502.683	-94.347	-0.092	0.025
-501.668	370.047	0.019	0.039
-500.653	800.000	-0.103	0.284
-499.639	-200.000	0.003	0.108
-498.624	-166.917	0.539	-0.022
-497.610	-8.324	0.328	0.220
-496.595	-88.044	-0.287	-0.086
-495.581	255.852	-0.153	-0.262
-494.566	614.441	-0.060	-0.149
-493.551	395.427	0.109	-0.227
-492.537	-42.059	0.076	0.039
-491.522	-19.710	0.164	0.101
-490.508	800.000	0.072	0.280
-489.493	88.005	-0.082	-0.090
-488.478	627.424	0.064	0.161
-487.464	282.124	-0.155	-0.277
-486.449	-162.587	0.283	-0.014
-485.435	168.902	0.166	-0.236
-484.420	800.000	0.040	0.165
-483.405	-56.779	-0.129	-0.057
-482.391	800.000	0.114	0.341
-481.376	290.841	0.054	-0.097
-480.362	-55.606	0.138	0.062
-479.347	-2.319	-0.208	0.145
-478.332	-200.000	-0.023	-0.160
-477.318	386.570	-0.104	-0.214
-476.303	287.798	-0.065	-0.117
-475.289	-165.563	-0.335	0.015
-474.274	15.875	-0.152	0.119
-473.259	800.000	-0.090	0.303
-472.245	168.567	-0.090	-0.127
-471.230	-72.970	0.393	0.144
-470.216	-200.000	-0.032	0.353
-469.201	-200.000	0.050	-0.263
-468.186	-200.000	0.030	-0.302
-467.172	-118.531	-0.122	-0.022
-466.157	-62.527	-0.038	0.016
-465.143	-200.000	-0.001	0.095
-464.128	-68.260	-0.103	0.040
-463.113	-148.732	0.345	0.028
-462.099	-76.023	0.391	0.138
-461.084	-70.364	-0.181	0.068
-460.070	242.117	-0.036	0.060
-459.055	-40.810	0.196	0.101
-458.040	-58.497	-0.259	0.112
-457.026	149.207	0.204	0.274
-456.011	-200.000	-0.054	0.241
-454.997	128.244	0.055	0.070
-453.982	800.000	-0.080	0.237
-452.968	2.514	0.281	0.202
-451.953	-106.722	-0.497	-0.110
-450.938	-200.000	0.009	-0.111
-449.924	-58.404	0.057	0.024
-448.909	-200.000	-0.001	0.243
-447.895	-73.915	0.067	0.024
-446.880	37.377	0.302	0.266
-445.865	268.253	-0.084	-0.147
-444.851	-200.000	0.007	-0.214
-443.836	800.000	0.048	-0.180
-442.822	-200.000	0.049	-0.396
-441.807	120.162	-0.133	-0.164
-440.792	-74.907	0.076	0.027
-439.778	87.956	-0.038	-0.042
-438.763	613.167	0.127	-0.317
-437.749	-134.400	-0.247	-0.030
-436.734	253.429	-0.023	0.039
-435.719	-37.216	-0.198	-0.105
-434.705	129.552	-0.246	0.313
-433.690	62.444	-0.223	0.222
-432.676	155.495	0.114	-0.157
-431.661	-2.631	0.112	-0.078
-430.646	-200.000	-0.046	-0.318
-429.632	-200.000	0.021	0.216
-428.617	800.000	0.070	-0.242
-427.603	410.187	0.119	0.251
-426.588	-200.000	-0.028	0.525
-425.573	800.000	0.073	0.238
-424.559	295.761	0.113	0.206
-423.544	-43.157	0.076	-0.038
-422.530	169.975	0.096	-0.136
-421.515	-112.029	0.518	-0.104
-420.500	228.564	0.184	-0.299
-419.486	33.676	0.125	-0.108
-418.471	-56.700	-0.331	-0.145
-417.457	-200.000	-0.003	0.295
-416.442	800.000	-0.013	-0.054
-415.428	-54.303	0.200	-0.090
-414.413	800.000	-0.093	-0.383
-413.398	-200.000	0.021	-0.111
-412.384	-97.605	-0.082	-0.021
-411.369	-200.000	0.020	0.244
-410.355	800.000	-0.071	0.210
-409.340	-80.268	-0.077	0.026
-408.325	-100.949	-0.394	0.096
-407.311	272.733	-0.103	-0.181
-406.296	-200.000	0.068	-0.382
-405.282	622.967	0.140	-0.350
-404.267	127.585	0.337	0.426
-403.252	316.243	0.066	0.124
-402.238	-131.225	-0.311	-0.041
-401.223	36.414	-0.156	-0.137
-400.209	800.000	-0.054	-0.230
-399.194	9.511	-0.060	0.045
-398.179	-200.000	-0.051	-0.331
-397.165	-200.000	-0.034	-0.152
-396.150	800.000	-0.023	0.068
-395.136	5.622	0.268	0.197
-394.121	-53.345	0.278	0.127
-393.106	112.915	0.032	0.038
-392.092	-25.308	0.168	0.099
-391.077	-37.706	0.322	-0.170
-390.063	-200.000	0.002	-0.388
-389.048	-130.620	-0.072	0.010
-388.033	-105.024	-0.132	0.030
-387.019	-169.964	-0.233	-0.008
-386.004	-119.512	-0.183	-0.031
-384.990	800.000	-0.057	0.181
-383.975	-200.000	0.056	0.280
-382.960	-25.961	0.133	0.078
-381.946	35.931	0.113	0.098
-380.931	800.000	-0.045	0.185
-379.917	141.550	0.148	-0.194
-378.902	-200.000	-0.000	-0.189
-377.888	-72.461	-0.156	0.057
-376.873	454.413	-0.103	0.227
-375.858	800.000	0.011	-0.040
-374.844	297.541	0.125	0.228
-373.829	199.175	0.185	0.282
-372.815	29.156	0.249	0.209
-371.800	85.670	0.186	-0.203
-370.785	-94.376	0.034	-0.009
-369.771	164.249	0.152	0.213
-368.756	-102.979	-0.257	0.061
-367.742	-200.000	-0.027	-0.164
-366.727	-200.000	0.004	-0.144
-365.712	162.783	0.127	-0.176
-364.698	-171.278	-0.152	0.005
-363.683	-11.280	-0.170	0.111
-362.669	120.915	0.305	-0.376
-361.654	-73.373	-0.415	-0.151
-360.639	-81.374	0.223	0.073
-359.625	385.521	-0.089	-0.181
-358.610	-50.294	0.184	-0.086
-357.596	-107.837	-0.212	-0.046
-356.581	322.293	-0.038	-0.071
-355.566	800.000	0.064	0.252
-354.552	8.356	0.174	-0.129
-353.537	-27.725	-0.288	0.166
-352.523	-102.712	0.275	-0.065
-351.508	800.000	-0.094	0.264
-350.493	800.000	-0.104	0.384
-349.479	-29.914	-0.166	-0.094
-348.464	-200.000	-0.011	-0.050
-347.450	-21.634	0.048	0.029
-346.435	-181.486	-0.351	-0.007
-345.420	-200.000	0.008	0.424
-344.406	-140.591	-0.143	-0.015
-343.391	-163.179	0.202	-0.010
-342.377	48.262	0.272	-0.252
-341.362	472.704	0.081	-0.182
-340.348	800.000	0.098	-0.283
-339.333	-18.454	0.347	0.215
-338.318	-200.000	0.060	0.282
-337.304	581.886	-0.014	-0.034
-336.289	-200.000	0.049	0.370
-335.275	800.000	-0.045	-0.181
-334.260	596.733	-0.108	-0.264
-333.245	96.600	-0.183	0.208
-332.231	-13.769	0.199	-0.128
-331.216	-87.167	0.361	-0.109
-330.202	-113.134	-0.280	0.055
-329.187	800.000	0.080	-0.277
-328.172	203.759	-0.041	-0.063
-327.158	-9.593	0.089	-0.059
-326.143	-200.000	0.008	-0.130
-325.129	-42.738	-0.104	0.052
-324.114	258.502	0.157	0.268
-323.099	-200.000	0.020	0.251
-322.085	-200.000	-0.039	0.227
-321.070	95.923	-0.162	-0.183
-320.056	33.044	0.205	-0.176
-319.041	-55.509	-0.225	-0.100
-318.026	-129.937	-0.164	-0.022
-317.012	-66.826	0.226	0.089
-315.997	414.531	-0.078	-0.164
-314.983	-70.540	-0.296	0.111
-313.968	52.688	-0.101	0.096
-312.953	-104.919	0.151	-0.034
-311.939	-75.849	0.181	0.063
-310.924	-147.232	-0.144	0.012
-309.910	-200.000	0.003	0.232
-308.895	68.444	0.080	-0.081
-307.880	137.252	-0.100	-0.130
-306.866	800.000	0.115	0.331
-305.851	17.606	0.278	-0.219
-304.837	5.525	-0.213	0.156
-303.822	-48.246	0.323	0.154
-302.807	581.486	0.050	-0.121
-301.793	-120.356	-0.269	0.045
-300.778	-200.000	-0.093	0.456
-299.764	138.712	-0.014	0.019
-298.749	-38.939	-0.120	0.063
-297.735	-98.402	-0.183	0.046
-296.720	-200.000	0.062	-0.333
-295.705	-61.631	0.109	0.045
-294.691	601.356	0.033	0.081
-293.676	17.513	-0.058	-0.046
-292.662	-65.648	0.288	-0.114
-291.647	7.644	-0.202	-0.150
-290.632	541.504	-0.112	0.264
-289.618	-129.304	0.249	0.034
-288.603	112.132	-0.050	-0.060
-287.589	248.975	0.093	-0.155
-286.574	-200.000	0.002	0.010
-285.559	529.523	0.156	0.363
-284.545	-123.966	0.567	0.088
-283.530	-22.103	-0.099	-0.059
-282.516	102.234	-0.058	0.066
-281.501	-200.000	-0.015	0.131
-280.486	40.632	-0.065	-0.058
-279.472	169.995	0.006	-0.009
-278.457	-82.646	0.193	0.062
-277.443	459.139	0.137	-0.301
-276.428	163.737	-0.165	-0.230
-275.413	-28.136	-0.264	-0.151
-274.399	399.543	0.087	-0.180
-273.384	261.072	-0.058	0.100
-272.370	-26.729	0.509	-0.294
-271.355	-97.009	0.272	0.070
-270.340	-0.093	-0.114	-0.081
-269.326	238.396	-0.035	0.058
-268.311	-13.151	-0.205	-0.131
-267.297	800.000	0.024	-0.078
-266.282	603.490	0.057	0.139
-265.267	-93.997	-0.179	-0.049
-264.253	19.178	-0.364	-0.288
-263.238	-200.000	0.041	-0.307
-262.224	-125.384	-0.077	-0.012
-261.209	379.416	0.013	-0.026
-260.195	-100.783	0.034	0.008
-259.180	-155.048	-0.161	0.010
-258.165	42.155	-0.140	0.125
-257.151	582.520	0.141	0.341
-256.136	-200.000	-0.016	-0.260
-255.122	-155.040	-0.276	-0.018
-254.107	128.048	0.031	-0.038
-253.092	46.764	-0.250	0.229
-252.078	70.732	-0.088	0.090
-251.063	98.771	0.129	0.147
-250.049	800.000	-0.041	0.174
-249.034	-115.505	0.404	0.075
-248.019	-74.264	0.421	-0.150
-247.005	-15.583	-0.025	0.016
-245.990	-101.005	-0.314	0.076
-244.976	56.275	-0.074	-0.071
-243.961	-81.047	0.348	-0.114
-242.946	50.319	-0.217	-0.203
-241.932	455.272	0.125	0.275
-240.917	-123.511	0.156	-0.024
-239.903	-112.576	-0.253	-0.050
-238.888	800.000	-0.084	0.320
-237.873	148.409	0.057	-0.077
-236.859	-29.414	0.290	-0.164
-235.844	11.025	-0.107	-0.081
-234.830	-52.270	0.291	-0.133
-233.815	-87.066	-0.276	-0.083
-232.800	-107.782	-0.341	-0.073
-231.786	-65.956	-0.116	-0.046
-230.771	-176.899	-0.037	0.001
-229.757	121.312	-0.062	0.076
-228.742	800.000	-0.081	0.234
-227.727	7.961	-0.241	0.178
-226.713	800.000	0.035	0.096
-225.698	516.822	0.080	0.184
-224.684	-200.000	0.007	0.255
-223.669	690.835	-0.117	0.301
-222.655	-23.057	0.160	0.095
-221.640	59.273	-0.295	0.286
-220.625	-71.244	0.099	0.037
-219.611	60.943	0.119	-0.116
-218.596	87.349	-0.390	-0.426
-217.582	800.000	0.050	-0.185
-216.567	-22.364	0.124	0.074
-215.552	-0.248	0.181	-0.127
-214.538	34.293	0.154	-0.132
-213.523	58.690	-0.178	-0.173
-212.509	-45.225	0.126	-0.062
-211.494	-143.803	-0.242	0.023
-210.479	-200.000	0.092	0.446
-209.465	-73.740	0.120	0.043
-208.450	76.701	-0.158	-0.165
-207.436	346.739	0.100	0.193
-206.421	246.656	-0.102	0.170
-205.406	135.659	-0.116	-0.149
-204.392	-44.723	0.209	0.103
-203.377	-72.534	0.138	0.050
-202.363	254.151	-0.136	0.229
-201.348	-61.646	-0.062	0.026
-200.333	-200.000	-0.031	0.271
-199.319	-163.796	0.337	-0.016
-198.304	432.756	-0.101	0.216
-197.290	-200.000	0.053	0.255
-196.275	-200.000	-0.055	-0.262
-195.260	317.521	-0.042	0.078
-194.246	12.882	0.238	0.181
-193.231	69.894	-0.056	-0.057
-192.217	-200.000	0.001	0.244
-191.202	190.437	-0.099	-0.146
-190.187	800.000	-0.090	-0.327
-189.173	195.589	-0.197	0.295
-188.158	-20.321	-0.170	0.103
-187.144	-116.437	0.183	-0.033
-186.129	800.000	0.096	-0.348
-185.114	164.435	-0.143	0.198
-184.100	414.335	0.158	0.332
-183.085	-143.461	-0.091	-0.009
-182.071	319.364	0.187	-0.350
-181.056	-200.000	0.019	0.272
-180.042	-200.000	0.021	-0.108
-179.027	671.815	-0.034	-0.087
-178.012	105.798	0.204	-0.238
-176.998	333.547	0.101	-0.193
-175.983	341.230	0.074	-0.142
-174.969	61.438	0.093	-0.091
-173.954	-77.953	-0.388	0.132
-172.939	800.000	-0.055	-0.183
-171.925	-57.264	-0.224	0.097
-170.910	800.000	-0.023	-0.063
-169.896	387.476	0.044	0.089
-168.881	-74.629	-0.306	0.108
-167.866	233.484	0.097	0.156
-166.852	-54.655	-0.042	0.019
-165.837	-102.333	0.198	0.047
-164.823	-200.000	-0.008	-0.116
-163.808	155.905	0.096	-0.130
-162.793	-11.416	-0.139	0.090
-161.779	50.250	-0.269	0.251
-160.764	-17.869	0.114	-0.071
-159.750	3.513	-0.147	0.105
-158.735	800.000	0.035	-0.102
-157.720	373.307	0.159	-0.317
-156.706	31.539	-0.118	0.100
-155.691	148.488	0.099	-0.132
-154.677	28.811	0.054	-0.045
-153.662	-200.000	0.031	-0.134
-152.647	2.930	0.021	0.015
-151.633	54.322	0.083	0.079
-150.618	-200.000	0.017	0.198
-149.604	-200.000	0.031	-0.135
-148.589	113.104	0.169	-0.202
-147.574	-102.270	-0.200	0.047
-146.560	298.185	-0.109	-0.196
-145.545	3.755	0.041	-0.029
-144.531	126.663	0.115	-0.144
-143.516	-63.952	0.077	0.031
-142.502	798.986	-0.051	0.139
-141.487	800.000	0.045	-0.124
-140.472	-65.802	-0.603	0.237
-139.458	-165.906	0.365	-0.015
-138.443	-113.567	-0.167	-0.032
-137.429	-14.302	0.319	0.202
-136.414	211.530	0.181	-0.280
-135.399	-200.000	-0.039	-0.286
-134.385	-200.000	0.051	0.221
-133.370	-71.880	-0.078	-0.028
-132.356	-200.000	-0.010	-0.271
-131.341	223.134	-0.077	-0.121
-130.326	-200.000	0.001	0.014
-129.312	800.000	-0.023	-0.063
-128.297	38.762	-0.204	0.179
-127.283	-139.682	0.276	-0.029
-126.268	158.875	-0.227	-0.309
-125.253	153.668	0.191	0.257
-124.239	-67.315	0.103	-0.040
-123.224	-50.910	-0.090	-0.041
-122.210	305.045	-0.132	0.241
-121.195	21.735	-0.132	-0.105
-120.180	-59.937	0.169	0.071
-119.166	214.042	-0.134	-0.208
-118.151	217.728	0.198	-0.310
-117.137	3.736	0.178	0.128
-116.122	704.304	0.052	-0.134
-115.107	-110.386	0.398	0.081
-114.093	-116.018	-0.320	0.059
-113.078	412.219	0.065	-0.136
-112.064	-66.504	0.089	-0.035
-111.049	47.284	-0.219	-0.201
-110.034	117.163	-0.169	0.203
-109.020	-77.481	-0.130	0.044
-108.005	5.339	-0.298	0.216
-106.991	25.802	0.344	0.281
-105.976	-18.736	0.261	0.160
-104.962	-200.000	0.003	0.143
-103.947	579.445	-0.121	0.290
-102.932	-200.000	0.037	-0.168
-101.918	39.158	0.279	0.245
-100.903	-200.000	0.028	-0.133
-99.889	27.753	0.289	-0.239
-98.874	223.838	0.194	0.307
-97.859	-119.638	-0.324	0.055
-96.845	105.816	0.149	0.173
-95.830	492.849	-0.129	0.290
-94.816	229.439	0.114	0.182
-93.801	3.270	0.093	0.066
-92.786	-82.408	-0.317	0.101
-91.772	-65.172	-0.187	-0.074
-90.757	40.636	0.252	-0.223
-89.743	-50.019	-0.144	-0.067
-88.728	-91.265	-0.238	0.067
-87.713	725.810	0.014	0.037
-86.699	54.934	0.082	-0.078
-85.684	67.269	0.166	0.166
-84.670	6.429	0.238	0.174
-83.655	8.502	0.288	0.213
-82.640	-48.978	0.270	0.127
-81.626	-6.627	-0.091	0.061
-80.611	-200.000	-0.039	0.285
-79.597	-44.811	-0.102	0.050
-78.582	140.889	0.154	0.200
-77.567	-64.518	0.371	-0.148
-76.553	-40.738	0.345	-0.175
-75.538	206.273	0.228	-0.348
-74.524	-108.163	0.374	-0.079
-73.509	-200.000	-0.041	0.308
-72.494	219.485	0.261	0.409
-71.480	-200.000	0.023	0.122
-70.465	-75.349	-0.171	-0.060
-69.451	-129.352	0.268	-0.036
-68.436	23.877	0.221	-0.179
-67.422	-17.227	-0.088	0.054
-66.407	-200.000	-0.007	-0.071
-65.392	-56.477	0.175	0.076
-64.378	13.896	-0.108	0.082
-63.363	268.844	0.165	-0.284
-62.349	-64.440	0.192	-0.076
-61.334	155.231	-0.787	-1.062
-60.319	56.212	0.657	0.626
-59.305	800.000	-0.229	-0.910
-58.290	93.377	0.995	1.103
-57.276	572.254	0.594	1.417
-56.261	-200.000	104.620	614.256
-55.246	517.218	1487.071	3408.212
-54.232	178.157	2689.190	3845.477
-53.217	106.698	2288.368	2660.750
-52.203	39.100	1896.602	1661.938
-51.188	33.174	1684.927	1431.694
-50.173	30.587	1641.241	1375.414
-49.159	49.083	1694.856	1559.921
-48.144	49.882	1709.778	1579.594
-47.130	32.918	1667.524	1414.765
-46.115	30.109	1653.184	1381.636
-45.100	30.007	1648.281	1376.730
-44.086	30.004	1645.872	1374.642
-43.071	29.899	1643.027	1371.429
-42.057	29.944	1639.977	1369.162
-41.042	30.057	1638.463	1368.678
-40.027	29.951	1636.717	1366.385
-39.013	29.858	1635.430	1364.571
-37.998	29.896	1633.126	1362.873
-36.984	29.999	1631.981	1362.620
-35.969	30.061	1630.504	1361.793
-34.954	30.035	1628.714	1360.053
-33.940	30.061	1626.868	1358.646
-32.925	30.022	1625.451	1357.119
-31.911	29.988	1623.517	1355.202
-30.896	30.026	1622.006	1354.168
-29.881	29.967	1620.357	1352.306
-28.867	29.986	1618.666	1350.977
-27.852	30.036	1617.364	1350.206
-26.838	29.997	1615.706	1348.484
-25.823	30.174	1614.140	1348.409
-24.809	30.038	1613.191	1346.573
-23.794	30.083	1611.876	1345.748
-22.779	30.080	1610.223	1344.297
-21.765	30.023	1608.810	1342.649
-20.750	29.978	1607.108	1340.849
-19.736	30.063	1605.419	1340.004
-18.721	30.112	1604.318	1339.387
-17.706	29.991	1602.676	1337.085
-16.692	29.980	1600.926	1335.491
-15.677	29.922	1600.483	1334.654
-14.663	30.027	1598.552	1333.748
-13.648	30.119	1596.764	1332.866
-12.633	30.057	1595.615	1331.404
-11.619	30.015	1594.295	1329.948
-10.604	30.061	1592.754	1328.939
-9.590	30.097	1591.218	1327.864
-8.575	30.176	1590.104	1327.445
-7.560	30.150	1588.699	1326.033
-6.546	30.149	1587.916	1325.321
-5.531	30.079	1587.116	1324.101
-4.517	30.106	1585.919	1323.243
-3.502	30.099	1584.578	1322.025
-2.487	30.118	1582.926	1320.731
-1.473	29.662	1571.515	1307.924
-0.458	26.756	1551.791	1271.118
0.556	20.865	1552.342	1238.873
1.571	18.682	1576.350	1242.139
2.586	18.313	1590.408	1250.412
3.600	16.474	1537.650	1195.829
4.615	8.714	1428.740	1059.838
5.629	1.230	1365.042	965.031
6.644	-0.149	1356.898	950.463
7.659	-0.309	1355.778	948.584
8.673	-0.353	1355.022	947.694
9.688	-0.418	1353.170	945.904
10.702	-0.628	1349.496	941.929
11.717	2.559	1355.228	965.968
12.731	11.533	1373.253	1035.861
13.746	18.983	1384.915	1092.049
14.761	20.632	1387.363	1104.362
15.775	20.840	1387.246	1105.487
16.790	20.939	1386.881	1105.728
17.804	20.957	1385.971	1105.021
18.819	21.291	1385.212	1106.431
19.834	21.197	1385.350	1105.847
20.848	21.390	1384.072	1105.952
21.863	21.241	1383.939	1104.805
22.877	21.280	1382.319	1103.659
23.892	21.279	1381.485	1102.893
24.907	21.368	1380.942	1102.919
25.921	21.283	1380.169	1101.667
26.936	21.443	1378.696	1101.402
27.950	21.223	1378.079	1099.428
28.965	21.285	1376.708	1098.625
29.980	21.367	1375.193	1097.835
30.994	21.325	1374.315	1096.776
32.009	21.384	1372.721	1095.772
33.023	21.277	1371.762	1094.242
34.038	21.218	1371.023	1093.185
35.053	21.213	1369.924	1092.181
36.067	21.293	1368.902	1091.769
37.082	21.319	1367.530	1090.740
38.096	21.345	1366.890	1090.298
39.111	21.226	1366.301	1088.990
40.126	21.348	1365.579	1089.077
41.140	21.278	1365.190	1088.237
42.155	21.336	1364.464	1087.923
43.169	21.342	1364.799	1088.128
44.184	21.375	1364.097	1087.677
45.199	21.200	1364.341	1086.688
46.213	21.371	1362.949	1086.550
47.228	21.290	1362.429	1085.532
48.242	21.334	1361.202	1084.729
49.257	21.282	1359.759	1083.162
50.271	21.319	1358.440	1082.243
51.286	21.301	1356.824	1080.752
52.301	21.304	1355.650	1079.740
53.315	21.219	1355.198	1078.759
54.330	21.367	1354.164	1078.752
55.344	21.354	1352.875	1077.550
56.359	21.258	1351.777	1075.988
57.374	21.338	1351.145	1075.886
58.388	21.346	1350.424	1075.265
59.403	21.283	1350.137	1074.552
60.417	21.313	1349.790	1074.364
61.432	21.373	1348.144	1073.332
62.447	21.319	1347.526	1072.411
63.461	21.293	1346.444	1071.295
64.476	21.333	1345.692	1070.850
65.490	21.239	1344.667	1069.363
66.505	21.371	1342.888	1068.659
67.520	21.333	1341.535	1067.259
68.534	21.365	1340.353	1066.418
69.549	21.325	1339.726	1065.581
70.563	21.403	1338.179	1064.733
71.578	21.371	1337.213	1063.672
72.593	21.283	1336.870	1062.772
73.607	21.345	1336.110	1062.450
74.622	21.343	1335.220	1061.635
75.636	21.333	1334.886	1061.213
76.651	21.245	1334.141	1059.995
77.666	21.274	1333.707	1059.733
78.680	21.449	1332.579	1059.800
79.695	21.360	1332.086	1058.780
80.709	21.319	1331.388	1057.881
81.724	21.302	1330.590	1057.048
82.739	21.308	1329.605	1056.207
83.753	21.320	1328.839	1055.580
84.768	21.324	1327.489	1054.440
85.782	21.365	1326.589	1053.881
86.797	21.319	1325.466	1052.614
87.812	21.411	1323.741	1051.704
88.826	21.377	1322.913	1050.753
89.841	21.372	1321.557	1049.549
90.855	21.413	1320.635	1048.969
91.870	21.364	1320.438	1048.432
92.884	21.374	1319.370	1047.548
93.899	21.453	1318.708	1047.401
94.914	21.327	1317.913	1045.923
95.928	21.503	1316.673	1045.900
96.943	21.432	1316.507	1045.254
97.957	21.434	1315.184	1044.120
98.972	21.343	1314.898	1043.260
99.987	21.340	1313.606	1042.123
101.001	21.373	1312.343	1041.226
102.016	21.428	1311.406	1040.718
103.030	21.385	1310.820	1039.901
104.045	21.314	1309.905	1038.665
105.060	21.470	1308.139	1038.099
106.074	21.432	1307.843	1037.542
107.089	21.458	1306.734	1036.725
108.103	21.443	1305.726	1035.748
109.118	21.408	1304.429	1034.423
110.133	21.478	1303.025	1033.631
111.147	21.478	1302.335	1032.990
112.162	21.518	1301.048	1032.112
113.176	21.478	1299.811	1030.807
114.191	21.560	1299.006	1030.559
115.206	21.422	1298.209	1029.021
116.220	21.453	1296.927	1028.100
117.235	21.525	1295.816	1027.551
118.249	21.476	1294.833	1026.389
119.264	21.502	1293.992	1025.788
120.279	21.473	1293.319	1024.995
121.293	21.499	1292.334	1024.275
122.308	21.475	1291.897	1023.698
123.322	21.477	1290.638	1022.621
124.337	21.520	1289.638	1021.986
125.352	21.543	1288.310	1020.980
126.366	21.479	1287.568	1019.927
127.381	21.591	1286.625	1019.745
128.395	21.574	1285.680	1018.804
129.410	21.591	1284.131	1017.586
130.424	21.556	1284.168	1017.323
131.439	21.478	1283.690	1016.399
132.454	21.440	1282.450	1015.108
133.468	21.517	1282.056	1015.155
134.483	21.450	1281.500	1014.235
135.497	21.593	1280.472	1014.156
136.512	21.492	1279.354	1012.601
137.527	21.541	1278.100	1011.798
138.541	21.362	1276.843	1009.683
139.556	21.478	1275.294	1009.038
140.570	21.407	1274.708	1008.072
141.585	21.434	1273.541	1007.216
142.600	21.440	1272.628	1006.441
143.614	21.485	1271.547	1005.756
144.629	21.439	1270.515	1004.589
145.643	21.487	1269.533	1003.996
146.658	21.345	1268.404	1002.201
147.673	21.354	1267.402	1001.374
148.687	21.410	1266.278	1000.715
149.702	21.463	1265.243	1000.112
150.716	21.419	1264.102	998.872
151.731	21.522	1263.556	998.942
152.746	21.533	1262.344	997.954
153.760	21.569	1260.971	996.989
154.775	21.632	1259.857	996.378
155.789	21.522	1259.230	995.169
156.804	21.502	1258.147	994.111
157.819	21.497	1257.813	993.727
158.833	21.553	1257.136	993.425
159.848	21.541	1256.068	992.427
160.862	21.547	1255.314	991.777
161.877	21.569	1254.717	991.341
162.892	21.579	1253.818	990.596
163.906	21.576	1252.789	989.683
164.921	21.455	1252.468	988.656
165.935	21.688	1251.172	988.859
166.950	21.617	1250.840	988.107
167.964	21.525	1250.755	987.434
168.979	21.678	1249.379	987.125
169.994	21.735	1249.113	987.147
171.008	21.713	1248.148	986.175
172.023	21.597	1247.553	984.962
173.037	21.803	1246.284	985.032
174.052	21.802	1245.706	984.481
175.067	21.760	1244.587	983.279
176.081	21.624	1244.500	982.359
177.096	21.586	1243.620	981.365
178.110	21.772	1242.289	981.268
179.125	21.600	1241.623	979.689
180.140	21.724	1240.498	979.411
181.154	21.685	1238.763	977.738
182.169	21.746	1238.083	977.452
183.183	21.702	1237.109	976.354
184.198	21.808	1236.533	976.405
185.213	21.861	1234.989	975.393
186.227	21.782	1234.468	974.452
187.242	21.702	1233.660	973.288
188.256	21.785	1232.680	972.890
189.271	21.770	1232.049	972.220
190.286	21.838	1231.068	971.738
191.300	21.682	1230.917	970.666
192.315	21.662	1230.779	970.361
193.329	21.792	1229.418	969.922
194.344	21.848	1228.975	969.794
195.359	21.745	1228.699	968.924
196.373	21.778	1228.037	968.498
197.388	21.667	1227.647	967.489
198.402	21.671	1227.483	967.301
199.417	21.772	1226.994	967.387
200.432	21.807	1225.867	966.602
201.446	21.665	1225.860	965.733
202.461	21.773	1224.683	965.313
203.475	21.809	1223.918	964.824
204.490	21.790	1222.824	963.771
205.504	21.797	1221.793	962.912
206.519	21.806	1221.200	962.406
207.534	21.766	1220.016	961.170
208.548	21.686	1219.377	960.142
209.563	21.740	1218.671	959.796
210.577	21.833	1217.896	959.613
211.592	21.760	1216.690	958.178
212.607	21.952	1215.807	958.446
213.621	21.990	1215.255	958.132
214.636	21.871	1214.556	956.849
215.650	22.012	1213.431	956.647
216.665	21.790	1213.139	955.122
217.680	21.801	1211.922	954.138
218.694	21.872	1211.211	953.881
219.709	21.964	1210.363	953.627
220.723	21.903	1209.984	952.915
221.738	21.812	1209.226	951.741
222.753	21.827	1208.236	950.958
223.767	21.767	1207.945	950.320
224.782	21.915	1207.720	950.859
225.796	21.978	1206.646	950.269
226.811	22.063	1205.790	949.972
227.826	21.947	1205.927	949.371
228.840	21.920	1204.919	948.343
229.855	21.922	1204.145	947.662
230.869	22.048	1203.296	947.591
231.884	22.007	1202.876	946.958
232.899	22.034	1201.809	946.174
233.913	22.051	1201.212	945.716
234.928	22.193	1201.018	946.244
235.942	22.079	1200.569	945.189
236.957	22.046	1199.787	944.314
237.972	22.006	1199.072	943.455
238.986	22.049	1198.583	943.216
240.001	22.056	1198.008	942.716
241.015	22.051	1197.111	941.901
242.030	22.209	1195.932	941.736
243.045	22.130	1195.715	941.060
244.059	22.154	1194.363	940.040
245.074	22.089	1194.006	939.331
246.088	22.092	1192.827	938.337
247.103	22.226	1191.965	938.289
248.117	22.152	1191.597	937.519
249.132	22.164	1190.981	937.018
250.147	22.180	1190.085	936.313
251.161	22.170	1189.476	935.702
252.176	22.157	1188.674	934.915
253.190	22.343	1187.942	935.246
254.205	22.244	1187.489	934.281
255.220	22.157	1187.102	933.430
256.234	22.303	1186.478	933.632
257.249	22.282	1185.767	932.881
258.263	22.244	1185.064	932.042
259.278	22.193	1184.895	931.560
260.293	22.218	1184.479	931.281
261.307	22.315	1183.688	931.089
262.322	22.228	1182.924	929.947
263.336	22.217	1182.517	929.484
264.351	22.194	1181.989	928.868
265.366	22.339	1181.332	929.037
266.380	22.365	1180.531	928.457
267.395	22.320	1179.738	927.518
268.409	22.258	1179.233	926.711
269.424	22.239	1178.756	926.151
270.439	22.173	1178.399	925.441
271.453	22.447	1176.863	925.598
272.468	22.334	1176.872	924.927
273.482	22.309	1175.907	923.957
274.497	22.351	1175.660	923.899
275.512	22.396	1174.774	923.358
276.526	22.359	1174.094	922.549
277.541	22.258	1173.733	921.655
278.555	22.411	1172.794	921.634
279.570	22.397	1172.012	920.865
280.585	22.377	1171.364	920.173
281.599	22.469	1170.215	919.666
282.614	22.291	1169.628	918.197
283.628	22.478	1168.505	918.211
284.643	22.492	1167.645	917.526
285.657	22.448	1167.251	916.907
286.672	22.352	1166.377	915.639
287.687	22.461	1165.524	915.453
288.701	22.554	1164.664	915.178
289.716	22.532	1164.204	914.624
290.730	22.531	1163.311	913.835
291.745	22.544	1162.948	913.536
292.760	22.475	1162.336	912.616
293.774	22.531	1161.960	912.531
294.789	22.603	1161.417	912.398
295.803	22.579	1160.617	911.564
296.818	22.457	1159.977	910.348
297.833	22.621	1159.538	910.771
298.847	22.552	1158.444	909.477
299.862	22.574	1157.656	908.892
300.876	22.744	1156.924	909.109
301.891	22.735	1156.469	908.625
302.906	22.718	1155.871	907.989
303.920	22.689	1155.303	907.312
304.935	22.610	1154.665	906.325
305.949	22.653	1153.959	905.914
306.964	22.738	1153.319	905.768
307.979	22.734	1152.630	905.124
308.993	22.758	1152.157	904.797
310.008	22.737	1151.348	903.972
311.022	22.724	1150.354	903.044
312.037	22.773	1149.553	902.589
313.052	22.723	1148.312	901.280
314.066	22.722	1148.146	901.064
315.081	22.651	1147.171	899.855
316.095	22.730	1146.613	899.740
317.110	22.737	1146.339	899.480
318.125	22.822	1145.296	899.016
319.139	22.653	1145.010	897.855
320.154	22.782	1144.579	898.091
321.168	22.721	1143.942	897.204
322.183	22.724	1143.049	896.438
323.197	22.727	1142.302	895.789
324.212	22.824	1142.031	895.991
325.227	22.711	1141.911	895.242
326.241	22.886	1141.199	895.492
327.256	22.899	1139.939	894.491
328.270	22.909	1139.040	893.759
329.285	22.955	1138.347	893.364
330.300	22.941	1137.435	892.499
331.314	22.854	1136.943	891.597
332.329	22.926	1136.045	891.176
333.343	22.922	1135.276	890.473
334.358	22.952	1134.476	889.916
335.373	23.061	1134.012	890.025
336.387	22.974	1132.780	888.539
337.402	22.963	1132.589	888.257
338.416	22.985	1131.889	887.740
339.431	23.016	1131.492	887.507
340.446	22.969	1130.959	886.774
341.460	23.103	1130.046	886.653
342.475	23.015	1129.326	885.569
343.489	23.078	1128.132	884.868
344.504	22.987	1127.574	883.899
345.519	23.061	1126.376	883.250
346.533	23.032	1126.115	882.821
347.548	23.162	1125.292	882.747
348.562	23.147	1124.436	881.924
349.577	23.056	1123.830	880.915
350.592	23.113	1123.257	880.671
351.606	22.930	1123.221	879.655
352.621	23.053	1121.940	879.188
353.635	23.115	1121.550	879.112
354.650	23.127	1120.987	878.652
355.665	23.236	1120.284	878.561
356.679	23.214	1119.548	877.798
357.694	23.173	1118.913	877.020
358.708	23.191	1118.243	876.506
359.723	23.137	1117.886	875.882
360.738	23.152	1116.545	874.827
361.752	23.235	1116.464	875.099
362.767	23.212	1115.930	874.487
363.781	23.194	1115.588	874.051
364.796	23.286	1114.657	873.702
365.810	23.194	1114.381	872.953
366.825	23.213	1113.759	872.482
367.840	23.349	1113.472	872.852
368.854	23.385	1112.577	872.248
369.869	23.254	1111.737	870.867
370.883	23.526	1110.702	871.317
371.898	23.380	1109.852	869.855
372.913	23.370	1109.706	869.615
373.927	23.385	1109.713	869.617
374.942	23.362	1108.598	868.553
375.956	23.482	1108.274	868.813
376.971	23.440	1107.782	868.146
377.986	23.382	1107.329	867.426
379.000	23.360	1106.678	866.736
380.015	23.490	1105.652	866.487
381.029	23.508	1105.376	866.282
382.044	23.443	1104.837	865.469
383.059	23.443	1104.287	864.959
384.073	23.494	1103.151	864.244
385.088	23.478	1102.304	863.423
386.102	23.569	1101.691	863.308
387.117	23.555	1100.343	862.112
388.132	23.436	1099.887	861.096
389.146	23.617	1098.958	861.170
390.161	23.473	1098.789	860.268
391.175	23.664	1097.841	860.372
392.190	23.633	1097.440	859.830
393.205	23.607	1096.386	858.804
394.219	23.510	1096.013	857.969
395.234	23.668	1095.069	857.914
396.248	23.647	1094.140	857.014
397.263	23.669	1092.967	856.121
398.278	23.641	1092.807	855.787
399.292	23.621	1092.207	855.144
400.307	23.659	1091.657	854.821
401.321	23.640	1091.130	854.240
402.336	23.557	1090.578	853.335
403.350	23.755	1089.517	853.381
404.365	23.724	1089.291	852.978
405.380	23.731	1088.128	852.027
406.394	23.806	1087.263	851.632
407.409	23.961	1086.584	851.769
408.423	23.824	1086.008	850.585
409.438	23.884	1085.304	850.245
410.453	23.808	1085.000	849.570
411.467	23.874	1083.816	848.882
412.482	23.923	1082.656	848.132
413.496	23.867	1082.314	847.520
414.511	23.882	1082.066	847.324
415.526	23.899	1081.476	846.870
416.540	23.805	1081.424	846.302
417.555	23.914	1080.680	846.164
418.569	23.905	1079.935	845.466
419.584	24.025	1079.493	845.614
420.599	23.847	1079.473	844.679
421.613	149.139	1400.395	1798.787
422.628	137.709	1447.117	1798.860
