DTS Sentinel unit serial number:	SN413079Multiplexer serial number:	ORYXHardware model number:	OX4-SRSoftware version number:	ORYX F/W v4.00 Oryx Data Collector v3.7.2.0data status	okinstallation	princeton_trtdifferential loss correction	single-endedforward channel	channel 2reverse channel	N/Adate	2019/09/15time	04:43:35forward acquisition time	60.00reverse acquisition time	0.00gamma	496.2192k internal	0.2326k external	0.2326temperature offset calibration	1.0033default loss term (dB/km)	0.3790temperature slope calibration	1.0000multiplexer offset coefficient	1.0000multiplexer slope coefficient	1.0000fibre end	0.00T internal ref (°C)	30.80T ext. ref 1 (°C)	4.73T ext. ref 2 (°C)	25.35length (m)	temperature (°C)	Stokes	anti-Stokes-747.200	44.227	-0.119	0.110
-746.185	66.470	0.198	0.204
-745.171	-200.000	-0.029	0.283
-744.156	-86.254	-0.174	0.054
-743.142	-52.404	0.051	0.024
-742.127	-140.453	0.533	0.056
-741.112	9.467	-0.248	-0.189
-740.098	-44.938	0.293	0.147
-739.083	69.949	-0.277	0.288
-738.069	-120.697	0.216	0.037
-737.054	-145.870	-0.396	0.035
-736.039	-93.762	-0.164	-0.045
-735.025	127.258	-0.047	0.060
-734.010	25.977	0.059	-0.050
-732.996	-102.737	-0.098	0.024
-731.981	-200.000	0.006	0.121
-730.966	-31.373	-0.175	-0.099
-729.952	498.091	-0.102	-0.237
-728.937	-200.000	-0.057	-0.258
-727.923	-145.288	0.083	-0.008
-726.908	302.051	-0.087	-0.162
-725.894	113.425	-0.237	0.290
-724.879	-91.198	-0.380	-0.110
-723.864	433.833	-0.162	-0.355
-722.850	-107.315	-0.099	0.022
-721.835	-200.000	-0.039	-0.428
-720.821	21.118	-0.065	-0.053
-719.806	-130.587	0.197	-0.027
-718.791	48.375	0.172	0.162
-717.777	-36.637	0.258	0.140
-716.762	-1.334	0.157	-0.112
-715.748	-76.228	-0.263	-0.093
-714.733	-56.528	-0.364	-0.162
-713.718	-2.972	0.226	-0.159
-712.704	-32.871	0.241	-0.135
-711.689	449.709	-0.099	-0.221
-710.675	-151.732	-0.154	-0.011
-709.660	-200.000	0.054	-0.285
-708.645	59.965	-0.077	0.077
-707.631	-200.000	-0.008	0.338
-706.616	-7.594	-0.392	-0.267
-705.602	-200.000	0.076	0.386
-704.587	350.753	-0.126	-0.252
-703.572	-70.933	-0.081	-0.031
-702.558	800.000	0.034	-0.110
-701.543	-18.808	-0.338	-0.212
-700.529	18.768	-0.115	-0.093
-699.514	-10.165	-0.274	0.183
-698.499	-27.433	-0.158	-0.092
-697.485	143.821	0.254	-0.341
-696.470	426.656	0.058	-0.126
-695.456	0.071	-0.126	-0.091
-694.441	19.999	-0.141	-0.115
-693.426	39.293	-0.291	-0.262
-692.412	331.250	-0.067	-0.130
-691.397	-34.956	0.329	-0.180
-690.383	-77.136	-0.221	-0.077
-689.368	88.383	-0.028	-0.031
-688.354	337.720	-0.094	0.184
-687.339	147.853	0.022	-0.030
-686.324	-200.000	-0.009	-0.129
-685.310	100.219	0.230	0.269
-684.295	122.256	-0.202	0.254
-683.281	800.000	-0.047	0.174
-682.266	-4.974	-0.272	0.188
-681.251	-34.659	0.031	-0.017
-680.237	-95.132	-0.076	-0.021
-679.222	-114.681	0.063	0.012
-678.208	-200.000	-0.011	0.386
-677.193	-45.517	-0.009	-0.004
-676.178	428.196	0.084	-0.183
-675.164	-110.808	0.025	0.005
-674.149	800.000	-0.040	0.156
-673.135	55.958	0.252	0.246
-672.120	517.029	-0.073	0.171
-671.105	-200.000	0.003	-0.108
-670.091	-105.951	0.356	-0.081
-669.076	568.283	0.125	-0.306
-668.062	-113.377	-0.077	-0.015
-667.047	-200.000	-0.020	0.221
-666.032	-200.000	-0.041	0.321
-665.018	517.824	0.039	-0.092
-664.003	-95.481	-0.125	-0.034
-662.989	-9.716	0.255	0.171
-661.974	800.000	-0.046	-0.195
-660.959	-46.943	-0.179	-0.088
-659.945	234.098	-0.112	-0.186
-658.930	42.459	0.164	-0.150
-657.916	25.324	0.313	-0.261
-656.901	-200.000	-0.011	-0.098
-655.886	-127.897	0.140	0.020
-654.872	-105.526	0.065	-0.015
-653.857	-24.110	-0.250	0.150
-652.843	-1.437	0.170	0.121
-651.828	652.929	-0.131	0.336
-650.814	196.840	-0.189	0.290
-649.799	-200.000	0.012	-0.160
-648.784	-107.283	-0.218	0.048
-647.770	406.995	0.034	-0.072
-646.755	254.395	-0.055	-0.095
-645.741	-146.975	0.124	0.011
-644.726	-148.033	-0.120	-0.010
-643.711	800.000	-0.037	-0.142
-642.697	-177.091	-0.179	0.004
-641.682	-200.000	-0.009	0.171
-640.668	-200.000	-0.015	-0.223
-639.653	-40.473	0.114	0.059
-638.638	-72.243	0.110	0.041
-637.624	31.480	-0.092	0.079
-636.609	-161.326	-0.096	-0.005
-635.595	-129.013	-0.196	-0.028
-634.580	517.017	0.036	0.085
-633.565	800.000	-0.029	0.112
-632.551	170.483	0.146	-0.211
-631.536	-21.425	0.138	-0.085
-630.522	-200.000	0.029	-0.296
-629.507	-169.123	-0.418	-0.016
-628.492	205.563	-0.161	0.251
-627.478	-105.937	0.126	0.029
-626.463	-200.000	0.011	0.096
-625.449	735.823	0.038	-0.102
-624.434	-200.000	0.057	0.279
-623.419	97.966	0.209	0.241
-622.405	-138.995	0.322	0.035
-621.390	-85.078	-0.052	-0.016
-620.376	800.000	0.017	-0.056
-619.361	290.381	-0.063	0.115
-618.346	151.374	0.052	-0.070
-617.332	-19.783	-0.278	-0.173
-616.317	269.363	-0.224	-0.394
-615.303	-135.848	0.211	0.025
-614.288	-108.118	-0.172	-0.037
-613.273	-153.994	-0.137	0.009
-612.259	61.419	0.110	-0.110
-611.244	-76.955	0.420	-0.147
-610.230	8.982	0.061	0.046
-609.215	131.937	-0.054	-0.069
-608.201	55.075	0.107	0.104
-607.186	-190.287	-0.577	0.006
-606.171	97.777	-0.090	0.103
-605.157	-31.702	0.092	0.052
-604.142	489.002	-0.051	0.116
-603.128	121.931	-0.198	0.248
-602.113	35.274	-0.186	0.164
-601.098	-36.047	0.152	0.082
-600.084	-200.000	-0.020	0.097
-599.069	-200.000	0.026	-0.174
-598.055	592.126	-0.042	0.105
-597.040	491.476	-0.067	-0.153
-596.025	16.522	0.178	0.141
-595.011	-200.000	0.014	0.135
-593.996	348.766	-0.137	0.270
-592.982	-53.067	0.139	-0.064
-591.967	576.521	-0.112	0.274
-590.952	14.962	-0.139	-0.109
-589.938	52.102	-0.297	0.284
-588.923	94.334	0.151	-0.171
-587.909	-63.369	-0.043	-0.018
-586.894	-116.210	0.208	0.039
-585.879	93.250	-0.146	0.166
-584.865	146.098	0.279	0.376
-583.850	-68.659	-0.174	-0.068
-582.836	-81.831	0.245	-0.081
-581.821	42.124	-0.260	-0.237
-580.806	28.269	-0.206	0.175
-579.792	628.820	0.073	0.185
-578.777	24.441	-0.174	-0.144
-577.763	-49.589	0.475	0.227
-576.748	-46.880	-0.247	0.121
-575.733	503.663	0.083	0.192
-574.719	-50.249	-0.114	-0.054
-573.704	-130.964	0.335	0.045
-572.690	94.423	-0.122	0.139
-571.675	-141.047	0.146	0.015
-570.661	-28.320	-0.162	-0.093
-569.646	-149.193	-0.260	0.021
-568.631	-131.876	-0.388	-0.051
-567.617	312.097	0.126	-0.237
-566.602	-200.000	0.002	0.034
-565.588	60.076	0.217	-0.215
-564.573	-200.000	-0.021	0.140
-563.558	-45.704	0.199	0.099
-562.544	83.193	-0.137	0.149
-561.529	-200.000	0.026	-0.226
-560.515	757.687	-0.163	-0.442
-559.500	83.026	-0.063	0.068
-558.485	-19.735	-0.234	-0.145
-557.471	800.000	0.037	-0.113
-556.456	-200.000	-0.036	-0.183
-555.442	85.189	0.220	0.241
-554.427	-93.625	-0.337	-0.093
-553.412	193.670	-0.110	-0.166
-552.398	5.336	-0.357	-0.263
-551.383	-120.880	-0.298	0.050
-550.369	4.744	-0.092	0.067
-549.354	-55.646	-0.211	0.095
-548.339	-118.942	0.351	-0.062
-547.325	800.000	-0.121	-0.335
-546.310	-53.509	-0.049	0.022
-545.296	631.460	-0.100	0.254
-544.281	263.272	-0.131	-0.228
-543.266	-200.000	0.081	0.395
-542.252	-140.931	0.082	-0.008
-541.237	-4.963	0.235	-0.162
-540.223	-200.000	-0.030	-0.189
-539.208	-200.000	0.025	0.121
-538.193	66.842	0.114	0.116
-537.179	-50.819	-0.192	-0.090
-536.164	-200.000	-0.009	-0.252
-535.150	15.271	0.135	-0.106
-534.135	-44.180	-0.129	0.065
-533.121	-200.000	0.027	-0.354
-532.106	-200.000	-0.074	0.338
-531.091	-97.448	-0.191	-0.050
-530.077	-88.730	-0.445	-0.132
-529.062	-36.053	-0.168	-0.091
-528.048	27.623	-0.247	-0.208
-527.033	455.322	0.106	-0.234
-526.018	39.278	-0.285	0.255
-525.004	-200.000	0.032	0.430
-523.989	-51.703	0.189	-0.088
-522.975	-6.028	-0.183	-0.125
-521.960	800.000	-0.023	-0.097
-520.945	-97.836	-0.120	-0.031
-519.931	278.808	-0.095	0.169
-518.916	800.000	0.065	-0.220
-517.902	71.821	0.189	0.196
-516.887	-69.535	0.188	-0.072
-515.872	-69.979	-0.430	-0.164
-514.858	800.000	0.066	-0.213
-513.843	-126.217	-0.182	-0.027
-512.829	-200.000	-0.001	-0.088
-511.814	-25.706	0.207	0.122
-510.799	800.000	0.076	0.221
-509.785	800.000	-0.034	-0.112
-508.770	-105.799	-0.180	0.041
-507.756	14.201	0.230	-0.179
-506.741	-50.376	0.138	-0.065
-505.726	126.468	-0.240	0.303
-504.712	-126.905	0.345	0.051
-503.697	-66.731	0.220	-0.087
-502.683	-200.000	0.007	-0.189
-501.668	-186.049	0.264	-0.004
-500.653	222.637	-0.091	-0.146
-499.639	-150.604	0.457	-0.035
-498.624	-49.730	0.088	0.042
-497.610	-200.000	-0.045	0.255
-496.595	565.289	0.065	-0.157
-495.581	-73.150	-0.260	0.095
-494.566	-161.873	-0.341	0.017
-493.551	356.918	-0.047	-0.093
-492.537	-144.909	0.091	0.008
-491.522	-200.000	-0.004	0.029
-490.508	107.009	0.194	0.230
-489.493	-200.000	0.001	-0.191
-488.478	585.258	0.025	-0.062
-487.464	109.007	-0.131	0.156
-486.449	10.822	-0.082	-0.062
-485.435	-180.388	-0.065	-0.001
-484.420	-5.733	-0.059	0.040
-483.405	18.385	0.317	-0.253
-482.391	-78.284	0.328	-0.113
-481.376	800.000	-0.038	0.108
-480.362	131.790	-0.220	-0.282
-479.347	-72.830	0.115	0.042
-478.332	-48.077	0.050	0.024
-477.318	283.336	-0.092	-0.164
-476.303	-200.000	0.043	-0.261
-475.289	-200.000	-0.033	-0.371
-474.274	-135.765	0.125	-0.015
-473.259	-200.000	-0.010	0.088
-472.245	800.000	0.104	0.338
-471.230	59.995	0.271	0.267
-470.216	-33.086	-0.293	-0.162
-469.201	-35.088	0.206	-0.112
-468.186	-33.732	0.223	-0.123
-467.172	800.000	0.085	-0.280
-466.157	-85.567	0.181	-0.056
-465.143	-18.838	-0.084	0.052
-464.128	123.679	0.286	0.358
-463.113	-200.000	0.040	0.475
-462.099	-82.277	0.128	-0.042
-461.084	-68.941	0.220	0.085
-460.070	-200.000	-0.012	-0.068
-459.055	442.198	-0.143	-0.312
-458.040	-125.160	-0.291	-0.044
-457.026	-200.000	-0.022	0.100
-456.011	158.319	-0.222	-0.307
-454.997	8.508	-0.243	-0.183
-453.982	-200.000	-0.008	0.082
-452.968	-87.491	0.198	-0.060
-451.953	53.394	0.155	0.149
-450.938	-116.055	0.256	0.047
-449.924	-73.983	0.249	-0.090
-448.909	-74.611	-0.343	0.123
-447.895	252.019	-0.175	0.298
-446.880	60.020	0.234	-0.230
-445.865	-111.207	0.143	0.029
-444.851	-148.470	-0.165	0.013
-443.836	77.681	0.185	0.196
-442.822	-200.000	-0.012	0.075
-441.807	365.305	0.126	0.252
-440.792	-74.759	0.449	-0.161
-439.778	-53.453	-0.070	0.032
-438.763	67.430	-0.126	-0.128
-437.749	257.676	0.069	0.118
-436.734	22.169	-0.182	-0.148
-435.719	-32.380	0.178	0.099
-434.705	-156.410	0.302	0.019
-433.690	-53.890	0.136	0.062
-432.676	-200.000	0.040	0.269
-431.661	79.235	0.044	0.046
-430.646	421.728	-0.084	-0.180
-429.632	-85.494	-0.578	0.179
-428.617	37.624	0.288	0.254
-427.603	800.000	0.017	0.074
-426.588	800.000	-0.057	-0.217
-425.573	-3.689	0.188	0.130
-424.559	-34.168	-0.278	0.152
-423.544	-112.955	0.213	-0.042
-422.530	-0.129	0.254	-0.180
-421.515	-153.930	-0.228	0.015
-420.500	3.197	-0.097	0.070
-419.486	191.728	-0.086	0.129
-418.471	144.372	0.101	-0.134
-417.457	-48.759	0.077	-0.037
-416.442	-200.000	-0.070	-0.308
-415.428	800.000	-0.073	0.291
-414.413	-200.000	-0.013	0.249
-413.398	17.771	-0.110	-0.087
-412.384	419.728	0.132	0.281
-411.369	524.332	0.153	0.357
-410.355	-33.537	0.023	0.012
-409.340	800.000	-0.071	-0.210
-408.325	115.599	0.067	-0.081
-407.311	-200.000	-0.005	-0.144
-406.296	25.987	0.104	-0.087
-405.282	80.062	-0.063	0.067
-404.267	-17.546	-0.532	0.333
-403.252	77.237	-0.210	-0.222
-402.238	-80.032	-0.243	-0.081
-401.223	-80.436	0.133	-0.044
-400.209	-62.421	0.253	-0.105
-399.194	-200.000	-0.002	-0.156
-398.179	445.847	-0.061	0.134
-397.165	800.000	0.100	0.320
-396.150	-24.032	0.139	0.082
-395.136	800.000	-0.043	-0.180
-394.121	-200.000	0.021	0.242
-393.106	208.831	-0.067	-0.105
-392.092	-135.322	-0.123	0.015
-391.077	-97.620	-0.172	-0.044
-390.063	48.857	-0.057	0.053
-389.048	197.659	0.132	-0.201
-388.033	103.659	-0.069	-0.081
-387.019	375.272	-0.060	0.121
-386.004	-200.000	0.010	-0.265
-384.990	-200.000	-0.020	0.210
-383.975	162.191	-0.101	0.141
-382.960	74.994	-0.056	-0.059
-381.946	17.254	0.187	-0.147
-380.931	167.965	-0.271	0.384
-379.917	-102.035	-0.145	-0.035
-378.902	-84.683	-0.131	0.041
-377.888	-47.055	-0.213	-0.103
-376.873	-13.486	0.260	-0.167
-375.858	-14.395	0.299	-0.192
-374.844	5.077	-0.055	0.040
-373.829	127.334	-0.105	-0.132
-372.815	50.423	-0.146	0.137
-371.800	-29.773	0.147	0.084
-370.785	-158.548	0.157	-0.009
-369.771	-153.957	-0.396	0.027
-368.756	-137.125	0.216	0.025
-367.742	30.499	-0.195	0.166
-366.727	-167.129	0.124	-0.005
-365.712	-180.653	-0.094	0.002
-364.698	117.198	0.134	-0.163
-363.683	-64.350	0.253	0.102
-362.669	-28.399	0.119	0.068
-361.654	-81.766	-0.390	-0.127
-360.639	-31.247	0.184	0.103
-359.625	88.102	-0.072	-0.079
-358.610	-200.000	0.012	-0.203
-357.596	-15.286	-0.116	-0.074
-356.581	800.000	-0.093	0.260
-355.566	-105.934	0.541	-0.121
-354.552	-200.000	0.054	0.239
-353.537	-69.646	0.407	-0.155
-352.523	269.726	-0.029	0.051
-351.508	-86.152	0.162	-0.050
-350.493	-41.573	0.140	-0.071
-349.479	136.110	0.147	-0.191
-348.464	800.000	-0.015	-0.046
-347.450	-99.320	0.130	-0.033
-346.435	105.918	-0.224	-0.263
-345.420	-200.000	0.058	0.334
-344.406	-14.728	-0.140	-0.090
-343.391	166.753	0.219	-0.309
-342.377	10.083	0.079	-0.060
-341.362	346.099	0.156	0.304
-340.348	-200.000	-0.052	-0.457
-339.333	-200.000	-0.001	0.109
-338.318	3.961	-0.090	-0.066
-337.304	107.606	-0.017	0.020
-336.289	-91.658	-0.313	-0.088
-335.275	-74.863	-0.431	-0.154
-334.260	-200.000	-0.005	0.129
-333.245	33.922	-0.089	0.077
-332.231	80.607	-0.184	-0.196
-331.216	800.000	-0.123	0.357
-330.202	-71.892	-0.072	0.026
-329.187	-200.000	-0.187	0.000
-328.172	-101.622	0.144	0.035
-327.158	-156.257	-0.069	0.004
-326.143	33.260	0.066	0.057
-325.129	24.672	0.087	0.071
-324.114	800.000	0.037	0.139
-323.099	-52.174	-0.178	-0.082
-322.085	229.429	0.070	-0.114
-321.070	385.115	-0.075	0.153
-320.056	-96.190	0.231	-0.061
-319.041	-78.321	0.224	0.076
-318.026	-17.727	0.129	0.080
-317.012	-200.000	-0.004	-0.349
-315.997	56.693	-0.319	0.308
-314.983	-104.183	-0.160	0.037
-313.968	-134.577	-0.090	0.011
-312.953	-200.000	-0.060	-0.420
-311.939	44.503	0.119	0.108
-310.924	506.657	0.097	0.223
-309.910	-136.824	0.322	-0.037
-308.895	-40.226	-0.238	-0.123
-307.880	674.655	-0.088	0.226
-306.866	433.397	0.167	-0.360
-305.851	-200.000	-0.014	-0.290
-304.837	-122.014	0.125	-0.020
-303.822	83.283	0.146	-0.157
-302.807	110.926	0.168	-0.201
-301.793	298.376	-0.112	0.205
-300.778	-79.064	0.308	0.104
-299.764	579.092	-0.099	-0.241
-298.749	-200.000	0.007	-0.208
-297.735	-69.559	0.262	0.099
-296.720	-3.863	-0.109	0.075
-295.705	238.701	0.151	-0.249
-294.691	283.505	0.131	0.234
-293.676	-103.345	-0.088	-0.021
-292.662	222.456	0.090	0.143
-291.647	800.000	-0.065	-0.200
-290.632	424.208	-0.139	-0.297
-289.618	175.605	-0.153	0.220
-288.603	-49.644	0.190	-0.090
-287.589	67.953	-0.161	0.163
-286.574	-200.000	0.020	0.312
-285.559	270.574	0.023	0.041
-284.545	800.000	-0.120	0.389
-283.530	271.328	0.068	0.119
-282.516	-125.480	-0.107	0.016
-281.501	-3.566	-0.178	-0.123
-280.486	800.000	-0.097	0.417
-279.472	800.000	0.052	-0.159
-278.457	-18.425	-0.263	-0.163
-277.443	800.000	0.092	-0.260
-276.428	-200.000	0.002	0.036
-275.413	696.360	-0.084	0.219
-274.399	-79.602	-0.253	0.085
-273.384	163.300	0.169	-0.236
-272.370	-200.000	0.075	-0.333
-271.355	800.000	0.089	-0.246
-270.340	-136.957	-0.101	-0.011
-269.326	-48.682	-0.192	-0.091
-268.311	-200.000	0.036	0.301
-267.297	-200.000	-0.009	0.196
-266.282	-200.000	0.003	0.244
-265.267	33.761	0.110	-0.094
-264.253	7.054	0.564	0.417
-263.238	74.574	-0.065	-0.068
-262.224	800.000	0.005	0.015
-261.209	-105.368	-0.151	-0.034
-260.195	-200.000	-0.058	-0.333
-259.180	-75.974	0.099	0.035
-258.165	-200.000	-0.007	0.391
-257.151	-200.000	-0.029	-0.366
-256.136	406.632	-0.152	0.318
-255.122	-178.936	0.088	0.002
-254.107	-6.679	0.063	0.042
-253.092	389.587	-0.094	0.193
-252.078	800.000	-0.051	-0.204
-251.063	-49.576	0.125	0.059
-250.049	728.860	-0.018	0.048
-249.034	-19.674	0.228	0.139
-248.019	-186.481	0.209	0.003
-247.005	65.575	0.212	-0.212
-245.990	-168.797	-0.239	-0.009
-244.976	724.238	-0.064	0.170
-243.961	-147.280	0.291	-0.024
-242.946	192.818	0.135	-0.201
-241.932	-200.000	-0.033	0.182
-240.917	800.000	0.071	-0.255
-239.903	-93.257	-0.329	-0.090
-238.888	-200.000	0.013	-0.177
-237.873	171.656	0.163	0.231
-236.859	-88.506	-0.270	-0.080
-235.844	-114.835	0.293	-0.055
-234.830	-104.016	0.251	0.058
-233.815	54.729	0.015	0.014
-232.800	-61.130	-0.124	-0.052
-231.786	-200.000	-0.013	0.227
-230.771	7.828	0.232	0.172
-229.757	-85.410	-0.172	0.053
-228.742	-200.000	-0.008	0.308
-227.727	-133.718	0.071	0.009
-226.713	-177.656	-0.165	-0.004
-225.698	-200.000	-0.001	-0.109
-224.684	-200.000	-0.010	-0.073
-223.669	-38.647	0.238	0.124
-222.655	-101.653	-0.561	-0.134
-221.640	-147.549	0.093	-0.008
-220.625	-200.000	-0.001	0.147
-219.611	-27.233	-0.273	-0.157
-218.596	-164.303	-0.323	-0.015
-217.582	-144.560	0.378	0.035
-216.567	-200.000	-0.046	0.340
-215.552	800.000	-0.030	0.126
-214.538	253.716	0.123	0.208
-213.523	136.742	0.093	-0.120
-212.509	797.490	0.030	0.083
-211.494	334.725	-0.271	0.518
-210.479	800.000	0.098	0.342
-209.465	-88.647	0.418	0.123
-208.450	-200.000	0.027	-0.123
-207.436	-200.000	0.038	0.359
-206.421	-200.000	-0.009	-0.177
-205.406	197.377	0.208	-0.314
-204.392	0.401	-0.211	0.149
-203.377	81.517	0.082	0.087
-202.363	-96.482	0.142	-0.037
-201.348	-53.998	0.189	0.085
-200.333	-122.069	0.106	0.017
-199.319	-200.000	-0.034	-0.217
-198.304	128.494	0.180	-0.226
-197.290	800.000	-0.025	-0.076
-196.275	-134.868	-0.267	0.032
-195.260	499.683	0.134	-0.306
-194.246	184.400	0.097	0.143
-193.231	-64.713	-0.368	0.147
-192.217	-26.691	-0.006	0.003
-191.202	-113.797	0.509	-0.098
-190.187	-66.722	-0.158	0.062
-189.173	57.410	0.252	-0.243
-188.158	-200.000	0.012	-0.215
-187.144	-176.702	0.289	-0.007
-186.129	-200.000	0.029	-0.188
-185.114	-129.330	0.272	0.037
-184.100	-54.473	0.112	-0.050
-183.085	-200.000	0.055	-0.266
-182.071	-200.000	0.040	0.296
-181.056	205.199	0.121	0.185
-180.042	-200.000	0.024	0.162
-179.027	-200.000	-0.019	0.124
-178.012	800.000	0.018	-0.066
-176.998	-47.540	-0.058	-0.028
-175.983	263.666	-0.164	-0.281
-174.969	586.357	0.073	-0.177
-173.954	774.770	-0.042	-0.113
-172.939	375.882	0.035	0.070
-171.925	-200.000	-0.010	-0.075
-170.910	41.878	-0.209	0.187
-169.896	-0.884	0.117	0.082
-168.881	99.583	-0.112	-0.128
-167.866	-10.580	0.114	-0.074
-166.852	74.714	-0.266	-0.276
-165.837	-49.668	0.254	0.119
-164.823	-129.266	-0.512	-0.070
-163.808	-172.843	0.124	-0.004
-162.793	12.443	0.397	0.302
-161.779	14.271	0.124	0.095
-160.764	188.770	-0.044	0.065
-159.750	152.899	-0.152	0.205
-158.735	-152.339	-0.259	0.018
-157.720	-149.646	-0.336	0.026
-156.706	155.882	-0.021	-0.028
-155.691	-200.000	-0.003	-0.372
-154.677	70.546	0.188	-0.192
-153.662	26.966	-0.305	-0.252
-152.647	-94.244	0.151	0.041
-151.633	-118.732	-0.161	-0.028
-150.618	-109.980	0.014	0.003
-149.604	-134.237	0.255	-0.031
-148.589	30.340	0.186	-0.156
-147.574	-90.059	-0.140	0.040
-146.560	120.116	0.081	-0.099
-145.545	-200.000	0.042	-0.235
-144.531	71.881	-0.213	0.218
-143.516	256.039	-0.099	0.167
-142.502	121.977	-0.175	0.216
-141.487	-31.514	0.228	-0.126
-140.472	-200.000	-0.001	-0.015
-139.458	-69.012	-0.264	0.100
-138.443	-162.659	0.177	0.009
-137.429	-59.664	0.115	-0.049
-136.414	530.103	0.041	-0.095
-135.399	199.003	-0.126	0.190
-134.385	-25.377	0.128	-0.075
-133.370	-5.195	-0.248	-0.168
-132.356	-102.871	-0.231	-0.054
-131.341	-200.000	0.024	-0.106
-130.326	-78.783	-0.139	0.047
-129.312	-85.086	0.185	0.057
-128.297	-133.617	-0.276	-0.034
-127.283	-200.000	-0.002	0.120
-126.268	132.100	-0.075	0.095
-125.253	-67.628	0.583	0.225
-124.239	-200.000	0.011	0.131
-123.224	-200.000	0.003	-0.027
-122.210	157.685	0.124	-0.169
-121.195	-136.521	0.354	0.040
-120.180	183.780	-0.231	0.337
-119.166	-87.026	0.212	0.064
-118.151	-200.000	-0.041	0.291
-117.137	471.766	-0.083	0.185
-116.122	-124.063	0.143	-0.022
-115.107	54.481	0.095	0.090
-114.093	234.816	0.135	0.219
-113.078	82.853	-0.236	-0.253
-112.064	57.146	-0.135	0.129
-111.049	-35.468	0.073	-0.039
-110.034	-200.000	-0.008	0.334
-109.020	800.000	-0.128	-0.361
-108.005	800.000	-0.084	-0.325
-106.991	-165.913	0.233	0.010
-105.976	-85.710	0.359	-0.110
-104.962	722.049	-0.067	0.175
-103.947	-191.607	0.210	0.002
-102.932	43.469	0.183	-0.165
-101.918	3.420	0.228	0.164
-100.903	35.586	0.154	-0.133
-99.889	-15.455	-0.129	0.081
-98.874	237.488	0.140	0.229
-97.859	-147.584	-0.211	0.017
-96.845	49.310	0.263	0.243
-95.830	-133.100	-0.213	0.027
-94.816	-65.765	0.200	-0.079
-93.801	-70.207	-0.539	0.201
-92.786	259.727	-0.097	0.164
-91.772	-132.833	0.310	-0.039
-90.757	-7.655	-0.170	-0.113
-89.743	108.163	0.131	0.154
-88.728	-100.642	0.195	-0.047
-87.713	800.000	0.025	0.076
-86.699	-85.640	-0.184	0.056
-85.684	800.000	0.096	-0.321
-84.670	-43.714	0.127	-0.063
-83.655	220.461	0.075	0.119
-82.640	506.772	0.018	-0.041
-81.626	-36.682	-0.175	0.092
-80.611	-48.998	-0.028	-0.013
-79.597	-200.000	-0.050	0.247
-78.582	-77.754	0.135	0.046
-77.567	-9.606	-0.290	-0.190
-76.553	128.474	0.044	-0.056
-75.538	-76.053	0.193	0.067
-74.524	100.577	-0.164	-0.187
-73.509	-111.756	-0.219	-0.044
-72.494	-70.007	-0.126	0.047
-71.480	-80.000	-0.067	0.022
-70.465	327.415	-0.185	0.349
-69.451	183.500	-0.247	0.358
-68.436	76.513	0.080	-0.083
-67.422	182.139	0.142	-0.206
-66.407	171.236	-0.140	0.197
-65.392	-200.000	-0.070	-0.392
-64.378	4.515	0.286	0.206
-63.363	-25.642	0.214	0.124
-62.349	187.851	0.217	0.318
-61.334	79.366	-0.849	-0.894
-60.319	76.435	0.547	0.570
-59.305	-200.000	-0.191	-1.207
-58.290	126.471	0.879	1.093
-57.276	800.000	0.505	1.618
-56.261	-200.000	102.360	592.885
-55.246	560.796	1427.446	3386.960
-54.232	187.538	2624.175	3844.606
-53.217	110.106	2279.707	2686.641
-52.203	40.109	1896.562	1673.544
-51.188	33.948	1686.031	1441.176
-50.173	31.350	1642.171	1384.410
-49.159	49.236	1692.980	1562.231
-48.144	50.725	1708.861	1588.023
-47.130	33.669	1667.393	1422.924
-46.115	30.992	1652.779	1390.461
-45.100	30.711	1648.475	1384.690
-44.086	30.668	1645.865	1382.127
-43.071	30.586	1643.514	1379.486
-42.057	30.652	1640.872	1377.707
-41.042	30.703	1638.585	1376.107
-40.027	30.732	1636.408	1374.441
-39.013	30.628	1635.087	1372.509
-37.998	30.610	1633.965	1371.380
-36.984	30.763	1632.214	1370.982
-35.969	30.789	1630.761	1369.898
-34.954	30.826	1629.242	1368.839
-33.940	30.733	1627.685	1366.796
-32.925	30.739	1626.204	1365.536
-31.911	30.759	1624.179	1363.930
-30.896	30.895	1622.102	1363.128
-29.881	30.818	1620.592	1361.242
-28.867	30.760	1618.991	1359.424
-27.852	30.748	1617.484	1358.014
-26.838	30.813	1616.043	1357.227
-25.823	30.802	1614.276	1355.609
-24.809	30.875	1613.142	1355.134
-23.794	30.871	1612.050	1354.130
-22.779	30.689	1611.033	1351.899
-21.765	30.824	1608.766	1350.924
-20.750	30.880	1607.026	1349.818
-19.736	30.854	1606.386	1349.038
-18.721	30.854	1604.763	1347.622
-17.706	30.841	1602.996	1345.989
-16.692	30.814	1601.416	1344.412
-15.677	30.771	1599.974	1342.839
-14.663	30.853	1598.434	1342.086
-13.648	30.818	1597.784	1341.230
-12.633	30.837	1595.516	1339.413
-11.619	30.800	1594.475	1338.222
-10.604	30.836	1592.976	1337.167
-9.590	30.802	1591.710	1335.804
-8.575	30.917	1589.870	1335.030
-7.560	30.773	1589.450	1333.596
-6.546	30.880	1588.050	1333.138
-5.531	30.860	1587.207	1332.228
-4.517	30.939	1585.652	1331.437
-3.502	30.815	1585.347	1330.246
-2.487	30.858	1583.273	1328.757
-1.473	30.573	1571.183	1316.543
-0.458	27.704	1552.241	1280.511
0.556	23.481	1553.058	1249.179
1.571	21.196	1576.474	1251.544
2.586	20.755	1589.338	1258.457
3.600	18.540	1535.840	1200.497
4.615	11.396	1430.234	1071.116
5.629	5.628	1369.004	988.838
6.644	4.852	1362.009	978.819
7.659	4.725	1360.493	976.851
8.673	4.640	1359.777	975.712
9.688	4.714	1357.959	974.787
10.702	4.616	1354.894	971.890
11.717	7.360	1360.145	992.765
12.731	14.241	1372.176	1044.790
13.746	18.784	1379.524	1078.896
14.761	18.675	1378.322	1077.172
15.775	17.811	1375.677	1069.600
16.790	16.604	1373.146	1059.974
17.804	15.922	1370.442	1053.532
18.819	15.397	1369.627	1049.529
19.834	15.332	1368.000	1047.786
20.848	15.004	1366.958	1044.841
21.863	14.678	1365.851	1041.873
22.877	14.650	1364.480	1040.561
23.892	14.545	1363.595	1039.138
24.907	14.542	1362.833	1038.444
25.921	14.683	1361.595	1038.290
26.936	14.646	1360.752	1037.324
27.950	14.722	1359.770	1036.955
28.965	14.819	1358.886	1036.789
29.980	14.926	1357.759	1036.505
30.994	14.862	1356.873	1035.341
32.009	14.914	1355.689	1034.667
33.023	14.959	1354.393	1033.864
34.038	14.832	1352.924	1031.863
35.053	14.777	1351.956	1030.699
36.067	14.817	1350.836	1030.000
37.082	14.841	1349.844	1029.298
38.096	14.834	1349.292	1028.742
39.111	14.863	1348.160	1027.966
40.126	14.847	1347.284	1027.108
41.140	14.648	1346.522	1025.216
42.155	14.593	1345.969	1024.370
43.169	14.609	1345.697	1024.166
44.184	14.539	1345.078	1023.176
45.199	14.516	1344.985	1022.873
46.213	14.603	1344.631	1023.049
47.228	14.742	1343.437	1022.901
48.242	14.703	1342.335	1021.732
49.257	14.659	1340.950	1020.316
50.271	14.772	1339.384	1019.724
51.286	14.667	1338.104	1018.019
52.301	14.716	1336.932	1017.341
53.315	14.707	1335.526	1016.125
54.330	14.682	1334.456	1015.069
55.344	14.616	1333.356	1013.741
56.359	14.555	1332.506	1012.632
57.374	14.470	1332.049	1011.682
58.388	14.438	1330.879	1010.510
59.403	14.388	1330.787	1010.046
60.417	14.469	1329.442	1009.425
61.432	14.439	1328.965	1008.793
62.447	14.412	1328.113	1007.894
63.461	14.532	1326.182	1007.065
64.476	14.510	1325.391	1006.241
65.490	14.332	1324.771	1004.607
66.505	14.435	1322.591	1003.490
67.520	14.345	1321.625	1002.123
68.534	14.414	1320.842	1001.856
69.549	14.439	1319.766	1001.104
70.563	14.401	1318.635	999.929
71.578	14.397	1317.273	998.781
72.593	14.265	1316.446	997.279
73.607	14.304	1315.814	996.943
74.622	14.294	1314.937	996.131
75.636	14.383	1313.842	995.746
76.651	14.340	1313.767	995.340
77.666	14.319	1313.209	994.709
78.680	14.335	1312.882	994.463
79.695	14.353	1312.037	993.846
80.709	14.477	1310.914	993.649
81.724	14.526	1310.195	993.305
82.739	14.526	1309.874	992.975
83.753	14.660	1308.963	992.995
84.768	14.688	1307.977	992.321
85.782	14.738	1306.930	991.736
86.797	14.764	1305.580	990.782
87.812	14.692	1304.237	989.243
88.826	14.676	1303.493	988.500
89.841	14.734	1302.120	987.715
90.855	14.666	1301.691	986.898
91.870	14.805	1300.260	986.550
92.884	14.870	1299.245	986.076
93.899	14.787	1298.821	985.173
94.914	14.851	1298.092	984.914
95.928	14.900	1296.976	984.268
96.943	14.855	1296.219	983.338
97.957	14.850	1295.213	982.459
98.972	14.847	1294.156	981.555
99.987	14.860	1293.290	980.886
101.001	14.740	1291.884	979.029
102.016	14.731	1291.580	978.659
103.030	14.873	1290.002	978.209
104.045	14.786	1289.239	977.033
105.060	14.722	1288.275	975.842
106.074	14.637	1286.550	973.955
107.089	14.403	1285.307	971.564
108.103	14.395	1284.235	970.624
109.118	14.482	1282.600	969.807
110.133	14.486	1281.600	968.989
111.147	14.523	1280.340	968.164
112.162	14.516	1279.578	967.459
113.176	14.624	1277.742	966.612
114.191	14.582	1277.328	965.971
115.206	14.671	1275.884	965.306
116.220	14.644	1274.683	964.158
117.235	14.575	1273.767	962.980
118.249	14.623	1272.512	962.227
119.264	14.541	1271.363	960.798
120.279	14.593	1270.176	960.118
121.293	14.490	1269.372	958.831
122.308	14.422	1268.974	958.056
123.322	14.447	1267.493	956.996
124.337	14.394	1266.472	955.834
125.352	14.420	1265.420	955.106
126.366	14.486	1264.030	954.349
127.381	14.400	1263.331	953.249
128.395	14.547	1262.132	953.096
129.410	14.457	1261.506	952.029
130.424	14.520	1260.366	951.439
131.439	14.661	1259.115	951.214
132.454	14.593	1258.670	950.408
133.468	14.597	1257.778	949.674
134.483	14.657	1256.772	949.171
135.497	14.608	1255.743	948.030
136.512	14.531	1254.934	946.897
137.527	14.761	1253.526	947.059
138.541	14.666	1251.861	945.177
139.556	14.664	1250.732	944.233
140.570	14.747	1249.901	943.987
141.585	14.742	1248.721	942.987
142.600	14.768	1248.032	942.529
143.614	14.866	1246.911	942.149
144.629	14.919	1245.741	941.483
145.643	14.926	1244.886	940.791
146.658	14.800	1243.423	938.898
147.673	14.789	1241.697	937.448
148.687	14.700	1240.944	936.296
149.702	14.603	1239.767	934.783
150.716	14.674	1237.977	933.749
151.731	14.743	1236.960	933.284
152.746	14.689	1236.425	932.494
153.760	14.764	1234.758	931.573
154.775	14.715	1234.027	930.665
155.789	14.728	1233.457	930.226
156.804	14.906	1231.696	929.806
157.819	14.962	1230.681	929.269
158.833	14.941	1229.961	928.527
159.848	15.004	1228.947	928.029
160.862	14.949	1228.046	926.964
161.877	14.925	1227.001	925.956
162.892	14.803	1226.072	924.502
163.906	14.812	1225.140	923.768
164.921	14.760	1224.235	922.715
165.935	14.771	1223.530	922.164
166.950	14.923	1222.067	921.813
167.964	14.851	1221.639	921.014
168.979	14.912	1221.043	920.818
169.994	14.886	1220.081	919.869
171.008	14.835	1219.455	919.038
172.023	15.014	1218.432	919.165
173.037	15.022	1217.941	918.760
174.052	15.122	1216.904	918.444
175.067	14.927	1215.705	916.387
176.081	14.856	1214.736	915.189
177.096	14.883	1214.351	914.963
178.110	14.953	1212.328	913.741
179.125	14.942	1211.644	913.086
180.140	14.969	1210.194	912.062
181.154	14.943	1209.256	911.133
182.169	14.965	1208.197	910.371
183.183	15.124	1206.889	910.170
184.198	15.161	1206.032	909.645
185.213	15.091	1204.885	908.319
186.227	15.129	1203.605	907.479
187.242	15.189	1202.903	907.196
188.256	15.223	1201.770	906.444
189.271	15.370	1200.791	906.422
190.286	15.030	1200.051	903.946
191.300	14.967	1198.630	902.454
192.315	14.824	1198.464	901.476
193.329	14.884	1197.666	901.124
194.344	14.990	1196.677	900.867
195.359	15.002	1196.212	900.501
196.373	15.205	1196.104	901.436
197.388	15.139	1196.000	900.919
198.402	15.305	1195.234	901.159
199.417	15.396	1194.493	901.006
200.432	15.410	1193.772	900.461
201.446	15.448	1192.890	899.919
202.461	15.494	1192.451	899.751
203.475	15.446	1191.162	898.444
204.490	15.476	1189.901	897.574
205.504	15.377	1188.307	895.763
206.519	15.391	1187.064	894.823
207.534	15.314	1186.208	893.689
208.548	15.360	1185.307	893.173
209.563	15.241	1184.580	891.914
210.577	15.426	1183.585	892.067
211.592	15.371	1183.306	891.490
212.607	15.512	1182.047	891.211
213.621	15.456	1181.474	890.402
214.636	15.437	1180.587	889.551
215.650	15.543	1179.363	889.116
216.665	15.601	1178.170	888.443
217.680	15.693	1177.524	888.365
218.694	15.629	1177.011	887.560
219.709	15.561	1176.371	886.637
220.723	15.582	1175.714	886.176
221.738	15.563	1174.917	885.396
222.753	15.667	1173.656	884.914
223.767	15.701	1173.030	884.545
224.782	15.771	1172.548	884.469
225.796	15.785	1171.839	883.930
226.811	15.832	1171.128	883.563
227.826	15.781	1170.657	882.861
228.840	15.660	1170.002	881.657
229.855	15.640	1169.196	880.866
230.869	15.717	1167.995	880.287
231.884	15.619	1167.690	879.466
232.899	15.619	1166.710	878.650
233.913	15.659	1165.807	878.100
234.928	15.584	1165.255	877.216
235.942	15.513	1164.771	876.405
236.957	15.635	1163.824	876.249
237.972	15.645	1162.934	875.554
238.986	15.797	1162.512	875.951
240.001	15.641	1161.599	874.372
241.015	15.719	1160.946	874.212
242.030	15.692	1160.073	873.333
243.045	15.795	1159.351	873.249
244.059	15.795	1158.710	872.686
245.074	15.882	1157.787	872.367
246.088	15.892	1157.158	871.868
247.103	15.858	1156.380	871.027
248.117	15.964	1155.380	870.744
249.132	16.078	1154.879	870.881
250.147	16.145	1154.270	870.687
251.161	16.325	1153.192	870.730
252.176	16.187	1153.284	870.010
253.190	16.210	1152.456	869.425
254.205	16.368	1151.737	869.617
255.220	16.455	1151.127	869.529
256.234	16.287	1150.693	868.261
257.249	16.345	1149.736	867.760
258.263	16.344	1149.168	867.248
259.278	16.246	1148.858	866.433
260.293	16.350	1148.008	866.249
261.307	16.363	1147.171	865.608
262.322	16.453	1146.400	865.411
263.336	16.487	1145.735	865.007
264.351	16.497	1145.011	864.434
265.366	16.520	1144.578	864.149
266.380	16.480	1143.800	863.279
267.395	16.539	1142.766	862.726
268.409	16.471	1142.113	861.808
269.424	16.446	1141.273	860.969
270.439	16.477	1141.006	860.854
271.453	16.518	1140.160	860.347
272.468	16.334	1139.197	858.606
273.482	16.313	1138.780	858.111
274.497	16.470	1137.824	858.112
275.512	16.354	1137.538	857.231
276.526	16.446	1136.471	856.820
277.541	16.478	1135.626	856.265
278.555	16.444	1135.316	855.786
279.570	16.545	1134.593	855.675
280.585	16.629	1133.582	855.264
281.599	16.708	1132.326	854.637
282.614	16.521	1131.839	853.250
283.628	16.563	1130.067	852.051
284.643	16.569	1129.515	851.590
285.657	16.652	1128.628	851.261
286.672	16.630	1128.247	850.792
287.687	16.582	1127.058	849.577
288.701	16.560	1126.521	848.989
289.716	16.672	1125.460	848.672
290.730	16.682	1125.064	848.350
291.745	16.652	1124.137	847.424
292.760	16.714	1123.543	847.212
293.774	16.723	1123.120	846.864
294.789	16.768	1122.949	846.887
295.803	16.762	1121.893	845.985
296.818	16.786	1120.934	845.303
297.833	16.760	1120.304	844.626
298.847	16.724	1119.634	843.867
299.862	16.788	1118.670	843.384
300.876	16.724	1118.392	842.781
301.891	16.830	1117.447	842.523
302.906	16.928	1116.889	842.516
303.920	16.960	1116.281	842.137
304.935	17.089	1115.200	841.890
305.949	17.166	1114.452	841.630
306.964	17.099	1114.264	841.083
307.979	16.992	1113.551	839.939
308.993	16.996	1112.391	839.012
310.008	17.088	1111.927	839.043
311.022	17.123	1111.086	838.507
312.037	17.136	1110.380	837.962
313.052	17.175	1108.813	836.899
314.066	17.074	1108.142	835.820
315.081	16.889	1107.652	834.468
316.095	16.922	1106.464	833.661
317.110	16.911	1106.315	833.421
318.125	16.893	1105.685	832.783
319.139	16.886	1104.954	832.123
320.154	17.031	1104.235	832.220
321.168	16.891	1103.849	831.169
322.183	16.921	1103.229	830.774
323.197	16.896	1103.191	830.551
324.212	17.110	1102.037	830.656
325.227	17.116	1100.897	829.753
326.241	17.020	1100.771	829.115
327.256	17.131	1099.749	828.815
328.270	17.016	1099.010	827.622
329.285	16.945	1098.297	826.666
330.300	17.115	1096.860	826.340
331.314	16.904	1096.522	824.986
332.329	17.168	1095.261	825.246
333.343	17.146	1094.875	824.778
334.358	17.209	1093.901	824.276
335.373	17.091	1093.609	823.409
336.387	17.163	1092.269	822.674
337.402	17.150	1091.729	822.136
338.416	17.291	1091.222	822.364
339.431	17.275	1090.570	821.722
340.446	17.487	1089.779	822.074
341.460	17.469	1089.150	821.439
342.475	17.504	1088.074	820.727
343.489	17.690	1086.808	820.592
344.504	17.579	1086.172	819.505
345.519	17.537	1085.611	818.808
346.533	17.637	1085.177	818.889
347.548	17.599	1084.157	817.866
348.562	17.681	1083.621	817.779
349.577	17.504	1082.765	816.214
350.592	17.560	1081.964	815.808
351.606	17.444	1081.050	814.489
352.621	17.447	1080.255	813.833
353.635	17.388	1079.816	813.148
354.650	17.468	1078.963	812.816
355.665	17.504	1078.206	812.349
356.679	17.535	1077.942	812.225
357.694	17.610	1077.297	812.021
358.708	17.632	1076.685	811.594
359.723	17.632	1075.791	810.847
360.738	17.692	1074.872	810.370
361.752	17.624	1074.395	809.614
362.767	17.749	1073.879	809.751
363.781	17.710	1073.486	809.197
364.796	17.759	1072.829	808.863
365.810	17.739	1072.421	808.387
366.825	17.975	1071.878	809.024
367.840	17.919	1071.343	808.283
368.854	17.831	1070.823	807.405
369.869	17.966	1069.886	807.265
370.883	17.891	1069.073	806.224
371.898	18.028	1067.826	805.859
372.913	18.015	1067.481	805.468
373.927	17.911	1067.511	804.928
374.942	18.001	1066.570	804.569
375.956	17.914	1066.272	803.865
376.971	17.966	1065.456	803.421
377.986	17.990	1065.134	803.221
379.000	18.131	1064.214	803.121
380.015	18.303	1063.463	803.287
381.029	18.269	1063.161	802.830
382.044	18.121	1062.811	801.802
383.059	18.302	1061.734	801.766
384.073	18.184	1061.267	800.789
385.088	18.202	1060.197	799.996
386.102	18.268	1058.961	799.302
387.117	18.101	1058.640	798.207
388.132	18.109	1057.565	797.362
389.146	18.050	1056.760	796.413
390.161	17.970	1056.350	795.660
391.175	18.075	1055.086	795.126
392.190	18.180	1054.383	795.012
393.205	18.287	1053.629	794.869
394.219	18.251	1052.934	794.111
395.234	18.269	1052.135	793.519
396.248	18.229	1050.807	792.261
397.263	18.202	1049.715	791.246
398.278	18.168	1049.428	790.799
399.292	18.092	1048.812	789.918
400.307	18.000	1048.513	789.194
401.321	18.185	1047.335	789.093
402.336	18.160	1046.755	788.470
403.350	18.090	1046.252	787.699
404.365	18.238	1045.204	787.522
405.380	18.308	1044.230	787.040
406.394	18.180	1044.091	786.279
407.409	18.340	1043.345	786.383
408.423	18.398	1042.622	786.033
409.438	18.496	1041.914	785.876
410.453	18.423	1041.313	785.020
411.467	18.596	1040.328	785.000
412.482	18.601	1039.722	784.499
413.496	18.575	1039.258	783.958
414.511	18.573	1038.820	783.548
415.526	18.699	1037.966	783.412
416.540	18.757	1037.772	783.460
417.555	18.651	1037.378	782.608
418.569	18.694	1036.746	782.259
419.584	18.707	1035.827	781.559
420.599	18.753	1035.516	781.464
421.613	150.994	1401.976	1797.364
422.628	137.909	1455.370	1797.448
