DTS Sentinel unit serial number:	SN413079Multiplexer serial number:	ORYXHardware model number:	OX4-SRSoftware version number:	ORYX F/W v4.00 Oryx Data Collector v3.7.2.0data status	okinstallation	princeton_trtdifferential loss correction	single-endedforward channel	channel 2reverse channel	N/Adate	2019/09/18time	22:15:35forward acquisition time	60.00reverse acquisition time	0.00gamma	496.2192k internal	0.2349k external	0.2349temperature offset calibration	1.0018default loss term (dB/km)	0.3790temperature slope calibration	1.0000multiplexer offset coefficient	1.0000multiplexer slope coefficient	1.0000fibre end	0.00T internal ref (°C)	24.37T ext. ref 1 (°C)	0.80T ext. ref 2 (°C)	18.18length (m)	temperature (°C)	Stokes	anti-Stokes-747.200	-111.839	0.383	-0.077
-746.185	-200.000	0.009	-0.078
-745.171	-200.000	-0.040	-0.303
-744.156	35.828	-0.257	-0.226
-743.142	-200.000	-0.062	-0.369
-742.127	-200.000	-0.080	0.351
-741.112	-200.000	-0.013	-0.101
-740.098	800.000	-0.072	0.234
-739.083	12.167	0.239	0.184
-738.069	800.000	0.095	0.395
-737.054	-200.000	0.030	-0.518
-736.039	138.274	0.241	-0.316
-735.025	91.606	-0.107	0.120
-734.010	403.999	-0.035	-0.073
-732.996	39.187	-0.303	-0.271
-731.981	-200.000	-0.008	-0.340
-730.966	-98.540	0.181	0.046
-729.952	-48.975	-0.220	-0.105
-728.937	-7.782	-0.060	-0.040
-727.923	800.000	-0.133	-0.483
-726.908	66.836	-0.127	-0.129
-725.894	20.333	-0.106	-0.086
-724.879	-106.750	-0.181	-0.040
-723.864	-200.000	-0.012	0.140
-722.850	-117.870	0.123	-0.022
-721.835	800.000	0.065	0.182
-720.821	-161.745	-0.113	0.006
-719.806	800.000	-0.069	-0.214
-718.791	182.676	0.223	-0.328
-717.777	198.351	-0.185	-0.282
-716.762	5.571	-0.269	-0.198
-715.748	241.503	0.114	-0.189
-714.733	-181.145	-0.168	-0.003
-713.718	538.174	0.027	-0.064
-712.704	60.738	-0.082	0.081
-711.689	-29.373	0.205	-0.117
-710.675	-200.000	-0.057	-0.281
-709.660	8.229	0.137	-0.102
-708.645	162.598	0.216	-0.302
-707.631	590.270	0.053	-0.129
-706.616	402.950	0.152	0.318
-705.602	-122.998	-0.316	-0.051
-704.587	243.047	-0.163	0.273
-703.572	546.953	-0.174	0.414
-702.558	143.506	0.136	0.181
-701.543	-200.000	0.006	-0.390
-700.529	-28.427	-0.135	-0.077
-699.514	-200.000	-0.041	0.193
-698.499	-200.000	-0.008	-0.280
-697.485	169.629	-0.023	-0.033
-696.470	-7.247	0.187	-0.127
-695.456	-113.181	-0.349	0.068
-694.441	-200.000	0.050	-0.350
-693.426	140.517	-0.190	0.250
-692.412	26.337	-0.133	-0.111
-691.397	-200.000	-0.047	-0.290
-690.383	-19.803	0.196	-0.120
-689.368	61.874	0.138	-0.137
-688.354	81.455	0.098	-0.106
-687.339	114.728	-0.116	-0.141
-686.324	29.278	0.338	-0.286
-685.310	-110.945	0.251	-0.051
-684.295	21.570	-0.060	-0.048
-683.281	-29.510	-0.202	-0.115
-682.266	123.274	-0.064	0.080
-681.251	-72.577	-0.212	0.078
-680.237	75.088	-0.103	-0.108
-679.222	-142.525	0.106	-0.010
-678.208	776.179	-0.034	0.093
-677.193	227.476	-0.102	0.166
-676.178	-130.315	0.323	0.044
-675.164	687.739	-0.108	0.281
-674.149	-73.799	-0.142	-0.051
-673.135	57.813	0.247	-0.241
-672.120	451.851	0.095	-0.209
-671.105	-142.118	0.365	-0.036
-670.091	-146.834	0.221	0.019
-669.076	-170.147	-0.539	0.019
-668.062	-136.337	-0.040	0.005
-667.047	-62.610	-0.128	0.053
-666.032	-13.251	-0.325	-0.210
-665.018	-200.000	0.008	-0.051
-664.003	-73.357	0.315	-0.115
-662.989	-167.589	-0.078	-0.003
-661.974	113.428	-0.168	-0.203
-660.959	-200.000	0.061	-0.346
-659.945	10.789	0.317	-0.241
-658.930	-24.284	0.436	0.259
-657.916	221.107	0.190	-0.304
-656.901	-22.797	-0.286	-0.172
-655.886	-200.000	0.001	-0.175
-654.872	-137.105	-0.333	-0.038
-653.857	-200.000	-0.079	-0.406
-652.843	-177.079	-0.239	0.006
-651.828	-123.700	0.135	-0.021
-650.814	800.000	-0.048	-0.193
-649.799	-155.925	0.381	-0.024
-648.784	536.521	0.102	0.241
-647.770	-134.659	-0.346	0.042
-646.755	-79.683	0.160	0.054
-645.741	67.439	-0.408	-0.414
-644.726	-118.897	0.288	0.050
-643.711	-107.323	-0.241	0.053
-642.697	48.502	-0.189	0.176
-641.682	297.480	0.094	0.173
-640.668	74.945	-0.191	0.200
-639.653	70.277	-0.252	0.259
-638.638	274.964	0.094	0.165
-637.624	800.000	-0.076	-0.321
-636.609	-39.044	0.171	0.089
-635.595	88.061	0.187	0.207
-634.580	-112.740	-0.029	0.006
-633.565	33.157	0.168	-0.145
-632.551	95.383	0.081	-0.091
-631.536	-127.272	-0.124	-0.018
-630.522	-73.166	0.063	0.023
-629.507	-153.604	0.075	-0.005
-628.492	45.555	0.064	0.059
-627.478	123.556	0.097	0.121
-626.463	-177.571	-0.062	0.001
-625.449	800.000	0.106	0.444
-624.434	800.000	0.014	-0.047
-623.419	-130.768	-0.271	-0.036
-622.405	353.870	-0.103	0.204
-621.390	-117.025	0.201	0.036
-620.376	-104.224	0.385	-0.089
-619.361	-7.556	-0.115	0.077
-618.346	-200.000	-0.046	-0.231
-617.332	-12.763	0.021	-0.014
-616.317	373.049	-0.130	0.263
-615.303	101.370	0.081	0.094
-614.288	-200.000	0.004	-0.055
-613.273	-200.000	0.008	0.051
-612.259	-112.859	0.204	-0.040
-611.244	167.198	0.247	-0.349
-610.230	800.000	-0.092	-0.279
-609.215	112.221	-0.137	0.165
-608.201	2.920	-0.154	-0.111
-607.186	223.662	-0.047	0.075
-606.171	100.546	0.055	-0.063
-605.157	-38.001	-0.203	0.107
-604.142	-154.495	-0.194	-0.013
-603.128	-200.000	0.082	-0.363
-602.113	-200.000	-0.022	-0.131
-601.098	30.679	0.197	-0.167
-600.084	-111.199	-0.048	-0.010
-599.069	18.492	0.293	-0.233
-598.055	-78.890	0.187	0.063
-597.040	800.000	-0.069	-0.215
-596.025	260.877	-0.161	-0.276
-595.011	800.000	0.064	-0.212
-593.996	-23.202	0.360	-0.215
-592.982	-86.603	0.218	0.066
-591.967	800.000	-0.088	0.274
-590.952	800.000	0.060	-0.254
-589.938	-200.000	-0.043	-0.368
-588.923	202.222	-0.204	-0.313
-587.909	484.067	-0.093	-0.211
-586.894	-200.000	-0.007	-0.062
-585.879	41.898	-0.129	-0.116
-584.865	-144.316	0.206	-0.019
-583.850	-200.000	0.001	-0.144
-582.836	685.770	-0.064	0.167
-581.821	53.678	-0.099	0.094
-580.806	-44.404	-0.109	0.054
-579.792	-90.708	-0.389	0.112
-578.777	-46.577	-0.087	-0.042
-577.763	-64.621	-0.083	0.033
-576.748	117.389	-0.053	-0.065
-575.733	-82.151	-0.336	0.109
-574.719	800.000	0.037	-0.116
-573.704	81.104	-0.161	-0.173
-572.690	78.690	-0.073	-0.077
-571.675	2.353	-0.068	-0.049
-570.661	-19.314	-0.101	0.062
-569.646	-146.143	-0.248	-0.022
-568.631	556.504	-0.257	-0.614
-567.617	800.000	-0.030	-0.097
-566.602	120.828	-0.122	-0.150
-565.588	10.126	-0.242	0.182
-564.573	-95.403	-0.133	-0.036
-563.558	492.811	0.093	0.211
-562.544	-37.756	-0.177	-0.093
-561.529	-86.620	0.273	-0.083
-560.515	-87.757	-0.340	-0.102
-559.500	-167.322	-0.539	-0.022
-558.485	-100.987	0.224	0.055
-557.471	188.297	-0.011	-0.017
-556.456	-3.049	0.148	-0.103
-555.442	-123.323	-0.220	0.035
-554.427	-137.962	0.397	-0.044
-553.412	178.234	-0.110	-0.159
-552.398	-136.303	0.202	0.023
-551.383	-24.413	-0.206	-0.122
-550.369	59.891	0.154	0.150
-549.354	-200.000	-0.025	0.118
-548.339	27.667	0.315	-0.263
-547.325	91.272	-0.147	0.163
-546.310	-128.847	-0.198	0.028
-545.296	-21.750	-0.083	-0.050
-544.281	64.994	-0.124	-0.124
-543.266	-69.923	0.316	-0.120
-542.252	800.000	0.038	0.108
-541.237	700.782	0.020	-0.051
-540.223	800.000	-0.047	0.157
-539.208	618.529	0.036	-0.088
-538.193	62.740	0.193	0.191
-537.179	-138.645	-0.138	-0.015
-536.164	800.000	-0.036	0.137
-535.150	-86.369	-0.073	0.022
-534.135	26.445	0.094	-0.078
-533.121	-200.000	-0.005	-0.374
-532.106	-200.000	0.045	-0.287
-531.091	15.773	-0.193	-0.150
-530.077	-200.000	0.039	0.179
-529.062	-152.215	0.247	0.018
-528.048	42.982	-0.149	-0.135
-527.033	160.115	-0.086	0.119
-526.018	-200.000	0.005	0.057
-525.004	-174.314	0.192	0.006
-523.989	800.000	-0.115	-0.364
-522.975	595.741	0.169	-0.414
-521.960	125.570	-0.065	0.082
-520.945	12.330	0.239	0.182
-519.931	-200.000	-0.039	-0.244
-518.916	-146.365	0.235	0.020
-517.902	-13.822	0.360	0.231
-516.887	79.955	-0.008	-0.008
-515.872	-36.711	0.043	-0.023
-514.858	10.311	0.320	-0.241
-513.843	643.755	-0.132	-0.333
-512.829	-200.000	0.036	0.211
-511.814	2.381	0.263	-0.188
-510.799	-123.912	-0.300	0.047
-509.785	800.000	-0.043	-0.135
-508.770	-145.350	0.193	-0.017
-507.756	-200.000	-0.018	0.090
-506.741	-0.712	-0.312	-0.219
-505.726	417.169	-0.066	-0.139
-504.712	-161.961	0.345	0.017
-503.697	304.978	-0.168	0.309
-502.683	69.983	0.246	0.251
-501.668	-171.964	0.404	0.013
-500.653	428.065	0.093	0.198
-499.639	-76.339	0.252	0.088
-498.624	263.412	0.031	-0.053
-497.610	-73.969	0.161	0.058
-496.595	-32.643	-0.347	-0.191
-495.581	-95.708	-0.424	-0.112
-494.566	-19.180	0.174	-0.107
-493.551	634.600	-0.149	-0.373
-492.537	-30.759	0.216	0.121
-491.522	204.230	0.018	0.028
-490.508	-200.000	-0.055	-0.346
-489.493	14.246	0.295	0.227
-488.478	-200.000	0.011	-0.147
-487.464	36.416	-0.330	-0.288
-486.449	280.346	-0.171	-0.302
-485.435	50.768	0.184	0.172
-484.420	-83.561	-0.360	0.114
-483.405	-74.182	-0.105	0.038
-482.391	279.844	-0.078	0.138
-481.376	-78.975	0.102	0.034
-480.362	94.007	-0.099	-0.110
-479.347	-98.573	0.148	0.037
-478.332	-200.000	0.086	0.372
-477.318	-122.426	0.159	-0.026
-476.303	-200.000	0.004	0.291
-475.289	-142.190	0.171	-0.017
-474.274	278.895	0.025	-0.044
-473.259	125.787	-0.165	-0.206
-472.245	-200.000	0.010	0.275
-471.230	166.249	-0.205	0.287
-470.216	-17.141	-0.176	0.109
-469.201	-200.000	0.009	0.152
-468.186	-0.523	-0.126	0.088
-467.172	800.000	0.042	0.154
-466.157	449.068	0.033	-0.071
-465.143	-72.373	0.126	0.046
-464.128	-200.000	0.026	0.284
-463.113	800.000	0.046	-0.140
-462.099	183.064	-0.138	-0.201
-461.084	-18.930	0.115	0.071
-460.070	123.019	0.182	0.225
-459.055	-200.000	0.023	0.157
-458.040	200.662	0.119	0.180
-457.026	-11.281	-0.036	0.024
-456.011	-180.363	0.296	0.006
-454.997	-9.744	0.250	0.165
-453.982	-41.229	0.195	-0.099
-452.968	34.810	-0.306	0.265
-451.953	-129.893	0.048	-0.007
-450.938	699.537	0.085	0.220
-449.924	48.315	-0.152	0.140
-448.909	48.109	-0.290	-0.268
-447.895	516.525	-0.150	0.346
-446.880	77.266	0.227	-0.239
-445.865	800.000	0.027	0.081
-444.851	-104.813	0.272	0.062
-443.836	103.900	-0.210	0.244
-442.822	-135.047	-0.301	0.036
-441.807	319.034	-0.132	0.248
-440.792	800.000	0.030	-0.118
-439.778	-34.277	-0.006	-0.003
-438.763	-200.000	-0.043	-0.187
-437.749	-96.522	-0.038	0.010
-436.734	0.582	-0.239	0.168
-435.719	-96.934	0.274	0.071
-434.705	183.395	0.130	0.189
-433.690	73.724	-0.246	-0.254
-432.676	-74.309	0.193	0.069
-431.661	-144.112	0.135	0.012
-430.646	-123.742	-0.166	-0.026
-429.632	96.093	-0.238	-0.268
-428.617	190.229	-0.076	-0.113
-427.603	-70.340	0.263	-0.098
-426.588	-55.735	-0.093	0.041
-425.573	-48.311	-0.224	-0.106
-424.559	-72.076	0.131	0.048
-423.544	-68.230	0.087	0.033
-422.530	-71.206	0.203	0.075
-421.515	-49.271	-0.040	-0.019
-420.500	-89.695	-0.244	-0.070
-419.486	800.000	0.059	-0.223
-418.471	45.123	-0.082	-0.074
-417.457	-200.000	-0.010	0.044
-416.442	21.896	-0.039	0.031
-415.428	-200.000	0.034	-0.289
-414.413	356.521	-0.071	-0.139
-413.398	278.842	0.163	-0.287
-412.384	8.395	0.276	0.204
-411.369	240.736	0.080	-0.132
-410.355	-200.000	-0.031	0.238
-409.340	-87.548	-0.247	-0.073
-408.325	-52.381	0.147	0.067
-407.311	-89.743	0.046	0.013
-406.296	-200.000	-0.029	-0.225
-405.282	-9.329	-0.144	0.095
-404.267	12.437	-0.101	-0.077
-403.252	452.823	0.031	-0.067
-402.238	-200.000	0.004	0.046
-401.223	-166.356	0.147	-0.006
-400.209	-56.670	-0.134	0.058
-399.194	32.016	0.232	0.197
-398.179	-157.171	-0.257	-0.015
-397.165	-175.350	-0.115	-0.003
-396.150	-76.697	0.240	-0.083
-395.136	-29.103	0.153	0.087
-394.121	-200.000	0.051	-0.244
-393.106	-173.624	-0.292	0.009
-392.092	-130.106	-0.165	-0.022
-391.077	-200.000	0.036	0.289
-390.063	-200.000	-0.045	-0.340
-389.048	-22.622	-0.065	-0.039
-388.033	800.000	-0.128	0.495
-387.019	265.067	-0.123	0.210
-386.004	-54.121	0.366	0.164
-384.990	800.000	-0.074	-0.294
-383.975	438.080	-0.133	-0.285
-382.960	591.091	-0.023	-0.056
-381.946	-79.976	-0.171	-0.056
-380.931	-54.372	0.304	0.136
-379.917	174.985	-0.116	-0.165
-378.902	753.416	-0.075	0.200
-377.888	-87.116	-0.059	0.018
-376.873	-150.358	-0.229	0.017
-375.858	-200.000	-0.068	-0.303
-374.844	-200.000	-0.044	-0.238
-373.829	405.802	0.054	0.112
-372.815	14.744	-0.101	-0.078
-371.800	-77.698	-0.205	0.070
-370.785	27.066	-0.174	-0.143
-369.771	16.143	-0.080	0.062
-368.756	-102.754	-0.359	0.084
-367.742	800.000	-0.105	-0.311
-366.727	-149.520	-0.082	0.006
-365.712	290.623	0.100	0.178
-364.698	-93.106	-0.322	-0.088
-363.683	-200.000	0.028	0.230
-362.669	330.096	0.046	-0.088
-361.654	11.411	-0.097	0.073
-360.639	-200.000	-0.014	0.220
-359.625	143.661	-0.135	0.176
-358.610	-5.481	-0.062	-0.042
-357.596	800.000	-0.090	0.323
-356.581	11.235	-0.071	0.054
-355.566	-121.616	0.237	-0.039
-354.552	62.495	0.108	-0.106
-353.537	-200.000	0.026	-0.294
-352.523	46.786	0.268	-0.245
-351.508	201.364	-0.082	0.124
-350.493	-173.396	-0.219	-0.007
-349.479	81.489	0.136	0.145
-348.464	62.168	-0.075	-0.074
-347.450	104.593	0.265	0.307
-346.435	-200.000	0.020	-0.133
-345.420	800.000	0.043	-0.161
-344.406	12.249	-0.181	-0.137
-343.391	-39.937	-0.268	0.137
-342.377	800.000	-0.035	-0.101
-341.362	107.859	-0.065	-0.076
-340.348	-114.072	-0.121	0.023
-339.333	800.000	-0.024	0.070
-338.318	728.330	0.055	0.144
-337.304	-88.588	0.293	-0.086
-336.289	143.676	0.194	0.255
-335.275	-200.000	-0.021	-0.175
-334.260	-200.000	0.101	-0.000
-333.245	181.489	0.122	0.176
-332.231	15.550	-0.041	-0.031
-331.216	-194.072	-0.302	-0.002
-330.202	-112.136	0.214	-0.042
-329.187	131.039	0.176	0.221
-328.172	484.658	0.130	-0.291
-327.158	-164.405	-0.336	-0.015
-326.143	10.269	-0.316	-0.236
-325.129	18.609	-0.236	0.185
-324.114	-58.126	-0.149	-0.064
-323.099	800.000	0.028	0.105
-322.085	-51.274	0.094	-0.043
-321.070	-85.833	0.286	-0.087
-320.056	800.000	-0.042	0.150
-319.041	26.690	-0.130	-0.107
-318.026	-176.914	-0.215	-0.005
-317.012	340.721	0.009	0.018
-315.997	800.000	0.131	-0.538
-314.983	800.000	-0.027	-0.073
-313.968	2.511	-0.376	0.268
-312.953	112.929	0.074	-0.088
-311.939	-149.460	-0.225	0.018
-310.924	-60.508	-0.159	-0.066
-309.910	102.021	0.172	0.197
-308.895	697.218	0.099	-0.254
-307.880	152.456	-0.126	0.169
-306.866	-200.000	0.023	-0.256
-305.851	155.388	-0.279	0.377
-304.837	-77.725	0.319	-0.108
-303.822	653.792	0.151	0.380
-302.807	800.000	0.073	0.270
-301.793	266.552	-0.096	0.165
-300.778	800.000	0.091	0.272
-299.764	-77.245	0.411	0.140
-298.749	49.142	0.172	0.158
-297.735	59.752	0.173	0.167
-296.720	101.392	-0.214	-0.245
-295.705	-200.000	0.006	-0.400
-294.691	-34.052	0.218	-0.118
-293.676	-200.000	0.013	0.093
-292.662	800.000	-0.013	0.039
-291.647	-19.044	0.192	0.117
-290.632	798.157	-0.056	0.152
-289.618	-40.213	0.342	0.174
-288.603	-4.759	0.270	0.182
-287.589	-200.000	-0.010	-0.193
-286.574	-75.678	0.139	0.048
-285.559	800.000	0.056	-0.162
-284.545	62.335	0.171	0.168
-283.530	-56.148	0.141	-0.062
-282.516	-200.000	0.007	-0.177
-281.501	-1.368	0.332	0.230
-280.486	-157.990	-0.235	0.014
-279.472	-22.522	-0.124	0.073
-278.457	-117.301	0.017	0.003
-277.443	254.164	0.076	0.128
-276.428	-54.338	-0.087	-0.039
-275.413	78.169	0.085	-0.088
-274.399	-200.000	0.033	-0.296
-273.384	29.096	-0.080	0.067
-272.370	72.104	0.108	-0.111
-271.355	-71.412	0.083	0.030
-270.340	-103.554	-0.132	-0.030
-269.326	-55.042	-0.313	0.138
-268.311	-19.269	0.263	-0.160
-267.297	384.255	-0.107	-0.215
-266.282	-118.321	0.300	-0.052
-265.267	-144.572	-0.308	-0.028
-264.253	-200.000	0.022	-0.209
-263.238	-159.890	0.254	-0.014
-262.224	-101.750	0.561	0.133
-261.209	-14.235	-0.196	0.124
-260.195	155.968	0.157	0.212
-259.180	-32.552	0.094	-0.052
-258.165	-200.000	-0.054	-0.386
-257.151	-87.431	-0.326	0.097
-256.136	-200.000	-0.017	0.208
-255.122	27.188	-0.132	0.109
-254.107	800.000	0.089	-0.269
-253.092	-90.528	0.274	-0.078
-252.078	-22.567	-0.031	-0.018
-251.063	800.000	0.074	-0.235
-250.049	18.395	-0.109	0.086
-249.034	800.000	0.112	-0.461
-248.019	-76.945	-0.250	0.085
-247.005	-63.379	-0.125	-0.050
-245.990	-200.000	-0.012	0.197
-244.976	800.000	-0.056	0.195
-243.961	48.021	0.093	0.085
-242.946	480.718	-0.083	0.184
-241.932	-85.201	-0.216	-0.066
-240.917	-68.145	-0.198	-0.076
-239.903	201.889	0.114	-0.172
-238.888	232.628	0.038	-0.061
-237.873	129.504	-0.113	-0.142
-236.859	-171.600	0.119	-0.004
-235.844	-55.667	-0.286	0.125
-234.830	37.281	0.325	0.282
-233.815	117.877	0.122	-0.147
-232.800	-154.531	0.243	0.016
-231.786	-116.609	-0.155	0.028
-230.771	-200.000	-0.033	-0.310
-229.757	-151.467	0.103	0.008
-228.742	162.719	-0.007	0.010
-227.727	115.112	-0.260	0.310
-226.713	-151.864	-0.044	0.003
-225.698	-200.000	-0.043	0.211
-224.684	47.241	0.193	0.176
-223.669	-91.515	-0.092	0.026
-222.655	-150.431	-0.389	0.029
-221.640	250.209	0.169	0.281
-220.625	41.759	0.010	-0.009
-219.611	800.000	-0.073	0.279
-218.596	-200.000	-0.019	-0.142
-217.582	67.324	-0.100	-0.099
-216.567	800.000	-0.036	0.142
-215.552	-44.697	-0.236	-0.115
-214.538	-161.014	0.266	0.014
-213.523	-45.433	0.071	0.034
-212.509	198.173	0.113	-0.170
-211.494	410.135	-0.059	0.122
-210.479	-200.000	0.005	0.164
-209.465	-144.303	-0.262	-0.024
-208.450	-51.117	0.091	-0.042
-207.436	-196.926	0.268	0.002
-206.421	-200.000	0.029	-0.267
-205.406	-200.000	-0.024	0.144
-204.392	-51.316	0.337	0.154
-203.377	150.989	0.203	-0.270
-202.363	-115.064	0.104	0.019
-201.348	800.000	-0.095	0.264
-200.333	-174.239	0.298	-0.008
-199.319	-57.928	0.171	-0.073
-198.304	-21.541	0.270	0.161
-197.290	-200.000	-0.018	0.135
-196.275	800.000	-0.054	-0.158
-195.260	528.133	-0.054	0.126
-194.246	-80.886	0.085	-0.028
-193.231	800.000	0.026	0.084
-192.217	-200.000	0.001	0.308
-191.202	-149.382	-0.118	0.009
-190.187	-8.817	0.122	-0.080
-189.173	-76.172	-0.116	0.040
-188.158	800.000	0.042	0.123
-187.144	154.008	-0.092	-0.124
-186.129	-97.357	-0.134	-0.034
-185.114	-1.672	0.109	0.075
-184.100	329.758	-0.057	0.107
-183.085	85.576	0.190	-0.204
-182.071	214.476	0.143	-0.221
-181.056	35.839	0.157	-0.135
-180.042	-41.215	-0.161	0.081
-179.027	-115.317	-0.310	-0.057
-178.012	364.980	0.180	-0.353
-176.998	800.000	-0.057	0.168
-175.983	123.244	-0.150	-0.184
-174.969	241.879	-0.147	0.240
-173.954	19.308	-0.312	-0.245
-172.939	-45.761	0.113	0.054
-171.925	-200.000	0.007	0.187
-170.910	800.000	-0.033	0.121
-169.896	115.904	0.199	-0.238
-168.881	80.610	-0.184	0.194
-167.866	134.342	-0.043	0.054
-166.852	46.068	0.085	0.077
-165.837	-35.304	-0.127	-0.068
-164.823	261.023	-0.077	-0.130
-163.808	37.591	0.111	0.096
-162.793	-66.771	-0.100	0.039
-161.779	51.174	0.180	0.167
-160.764	-170.249	-0.188	-0.006
-159.750	-119.123	-0.067	0.011
-158.735	164.234	0.024	0.033
-157.720	196.292	0.158	0.235
-156.706	-200.000	-0.014	0.466
-155.691	54.600	0.094	0.089
-154.677	-4.986	-0.182	0.122
-153.662	310.847	0.170	0.312
-152.647	104.533	0.062	0.071
-151.633	-102.792	0.540	0.125
-150.618	-200.000	-0.009	-0.134
-149.604	780.881	0.096	-0.257
-148.589	-92.734	-0.159	0.043
-147.574	329.538	-0.088	0.165
-146.560	-200.000	-0.003	-0.167
-145.545	-55.602	-0.145	0.063
-144.531	76.430	0.185	-0.191
-143.516	-99.936	-0.144	-0.035
-142.502	140.476	0.100	-0.129
-141.487	-56.340	-0.298	-0.129
-140.472	-25.598	0.225	-0.129
-139.458	-34.024	0.060	-0.032
-138.443	-54.093	0.220	0.098
-137.429	-170.943	0.201	-0.007
-136.414	-157.623	0.098	-0.006
-135.399	-200.000	-0.263	0.000
-134.385	2.133	0.144	0.101
-133.370	-91.781	0.157	-0.044
-132.356	800.000	-0.070	-0.249
-131.341	-74.154	0.231	0.082
-130.326	800.000	-0.074	-0.241
-129.312	53.244	0.265	-0.248
-128.297	-152.525	-0.329	0.023
-127.283	-46.957	0.127	0.060
-126.268	-200.000	0.035	0.235
-125.253	43.602	0.176	0.157
-124.239	519.638	0.145	0.332
-123.224	7.574	0.126	0.092
-122.210	-49.125	-0.366	-0.171
-121.195	-44.728	-0.245	0.119
-120.180	-200.000	0.016	-0.079
-119.166	-157.406	-0.223	-0.013
-118.151	-200.000	0.009	-0.114
-117.137	800.000	0.054	0.166
-116.122	800.000	0.050	-0.142
-115.107	284.803	-0.131	0.230
-114.093	800.000	-0.008	0.032
-113.078	133.864	0.163	0.205
-112.064	800.000	-0.070	0.289
-111.049	10.698	-0.041	0.030
-110.034	-54.217	0.210	0.093
-109.020	-200.000	0.004	0.232
-108.005	-139.538	0.243	0.025
-106.991	78.325	-0.149	-0.155
-105.976	411.540	-0.088	0.182
-104.962	-200.000	0.009	-0.177
-103.947	-90.763	0.268	0.075
-102.932	162.985	0.298	-0.408
-101.918	800.000	-0.038	-0.109
-100.903	384.128	-0.175	0.350
-99.889	73.038	0.168	0.171
-98.874	33.801	0.116	0.098
-97.859	-98.288	0.344	0.086
-96.845	-36.820	0.405	0.211
-95.830	-200.000	0.006	-0.127
-94.816	-71.624	0.172	0.063
-93.801	-200.000	-0.030	-0.143
-92.786	136.611	0.258	-0.328
-91.772	-129.682	-0.254	0.034
-90.757	-3.472	0.334	-0.226
-89.743	-200.000	-0.012	-0.250
-88.728	6.651	-0.125	0.091
-87.713	-200.000	0.015	0.204
-86.699	69.697	-0.164	0.165
-85.684	308.597	-0.225	-0.410
-84.670	-200.000	-0.005	0.074
-83.655	22.149	0.232	0.184
-82.640	-86.573	0.385	-0.115
-81.626	-200.000	0.002	-0.153
-80.611	224.863	0.110	-0.174
-79.597	464.369	-0.112	0.243
-78.582	689.097	-0.044	0.113
-77.567	34.479	0.191	0.163
-76.553	363.661	-0.057	0.112
-75.538	-69.919	0.066	-0.024
-74.524	329.866	-0.063	-0.118
-73.509	22.967	0.081	0.064
-72.494	203.816	0.149	-0.225
-71.480	-124.197	0.184	0.028
-70.465	-134.138	-0.308	-0.037
-69.451	-200.000	-0.025	0.317
-68.436	53.721	-0.109	0.102
-67.422	175.434	0.101	-0.143
-66.407	-79.682	-0.230	0.075
-65.392	-142.292	-0.046	-0.004
-64.378	35.456	0.105	0.090
-63.363	-32.591	0.269	0.146
-62.349	800.000	-0.046	0.190
-61.334	323.035	-0.644	-1.193
-60.319	356.882	0.472	0.916
-59.305	800.000	-0.391	-1.294
-58.290	313.244	0.824	1.506
-57.276	581.174	0.658	1.567
-56.261	-200.000	121.301	645.458
-55.246	439.317	1535.518	3259.828
-54.232	148.624	2693.017	3537.440
-53.217	93.339	2273.520	2500.658
-52.203	33.434	1891.013	1596.380
-51.188	27.463	1688.615	1380.360
-50.173	25.254	1649.442	1331.912
-49.159	45.746	1716.928	1542.698
-48.144	43.922	1728.873	1539.521
-47.130	26.881	1681.870	1370.233
-46.115	24.453	1665.952	1339.025
-45.100	24.322	1661.055	1334.054
-44.086	24.240	1658.727	1331.516
-43.071	24.247	1655.972	1329.305
-42.057	24.325	1653.500	1327.848
-41.042	24.301	1651.691	1326.166
-40.027	24.312	1649.614	1324.523
-39.013	24.264	1647.970	1322.801
-37.998	24.194	1646.476	1321.029
-36.984	24.271	1645.363	1320.652
-35.969	24.306	1643.989	1319.755
-34.954	24.466	1642.141	1319.405
-33.940	24.370	1640.746	1317.523
-32.925	24.310	1638.847	1315.503
-31.911	24.439	1637.486	1315.308
-30.896	24.357	1636.128	1313.560
-29.881	24.382	1634.163	1312.112
-28.867	24.314	1632.600	1310.311
-27.852	24.415	1631.051	1309.753
-26.838	24.326	1630.243	1308.397
-25.823	24.473	1628.350	1307.906
-24.809	24.425	1626.903	1306.341
-23.794	24.364	1625.759	1304.921
-22.779	24.363	1624.464	1303.827
-21.765	24.362	1622.633	1302.296
-20.750	24.392	1621.028	1301.176
-19.736	24.461	1620.025	1300.820
-18.721	24.379	1618.557	1298.994
-17.706	24.410	1616.959	1297.883
-16.692	24.374	1615.323	1296.260
-15.677	24.418	1613.796	1295.302
-14.663	24.464	1612.100	1294.223
-13.648	24.436	1611.321	1293.341
-12.633	24.423	1610.016	1292.153
-11.619	24.435	1608.367	1290.864
-10.604	24.421	1606.729	1289.393
-9.590	24.418	1605.280	1288.159
-8.575	24.401	1604.377	1287.264
-7.560	24.413	1602.847	1286.072
-6.546	24.384	1601.971	1285.103
-5.531	24.363	1600.969	1284.101
-4.517	24.417	1599.547	1283.300
-3.502	24.481	1598.156	1282.592
-2.487	24.555	1596.791	1281.977
-1.473	24.096	1584.676	1268.930
-0.458	20.960	1565.243	1231.203
0.556	16.375	1566.640	1199.454
1.571	13.970	1589.740	1199.689
2.586	13.811	1602.001	1207.675
3.600	13.034	1548.759	1161.966
4.615	7.603	1442.729	1046.619
5.629	1.890	1383.937	967.694
6.644	0.910	1376.353	956.116
7.659	0.713	1376.038	954.568
8.673	0.797	1374.366	953.853
9.688	0.781	1372.292	952.233
10.702	0.542	1368.912	948.298
11.717	3.381	1372.527	968.580
12.731	10.414	1383.043	1020.332
13.746	15.848	1391.476	1060.800
14.761	17.396	1392.288	1071.078
15.775	16.763	1390.489	1065.620
16.790	15.790	1387.552	1057.165
17.804	14.947	1385.657	1050.334
18.819	14.633	1384.382	1047.306
19.834	14.282	1382.860	1043.862
20.848	14.147	1381.818	1042.135
21.863	13.932	1380.123	1039.422
22.877	13.677	1378.842	1036.771
23.892	13.683	1378.323	1036.327
24.907	13.663	1377.455	1035.454
25.921	13.640	1376.802	1034.728
26.936	13.587	1375.910	1033.634
27.950	13.714	1374.800	1033.505
28.965	13.683	1374.123	1032.708
29.980	13.801	1372.625	1032.228
30.994	13.861	1372.138	1032.140
32.009	13.895	1370.321	1030.897
33.023	13.959	1369.783	1030.796
34.038	13.866	1368.544	1029.197
35.053	13.896	1367.561	1028.554
36.067	13.823	1366.395	1027.132
37.082	13.871	1365.326	1026.534
38.096	13.834	1364.552	1025.630
39.111	13.839	1363.076	1024.462
40.126	13.699	1362.761	1023.274
41.140	13.687	1361.932	1022.485
42.155	13.688	1361.913	1022.385
43.169	13.729	1360.839	1021.744
44.184	13.771	1360.616	1021.743
45.199	13.759	1360.070	1021.172
46.213	13.722	1359.447	1020.384
47.228	13.735	1358.822	1019.902
48.242	13.772	1357.742	1019.228
49.257	13.747	1355.650	1017.413
50.271	13.712	1355.064	1016.672
51.286	13.807	1352.949	1015.573
52.301	13.727	1351.985	1014.272
53.315	13.772	1350.974	1013.703
54.330	13.752	1349.969	1012.735
55.344	13.767	1348.702	1011.785
56.359	13.713	1347.592	1010.534
57.374	13.711	1346.492	1009.609
58.388	13.677	1345.978	1008.929
59.403	13.598	1345.741	1008.181
60.417	13.539	1345.114	1007.259
61.432	13.644	1344.231	1007.151
62.447	13.545	1342.913	1005.471
63.461	13.519	1342.305	1004.766
64.476	13.580	1340.942	1004.027
65.490	13.566	1339.236	1002.579
66.505	13.563	1337.986	1001.534
67.520	13.632	1336.954	1001.093
68.534	13.702	1335.495	1000.333
69.549	13.662	1334.479	999.244
70.563	13.601	1333.563	998.101
71.578	13.539	1332.640	996.949
72.593	13.661	1331.417	996.677
73.607	13.512	1330.937	995.334
74.622	13.561	1329.798	994.691
75.636	13.561	1329.171	994.135
76.651	13.618	1328.323	993.751
77.666	13.503	1328.165	992.854
78.680	13.610	1326.999	992.541
79.695	13.617	1326.013	991.756
80.709	13.581	1325.424	991.014
81.724	13.647	1324.516	990.642
82.739	13.640	1323.854	990.013
83.753	13.640	1323.198	989.439
84.768	13.682	1321.364	988.229
85.782	13.865	1320.301	988.435
86.797	13.718	1319.384	986.786
87.812	13.643	1317.728	985.017
88.826	13.664	1317.034	984.536
89.841	13.697	1315.639	983.601
90.855	13.801	1314.528	983.299
91.870	13.730	1313.955	982.359
92.884	13.785	1313.028	981.911
93.899	13.858	1311.689	981.254
94.914	13.765	1311.562	980.519
95.928	13.848	1310.816	980.367
96.943	13.809	1309.912	979.373
97.957	13.926	1308.350	978.809
98.972	13.844	1307.789	977.818
99.987	13.822	1306.707	976.794
101.001	13.803	1305.797	975.913
102.016	13.735	1304.921	974.777
103.030	13.719	1303.938	973.859
104.045	13.799	1303.029	973.564
105.060	13.759	1301.884	972.387
106.074	13.686	1300.920	971.157
107.089	13.727	1299.252	970.062
108.103	13.808	1297.640	969.249
109.118	13.720	1296.572	967.848
110.133	13.694	1295.006	966.446
111.147	13.725	1293.628	965.510
112.162	13.801	1292.253	964.841
113.176	13.698	1291.448	963.556
114.191	13.746	1290.390	962.960
115.206	13.749	1289.265	962.051
116.220	13.709	1287.828	960.666
117.235	13.753	1286.750	960.027
118.249	13.729	1286.189	959.389
119.264	13.790	1284.047	958.059
120.279	13.690	1283.967	957.336
121.293	13.721	1282.782	956.547
122.308	13.776	1281.512	955.828
123.322	13.723	1281.185	955.197
124.337	13.717	1280.180	954.331
125.352	13.643	1279.254	953.128
126.366	13.699	1277.872	952.333
127.381	13.766	1276.277	951.449
128.395	13.729	1275.160	950.319
129.410	13.639	1274.361	949.126
130.424	13.681	1273.866	948.910
131.439	13.706	1272.744	948.132
132.454	13.712	1271.929	947.478
133.468	13.714	1270.724	946.505
134.483	13.801	1269.850	946.268
135.497	13.805	1269.032	945.601
136.512	13.751	1267.143	943.803
137.527	13.819	1265.842	943.133
138.541	13.769	1264.647	941.877
139.556	13.782	1263.716	941.176
140.570	13.819	1262.619	940.480
141.585	13.827	1261.500	939.613
142.600	13.899	1260.034	938.845
143.614	13.870	1259.670	938.325
144.629	13.949	1258.254	937.636
145.643	13.979	1257.143	936.892
146.658	14.015	1255.769	935.990
147.673	13.937	1254.589	934.587
148.687	13.747	1253.682	932.763
149.702	13.728	1252.681	931.826
150.716	13.788	1250.915	930.765
151.731	13.877	1249.711	930.284
152.746	13.850	1248.366	929.052
153.760	13.961	1247.390	928.864
154.775	13.994	1245.912	927.863
155.789	13.986	1245.001	927.062
156.804	13.999	1243.937	926.262
157.819	14.049	1242.746	925.568
158.833	14.007	1242.508	925.077
159.848	14.061	1241.295	924.394
160.862	14.100	1239.843	923.444
161.877	14.039	1239.075	922.453
162.892	13.935	1238.025	921.013
163.906	13.975	1237.400	920.687
164.921	14.083	1235.863	920.061
165.935	13.994	1235.513	919.227
166.950	14.030	1234.908	918.892
167.964	14.048	1234.013	918.246
168.979	14.046	1233.310	917.632
169.994	14.008	1232.165	916.486
171.008	14.078	1231.391	916.214
172.023	14.143	1230.165	915.579
173.037	14.126	1230.075	915.337
174.052	14.228	1228.744	914.830
175.067	14.154	1227.563	913.464
176.081	14.079	1227.201	912.701
177.096	14.046	1225.984	911.532
178.110	14.142	1224.876	911.156
179.125	14.109	1223.300	909.723
180.140	14.174	1222.312	909.259
181.154	14.225	1221.309	908.714
182.169	14.254	1220.145	907.926
183.183	14.249	1219.070	907.017
184.198	14.319	1217.808	906.379
185.213	14.298	1216.640	905.319
186.227	14.245	1215.410	904.035
187.242	14.407	1214.400	904.082
188.256	14.428	1213.319	903.308
189.271	14.363	1212.195	902.041
190.286	14.260	1211.806	901.113
191.300	14.172	1211.329	900.201
192.315	14.230	1210.035	899.473
193.329	14.248	1209.891	899.386
194.344	14.237	1209.199	898.730
195.359	14.301	1208.168	898.233
196.373	14.413	1207.997	898.628
197.388	14.481	1207.381	898.459
198.402	14.444	1207.095	897.964
199.417	14.480	1206.144	897.377
200.432	14.541	1204.853	896.659
201.446	14.582	1204.177	896.300
202.461	14.600	1203.320	895.680
203.475	14.722	1202.259	895.466
204.490	14.543	1201.176	893.617
205.504	14.500	1199.800	892.288
206.519	14.503	1198.585	891.319
207.534	14.608	1196.977	890.607
208.548	14.567	1196.430	889.904
209.563	14.664	1196.099	890.094
210.577	14.625	1194.714	888.778
211.592	14.665	1194.014	888.392
212.607	14.665	1193.076	887.611
213.621	14.684	1192.257	887.025
214.636	14.816	1191.223	886.878
215.650	14.885	1190.534	886.652
216.665	14.771	1189.600	885.278
217.680	14.682	1189.026	884.297
218.694	14.862	1187.899	884.332
219.709	14.866	1186.926	883.556
220.723	14.772	1186.532	882.684
221.738	14.838	1186.010	882.567
222.753	14.916	1184.665	881.900
223.767	14.768	1184.368	880.820
224.782	14.846	1183.654	880.625
225.796	15.024	1182.844	880.880
226.811	14.934	1182.330	879.945
227.826	14.919	1181.710	879.326
228.840	14.894	1180.710	878.371
229.855	15.006	1179.583	878.046
230.869	14.945	1179.078	877.273
231.884	14.874	1178.557	876.432
232.899	14.916	1177.743	875.971
233.913	15.016	1176.486	875.481
234.928	14.921	1176.006	874.550
235.942	14.841	1175.845	873.936
236.957	14.892	1174.837	873.374
237.972	14.914	1173.750	872.604
238.986	14.927	1172.960	872.007
240.001	14.961	1172.465	871.739
241.015	14.971	1171.754	871.186
242.030	15.074	1170.495	870.708
243.045	15.008	1170.321	870.157
244.059	15.070	1169.144	869.531
245.074	14.997	1168.449	868.554
246.088	14.932	1168.334	868.056
247.103	15.101	1166.887	867.780
248.117	15.155	1166.264	867.517
249.132	15.118	1165.552	866.721
250.147	15.246	1164.648	866.633
251.161	15.362	1163.790	866.517
252.176	15.234	1163.259	865.388
253.190	15.289	1162.856	865.293
254.205	15.429	1161.908	865.234
255.220	15.312	1161.524	864.267
256.234	15.318	1160.745	863.642
257.249	15.325	1160.242	863.227
258.263	15.477	1159.357	863.276
259.278	15.405	1158.872	862.469
260.293	15.496	1158.233	862.382
261.307	15.571	1157.415	862.084
262.322	15.612	1157.020	861.923
263.336	15.501	1156.544	860.922
264.351	15.511	1155.456	860.085
265.366	15.644	1154.923	860.295
266.380	15.528	1154.455	859.275
267.395	15.656	1153.210	858.930
268.409	15.535	1152.939	858.030
269.424	15.659	1152.217	858.051
270.439	15.562	1151.743	857.130
271.453	15.604	1151.085	856.776
272.468	15.458	1150.558	855.566
273.482	15.537	1149.536	855.132
274.497	15.612	1148.766	854.863
275.512	15.567	1148.041	854.019
276.526	15.585	1147.166	853.387
277.541	15.641	1146.901	853.399
278.555	15.660	1146.034	852.771
279.570	15.643	1145.319	852.079
280.585	15.708	1144.058	851.395
281.599	15.805	1143.295	851.240
282.614	15.766	1142.446	850.338
283.628	15.779	1141.311	849.482
284.643	15.803	1140.426	848.869
285.657	15.824	1139.814	848.444
286.672	15.769	1138.582	847.175
287.687	15.837	1137.816	846.873
288.701	15.958	1136.757	846.622
289.716	15.965	1136.408	846.322
290.730	15.816	1135.709	844.974
291.745	15.734	1135.584	844.396
292.760	15.796	1134.785	844.038
293.774	15.910	1134.072	844.003
294.789	15.946	1133.280	843.520
295.803	15.985	1132.491	843.053
296.818	15.921	1132.011	842.304
297.833	16.020	1130.708	841.753
298.847	16.047	1129.972	841.266
299.862	16.096	1128.970	840.688
300.876	16.044	1128.783	840.218
301.891	16.011	1128.217	839.557
302.906	16.066	1127.182	838.988
303.920	16.000	1126.744	838.257
304.935	16.095	1126.180	838.237
305.949	16.167	1125.909	838.316
306.964	16.206	1124.924	837.703
307.979	16.132	1124.105	836.652
308.993	16.197	1122.884	835.994
310.008	16.163	1122.394	835.387
311.022	16.196	1121.619	834.896
312.037	16.279	1120.807	834.630
313.052	16.180	1120.165	833.587
314.066	16.218	1119.109	832.918
315.081	16.240	1118.120	832.216
316.095	16.220	1117.290	831.426
317.110	16.216	1116.848	831.002
318.125	16.154	1116.183	830.129
319.139	16.282	1115.625	830.271
320.154	16.211	1114.685	829.147
321.168	16.346	1114.307	829.458
322.183	16.256	1113.671	828.469
323.197	16.335	1112.725	828.077
324.212	16.325	1112.328	827.663
325.227	16.329	1111.579	827.052
326.241	16.370	1110.971	826.725
327.256	16.316	1110.540	826.065
328.270	16.349	1109.486	825.373
329.285	16.364	1108.441	824.596
330.300	16.373	1107.362	823.763
331.314	16.381	1106.579	823.148
332.329	16.343	1105.855	822.350
333.343	16.415	1105.072	822.047
334.358	16.394	1103.902	820.998
335.373	16.566	1102.969	821.067
336.387	16.472	1102.618	820.278
337.402	16.497	1101.951	819.831
338.416	16.552	1101.051	819.354
339.431	16.622	1100.336	819.091
340.446	16.520	1100.234	818.448
341.460	16.603	1098.764	817.681
342.475	16.647	1098.230	817.426
343.489	16.708	1097.044	816.763
344.504	16.738	1096.290	816.273
345.519	16.649	1095.512	815.194
346.533	16.682	1095.102	814.976
347.548	16.801	1093.991	814.649
348.562	16.710	1093.396	813.700
349.577	16.768	1092.612	813.323
350.592	16.740	1091.657	812.402
351.606	16.732	1091.022	811.820
352.621	16.734	1090.321	811.236
353.635	16.746	1089.755	810.802
354.650	16.678	1089.342	810.096
355.665	16.654	1088.736	809.460
356.679	16.746	1087.682	809.045
357.694	16.796	1087.261	808.898
358.708	16.969	1085.927	808.660
359.723	16.959	1085.756	808.413
360.738	16.901	1084.918	807.442
361.752	16.871	1084.583	806.979
362.767	16.925	1083.828	806.602
363.781	17.008	1083.254	806.496
364.796	16.874	1082.712	805.387
365.810	16.930	1082.300	805.273
366.825	17.084	1081.545	805.370
367.840	17.166	1081.175	805.415
368.854	17.060	1080.864	804.608
369.869	17.086	1079.702	803.793
370.883	17.031	1078.758	802.761
371.898	17.071	1078.214	802.475
372.913	16.981	1077.872	801.723
373.927	17.113	1077.184	801.762
374.942	17.245	1076.175	801.564
375.956	17.144	1075.854	800.779
376.971	17.122	1075.457	800.309
377.986	17.274	1074.575	800.298
379.000	17.322	1073.779	799.857
380.015	17.312	1073.445	799.493
381.029	17.275	1073.195	799.063
382.044	17.353	1072.204	798.618
383.059	17.311	1071.324	797.697
384.073	17.237	1071.060	797.081
385.088	17.356	1070.002	796.782
386.102	17.480	1068.663	796.296
387.117	17.299	1068.160	795.003
388.132	17.342	1067.655	794.758
389.146	17.270	1066.532	793.515
390.161	17.357	1065.664	793.206
391.175	17.335	1064.974	792.520
392.190	17.450	1063.810	792.119
393.205	17.363	1063.883	791.697
394.219	17.384	1062.800	790.918
395.234	17.481	1061.862	790.602
396.248	17.458	1060.497	789.406
397.263	17.486	1059.274	788.558
398.278	17.414	1059.100	788.026
399.292	17.382	1058.490	787.351
400.307	17.479	1057.800	787.219
401.321	17.412	1057.122	786.334
402.336	17.516	1056.355	786.173
403.350	17.455	1055.686	785.328
404.365	17.509	1054.957	784.962
405.380	17.554	1054.108	784.470
406.394	17.556	1053.778	784.162
407.409	17.552	1052.777	783.332
408.423	17.637	1052.255	783.264
409.438	17.580	1051.326	782.242
410.453	17.643	1050.852	782.109
411.467	17.770	1049.957	781.957
412.482	17.692	1049.701	781.337
413.496	17.780	1048.975	781.133
414.511	17.811	1047.948	780.438
415.526	17.888	1047.664	780.511
416.540	17.743	1047.599	779.730
417.555	17.894	1046.904	779.833
418.569	17.832	1046.059	778.851
419.584	17.964	1045.483	778.958
420.599	17.821	1045.155	777.990
421.613	109.888	1328.680	1490.034
422.628	101.102	1369.921	1490.135
