DTS Sentinel unit serial number:	SN413079Multiplexer serial number:	ORYXHardware model number:	OX4-SRSoftware version number:	ORYX F/W v4.00 Oryx Data Collector v3.7.2.0data status	okinstallation	princeton_trtdifferential loss correction	single-endedforward channel	channel 2reverse channel	N/Adate	2019/09/17time	13:55:35forward acquisition time	60.00reverse acquisition time	0.00gamma	496.2192k internal	0.2316k external	0.2316temperature offset calibration	0.9982default loss term (dB/km)	0.3790temperature slope calibration	1.0000multiplexer offset coefficient	1.0000multiplexer slope coefficient	1.0000fibre end	0.00T internal ref (°C)	35.42T ext. ref 1 (°C)	0.41T ext. ref 2 (°C)	32.50length (m)	temperature (°C)	Stokes	anti-Stokes-747.200	62.156	-0.290	-0.293
-746.185	137.709	0.125	-0.166
-745.171	346.811	-0.025	-0.050
-744.156	-200.000	-0.091	0.581
-743.142	58.074	0.350	0.347
-742.127	800.000	-0.025	-0.085
-741.112	-200.000	0.029	0.223
-740.098	-126.317	0.160	0.024
-739.083	12.590	-0.079	0.062
-738.069	800.000	-0.092	0.317
-737.054	800.000	-0.146	0.431
-736.039	154.065	0.104	0.145
-735.025	404.281	-0.082	0.175
-734.010	800.000	0.043	-0.173
-732.996	12.751	0.120	0.094
-731.981	-12.693	-0.215	-0.142
-730.966	-47.435	0.209	-0.103
-729.952	123.158	0.103	0.131
-728.937	275.264	-0.177	0.317
-727.923	-25.247	-0.238	0.143
-726.908	30.076	-0.230	-0.198
-725.894	94.606	-0.123	0.142
-724.879	199.091	0.147	0.228
-723.864	224.412	-0.111	0.181
-722.850	197.074	0.115	-0.177
-721.835	-12.522	-0.249	0.165
-720.821	-30.250	0.223	-0.128
-719.806	-121.564	-0.304	-0.051
-718.791	-86.744	-0.130	-0.040
-717.777	-200.000	-0.050	-0.405
-716.762	-25.154	0.309	-0.185
-715.748	-180.788	0.255	0.005
-714.733	-200.000	0.004	-0.109
-713.718	433.055	0.096	0.211
-712.704	-200.000	0.019	0.249
-711.689	273.452	-0.098	0.175
-710.675	-184.575	-0.079	0.001
-709.660	134.818	0.042	0.055
-708.645	7.121	0.058	-0.044
-707.631	-105.922	0.231	0.053
-706.616	800.000	0.075	0.291
-705.602	800.000	-0.116	0.402
-704.587	-200.000	-0.009	0.106
-703.572	-133.704	0.126	0.016
-702.558	31.880	0.034	0.030
-701.543	-57.314	0.571	0.254
-700.529	42.639	-0.169	-0.155
-699.514	-52.216	-0.126	-0.059
-698.499	800.000	0.081	0.330
-697.485	-101.452	0.237	-0.058
-696.470	-200.000	0.013	-0.222
-695.456	-200.000	-0.011	0.072
-694.441	-151.609	0.203	-0.015
-693.426	-131.589	-0.064	0.009
-692.412	-134.908	0.292	0.036
-691.397	-119.841	0.128	-0.022
-690.383	148.755	0.144	0.197
-689.368	800.000	-0.018	-0.062
-688.354	71.975	-0.114	-0.120
-687.339	-141.792	-0.277	0.028
-686.324	460.777	0.107	-0.242
-685.310	-151.082	0.268	0.020
-684.295	800.000	0.076	0.336
-683.281	27.706	0.038	-0.032
-682.266	-81.038	-0.388	-0.130
-681.251	800.000	-0.121	-0.420
-680.237	-200.000	-0.020	0.343
-679.222	-200.000	-0.039	0.287
-678.208	800.000	-0.076	-0.249
-677.193	800.000	-0.091	-0.312
-676.178	-41.494	-0.146	0.076
-675.164	5.576	0.233	-0.174
-674.149	-110.514	-0.353	-0.074
-673.135	25.578	0.147	0.124
-672.120	-200.000	-0.013	0.070
-671.105	784.698	0.044	0.122
-670.091	9.735	0.164	-0.126
-669.076	78.437	0.203	-0.219
-668.062	-136.935	0.130	-0.015
-667.047	-73.629	0.324	-0.119
-666.032	271.857	0.167	0.297
-665.018	-4.718	-0.235	-0.163
-664.003	-46.765	-0.181	-0.089
-662.989	800.000	-0.068	0.218
-661.974	197.297	-0.039	0.060
-660.959	800.000	0.049	-0.211
-659.945	-97.167	0.099	-0.026
-658.930	-122.729	-0.375	-0.061
-657.916	-200.000	0.048	-0.277
-656.901	-11.756	-0.192	-0.127
-655.886	-200.000	-0.010	0.211
-654.872	-99.222	-0.214	-0.055
-653.857	-200.000	0.014	0.315
-652.843	-63.814	-0.118	0.049
-651.828	-90.572	-0.530	0.155
-650.814	-200.000	0.030	0.283
-649.799	-138.496	-0.137	-0.015
-648.784	-73.659	-0.193	0.071
-647.770	-46.302	-0.308	-0.153
-646.755	-30.706	-0.295	0.168
-645.741	-44.760	0.411	0.207
-644.726	-149.473	0.127	0.010
-643.711	800.000	-0.115	-0.414
-642.697	-51.311	-0.234	-0.110
-641.682	800.000	-0.047	-0.163
-640.668	800.000	-0.027	0.097
-639.653	-200.000	0.001	-0.226
-638.638	-109.231	-0.498	0.107
-637.624	255.849	0.087	0.151
-636.609	-200.000	0.043	0.294
-635.595	5.806	0.105	-0.078
-634.580	196.024	0.028	-0.043
-633.565	38.082	-0.144	0.129
-632.551	338.485	-0.028	-0.054
-631.536	78.246	-0.055	-0.060
-630.522	-163.802	-0.313	-0.015
-629.507	-200.000	-0.020	-0.108
-628.492	-200.000	-0.052	-0.390
-627.478	229.315	0.063	-0.104
-626.463	-103.225	0.533	-0.127
-625.449	-74.426	-0.428	-0.156
-624.434	-15.248	-0.261	0.168
-623.419	-12.904	-0.435	-0.286
-622.405	-102.454	-0.256	0.062
-621.390	-200.000	-0.028	0.188
-620.376	-56.886	0.347	0.154
-619.361	-66.745	0.100	-0.040
-618.346	-97.306	0.407	0.107
-617.332	-80.950	0.243	-0.081
-616.317	-200.000	-0.033	0.224
-615.303	113.363	0.188	-0.230
-614.288	373.612	-0.062	0.127
-613.273	-200.000	0.433	0.000
-612.259	-34.517	-0.203	-0.112
-611.244	-200.000	0.030	-0.158
-610.230	-50.648	0.082	0.039
-609.215	-200.000	-0.040	0.219
-608.201	334.592	-0.051	-0.100
-607.186	27.876	0.313	-0.266
-606.171	311.968	-0.061	-0.115
-605.157	38.697	0.279	0.250
-604.142	265.245	0.049	-0.086
-603.128	255.013	-0.095	0.163
-602.113	-108.715	0.039	0.009
-601.098	149.317	-0.037	0.050
-600.084	-132.161	-0.094	-0.012
-599.069	-200.000	-0.004	0.226
-598.055	-11.165	0.227	0.151
-597.040	-12.262	-0.119	0.078
-596.025	-48.304	-0.190	-0.092
-595.011	800.000	-0.051	-0.148
-593.996	-0.943	0.202	0.144
-592.982	61.894	0.154	0.154
-591.967	259.078	-0.073	0.126
-590.952	-37.019	-0.236	0.128
-589.938	800.000	0.019	0.070
-588.923	20.858	-0.380	-0.310
-587.909	189.273	-0.229	0.346
-586.894	122.319	-0.037	-0.046
-585.879	-200.000	0.024	0.383
-584.865	43.959	0.154	0.142
-583.850	-84.844	0.092	0.029
-582.836	591.578	-0.086	-0.214
-581.821	800.000	-0.016	-0.052
-580.806	-96.643	-0.187	-0.050
-579.792	800.000	0.049	0.163
-578.777	800.000	0.052	0.200
-577.763	-184.410	-0.367	-0.006
-576.748	-16.372	-0.284	-0.182
-575.733	-12.898	0.365	-0.239
-574.719	-126.909	0.174	-0.026
-573.704	312.776	-0.079	0.148
-572.690	-143.146	-0.557	-0.054
-571.675	-132.673	-0.200	0.026
-570.661	185.016	-0.114	0.170
-569.646	-66.923	-0.096	-0.038
-568.631	800.000	0.065	-0.219
-567.617	149.403	0.240	-0.327
-566.602	180.311	-0.075	0.110
-565.588	-200.000	0.133	0.632
-564.573	800.000	0.052	0.225
-563.558	-144.350	0.371	-0.035
-562.544	128.903	-0.119	0.152
-561.529	-47.514	-0.059	-0.029
-560.515	-107.009	0.144	-0.032
-559.500	-46.961	0.263	0.129
-558.485	41.019	-0.228	-0.207
-557.471	-61.306	0.311	-0.132
-556.456	-200.000	-0.034	0.236
-555.442	-64.629	0.069	0.028
-554.427	-56.084	-0.190	-0.085
-553.412	271.161	-0.199	-0.352
-552.398	317.738	0.088	-0.168
-551.383	-200.000	-0.004	-0.153
-550.369	800.000	-0.058	-0.218
-549.354	800.000	0.037	0.107
-548.339	-112.237	-0.191	-0.038
-547.325	-66.932	-0.186	0.074
-546.310	800.000	0.033	-0.111
-545.296	-15.799	0.144	0.092
-544.281	356.716	-0.045	-0.091
-543.266	-200.000	0.051	-0.258
-542.252	800.000	-0.013	0.043
-541.237	-200.000	-0.053	0.236
-540.223	135.331	-0.081	0.106
-539.208	398.993	0.044	0.092
-538.193	193.368	-0.129	0.197
-537.179	150.064	-0.113	-0.155
-536.164	455.066	-0.104	-0.231
-535.150	-106.580	-0.303	-0.068
-534.135	-200.000	-0.061	0.315
-533.121	750.250	-0.062	-0.168
-532.106	-20.598	0.048	0.030
-531.091	-200.000	-0.007	0.338
-530.077	800.000	0.080	0.233
-529.062	-200.000	0.037	0.362
-528.048	351.699	-0.069	-0.137
-527.033	284.096	0.165	0.298
-526.018	-148.255	-0.091	0.008
-525.004	-200.000	0.038	0.300
-523.989	106.603	0.190	0.226
-522.975	-186.398	-0.261	0.004
-521.960	-52.205	-0.201	-0.094
-520.945	800.000	0.083	0.253
-519.931	174.310	0.162	0.236
-518.916	-200.000	-0.010	-0.151
-517.902	-96.634	0.387	0.102
-516.887	33.043	0.161	0.140
-515.872	-200.000	-0.029	0.325
-514.858	85.435	0.243	-0.268
-513.843	-200.000	0.016	-0.623
-512.829	21.198	0.230	-0.188
-511.814	86.591	-0.235	-0.260
-510.799	499.141	-0.151	0.348
-509.785	707.526	0.056	0.149
-508.770	-26.847	-0.298	0.175
-507.756	-2.686	-0.183	-0.129
-506.741	30.326	0.212	0.182
-505.726	-200.000	-0.031	0.192
-504.712	210.178	-0.193	0.304
-503.697	176.174	0.155	-0.226
-502.683	-83.332	-0.096	0.031
-501.668	-131.660	-0.048	-0.006
-500.653	102.715	0.140	-0.165
-499.639	14.884	0.019	0.015
-498.624	-200.000	0.008	-0.277
-497.610	-28.141	-0.090	0.052
-496.595	800.000	-0.012	0.038
-495.581	-74.361	0.377	-0.136
-494.566	-200.000	-0.002	-0.127
-493.551	31.971	-0.249	-0.215
-492.537	-175.772	0.218	-0.006
-491.522	219.752	0.117	0.188
-490.508	150.697	0.111	0.151
-489.493	800.000	-0.079	-0.330
-488.478	-200.000	0.016	0.238
-487.464	-9.651	-0.222	-0.148
-486.449	23.282	0.225	0.185
-485.435	-145.652	-0.286	0.026
-484.420	140.712	-0.040	-0.053
-483.405	800.000	0.048	0.207
-482.391	-200.000	-0.007	0.362
-481.376	-200.000	0.040	0.250
-480.362	-200.000	0.009	-0.097
-479.347	-45.906	0.308	0.152
-478.332	206.170	0.099	-0.155
-477.318	-200.000	0.014	0.120
-476.303	137.681	-0.102	-0.134
-475.289	800.000	-0.043	-0.148
-474.274	164.799	-0.287	-0.406
-473.259	-35.929	0.206	-0.112
-472.245	-70.069	0.233	0.089
-471.230	343.380	-0.106	-0.208
-470.216	640.036	-0.079	-0.200
-469.201	62.270	-0.061	0.061
-468.186	476.082	0.149	0.338
-467.172	-54.505	0.101	0.046
-466.157	316.741	-0.154	-0.291
-465.143	353.247	-0.138	-0.274
-464.128	800.000	-0.088	-0.368
-463.113	-60.524	0.131	-0.056
-462.099	-87.730	0.176	-0.053
-461.084	-200.000	-0.036	0.247
-460.070	-35.586	-0.174	-0.094
-459.055	361.287	-0.076	-0.152
-458.040	-149.563	0.203	0.016
-457.026	-122.905	-0.110	0.018
-456.011	800.000	0.100	0.396
-454.997	-200.000	-0.004	-0.666
-453.982	800.000	0.074	-0.215
-452.968	-200.000	0.049	-0.357
-451.953	800.000	0.040	0.120
-450.938	18.902	0.147	0.118
-449.924	-22.717	-0.225	0.136
-448.909	-69.062	-0.074	0.029
-447.895	-200.000	-0.021	0.232
-446.880	72.289	-0.061	-0.063
-445.865	-38.141	0.324	-0.172
-444.851	-155.707	-0.179	-0.011
-443.836	-30.314	-0.114	0.065
-442.822	558.373	0.169	0.409
-441.807	-200.000	0.065	-0.417
-440.792	800.000	-0.138	0.412
-439.778	9.831	-0.479	0.364
-438.763	-200.000	-0.066	-0.479
-437.749	583.044	-0.197	-0.485
-436.734	67.861	-0.076	0.078
-435.719	-170.190	0.266	0.009
-434.705	-43.251	-0.216	-0.109
-433.690	205.982	-0.035	0.055
-432.676	-128.558	0.156	0.022
-431.661	-89.379	-0.225	0.066
-430.646	-141.605	0.184	-0.019
-429.632	-45.887	0.175	-0.087
-428.617	83.855	0.132	-0.144
-427.603	176.986	-0.131	0.190
-426.588	96.099	-0.102	-0.117
-425.573	46.852	0.249	-0.232
-424.559	2.367	0.186	-0.135
-423.544	-200.000	-0.042	0.184
-422.530	800.000	0.112	0.323
-421.515	157.026	0.199	-0.275
-420.500	201.868	-0.173	-0.267
-419.486	-76.197	-0.200	-0.071
-418.471	-130.849	-0.317	-0.042
-417.457	-91.866	0.087	-0.025
-416.442	-36.203	-0.129	0.069
-415.428	86.890	0.169	0.186
-414.413	800.000	0.082	0.234
-413.398	-4.101	0.266	-0.184
-412.384	-132.498	0.218	-0.028
-411.369	68.617	0.393	-0.403
-410.355	-200.000	-0.019	0.113
-409.340	538.569	-0.125	0.297
-408.325	9.199	-0.175	-0.132
-407.311	256.274	-0.024	-0.041
-406.296	7.595	0.125	0.094
-405.282	100.128	0.177	0.205
-404.267	-97.452	0.133	0.035
-403.252	-92.414	-0.301	0.085
-402.238	800.000	-0.052	0.199
-401.223	159.028	0.082	-0.114
-400.209	45.411	-0.260	0.239
-399.194	800.000	-0.038	0.142
-398.179	-200.000	-0.044	-0.358
-397.165	202.190	-0.178	-0.274
-396.150	-43.856	-0.101	-0.051
-395.136	-22.510	0.262	0.159
-394.121	16.971	-0.130	-0.103
-393.106	-200.000	-0.039	-0.415
-392.092	-27.521	0.022	-0.013
-391.077	4.998	-0.114	-0.083
-390.063	87.679	-0.140	-0.155
-389.048	185.623	0.227	-0.337
-388.033	-111.167	-0.019	0.004
-387.019	-114.889	0.396	-0.075
-386.004	800.000	-0.019	0.075
-384.990	-67.245	0.190	-0.075
-383.975	800.000	0.095	0.278
-382.960	-105.353	0.182	-0.041
-381.946	30.771	-0.109	0.094
-380.931	800.000	-0.063	-0.203
-379.917	475.039	0.045	0.101
-378.902	75.883	0.124	0.131
-377.888	-182.004	-0.139	0.003
-376.873	-144.923	-0.033	0.003
-375.858	800.000	0.043	0.184
-374.844	339.662	0.072	-0.140
-373.829	204.704	0.132	-0.205
-372.815	-53.100	-0.354	-0.162
-371.800	-181.978	0.229	-0.004
-370.785	-200.000	-0.062	0.456
-369.771	84.634	0.112	-0.122
-368.756	559.948	-0.147	-0.354
-367.742	-46.624	-0.083	-0.041
-366.727	245.886	-0.085	-0.142
-365.712	78.023	-0.047	-0.050
-364.698	364.968	-0.146	-0.294
-363.683	62.174	-0.065	0.065
-362.669	-59.267	0.117	-0.050
-361.654	770.736	0.189	0.514
-360.639	126.590	-0.075	0.095
-359.625	-93.387	0.213	0.059
-358.610	-165.605	-0.292	0.013
-357.596	-96.842	0.098	-0.026
-356.581	-106.960	0.244	-0.054
-355.566	-62.043	-0.134	-0.056
-354.552	-3.957	-0.060	0.042
-353.537	-57.538	-0.287	0.125
-352.523	800.000	0.007	0.026
-351.508	-200.000	0.016	0.372
-350.493	-104.071	0.082	0.019
-349.479	-10.003	-0.180	0.120
-348.464	-200.000	0.019	0.147
-347.450	-194.820	0.063	-0.000
-346.435	116.157	-0.203	-0.247
-345.420	121.234	0.087	0.109
-344.406	468.881	-0.025	-0.056
-343.391	-3.047	-0.272	0.189
-342.377	-38.353	-0.072	-0.038
-341.362	800.000	-0.044	-0.124
-340.348	5.496	-0.145	-0.107
-339.333	127.330	0.037	-0.047
-338.318	628.668	0.220	-0.555
-337.304	-19.560	0.235	0.145
-336.289	49.156	0.190	-0.178
-335.275	13.524	0.189	-0.146
-334.260	800.000	-0.086	0.281
-333.245	660.513	-0.091	-0.234
-332.231	316.351	0.059	-0.111
-331.216	54.076	-0.202	-0.193
-330.202	236.344	-0.098	0.161
-329.187	277.344	0.144	-0.255
-328.172	800.000	0.121	-0.356
-327.158	-33.964	0.357	-0.196
-326.143	-23.177	0.159	-0.095
-325.129	-200.000	-0.001	0.012
-324.114	-132.657	0.091	-0.012
-323.099	553.733	0.148	-0.354
-322.085	-3.313	-0.221	0.154
-321.070	-66.396	-0.260	-0.103
-320.056	-48.221	-0.175	0.084
-319.041	-41.241	-0.205	-0.105
-318.026	14.701	-0.185	-0.144
-317.012	-67.753	0.432	0.168
-315.997	220.181	-0.164	-0.261
-314.983	-115.575	0.159	0.030
-313.968	208.358	-0.031	0.049
-312.953	-132.902	-0.232	0.029
-311.939	190.796	-0.087	0.130
-310.924	152.216	0.202	0.275
-309.910	82.692	-0.149	-0.161
-308.895	137.271	0.205	-0.267
-307.880	800.000	-0.071	-0.216
-306.866	-104.180	0.100	-0.023
-305.851	245.606	-0.108	0.181
-304.837	-25.361	-0.370	-0.218
-303.822	571.739	-0.024	0.058
-302.807	386.301	0.086	0.176
-301.793	58.991	0.088	0.086
-300.778	48.494	-0.268	0.250
-299.764	-38.962	-0.183	0.096
-298.749	274.896	-0.058	-0.102
-297.735	382.651	0.038	0.077
-296.720	269.072	-0.124	0.217
-295.705	-26.854	-0.177	0.103
-294.691	-83.736	0.154	0.049
-293.676	50.349	0.150	-0.141
-292.662	150.373	0.222	0.300
-291.647	80.664	0.141	-0.151
-290.632	-200.000	0.044	-0.193
-289.618	-125.677	-0.349	0.053
-288.603	-200.000	-0.023	0.144
-287.589	-63.582	-0.168	-0.068
-286.574	24.051	0.088	0.072
-285.559	-66.697	0.188	0.074
-284.545	-61.882	0.211	-0.088
-283.530	-42.907	-0.073	-0.037
-282.516	117.076	0.290	-0.355
-281.501	800.000	0.057	0.216
-280.486	599.387	-0.109	0.269
-279.472	-104.085	0.131	-0.030
-278.457	8.346	0.207	-0.155
-277.443	202.044	0.043	0.065
-276.428	423.641	-0.094	0.201
-275.413	233.066	-0.146	-0.238
-274.399	-41.397	0.167	-0.086
-273.384	-200.000	-0.015	0.131
-272.370	182.430	-0.067	-0.098
-271.355	66.961	0.252	-0.256
-270.340	-200.000	0.009	0.282
-269.326	106.595	0.097	0.115
-268.311	-99.635	-0.127	-0.032
-267.297	182.390	-0.162	0.237
-266.282	373.340	-0.036	0.074
-265.267	-200.000	0.025	0.112
-264.253	132.473	-0.176	0.226
-263.238	-137.109	-0.163	-0.018
-262.224	-65.229	-0.084	0.034
-261.209	800.000	0.061	0.210
-260.195	148.541	0.137	-0.184
-259.180	800.000	-0.135	0.457
-258.165	46.911	0.175	0.161
-257.151	-150.833	-0.153	-0.012
-256.136	-104.643	0.309	-0.071
-255.122	329.392	0.125	-0.238
-254.107	-200.000	-0.028	-0.404
-253.092	229.990	0.112	0.181
-252.078	-120.398	-0.173	0.029
-251.063	-200.000	0.021	-0.136
-250.049	-62.181	0.304	-0.126
-249.034	207.937	0.093	-0.144
-248.019	800.000	0.088	0.306
-247.005	145.809	0.149	-0.199
-245.990	121.020	-0.189	0.234
-244.976	94.825	0.327	-0.370
-243.961	381.118	0.064	-0.130
-242.946	-82.902	-0.066	0.021
-241.932	-200.000	0.051	-0.456
-240.917	-126.701	-0.293	0.043
-239.903	-200.000	-0.012	0.251
-238.888	-200.000	-0.034	0.175
-237.873	31.855	-0.106	0.091
-236.859	-200.000	-0.035	-0.220
-235.844	358.528	-0.095	0.188
-234.830	-200.000	0.036	-0.208
-233.815	-111.352	-0.218	0.044
-232.800	152.480	0.130	0.176
-231.786	73.195	0.180	0.187
-230.771	800.000	-0.057	-0.233
-229.757	184.383	-0.323	0.475
-228.742	-200.000	-0.004	-0.020
-227.727	86.217	0.212	0.232
-226.713	-81.692	0.244	0.079
-225.698	384.207	0.027	0.055
-224.684	-200.000	-0.090	0.414
-223.669	-200.000	-0.008	-0.052
-222.655	-49.682	0.261	-0.123
-221.640	131.249	-0.089	0.114
-220.625	-200.000	0.052	-0.527
-219.611	4.764	0.121	-0.088
-218.596	-143.060	-0.208	-0.020
-217.582	276.577	0.105	0.185
-216.567	558.547	-0.035	0.083
-215.552	40.703	0.143	-0.128
-214.538	355.065	0.221	-0.435
-213.523	-110.583	-0.121	0.025
-212.509	800.000	-0.044	0.136
-211.494	-153.594	-0.219	-0.015
-210.479	-42.265	0.304	-0.154
-209.465	205.465	0.080	-0.124
-208.450	12.992	0.228	-0.175
-207.436	593.237	0.014	-0.034
-206.421	189.778	-0.140	0.208
-205.406	57.382	-0.122	0.118
-204.392	193.286	-0.262	0.392
-203.377	-200.000	-0.050	0.304
-202.363	-16.951	-0.078	-0.049
-201.348	307.535	-0.118	-0.218
-200.333	16.373	-0.099	-0.078
-199.319	-129.764	-0.304	-0.041
-198.304	-153.168	0.108	-0.008
-197.290	-119.505	0.129	-0.022
-196.275	-117.742	-0.203	-0.036
-195.260	-111.042	0.208	0.042
-194.246	694.755	-0.042	-0.110
-193.231	-66.751	0.129	0.051
-192.217	-58.358	-0.215	0.092
-191.202	-104.934	-0.139	0.032
-190.187	-200.000	0.008	-0.264
-189.173	-98.620	0.514	0.130
-188.158	-22.665	0.041	0.025
-187.144	-55.334	0.249	0.111
-186.129	-134.613	-0.387	0.047
-185.114	-2.957	-0.333	-0.230
-184.100	436.212	-0.086	0.185
-183.085	-100.240	0.269	0.066
-182.071	-200.000	-0.033	0.210
-181.056	-93.794	0.121	-0.033
-180.042	121.599	0.098	-0.121
-179.027	-109.750	-0.396	0.082
-178.012	-200.000	0.015	0.129
-176.998	116.959	0.182	0.221
-175.983	-117.913	-0.112	-0.020
-174.969	774.172	0.060	-0.161
-173.954	-117.440	0.051	-0.009
-172.939	800.000	0.104	-0.300
-171.925	-195.549	-0.089	0.001
-170.910	139.685	0.112	0.146
-169.896	150.712	0.109	-0.147
-168.881	-19.559	-0.143	0.087
-167.866	-200.000	-0.004	0.110
-166.852	-54.991	0.314	-0.140
-165.837	800.000	0.140	0.396
-164.823	209.359	-0.048	-0.075
-163.808	-99.923	0.337	-0.083
-162.793	95.938	-0.069	-0.078
-161.779	-34.493	-0.134	0.073
-160.764	800.000	0.076	-0.294
-159.750	800.000	-0.024	0.072
-158.735	-42.136	0.320	0.162
-157.720	800.000	0.025	0.094
-156.706	83.590	0.137	-0.147
-155.691	331.916	0.058	0.111
-154.677	107.367	0.245	0.288
-153.662	-56.974	0.201	-0.088
-152.647	5.771	-0.192	0.141
-151.633	72.853	-0.249	0.257
-150.618	-83.874	0.072	-0.023
-149.604	-200.000	-0.003	-0.162
-148.589	102.756	-0.136	0.157
-147.574	-64.503	-0.231	0.093
-146.560	-76.607	-0.115	-0.040
-145.545	30.402	-0.221	-0.187
-144.531	132.324	0.177	0.225
-143.516	158.697	0.042	-0.058
-142.502	370.318	0.157	0.315
-141.487	800.000	0.032	0.090
-140.472	-167.762	0.179	-0.007
-139.458	298.153	0.064	-0.117
-138.443	-53.831	-0.061	-0.027
-137.429	800.000	-0.045	0.168
-136.414	-16.551	0.081	0.051
-135.399	113.358	-0.068	-0.081
-134.385	-200.000	-0.007	-0.124
-133.370	35.592	0.013	-0.011
-132.356	80.092	-0.252	0.268
-131.341	133.147	0.129	-0.164
-130.326	-50.562	0.252	-0.118
-129.312	564.061	-0.054	-0.130
-128.297	-200.000	-0.023	0.119
-127.283	800.000	-0.041	-0.165
-126.268	-42.927	0.125	-0.062
-125.253	71.160	0.211	-0.217
-124.239	-35.470	0.193	0.103
-123.224	37.811	0.100	-0.088
-122.210	386.376	-0.117	0.238
-121.195	75.281	0.163	-0.170
-120.180	-56.259	0.221	0.097
-119.166	60.898	-0.258	0.253
-118.151	-1.010	0.154	0.108
-117.137	358.844	-0.094	-0.186
-116.122	56.653	-0.134	-0.129
-115.107	-23.966	-0.119	-0.070
-114.093	-200.000	-0.006	0.067
-113.078	453.387	0.107	0.234
-112.064	800.000	-0.006	0.020
-111.049	217.924	0.144	0.226
-110.034	16.973	0.024	-0.019
-109.020	52.346	0.037	0.035
-108.005	564.685	-0.083	-0.198
-106.991	800.000	0.136	0.381
-105.976	800.000	-0.029	0.092
-104.962	14.421	-0.126	0.097
-103.947	800.000	0.039	0.166
-102.932	180.424	-0.102	-0.148
-101.918	42.547	-0.030	-0.027
-100.903	-168.779	0.365	-0.014
-99.889	-85.857	-0.339	-0.104
-98.874	-58.734	0.223	-0.095
-97.859	45.073	0.140	-0.127
-96.845	-200.000	-0.276	-0.001
-95.830	-42.902	-0.301	-0.151
-94.816	266.111	-0.123	-0.212
-93.801	-24.609	0.147	0.086
-92.786	265.663	0.142	0.244
-91.772	36.585	-0.137	-0.119
-90.757	800.000	0.077	-0.264
-89.743	-200.000	-0.278	-0.000
-88.728	-5.730	-0.105	0.071
-87.713	1.233	0.134	0.095
-86.699	-131.953	-0.058	0.007
-85.684	776.977	-0.154	0.414
-84.670	283.496	-0.012	-0.022
-83.655	-110.627	0.373	0.076
-82.640	128.775	-0.207	0.260
-81.626	-200.000	-0.053	0.315
-80.611	-83.338	0.132	0.042
-79.597	-200.000	-0.020	0.173
-78.582	93.596	0.145	-0.162
-77.567	-200.000	0.038	-0.333
-76.553	714.973	0.088	0.231
-75.538	-94.481	-0.286	0.077
-74.524	-200.000	-0.038	-0.299
-73.509	483.475	-0.091	0.205
-72.494	-31.546	0.220	0.122
-71.480	800.000	-0.064	-0.200
-70.465	80.555	0.075	-0.080
-69.451	-72.231	-0.190	-0.069
-68.436	59.343	0.013	0.012
-67.422	-200.000	-0.005	-0.169
-66.407	431.615	-0.206	0.440
-65.392	534.776	0.076	0.178
-64.378	-200.000	-0.001	0.058
-63.363	-163.851	0.499	-0.023
-62.349	-99.842	-0.355	0.088
-61.334	24.773	-1.073	-0.877
-60.319	151.078	0.399	0.536
-59.305	-200.000	-0.060	-0.876
-58.290	393.278	0.453	0.930
-57.276	216.992	0.904	1.419
-56.261	-200.000	92.488	535.996
-55.246	483.953	1416.934	3178.393
-54.232	146.488	2630.359	3482.971
-53.217	106.175	2352.711	2747.312
-52.203	44.953	1956.238	1775.834
-51.188	38.689	1739.330	1530.160
-50.173	35.950	1692.890	1468.392
-49.159	51.511	1739.068	1629.036
-48.144	54.621	1756.904	1669.714
-47.130	38.470	1714.989	1506.819
-46.115	35.506	1700.067	1470.984
-45.100	35.374	1695.032	1465.560
-44.086	35.360	1692.110	1462.869
-43.071	35.268	1690.078	1460.354
-42.057	35.275	1687.196	1457.862
-41.042	35.330	1685.567	1456.811
-40.027	35.300	1683.690	1454.902
-39.013	35.249	1682.119	1453.101
-37.998	35.221	1680.291	1451.256
-36.984	35.348	1678.690	1450.771
-35.969	35.485	1677.025	1450.311
-34.954	35.444	1676.294	1449.315
-33.940	35.463	1673.514	1446.994
-32.925	35.491	1671.340	1445.267
-31.911	35.462	1670.022	1443.850
-30.896	35.359	1668.714	1441.891
-29.881	35.354	1666.939	1440.261
-28.867	35.454	1665.218	1439.467
-27.852	35.469	1663.678	1438.193
-26.838	35.457	1661.831	1436.452
-25.823	35.484	1660.890	1435.781
-24.809	35.494	1659.312	1434.438
-23.794	35.484	1658.324	1433.450
-22.779	35.493	1656.395	1431.791
-21.765	35.435	1654.762	1429.891
-20.750	35.327	1653.304	1427.771
-19.736	35.488	1651.729	1427.548
-18.721	35.418	1650.663	1426.055
-17.706	35.448	1649.124	1424.892
-16.692	35.468	1646.754	1422.935
-15.677	35.403	1645.567	1421.369
-14.663	35.448	1644.571	1420.784
-13.648	35.359	1643.122	1418.820
-12.633	35.453	1641.038	1417.658
-11.619	35.515	1639.586	1416.807
-10.604	35.468	1638.122	1415.140
-9.590	35.498	1636.750	1414.117
-8.575	35.387	1635.917	1412.523
-7.560	35.441	1634.249	1411.427
-6.546	35.413	1632.995	1410.076
-5.531	35.407	1632.092	1409.199
-4.517	35.467	1630.562	1408.267
-3.502	35.453	1630.056	1407.667
-2.487	35.580	1628.191	1406.929
-1.473	35.522	1617.464	1397.182
-0.458	33.278	1598.262	1364.386
0.556	27.906	1597.557	1329.340
1.571	25.024	1620.602	1327.090
2.586	23.853	1634.486	1329.588
3.600	21.442	1581.072	1268.554
4.615	12.028	1464.655	1111.493
5.629	2.534	1393.106	995.618
6.644	0.589	1383.870	976.359
7.659	0.379	1382.499	973.951
8.673	0.400	1381.229	973.109
9.688	0.272	1379.533	971.001
10.702	0.064	1376.884	967.712
11.717	4.155	1384.144	999.142
12.731	13.424	1398.419	1069.500
13.746	18.158	1404.461	1104.681
14.761	17.505	1401.506	1098.045
15.775	16.449	1399.141	1089.296
16.790	15.513	1396.205	1080.890
17.804	14.589	1394.182	1073.287
18.819	14.307	1392.594	1070.161
19.834	13.967	1391.344	1066.918
20.848	13.610	1390.227	1063.677
21.863	13.375	1388.983	1061.121
22.877	13.232	1387.590	1059.047
23.892	13.255	1386.442	1058.229
24.907	13.139	1385.764	1056.874
25.921	13.310	1384.462	1056.882
26.936	13.344	1383.781	1056.483
27.950	13.394	1382.822	1055.979
28.965	13.354	1381.719	1054.788
29.980	13.372	1381.291	1054.482
30.994	13.446	1379.991	1053.868
32.009	13.542	1378.925	1053.568
33.023	13.576	1377.886	1052.899
34.038	13.445	1376.596	1050.990
35.053	13.411	1375.540	1049.872
36.067	13.316	1374.592	1048.459
37.082	13.547	1373.062	1048.660
38.096	13.471	1372.497	1047.655
39.111	13.404	1372.105	1046.835
40.126	13.404	1370.983	1045.888
41.140	13.264	1370.226	1044.336
42.155	13.257	1369.764	1043.846
43.169	13.164	1369.805	1043.196
44.184	13.212	1369.278	1043.004
45.199	13.311	1368.491	1042.940
46.213	13.296	1368.570	1042.811
47.228	13.388	1367.142	1042.210
48.242	13.386	1365.876	1041.145
49.257	13.375	1364.342	1039.810
50.271	13.301	1363.109	1038.317
51.286	13.388	1361.568	1037.596
52.301	13.444	1359.862	1036.555
53.315	13.376	1359.543	1035.791
54.330	13.394	1358.555	1035.064
55.344	13.285	1357.016	1033.118
56.359	13.415	1355.937	1033.014
57.374	13.357	1354.990	1031.843
58.388	13.232	1354.504	1030.599
59.403	13.307	1353.852	1030.479
60.417	13.311	1352.982	1029.753
61.432	13.225	1351.995	1028.375
62.447	13.271	1350.951	1027.775
63.461	13.186	1349.571	1026.109
64.476	13.273	1348.427	1025.685
65.490	13.172	1347.787	1024.480
66.505	13.224	1346.057	1023.396
67.520	13.173	1345.202	1022.341
68.534	13.264	1343.888	1021.817
69.549	13.359	1342.112	1020.962
70.563	13.325	1341.442	1020.149
71.578	13.257	1340.023	1018.565
72.593	13.251	1338.907	1017.586
73.607	13.095	1338.938	1016.558
74.622	13.174	1337.669	1015.994
75.636	13.094	1337.224	1015.073
76.651	13.137	1336.617	1014.786
77.666	13.051	1336.160	1013.820
78.680	13.098	1335.288	1013.359
79.695	13.096	1334.147	1012.388
80.709	13.183	1333.370	1012.242
81.724	13.259	1332.561	1012.007
82.739	13.273	1331.259	1011.012
83.753	13.316	1330.579	1010.669
84.768	13.304	1329.165	1009.434
85.782	13.432	1328.002	1009.242
86.797	13.367	1326.640	1007.719
87.812	13.380	1325.747	1007.032
88.826	13.230	1324.709	1005.245
89.841	13.274	1323.308	1004.360
90.855	13.426	1322.528	1004.598
91.870	13.411	1321.449	1003.602
92.884	13.393	1320.875	1002.968
93.899	13.470	1320.342	1002.942
94.914	13.395	1319.259	1001.573
95.928	13.447	1318.431	1001.174
96.943	13.440	1317.470	1000.309
97.957	13.422	1316.526	999.395
98.972	13.403	1315.263	998.236
99.987	13.447	1314.273	997.660
101.001	13.485	1313.358	997.110
102.016	13.368	1312.780	995.876
103.030	13.489	1311.620	995.638
104.045	13.387	1310.922	994.404
105.060	13.351	1309.712	993.185
106.074	13.354	1308.125	991.909
107.089	13.225	1307.094	990.265
108.103	13.233	1305.769	989.221
109.118	13.178	1304.666	987.973
110.133	13.306	1302.953	987.350
111.147	13.322	1301.728	986.428
112.162	13.281	1300.390	985.086
113.176	13.318	1299.350	984.428
114.191	13.374	1298.359	983.925
115.206	13.382	1297.292	983.077
116.220	13.287	1296.061	981.492
117.235	13.281	1295.467	980.920
118.249	13.387	1294.233	980.528
119.264	13.349	1292.756	979.101
120.279	13.344	1291.589	978.100
121.293	13.374	1290.609	977.445
122.308	13.290	1289.647	976.134
123.322	13.275	1288.585	975.156
124.337	13.259	1287.635	974.256
125.352	13.239	1286.613	973.280
126.366	13.288	1285.164	972.389
127.381	13.233	1283.835	970.972
128.395	13.317	1282.620	970.459
129.410	13.330	1282.000	969.979
130.424	13.342	1281.310	969.442
131.439	13.381	1280.097	968.666
132.454	13.480	1279.145	968.442
133.468	13.448	1277.999	967.300
134.483	13.381	1277.717	966.610
135.497	13.415	1276.125	965.520
136.512	13.423	1274.921	964.571
137.527	13.374	1273.779	963.332
138.541	13.358	1272.013	961.819
139.556	13.464	1270.626	961.305
140.570	13.428	1270.412	960.846
141.585	13.489	1269.161	960.171
142.600	13.464	1267.495	958.678
143.614	13.567	1266.790	958.659
144.629	13.550	1265.707	957.657
145.643	13.504	1264.900	956.691
146.658	13.478	1263.611	955.486
147.673	13.502	1261.709	954.099
148.687	13.459	1260.690	952.999
149.702	13.433	1259.464	951.834
150.716	13.315	1258.320	950.210
151.731	13.449	1256.837	949.772
152.746	13.380	1255.555	948.325
153.760	13.481	1254.444	947.980
154.775	13.507	1253.446	947.292
155.789	13.623	1252.292	947.000
156.804	13.686	1250.845	946.178
157.819	13.658	1249.715	945.085
158.833	13.622	1249.309	944.487
159.848	13.646	1248.091	943.618
160.862	13.733	1246.843	943.088
161.877	13.630	1245.805	941.636
162.892	13.582	1244.598	940.367
163.906	13.482	1244.077	939.322
164.921	13.529	1243.142	938.797
165.935	13.548	1242.232	938.134
166.950	13.558	1241.632	937.654
167.964	13.722	1240.503	937.650
168.979	13.603	1240.314	936.748
169.994	13.680	1239.236	936.286
171.008	13.568	1238.435	934.966
172.023	13.673	1237.604	934.848
173.037	13.784	1236.702	934.711
174.052	13.725	1236.004	933.769
175.067	13.752	1234.661	932.823
176.081	13.753	1233.817	932.107
177.096	13.689	1233.194	931.196
178.110	13.629	1232.418	930.191
179.125	13.727	1230.550	929.245
180.140	13.797	1229.376	928.672
181.154	13.781	1228.314	927.699
182.169	13.757	1226.864	926.387
183.183	13.809	1225.999	925.942
184.198	13.818	1224.801	925.006
185.213	13.943	1222.793	924.100
186.227	13.811	1222.601	923.139
187.242	13.940	1221.208	922.724
188.256	13.965	1220.227	922.041
189.271	14.163	1219.021	922.145
190.286	13.914	1218.627	920.384
191.300	13.803	1217.559	918.881
192.315	13.693	1216.864	917.667
193.329	13.729	1216.347	917.395
194.344	13.752	1215.697	916.951
195.359	13.858	1215.094	917.003
196.373	13.858	1214.843	916.732
197.388	13.887	1214.256	916.368
198.402	14.066	1213.253	916.513
199.417	14.113	1212.661	916.244
200.432	14.041	1212.184	915.405
201.446	14.160	1211.168	915.214
202.461	14.178	1209.955	914.316
203.475	14.274	1208.828	913.908
204.490	14.141	1208.032	912.500
205.504	14.094	1206.798	911.228
206.519	14.205	1205.139	910.499
207.534	14.049	1204.791	909.303
208.548	14.100	1203.600	908.603
209.563	14.101	1202.538	907.729
210.577	14.217	1201.597	907.572
211.592	14.185	1200.974	906.843
212.607	14.253	1200.064	906.446
213.621	14.303	1199.376	906.118
214.636	14.232	1198.363	904.885
215.650	14.168	1197.655	903.926
216.665	14.320	1196.548	903.833
217.680	14.349	1195.518	903.133
218.694	14.412	1194.976	902.986
219.709	14.315	1194.138	901.748
220.723	14.347	1193.282	901.192
221.738	14.274	1192.921	900.449
222.753	14.359	1191.842	900.014
223.767	14.352	1191.370	899.539
224.782	14.433	1190.378	899.149
225.796	14.418	1189.550	898.360
226.811	14.450	1189.100	898.112
227.826	14.412	1188.348	897.263
228.840	14.505	1187.598	897.114
229.855	14.450	1187.179	896.423
230.869	14.524	1185.872	895.758
231.884	14.360	1185.814	894.754
232.899	14.437	1184.789	894.310
233.913	14.417	1183.855	893.424
234.928	14.552	1182.662	893.163
235.942	14.477	1182.469	892.539
236.957	14.337	1181.497	890.975
237.972	14.449	1180.541	890.778
238.986	14.571	1179.432	890.512
240.001	14.496	1179.382	889.997
241.015	14.373	1178.520	888.607
242.030	14.588	1177.359	888.803
243.045	14.606	1176.581	888.230
244.059	14.589	1176.097	887.698
245.074	14.690	1174.940	887.281
246.088	14.590	1174.666	886.466
247.103	14.675	1173.625	886.051
248.117	14.788	1172.916	886.035
249.132	14.709	1172.178	884.981
250.147	14.814	1171.333	884.825
251.161	14.843	1170.451	884.234
252.176	14.865	1170.170	884.058
253.190	14.912	1169.377	883.631
254.205	14.971	1168.600	883.277
255.220	14.920	1168.325	882.720
256.234	14.975	1167.429	882.256
257.249	14.860	1167.182	881.381
258.263	14.981	1166.037	881.080
259.278	15.004	1165.465	880.690
260.293	15.070	1164.927	880.553
261.307	14.982	1164.728	879.860
262.322	15.052	1163.968	879.577
263.336	15.038	1163.115	878.783
264.351	15.127	1162.684	878.845
265.366	15.174	1161.628	878.213
266.380	15.160	1161.090	877.659
267.395	15.142	1159.957	876.629
268.409	15.029	1159.632	875.715
269.424	15.113	1159.342	875.856
270.439	15.165	1158.241	875.219
271.453	15.197	1157.438	874.700
272.468	15.177	1156.676	873.945
273.482	15.084	1155.848	872.758
274.497	15.170	1155.417	872.800
275.512	15.078	1154.934	871.883
276.526	15.207	1153.738	871.571
277.541	15.157	1153.039	870.710
278.555	15.233	1152.455	870.584
279.570	15.292	1151.834	870.343
280.585	15.289	1150.875	869.525
281.599	15.264	1150.129	868.756
282.614	15.256	1148.972	867.765
283.628	15.308	1147.723	867.013
284.643	15.483	1146.413	866.849
285.657	15.345	1146.257	865.944
286.672	15.414	1144.812	865.132
287.687	15.412	1144.168	864.558
288.701	15.415	1143.263	863.814
289.716	15.404	1142.463	863.076
290.730	15.387	1142.167	862.690
291.745	15.496	1141.281	862.501
292.760	15.394	1140.923	861.633
293.774	15.473	1140.103	861.339
294.789	15.626	1139.420	861.536
295.803	15.541	1138.910	860.635
296.818	15.536	1138.314	860.084
297.833	15.543	1137.425	859.371
298.847	15.543	1136.831	858.846
299.862	15.470	1135.924	857.713
300.876	15.623	1134.997	857.719
301.891	15.638	1134.536	857.373
302.906	15.746	1133.372	856.966
303.920	15.708	1132.736	856.215
304.935	15.755	1132.493	856.193
305.949	15.815	1131.524	855.691
306.964	15.773	1130.710	854.789
307.979	15.718	1130.078	853.956
308.993	15.734	1129.634	853.626
310.008	15.918	1128.447	853.587
311.022	15.865	1128.168	853.028
312.037	15.782	1127.263	851.848
313.052	15.752	1126.403	850.971
314.066	15.741	1125.206	849.936
315.081	15.692	1124.490	849.074
316.095	15.715	1123.802	848.597
317.110	15.696	1123.238	847.998
318.125	15.735	1122.265	847.387
319.139	15.661	1121.965	846.713
320.154	15.765	1120.990	846.422
321.168	15.784	1120.423	846.015
322.183	15.678	1120.029	845.112
323.197	15.845	1119.130	845.197
324.212	15.796	1118.486	844.391
325.227	15.843	1118.072	844.240
326.241	15.894	1117.507	843.990
327.256	15.940	1116.287	843.225
328.270	15.785	1115.465	841.754
329.285	15.745	1114.774	840.957
330.300	15.856	1113.728	840.650
331.314	15.918	1112.781	840.171
332.329	15.863	1111.787	839.070
333.343	15.956	1110.585	838.554
334.358	16.049	1109.966	838.473
335.373	15.993	1109.150	837.503
336.387	15.956	1108.567	836.809
337.402	16.078	1107.928	836.857
338.416	16.071	1106.921	835.987
339.431	16.008	1106.704	835.438
340.446	16.086	1106.163	835.343
341.460	16.207	1105.187	835.132
342.475	16.142	1104.139	833.941
343.489	16.248	1103.059	833.577
344.504	16.231	1102.250	832.810
345.519	16.351	1101.394	832.677
346.533	16.237	1100.918	831.681
347.548	16.323	1100.159	831.459
348.562	16.440	1099.164	831.209
349.577	16.210	1098.689	829.644
350.592	16.241	1098.055	829.244
351.606	16.193	1097.275	828.349
352.621	16.232	1096.673	828.013
353.635	16.310	1095.859	827.705
354.650	16.269	1094.685	826.544
355.665	16.264	1094.073	825.984
356.679	16.264	1093.460	825.450
357.694	16.410	1092.848	825.627
358.708	16.405	1092.453	825.232
359.723	16.452	1091.621	824.759
360.738	16.418	1091.165	824.175
361.752	16.484	1090.472	823.904
362.767	16.411	1090.383	823.405
363.781	16.387	1089.568	822.603
364.796	16.402	1089.209	822.328
365.810	16.554	1088.280	822.294
366.825	16.616	1087.654	822.049
367.840	16.771	1086.607	821.940
368.854	16.654	1086.373	821.122
369.869	16.668	1085.758	820.652
370.883	16.623	1084.769	819.612
371.898	16.607	1084.035	818.908
372.913	16.665	1083.168	818.465
373.927	16.705	1082.832	818.332
374.942	16.628	1082.480	817.620
375.956	16.633	1082.153	817.321
376.971	16.747	1081.326	817.177
377.986	16.729	1080.782	816.605
379.000	16.843	1079.822	816.356
380.015	16.761	1079.958	815.993
381.029	16.849	1078.896	815.545
382.044	16.883	1078.085	815.020
383.059	16.898	1077.373	814.484
384.073	16.950	1076.923	814.323
385.088	16.942	1075.755	813.325
386.102	16.850	1075.270	812.445
387.117	16.858	1073.975	811.436
388.132	16.797	1073.080	810.395
389.146	16.781	1072.616	809.896
390.161	16.910	1071.294	809.440
391.175	16.979	1070.456	809.069
392.190	16.991	1070.066	808.756
393.205	17.064	1069.019	808.240
394.219	16.983	1068.556	807.436
395.234	16.867	1067.800	806.240
396.248	17.039	1066.594	806.077
397.263	17.089	1065.483	805.405
398.278	16.925	1065.582	804.628
399.292	16.848	1064.448	803.333
400.307	16.987	1063.615	803.293
401.321	17.021	1063.076	802.978
402.336	16.909	1062.675	802.072
403.350	16.944	1062.045	801.693
404.365	17.004	1061.016	801.130
405.380	17.126	1059.892	800.783
406.394	16.969	1059.510	799.684
407.409	17.181	1058.765	800.049
408.423	17.242	1057.961	799.658
409.438	17.207	1057.155	798.814
410.453	17.298	1056.229	798.472
411.467	17.280	1055.988	798.131
412.482	17.342	1055.200	797.760
413.496	17.310	1054.697	797.156
414.511	17.221	1054.113	796.229
415.526	17.334	1053.661	796.345
416.540	17.247	1053.533	795.772
417.555	17.345	1052.835	795.633
418.569	17.446	1052.129	795.498
419.584	17.456	1051.717	795.164
420.599	17.407	1051.265	794.524
421.613	97.277	1313.897	1434.956
422.628	89.551	1352.146	1435.060
