DTS Sentinel unit serial number:	SN413079Multiplexer serial number:	ORYXHardware model number:	OX4-SRSoftware version number:	ORYX F/W v4.00 Oryx Data Collector v3.7.2.0data status	okinstallation	princeton_trtdifferential loss correction	single-endedforward channel	channel 2reverse channel	N/Adate	2019/09/14time	06:31:35forward acquisition time	60.00reverse acquisition time	0.00gamma	496.2192k internal	0.2337k external	0.2337temperature offset calibration	1.0132default loss term (dB/km)	0.3790temperature slope calibration	1.0000multiplexer offset coefficient	1.0000multiplexer slope coefficient	1.0000fibre end	0.00T internal ref (°C)	26.44T ext. ref 1 (°C)	3.42T ext. ref 2 (°C)	20.40length (m)	temperature (°C)	Stokes	anti-Stokes-747.200	223.712	-0.188	0.304
-746.185	361.797	0.111	0.224
-745.171	197.011	-0.134	-0.206
-744.156	-122.340	0.215	-0.035
-743.142	-200.000	0.007	-0.046
-742.127	-200.000	-0.006	0.029
-741.112	221.667	-0.143	-0.230
-740.098	-200.000	-0.023	0.364
-739.083	169.970	0.030	0.044
-738.069	704.116	0.054	0.143
-737.054	-200.000	0.006	-0.090
-736.039	-73.403	-0.191	-0.070
-735.025	231.757	0.075	-0.123
-734.010	-61.837	-0.127	-0.053
-732.996	-22.801	-0.236	0.143
-731.981	674.255	-0.036	-0.094
-730.966	-166.090	-0.277	-0.012
-729.952	225.987	-0.047	0.076
-728.937	77.713	-0.211	-0.226
-727.923	-173.014	-0.193	-0.006
-726.908	-88.506	0.147	0.044
-725.894	-134.751	-0.313	-0.038
-724.879	800.000	0.082	0.249
-723.864	-59.821	-0.201	-0.086
-722.850	47.306	0.248	-0.232
-721.835	206.295	-0.125	0.195
-720.821	-99.430	-0.329	0.083
-719.806	209.784	0.060	-0.094
-718.791	-200.000	0.008	-0.308
-717.777	-72.494	0.083	-0.031
-716.762	335.089	-0.149	0.290
-715.748	-200.000	0.021	0.219
-714.733	-200.000	0.005	-0.050
-713.718	-75.759	-0.025	0.009
-712.704	279.797	-0.228	-0.409
-711.689	-200.000	0.003	-0.371
-710.675	212.506	-0.251	-0.397
-709.660	800.000	0.077	-0.331
-708.645	800.000	-0.081	0.230
-707.631	143.147	0.155	0.206
-706.616	-162.714	-0.298	-0.015
-705.602	-200.000	0.009	-0.115
-704.587	-26.260	-0.374	0.220
-703.572	82.453	-0.168	-0.182
-702.558	-9.784	-0.308	-0.206
-701.543	800.000	0.043	-0.156
-700.529	145.396	0.233	0.312
-699.514	44.030	-0.278	0.255
-698.499	75.400	0.307	0.325
-697.485	-136.087	-0.224	-0.026
-696.470	-63.225	-0.373	-0.154
-695.456	-200.000	-0.030	-0.371
-694.441	-200.000	-0.011	-0.199
-693.426	-12.003	0.121	-0.079
-692.412	-200.000	-0.024	0.223
-691.397	294.129	-0.036	0.065
-690.383	-35.263	0.257	-0.140
-689.368	800.000	0.136	-0.523
-688.354	39.081	-0.231	-0.207
-687.339	629.256	-0.076	-0.193
-686.324	76.918	0.126	-0.134
-685.310	-78.143	-0.190	-0.065
-684.295	-145.644	-0.387	-0.035
-683.281	-200.000	0.017	-0.356
-682.266	379.224	-0.085	0.175
-681.251	151.947	0.122	-0.167
-680.237	4.773	0.037	-0.027
-679.222	800.000	0.018	-0.067
-678.208	-200.000	-0.021	-0.159
-677.193	-127.615	0.088	0.013
-676.178	75.680	0.121	0.128
-675.164	-105.168	-0.392	0.090
-674.149	197.089	-0.104	0.159
-673.135	-161.705	-0.137	-0.007
-672.120	-41.623	-0.280	-0.144
-671.105	54.683	0.084	0.081
-670.091	81.242	0.129	0.140
-669.076	198.755	0.145	0.223
-668.062	-200.000	0.039	0.193
-667.047	78.993	0.152	0.163
-666.032	-68.033	-0.554	0.216
-665.018	-195.996	0.310	0.002
-664.003	-200.000	0.027	0.497
-662.989	340.993	-0.053	-0.104
-661.974	-134.644	-0.133	0.016
-660.959	199.824	-0.137	0.211
-659.945	12.792	0.201	0.155
-658.930	-200.000	-0.078	-0.380
-657.916	15.443	-0.177	-0.139
-656.901	-200.000	0.030	0.210
-655.886	147.356	-0.150	-0.202
-654.872	-107.032	0.377	-0.083
-653.857	25.669	0.198	-0.165
-652.843	-200.000	-0.006	0.114
-651.828	8.121	-0.217	-0.163
-650.814	-3.048	-0.413	-0.288
-649.799	-200.000	-0.014	0.103
-648.784	24.517	-0.057	0.047
-647.770	54.138	0.270	-0.260
-646.755	-53.250	0.447	-0.205
-645.741	-200.000	-0.007	-0.258
-644.726	-124.707	-0.298	0.046
-643.711	-200.000	-0.005	-0.121
-642.697	-87.595	-0.105	-0.032
-641.682	-200.000	0.020	0.123
-640.668	282.831	-0.184	-0.330
-639.653	276.110	0.146	0.258
-638.638	484.816	-0.111	-0.253
-637.624	-51.778	0.094	0.044
-636.609	-181.124	0.102	0.002
-635.595	122.109	-0.193	0.241
-634.580	-130.573	-0.242	-0.033
-633.565	6.028	-0.210	-0.155
-632.551	42.451	0.234	0.213
-631.536	-200.000	0.042	0.306
-630.522	34.433	-0.285	0.249
-629.507	-40.760	-0.265	0.137
-628.492	-125.307	-0.272	-0.042
-627.478	47.150	-0.090	0.083
-626.463	-200.000	-0.015	-0.120
-625.449	-200.000	-0.013	-0.216
-624.434	-200.000	-0.034	0.213
-623.419	206.627	-0.161	0.250
-622.405	342.704	0.040	0.077
-621.390	-191.514	0.213	0.002
-620.376	-200.000	0.040	0.286
-619.361	-126.662	-0.185	0.027
-618.346	334.418	-0.184	-0.355
-617.332	101.644	0.183	0.213
-616.317	17.182	-0.064	0.050
-615.303	-200.000	0.075	-0.438
-614.288	800.000	0.037	0.130
-613.273	39.240	0.428	-0.382
-612.259	96.201	-0.192	0.220
-611.244	217.160	0.138	0.219
-610.230	-126.306	-0.046	0.007
-609.215	33.990	-0.274	0.238
-608.201	134.064	0.145	-0.188
-607.186	-88.984	-0.286	0.085
-606.171	-57.016	-0.133	-0.058
-605.157	800.000	0.065	-0.220
-604.142	206.502	0.238	-0.370
-603.128	-143.412	0.334	-0.032
-602.113	664.500	0.075	-0.192
-601.098	-200.000	-0.011	-0.188
-600.084	-63.894	0.173	-0.071
-599.069	195.697	-0.141	0.214
-598.055	173.407	0.195	0.281
-597.040	-49.580	-0.137	0.065
-596.025	-200.000	-0.017	-0.107
-595.011	-200.000	-0.025	0.109
-593.996	-200.000	-0.023	0.208
-592.982	-106.711	0.206	0.046
-591.967	11.610	-0.376	-0.288
-590.952	-200.000	-0.014	0.094
-589.938	181.338	-0.189	-0.277
-588.923	38.656	-0.091	0.081
-587.909	511.215	-0.072	-0.166
-586.894	-142.215	0.432	-0.043
-585.879	800.000	-0.068	0.216
-584.865	62.855	0.077	-0.077
-583.850	250.793	-0.060	-0.101
-582.836	184.106	-0.152	-0.225
-581.821	-54.290	-0.126	-0.057
-580.806	608.414	0.079	-0.196
-579.792	179.444	0.373	-0.545
-578.777	176.577	-0.114	0.165
-577.763	-24.276	-0.092	-0.055
-576.748	-12.619	0.181	0.118
-575.733	-200.000	0.042	-0.297
-574.719	-177.748	0.231	0.006
-573.704	247.727	0.104	-0.175
-572.690	-200.000	-0.092	-0.482
-571.675	-200.000	0.038	0.204
-570.661	-22.968	-0.157	0.094
-569.646	-200.000	-0.029	0.208
-568.631	115.199	-0.108	-0.131
-567.617	173.050	-0.085	-0.123
-566.602	-200.000	0.035	-0.333
-565.588	-101.586	-0.061	-0.015
-564.573	-68.580	0.255	-0.098
-563.558	-150.261	-0.282	-0.022
-562.544	7.225	-0.224	-0.167
-561.529	-200.000	-0.020	-0.158
-560.515	-18.217	-0.162	-0.101
-559.500	-112.699	-0.140	-0.028
-558.485	-5.832	0.201	-0.137
-557.471	681.980	-0.126	0.327
-556.456	800.000	-0.060	-0.203
-555.442	77.842	0.121	0.128
-554.427	50.617	-0.229	-0.216
-553.412	731.003	0.072	-0.191
-552.398	-38.657	-0.146	0.077
-551.383	-200.000	0.049	0.314
-550.369	-27.443	-0.161	-0.093
-549.354	18.197	0.248	-0.197
-548.339	-48.054	0.218	-0.105
-547.325	-56.705	0.245	0.108
-546.310	240.800	-0.152	0.253
-545.296	-200.000	0.003	0.044
-544.281	-200.000	-0.049	-0.302
-543.266	24.658	0.261	-0.215
-542.252	-47.479	-0.195	0.095
-541.237	351.115	-0.127	0.251
-540.223	97.450	-0.089	-0.101
-539.208	800.000	0.022	-0.074
-538.193	-200.000	0.000	-0.115
-537.179	-200.000	0.023	-0.353
-536.164	8.345	0.204	0.152
-535.150	-125.075	0.156	0.024
-534.135	-184.061	-0.184	-0.003
-533.121	800.000	0.021	0.066
-532.106	-136.066	-0.474	-0.055
-531.091	109.758	-0.261	-0.311
-530.077	-135.007	0.324	-0.039
-529.062	139.838	-0.064	0.084
-528.048	128.304	0.048	0.061
-527.033	765.573	0.094	0.255
-526.018	-38.564	0.324	-0.171
-525.004	191.275	0.054	0.081
-523.989	171.383	-0.072	0.103
-522.975	20.593	0.293	-0.236
-521.960	-200.000	-0.032	-0.150
-520.945	271.017	-0.065	0.113
-519.931	-63.057	0.161	0.066
-518.916	800.000	-0.102	0.397
-517.902	-8.506	0.245	-0.164
-516.887	-200.000	0.058	0.276
-515.872	-64.163	0.062	-0.025
-514.858	132.364	0.277	0.355
-513.843	-192.990	0.240	0.002
-512.829	-50.285	0.187	0.088
-511.814	592.574	0.091	-0.223
-510.799	-67.469	0.173	-0.067
-509.785	-1.420	0.139	0.098
-508.770	-200.000	-0.004	0.020
-507.756	-200.000	-0.004	0.165
-506.741	-200.000	-0.019	0.407
-505.726	-4.465	0.281	-0.193
-504.712	125.276	-0.087	0.109
-503.697	634.244	-0.138	-0.348
-502.683	371.679	0.074	0.149
-501.668	-200.000	0.081	0.400
-500.653	444.730	-0.016	-0.035
-499.639	-73.399	-0.329	0.120
-498.624	113.804	-0.201	0.243
-497.610	-40.922	0.195	0.100
-496.595	128.169	-0.134	0.170
-495.581	135.680	0.090	-0.116
-494.566	800.000	0.045	0.141
-493.551	681.374	0.048	-0.124
-492.537	-154.287	-0.314	0.021
-491.522	287.181	0.081	-0.145
-490.508	125.427	0.078	-0.098
-489.493	22.376	-0.401	0.326
-488.478	800.000	0.019	-0.078
-487.464	103.165	-0.232	0.270
-486.449	-86.633	-0.163	-0.050
-485.435	-110.471	-0.344	0.071
-484.420	57.963	0.165	-0.160
-483.405	-200.000	0.001	0.183
-482.391	40.155	0.231	0.206
-481.376	-5.043	-0.074	0.051
-480.362	-32.784	-0.151	0.083
-479.347	-200.000	-0.021	-0.171
-478.332	-22.986	-0.143	-0.086
-477.318	302.689	-0.071	0.130
-476.303	571.624	0.270	0.654
-475.289	-4.116	-0.231	0.159
-474.274	-94.250	0.549	-0.149
-473.259	308.292	-0.072	0.133
-472.245	-200.000	0.003	0.270
-471.230	-200.000	0.040	0.185
-470.216	-174.018	-0.088	-0.003
-469.201	-44.460	-0.338	0.168
-468.186	800.000	0.106	-0.315
-467.172	800.000	0.085	0.271
-466.157	-200.000	-0.223	-0.000
-465.143	-61.598	-0.093	-0.039
-464.128	-200.000	0.048	-0.429
-463.113	-144.726	-0.137	0.013
-462.099	-138.739	0.239	0.026
-461.084	227.785	0.099	-0.161
-460.070	771.808	0.082	-0.222
-459.055	143.022	-0.170	-0.224
-458.040	-200.000	-0.055	-0.250
-457.026	-79.918	0.243	-0.081
-456.011	6.096	0.095	-0.070
-454.997	800.000	-0.070	-0.295
-453.982	400.677	0.085	0.177
-452.968	-51.098	0.147	0.069
-451.953	-97.922	-0.440	-0.113
-450.938	99.310	-0.294	-0.337
-449.924	35.452	0.298	-0.260
-448.909	51.539	-0.159	-0.150
-447.895	-111.386	0.372	0.075
-446.880	731.304	-0.096	0.256
-445.865	-93.941	-0.289	-0.079
-444.851	8.946	-0.209	0.156
-443.836	-200.000	0.050	0.227
-442.822	34.554	-0.043	-0.038
-441.807	-114.473	0.109	0.021
-440.792	222.635	0.129	0.207
-439.778	-200.000	-0.004	-0.204
-438.763	178.499	0.072	0.104
-437.749	487.330	0.025	-0.056
-436.734	51.877	-0.272	0.257
-435.719	-88.690	-0.077	0.023
-434.705	499.045	0.100	-0.229
-433.690	800.000	0.058	-0.194
-432.676	-200.000	0.041	-0.181
-431.661	-126.294	0.156	-0.023
-430.646	21.736	-0.204	-0.165
-429.632	97.962	0.048	-0.055
-428.617	36.494	0.173	0.152
-427.603	-43.605	-0.257	0.128
-426.588	800.000	0.059	0.218
-425.573	-145.049	-0.384	0.035
-424.559	-107.434	0.163	-0.036
-423.544	-154.217	-0.129	-0.009
-422.530	474.622	0.025	-0.056
-421.515	79.284	-0.093	-0.099
-420.500	14.130	0.188	-0.145
-419.486	18.190	0.073	0.058
-418.471	-200.000	-0.020	-0.138
-417.457	-200.000	-0.039	0.268
-416.442	719.800	0.081	0.214
-415.428	27.952	-0.463	0.387
-414.413	601.791	-0.132	-0.324
-413.398	800.000	0.045	-0.180
-412.384	463.689	-0.024	0.054
-411.369	-123.599	0.303	0.048
-410.355	-100.662	-0.130	-0.032
-409.340	-171.081	-0.129	-0.004
-408.325	-87.216	0.093	-0.028
-407.311	-127.287	-0.424	-0.061
-406.296	247.868	0.063	-0.106
-405.282	-200.000	0.003	-0.212
-404.267	-143.212	0.256	0.024
-403.252	-138.125	0.290	-0.032
-402.238	-32.826	-0.291	-0.160
-401.223	299.919	0.114	-0.207
-400.209	19.133	0.223	-0.177
-399.194	-46.852	0.080	0.039
-398.179	93.918	-0.176	0.198
-397.165	-200.000	-0.066	-0.300
-396.150	426.761	0.043	0.092
-395.136	467.795	-0.091	0.203
-394.121	800.000	-0.046	0.157
-393.106	36.504	-0.319	0.279
-392.092	-60.006	-0.116	0.049
-391.077	449.110	0.058	0.126
-390.063	450.413	-0.136	0.296
-389.048	-200.000	0.031	0.229
-388.033	196.987	-0.079	-0.119
-387.019	-25.164	-0.189	-0.111
-386.004	-41.683	0.622	-0.316
-384.990	580.721	0.017	-0.040
-383.975	-115.156	0.221	0.041
-382.960	32.716	-0.239	-0.205
-381.946	-8.410	0.229	-0.152
-380.931	-148.555	0.129	-0.010
-379.917	-129.530	0.142	0.020
-378.902	518.963	-0.044	-0.101
-377.888	287.486	-0.049	-0.088
-376.873	742.260	-0.074	0.198
-375.858	114.746	-0.090	0.108
-374.844	-200.000	0.050	-0.269
-373.829	648.618	0.062	0.156
-372.815	-46.784	-0.161	0.078
-371.800	195.486	0.095	-0.144
-370.785	202.111	0.048	0.073
-369.771	15.911	-0.267	0.208
-368.756	-200.000	-0.009	-0.170
-367.742	-14.252	0.102	0.065
-366.727	-200.000	-0.072	-0.472
-365.712	202.281	-0.139	-0.213
-364.698	800.000	-0.028	-0.107
-363.683	507.603	-0.054	-0.124
-362.669	-1.419	-0.070	-0.049
-361.654	800.000	0.039	0.163
-360.639	-72.695	0.335	-0.122
-359.625	127.233	-0.242	-0.303
-358.610	-40.654	-0.202	0.104
-357.596	800.000	0.047	-0.191
-356.581	800.000	-0.032	-0.113
-355.566	800.000	0.066	-0.237
-354.552	29.181	-0.308	0.258
-353.537	-131.871	-0.242	-0.031
-352.523	-78.116	0.141	-0.048
-351.508	-152.485	-0.116	0.008
-350.493	47.680	-0.071	0.065
-349.479	28.618	-0.149	0.125
-348.464	-64.003	0.397	-0.160
-347.450	-29.947	0.035	0.020
-346.435	-38.242	0.023	0.012
-345.420	-47.217	-0.155	-0.075
-344.406	-140.088	0.217	0.023
-343.391	-127.566	0.398	0.057
-342.377	1.848	0.402	0.287
-341.362	-117.520	-0.006	0.001
-340.348	-46.496	-0.282	0.137
-339.333	-200.000	0.014	-0.108
-338.318	-18.951	-0.327	0.201
-337.304	-200.000	-0.004	0.164
-336.289	800.000	0.167	-0.465
-335.275	800.000	0.066	-0.189
-334.260	-137.742	0.213	-0.024
-333.245	212.595	0.089	-0.138
-332.231	-49.807	-0.279	-0.131
-331.216	116.928	-0.015	0.018
-330.202	-200.000	0.011	0.109
-329.187	-144.191	-0.243	0.022
-328.172	715.247	0.077	-0.202
-327.158	220.099	-0.032	-0.050
-326.143	114.347	-0.150	0.181
-325.129	-46.864	-0.212	0.102
-324.114	58.397	0.128	-0.124
-323.099	-58.496	-0.227	-0.097
-322.085	-112.539	0.064	0.013
-321.070	-200.000	0.009	-0.073
-320.056	4.745	-0.157	0.114
-319.041	11.425	0.062	-0.047
-318.026	785.683	0.034	-0.091
-317.012	-200.000	-0.017	0.128
-315.997	82.996	-0.154	0.166
-314.983	800.000	-0.064	-0.209
-313.968	-93.730	-0.194	0.053
-312.953	57.689	-0.128	-0.124
-311.939	159.016	0.109	0.150
-310.924	103.007	0.114	0.132
-309.910	-144.799	-0.101	0.009
-308.895	94.083	0.101	-0.113
-307.880	-51.866	-0.500	-0.229
-306.866	128.386	0.186	0.233
-305.851	800.000	0.117	0.484
-304.837	-126.126	0.398	-0.059
-303.822	-150.285	-0.162	-0.012
-302.807	-101.830	0.010	-0.002
-301.793	-200.000	0.016	-0.247
-300.778	800.000	-0.038	0.157
-299.764	112.401	-0.201	-0.240
-298.749	-106.561	0.106	0.023
-297.735	-22.514	0.248	-0.148
-296.720	-200.000	0.015	-0.085
-295.705	301.755	-0.030	0.055
-294.691	707.553	0.056	0.147
-293.676	213.495	-0.044	-0.069
-292.662	238.253	0.221	-0.362
-291.647	120.090	-0.212	0.260
-290.632	177.090	-0.068	0.097
-289.618	18.913	0.163	-0.129
-288.603	23.963	0.254	0.206
-287.589	-200.000	-0.013	-0.091
-286.574	-105.079	-0.071	0.016
-285.559	-142.245	-0.283	0.028
-284.545	-200.000	0.027	0.228
-283.530	351.501	0.057	-0.110
-282.516	-153.491	-0.192	-0.013
-281.501	800.000	-0.071	0.293
-280.486	-80.037	0.312	0.103
-279.472	-171.949	0.346	0.011
-278.457	-15.255	0.196	0.124
-277.443	28.000	0.125	-0.104
-276.428	800.000	0.015	0.061
-275.413	509.739	0.022	-0.051
-274.399	147.727	-0.239	-0.317
-273.384	118.023	-0.160	0.195
-272.370	-14.127	-0.070	-0.044
-271.355	-109.929	-0.247	-0.051
-270.340	362.332	-0.057	-0.113
-269.326	-23.783	0.156	0.092
-268.311	193.391	0.232	0.346
-267.297	-19.012	0.132	-0.081
-266.282	387.077	-0.141	-0.287
-265.267	-200.000	-0.042	0.369
-264.253	-33.260	-0.131	0.071
-263.238	162.272	-0.247	-0.341
-262.224	-111.986	0.352	-0.070
-261.209	-88.943	-0.112	0.033
-260.195	39.433	0.220	-0.194
-259.180	313.725	0.044	-0.081
-258.165	800.000	0.043	0.122
-257.151	134.072	0.092	0.118
-256.136	695.683	-0.075	0.194
-255.122	800.000	-0.095	0.356
-254.107	-157.414	-0.247	-0.015
-253.092	-82.158	0.162	0.052
-252.078	69.824	-0.191	0.194
-251.063	47.241	0.064	-0.059
-250.049	-78.159	-0.183	0.062
-249.034	234.290	0.227	0.368
-248.019	-200.000	0.031	-0.229
-247.005	-123.461	0.219	-0.034
-245.990	-21.653	-0.090	0.054
-244.976	-94.358	0.377	-0.101
-243.961	84.290	0.169	-0.182
-242.946	-200.000	0.019	0.742
-241.932	-7.649	-0.204	0.136
-240.917	101.684	0.179	-0.205
-239.903	225.116	-0.034	-0.054
-238.888	24.784	-0.165	-0.134
-237.873	81.993	-0.192	0.204
-236.859	-129.274	-0.108	0.015
-235.844	484.757	0.029	0.064
-234.830	-200.000	-0.024	-0.390
-233.815	-172.170	-0.100	0.003
-232.800	-63.742	-0.194	0.078
-231.786	-77.624	0.238	0.081
-230.771	614.715	-0.068	0.167
-229.757	190.173	-0.127	-0.187
-228.742	-113.121	0.405	-0.079
-227.727	-200.000	-0.027	0.215
-226.713	-200.000	0.041	-0.285
-225.698	82.327	-0.093	-0.099
-224.684	46.423	0.187	0.171
-223.669	35.886	-0.108	-0.093
-222.655	-59.825	0.105	0.044
-221.640	25.851	0.289	0.237
-220.625	800.000	0.066	0.208
-219.611	-100.952	0.082	0.020
-218.596	176.468	0.043	-0.062
-217.582	82.229	-0.089	-0.095
-216.567	-200.000	-0.050	-0.348
-215.552	-15.594	0.307	0.193
-214.538	800.000	0.029	0.116
-213.523	-97.392	-0.054	-0.014
-212.509	-199.537	-0.241	-0.001
-211.494	-21.278	-0.329	0.198
-210.479	-89.453	-0.174	-0.050
-209.465	800.000	0.084	0.256
-208.450	-200.000	0.008	-0.084
-207.436	483.031	-0.072	0.161
-206.421	108.472	0.103	0.121
-205.406	-119.361	0.409	0.070
-204.392	-172.090	-0.204	0.006
-203.377	-17.549	-0.296	0.183
-202.363	-59.332	-0.241	0.102
-201.348	-177.938	0.282	-0.007
-200.333	-40.963	0.368	-0.187
-199.319	-53.552	-0.041	0.018
-198.304	-8.265	-0.150	-0.099
-197.290	-90.029	0.102	0.029
-196.275	-18.192	-0.104	0.064
-195.260	-2.320	-0.165	0.114
-194.246	262.783	-0.058	-0.099
-193.231	79.224	-0.210	-0.221
-192.217	-138.991	0.147	0.016
-191.202	-92.672	0.509	-0.140
-190.187	-200.000	0.005	-0.230
-189.173	107.095	-0.179	0.209
-188.158	800.000	-0.048	0.187
-187.144	-4.562	-0.153	-0.104
-186.129	8.243	-0.056	-0.042
-185.114	-82.389	-0.235	-0.075
-184.100	800.000	-0.100	0.276
-183.085	-133.306	0.347	0.043
-182.071	-200.000	-0.026	0.234
-181.056	430.120	0.043	0.092
-180.042	429.833	0.161	-0.342
-179.027	800.000	-0.072	0.257
-178.012	-167.819	0.572	-0.022
-176.998	-52.679	-0.093	-0.042
-175.983	-55.211	0.320	0.141
-174.969	-154.126	-0.309	-0.021
-173.954	-84.271	0.104	0.032
-172.939	-112.056	0.295	0.058
-171.925	221.002	-0.131	0.207
-170.910	800.000	-0.083	0.309
-169.896	23.305	0.096	-0.077
-168.881	-62.306	-0.145	0.059
-167.866	-145.348	0.153	-0.014
-166.852	118.557	0.123	-0.149
-165.837	99.165	-0.188	-0.214
-164.823	147.917	0.055	-0.073
-163.808	800.000	-0.050	0.149
-162.793	32.184	0.168	0.143
-161.779	-77.972	-0.293	0.099
-160.764	800.000	-0.043	0.129
-159.750	432.775	0.072	-0.154
-158.735	-146.724	-0.410	-0.035
-157.720	-32.055	0.387	-0.212
-156.706	-165.374	0.205	-0.009
-155.691	-200.000	0.020	-0.156
-154.677	-189.673	0.243	0.003
-153.662	800.000	0.139	0.488
-152.647	-151.556	0.211	0.015
-151.633	-43.818	-0.052	0.025
-150.618	-2.173	-0.086	0.059
-149.604	-135.544	0.301	0.035
-148.589	-200.000	0.045	-0.221
-147.574	4.893	0.252	0.182
-146.560	-200.000	-0.002	0.052
-145.545	83.788	0.241	-0.258
-144.531	-200.000	-0.010	-0.081
-143.516	51.465	-0.103	-0.096
-142.502	679.407	-0.102	0.262
-141.487	135.512	-0.076	0.097
-140.472	800.000	0.106	-0.349
-139.458	25.629	-0.350	-0.286
-138.443	800.000	0.013	0.051
-137.429	-96.270	-0.277	-0.072
-136.414	-56.921	-0.114	-0.050
-135.399	17.791	0.153	0.119
-134.385	-200.000	-0.037	-0.296
-133.370	-51.672	0.069	-0.031
-132.356	-200.000	0.021	0.339
-131.341	305.008	0.120	-0.219
-130.326	171.881	0.083	0.117
-129.312	-200.000	0.092	-0.409
-128.297	-6.379	0.384	-0.256
-127.283	-200.000	0.027	0.128
-126.268	-3.607	-0.163	0.111
-125.253	95.545	0.220	0.246
-124.239	12.042	0.111	-0.084
-123.224	-73.494	0.250	-0.089
-122.210	463.851	-0.050	0.108
-121.195	224.858	0.156	-0.247
-120.180	117.434	0.237	0.286
-119.166	-9.581	0.206	-0.135
-118.151	70.110	-0.105	-0.106
-117.137	40.504	0.317	0.280
-116.122	-144.165	0.179	0.016
-115.107	12.515	0.275	-0.208
-114.093	119.329	-0.018	-0.022
-113.078	-200.000	-0.001	-0.011
-112.064	172.671	0.077	0.109
-111.049	60.103	-0.058	-0.056
-110.034	800.000	-0.097	0.262
-109.020	51.703	-0.030	0.028
-108.005	-87.887	0.385	-0.113
-106.991	-200.000	0.026	-0.202
-105.976	214.612	-0.113	0.175
-104.962	-91.790	0.344	0.096
-103.947	-30.150	0.080	0.045
-102.932	800.000	-0.052	0.163
-101.918	-27.851	-0.182	0.103
-100.903	132.553	0.071	-0.089
-99.889	148.780	-0.153	0.202
-98.874	80.678	0.062	-0.065
-97.859	21.365	-0.122	-0.097
-96.845	-200.000	-0.005	-0.041
-95.830	136.097	0.123	-0.157
-94.816	-180.370	-0.093	0.002
-93.801	-46.191	0.193	0.093
-92.786	800.000	-0.037	0.158
-91.772	671.671	0.116	0.295
-90.757	-75.125	-0.183	0.064
-89.743	111.472	0.032	0.038
-88.728	243.693	-0.051	-0.084
-87.713	162.600	-0.097	0.134
-86.699	486.565	-0.100	0.224
-85.684	199.023	0.161	0.241
-84.670	-200.000	0.068	-0.479
-83.655	800.000	-0.038	0.125
-82.640	-10.629	0.153	0.099
-81.626	-200.000	0.012	-0.184
-80.611	8.222	-0.042	-0.031
-79.597	71.800	0.115	-0.117
-78.582	63.761	0.085	-0.084
-77.567	39.954	-0.024	-0.021
-76.553	83.459	0.080	0.085
-75.538	598.336	0.110	0.267
-74.524	-200.000	0.051	0.460
-73.509	138.567	-0.061	0.078
-72.494	-27.696	-0.164	-0.093
-71.480	800.000	0.082	0.272
-70.465	102.971	0.151	-0.173
-69.451	271.000	-0.073	0.125
-68.436	800.000	-0.030	-0.086
-67.422	-39.827	-0.119	0.061
-66.407	76.488	-0.004	0.004
-65.392	-200.000	0.030	0.152
-64.378	-22.780	0.324	0.191
-63.363	-85.092	0.158	0.048
-62.349	-64.926	0.217	-0.086
-61.334	8.197	-1.206	-0.886
-60.319	84.578	0.592	0.633
-59.305	375.353	-0.611	-1.218
-58.290	306.972	0.615	1.119
-57.276	648.350	0.618	1.544
-56.261	-200.000	117.148	643.986
-55.246	490.840	1547.924	3462.019
-54.232	172.960	2729.551	3842.874
-53.217	98.146	2302.209	2590.333
-52.203	35.481	1909.145	1637.506
-51.188	29.580	1701.777	1414.554
-50.173	27.252	1660.449	1362.724
-49.159	47.442	1718.035	1564.501
-48.144	45.999	1732.036	1566.191
-47.130	29.025	1688.800	1399.326
-46.115	26.506	1674.198	1368.149
-45.100	26.292	1670.044	1363.087
-44.086	26.320	1667.291	1360.997
-43.071	26.243	1664.732	1358.281
-42.057	26.261	1662.125	1356.233
-41.042	26.325	1659.605	1354.604
-40.027	26.325	1658.108	1353.326
-39.013	26.315	1656.278	1351.703
-37.998	26.366	1654.373	1350.479
-36.984	26.372	1653.741	1349.949
-35.969	26.357	1652.070	1348.425
-34.954	26.385	1650.196	1347.045
-33.940	26.409	1648.761	1346.003
-32.925	26.375	1646.871	1344.151
-31.911	26.379	1645.387	1342.921
-30.896	26.489	1642.745	1341.521
-29.881	26.389	1641.897	1340.037
-28.867	26.464	1640.384	1339.301
-27.852	26.421	1638.909	1337.727
-26.838	26.416	1637.468	1336.464
-25.823	26.459	1635.888	1335.438
-24.809	26.583	1634.197	1334.916
-23.794	26.500	1633.259	1333.487
-22.779	26.443	1631.671	1331.715
-21.765	26.428	1630.192	1330.350
-20.750	26.449	1628.055	1328.705
-19.736	26.510	1627.193	1328.397
-18.721	26.464	1625.995	1327.028
-17.706	26.400	1624.434	1325.230
-16.692	26.429	1622.884	1324.125
-15.677	26.456	1621.266	1322.950
-14.663	26.406	1620.174	1321.642
-13.648	26.510	1618.436	1320.936
-12.633	26.430	1617.075	1319.184
-11.619	26.450	1615.070	1317.647
-10.604	26.508	1613.765	1316.946
-9.590	26.558	1611.976	1315.798
-8.575	26.534	1610.888	1314.685
-7.560	26.547	1609.342	1313.467
-6.546	26.507	1608.761	1312.650
-5.531	26.397	1608.009	1311.190
-4.517	26.485	1606.683	1310.693
-3.502	26.401	1605.856	1309.354
-2.487	26.557	1603.912	1308.847
-1.473	26.165	1591.419	1295.790
-0.458	23.020	1571.801	1257.427
0.556	20.334	1572.964	1224.958
1.571	17.950	1596.364	1225.976
2.586	17.410	1608.502	1231.278
3.600	15.303	1553.795	1174.554
4.615	9.133	1446.553	1053.042
5.629	4.164	1388.645	979.452
6.644	3.453	1381.640	969.956
7.659	3.333	1380.109	968.043
8.673	3.472	1378.643	967.799
9.688	3.422	1376.870	966.154
10.702	3.393	1374.109	963.954
11.717	5.757	1378.503	981.769
12.731	12.470	1391.307	1033.110
13.746	18.584	1401.121	1078.877
14.761	20.169	1403.255	1090.402
15.775	19.654	1400.852	1085.208
16.790	18.652	1398.190	1076.763
17.804	17.826	1395.691	1069.564
18.819	17.483	1394.619	1066.502
19.834	17.293	1393.900	1064.670
20.848	17.079	1392.603	1062.246
21.863	16.960	1391.147	1060.298
22.877	16.881	1390.023	1058.854
23.892	16.779	1389.228	1057.516
24.907	16.661	1388.654	1056.250
25.921	16.776	1387.583	1056.058
26.936	16.815	1386.459	1055.354
27.950	16.927	1385.494	1055.220
28.965	16.969	1384.195	1054.402
29.980	16.957	1383.367	1053.605
30.994	17.040	1382.391	1053.278
32.009	17.089	1381.296	1052.658
33.023	17.067	1380.403	1051.749
34.038	17.155	1378.207	1050.523
35.053	17.014	1377.083	1048.706
36.067	16.968	1376.351	1047.768
37.082	16.896	1375.618	1046.675
38.096	17.090	1374.152	1046.664
39.111	17.047	1373.668	1045.937
40.126	16.953	1372.271	1044.200
41.140	16.786	1371.157	1042.232
42.155	16.598	1370.974	1040.846
43.169	16.630	1370.987	1040.961
44.184	16.686	1370.089	1040.532
45.199	16.712	1369.525	1040.169
46.213	16.778	1369.253	1040.278
47.228	16.799	1368.792	1039.961
48.242	16.874	1367.692	1039.492
49.257	16.838	1366.102	1037.977
50.271	16.972	1363.790	1036.947
51.286	16.872	1363.386	1035.935
52.301	16.945	1361.523	1034.874
53.315	16.754	1360.818	1033.081
54.330	16.734	1359.529	1031.891
55.344	16.584	1359.035	1030.508
56.359	16.729	1357.510	1030.147
57.374	16.761	1356.671	1029.609
58.388	16.541	1355.966	1027.647
59.403	16.532	1355.614	1027.233
60.417	16.632	1354.276	1026.737
61.432	16.573	1353.739	1025.880
62.447	16.454	1352.669	1024.257
63.461	16.595	1350.661	1023.503
64.476	16.355	1350.084	1021.519
65.490	16.384	1349.080	1020.845
66.505	16.490	1347.784	1020.414
67.520	16.477	1346.554	1019.316
68.534	16.597	1344.838	1018.651
69.549	16.431	1344.319	1017.167
70.563	16.560	1342.770	1016.678
71.578	16.322	1342.282	1014.793
72.593	16.365	1341.021	1014.004
73.607	16.252	1340.453	1012.811
74.622	16.260	1339.840	1012.305
75.636	16.296	1338.914	1011.728
76.651	16.387	1338.184	1011.632
77.666	16.409	1337.543	1011.192
78.680	16.367	1337.275	1010.649
79.695	16.428	1336.543	1010.369
80.709	16.535	1335.927	1010.455
81.724	16.564	1334.898	1009.760
82.739	16.717	1334.259	1010.102
83.753	16.844	1332.977	1009.798
84.768	16.901	1332.111	1009.389
85.782	16.978	1330.897	1008.838
86.797	16.931	1330.035	1007.818
87.812	16.769	1328.897	1005.905
88.826	16.828	1327.736	1005.288
89.841	16.866	1326.789	1004.703
90.855	16.958	1325.574	1004.241
91.870	16.968	1324.611	1003.481
92.884	17.023	1323.442	1002.833
93.899	17.054	1323.393	1002.889
94.914	17.131	1321.939	1002.156
95.928	17.104	1321.105	1001.272
96.943	16.979	1320.719	1000.157
97.957	17.053	1319.299	999.429
98.972	16.835	1318.659	997.571
99.987	16.941	1317.499	997.228
101.001	16.925	1316.569	996.340
102.016	16.933	1315.541	995.521
103.030	16.904	1314.717	994.640
104.045	16.990	1313.623	994.232
105.060	16.803	1312.115	991.908
106.074	16.705	1310.780	990.239
107.089	16.530	1309.201	987.931
108.103	16.502	1308.163	986.902
109.118	16.583	1306.879	986.319
110.133	16.615	1305.027	985.018
111.147	16.525	1304.278	983.842
112.162	16.586	1303.241	983.327
113.176	16.555	1302.337	982.378
114.191	16.682	1301.154	982.136
115.206	16.673	1299.973	981.103
116.220	16.544	1298.840	979.417
117.235	16.642	1297.690	979.029
118.249	16.482	1297.073	977.551
119.264	16.628	1295.275	976.950
120.279	16.484	1294.341	975.334
121.293	16.482	1293.398	974.520
122.308	16.430	1292.149	973.195
123.322	16.363	1290.918	971.797
124.337	16.381	1289.930	971.069
125.352	16.416	1288.574	970.167
126.366	16.392	1288.025	969.527
127.381	16.397	1286.689	968.464
128.395	16.408	1285.800	967.772
129.410	16.565	1284.635	967.709
130.424	16.550	1284.039	967.090
131.439	16.532	1283.397	966.416
132.454	16.610	1282.210	965.885
133.468	16.569	1281.462	964.999
134.483	16.617	1280.922	964.779
135.497	16.678	1279.856	964.242
136.512	16.720	1278.141	963.103
137.527	16.610	1276.858	961.428
138.541	16.631	1275.837	960.692
139.556	16.789	1274.402	960.424
140.570	16.885	1273.819	960.442
141.585	16.910	1272.539	959.534
142.600	16.888	1271.899	958.841
143.614	17.026	1270.427	958.429
144.629	17.147	1268.981	957.936
145.643	17.055	1268.501	956.968
146.658	16.971	1267.000	955.275
147.673	16.929	1265.451	953.786
148.687	16.780	1264.351	952.037
149.702	16.778	1262.899	950.851
150.716	16.726	1261.165	949.168
151.731	16.780	1260.629	948.983
152.746	16.729	1259.366	947.665
153.760	16.820	1258.444	947.393
154.775	16.958	1256.942	946.951
155.789	16.975	1256.190	946.394
156.804	16.971	1255.309	945.624
157.819	17.050	1254.197	945.143
158.833	17.140	1252.995	944.655
159.848	17.132	1252.729	944.328
160.862	17.121	1251.270	943.081
161.877	16.956	1250.027	941.144
162.892	16.810	1249.064	939.526
163.906	16.821	1247.794	938.550
164.921	16.780	1247.272	937.848
165.935	16.773	1246.606	937.228
166.950	16.903	1245.873	937.309
167.964	16.925	1244.455	936.281
168.979	16.837	1244.260	935.565
169.994	16.902	1243.164	935.017
171.008	16.875	1242.541	934.316
172.023	16.994	1242.152	934.599
173.037	17.095	1241.038	934.233
174.052	17.184	1239.853	933.747
175.067	17.066	1238.757	932.190
176.081	16.814	1238.401	930.460
177.096	16.893	1237.262	929.955
178.110	16.948	1236.134	929.324
179.125	16.890	1235.091	928.139
180.140	16.932	1233.428	927.038
181.154	17.106	1232.283	927.046
182.169	17.179	1231.109	926.477
183.183	17.090	1230.398	925.378
184.198	17.167	1229.268	924.865
185.213	17.264	1227.789	924.196
186.227	17.174	1227.378	923.317
187.242	17.282	1226.296	923.005
188.256	17.282	1225.633	922.428
189.271	17.381	1223.641	921.383
190.286	17.249	1222.958	920.070
191.300	16.905	1222.287	917.623
192.315	16.861	1221.213	916.498
193.329	16.886	1220.351	915.908
194.344	17.030	1219.839	916.217
195.359	17.051	1219.715	916.158
196.373	17.098	1219.087	915.856
197.388	17.320	1218.824	916.774
198.402	17.313	1218.390	916.330
199.417	17.407	1217.958	916.431
200.432	17.548	1216.871	916.291
201.446	17.648	1216.260	916.285
202.461	17.641	1215.331	915.470
203.475	17.650	1214.076	914.494
204.490	17.516	1212.777	912.715
205.504	17.381	1211.810	911.182
206.519	17.427	1210.125	910.078
207.534	17.302	1209.248	908.672
208.548	17.290	1208.352	907.853
209.563	17.379	1207.361	907.505
210.577	17.271	1206.682	906.337
211.592	17.509	1205.965	906.986
212.607	17.651	1204.765	906.763
213.621	17.506	1204.042	905.367
214.636	17.515	1203.044	904.584
215.650	17.536	1202.302	904.055
216.665	17.553	1201.383	903.373
217.680	17.815	1200.443	903.976
218.694	17.856	1199.836	903.654
219.709	17.655	1199.141	901.990
220.723	17.630	1198.519	901.310
221.738	17.688	1197.330	900.642
222.753	17.687	1196.455	899.897
223.767	17.728	1196.357	899.962
224.782	17.764	1195.537	899.457
225.796	17.916	1194.695	899.541
226.811	17.888	1193.910	898.725
227.826	17.689	1193.678	897.424
228.840	17.664	1192.867	896.600
229.855	17.612	1191.914	895.533
230.869	17.853	1190.136	895.381
231.884	17.691	1190.059	894.396
232.899	17.562	1189.485	893.211
233.913	17.622	1188.430	892.651
234.928	17.553	1187.601	891.590
235.942	17.587	1186.522	890.878
236.957	17.528	1186.362	890.373
237.972	17.555	1185.843	890.041
238.986	17.523	1184.869	889.067
240.001	17.725	1183.798	889.236
241.015	17.648	1183.002	888.159
242.030	17.731	1182.158	887.879
243.045	17.821	1181.387	887.693
244.059	17.913	1180.777	887.633
245.074	17.825	1180.000	886.513
246.088	17.991	1178.842	886.427
247.103	17.937	1178.669	885.936
248.117	17.978	1177.670	885.323
249.132	18.087	1177.367	885.578
250.147	18.285	1176.920	886.190
251.161	18.488	1175.799	886.314
252.176	18.383	1175.237	885.270
253.190	18.434	1174.684	885.039
254.205	18.415	1174.550	884.760
255.220	18.530	1173.429	884.433
256.234	18.504	1172.834	883.771
257.249	18.487	1171.937	882.934
258.263	18.476	1171.622	882.557
259.278	18.464	1170.797	881.799
260.293	18.527	1170.026	881.463
261.307	18.525	1169.787	881.198
262.322	18.596	1169.014	880.900
263.336	18.645	1168.230	880.481
264.351	18.629	1167.841	880.030
265.366	18.738	1166.715	879.659
266.380	18.633	1166.166	878.632
267.395	18.572	1165.544	877.771
268.409	18.534	1164.526	876.733
269.424	18.484	1163.964	875.980
270.439	18.490	1163.363	875.479
271.453	18.356	1162.613	874.150
272.468	18.480	1161.607	873.949
273.482	18.527	1160.604	873.360
274.497	18.421	1160.371	872.569
275.512	18.462	1159.672	872.173
276.526	18.435	1158.886	871.368
277.541	18.471	1158.034	870.832
278.555	18.496	1157.383	870.392
279.570	18.617	1156.649	870.378
280.585	18.782	1155.458	870.238
281.599	18.770	1154.703	869.536
282.614	18.672	1153.919	868.371
283.628	18.583	1153.126	867.248
284.643	18.590	1152.030	866.384
285.657	18.566	1151.115	865.496
286.672	18.597	1150.281	864.946
287.687	18.679	1149.341	864.576
288.701	18.670	1148.874	864.103
289.716	18.766	1147.406	863.405
290.730	18.658	1146.856	862.373
291.745	18.801	1146.226	862.543
292.760	18.599	1145.953	861.247
293.774	18.810	1145.428	861.835
294.789	18.996	1144.408	861.925
295.803	18.971	1143.829	861.283
296.818	18.798	1143.414	860.028
297.833	18.750	1142.549	859.061
298.847	18.757	1142.002	858.612
299.862	18.854	1140.625	857.986
300.876	18.810	1140.258	857.415
301.891	18.985	1139.250	857.451
302.906	18.888	1138.966	856.677
303.920	19.095	1138.094	856.978
304.935	19.093	1137.610	856.526
305.949	19.189	1136.855	856.359
306.964	19.092	1136.543	855.566
307.979	19.100	1135.374	854.648
308.993	19.142	1135.037	854.530
310.008	19.072	1134.149	853.439
311.022	19.143	1133.284	853.066
312.037	19.189	1132.185	852.389
313.052	19.120	1130.854	850.970
314.066	19.018	1130.147	849.860
315.081	18.843	1129.472	848.414
316.095	18.944	1128.642	848.213
317.110	18.951	1128.400	847.988
318.125	18.895	1127.542	846.996
319.139	18.972	1126.538	846.543
320.154	18.928	1125.693	845.617
321.168	19.028	1125.151	845.625
322.183	19.069	1124.834	845.515
323.197	19.114	1124.045	845.071
324.212	19.089	1123.695	844.608
325.227	19.032	1123.315	843.969
326.241	19.043	1122.484	843.326
327.256	19.050	1121.578	842.603
328.270	19.219	1120.251	842.357
329.285	19.027	1119.727	840.953
330.300	19.000	1118.692	839.966
331.314	19.034	1117.967	839.514
332.329	19.180	1116.611	839.133
333.343	19.174	1115.796	838.415
334.358	19.181	1115.406	838.085
335.373	19.230	1114.689	837.711
336.387	19.211	1113.799	836.874
337.402	19.326	1112.927	836.702
338.416	19.383	1112.606	836.663
339.431	19.212	1111.797	835.155
340.446	19.494	1111.301	836.074
341.460	19.632	1110.622	836.154
342.475	19.589	1110.135	835.508
343.489	19.620	1108.803	834.583
344.504	19.678	1107.988	834.172
345.519	19.622	1106.954	833.050
346.533	19.783	1106.030	833.060
347.548	19.816	1105.372	832.647
348.562	19.739	1104.773	831.753
349.577	19.564	1104.101	830.331
350.592	19.535	1103.292	829.507
351.606	19.439	1102.147	828.115
352.621	19.502	1101.101	827.558
353.635	19.489	1100.643	827.079
354.650	19.439	1099.948	826.243
355.665	19.477	1099.353	825.907
356.679	19.598	1098.494	825.763
357.694	19.598	1098.153	825.436
358.708	19.640	1097.832	825.321
359.723	19.643	1097.377	824.922
360.738	19.655	1096.352	824.135
361.752	19.637	1096.041	823.740
362.767	19.638	1095.542	823.296
363.781	19.693	1094.624	822.798
364.796	19.803	1094.112	822.866
365.810	19.876	1093.844	822.935
366.825	20.059	1093.229	823.269
367.840	20.044	1092.605	822.658
368.854	20.104	1091.697	822.185
369.869	20.074	1090.975	821.425
370.883	19.949	1090.110	820.111
371.898	19.893	1089.680	819.447
372.913	19.831	1089.235	818.749
373.927	19.970	1088.323	818.646
374.942	20.036	1087.944	818.602
375.956	20.078	1087.597	818.465
376.971	20.078	1086.696	817.715
377.986	20.088	1086.166	817.293
379.000	20.190	1085.585	817.265
380.015	20.271	1085.407	817.438
381.029	20.323	1084.753	817.116
382.044	20.251	1084.182	816.275
383.059	20.300	1082.816	815.405
384.073	20.224	1082.456	814.706
385.088	20.319	1081.227	814.156
386.102	20.327	1080.346	813.456
387.117	20.119	1079.527	811.796
388.132	20.026	1078.829	810.763
389.146	20.049	1077.694	809.945
390.161	20.035	1076.991	809.279
391.175	20.125	1075.775	808.712
392.190	20.109	1075.796	808.585
393.205	20.200	1075.091	808.405
394.219	20.219	1074.117	807.691
395.234	20.154	1073.136	806.580
396.248	20.073	1072.338	805.533
397.263	20.116	1071.069	804.706
398.278	20.014	1070.373	803.638
399.292	20.120	1069.286	803.245
400.307	20.063	1069.067	802.744
401.321	20.019	1068.064	801.719
402.336	20.123	1067.927	802.023
403.350	20.148	1066.828	801.245
404.365	20.237	1066.064	801.009
405.380	20.257	1065.517	800.621
406.394	20.238	1064.845	799.958
407.409	20.415	1063.845	799.950
408.423	20.358	1063.984	799.720
409.438	20.481	1063.266	799.675
410.453	20.538	1062.321	799.159
411.467	20.600	1061.233	798.553
412.482	20.594	1061.064	798.329
413.496	20.740	1060.390	798.421
414.511	20.720	1059.785	797.800
415.526	20.801	1059.071	797.567
416.540	20.988	1058.593	797.988
417.555	20.833	1058.268	796.967
418.569	20.737	1057.653	795.995
419.584	20.732	1057.255	795.598
420.599	20.671	1056.886	794.973
421.613	155.697	1404.374	1797.644
422.628	143.011	1454.983	1797.721
