DTS Sentinel unit serial number:	SN413079Multiplexer serial number:	ORYXHardware model number:	OX4-SRSoftware version number:	ORYX F/W v4.00 Oryx Data Collector v3.7.2.0data status	okinstallation	princeton_trtdifferential loss correction	single-endedforward channel	channel 2reverse channel	N/Adate	2019/09/16time	00:19:35forward acquisition time	60.00reverse acquisition time	0.00gamma	496.2192k internal	0.2337k external	0.2337temperature offset calibration	0.9959default loss term (dB/km)	0.3790temperature slope calibration	1.0000multiplexer offset coefficient	1.0000multiplexer slope coefficient	1.0000fibre end	0.00T internal ref (°C)	27.66T ext. ref 1 (°C)	9.50T ext. ref 2 (°C)	21.51length (m)	temperature (°C)	Stokes	anti-Stokes-747.200	272.063	-0.054	-0.095
-746.185	99.632	0.101	-0.117
-745.171	-135.128	-0.296	0.036
-744.156	456.750	0.219	0.489
-743.142	-167.293	0.322	0.013
-742.127	108.491	-0.168	0.201
-741.112	-150.236	-0.243	-0.019
-740.098	-88.988	-0.140	-0.042
-739.083	335.432	-0.071	0.138
-738.069	-200.000	-0.483	0.002
-737.054	27.422	-0.106	0.090
-736.039	800.000	-0.105	-0.294
-735.025	-179.343	0.161	-0.004
-734.010	-200.000	-0.007	-0.062
-732.996	288.078	-0.156	-0.283
-731.981	592.630	0.017	-0.042
-730.966	159.854	-0.185	-0.258
-729.952	634.037	0.096	-0.244
-728.937	84.614	-0.074	-0.081
-727.923	127.183	0.103	-0.132
-726.908	636.752	0.044	-0.113
-725.894	800.000	0.087	0.325
-724.879	800.000	0.028	-0.098
-723.864	-17.906	0.181	0.114
-722.850	-198.614	-0.550	0.003
-721.835	800.000	-0.086	-0.316
-720.821	-47.029	-0.115	0.056
-719.806	103.401	0.202	-0.237
-718.791	-66.961	0.335	-0.133
-717.777	-200.000	0.001	-0.532
-716.762	-34.216	-0.379	-0.209
-715.748	-200.000	0.048	-0.276
-714.733	13.359	0.151	0.117
-713.718	531.551	0.083	0.198
-712.704	-29.085	-0.218	0.125
-711.689	-200.000	-0.017	-0.132
-710.675	800.000	0.112	-0.441
-709.660	13.351	-0.042	-0.033
-708.645	425.129	0.049	0.105
-707.631	-200.000	-0.008	-0.066
-706.616	127.489	0.110	-0.140
-705.602	-200.000	0.001	-0.276
-704.587	-8.381	0.086	-0.058
-703.572	6.154	0.053	0.039
-702.558	-180.088	-0.468	-0.010
-701.543	-200.000	-0.012	0.251
-700.529	219.048	0.114	0.183
-699.514	343.239	-0.100	-0.196
-698.499	114.965	-0.090	-0.110
-697.485	37.415	0.145	-0.129
-696.470	-19.837	-0.263	-0.163
-695.456	215.894	-0.013	0.020
-694.441	283.983	0.062	-0.112
-693.426	800.000	-0.013	0.044
-692.412	-26.231	-0.273	-0.160
-691.397	-49.119	-0.237	-0.114
-690.383	34.447	-0.244	0.213
-689.368	619.939	-0.071	-0.178
-688.354	102.982	0.180	0.212
-687.339	327.285	-0.036	0.069
-686.324	434.217	-0.110	0.240
-685.310	-162.060	0.524	-0.026
-684.295	-7.042	-0.182	0.124
-683.281	-84.111	-0.450	-0.143
-682.266	397.506	-0.036	0.076
-681.251	318.057	0.095	-0.180
-680.237	-144.377	0.501	-0.047
-679.222	-3.168	0.246	0.172
-678.208	800.000	0.027	-0.080
-677.193	390.502	0.086	0.179
-676.178	631.613	0.028	0.072
-675.164	-200.000	-0.012	-0.195
-674.149	5.424	-0.226	0.167
-673.135	-147.070	0.712	-0.061
-672.120	-19.129	-0.315	0.196
-671.105	320.171	-0.076	0.145
-670.091	-112.054	-0.209	0.042
-669.076	208.136	-0.238	0.372
-668.062	800.000	-0.040	0.114
-667.047	-46.975	-0.118	-0.058
-666.032	182.684	0.139	-0.206
-665.018	383.698	-0.183	-0.377
-664.003	26.960	-0.159	0.133
-662.989	27.140	-0.291	-0.244
-661.974	-200.000	-0.041	-0.490
-660.959	-188.746	-0.252	0.003
-659.945	-113.315	-0.321	-0.063
-658.930	800.000	0.026	0.112
-657.916	800.000	-0.060	-0.168
-656.901	-200.000	-0.002	-0.148
-655.886	126.675	-0.044	-0.056
-654.872	-57.001	0.046	0.020
-653.857	296.066	-0.140	-0.257
-652.843	54.203	0.036	0.035
-651.828	-200.000	0.000	0.108
-650.814	93.181	0.219	0.248
-649.799	349.252	0.071	0.141
-648.784	57.684	0.107	-0.104
-647.770	91.589	0.127	-0.142
-646.755	258.487	-0.122	0.211
-645.741	-200.000	-0.053	-0.397
-644.726	-126.542	-0.166	-0.025
-643.711	800.000	-0.092	0.277
-642.697	-156.860	-0.283	-0.017
-641.682	222.624	0.089	0.144
-640.668	-200.000	0.007	0.046
-639.653	14.532	0.132	-0.103
-638.638	800.000	-0.011	0.037
-637.624	-11.185	-0.381	0.251
-636.609	154.158	-0.094	0.129
-635.595	475.765	-0.050	-0.113
-634.580	23.683	0.112	0.092
-633.565	208.332	-0.133	-0.208
-632.551	-200.000	-0.059	0.279
-631.536	145.129	0.044	0.059
-630.522	248.970	-0.104	0.177
-629.507	73.719	-0.141	0.148
-628.492	-46.653	0.422	-0.206
-627.478	800.000	0.104	-0.315
-626.463	-55.056	-0.233	0.105
-625.449	-37.502	-0.262	0.140
-624.434	-179.501	0.168	0.004
-623.419	-84.004	-0.273	-0.087
-622.405	-103.424	-0.437	0.103
-621.390	164.485	0.220	-0.310
-620.376	-74.959	-0.147	0.053
-619.361	-18.678	0.117	-0.073
-618.346	800.000	-0.083	-0.281
-617.332	-22.872	0.276	0.167
-616.317	-186.735	-0.065	-0.001
-615.303	-200.000	-0.014	0.102
-614.288	-29.115	0.263	0.151
-613.273	-6.073	0.098	0.067
-612.259	205.955	0.007	-0.011
-611.244	99.385	-0.151	-0.175
-610.230	308.938	0.044	-0.082
-609.215	10.689	-0.199	0.152
-608.201	-29.733	0.259	0.148
-607.186	-200.000	0.031	-0.185
-606.171	-47.420	0.303	-0.147
-605.157	-152.609	-0.281	-0.020
-604.142	-20.936	-0.006	0.004
-603.128	-200.000	0.007	0.208
-602.113	109.480	0.226	0.270
-601.098	-76.906	0.165	-0.058
-600.084	-200.000	0.004	0.141
-599.069	-200.000	0.030	0.293
-598.055	-61.434	0.125	0.052
-597.040	106.875	-0.177	0.210
-596.025	5.354	-0.196	0.144
-595.011	-47.431	0.158	0.077
-593.996	-5.546	0.064	-0.044
-592.982	494.901	0.043	0.098
-591.967	24.308	-0.173	-0.143
-590.952	-200.000	0.003	0.183
-589.938	146.945	-0.061	0.082
-588.923	-124.373	-0.282	-0.044
-587.909	-114.236	-0.252	-0.049
-586.894	-66.415	0.072	0.028
-585.879	-200.000	0.011	0.253
-584.865	-84.532	-0.129	0.040
-583.850	-58.852	0.145	-0.062
-582.836	-128.797	0.167	0.023
-581.821	174.491	0.163	0.236
-580.806	800.000	0.049	-0.146
-579.792	-78.291	-0.242	0.083
-578.777	300.325	0.247	-0.455
-577.763	-200.000	-0.045	0.217
-576.748	-96.375	0.167	0.044
-575.733	-39.016	0.248	-0.130
-574.719	-81.193	0.240	-0.079
-573.704	-150.252	-0.069	0.005
-572.690	-200.000	0.052	-0.273
-571.675	-108.188	-0.165	-0.036
-570.661	124.330	-0.169	0.212
-569.646	-65.040	-0.045	-0.018
-568.631	-69.693	0.121	0.046
-567.617	-14.235	0.191	-0.123
-566.602	-5.380	-0.244	0.167
-565.588	349.401	0.056	-0.110
-564.573	19.706	0.332	0.266
-563.558	-107.763	-0.349	-0.076
-562.544	-200.000	-0.018	-0.243
-561.529	-200.000	-0.019	0.120
-560.515	197.295	-0.096	0.145
-559.500	20.709	-0.202	0.163
-558.485	58.928	0.120	0.117
-557.471	-57.109	-0.026	-0.012
-556.456	-200.000	0.029	0.157
-555.442	-200.000	0.005	-0.027
-554.427	-200.000	-0.023	0.103
-553.412	-47.655	0.361	0.175
-552.398	414.417	-0.167	0.355
-551.383	-147.270	-0.150	0.013
-550.369	-200.000	-0.004	0.178
-549.354	118.184	0.118	0.145
-548.339	-91.641	0.127	0.036
-547.325	-118.914	-0.075	0.013
-546.310	-200.000	-0.009	0.198
-545.296	-200.000	0.011	-0.132
-544.281	-200.000	0.020	-0.154
-543.266	-37.157	0.279	-0.149
-542.252	-3.742	-0.303	0.209
-541.237	-59.499	0.317	-0.136
-540.223	-73.691	0.086	-0.031
-539.208	-200.000	0.047	-0.208
-538.193	-95.085	0.287	-0.077
-537.179	-18.488	0.205	0.128
-536.164	135.223	0.232	-0.300
-535.150	-62.448	-0.295	0.122
-534.135	78.817	-0.168	0.179
-533.121	320.899	-0.170	-0.322
-532.106	482.370	0.063	-0.143
-531.091	-200.000	-0.022	-0.099
-530.077	800.000	0.082	-0.232
-529.062	86.901	-0.127	0.139
-528.048	800.000	0.024	0.067
-527.033	800.000	-0.051	0.166
-526.018	-200.000	-0.028	-0.158
-525.004	-130.148	0.139	-0.019
-523.989	555.942	0.086	-0.206
-522.975	-200.000	0.039	0.343
-521.960	800.000	-0.108	0.323
-520.945	-15.819	0.154	0.097
-519.931	-56.748	0.304	-0.134
-518.916	186.036	0.108	0.160
-517.902	9.509	-0.159	0.120
-516.887	125.900	-0.104	0.131
-515.872	149.568	-0.182	-0.245
-514.858	-50.688	-0.143	-0.067
-513.843	-73.563	0.260	0.094
-512.829	800.000	-0.079	-0.339
-511.814	-79.923	-0.153	0.051
-510.799	223.960	0.072	-0.116
-509.785	56.461	-0.145	0.140
-508.770	97.990	0.065	0.075
-507.756	305.330	0.028	0.051
-506.741	620.895	-0.098	-0.246
-505.726	-99.444	0.105	-0.026
-504.712	-51.180	-0.352	0.164
-503.697	-60.149	0.122	0.052
-502.683	27.456	0.032	-0.027
-501.668	-36.748	-0.178	0.095
-500.653	160.150	-0.183	0.253
-499.639	-200.000	0.109	0.498
-498.624	-16.959	-0.134	0.084
-497.610	-30.643	-0.146	-0.082
-496.595	119.855	-0.077	-0.094
-495.581	-52.611	0.144	0.066
-494.566	-83.577	-0.255	-0.081
-493.551	-200.000	-0.075	-0.343
-492.537	723.586	0.046	0.122
-491.522	-51.221	-0.149	0.069
-490.508	-103.085	0.464	-0.109
-489.493	572.868	-0.047	0.113
-488.478	89.083	-0.184	-0.203
-487.464	800.000	0.065	-0.179
-486.449	341.085	0.202	-0.392
-485.435	800.000	-0.045	0.152
-484.420	-200.000	0.082	-0.486
-483.405	800.000	0.069	0.219
-482.391	80.488	-0.249	0.266
-481.376	123.797	-0.204	0.254
-480.362	-200.000	-0.055	0.361
-479.347	-98.208	-0.098	0.025
-478.332	-133.263	0.156	-0.020
-477.318	800.000	0.027	0.114
-476.303	800.000	-0.058	-0.176
-475.289	-45.005	0.026	-0.013
-474.274	-200.000	0.034	-0.218
-473.259	-200.000	-0.011	-0.121
-472.245	-47.288	0.152	0.073
-471.230	-168.605	-0.216	0.008
-470.216	-200.000	-0.027	-0.411
-469.201	-200.000	0.048	-0.240
-468.186	71.444	-0.154	-0.159
-467.172	-46.014	-0.399	0.196
-466.157	33.776	0.256	-0.221
-465.143	748.459	0.031	-0.084
-464.128	283.296	0.080	0.142
-463.113	-21.226	0.438	-0.266
-462.099	421.996	0.106	-0.225
-461.084	44.813	0.122	-0.111
-460.070	-68.233	-0.142	0.055
-459.055	719.893	-0.083	-0.220
-458.040	17.186	-0.071	-0.056
-457.026	-19.542	0.136	0.083
-456.011	324.634	0.129	-0.244
-454.997	96.475	-0.177	-0.201
-453.982	237.074	0.106	-0.175
-452.968	13.106	-0.077	0.059
-451.953	800.000	0.062	0.194
-450.938	-200.000	-0.013	-0.463
-449.924	57.507	-0.267	-0.259
-448.909	29.869	-0.153	-0.130
-447.895	124.474	0.011	-0.014
-446.880	800.000	-0.105	0.309
-445.865	376.596	0.121	-0.246
-444.851	-85.810	-0.278	0.086
-443.836	323.762	-0.057	-0.107
-442.822	568.730	-0.081	0.195
-441.807	73.544	0.034	0.035
-440.792	-90.294	0.210	-0.061
-439.778	-81.641	-0.335	-0.109
-438.763	508.540	0.038	-0.086
-437.749	343.686	-0.109	0.213
-436.734	-7.929	-0.200	-0.134
-435.719	18.463	-0.140	0.111
-434.705	-16.973	0.241	0.151
-433.690	-200.000	0.026	-0.231
-432.676	362.279	0.047	-0.093
-431.661	-172.225	-0.088	0.003
-430.646	107.266	0.094	0.111
-429.632	31.243	-0.183	-0.156
-428.617	105.302	0.270	-0.316
-427.603	-167.671	0.154	0.006
-426.588	-200.000	0.335	-0.001
-425.573	30.842	0.123	-0.104
-424.559	196.205	-0.067	-0.101
-423.544	379.714	0.103	0.209
-422.530	-60.540	0.183	0.077
-421.515	-104.500	-0.293	-0.067
-420.500	-200.000	0.049	-0.217
-419.486	-200.000	0.041	-0.197
-418.471	-200.000	-0.034	-0.278
-417.457	-119.445	-0.215	-0.037
-416.442	-24.369	0.215	-0.127
-415.428	-200.000	0.050	-0.271
-414.413	3.514	-0.317	-0.229
-413.398	-34.079	-0.084	0.046
-412.384	13.665	-0.141	0.109
-411.369	76.763	-0.139	-0.146
-410.355	-61.518	0.065	0.027
-409.340	336.293	-0.104	-0.200
-408.325	57.368	0.123	-0.119
-407.311	29.129	-0.269	0.226
-406.296	101.616	0.142	-0.164
-405.282	184.466	0.108	-0.158
-404.267	6.004	0.221	0.162
-403.252	107.456	-0.207	-0.244
-402.238	-51.432	-0.146	-0.067
-401.223	91.445	-0.112	-0.125
-400.209	72.965	0.264	-0.273
-399.194	-28.535	0.243	0.138
-398.179	800.000	0.043	-0.184
-397.165	288.299	0.122	-0.220
-396.150	-200.000	0.054	-0.341
-395.136	-200.000	0.032	-0.243
-394.121	587.688	0.047	0.115
-393.106	134.191	0.143	0.183
-392.092	-149.706	0.101	-0.008
-391.077	117.838	-0.268	0.326
-390.063	24.145	0.180	0.147
-389.048	-45.801	0.152	0.074
-388.033	-200.000	-0.053	-0.293
-387.019	-200.000	0.030	-0.327
-386.004	96.593	0.050	-0.057
-384.990	800.000	0.073	-0.199
-383.975	96.204	-0.225	-0.255
-382.960	193.571	-0.122	-0.183
-381.946	-96.117	-0.140	0.037
-380.931	172.029	0.182	0.259
-379.917	195.101	0.043	0.064
-378.902	-18.518	-0.065	-0.040
-377.888	-200.000	0.023	-0.206
-376.873	-200.000	-0.031	-0.276
-375.858	-166.417	-0.439	0.018
-374.844	386.417	-0.078	0.160
-373.829	-200.000	0.038	-0.176
-372.815	800.000	0.072	-0.254
-371.800	103.537	0.144	0.168
-370.785	-200.000	0.045	-0.319
-369.771	57.012	-0.167	0.161
-368.756	-168.555	-0.244	-0.009
-367.742	660.566	0.105	0.268
-366.727	-55.259	0.117	0.052
-365.712	-73.703	-0.013	0.005
-364.698	170.124	0.227	0.321
-363.683	-200.000	0.008	0.187
-362.669	283.759	0.023	0.041
-361.654	-117.875	0.111	-0.020
-360.639	-97.269	0.137	0.035
-359.625	-4.817	0.198	0.135
-358.610	-200.000	0.077	0.345
-357.596	-200.000	-0.024	-0.358
-356.581	800.000	-0.095	-0.265
-355.566	95.486	-0.227	0.256
-354.552	298.180	0.010	0.018
-353.537	159.082	-0.208	0.286
-352.523	-81.237	0.275	0.090
-351.508	264.028	-0.043	-0.074
-350.493	800.000	0.049	-0.148
-349.479	209.827	-0.157	-0.243
-348.464	-168.711	0.076	-0.003
-347.450	282.185	0.147	0.260
-346.435	16.665	-0.348	0.272
-345.420	-200.000	-0.024	0.340
-344.406	-51.535	0.155	0.071
-343.391	6.312	0.278	-0.204
-342.377	340.087	-0.025	0.048
-341.362	-122.151	-0.169	-0.027
-340.348	800.000	0.123	-0.351
-339.333	-200.000	0.004	0.120
-338.318	800.000	0.045	0.190
-337.304	531.003	0.093	-0.217
-336.289	-200.000	-0.036	-0.171
-335.275	47.520	0.109	-0.101
-334.260	-12.398	0.104	-0.067
-333.245	-132.429	-0.044	-0.006
-332.231	543.805	-0.043	0.102
-331.216	14.648	-0.216	0.167
-330.202	-58.394	-0.114	-0.049
-329.187	-63.287	-0.202	-0.082
-328.172	-154.117	-0.151	-0.010
-327.158	-36.740	0.252	0.134
-326.143	199.339	0.019	0.029
-325.129	-92.582	0.232	-0.064
-324.114	-108.637	-0.224	0.047
-323.099	-17.014	0.362	0.226
-322.085	-77.774	0.400	-0.136
-321.070	-58.458	-0.114	0.049
-320.056	-84.205	0.189	-0.059
-319.041	2.339	-0.119	-0.085
-318.026	106.277	-0.142	0.166
-317.012	-200.000	0.015	0.084
-315.997	-86.358	-0.280	-0.085
-314.983	-117.076	-0.201	-0.036
-313.968	-86.663	0.230	-0.070
-312.953	-86.756	-0.157	-0.047
-311.939	-120.204	-0.625	-0.105
-310.924	635.541	0.080	0.201
-309.910	168.500	0.106	-0.148
-308.895	379.886	-0.059	0.120
-307.880	-51.284	-0.084	0.039
-306.866	-150.221	-0.262	-0.020
-305.851	800.000	0.042	-0.121
-304.837	-157.783	-0.149	-0.009
-303.822	15.173	-0.175	0.135
-302.807	15.091	0.342	0.265
-301.793	-0.280	0.168	-0.118
-300.778	-93.877	0.208	-0.056
-299.764	-18.775	-0.246	0.151
-298.749	-10.737	-0.197	-0.128
-297.735	-102.652	0.012	0.003
-296.720	-74.379	-0.035	0.012
-295.705	-3.146	0.082	0.057
-294.691	-84.305	-0.103	0.032
-293.676	-95.943	-0.393	0.103
-292.662	-200.000	-0.010	-0.119
-291.647	-137.000	-0.214	0.024
-290.632	-31.552	-0.238	0.132
-289.618	-200.000	0.067	-0.339
-288.603	-94.314	0.257	-0.069
-287.589	24.601	-0.134	0.109
-286.574	110.427	-0.164	0.195
-285.559	331.370	0.121	0.229
-284.545	-50.604	0.204	-0.095
-283.530	78.452	0.273	-0.287
-282.516	-73.683	-0.270	-0.097
-281.501	48.081	-0.159	0.147
-280.486	-200.000	-0.072	0.415
-279.472	-95.338	0.352	-0.093
-278.457	-200.000	-0.010	0.165
-277.443	800.000	0.117	0.410
-276.428	-200.000	-0.044	0.252
-275.413	-200.000	-0.007	0.267
-274.399	800.000	-0.011	0.044
-273.384	332.551	0.025	0.047
-272.370	-127.683	0.286	-0.041
-271.355	-23.444	0.172	0.102
-270.340	160.911	-0.156	-0.215
-269.326	640.473	-0.128	-0.321
-268.311	-113.050	0.225	-0.044
-267.297	-53.441	-0.065	-0.029
-266.282	-200.000	0.004	-0.346
-265.267	-151.412	0.191	-0.014
-264.253	113.855	0.065	-0.078
-263.238	-67.389	0.271	0.105
-262.224	0.734	0.249	-0.176
-261.209	-95.769	0.224	0.059
-260.195	226.041	0.090	0.143
-259.180	27.482	0.066	-0.055
-258.165	800.000	-0.020	-0.079
-257.151	207.026	0.143	0.220
-256.136	86.750	-0.206	0.224
-255.122	100.039	0.188	-0.215
-254.107	378.019	0.020	-0.041
-253.092	92.098	-0.142	-0.157
-252.078	-145.484	-0.303	-0.027
-251.063	-200.000	0.275	0.001
-250.049	-185.643	-0.220	-0.003
-249.034	800.000	0.173	0.660
-248.019	28.851	-0.122	-0.102
-247.005	-0.009	0.119	-0.084
-245.990	38.744	0.115	0.101
-244.976	224.101	0.097	0.155
-243.961	-180.679	-0.236	-0.005
-242.946	90.671	-0.127	0.140
-241.932	-200.000	-0.018	-0.250
-240.917	21.957	-0.312	-0.251
-239.903	800.000	0.052	0.199
-238.888	124.031	0.098	0.121
-237.873	-63.053	-0.147	0.060
-236.859	188.981	0.147	0.217
-235.844	-131.142	0.259	-0.034
-234.830	-103.479	-0.097	-0.022
-233.815	89.045	0.130	-0.143
-232.800	-200.000	-0.079	0.517
-231.786	229.322	-0.128	-0.206
-230.771	-120.577	-0.218	-0.036
-229.757	-10.938	-0.137	0.089
-228.742	50.404	-0.238	0.221
-227.727	800.000	0.114	0.326
-226.713	-200.000	-0.017	-0.109
-225.698	-200.000	0.028	-0.231
-224.684	-181.359	-0.344	0.007
-223.669	170.951	-0.148	0.209
-222.655	-137.058	0.117	0.013
-221.640	127.197	-0.162	-0.202
-220.625	-93.826	-0.104	0.028
-219.611	259.586	0.089	0.152
-218.596	-132.607	-0.285	-0.036
-217.582	-86.964	0.198	0.059
-216.567	800.000	0.048	-0.191
-215.552	-200.000	0.005	0.034
-214.538	293.209	-0.092	0.165
-213.523	-125.840	0.259	0.038
-212.509	-151.903	-0.219	-0.016
-211.494	-90.902	-0.231	-0.065
-210.479	-81.974	0.262	0.084
-209.465	-200.000	0.005	-0.237
-208.450	62.809	0.128	0.125
-207.436	-124.820	-0.108	-0.016
-206.421	-200.000	-0.043	-0.337
-205.406	787.859	-0.011	-0.029
-204.392	204.208	0.031	0.047
-203.377	-200.000	0.019	-0.154
-202.363	800.000	0.129	-0.506
-201.348	71.798	-0.164	-0.168
-200.333	-64.131	0.164	0.066
-199.319	-29.745	-0.103	0.058
-198.304	-0.231	-0.310	0.217
-197.290	21.859	0.106	-0.085
-196.275	-22.625	0.308	0.183
-195.260	94.472	-0.231	-0.258
-194.246	800.000	-0.165	0.493
-193.231	5.758	0.244	-0.177
-192.217	-146.310	0.098	-0.008
-191.202	-3.120	-0.184	-0.126
-190.187	214.424	0.105	-0.164
-189.173	31.307	0.310	0.261
-188.158	170.175	0.150	0.211
-187.144	-49.540	-0.229	0.107
-186.129	-200.000	0.002	0.113
-185.114	-112.918	0.249	0.048
-184.100	-145.156	0.117	-0.010
-183.085	569.523	0.108	0.259
-182.071	-58.273	0.134	0.057
-181.056	159.507	-0.046	0.063
-180.042	31.528	-0.258	0.218
-179.027	-87.023	-0.059	0.018
-178.012	-135.191	-0.040	0.005
-176.998	97.065	0.110	0.124
-175.983	11.388	-0.255	-0.192
-174.969	-200.000	0.005	0.107
-173.954	205.290	0.025	-0.038
-172.939	143.543	0.079	0.104
-171.925	197.981	0.050	-0.075
-170.910	130.084	-0.075	0.094
-169.896	-98.611	-0.233	0.058
-168.881	118.639	0.091	-0.110
-167.866	-138.405	0.285	-0.031
-166.852	800.000	0.065	-0.209
-165.837	-42.980	-0.122	0.061
-164.823	-33.252	-0.108	-0.059
-163.808	-164.159	0.310	0.014
-162.793	-200.000	0.062	0.277
-161.779	237.647	0.117	0.191
-160.764	306.227	-0.088	0.160
-159.750	-67.382	0.206	-0.079
-158.735	-200.000	-0.022	-0.103
-157.720	-147.150	0.147	0.012
-156.706	235.554	0.072	-0.117
-155.691	598.677	-0.068	0.165
-154.677	179.933	-0.183	0.264
-153.662	-70.877	0.362	-0.134
-152.647	291.195	0.152	-0.271
-151.633	-155.484	0.082	-0.005
-150.618	280.727	0.290	-0.509
-149.604	-178.307	0.457	0.011
-148.589	155.836	-0.142	-0.192
-147.574	800.000	-0.067	-0.213
-146.560	46.019	-0.272	-0.246
-145.545	-109.761	-0.235	-0.049
-144.531	23.140	0.077	-0.062
-143.516	-30.492	-0.198	0.110
-142.502	-68.993	0.185	-0.070
-141.487	-68.323	0.116	0.044
-140.472	-83.039	-0.130	0.041
-139.458	-200.000	-0.001	0.201
-138.443	-200.000	-0.002	0.258
-137.429	480.619	0.142	0.316
-136.414	800.000	-0.048	0.194
-135.399	-31.771	0.102	-0.056
-134.385	197.653	0.135	0.202
-133.370	-200.000	0.011	-0.093
-132.356	-114.914	0.154	0.029
-131.341	-140.791	-0.317	0.032
-130.326	-200.000	-0.007	0.073
-129.312	800.000	-0.105	0.387
-128.297	24.753	0.278	-0.226
-127.283	-94.139	0.247	0.066
-126.268	70.022	0.145	-0.146
-125.253	-10.028	-0.198	0.129
-124.239	348.569	-0.114	0.221
-123.224	-200.000	0.041	-0.212
-122.210	265.923	0.067	-0.115
-121.195	284.692	0.168	0.296
-120.180	-76.049	-0.245	0.085
-119.166	-200.000	0.022	-0.264
-118.151	-95.291	-0.334	0.088
-117.137	800.000	0.097	-0.382
-116.122	93.758	0.336	-0.373
-115.107	-40.139	-0.135	0.069
-114.093	299.697	-0.046	0.082
-113.078	70.656	-0.142	0.144
-112.064	-31.911	0.221	0.121
-111.049	-121.882	-0.174	-0.028
-110.034	-200.000	0.056	-0.353
-109.020	110.877	0.175	-0.207
-108.005	-29.736	-0.098	0.055
-106.991	153.313	0.189	0.253
-105.976	-20.258	0.073	0.044
-104.962	73.521	0.200	-0.205
-103.947	21.032	-0.144	-0.114
-102.932	-200.000	-0.064	0.409
-101.918	-90.335	-0.089	-0.025
-100.903	-200.000	0.047	-0.338
-99.889	217.512	-0.016	-0.026
-98.874	-200.000	0.018	-0.113
-97.859	-16.512	0.195	0.121
-96.845	179.142	0.137	0.197
-95.830	-200.000	0.061	0.312
-94.816	-200.000	-0.019	-0.128
-93.801	-175.668	0.123	0.003
-92.786	131.210	-0.218	-0.274
-91.772	22.401	0.160	-0.128
-90.757	122.006	-0.211	0.258
-89.743	-26.483	0.276	0.158
-88.728	-103.693	0.303	0.069
-87.713	-44.034	-0.042	-0.021
-86.699	17.119	-0.117	0.091
-85.684	62.102	-0.238	-0.232
-84.670	-48.465	-0.372	-0.175
-83.655	-200.000	-0.012	0.350
-82.640	571.200	0.067	-0.159
-81.626	90.273	-0.165	0.181
-80.611	-80.353	0.186	-0.061
-79.597	800.000	0.117	0.458
-78.582	31.425	-0.092	-0.077
-77.567	800.000	0.074	-0.216
-76.553	-87.449	-0.405	-0.120
-75.538	81.520	0.141	0.149
-74.524	-190.404	-0.165	0.002
-73.509	441.060	0.047	0.100
-72.494	435.072	-0.093	-0.198
-71.480	-24.370	0.081	0.047
-70.465	475.567	-0.077	0.170
-69.451	592.014	0.105	-0.253
-68.436	168.863	-0.094	0.131
-67.422	-12.931	0.054	0.035
-66.407	-112.383	0.445	-0.087
-65.392	-160.264	-0.039	0.002
-64.378	-101.242	-0.195	0.047
-63.363	-200.000	0.089	-0.412
-62.349	238.650	0.059	-0.096
-61.334	138.228	-0.733	-0.939
-60.319	-3.756	0.799	0.542
-59.305	337.268	-0.624	-1.186
-58.290	561.518	0.599	1.415
-57.276	800.000	0.589	1.638
-56.261	-200.000	113.194	645.268
-55.246	483.356	1493.118	3317.856
-54.232	149.799	2662.278	3526.456
-53.217	97.508	2274.420	2553.033
-52.203	36.525	1891.364	1630.977
-51.188	30.803	1685.668	1410.348
-50.173	28.265	1644.475	1357.050
-49.159	49.852	1698.979	1565.025
-48.144	48.786	1713.644	1570.465
-47.130	30.407	1672.373	1396.031
-46.115	27.801	1658.241	1364.719
-45.100	27.646	1653.291	1359.442
-44.086	27.620	1650.190	1356.638
-43.071	27.516	1648.390	1354.332
-42.057	27.575	1645.542	1352.381
-41.042	27.490	1643.632	1350.127
-40.027	27.543	1642.012	1349.134
-39.013	27.570	1639.553	1347.257
-37.998	27.529	1638.772	1346.261
-36.984	27.592	1637.055	1345.262
-35.969	27.605	1635.749	1344.230
-34.954	27.649	1634.254	1343.276
-33.940	27.679	1632.212	1341.765
-32.925	27.614	1630.829	1340.096
-31.911	27.619	1628.663	1338.300
-30.896	27.672	1626.839	1337.136
-29.881	27.647	1625.394	1335.713
-28.867	27.601	1624.041	1334.207
-27.852	27.585	1622.660	1332.902
-26.838	27.675	1620.858	1332.027
-25.823	27.572	1619.695	1330.268
-24.809	27.617	1618.551	1329.605
-23.794	27.585	1617.218	1328.222
-22.779	27.716	1615.465	1327.685
-21.765	27.776	1613.635	1326.561
-20.750	27.635	1611.925	1324.079
-19.736	27.630	1611.033	1323.257
-18.721	27.741	1609.566	1322.806
-17.706	27.717	1608.184	1321.443
-16.692	27.716	1606.444	1319.955
-15.677	27.711	1605.650	1319.213
-14.663	27.701	1604.071	1317.790
-13.648	27.806	1602.338	1317.073
-12.633	27.678	1600.694	1314.748
-11.619	27.615	1599.698	1313.424
-10.604	27.724	1597.768	1312.573
-9.590	27.762	1596.883	1312.067
-8.575	27.682	1595.476	1310.283
-7.560	27.761	1594.397	1309.912
-6.546	27.679	1593.355	1308.417
-5.531	27.694	1591.964	1307.332
-4.517	27.695	1591.326	1306.761
-3.502	27.690	1589.939	1305.533
-2.487	27.851	1588.274	1305.266
-1.473	27.395	1576.467	1292.275
-0.458	24.352	1557.104	1254.976
0.556	18.906	1558.334	1224.308
1.571	16.620	1581.997	1226.239
2.586	16.283	1593.664	1232.718
3.600	15.548	1543.520	1188.622
4.615	12.986	1445.204	1095.821
5.629	10.121	1391.104	1036.365
6.644	9.478	1384.131	1026.978
7.659	9.559	1382.921	1026.503
8.673	9.507	1381.834	1025.279
9.688	9.466	1379.343	1023.080
10.702	9.370	1376.476	1020.253
11.717	10.648	1378.376	1029.683
12.731	14.030	1384.109	1055.385
13.746	16.911	1388.273	1076.785
14.761	17.361	1388.442	1079.681
15.775	16.386	1385.414	1071.050
16.790	15.324	1382.623	1062.075
17.804	14.525	1380.528	1055.320
18.819	14.130	1378.928	1051.504
19.834	13.843	1377.692	1048.656
20.848	13.630	1376.789	1046.532
21.863	13.376	1374.717	1043.263
22.877	13.287	1373.931	1042.012
23.892	13.144	1373.366	1040.594
24.907	13.066	1372.386	1039.266
25.921	13.248	1371.004	1039.275
26.936	13.143	1370.363	1038.033
27.950	13.210	1369.611	1037.792
28.965	13.371	1368.386	1037.785
29.980	13.419	1367.305	1037.171
30.994	13.505	1366.105	1036.708
32.009	13.492	1364.689	1035.463
33.023	13.404	1363.714	1034.081
34.038	13.383	1362.400	1032.859
35.053	13.276	1361.209	1031.203
36.067	13.375	1359.936	1030.764
37.082	13.325	1358.770	1029.473
38.096	13.425	1357.394	1028.964
39.111	13.354	1357.201	1028.287
40.126	13.309	1356.168	1027.129
41.140	13.227	1355.252	1025.840
42.155	13.091	1354.742	1024.517
43.169	13.028	1354.911	1024.163
44.184	13.095	1354.307	1024.030
45.199	13.123	1353.862	1023.778
46.213	13.180	1353.202	1023.544
47.228	13.265	1352.396	1023.368
48.242	13.270	1350.921	1022.196
49.257	13.172	1349.821	1020.665
50.271	13.275	1347.981	1019.815
51.286	13.234	1347.053	1018.771
52.301	13.281	1345.775	1018.003
53.315	13.261	1344.497	1016.828
54.330	13.160	1343.414	1015.295
55.344	13.115	1342.250	1014.051
56.359	13.031	1341.635	1012.982
57.374	13.203	1340.334	1012.965
58.388	12.965	1339.641	1010.892
59.403	13.088	1339.248	1011.257
60.417	13.105	1338.293	1010.550
61.432	13.060	1337.838	1009.844
62.447	12.979	1336.608	1008.329
63.461	13.002	1335.198	1007.322
64.476	13.043	1333.781	1006.411
65.490	12.990	1333.217	1005.573
66.505	13.050	1331.459	1004.525
67.520	13.040	1330.519	1003.662
68.534	13.153	1329.334	1003.367
69.549	13.191	1328.324	1002.747
70.563	13.031	1327.553	1001.104
71.578	13.040	1326.477	1000.259
72.593	12.917	1325.435	998.643
73.607	12.885	1325.054	998.074
74.622	12.950	1323.880	997.495
75.636	12.986	1323.106	997.042
76.651	12.972	1322.641	996.519
77.666	12.966	1322.273	996.114
78.680	13.022	1321.600	995.855
79.695	12.999	1320.986	995.165
80.709	13.006	1320.147	994.487
81.724	13.052	1319.335	994.068
82.739	13.034	1318.912	993.550
83.753	13.146	1317.534	993.099
84.768	13.276	1316.640	993.117
85.782	13.244	1315.597	992.054
86.797	13.284	1313.911	990.932
87.812	13.261	1312.890	989.937
88.826	13.184	1311.838	988.595
89.841	13.239	1311.002	988.205
90.855	13.313	1309.621	987.518
91.870	13.287	1309.093	986.883
92.884	13.354	1308.060	986.412
93.899	13.233	1307.744	985.368
94.914	13.476	1306.284	985.625
95.928	13.377	1305.842	984.619
96.943	13.365	1304.493	983.441
97.957	13.384	1303.392	982.634
98.972	13.359	1302.331	981.600
99.987	13.401	1301.325	981.004
101.001	13.293	1300.342	979.541
102.016	13.251	1299.859	978.837
103.030	13.199	1299.260	977.992
104.045	13.310	1297.796	977.461
105.060	13.269	1296.522	976.173
106.074	13.140	1295.434	974.509
107.089	12.953	1294.376	972.522
108.103	13.049	1293.064	972.018
109.118	12.958	1291.428	970.164
110.133	13.107	1289.844	969.763
111.147	13.124	1288.959	969.111
112.162	13.072	1288.055	968.043
113.176	13.140	1286.390	967.103
114.191	13.087	1285.595	966.109
115.206	13.092	1284.644	965.340
116.220	13.073	1283.474	964.263
117.235	13.154	1282.141	963.651
118.249	13.161	1280.876	962.654
119.264	13.085	1279.872	961.372
120.279	13.087	1278.714	960.429
121.293	13.129	1277.689	959.818
122.308	13.045	1277.013	958.737
123.322	13.042	1276.106	957.951
124.337	13.059	1274.814	957.000
125.352	13.061	1273.616	956.023
126.366	12.971	1272.854	954.848
127.381	13.042	1271.443	954.113
128.395	13.066	1270.232	953.258
129.410	12.966	1269.472	952.029
130.424	13.059	1268.886	952.039
131.439	13.130	1267.597	951.396
132.454	13.101	1266.829	950.571
133.468	13.166	1265.718	950.025
134.483	13.071	1265.313	949.092
135.497	13.107	1264.149	948.345
136.512	13.096	1262.838	947.213
137.527	13.261	1261.082	946.759
138.541	13.221	1259.818	945.497
139.556	13.266	1258.535	944.709
140.570	13.360	1257.467	944.359
141.585	13.266	1256.374	942.917
142.600	13.347	1255.393	942.560
143.614	13.341	1254.112	941.477
144.629	13.393	1253.152	940.970
145.643	13.385	1251.917	939.916
146.658	13.322	1250.573	938.464
147.673	13.358	1249.211	937.562
148.687	13.307	1247.928	936.232
149.702	13.185	1247.135	934.860
150.716	13.194	1245.454	933.568
151.731	13.250	1244.374	932.995
152.746	13.239	1243.326	932.063
153.760	13.218	1241.865	930.766
154.775	13.434	1240.847	931.140
155.789	13.462	1239.560	930.246
156.804	13.427	1238.972	929.527
157.819	13.490	1237.662	928.815
158.833	13.478	1237.057	928.210
159.848	13.500	1236.411	927.768
160.862	13.497	1235.559	927.028
161.877	13.521	1233.352	925.424
162.892	13.407	1232.405	923.999
163.906	13.374	1231.741	923.235
164.921	13.308	1231.229	922.398
165.935	13.391	1230.065	921.908
166.950	13.366	1229.792	921.483
167.964	13.440	1228.897	921.142
168.979	13.466	1228.172	920.665
169.994	13.464	1227.394	919.989
171.008	13.589	1226.630	920.027
172.023	13.577	1225.835	919.283
173.037	13.550	1225.230	918.597
174.052	13.564	1223.860	917.567
175.067	13.467	1222.674	916.061
176.081	13.429	1221.629	914.987
177.096	13.501	1221.195	914.975
178.110	13.435	1220.033	913.664
179.125	13.540	1219.022	913.401
180.140	13.518	1218.053	912.477
181.154	13.607	1216.073	911.399
182.169	13.559	1215.658	910.745
183.183	13.689	1214.095	910.208
184.198	13.598	1213.251	908.992
185.213	13.674	1211.723	908.187
186.227	13.717	1210.421	907.366
187.242	13.694	1209.766	906.670
188.256	13.746	1208.956	906.263
189.271	13.779	1207.809	905.506
190.286	13.652	1206.385	903.663
191.300	13.567	1205.886	902.747
192.315	13.409	1205.593	901.586
193.329	13.479	1204.992	901.438
194.344	13.617	1203.786	901.207
195.359	13.645	1203.569	901.119
196.373	13.746	1202.205	900.566
197.388	13.756	1202.315	900.621
198.402	13.878	1201.928	900.916
199.417	13.968	1201.268	900.830
200.432	13.881	1200.494	899.700
201.446	13.965	1199.696	899.474
202.461	13.988	1198.653	898.735
203.475	14.115	1197.380	898.390
204.490	13.990	1196.611	897.056
205.504	13.864	1195.454	895.431
206.519	13.915	1193.849	894.427
207.534	13.849	1193.049	893.393
208.548	13.942	1191.806	892.880
209.563	13.959	1190.932	892.239
210.577	13.932	1190.350	891.578
211.592	13.968	1189.729	891.227
212.607	14.105	1188.492	890.958
213.621	14.166	1187.267	890.288
214.636	14.031	1187.009	889.291
215.650	14.057	1185.955	888.564
216.665	14.122	1185.219	888.281
217.680	14.198	1184.080	887.751
218.694	14.113	1183.642	886.891
219.709	14.158	1182.463	886.168
220.723	14.207	1181.593	885.702
221.738	14.225	1181.268	885.476
222.753	14.142	1180.453	884.342
223.767	14.169	1179.724	883.862
224.782	14.241	1179.717	884.160
225.796	14.348	1178.264	883.565
226.811	14.265	1178.031	882.871
227.826	14.344	1176.758	882.257
228.840	14.276	1176.082	881.310
229.855	14.247	1175.834	880.893
230.869	14.302	1174.711	880.263
231.884	14.280	1173.775	879.369
232.899	14.177	1173.530	878.565
233.913	14.188	1172.401	877.697
234.928	14.261	1171.543	877.364
235.942	14.145	1170.849	876.158
236.957	14.289	1169.767	876.028
237.972	14.388	1169.304	876.122
238.986	14.207	1169.173	874.995
240.001	14.292	1168.397	874.783
241.015	14.192	1167.640	873.613
242.030	14.293	1166.360	873.108
243.045	14.290	1166.209	872.900
244.059	14.372	1164.768	872.175
245.074	14.413	1164.125	871.834
246.088	14.437	1163.447	871.374
247.103	14.488	1162.530	870.877
248.117	14.522	1162.084	870.642
249.132	14.620	1161.099	870.339
250.147	14.791	1160.275	870.532
251.161	14.885	1159.534	870.389
252.176	14.694	1159.122	869.013
253.190	14.846	1158.463	869.230
254.205	14.838	1158.129	868.859
255.220	14.841	1157.559	868.372
256.234	14.853	1156.518	867.576
257.249	14.897	1155.722	867.132
258.263	14.895	1155.186	866.644
259.278	14.843	1154.723	865.947
260.293	14.860	1154.435	865.744
261.307	15.042	1153.294	865.754
262.322	14.905	1153.185	864.884
263.336	14.990	1152.335	864.613
264.351	14.988	1151.625	863.990
265.366	15.023	1151.110	863.711
266.380	15.099	1149.994	863.187
267.395	14.997	1149.396	862.139
268.409	14.952	1149.024	861.551
269.424	14.968	1147.986	860.778
270.439	15.009	1147.393	860.467
271.453	15.011	1146.830	859.978
272.468	15.003	1145.814	859.100
273.482	14.910	1145.147	858.047
274.497	14.970	1144.671	857.923
275.512	14.953	1144.124	857.349
276.526	15.037	1143.178	856.993
277.541	15.038	1142.302	856.268
278.555	15.047	1141.859	855.906
279.570	15.029	1141.204	855.248
280.585	15.221	1140.034	855.276
281.599	15.186	1139.028	854.265
282.614	15.132	1138.400	853.441
283.628	15.064	1137.157	852.089
284.643	15.124	1136.417	851.768
285.657	15.177	1135.235	851.073
286.672	15.116	1134.802	850.366
287.687	15.079	1133.651	849.239
288.701	15.081	1132.957	848.655
289.716	15.173	1132.223	848.495
290.730	15.239	1131.454	848.175
291.745	15.237	1130.624	847.469
292.760	15.359	1129.943	847.498
293.774	15.326	1129.389	846.842
294.789	15.379	1129.058	846.785
295.803	15.351	1128.571	846.207
296.818	15.343	1127.467	845.262
297.833	15.274	1126.583	844.177
298.847	15.343	1126.112	844.099
299.862	15.406	1125.127	843.601
300.876	15.413	1124.473	843.070
301.891	15.514	1123.581	842.835
302.906	15.603	1123.012	842.782
303.920	15.593	1122.264	842.097
304.935	15.348	1122.374	840.873
305.949	15.508	1121.158	840.688
306.964	15.714	1120.256	840.971
307.979	15.682	1119.109	839.873
308.993	15.576	1118.926	839.133
310.008	15.578	1117.987	838.364
311.022	15.496	1117.785	837.729
312.037	15.587	1116.418	837.085
313.052	15.612	1115.493	836.443
314.066	15.516	1114.632	835.246
315.081	15.529	1113.910	834.696
316.095	15.462	1113.249	833.795
317.110	15.500	1112.312	833.205
318.125	15.560	1111.383	832.734
319.139	15.503	1110.923	832.031
320.154	15.638	1109.905	831.863
321.168	15.539	1109.927	831.317
322.183	15.648	1108.801	830.941
323.197	15.625	1108.320	830.391
324.212	15.691	1107.867	830.307
325.227	15.724	1107.124	829.836
326.241	15.697	1106.225	828.959
327.256	15.645	1105.548	828.122
328.270	15.704	1104.427	827.495
329.285	15.626	1103.891	826.639
330.300	15.575	1102.983	825.637
331.314	15.651	1102.064	825.246
332.329	15.650	1101.189	824.516
333.343	15.795	1100.158	824.379
334.358	15.791	1099.241	823.599
335.373	15.806	1098.840	823.299
336.387	15.886	1097.847	822.874
337.402	15.928	1097.288	822.588
338.416	15.858	1096.719	821.747
339.431	15.955	1095.619	821.324
340.446	15.909	1095.329	820.811
341.460	16.045	1094.642	820.882
342.475	16.002	1093.748	819.933
343.489	16.120	1092.498	819.497
344.504	16.070	1092.077	818.866
345.519	16.129	1091.503	818.650
346.533	16.239	1090.493	818.350
347.548	16.322	1089.452	817.900
348.562	16.174	1088.971	816.750
349.577	16.199	1087.926	816.017
350.592	16.018	1087.484	814.736
351.606	16.067	1086.617	814.252
352.621	15.982	1085.969	813.283
353.635	16.083	1085.068	813.025
354.650	16.031	1084.835	812.524
355.665	16.133	1083.690	812.087
356.679	16.116	1083.248	811.603
357.694	16.053	1082.929	810.990
358.708	16.208	1081.946	810.928
359.723	16.135	1081.537	810.199
360.738	16.154	1080.744	809.622
361.752	16.373	1079.704	809.822
362.767	16.302	1079.269	809.082
363.781	16.266	1079.329	808.886
364.796	16.304	1078.625	808.469
365.810	16.420	1077.572	808.161
366.825	16.441	1077.147	807.871
367.840	16.455	1076.782	807.594
368.854	16.444	1076.354	807.147
369.869	16.474	1075.283	806.416
370.883	16.445	1074.588	805.685
371.898	16.463	1074.093	805.330
372.913	16.417	1073.116	804.305
373.927	16.409	1072.949	804.072
374.942	16.474	1072.391	803.894
375.956	16.532	1071.758	803.620
376.971	16.543	1070.992	803.027
377.986	16.703	1070.644	803.457
379.000	16.683	1069.999	802.807
380.015	16.708	1069.660	802.598
381.029	16.689	1068.894	801.863
382.044	16.614	1068.414	801.078
383.059	16.708	1067.130	800.488
384.073	16.640	1066.512	799.633
385.088	16.730	1065.715	799.388
386.102	16.754	1064.822	798.762
387.117	16.710	1063.716	797.653
388.132	16.777	1062.515	796.997
389.146	16.649	1061.928	795.883
390.161	16.576	1061.435	795.100
391.175	16.529	1060.885	794.397
392.190	16.629	1060.350	794.396
393.205	16.856	1059.169	794.505
394.219	16.736	1058.598	793.445
395.234	16.866	1057.352	793.048
396.248	16.844	1056.603	792.316
397.263	16.690	1055.530	790.721
398.278	16.664	1055.060	790.180
399.292	16.662	1054.176	789.437
400.307	16.760	1053.526	789.337
401.321	16.806	1053.024	789.107
402.336	16.704	1052.498	788.164
403.350	16.703	1051.942	787.677
404.365	16.755	1050.920	787.082
405.380	16.830	1049.801	786.525
406.394	16.951	1049.339	786.670
407.409	16.845	1048.803	785.706
408.423	17.018	1047.916	785.772
409.438	16.950	1047.641	785.182
410.453	17.127	1046.849	785.337
411.467	17.109	1045.926	784.491
412.482	17.127	1045.584	784.251
413.496	17.136	1044.689	783.550
414.511	17.247	1043.984	783.465
415.526	17.238	1043.427	782.936
416.540	17.230	1043.351	782.774
417.555	17.244	1042.970	782.480
418.569	17.177	1042.777	781.961
419.584	17.163	1042.041	781.272
420.599	17.276	1041.178	781.077
421.613	105.212	1325.286	1478.759
422.628	96.589	1366.668	1478.868
