DTS Sentinel unit serial number:	SN413079Multiplexer serial number:	ORYXHardware model number:	OX4-SRSoftware version number:	ORYX F/W v4.00 Oryx Data Collector v3.7.2.0data status	okinstallation	princeton_trtdifferential loss correction	single-endedforward channel	channel 2reverse channel	N/Adate	2019/09/16time	23:31:34forward acquisition time	60.00reverse acquisition time	0.00gamma	496.2192k internal	0.2330k external	0.2330temperature offset calibration	0.9972default loss term (dB/km)	0.3790temperature slope calibration	1.0000multiplexer offset coefficient	1.0000multiplexer slope coefficient	1.0000fibre end	0.00T internal ref (°C)	29.87T ext. ref 1 (°C)	0.09T ext. ref 2 (°C)	23.58length (m)	temperature (°C)	Stokes	anti-Stokes-747.200	-200.000	0.041	0.200
-746.185	-91.035	0.366	-0.106
-745.171	-122.334	-0.160	-0.026
-744.156	800.000	-0.059	0.182
-743.142	63.423	0.138	0.140
-742.127	-36.264	-0.028	-0.015
-741.112	-137.497	-0.167	0.019
-740.098	244.947	0.118	0.201
-739.083	20.300	-0.174	0.141
-738.069	103.836	-0.298	0.352
-737.054	417.075	0.146	0.313
-736.039	-56.567	-0.201	-0.090
-735.025	-11.535	0.070	-0.046
-734.010	-45.513	-0.037	-0.019
-732.996	172.908	-0.073	-0.105
-731.981	5.112	-0.149	0.111
-730.966	-132.068	-0.376	0.049
-729.952	38.655	-0.100	-0.089
-728.937	-200.000	0.062	0.381
-727.923	800.000	-0.035	0.144
-726.908	-155.331	-0.493	0.032
-725.894	-87.747	0.258	0.078
-724.879	-117.453	-0.120	-0.022
-723.864	-110.914	-0.156	0.032
-722.850	0.747	-0.083	0.060
-721.835	-189.401	0.274	-0.003
-720.821	-143.483	-0.276	-0.027
-719.806	800.000	-0.033	-0.115
-718.791	-82.579	-0.075	0.024
-717.777	-172.477	-0.148	-0.005
-716.762	270.612	0.092	-0.162
-715.748	197.596	0.064	0.099
-714.733	25.911	-0.245	0.205
-713.718	-31.356	0.227	0.129
-712.704	-82.341	0.303	-0.099
-711.689	403.713	-0.089	-0.188
-710.675	-47.526	0.156	-0.076
-709.660	251.563	0.152	-0.260
-708.645	-2.437	-0.208	-0.147
-707.631	800.000	0.110	0.362
-706.616	10.594	0.268	0.205
-705.602	-121.982	0.225	-0.037
-704.587	36.798	-0.177	0.158
-703.572	358.376	0.052	0.104
-702.558	-200.000	-0.054	-0.405
-701.543	96.651	-0.091	0.105
-700.529	-127.672	-0.282	-0.041
-699.514	-200.000	-0.036	0.214
-698.499	7.388	-0.219	0.165
-697.485	-80.115	0.222	0.075
-696.470	800.000	-0.050	-0.207
-695.456	-75.789	-0.228	0.081
-694.441	-200.000	0.000	0.082
-693.426	-56.979	-0.189	-0.084
-692.412	-200.000	0.014	0.277
-691.397	195.104	0.132	0.202
-690.383	-200.000	0.010	0.085
-689.368	-114.956	-0.166	-0.032
-688.354	213.311	-0.092	-0.146
-687.339	-130.945	0.073	-0.010
-686.324	302.203	-0.126	0.234
-685.310	121.090	0.229	0.286
-684.295	-46.593	-0.144	-0.071
-683.281	8.153	-0.271	-0.205
-682.266	519.864	-0.112	-0.264
-681.251	800.000	0.060	-0.199
-680.237	256.910	0.227	0.392
-679.222	38.246	-0.206	-0.184
-678.208	249.609	-0.097	-0.166
-677.193	-200.000	-0.003	0.385
-676.178	-200.000	0.001	0.064
-675.164	800.000	0.091	-0.322
-674.149	-74.391	-0.077	0.028
-673.135	800.000	-0.099	-0.370
-672.120	800.000	0.049	-0.209
-671.105	-16.723	0.177	-0.112
-670.091	-200.000	-0.107	-0.531
-669.076	-200.000	-0.008	-0.129
-668.062	31.652	0.296	-0.255
-667.047	-200.000	0.017	-0.161
-666.032	103.706	0.208	-0.245
-665.018	-11.996	-0.247	-0.163
-664.003	2.840	-0.099	-0.072
-662.989	30.121	-0.240	0.205
-661.974	47.365	0.215	-0.201
-660.959	800.000	0.054	0.170
-659.945	-76.094	-0.372	0.132
-658.930	220.476	-0.139	0.224
-657.916	41.406	0.048	0.043
-656.901	-36.689	0.158	-0.085
-655.886	189.599	0.064	0.097
-654.872	-183.234	-0.116	-0.002
-653.857	641.316	0.057	0.146
-652.843	-138.964	-0.106	-0.012
-651.828	114.556	0.014	0.017
-650.814	603.239	-0.030	-0.075
-649.799	250.443	-0.044	-0.075
-648.784	158.868	0.053	-0.075
-647.770	-50.099	0.291	0.138
-646.755	171.273	-0.136	0.195
-645.741	-38.074	-0.027	0.015
-644.726	-112.915	0.125	-0.025
-643.711	276.172	0.264	0.471
-642.697	-38.525	-0.325	0.172
-641.682	81.758	0.064	-0.070
-640.668	-99.319	-0.268	-0.068
-639.653	576.280	0.033	0.081
-638.638	-148.452	-0.177	0.015
-637.624	-200.000	0.059	-0.608
-636.609	91.156	0.056	0.063
-635.595	-200.000	-0.028	0.145
-634.580	42.008	-0.114	-0.104
-633.565	800.000	-0.093	-0.258
-632.551	-120.150	-0.374	0.064
-631.536	-52.232	0.306	0.142
-630.522	-42.020	0.307	-0.157
-629.507	-132.516	-0.201	0.026
-628.492	114.851	-0.222	0.272
-627.478	-72.889	-0.115	-0.043
-626.463	-30.532	-0.182	0.103
-625.449	-62.852	-0.272	0.113
-624.434	29.126	-0.020	0.017
-623.419	277.550	0.110	-0.196
-622.405	-200.000	-0.018	0.099
-621.390	227.393	0.158	-0.257
-620.376	-200.000	-0.003	-0.360
-619.361	-111.667	-0.157	-0.032
-618.346	-22.533	-0.092	0.055
-617.332	-84.603	-0.436	0.138
-616.317	-82.468	-0.141	-0.046
-615.303	376.883	-0.049	-0.101
-614.288	459.495	0.070	0.156
-613.273	-200.000	-0.037	-0.260
-612.259	40.381	-0.124	-0.112
-611.244	57.688	0.274	-0.268
-610.230	-83.782	0.257	-0.082
-609.215	322.383	0.073	0.139
-608.201	-110.866	-0.198	0.041
-607.186	-25.883	-0.301	-0.178
-606.171	-67.297	0.198	0.078
-605.157	-88.549	0.290	0.086
-604.142	120.430	-0.031	-0.038
-603.128	92.174	-0.155	0.175
-602.113	2.955	0.091	0.066
-601.098	-52.886	0.167	0.077
-600.084	-8.355	-0.044	0.029
-599.069	800.000	0.031	0.094
-598.055	-200.000	-0.088	0.460
-597.040	800.000	0.066	0.184
-596.025	272.011	0.034	-0.060
-595.011	-200.000	0.024	-0.209
-593.996	251.463	-0.165	-0.282
-592.982	150.812	-0.047	0.064
-591.967	-102.853	0.130	0.031
-590.952	251.655	0.049	-0.084
-589.938	-141.413	-0.225	0.023
-588.923	800.000	-0.080	-0.272
-587.909	-2.775	0.070	-0.049
-586.894	295.709	0.078	0.142
-585.879	800.000	-0.093	-0.321
-584.865	-63.949	0.252	0.103
-583.850	-118.814	-0.229	0.040
-582.836	-200.000	-0.018	-0.223
-581.821	-168.793	0.349	-0.013
-580.806	196.821	0.043	-0.066
-579.792	-47.993	-0.238	-0.115
-578.777	313.516	0.074	0.140
-577.763	800.000	-0.071	-0.215
-576.748	-119.851	-0.094	-0.016
-575.733	224.426	-0.124	0.201
-574.719	48.178	0.103	-0.097
-573.704	174.837	-0.006	0.009
-572.690	192.965	-0.051	-0.077
-571.675	-72.638	0.146	0.054
-570.661	-200.000	0.020	-0.122
-569.646	-116.610	0.106	0.019
-568.631	140.153	-0.147	-0.194
-567.617	-200.000	-0.060	-0.269
-566.602	-31.124	-0.294	-0.166
-565.588	65.565	-0.106	0.107
-564.573	-126.905	-0.377	-0.055
-563.558	18.459	-0.065	0.052
-562.544	-155.589	-0.553	0.036
-561.529	-0.102	0.043	0.031
-560.515	-4.062	-0.226	-0.157
-559.500	764.377	-0.050	-0.136
-558.485	-200.000	0.057	0.437
-557.471	96.161	0.106	0.122
-556.456	149.593	-0.136	-0.184
-555.442	-200.000	0.107	-0.477
-554.427	-200.000	-0.039	-0.188
-553.412	-29.720	0.205	0.117
-552.398	-127.514	-0.548	-0.079
-551.383	-136.827	-0.182	0.021
-550.369	334.385	-0.031	-0.060
-549.354	-1.823	0.129	0.090
-548.339	-69.682	-0.358	-0.137
-547.325	-31.074	-0.289	0.163
-546.310	335.966	-0.065	-0.125
-545.296	313.710	-0.042	0.080
-544.281	-79.453	0.330	-0.112
-543.266	-47.758	0.341	-0.165
-542.252	17.926	-0.127	0.101
-541.237	110.574	0.117	-0.141
-540.223	137.984	0.126	0.165
-539.208	207.312	-0.085	0.132
-538.193	154.652	0.198	0.271
-537.179	497.199	-0.130	-0.300
-536.164	-94.940	-0.276	0.075
-535.150	-74.521	0.076	-0.027
-534.135	800.000	0.055	0.230
-533.121	54.167	-0.266	0.255
-532.106	378.363	0.019	-0.038
-531.091	162.079	-0.192	-0.269
-530.077	-200.000	0.005	-0.215
-529.062	-200.000	-0.016	0.227
-528.048	800.000	0.158	0.476
-527.033	148.338	-0.100	0.134
-526.018	800.000	-0.063	0.214
-525.004	-126.624	-0.112	0.017
-523.989	800.000	-0.119	0.390
-522.975	1.264	-0.272	0.195
-521.960	271.035	-0.077	-0.136
-520.945	-114.088	0.305	-0.059
-519.931	104.486	0.231	0.272
-518.916	-200.000	-0.008	-0.375
-517.902	-114.438	-0.170	0.033
-516.887	292.583	0.112	-0.204
-515.872	433.130	-0.092	-0.200
-514.858	-20.530	0.349	0.214
-513.843	72.557	-0.213	-0.222
-512.829	800.000	0.013	0.041
-511.814	-200.000	-0.023	-0.102
-510.799	-84.838	0.063	-0.020
-509.785	-123.772	-0.096	0.015
-508.770	56.828	0.289	-0.281
-507.756	291.001	-0.122	0.222
-506.741	449.945	-0.133	0.292
-505.726	-200.000	-0.025	-0.424
-504.712	25.355	0.166	-0.137
-503.697	-29.675	0.104	-0.059
-502.683	81.852	-0.071	-0.077
-501.668	800.000	0.047	-0.191
-500.653	56.805	0.088	-0.085
-499.639	246.990	0.234	-0.393
-498.624	125.182	0.063	-0.079
-497.610	-200.000	0.014	0.207
-496.595	-30.578	0.107	0.060
-495.581	527.982	0.118	-0.278
-494.566	117.156	-0.180	0.221
-493.551	-36.899	-0.115	0.061
-492.537	-200.000	0.031	0.181
-491.522	-117.859	0.082	-0.015
-490.508	382.131	0.154	0.316
-489.493	-44.185	0.217	0.109
-488.478	-54.109	-0.192	-0.087
-487.464	182.396	0.279	0.410
-486.449	-90.236	0.073	-0.021
-485.435	800.000	-0.040	0.114
-484.420	-112.664	-0.149	-0.029
-483.405	83.813	-0.250	0.272
-482.391	168.790	-0.106	-0.151
-481.376	800.000	-0.097	0.393
-480.362	-102.300	-0.221	-0.053
-479.347	-136.505	-0.123	0.014
-478.332	-57.801	-0.137	-0.060
-477.318	-175.083	-0.208	-0.006
-476.303	52.731	-0.235	-0.224
-475.289	-143.132	0.153	0.015
-474.274	800.000	-0.080	-0.277
-473.259	-73.771	-0.345	0.125
-472.245	-83.300	-0.142	-0.045
-471.230	178.290	0.227	0.330
-470.216	683.504	0.074	0.191
-469.201	800.000	0.089	0.336
-468.186	-200.000	0.008	-0.214
-467.172	-31.984	-0.098	-0.055
-466.157	-88.874	0.092	-0.027
-465.143	-48.879	0.148	-0.071
-464.128	604.797	0.022	-0.055
-463.113	105.830	0.154	-0.181
-462.099	-200.000	0.001	0.112
-461.084	51.462	-0.163	0.154
-460.070	16.828	0.133	0.105
-459.055	-65.374	0.171	-0.068
-458.040	-45.778	0.327	-0.161
-457.026	-99.868	0.077	-0.019
-456.011	203.565	-0.067	-0.103
-454.997	-62.529	0.048	-0.020
-453.982	-1.657	0.320	-0.225
-452.968	800.000	-0.022	-0.075
-451.953	17.564	-0.204	0.162
-450.938	404.422	0.156	-0.328
-449.924	322.203	0.203	0.385
-448.909	-128.995	0.561	0.078
-447.895	174.621	0.252	0.362
-446.880	285.632	0.108	-0.194
-445.865	-150.584	0.319	-0.024
-444.851	-200.000	0.065	-0.284
-443.836	-200.000	0.014	0.072
-442.822	95.982	-0.075	-0.086
-441.807	-200.000	0.023	-0.118
-440.792	-200.000	-0.056	0.266
-439.778	-16.810	-0.066	-0.042
-438.763	-121.449	-0.230	0.038
-437.749	-71.866	0.123	-0.046
-436.734	-35.874	0.130	0.070
-435.719	-164.225	0.205	0.009
-434.705	800.000	-0.120	-0.348
-433.690	-11.607	0.309	0.202
-432.676	-120.221	0.333	-0.057
-431.661	-30.210	-0.227	0.128
-430.646	77.512	-0.221	-0.234
-429.632	-200.000	-0.041	0.251
-428.617	42.574	-0.262	-0.237
-427.603	-46.727	0.160	-0.078
-426.588	800.000	0.125	0.366
-425.573	4.253	-0.082	0.060
-424.559	428.933	0.145	-0.311
-423.544	-56.830	0.163	-0.072
-422.530	133.571	0.089	0.114
-421.515	362.287	0.073	0.146
-420.500	278.842	0.073	0.129
-419.486	-16.705	-0.516	-0.325
-418.471	0.347	-0.054	-0.038
-417.457	79.029	-0.156	0.166
-416.442	-91.450	-0.199	0.056
-415.428	416.858	0.013	-0.027
-414.413	-117.971	0.111	-0.020
-413.398	222.446	0.205	-0.328
-412.384	800.000	0.049	0.161
-411.369	-200.000	-0.021	-0.187
-410.355	3.803	0.362	0.263
-409.340	55.920	-0.060	-0.058
-408.325	-200.000	-0.036	0.240
-407.311	-200.000	-0.020	0.140
-406.296	177.902	-0.108	0.156
-405.282	-128.987	0.235	-0.033
-404.267	-200.000	-0.046	-0.297
-403.252	-59.037	-0.231	-0.099
-402.238	450.366	0.030	0.065
-401.223	-75.323	0.272	0.096
-400.209	615.628	0.132	0.329
-399.194	800.000	0.023	-0.064
-398.179	-200.000	-0.019	-0.523
-397.165	9.378	-0.215	-0.162
-396.150	382.578	-0.068	-0.138
-395.136	126.714	-0.225	0.283
-394.121	34.563	0.148	0.128
-393.106	690.764	-0.046	-0.121
-392.092	21.465	0.068	-0.055
-391.077	-7.600	-0.061	0.041
-390.063	-22.060	0.130	0.078
-389.048	128.436	0.203	-0.257
-388.033	53.674	0.088	-0.084
-387.019	-200.000	0.037	-0.304
-386.004	-105.337	0.317	-0.072
-384.990	-14.942	-0.051	0.033
-383.975	-10.840	0.347	0.228
-382.960	143.070	0.114	-0.151
-381.946	576.975	-0.057	0.138
-380.931	-27.081	-0.110	-0.064
-379.917	766.057	0.028	0.074
-378.902	800.000	0.017	-0.068
-377.888	-76.685	0.321	-0.112
-376.873	-117.933	-0.292	0.052
-375.858	-50.642	0.172	-0.080
-374.844	-171.424	0.252	0.008
-373.829	-23.066	-0.092	-0.055
-372.815	-200.000	0.027	-0.608
-371.800	-56.299	-0.203	0.089
-370.785	800.000	-0.086	0.250
-369.771	-11.781	0.208	-0.136
-368.756	-80.343	-0.130	0.043
-367.742	-43.035	-0.183	0.092
-366.727	152.748	-0.147	0.200
-365.712	455.458	-0.069	0.152
-364.698	-80.597	0.441	-0.146
-363.683	-123.478	-0.127	-0.020
-362.669	120.215	-0.163	0.201
-361.654	-165.092	0.300	0.013
-360.639	-103.020	0.224	-0.053
-359.625	-200.000	0.068	-0.394
-358.610	145.638	-0.201	-0.267
-357.596	-200.000	-0.062	-0.310
-356.581	-48.582	-0.108	-0.052
-355.566	-14.806	0.275	0.175
-354.552	800.000	0.009	0.034
-353.537	28.766	0.134	-0.113
-352.523	-118.144	0.380	-0.067
-351.508	-130.481	-0.492	-0.066
-350.493	5.888	-0.212	-0.155
-349.479	-125.067	0.131	0.020
-348.464	-148.680	0.024	0.002
-347.450	-130.439	0.302	0.041
-346.435	112.747	-0.094	0.113
-345.420	-53.911	-0.130	-0.059
-344.406	313.661	0.070	-0.130
-343.391	12.289	0.189	0.144
-342.377	173.849	-0.124	-0.178
-341.362	-47.145	0.314	0.152
-340.348	-200.000	0.074	0.481
-339.333	-117.337	-0.274	-0.049
-338.318	-200.000	0.027	0.397
-337.304	-85.989	-0.318	0.097
-336.289	67.175	0.158	-0.159
-335.275	-200.000	-0.010	-0.116
-334.260	141.126	0.137	-0.179
-333.245	-200.000	-0.030	0.220
-332.231	-1.174	0.181	-0.126
-331.216	-70.506	0.274	-0.103
-330.202	111.601	0.009	0.010
-329.187	745.253	-0.080	-0.214
-328.172	461.860	0.145	-0.320
-327.158	-200.000	-0.001	-0.212
-326.143	-0.304	-0.137	0.096
-325.129	10.861	-0.230	-0.174
-324.114	800.000	0.043	-0.154
-323.099	-73.843	0.037	-0.013
-322.085	721.583	-0.037	0.098
-321.070	-147.782	0.254	-0.021
-320.056	61.924	-0.404	-0.398
-319.041	-16.131	-0.452	0.284
-318.026	-20.493	-0.105	-0.064
-317.012	800.000	0.074	0.290
-315.997	-103.662	0.304	0.071
-314.983	150.111	0.042	0.056
-313.968	-30.648	-0.096	0.054
-312.953	-145.569	-0.372	-0.033
-311.939	-127.423	0.229	-0.033
-310.924	-77.511	-0.114	0.039
-309.910	314.537	-0.184	0.344
-308.895	135.945	-0.119	0.153
-307.880	-200.000	-0.023	0.103
-306.866	128.264	-0.045	-0.056
-305.851	-200.000	-0.037	-0.233
-304.837	800.000	0.035	0.117
-303.822	-200.000	-0.017	0.104
-302.807	-89.940	0.255	0.074
-301.793	90.231	0.164	0.182
-300.778	195.365	0.113	-0.171
-299.764	-22.687	0.238	-0.142
-298.749	-125.959	-0.218	0.032
-297.735	-200.000	-0.007	0.108
-296.720	9.573	0.144	0.108
-295.705	106.056	-0.068	0.080
-294.691	159.799	0.110	0.152
-293.676	506.768	-0.150	-0.343
-292.662	192.499	-0.114	-0.170
-291.647	-200.000	-0.020	-0.258
-290.632	-200.000	0.003	-0.119
-289.618	39.465	-0.224	0.199
-288.603	-5.482	0.161	0.110
-287.589	-86.467	-0.218	0.066
-286.574	-8.512	-0.141	-0.094
-285.559	132.753	-0.273	-0.349
-284.545	432.032	-0.091	0.195
-283.530	-175.351	0.163	-0.004
-282.516	-22.644	-0.380	-0.227
-281.501	186.772	-0.141	-0.208
-280.486	-200.000	-0.059	0.371
-279.472	-45.669	-0.074	0.036
-278.457	388.822	0.095	-0.195
-277.443	-96.825	0.236	0.061
-276.428	68.973	0.182	0.185
-275.413	16.181	-0.140	-0.109
-274.399	189.054	-0.056	0.083
-273.384	-109.271	0.300	0.063
-272.370	-186.517	0.167	-0.002
-271.355	159.578	0.162	0.223
-270.340	120.752	-0.170	-0.209
-269.326	79.010	-0.147	0.156
-268.311	-200.000	-0.057	-0.262
-267.297	-94.536	-0.106	-0.029
-266.282	322.409	0.143	-0.269
-265.267	-200.000	-0.012	0.133
-264.253	5.547	0.093	-0.068
-263.238	162.492	-0.160	-0.222
-262.224	800.000	0.048	-0.133
-261.209	-53.180	-0.190	0.086
-260.195	-43.920	0.133	0.066
-259.180	800.000	-0.031	-0.100
-258.165	-96.190	-0.354	-0.093
-257.151	268.791	-0.120	-0.207
-256.136	-200.000	-0.032	-0.196
-255.122	-113.671	-0.354	0.068
-254.107	0.291	-0.305	-0.215
-253.092	517.364	0.137	0.318
-252.078	2.675	-0.181	-0.130
-251.063	-24.016	0.293	0.173
-250.049	502.851	0.157	-0.359
-249.034	-71.374	-0.154	-0.057
-248.019	-200.000	0.044	0.234
-247.005	101.398	0.103	0.119
-245.990	65.934	-0.158	-0.159
-244.976	99.190	0.087	0.099
-243.961	-172.262	0.221	0.007
-242.946	800.000	0.133	0.431
-241.932	-122.207	0.484	-0.078
-240.917	-176.922	-0.102	0.003
-239.903	412.151	0.201	0.422
-238.888	-97.576	0.116	-0.030
-237.873	-115.379	-0.058	-0.011
-236.859	49.736	0.104	-0.097
-235.844	-200.000	-0.008	0.048
-234.830	-55.361	-0.052	0.023
-233.815	-61.557	-0.157	-0.065
-232.800	-17.923	0.052	0.032
-231.786	-39.949	0.210	0.108
-230.771	-15.411	-0.199	-0.126
-229.757	-200.000	-0.047	0.313
-228.742	-86.391	0.276	0.084
-227.727	-84.153	0.072	0.022
-226.713	-6.002	0.147	0.099
-225.698	-68.207	0.074	-0.028
-224.684	-200.000	0.013	0.104
-223.669	-38.458	-0.174	-0.091
-222.655	222.228	-0.148	0.234
-221.640	-200.000	0.018	-0.237
-220.625	172.073	-0.114	-0.162
-219.611	800.000	0.021	0.056
-218.596	-200.000	-0.043	-0.243
-217.582	-200.000	-0.020	-0.203
-216.567	-161.669	0.270	-0.014
-215.552	-114.873	0.173	-0.033
-214.538	800.000	0.054	-0.217
-213.523	-128.766	0.334	-0.046
-212.509	504.633	0.026	-0.060
-211.494	-118.378	-0.092	0.016
-210.479	-200.000	-0.070	0.413
-209.465	681.563	-0.126	0.323
-208.450	192.761	-0.031	0.046
-207.436	36.494	0.287	0.250
-206.421	-200.000	0.014	0.341
-205.406	-31.273	-0.095	0.053
-204.392	-44.672	-0.144	0.071
-203.377	-121.173	-0.207	-0.034
-202.363	727.178	0.083	0.220
-201.348	551.606	0.004	0.008
-200.333	-200.000	-0.017	-0.077
-199.319	246.234	0.106	0.176
-198.304	-130.211	0.111	0.015
-197.290	105.395	0.134	-0.156
-196.275	252.281	-0.196	0.329
-195.260	-93.483	-0.218	0.059
-194.246	304.623	0.123	-0.225
-193.231	197.570	-0.029	-0.044
-192.217	800.000	0.085	-0.250
-191.202	-200.000	-0.007	-0.118
-190.187	-200.000	0.002	-0.132
-189.173	-19.329	-0.256	0.156
-188.158	-167.310	0.104	-0.004
-187.144	148.214	-0.088	-0.118
-186.129	94.416	-0.079	-0.089
-185.114	-200.000	0.013	0.162
-184.100	-200.000	0.012	0.106
-183.085	800.000	0.059	0.177
-182.071	800.000	-0.087	0.294
-181.056	-200.000	-0.010	0.286
-180.042	800.000	-0.032	-0.136
-179.027	514.395	0.120	0.275
-178.012	60.769	0.107	-0.104
-176.998	-140.676	-0.228	-0.023
-175.983	-161.696	0.451	-0.023
-174.969	443.237	-0.044	-0.095
-173.954	46.554	0.091	-0.083
-172.939	1.509	0.072	0.051
-171.925	185.360	0.196	0.287
-170.910	33.958	-0.107	-0.091
-169.896	800.000	0.003	-0.015
-168.881	24.167	-0.132	0.107
-167.866	92.283	0.085	-0.095
-166.852	-70.475	-0.364	0.136
-165.837	-200.000	-0.067	0.309
-164.823	77.131	0.062	0.065
-163.808	95.078	-0.139	-0.156
-162.793	-187.833	-0.128	0.002
-161.779	752.975	0.135	-0.359
-160.764	-87.290	0.390	0.117
-159.750	10.903	0.108	-0.081
-158.735	166.613	0.110	0.153
-157.720	99.261	-0.192	0.218
-156.706	27.056	0.273	-0.225
-155.691	800.000	0.218	0.601
-154.677	-123.803	-0.070	0.011
-153.662	208.967	0.054	0.083
-152.647	-106.542	-0.399	-0.087
-151.633	-200.000	-0.024	0.260
-150.618	154.960	0.234	0.316
-149.604	7.779	-0.224	-0.165
-148.589	-0.045	-0.213	0.149
-147.574	800.000	-0.021	0.086
-146.560	407.362	0.090	0.186
-145.545	-200.000	-0.062	0.269
-144.531	800.000	0.074	-0.277
-143.516	179.525	-0.235	-0.339
-142.502	-58.152	-0.118	-0.051
-141.487	393.583	-0.099	0.203
-140.472	47.834	0.303	0.278
-139.458	233.899	-0.207	0.335
-138.443	89.016	-0.278	0.305
-137.429	162.630	0.194	0.268
-136.414	24.654	-0.099	-0.081
-135.399	9.058	-0.251	0.186
-134.385	3.936	0.185	-0.133
-133.370	-200.000	-0.007	-0.140
-132.356	-159.901	-0.085	-0.005
-131.341	-57.374	-0.097	-0.042
-130.326	-200.000	0.009	0.185
-129.312	-194.740	-0.197	0.002
-128.297	-22.139	-0.080	0.048
-127.283	-98.635	-0.120	0.030
-126.268	-96.259	0.284	0.074
-125.253	-200.000	-0.020	-0.226
-124.239	-105.379	0.019	0.004
-123.224	800.000	-0.074	-0.309
-122.210	-12.993	-0.328	0.210
-121.195	-200.000	0.044	0.415
-120.180	108.377	-0.214	0.250
-119.166	66.144	0.262	0.261
-118.151	-200.000	-0.001	0.286
-117.137	-90.285	-0.461	-0.132
-116.122	370.107	0.071	-0.142
-115.107	-82.883	0.448	-0.142
-114.093	-74.846	-0.345	0.122
-113.078	-200.000	-0.017	-0.360
-112.064	-168.873	0.277	-0.010
-111.049	-58.115	0.123	0.053
-110.034	-48.013	-0.612	-0.291
-109.020	98.076	0.253	-0.286
-108.005	-60.186	0.162	0.068
-106.991	61.609	0.148	0.144
-105.976	82.148	0.168	0.179
-104.962	357.485	-0.119	-0.233
-103.947	582.397	-0.095	-0.230
-102.932	59.728	-0.187	0.182
-101.918	313.510	0.065	-0.121
-100.903	-80.608	0.202	0.066
-99.889	-162.571	-0.373	-0.018
-98.874	800.000	0.100	0.374
-97.859	-72.708	-0.097	0.035
-96.845	-200.000	-0.011	0.421
-95.830	800.000	-0.058	0.223
-94.816	102.712	0.116	-0.133
-93.801	269.498	-0.227	0.391
-92.786	-9.667	0.217	0.142
-91.772	800.000	-0.079	-0.299
-90.757	256.340	0.109	0.183
-89.743	-72.339	0.407	0.148
-88.728	-41.041	0.240	-0.122
-87.713	800.000	-0.042	0.175
-86.699	-61.600	-0.163	0.067
-85.684	800.000	0.026	-0.101
-84.670	196.507	0.095	-0.142
-83.655	-99.879	-0.179	-0.044
-82.640	800.000	0.048	-0.144
-81.626	-37.997	-0.100	-0.052
-80.611	-43.825	-0.167	-0.082
-79.597	-200.000	0.007	0.493
-78.582	-200.000	0.006	0.326
-77.567	-88.673	-0.388	0.113
-76.553	65.727	-0.160	-0.159
-75.538	40.829	-0.321	0.284
-74.524	-145.371	0.443	0.039
-73.509	-1.487	0.067	-0.047
-72.494	-129.992	0.507	0.068
-71.480	-200.000	-0.044	0.272
-70.465	-81.271	0.211	-0.068
-69.451	21.312	-0.125	0.100
-68.436	800.000	0.052	-0.220
-67.422	-189.957	0.200	-0.002
-66.407	800.000	0.107	0.432
-65.392	149.571	-0.115	-0.153
-64.378	-108.107	0.530	0.113
-63.363	-67.335	0.339	0.131
-62.349	800.000	-0.076	-0.259
-61.334	12.469	-0.987	-0.747
-60.319	-12.295	0.426	0.273
-59.305	456.438	-0.599	-1.303
-58.290	188.126	0.731	1.071
-57.276	800.000	0.413	1.347
-56.261	-200.000	108.575	594.254
-55.246	454.469	1477.514	3208.556
-54.232	147.591	2664.074	3517.883
-53.217	100.819	2282.716	2600.810
-52.203	38.918	1896.159	1660.385
-51.188	33.140	1685.939	1432.618
-50.173	30.487	1642.876	1376.346
-49.159	49.343	1695.482	1562.785
-48.144	49.967	1711.508	1582.189
-47.130	32.757	1668.649	1414.830
-46.115	29.950	1655.030	1382.307
-45.100	29.781	1650.236	1376.990
-44.086	29.774	1647.568	1374.651
-43.071	29.787	1644.621	1372.233
-42.057	29.744	1641.952	1369.639
-41.042	29.717	1640.159	1367.886
-40.027	29.800	1638.160	1366.780
-39.013	29.730	1636.508	1364.831
-37.998	29.742	1635.033	1363.634
-36.984	29.717	1633.752	1362.328
-35.969	29.868	1631.992	1361.918
-34.954	29.963	1630.252	1361.109
-33.940	29.841	1628.853	1358.993
-32.925	29.944	1626.539	1357.764
-31.911	29.856	1625.555	1356.239
-30.896	29.915	1623.133	1354.597
-29.881	29.806	1622.184	1352.954
-28.867	29.794	1620.115	1351.089
-27.852	29.917	1618.635	1350.700
-26.838	29.821	1617.563	1349.053
-25.823	29.873	1616.349	1348.366
-24.809	29.919	1615.031	1347.546
-23.794	29.894	1613.109	1345.706
-22.779	29.981	1611.617	1345.042
-21.765	29.884	1610.185	1343.089
-20.750	29.891	1608.463	1341.652
-19.736	29.944	1607.166	1340.899
-18.721	29.925	1605.817	1339.583
-17.706	29.985	1603.886	1338.349
-16.692	29.892	1602.727	1336.658
-15.677	29.856	1601.609	1335.417
-14.663	29.867	1600.259	1334.316
-13.648	29.867	1598.795	1333.044
-12.633	29.851	1597.228	1331.566
-11.619	29.920	1595.415	1330.502
-10.604	29.882	1594.374	1329.302
-9.590	29.903	1593.215	1328.434
-8.575	29.949	1591.847	1327.575
-7.560	29.905	1590.790	1326.324
-6.546	29.928	1589.422	1325.293
-5.531	29.969	1588.697	1324.929
-4.517	29.824	1587.626	1322.948
-3.502	29.842	1586.406	1322.009
-2.487	29.967	1584.318	1321.105
-1.473	29.602	1572.504	1308.619
-0.458	26.616	1553.014	1271.420
0.556	21.196	1554.338	1239.597
1.571	18.815	1578.217	1241.350
2.586	18.437	1590.704	1248.303
3.600	16.794	1538.184	1195.398
4.615	9.349	1429.176	1061.606
5.629	1.703	1365.211	965.645
6.644	0.230	1356.690	950.249
7.659	0.063	1355.752	948.456
8.673	-0.001	1354.690	947.225
9.688	0.057	1352.279	945.817
10.702	-0.101	1349.441	942.755
11.717	3.461	1355.031	968.991
12.731	11.882	1368.202	1031.572
13.746	17.237	1375.491	1070.812
14.761	17.233	1374.197	1069.680
15.775	16.324	1370.774	1061.211
16.790	15.256	1368.779	1052.869
17.804	14.489	1366.273	1046.039
18.819	14.164	1364.798	1042.779
19.834	13.881	1363.695	1040.075
20.848	13.583	1362.703	1037.360
21.863	13.362	1361.261	1034.788
22.877	13.194	1360.242	1032.874
23.892	13.176	1358.970	1031.699
24.907	13.165	1358.165	1030.930
25.921	13.156	1357.877	1030.564
26.936	13.129	1357.069	1029.690
27.950	13.253	1355.438	1029.137
28.965	13.250	1354.758	1028.506
29.980	13.282	1354.314	1028.277
30.994	13.441	1352.786	1028.016
32.009	13.406	1352.141	1027.218
33.023	13.415	1351.056	1026.360
34.038	13.425	1349.566	1025.200
35.053	13.386	1348.389	1023.974
36.067	13.358	1347.450	1022.998
37.082	13.257	1346.891	1021.853
38.096	13.379	1346.180	1021.980
39.111	13.301	1345.230	1020.685
40.126	13.356	1343.981	1019.985
41.140	13.170	1343.307	1018.241
42.155	13.200	1342.968	1018.077
43.169	13.094	1343.153	1017.473
44.184	13.105	1342.329	1016.827
45.199	13.150	1341.935	1016.717
46.213	13.158	1341.398	1016.269
47.228	13.322	1340.262	1016.329
48.242	13.197	1339.347	1014.773
49.257	13.314	1337.608	1014.086
50.271	13.201	1336.285	1012.301
51.286	13.318	1335.133	1012.057
52.301	13.349	1333.638	1011.021
53.315	13.294	1332.726	1009.901
54.330	13.252	1331.676	1008.764
55.344	13.174	1330.529	1007.329
56.359	13.163	1329.894	1006.690
57.374	13.127	1328.886	1005.619
58.388	13.110	1328.195	1004.907
59.403	13.187	1327.546	1004.793
60.417	13.137	1326.701	1003.765
61.432	13.125	1325.565	1002.739
62.447	13.055	1324.976	1001.779
63.461	13.040	1323.563	1000.535
64.476	13.044	1322.420	999.605
65.490	13.043	1321.409	998.744
66.505	13.120	1319.489	997.670
67.520	13.130	1318.829	997.148
68.534	13.146	1317.330	996.022
69.549	13.136	1316.373	995.147
70.563	13.090	1315.110	993.826
71.578	13.012	1314.406	992.742
72.593	12.989	1313.468	991.804
73.607	12.979	1312.949	991.267
74.622	12.993	1312.144	990.653
75.636	12.956	1311.361	989.750
76.651	13.013	1310.806	989.590
77.666	13.100	1309.537	989.064
78.680	13.012	1309.478	988.403
79.695	12.893	1308.554	986.907
80.709	13.106	1307.183	987.059
81.724	13.153	1306.691	986.880
82.739	13.186	1305.679	986.227
83.753	13.321	1304.903	986.359
84.768	13.323	1303.549	985.258
85.782	13.270	1302.977	984.423
86.797	13.318	1301.505	983.510
87.812	13.248	1300.336	982.127
88.826	13.247	1298.978	981.004
89.841	13.336	1298.228	980.881
90.855	13.384	1297.128	980.250
91.870	13.296	1296.668	979.292
92.884	13.372	1295.523	978.790
93.899	13.376	1294.797	978.176
94.914	13.453	1294.030	977.969
95.928	13.409	1293.541	977.253
96.943	13.452	1291.741	976.056
97.957	13.448	1291.160	975.512
98.972	13.382	1290.235	974.336
99.987	13.407	1289.121	973.556
101.001	13.326	1288.098	972.223
102.016	13.340	1287.515	971.776
103.030	13.432	1286.538	971.492
104.045	13.422	1285.348	970.453
105.060	13.313	1284.289	968.928
106.074	13.292	1282.701	967.520
107.089	13.140	1281.634	965.742
108.103	13.180	1280.390	964.953
109.118	13.193	1279.009	963.902
110.133	13.199	1277.600	962.788
111.147	13.155	1276.670	961.745
112.162	13.080	1275.474	960.323
113.176	13.225	1274.050	960.008
114.191	13.366	1272.754	959.764
115.206	13.314	1272.340	959.068
116.220	13.265	1271.282	957.901
117.235	13.270	1270.217	957.040
118.249	13.265	1268.977	955.993
119.264	13.173	1268.079	954.705
120.279	13.275	1266.704	954.172
121.293	13.283	1265.374	953.130
122.308	13.140	1264.454	951.532
123.322	13.085	1263.969	950.764
124.337	13.198	1262.834	950.479
125.352	13.145	1261.736	949.264
126.366	13.180	1260.159	948.192
127.381	13.115	1259.207	947.018
128.395	13.098	1258.085	945.997
129.410	13.247	1257.402	946.247
130.424	13.223	1256.598	945.422
131.439	13.162	1255.669	944.294
132.454	13.267	1254.308	943.783
133.468	13.230	1253.814	943.121
134.483	13.332	1252.951	942.966
135.497	13.272	1251.754	941.642
136.512	13.196	1251.166	940.681
137.527	13.263	1249.385	939.641
138.541	13.298	1247.705	938.497
139.556	13.430	1246.296	938.102
140.570	13.376	1245.543	937.143
141.585	13.332	1244.525	936.048
142.600	13.425	1242.909	935.273
143.614	13.434	1241.763	934.381
144.629	13.454	1241.320	934.075
145.643	13.436	1240.047	932.935
146.658	13.427	1239.021	932.029
147.673	13.389	1237.382	930.499
148.687	13.303	1236.445	929.229
149.702	13.359	1234.941	928.329
150.716	13.299	1234.032	927.231
151.731	13.216	1233.119	925.999
152.746	13.319	1231.614	925.360
153.760	13.366	1230.338	924.584
154.775	13.392	1229.479	924.002
155.789	13.434	1228.249	923.230
156.804	13.575	1227.072	923.048
157.819	13.606	1226.115	922.417
158.833	13.514	1225.650	921.478
159.848	13.687	1224.165	921.242
160.862	13.444	1223.657	919.428
161.877	13.525	1221.954	918.512
162.892	13.451	1221.500	917.679
163.906	13.522	1220.202	917.018
164.921	13.463	1219.393	916.002
165.935	13.537	1218.555	915.700
166.950	13.570	1217.948	915.344
167.964	13.664	1216.921	915.010
168.979	13.522	1216.947	914.169
169.994	13.476	1216.386	913.411
171.008	13.548	1215.121	912.775
172.023	13.650	1214.319	912.656
173.037	13.680	1213.259	911.943
174.052	13.695	1212.219	911.161
175.067	13.609	1211.249	909.880
176.081	13.581	1210.590	909.152
177.096	13.582	1209.779	908.467
178.110	13.640	1208.155	907.484
179.125	13.576	1207.382	906.476
180.140	13.728	1205.495	905.809
181.154	13.622	1205.077	904.833
182.169	13.680	1203.228	903.681
183.183	13.639	1202.642	902.941
184.198	13.699	1201.382	902.242
185.213	13.710	1200.159	901.303
186.227	13.816	1198.978	900.913
187.242	13.888	1197.819	900.350
188.256	13.930	1196.794	899.728
189.271	13.850	1196.058	898.662
190.286	13.819	1194.664	897.368
191.300	13.701	1194.074	896.207
192.315	13.623	1193.570	895.327
193.329	13.604	1193.440	895.051
194.344	13.677	1192.199	894.432
195.359	13.671	1191.936	894.124
196.373	13.815	1191.192	894.264
197.388	13.892	1190.872	894.357
198.402	13.873	1190.463	893.871
199.417	14.028	1189.031	893.550
200.432	13.969	1188.551	892.791
201.446	13.925	1188.193	892.207
202.461	13.977	1187.137	891.614
203.475	14.088	1186.007	891.282
204.490	14.153	1184.307	890.274
205.504	14.162	1183.087	889.324
206.519	14.034	1182.047	887.779
207.534	13.913	1181.264	886.471
208.548	14.138	1179.879	886.549
209.563	13.964	1179.635	885.360
210.577	14.025	1178.808	884.987
211.592	14.024	1178.122	884.390
212.607	14.048	1177.313	883.829
213.621	14.159	1176.023	883.371
214.636	14.234	1174.929	882.871
215.650	14.127	1174.544	881.939
216.665	14.115	1173.665	881.137
217.680	14.184	1172.772	880.750
218.694	14.324	1171.468	880.434
219.709	14.153	1171.297	879.324
220.723	14.229	1170.100	878.748
221.738	14.282	1169.433	878.453
222.753	14.368	1168.609	878.205
223.767	14.301	1168.020	877.334
224.782	14.406	1167.288	877.262
225.796	14.431	1166.854	876.986
226.811	14.353	1166.146	875.969
227.826	14.461	1165.297	875.822
228.840	14.364	1164.949	874.973
229.855	14.332	1164.049	874.051
230.869	14.254	1163.509	873.159
231.884	14.404	1162.417	873.046
232.899	14.396	1161.618	872.330
233.913	14.264	1161.130	871.194
234.928	14.297	1160.054	870.483
235.942	14.332	1159.338	870.048
236.957	14.336	1158.443	869.320
237.972	14.278	1158.106	868.688
238.986	14.284	1157.265	868.014
240.001	14.377	1156.519	867.861
241.015	14.365	1155.854	867.226
242.030	14.327	1155.098	866.383
243.045	14.478	1154.252	866.456
244.059	14.533	1153.286	865.938
245.074	14.471	1152.891	865.243
246.088	14.538	1151.824	864.712
247.103	14.500	1150.935	863.771
248.117	14.687	1150.152	864.077
249.132	14.604	1149.681	863.216
250.147	14.744	1148.947	863.312
251.161	14.864	1147.537	862.795
252.176	14.731	1147.554	862.046
253.190	14.838	1146.757	861.924
254.205	14.847	1146.546	861.738
255.220	14.857	1145.910	861.233
256.234	14.917	1144.821	860.649
257.249	14.788	1144.619	859.757
258.263	14.893	1143.509	859.384
259.278	14.890	1143.073	858.964
260.293	14.927	1142.616	858.734
261.307	14.979	1142.179	858.597
262.322	14.852	1141.762	857.556
263.336	15.069	1140.402	857.575
264.351	15.051	1139.806	856.956
265.366	15.065	1139.681	856.859
266.380	15.030	1138.817	855.953
267.395	15.026	1137.970	855.219
268.409	15.098	1137.043	854.818
269.424	15.077	1136.546	854.257
270.439	15.042	1136.143	853.704
271.453	15.051	1135.314	853.052
272.468	15.045	1134.098	852.030
273.482	15.128	1133.186	851.691
274.497	15.011	1132.941	850.839
275.512	15.157	1132.371	851.078
276.526	15.226	1131.222	850.489
277.541	15.071	1131.154	849.576
278.555	15.234	1129.678	849.216
279.570	15.294	1129.310	849.171
280.585	15.236	1128.554	848.232
281.599	15.263	1127.584	847.563
282.614	15.215	1126.826	846.677
283.628	15.249	1125.493	845.770
284.643	15.196	1124.878	844.966
285.657	15.198	1124.302	844.469
286.672	15.168	1123.340	843.524
287.687	15.307	1122.150	843.254
288.701	15.362	1121.223	842.759
289.716	15.281	1120.705	841.888
290.730	15.440	1119.906	842.007
291.745	15.356	1119.237	841.012
292.760	15.306	1119.227	840.677
293.774	15.414	1118.165	840.347
294.789	15.433	1117.963	840.214
295.803	15.459	1116.760	839.370
296.818	15.514	1116.012	839.006
297.833	15.351	1116.120	838.200
298.847	15.464	1114.807	837.702
299.862	15.446	1113.865	836.829
300.876	15.504	1113.250	836.583
301.891	15.659	1112.671	836.847
302.906	15.494	1112.091	835.513
303.920	15.582	1111.093	835.131
304.935	15.527	1110.625	834.432
305.949	15.767	1109.804	834.931
306.964	15.726	1109.241	834.229
307.979	15.603	1108.590	833.056
308.993	15.791	1107.634	833.194
310.008	15.648	1107.010	831.946
311.022	15.784	1106.199	831.932
312.037	15.708	1105.446	830.921
313.052	15.756	1104.286	830.209
314.066	15.630	1103.783	829.135
315.081	15.700	1102.719	828.607
316.095	15.563	1102.333	827.573
317.110	15.551	1101.559	826.857
318.125	15.691	1100.871	826.954
319.139	15.625	1100.138	826.010
320.154	15.632	1099.341	825.373
321.168	15.759	1098.854	825.557
322.183	15.677	1098.006	824.443
323.197	15.734	1097.467	824.248
324.212	15.823	1097.053	824.297
325.227	15.742	1096.492	823.406
326.241	15.750	1096.093	823.071
327.256	15.792	1095.051	822.423
328.270	15.766	1094.443	821.768
329.285	15.802	1093.181	820.923
330.300	15.747	1092.326	819.941
331.314	15.779	1091.245	819.210
332.329	15.815	1090.551	818.793
333.343	15.853	1089.894	818.410
334.358	15.810	1088.837	817.338
335.373	15.820	1088.749	817.249
336.387	15.909	1087.619	816.758
337.402	15.903	1086.965	816.165
338.416	15.902	1086.315	815.600
339.431	15.967	1085.712	815.388
340.446	16.079	1085.028	815.347
341.460	16.090	1084.600	815.006
342.475	16.177	1083.475	814.506
343.489	16.120	1082.449	813.392
344.504	16.134	1081.618	812.761
345.519	16.301	1080.686	812.791
346.533	16.336	1080.067	812.423
347.548	16.214	1079.582	811.400
348.562	16.245	1078.999	811.042
349.577	16.244	1077.800	810.065
350.592	16.104	1076.948	808.678
351.606	16.086	1076.603	808.263
352.621	16.060	1075.838	807.493
353.635	16.173	1075.046	807.364
354.650	16.222	1074.103	806.823
355.665	16.204	1073.708	806.366
356.679	16.213	1073.345	806.065
357.694	16.265	1072.613	805.691
358.708	16.353	1071.759	805.402
359.723	16.342	1071.108	804.786
360.738	16.312	1070.275	803.945
361.752	16.412	1069.708	803.925
362.767	16.401	1069.300	803.494
363.781	16.277	1069.147	802.718
364.796	16.400	1068.281	802.584
365.810	16.468	1067.899	802.550
366.825	16.487	1067.144	802.001
367.840	16.520	1066.757	801.792
368.854	16.693	1065.693	801.742
369.869	16.579	1065.210	800.768
370.883	16.604	1064.018	799.921
371.898	16.667	1063.805	799.989
372.913	16.517	1062.931	798.549
373.927	16.600	1062.751	798.738
374.942	16.656	1061.874	798.272
375.956	16.637	1061.534	797.855
376.971	16.709	1060.872	797.624
377.986	16.708	1060.429	797.220
379.000	16.804	1059.730	797.076
380.015	16.890	1059.033	796.882
381.029	16.738	1058.760	795.893
382.044	16.832	1057.884	795.604
383.059	16.855	1057.184	795.117
384.073	16.931	1055.974	794.492
385.088	16.810	1055.346	793.381
386.102	16.804	1054.505	792.651
387.117	16.929	1053.139	792.141
388.132	16.955	1052.348	791.596
389.146	16.847	1051.586	790.448
390.161	16.932	1051.075	790.390
391.175	16.839	1050.504	789.460
392.190	16.880	1049.505	788.830
393.205	16.910	1049.069	788.568
394.219	16.891	1048.183	787.745
395.234	16.977	1047.766	787.761
396.248	16.973	1046.483	786.711
397.263	16.886	1045.570	785.550
398.278	16.816	1044.868	784.628
399.292	16.922	1044.139	784.504
400.307	16.938	1043.575	784.086
401.321	16.919	1042.802	783.344
402.336	16.925	1042.320	782.944
403.350	17.079	1041.171	782.719
404.365	16.967	1040.965	781.981
405.380	17.044	1040.227	781.711
406.394	17.004	1039.379	780.820
407.409	17.024	1039.141	780.665
408.423	17.158	1038.209	780.511
409.438	17.238	1037.045	779.934
410.453	17.157	1036.705	779.236
411.467	17.276	1035.569	778.859
412.482	17.226	1035.293	778.355
413.496	17.294	1034.683	778.139
414.511	17.299	1034.315	777.818
415.526	17.300	1033.542	777.172
416.540	17.411	1033.168	777.326
417.555	17.342	1032.581	776.504
418.569	17.326	1032.454	776.266
419.584	17.212	1032.145	775.444
420.599	17.276	1031.694	775.328
421.613	103.565	1322.642	1469.961
422.628	94.795	1365.036	1470.057
