DTS Sentinel unit serial number:	SN413079Multiplexer serial number:	ORYXHardware model number:	OX4-SRSoftware version number:	ORYX F/W v4.00 Oryx Data Collector v3.7.2.0data status	okinstallation	princeton_trtdifferential loss correction	single-endedforward channel	channel 2reverse channel	N/Adate	2019/09/18time	08:35:35forward acquisition time	60.00reverse acquisition time	0.00gamma	496.2192k internal	0.2341k external	0.2341temperature offset calibration	0.9978default loss term (dB/km)	0.3790temperature slope calibration	1.0000multiplexer offset coefficient	1.0000multiplexer slope coefficient	1.0000fibre end	0.00T internal ref (°C)	24.44T ext. ref 1 (°C)	0.22T ext. ref 2 (°C)	20.15length (m)	temperature (°C)	Stokes	anti-Stokes-747.200	283.261	0.048	0.086
-746.185	-143.074	-0.242	-0.023
-745.171	-62.748	0.269	0.112
-744.156	-72.462	-0.228	-0.084
-743.142	724.629	0.081	-0.217
-742.127	168.052	-0.118	0.168
-741.112	-154.210	0.261	0.018
-740.098	-93.473	-0.210	0.058
-739.083	584.425	0.095	0.235
-738.069	116.946	-0.082	0.101
-737.054	800.000	-0.118	0.330
-736.039	2.029	0.088	-0.064
-735.025	5.376	0.409	0.303
-734.010	-69.532	0.243	0.093
-732.996	-200.000	-0.140	-0.699
-731.981	-143.956	-0.047	0.004
-730.966	13.826	0.116	-0.090
-729.952	763.636	-0.115	-0.313
-728.937	-200.000	-0.030	-0.144
-727.923	-45.561	-0.126	0.062
-726.908	6.180	0.156	0.116
-725.894	-50.409	0.157	-0.074
-724.879	107.037	-0.180	-0.214
-723.864	-65.575	-0.088	0.035
-722.850	-32.118	-0.197	-0.110
-721.835	544.796	0.055	-0.132
-720.821	-200.000	0.006	0.181
-719.806	-140.952	-0.414	0.043
-718.791	-38.764	-0.283	-0.150
-717.777	203.794	0.185	-0.288
-716.762	-200.000	-0.016	0.163
-715.748	9.335	-0.364	-0.276
-714.733	115.878	0.123	0.150
-713.718	-200.000	-0.002	0.259
-712.704	-200.000	0.028	-0.329
-711.689	460.243	-0.072	-0.160
-710.675	-200.000	0.018	-0.128
-709.660	800.000	-0.057	0.167
-708.645	-200.000	0.006	0.037
-707.631	-56.590	-0.176	0.078
-706.616	-20.658	0.240	0.147
-705.602	15.094	0.123	-0.096
-704.587	-56.895	-0.306	-0.135
-703.572	67.055	-0.057	-0.058
-702.558	144.577	-0.173	0.231
-701.543	800.000	-0.125	-0.471
-700.529	-39.371	0.080	-0.042
-699.514	593.874	0.167	-0.412
-698.499	-200.000	-0.045	-0.320
-697.485	102.537	0.047	0.054
-696.470	159.714	-0.083	0.115
-695.456	18.529	-0.221	-0.177
-694.441	-100.398	-0.124	0.031
-693.426	-41.621	0.179	-0.092
-692.412	161.479	-0.065	-0.091
-691.397	-84.965	0.397	-0.125
-690.383	-95.030	-0.069	-0.019
-689.368	720.853	-0.167	-0.444
-688.354	-136.503	-0.300	-0.035
-687.339	800.000	0.076	-0.293
-686.324	610.439	-0.021	0.054
-685.310	433.648	-0.098	0.212
-684.295	351.157	-0.034	0.067
-683.281	245.185	0.143	0.240
-682.266	73.037	0.070	-0.073
-681.251	88.011	-0.125	0.139
-680.237	-200.000	0.007	-0.051
-679.222	-148.216	-0.174	-0.014
-678.208	-127.942	-0.110	0.016
-677.193	-60.415	-0.044	0.019
-676.178	-103.030	-0.257	-0.061
-675.164	106.689	-0.218	0.258
-674.149	-200.000	-0.026	-0.165
-673.135	-200.000	0.020	-0.205
-672.120	-107.885	-0.394	0.086
-671.105	243.907	0.095	-0.159
-670.091	-200.000	0.104	-0.485
-669.076	291.726	-0.165	-0.301
-668.062	-52.711	-0.138	-0.064
-667.047	-200.000	0.197	0.000
-666.032	14.957	-0.194	-0.152
-665.018	81.639	0.172	-0.186
-664.003	800.000	0.065	0.192
-662.989	-53.858	0.202	-0.092
-661.974	81.121	0.247	-0.266
-660.959	31.965	0.200	-0.172
-659.945	-8.108	-0.149	-0.100
-658.930	147.762	0.238	-0.320
-657.916	296.050	0.126	-0.231
-656.901	800.000	0.034	-0.123
-655.886	-48.022	0.175	-0.084
-654.872	57.028	-0.169	0.165
-653.857	-0.916	0.068	0.048
-652.843	-96.780	0.322	0.085
-651.828	-200.000	-0.040	-0.389
-650.814	-66.363	0.179	-0.071
-649.799	800.000	0.025	-0.102
-648.784	4.884	0.271	-0.199
-647.770	-200.000	-0.026	-0.260
-646.755	-68.176	-0.169	0.066
-645.741	800.000	-0.018	-0.065
-644.726	-73.837	-0.131	-0.048
-643.711	264.323	-0.011	0.019
-642.697	-19.962	0.109	-0.067
-641.682	-160.135	0.097	0.005
-640.668	327.299	-0.099	0.189
-639.653	-102.438	-0.180	-0.043
-638.638	-200.000	-0.018	-0.144
-637.624	-174.365	0.137	-0.004
-636.609	109.534	0.071	0.085
-635.595	209.720	0.176	-0.275
-634.580	-200.000	-0.052	-0.381
-633.565	534.861	-0.122	-0.290
-632.551	718.273	-0.053	0.140
-631.536	125.456	0.046	-0.059
-630.522	-28.020	0.160	0.093
-629.507	-59.335	-0.175	-0.075
-628.492	-200.000	-0.158	-0.000
-627.478	-108.123	0.122	0.026
-626.463	207.858	-0.068	-0.105
-625.449	-104.011	0.318	0.074
-624.434	-200.000	-0.031	-0.236
-623.419	327.669	-0.132	-0.252
-622.405	-200.000	0.064	-0.345
-621.390	-158.729	0.165	0.009
-620.376	158.295	0.123	-0.170
-619.361	-129.451	0.146	0.020
-618.346	800.000	0.050	-0.153
-617.332	-44.430	0.200	-0.100
-616.317	-164.550	-0.052	-0.002
-615.303	343.955	0.204	0.399
-614.288	82.528	0.145	-0.157
-613.273	-100.980	-0.235	-0.057
-612.259	-72.276	-0.281	0.104
-611.244	-89.122	-0.094	0.028
-610.230	-200.000	-0.007	0.157
-609.215	-200.000	0.009	0.155
-608.201	-29.725	-0.250	-0.142
-607.186	-200.000	-0.010	-0.120
-606.171	76.165	0.111	0.117
-605.157	93.368	-0.054	0.061
-604.142	76.883	-0.143	0.151
-603.128	-37.642	-0.136	0.072
-602.113	-157.211	0.262	-0.016
-601.098	232.859	0.014	-0.023
-600.084	5.391	0.219	0.161
-599.069	324.944	0.092	0.176
-598.055	-200.000	0.032	-0.148
-597.040	800.000	0.066	-0.273
-596.025	-75.720	0.214	0.076
-595.011	-200.000	-0.009	-0.148
-593.996	162.034	-0.136	0.190
-592.982	-200.000	-0.032	0.253
-591.967	-200.000	-0.008	0.160
-590.952	56.019	-0.010	0.010
-589.938	-200.000	-0.003	0.367
-588.923	463.522	-0.087	0.193
-587.909	-6.139	-0.245	-0.167
-586.894	800.000	-0.037	-0.130
-585.879	800.000	-0.088	0.381
-584.865	-54.411	-0.174	0.079
-583.850	41.696	0.053	-0.048
-582.836	68.555	0.201	0.205
-581.821	231.655	-0.100	-0.164
-580.806	-200.000	0.011	-0.138
-579.792	-111.347	0.132	-0.027
-578.777	110.228	-0.261	-0.312
-577.763	177.429	-0.151	-0.219
-576.748	-102.519	-0.282	-0.067
-575.733	800.000	0.112	-0.396
-574.719	-86.779	-0.304	-0.092
-573.704	145.066	0.088	0.117
-572.690	-200.000	0.026	0.148
-571.675	-200.000	0.018	-0.267
-570.661	147.451	0.069	-0.093
-569.646	604.913	0.146	0.361
-568.631	-200.000	-0.422	-0.002
-567.617	-45.253	0.123	0.061
-566.602	-200.000	-0.022	-0.272
-565.588	-97.729	0.419	0.108
-564.573	151.332	-0.138	-0.187
-563.558	-200.000	-0.024	0.306
-562.544	405.145	0.214	0.449
-561.529	-200.000	0.056	0.277
-560.515	-48.525	-0.163	0.078
-559.500	-79.612	0.281	-0.094
-558.485	2.783	0.189	0.137
-557.471	-134.953	-0.392	0.047
-556.456	-47.172	0.276	0.134
-555.442	-92.681	0.163	0.046
-554.427	214.790	0.056	-0.088
-553.412	24.885	-0.184	-0.152
-552.398	800.000	-0.082	0.283
-551.383	321.879	0.181	0.343
-550.369	-1.621	0.249	0.174
-549.354	-103.926	0.324	-0.075
-548.339	61.897	0.212	-0.210
-547.325	84.112	-0.070	0.076
-546.310	301.816	0.212	0.391
-545.296	-107.328	-0.336	-0.074
-544.281	167.720	0.069	0.098
-543.266	100.576	0.044	-0.051
-542.252	-120.071	0.301	0.051
-541.237	75.229	-0.198	0.208
-540.223	210.324	-0.088	-0.137
-539.208	69.657	0.208	0.213
-538.193	-71.227	-0.361	-0.135
-537.179	-22.751	0.110	-0.066
-536.164	16.280	0.065	0.051
-535.150	123.223	0.177	-0.220
-534.135	-200.000	-0.026	-0.220
-533.121	-200.000	-0.007	0.200
-532.106	-200.000	-0.047	-0.298
-531.091	-200.000	-0.028	-0.139
-530.077	695.517	0.032	-0.084
-529.062	-100.521	0.027	0.007
-528.048	285.691	-0.150	0.269
-527.033	-200.000	-0.047	0.330
-526.018	136.232	0.042	-0.054
-525.004	-49.197	0.270	-0.128
-523.989	97.151	-0.150	-0.171
-522.975	15.306	0.050	0.039
-521.960	-200.000	0.062	-0.603
-520.945	-76.551	0.161	-0.056
-519.931	338.823	-0.066	0.127
-518.916	-74.316	0.058	0.021
-517.902	240.090	-0.089	-0.148
-516.887	-200.000	0.007	0.165
-515.872	800.000	-0.071	-0.244
-514.858	69.304	0.020	-0.021
-513.843	475.883	-0.104	0.233
-512.829	476.531	0.061	-0.137
-511.814	-200.000	0.006	-0.052
-510.799	659.458	0.096	-0.245
-509.785	-200.000	0.014	-0.072
-508.770	350.527	0.216	-0.425
-507.756	-148.480	-0.094	-0.008
-506.741	162.760	0.154	0.214
-505.726	-16.525	-0.382	-0.241
-504.712	-45.902	-0.064	-0.031
-503.697	5.282	0.175	-0.128
-502.683	233.490	-0.190	-0.310
-501.668	800.000	0.088	0.311
-500.653	-31.291	-0.147	-0.082
-499.639	9.101	0.099	0.074
-498.624	-67.329	0.293	0.114
-497.610	-200.000	-0.059	-0.268
-496.595	27.384	0.164	-0.137
-495.581	-200.000	0.030	0.147
-494.566	363.777	-0.137	0.274
-493.551	88.371	0.277	-0.306
-492.537	-131.419	0.354	-0.046
-491.522	-88.006	0.272	0.081
-490.508	-31.446	-0.158	-0.088
-489.493	-200.000	0.037	0.208
-488.478	174.440	0.105	0.150
-487.464	-36.648	-0.313	0.167
-486.449	-200.000	-0.016	-0.298
-485.435	-89.451	0.151	-0.044
-484.420	201.611	0.088	0.134
-483.405	301.364	0.108	0.197
-482.391	261.322	0.123	0.212
-481.376	131.969	-0.235	0.300
-480.362	-142.022	0.036	0.004
-479.347	411.432	0.104	-0.219
-478.332	-12.091	-0.219	-0.142
-477.318	-161.398	-0.161	-0.008
-476.303	-50.266	-0.260	-0.122
-475.289	-122.189	0.103	-0.017
-474.274	-42.762	0.149	0.075
-473.259	-200.000	-0.036	0.163
-472.245	-159.581	0.107	-0.006
-471.230	205.060	-0.096	0.148
-470.216	73.214	-0.216	0.224
-469.201	-88.322	0.223	0.066
-468.186	-200.000	-0.021	0.489
-467.172	-125.218	0.127	0.019
-466.157	305.399	0.072	-0.133
-465.143	403.401	0.101	0.210
-464.128	2.990	0.052	-0.038
-463.113	-50.677	0.061	-0.028
-462.099	-93.598	0.155	0.042
-461.084	309.503	-0.091	0.168
-460.070	271.723	0.148	0.259
-459.055	22.335	-0.273	0.221
-458.040	-200.000	-0.001	0.043
-457.026	800.000	0.037	0.158
-456.011	800.000	-0.093	0.282
-454.997	-155.733	0.287	-0.018
-453.982	-87.922	0.027	0.008
-452.968	190.096	0.247	0.367
-451.953	-200.000	0.031	-0.159
-450.938	-200.000	0.074	0.331
-449.924	-123.974	0.124	-0.019
-448.909	196.814	-0.103	-0.155
-447.895	-200.000	-0.001	0.283
-446.880	800.000	-0.065	0.196
-445.865	-200.000	0.027	-0.446
-444.851	23.629	-0.085	-0.069
-443.836	-200.000	-0.007	-0.043
-442.822	-200.000	0.012	0.105
-441.807	-107.394	0.224	0.049
-440.792	-98.494	0.079	-0.020
-439.778	-113.757	-0.232	0.045
-438.763	-178.440	-0.112	0.003
-437.749	-44.139	-0.373	0.186
-436.734	800.000	0.023	0.072
-435.719	46.251	-0.134	-0.123
-434.705	-132.228	-0.180	0.023
-433.690	-56.510	-0.224	0.098
-432.676	-200.000	-0.011	-0.166
-431.661	568.537	-0.093	0.223
-430.646	-78.599	-0.258	-0.087
-429.632	91.938	-0.146	-0.163
-428.617	-24.802	0.146	0.086
-427.603	-140.020	-0.299	0.031
-426.588	-200.000	-0.340	0.001
-425.573	-153.408	0.261	0.018
-424.559	529.169	0.119	-0.279
-423.544	24.353	0.052	-0.043
-422.530	621.020	0.058	0.145
-421.515	-200.000	0.008	-0.201
-420.500	800.000	0.118	-0.340
-419.486	-200.000	-0.000	0.058
-418.471	800.000	0.018	-0.058
-417.457	74.732	-0.110	-0.114
-416.442	149.315	0.086	0.115
-415.428	-200.000	0.016	0.079
-414.413	626.291	0.052	0.130
-413.398	-108.687	-0.075	-0.016
-412.384	-16.337	0.253	-0.159
-411.369	-200.000	-0.004	0.199
-410.355	800.000	-0.067	0.196
-409.340	242.568	-0.216	0.358
-408.325	-70.434	0.277	-0.104
-407.311	-34.945	-0.349	0.188
-406.296	800.000	-0.020	0.067
-405.282	-191.572	0.162	-0.002
-404.267	30.182	0.210	-0.177
-403.252	-200.000	-0.006	0.105
-402.238	-158.673	-0.045	0.003
-401.223	-188.604	0.046	-0.001
-400.209	475.626	0.049	-0.110
-399.194	119.459	-0.208	0.254
-398.179	-200.000	0.261	0.000
-397.165	16.165	0.308	-0.240
-396.150	-85.552	-0.092	-0.028
-395.136	43.931	0.162	-0.147
-394.121	-200.000	-0.003	0.380
-393.106	800.000	-0.090	-0.285
-392.092	797.402	-0.156	-0.425
-391.077	6.393	-0.206	0.151
-390.063	-200.000	-0.037	-0.169
-389.048	-48.902	-0.198	0.094
-388.033	-130.461	0.242	-0.032
-387.019	791.493	-0.042	-0.114
-386.004	-52.279	0.175	-0.080
-384.990	83.897	-0.177	0.191
-383.975	-109.964	-0.159	0.033
-382.960	-147.574	-0.055	-0.005
-381.946	55.661	0.372	0.356
-380.931	4.222	-0.323	0.234
-379.917	403.732	0.046	-0.096
-378.902	-144.037	-0.372	-0.035
-377.888	402.138	-0.057	-0.118
-376.873	-16.886	-0.163	0.102
-375.858	89.853	-0.089	-0.098
-374.844	-57.157	-0.377	0.164
-373.829	54.292	-0.206	-0.196
-372.815	108.415	0.115	0.135
-371.800	181.196	0.096	-0.139
-370.785	-115.502	-0.322	-0.060
-369.771	118.430	0.088	0.107
-368.756	-60.314	0.273	-0.115
-367.742	45.882	0.033	0.030
-366.727	-115.779	-0.372	-0.069
-365.712	800.000	-0.064	0.182
-364.698	28.851	-0.173	-0.145
-363.683	-200.000	0.041	-0.217
-362.669	800.000	0.025	-0.080
-361.654	250.586	0.157	0.263
-360.639	422.401	-0.063	0.133
-359.625	-161.649	0.151	-0.008
-358.610	311.118	0.114	-0.210
-357.596	380.021	-0.196	0.396
-356.581	331.890	0.208	0.396
-355.566	-14.112	-0.148	0.094
-354.552	-200.000	-0.004	-0.258
-353.537	-38.344	-0.244	-0.128
-352.523	-86.534	-0.080	0.024
-351.508	-200.000	-0.013	0.534
-350.493	-124.746	-0.108	0.016
-349.479	10.685	0.181	0.136
-348.464	21.500	-0.373	0.299
-347.450	-66.875	0.277	0.108
-346.435	-133.995	-0.233	-0.028
-345.420	-121.680	-0.403	0.066
-344.406	-127.990	-0.150	-0.021
-343.391	289.061	-0.100	0.179
-342.377	-77.957	-0.168	0.057
-341.362	800.000	0.011	-0.044
-340.348	339.991	-0.170	-0.327
-339.333	800.000	-0.102	0.346
-338.318	-113.035	0.411	-0.080
-337.304	-65.979	0.108	-0.042
-336.289	32.747	-0.096	-0.082
-335.275	800.000	-0.071	0.204
-334.260	800.000	-0.124	-0.409
-333.245	-200.000	-0.012	-0.326
-332.231	-47.736	-0.248	0.118
-331.216	-194.596	0.049	-0.000
-330.202	301.278	-0.153	-0.279
-329.187	112.720	0.233	0.278
-328.172	-200.000	0.006	0.040
-327.158	-191.131	-0.268	0.003
-326.143	-84.607	-0.100	0.031
-325.129	-200.000	0.053	0.391
-324.114	95.455	-0.216	-0.242
-323.099	53.534	0.085	0.080
-322.085	800.000	-0.012	0.048
-321.070	-64.168	-0.204	0.082
-320.056	-67.383	0.206	0.080
-319.041	65.060	0.035	0.035
-318.026	-46.445	0.154	0.075
-317.012	-136.432	-0.029	0.003
-315.997	-76.412	0.265	-0.092
-314.983	-200.000	0.029	0.150
-313.968	288.370	-0.172	-0.308
-312.953	800.000	-0.135	-0.454
-311.939	-112.472	0.249	-0.049
-310.924	50.105	0.125	0.117
-309.910	-200.000	-0.016	-0.158
-308.895	-59.827	-0.201	0.085
-307.880	800.000	-0.077	0.300
-306.866	-85.169	-0.485	-0.149
-305.851	-3.601	0.439	-0.301
-304.837	333.607	-0.131	0.251
-303.822	42.509	-0.078	-0.070
-302.807	-22.963	-0.117	0.069
-301.793	121.227	0.151	-0.185
-300.778	783.329	-0.027	0.072
-299.764	-14.124	-0.295	0.187
-298.749	229.438	-0.138	0.222
-297.735	-41.815	-0.092	-0.046
-296.720	175.522	0.299	-0.428
-295.705	-200.000	0.010	-0.221
-294.691	247.947	0.083	0.137
-293.676	800.000	-0.035	-0.113
-292.662	160.454	-0.172	-0.236
-291.647	50.940	-0.250	-0.233
-290.632	141.008	-0.067	-0.088
-289.618	800.000	-0.041	0.120
-288.603	-200.000	-0.005	0.243
-287.589	800.000	0.026	0.091
-286.574	-200.000	-0.023	0.260
-285.559	561.237	-0.067	0.160
-284.545	-37.599	0.043	0.023
-283.530	-55.695	0.284	-0.125
-282.516	-74.222	0.221	-0.079
-281.501	-200.000	-0.027	0.203
-280.486	88.342	-0.079	0.087
-279.472	-200.000	0.022	-0.318
-278.457	-200.000	0.022	-0.127
-277.443	188.328	0.087	-0.129
-276.428	223.610	0.057	-0.091
-275.413	-19.226	0.064	0.039
-274.399	800.000	0.018	-0.055
-273.384	416.544	0.139	0.292
-272.370	-134.684	-0.416	-0.050
-271.355	800.000	0.080	-0.244
-270.340	45.160	-0.231	0.210
-269.326	67.189	0.065	0.065
-268.311	-181.917	0.320	0.006
-267.297	565.787	0.126	0.300
-266.282	800.000	0.152	-0.462
-265.267	-71.948	0.057	-0.021
-264.253	167.758	0.099	0.138
-263.238	800.000	-0.053	-0.191
-262.224	800.000	-0.043	-0.141
-261.209	800.000	-0.022	0.071
-260.195	-2.147	0.241	0.166
-259.180	800.000	0.130	-0.404
-258.165	140.382	-0.106	0.138
-257.151	-75.938	-0.324	0.113
-256.136	-24.206	-0.082	-0.048
-255.122	269.502	-0.033	0.056
-254.107	220.205	-0.260	-0.409
-253.092	-48.494	0.322	0.152
-252.078	-186.683	0.199	-0.003
-251.063	736.680	-0.093	0.246
-250.049	-200.000	0.005	-0.325
-249.034	-87.028	-0.151	-0.045
-248.019	33.492	0.324	0.276
-247.005	-200.000	-0.047	-0.305
-245.990	62.604	-0.127	-0.125
-244.976	19.167	0.048	0.038
-243.961	-111.924	0.226	-0.045
-242.946	-176.298	0.273	0.007
-241.932	-92.185	-0.186	0.052
-240.917	800.000	0.019	-0.068
-239.903	189.147	-0.145	-0.213
-238.888	-200.000	-0.005	-0.156
-237.873	185.381	-0.060	0.087
-236.859	-90.057	-0.162	-0.046
-235.844	-9.871	0.114	0.074
-234.830	-200.000	0.051	0.589
-233.815	-76.708	-0.192	0.066
-232.800	-155.415	0.144	-0.009
-231.786	800.000	0.049	0.191
-230.771	-152.274	0.100	-0.007
-229.757	-200.000	0.008	-0.208
-228.742	212.466	-0.158	-0.245
-227.727	44.413	-0.118	0.107
-226.713	800.000	0.086	-0.239
-225.698	393.071	0.085	-0.173
-224.684	-200.000	0.013	-0.166
-223.669	-90.144	0.278	-0.079
-222.655	800.000	-0.021	0.074
-221.640	-39.597	0.088	-0.045
-220.625	14.761	0.099	0.076
-219.611	800.000	-0.141	-0.387
-218.596	11.076	0.116	0.087
-217.582	41.686	0.125	-0.111
-216.567	627.805	-0.072	-0.179
-215.552	800.000	0.034	-0.112
-214.538	800.000	-0.056	0.186
-213.523	59.696	0.090	0.087
-212.509	-115.369	0.340	0.063
-211.494	-2.054	0.138	-0.095
-210.479	-92.148	0.108	-0.030
-209.465	-83.662	-0.225	0.071
-208.450	38.097	0.257	0.224
-207.436	-200.000	-0.013	0.255
-206.421	-200.000	-0.009	-0.221
-205.406	11.504	-0.119	-0.090
-204.392	-108.559	-0.073	0.015
-203.377	328.137	0.030	-0.056
-202.363	143.267	-0.055	-0.071
-201.348	-100.171	-0.088	0.021
-200.333	32.183	-0.136	0.115
-199.319	-200.000	0.035	0.233
-198.304	-69.842	0.223	-0.084
-197.290	-200.000	0.007	-0.160
-196.275	-200.000	-0.043	-0.464
-195.260	172.244	-0.114	-0.161
-194.246	291.677	0.027	0.049
-193.231	-75.598	0.214	-0.075
-192.217	-9.611	0.341	0.223
-191.202	46.239	-0.107	-0.098
-190.187	3.467	-0.155	0.111
-189.173	-123.059	0.178	0.028
-188.158	30.917	0.251	0.211
-187.144	-95.342	0.235	-0.062
-186.129	-85.780	0.242	-0.074
-185.114	90.815	0.162	0.178
-184.100	-36.624	-0.453	0.239
-183.085	-5.486	0.367	0.247
-182.071	-39.915	0.261	0.134
-181.056	153.652	-0.142	-0.190
-180.042	-200.000	0.005	-0.066
-179.027	-200.000	0.006	0.170
-178.012	-46.390	-0.252	-0.121
-176.998	-110.555	-0.355	0.072
-175.983	-200.000	-0.012	-0.092
-174.969	-200.000	-0.061	-0.367
-173.954	-94.856	0.419	-0.111
-172.939	110.358	-0.034	-0.040
-171.925	62.391	-0.153	0.150
-170.910	-113.275	0.205	0.040
-169.896	93.357	-0.031	0.035
-168.881	-125.402	-0.249	-0.037
-167.866	-11.447	0.063	-0.041
-166.852	88.128	-0.117	-0.127
-165.837	404.417	0.121	0.251
-164.823	-200.000	-0.006	-0.044
-163.808	467.221	0.032	0.071
-162.793	14.321	0.110	0.084
-161.779	588.082	-0.081	-0.195
-160.764	19.468	-0.258	-0.203
-159.750	136.049	-0.210	0.268
-158.735	387.669	0.034	-0.068
-157.720	-200.000	0.014	-0.160
-156.706	-171.146	-0.177	-0.006
-155.691	-200.000	-0.037	0.163
-154.677	-70.128	-0.128	-0.048
-153.662	28.323	0.237	-0.196
-152.647	-200.000	-0.039	-0.203
-151.633	636.533	-0.059	-0.146
-150.618	800.000	0.068	-0.272
-149.604	-75.662	-0.364	-0.126
-148.589	-24.460	-0.155	-0.091
-147.574	-40.840	-0.059	-0.030
-146.560	-30.641	0.225	-0.125
-145.545	281.778	0.094	0.166
-144.531	-200.000	-0.025	0.129
-143.516	800.000	0.094	0.282
-142.502	-162.212	0.086	0.004
-141.487	-200.000	-0.005	0.092
-140.472	-131.011	-0.198	0.026
-139.458	242.780	0.158	-0.259
-138.443	265.448	-0.096	-0.165
-137.429	-116.694	0.141	0.025
-136.414	800.000	-0.079	-0.265
-135.399	-79.681	-0.241	-0.080
-134.385	343.838	-0.054	0.104
-133.370	-200.000	-0.023	-0.351
-132.356	800.000	-0.079	-0.225
-131.341	-23.056	-0.092	-0.054
-130.326	404.839	-0.081	0.168
-129.312	-178.132	0.287	-0.007
-128.297	4.375	-0.223	0.160
-127.283	-200.000	-0.017	0.121
-126.268	-164.710	0.119	0.005
-125.253	800.000	-0.065	-0.187
-124.239	527.045	0.157	-0.361
-123.224	-200.000	0.061	-0.294
-122.210	-11.994	0.191	-0.122
-121.195	-200.000	-0.004	-0.523
-120.180	195.227	-0.097	-0.144
-119.166	154.589	0.090	-0.121
-118.151	14.969	0.319	0.244
-117.137	-159.635	-0.136	-0.007
-116.122	-134.917	-0.078	0.009
-115.107	800.000	-0.069	0.236
-114.093	-110.560	0.159	-0.032
-113.078	-46.792	0.132	0.063
-112.064	296.746	0.199	0.356
-111.049	46.237	0.258	0.234
-110.034	-114.363	0.200	0.038
-109.020	-55.588	-0.252	-0.110
-108.005	136.320	0.135	-0.173
-106.991	114.699	0.171	0.204
-105.976	-126.980	0.342	0.049
-104.962	-200.000	-0.036	-0.180
-103.947	175.903	0.175	-0.248
-102.932	-200.000	-0.036	0.370
-101.918	-16.459	-0.139	0.086
-100.903	328.760	0.105	-0.198
-99.889	800.000	0.021	0.065
-98.874	338.168	-0.057	-0.108
-97.859	800.000	-0.077	-0.291
-96.845	-68.203	-0.143	-0.055
-95.830	-200.000	0.042	-0.197
-94.816	-200.000	-0.007	-0.354
-93.801	-46.546	0.388	0.186
-92.786	-87.878	0.293	-0.086
-91.772	-32.872	-0.139	-0.076
-90.757	-200.000	0.062	0.277
-89.743	-31.229	0.258	0.142
-88.728	285.540	0.105	0.184
-87.713	-200.000	0.005	-0.070
-86.699	-200.000	0.025	0.183
-85.684	42.273	-0.215	-0.191
-84.670	-28.690	0.240	0.135
-83.655	8.956	-0.090	-0.067
-82.640	-200.000	-0.042	0.288
-81.626	5.627	-0.143	-0.103
-80.611	-3.010	-0.338	-0.231
-79.597	180.698	-0.159	0.228
-78.582	800.000	-0.091	-0.282
-77.567	-98.069	0.163	0.041
-76.553	800.000	-0.046	0.158
-75.538	-163.039	0.266	-0.013
-74.524	8.587	0.160	-0.117
-73.509	-200.000	-0.057	-0.425
-72.494	36.657	-0.135	0.116
-71.480	-35.422	0.158	-0.084
-70.465	-200.000	0.053	-0.235
-69.451	-55.077	0.396	-0.174
-68.436	-200.000	0.034	0.246
-67.422	-126.163	0.232	-0.034
-66.407	-71.534	-0.157	-0.057
-65.392	-200.000	-0.008	-0.105
-64.378	30.709	0.125	0.104
-63.363	354.866	0.083	-0.160
-62.349	800.000	-0.135	0.568
-61.334	-10.143	-1.122	-0.727
-60.319	8.689	0.751	0.552
-59.305	137.156	-0.920	-1.174
-58.290	361.086	0.561	1.097
-57.276	424.113	0.678	1.422
-56.261	-200.000	121.735	615.527
-55.246	390.503	1568.632	3174.854
-54.232	140.529	2742.114	3532.229
-53.217	88.751	2313.811	2510.384
-52.203	33.256	1916.489	1621.996
-51.188	27.483	1708.965	1402.017
-50.173	25.174	1668.777	1351.619
-49.159	44.316	1733.931	1552.487
-48.144	43.104	1746.789	1554.597
-47.130	26.871	1699.941	1389.709
-46.115	24.568	1683.973	1359.103
-45.100	24.326	1679.057	1353.243
-44.086	24.284	1676.272	1350.622
-43.071	24.282	1673.875	1348.622
-42.057	24.251	1671.470	1346.402
-41.042	24.343	1669.037	1345.079
-40.027	24.309	1667.406	1343.456
-39.013	24.236	1665.824	1341.582
-37.998	24.283	1663.957	1340.380
-36.984	24.273	1662.864	1339.364
-35.969	24.424	1661.002	1338.948
-34.954	24.468	1659.575	1338.073
-33.940	24.470	1657.802	1336.608
-32.925	24.422	1656.617	1335.237
-31.911	24.407	1655.036	1333.796
-30.896	24.463	1653.080	1332.588
-29.881	24.384	1651.680	1330.821
-28.867	24.400	1650.164	1329.660
-27.852	24.422	1648.509	1328.436
-26.838	24.445	1647.087	1327.416
-25.823	24.464	1646.011	1326.631
-24.809	24.498	1644.332	1325.477
-23.794	24.453	1643.389	1324.336
-22.779	24.490	1641.701	1323.196
-21.765	24.468	1640.120	1321.707
-20.750	24.518	1638.422	1320.656
-19.736	24.569	1636.581	1319.494
-18.721	24.476	1635.745	1318.079
-17.706	24.455	1634.364	1316.763
-16.692	24.411	1633.105	1315.370
-15.677	24.456	1631.324	1314.216
-14.663	24.523	1629.886	1313.501
-13.648	24.498	1628.436	1312.095
-12.633	24.417	1626.605	1309.970
-11.619	24.552	1625.031	1309.643
-10.604	24.441	1624.061	1307.993
-9.590	24.442	1622.905	1307.021
-8.575	24.460	1621.449	1305.928
-7.560	24.492	1620.096	1305.019
-6.546	24.443	1619.031	1303.750
-5.531	24.478	1617.898	1303.043
-4.517	24.367	1617.361	1301.748
-3.502	24.409	1615.802	1300.750
-2.487	24.514	1614.148	1300.133
-1.473	24.407	1601.729	1289.303
-0.458	21.834	1583.281	1255.997
0.556	16.855	1586.638	1227.326
1.571	14.850	1610.684	1231.068
2.586	14.534	1623.382	1238.316
3.600	13.284	1568.163	1187.119
4.615	7.259	1458.726	1063.830
5.629	1.373	1398.639	981.945
6.644	0.310	1391.038	969.686
7.659	0.190	1390.142	968.206
8.673	0.162	1389.292	967.346
9.688	0.228	1386.378	965.658
10.702	0.028	1383.729	962.445
11.717	2.911	1387.476	983.449
12.731	9.979	1398.153	1036.408
13.746	15.351	1406.189	1076.844
14.761	16.700	1407.152	1086.148
15.775	16.182	1405.151	1081.191
16.790	15.140	1403.232	1072.941
17.804	14.530	1400.349	1066.744
18.819	14.078	1398.728	1062.525
19.834	13.822	1397.629	1059.963
20.848	13.577	1396.866	1057.728
21.863	13.386	1394.854	1054.894
22.877	13.213	1393.947	1053.013
23.892	13.134	1393.125	1051.791
24.907	13.073	1392.630	1050.941
25.921	13.206	1391.169	1050.591
26.936	13.127	1390.671	1049.618
27.950	13.172	1389.761	1049.124
28.965	13.229	1388.546	1048.474
29.980	13.299	1387.480	1048.019
30.994	13.331	1386.342	1047.270
32.009	13.370	1385.767	1046.991
33.023	13.380	1384.505	1046.009
34.038	13.273	1383.275	1044.307
35.053	13.337	1382.302	1043.888
36.067	13.327	1381.055	1042.790
37.082	13.313	1380.437	1042.142
38.096	13.355	1378.908	1041.162
39.111	13.258	1378.462	1040.122
40.126	13.306	1377.117	1039.316
41.140	13.223	1376.511	1038.248
42.155	13.050	1376.509	1037.062
43.169	13.079	1376.412	1037.084
44.184	13.157	1375.799	1037.021
45.199	13.177	1375.442	1036.783
46.213	13.168	1374.609	1036.005
47.228	13.235	1373.936	1035.829
48.242	13.223	1372.654	1034.694
49.257	13.171	1370.808	1032.885
50.271	13.194	1369.491	1031.949
51.286	13.191	1368.445	1031.049
52.301	13.245	1366.522	1029.847
53.315	13.218	1365.818	1029.057
54.330	13.200	1364.983	1028.221
55.344	13.197	1363.653	1027.111
56.359	13.126	1362.551	1025.750
57.374	13.166	1361.867	1025.392
58.388	12.995	1361.419	1023.902
59.403	13.062	1360.590	1023.605
60.417	13.074	1359.551	1022.806
61.432	13.165	1358.736	1022.668
62.447	12.988	1358.008	1020.932
63.461	12.956	1356.810	1019.743
64.476	13.035	1355.280	1018.992
65.490	13.057	1354.056	1018.120
66.505	13.060	1352.517	1016.888
67.520	13.065	1351.289	1015.903
68.534	13.073	1350.114	1014.984
69.549	13.099	1349.187	1014.357
70.563	13.054	1347.993	1013.092
71.578	13.091	1346.952	1012.447
72.593	12.988	1346.254	1011.203
73.607	12.982	1345.353	1010.400
74.622	13.029	1344.727	1010.123
75.636	12.976	1343.904	1009.092
76.651	12.873	1343.376	1007.977
77.666	12.967	1342.637	1007.912
78.680	12.945	1342.072	1007.263
79.695	13.046	1340.840	1006.866
80.709	12.943	1340.495	1005.889
81.724	13.072	1339.542	1005.872
82.739	13.148	1338.344	1005.340
83.753	13.282	1337.013	1005.067
84.768	13.201	1336.629	1004.202
85.782	13.244	1335.493	1003.517
86.797	13.247	1333.886	1002.237
87.812	13.195	1332.787	1001.008
88.826	13.095	1331.681	999.484
89.841	13.223	1330.755	999.479
90.855	13.203	1329.845	998.584
91.870	13.331	1328.126	997.981
92.884	13.236	1328.101	997.294
93.899	13.238	1327.219	996.560
94.914	13.366	1326.171	996.452
95.928	13.381	1325.038	995.603
96.943	13.440	1323.820	994.958
97.957	13.204	1323.377	993.118
98.972	13.269	1322.308	992.619
99.987	13.275	1321.374	991.865
101.001	13.285	1320.361	991.079
102.016	13.275	1319.144	990.018
103.030	13.330	1318.471	989.752
104.045	13.327	1317.234	988.720
105.060	13.225	1316.183	987.233
106.074	13.248	1314.853	986.285
107.089	13.229	1313.160	984.812
108.103	13.099	1312.549	983.492
109.118	12.989	1311.060	981.638
110.133	13.154	1309.620	981.450
111.147	13.107	1308.815	980.481
112.162	13.188	1306.964	979.491
113.176	13.147	1306.108	978.522
114.191	13.089	1305.050	977.295
115.206	13.208	1303.819	976.992
116.220	13.240	1302.515	976.116
117.235	13.136	1301.951	974.995
118.249	13.132	1300.892	974.093
119.264	13.148	1299.144	972.791
120.279	13.250	1297.957	972.418
121.293	13.109	1297.334	971.033
122.308	13.147	1296.227	970.341
123.322	13.166	1295.169	969.574
124.337	13.126	1294.054	968.422
125.352	13.010	1292.926	966.811
126.366	13.142	1291.934	966.760
127.381	13.071	1290.591	965.253
128.395	13.164	1289.606	964.973
129.410	13.078	1288.824	963.801
130.424	13.104	1288.124	963.344
131.439	13.169	1287.268	962.996
132.454	13.172	1285.945	961.938
133.468	13.206	1284.787	961.185
134.483	13.209	1284.408	960.837
135.497	13.169	1283.346	959.723
136.512	13.234	1281.671	958.765
137.527	13.134	1280.084	956.914
138.541	13.131	1279.405	956.305
139.556	13.157	1277.707	955.098
140.570	13.262	1276.911	955.027
141.585	13.232	1275.745	953.898
142.600	13.383	1273.950	953.342
143.614	13.412	1273.524	953.104
144.629	13.425	1272.103	952.029
145.643	13.322	1271.419	950.841
146.658	13.314	1269.759	949.471
147.673	13.154	1268.697	947.673
148.687	13.408	1267.302	948.005
149.702	13.317	1265.531	946.073
150.716	13.312	1264.538	945.219
151.731	13.302	1263.328	944.174
152.746	13.291	1262.409	943.344
153.760	13.322	1261.098	942.456
154.775	13.384	1260.341	942.162
155.789	13.434	1258.909	941.291
156.804	13.391	1257.944	940.240
157.819	13.430	1256.799	939.527
158.833	13.573	1255.518	939.294
159.848	13.515	1254.810	938.354
160.862	13.574	1253.752	937.812
161.877	13.414	1252.618	935.977
162.892	13.456	1250.825	934.790
163.906	13.453	1250.543	934.478
164.921	13.495	1249.505	933.860
165.935	13.390	1248.626	932.526
166.950	13.520	1247.502	932.340
167.964	13.583	1246.848	932.118
168.979	13.490	1246.048	930.916
169.994	13.466	1245.233	930.088
171.008	13.550	1244.493	929.928
172.023	13.574	1243.646	929.347
173.037	13.598	1243.029	928.941
174.052	13.648	1241.781	928.206
175.067	13.576	1241.014	927.148
176.081	13.513	1240.054	925.993
177.096	13.519	1239.218	925.319
178.110	13.508	1238.431	924.588
179.125	13.628	1236.482	923.722
180.140	13.663	1235.715	923.261
181.154	13.619	1234.212	921.811
182.169	13.720	1233.129	921.483
183.183	13.767	1232.359	921.086
184.198	13.758	1231.080	920.000
185.213	13.747	1229.471	918.657
186.227	13.765	1228.739	918.129
187.242	13.773	1228.031	917.563
188.256	13.796	1226.899	916.762
189.271	13.841	1225.634	915.982
190.286	13.802	1224.338	914.720
191.300	13.705	1223.617	913.566
192.315	13.628	1223.331	912.847
193.329	13.641	1222.680	912.351
194.344	13.689	1222.168	912.154
195.359	13.726	1220.983	911.392
196.373	13.769	1220.938	911.512
197.388	13.820	1220.231	911.184
198.402	13.745	1219.924	910.464
199.417	14.016	1218.943	911.133
200.432	13.934	1218.153	910.015
201.446	14.004	1216.900	909.384
202.461	14.078	1216.102	909.109
203.475	14.068	1215.140	908.255
204.490	14.029	1213.729	906.908
205.504	13.978	1212.413	905.566
206.519	14.070	1211.753	905.496
207.534	14.055	1210.712	904.556
208.548	14.011	1209.721	903.496
209.563	14.100	1208.381	902.898
210.577	13.986	1208.122	902.005
211.592	13.966	1207.047	901.013
212.607	14.022	1206.166	900.582
213.621	14.055	1205.697	900.331
214.636	14.079	1204.467	899.460
215.650	14.163	1203.390	899.032
216.665	14.120	1202.422	897.995
217.680	14.218	1201.562	897.805
218.694	14.274	1200.774	897.437
219.709	14.202	1199.603	896.094
220.723	14.227	1199.056	895.739
221.738	14.222	1198.551	895.258
222.753	14.224	1197.785	894.619
223.767	14.309	1196.800	894.259
224.782	14.317	1196.244	893.810
225.796	14.362	1195.762	893.609
226.811	14.363	1194.912	892.900
227.826	14.368	1194.361	892.439
228.840	14.335	1193.491	891.532
229.855	14.389	1192.670	891.128
230.869	14.370	1191.958	890.418
231.884	14.266	1191.300	889.287
232.899	14.307	1190.570	888.886
233.913	14.255	1189.731	887.905
234.928	14.340	1188.911	887.664
235.942	14.286	1188.200	886.768
236.957	14.349	1186.985	886.118
237.972	14.277	1186.933	885.620
238.986	14.265	1186.323	885.019
240.001	14.342	1185.480	884.724
241.015	14.536	1183.959	884.539
242.030	14.428	1183.443	883.500
243.045	14.457	1182.634	882.970
244.059	14.494	1181.960	882.589
245.074	14.474	1181.620	882.147
246.088	14.448	1180.425	881.044
247.103	14.601	1179.204	880.860
248.117	14.534	1179.013	880.288
249.132	14.597	1178.467	880.133
250.147	14.729	1177.163	879.777
251.161	14.781	1176.234	879.279
252.176	14.784	1175.994	879.036
253.190	14.801	1175.150	878.417
254.205	14.803	1174.620	877.953
255.220	14.812	1174.471	877.813
256.234	14.802	1173.226	876.751
257.249	14.892	1172.034	876.257
258.263	14.801	1172.090	875.740
259.278	14.840	1171.569	875.482
260.293	14.912	1171.170	875.481
261.307	15.013	1170.344	875.313
262.322	14.881	1169.807	874.146
263.336	15.012	1168.709	873.929
264.351	14.898	1168.195	872.873
265.366	15.027	1167.284	872.788
266.380	15.028	1167.071	872.561
267.395	15.040	1165.876	871.649
268.409	15.005	1165.367	871.013
269.424	15.077	1164.866	870.934
270.439	14.905	1164.277	869.522
271.453	14.979	1163.417	869.187
272.468	14.903	1162.761	868.227
273.482	14.939	1161.682	867.529
274.497	15.027	1161.068	867.450
275.512	14.993	1160.296	866.618
276.526	15.137	1159.115	866.408
277.541	15.084	1158.728	865.767
278.555	15.090	1158.004	865.180
279.570	15.157	1157.557	865.117
280.585	15.170	1156.394	864.238
281.599	15.178	1155.391	863.452
282.614	15.120	1154.816	862.646
283.628	15.183	1153.557	861.955
284.643	15.230	1152.603	861.406
285.657	15.241	1151.520	860.579
286.672	15.233	1150.725	859.866
287.687	15.158	1150.382	859.152
288.701	15.267	1149.103	858.675
289.716	15.297	1148.308	858.160
290.730	15.354	1147.240	857.578
291.745	15.309	1147.112	857.174
292.760	15.380	1146.198	856.781
293.774	15.412	1145.658	856.466
294.789	15.429	1145.240	856.162
295.803	15.470	1144.367	855.641
296.818	15.371	1143.966	854.763
297.833	15.388	1142.889	853.970
298.847	15.543	1142.107	854.096
299.862	15.435	1141.031	852.667
300.876	15.405	1140.582	852.107
301.891	15.471	1139.959	851.901
302.906	15.484	1139.599	851.620
303.920	15.460	1138.799	850.824
304.935	15.571	1138.134	850.814
305.949	15.550	1137.323	850.026
306.964	15.709	1136.047	849.801
307.979	15.599	1135.535	848.790
308.993	15.733	1134.657	848.736
310.008	15.709	1133.983	848.036
311.022	15.497	1133.204	846.308
312.037	15.648	1132.373	846.373
313.052	15.610	1131.553	845.495
314.066	15.651	1130.645	844.945
315.081	15.577	1130.039	844.049
316.095	15.571	1129.392	843.458
317.110	15.580	1128.515	842.775
318.125	15.691	1127.896	842.795
319.139	15.600	1127.339	841.847
320.154	15.759	1126.284	841.782
321.168	15.632	1126.172	840.988
322.183	15.749	1125.217	840.786
323.197	15.669	1124.637	839.876
324.212	15.695	1123.948	839.417
325.227	15.699	1123.335	838.905
326.241	15.763	1122.702	838.681
327.256	15.782	1121.830	838.049
328.270	15.778	1120.763	837.155
329.285	15.717	1120.166	836.331
330.300	15.702	1119.158	835.432
331.314	15.774	1118.224	835.020
332.329	15.987	1116.874	834.990
333.343	15.939	1115.909	833.958
334.358	15.847	1115.536	833.149
335.373	15.886	1114.972	832.848
336.387	15.860	1114.372	832.199
337.402	15.845	1113.752	831.586
338.416	15.895	1112.694	830.970
339.431	15.923	1112.376	830.800
340.446	15.958	1111.307	830.096
341.460	16.075	1110.686	830.136
342.475	16.030	1109.953	829.295
343.489	16.096	1109.042	828.863
344.504	16.132	1107.979	828.172
345.519	16.249	1107.051	827.983
346.533	16.193	1106.424	827.163
347.548	16.158	1105.580	826.287
348.562	16.166	1105.278	826.028
349.577	16.224	1104.236	825.460
350.592	16.201	1103.373	824.631
351.606	16.012	1102.586	823.048
352.621	16.155	1102.324	823.476
353.635	16.190	1101.229	822.757
354.650	16.111	1100.773	821.958
355.665	16.152	1100.023	821.526
356.679	16.229	1099.319	821.301
357.694	16.161	1098.898	820.583
358.708	16.273	1098.262	820.580
359.723	16.246	1097.264	819.632
360.738	16.325	1096.485	819.359
361.752	16.287	1096.295	818.960
362.767	16.466	1095.453	819.127
363.781	16.508	1094.882	818.829
364.796	16.480	1094.411	818.270
365.810	16.403	1093.813	817.379
366.825	16.447	1093.269	817.112
367.840	16.599	1092.561	817.243
368.854	16.582	1092.144	816.778
369.869	16.400	1091.593	815.413
370.883	16.472	1090.416	814.810
371.898	16.462	1089.688	814.147
372.913	16.560	1088.911	813.965
373.927	16.506	1088.821	813.570
374.942	16.555	1088.221	813.284
375.956	16.684	1087.082	812.981
376.971	16.539	1086.884	812.061
377.986	16.569	1086.275	811.679
379.000	16.647	1085.792	811.620
380.015	16.673	1084.931	811.032
381.029	16.693	1084.444	810.690
382.044	16.817	1083.678	810.638
383.059	16.743	1083.203	809.856
384.073	16.757	1082.263	809.151
385.088	16.780	1081.245	808.430
386.102	16.791	1080.256	807.669
387.117	16.832	1079.346	807.114
388.132	16.748	1078.516	806.020
389.146	16.704	1077.659	805.101
390.161	16.767	1077.210	804.993
391.175	16.839	1076.251	804.548
392.190	16.870	1075.285	803.900
393.205	16.985	1074.388	803.701
394.219	16.927	1074.120	803.159
395.234	16.839	1073.326	802.078
396.248	16.798	1072.198	800.969
397.263	16.872	1070.929	800.299
398.278	16.761	1070.685	799.522
399.292	16.704	1069.851	798.558
400.307	16.858	1068.724	798.373
401.321	16.787	1068.727	797.973
402.336	16.917	1067.593	797.664
403.350	17.016	1066.832	797.490
404.365	16.966	1065.943	796.520
405.380	16.952	1065.605	796.130
406.394	17.019	1065.070	795.977
407.409	17.043	1063.969	795.195
408.423	17.072	1063.469	794.887
409.438	17.123	1062.509	794.338
410.453	17.191	1061.769	794.033
411.467	17.174	1061.002	793.310
412.482	17.199	1060.635	793.082
413.496	17.237	1059.777	792.546
414.511	17.170	1059.883	792.243
415.526	17.151	1058.934	791.373
416.540	17.263	1058.595	791.572
417.555	17.372	1057.593	791.260
418.569	17.410	1057.085	790.989
419.584	17.317	1057.122	790.514
420.599	17.443	1055.896	790.110
421.613	106.484	1329.847	1485.147
422.628	98.132	1369.733	1485.239
