DTS Sentinel unit serial number:	SN413079Multiplexer serial number:	ORYXHardware model number:	OX4-SRSoftware version number:	ORYX F/W v4.00 Oryx Data Collector v3.7.2.0data status	okinstallation	princeton_trtdifferential loss correction	single-endedforward channel	channel 2reverse channel	N/Adate	2019/09/16time	13:23:35forward acquisition time	60.00reverse acquisition time	0.00gamma	496.2192k internal	0.2298k external	0.2298temperature offset calibration	0.9939default loss term (dB/km)	0.3790temperature slope calibration	1.0000multiplexer offset coefficient	1.0000multiplexer slope coefficient	1.0000fibre end	0.00T internal ref (°C)	41.50T ext. ref 1 (°C)	13.78T ext. ref 2 (°C)	39.41length (m)	temperature (°C)	Stokes	anti-Stokes-747.200	-133.385	-0.164	-0.021
-746.185	25.883	0.246	0.210
-745.171	140.840	-0.034	-0.046
-744.156	-29.399	-0.204	0.119
-743.142	800.000	0.103	-0.393
-742.127	-200.000	0.033	0.289
-741.112	800.000	-0.073	-0.236
-740.098	609.446	0.151	0.384
-739.083	44.503	0.131	0.123
-738.069	-91.390	0.360	0.105
-737.054	6.677	0.051	-0.038
-736.039	122.374	-0.222	0.283
-735.025	-181.573	0.178	-0.004
-734.010	678.463	0.040	0.106
-732.996	-69.360	0.108	0.042
-731.981	-155.961	0.307	0.020
-730.966	-200.000	-0.003	0.042
-729.952	-42.511	-0.221	0.115
-728.937	-58.517	-0.332	0.147
-727.923	82.436	-0.230	0.254
-726.908	-200.000	-0.018	0.443
-725.894	800.000	-0.097	-0.416
-724.879	800.000	-0.053	-0.201
-723.864	800.000	0.136	0.442
-722.850	-57.432	-0.346	-0.155
-721.835	-63.588	0.021	-0.009
-720.821	91.291	-0.160	-0.183
-719.806	-97.736	-0.318	-0.084
-718.791	-200.000	0.016	0.110
-717.777	98.212	-0.248	-0.291
-716.762	800.000	0.092	-0.362
-715.748	-58.661	0.511	0.226
-714.733	-103.875	-0.094	-0.022
-713.718	242.439	-0.036	-0.062
-712.704	-200.000	-0.021	-0.123
-711.689	105.684	-0.182	0.219
-710.675	-200.000	-0.010	-0.076
-709.660	390.806	-0.130	-0.275
-708.645	800.000	0.067	-0.217
-707.631	274.372	-0.111	-0.201
-706.616	361.800	-0.121	-0.248
-705.602	-53.550	-0.275	0.128
-704.587	77.880	0.284	0.309
-703.572	548.024	0.125	-0.304
-702.558	-67.688	0.218	-0.087
-701.543	48.412	-0.298	0.284
-700.529	63.832	0.396	-0.406
-699.514	135.899	-0.146	0.193
-698.499	29.757	0.096	0.083
-697.485	-78.560	0.175	0.061
-696.470	338.161	0.078	-0.155
-695.456	-87.783	-0.117	-0.036
-694.441	-35.869	0.062	-0.034
-693.426	214.722	-0.168	0.271
-692.412	-3.645	-0.277	0.196
-691.397	43.725	0.282	0.263
-690.383	-31.977	-0.218	0.124
-689.368	-99.854	0.034	0.009
-688.354	-200.000	-0.092	0.000
-687.339	-181.951	-0.129	-0.002
-686.324	-112.852	-0.543	-0.110
-685.310	-25.299	-0.285	-0.172
-684.295	639.728	0.077	-0.199
-683.281	-46.450	0.207	-0.103
-682.266	-80.317	-0.169	0.058
-681.251	-74.855	-0.166	-0.061
-680.237	96.030	0.170	-0.198
-679.222	800.000	0.071	-0.235
-678.208	77.580	-0.120	0.130
-677.193	-88.151	-0.105	0.032
-676.178	390.057	0.076	-0.160
-675.164	46.372	-0.297	-0.280
-674.149	60.283	-0.122	0.123
-673.135	205.294	-0.193	0.305
-672.120	800.000	-0.046	-0.168
-671.105	208.712	-0.159	0.254
-670.091	82.586	-0.211	0.233
-669.076	452.892	-0.061	0.136
-668.062	-200.000	0.018	-0.236
-667.047	6.422	-0.314	0.238
-666.032	-86.968	-0.277	0.086
-665.018	627.885	-0.100	-0.258
-664.003	248.925	-0.015	-0.025
-662.989	-62.525	0.259	0.110
-661.974	668.898	0.026	-0.069
-660.959	101.206	-0.193	-0.228
-659.945	-148.127	-0.097	-0.008
-658.930	-56.737	-0.258	0.116
-657.916	-200.000	0.005	-0.032
-656.901	29.515	-0.202	0.175
-655.886	-200.000	0.101	0.487
-654.872	323.813	-0.090	-0.175
-653.857	-200.000	-0.015	-0.240
-652.843	136.072	-0.185	0.245
-651.828	-170.070	0.095	0.003
-650.814	325.483	0.073	0.141
-649.799	200.091	0.122	-0.190
-648.784	-200.000	-0.015	-0.076
-647.770	67.792	0.130	-0.135
-646.755	-200.000	0.025	0.116
-645.741	403.390	-0.062	-0.133
-644.726	-200.000	0.028	-0.140
-643.711	-178.906	-0.239	0.006
-642.697	-85.656	-0.225	-0.071
-641.682	-27.291	0.174	-0.103
-640.668	-43.917	0.052	0.027
-639.653	121.019	-0.129	0.163
-638.638	-200.000	-0.349	-0.000
-637.624	-74.018	0.169	0.062
-636.609	-200.000	-0.015	0.184
-635.595	-200.000	0.038	0.195
-634.580	-200.000	0.043	-0.251
-633.565	800.000	0.023	-0.081
-632.551	-122.700	-0.188	-0.031
-631.536	-18.532	-0.306	0.194
-630.522	139.712	-0.081	0.108
-629.507	-128.370	-0.095	0.014
-628.492	11.311	0.046	-0.036
-627.478	545.771	0.013	-0.033
-626.463	-91.782	0.104	-0.030
-625.449	-89.296	0.042	0.012
-624.434	800.000	-0.036	0.146
-623.419	-183.912	-0.053	0.001
-622.405	-55.010	0.316	-0.145
-621.390	5.100	-0.064	-0.048
-620.376	-88.592	-0.250	-0.076
-619.361	-121.917	0.343	-0.057
-618.346	99.347	0.113	0.132
-617.332	-73.452	-0.113	-0.042
-616.317	800.000	-0.047	-0.202
-615.303	-125.060	-0.351	-0.055
-614.288	-144.480	0.363	0.034
-613.273	71.751	0.109	0.116
-612.259	800.000	-0.115	-0.442
-611.244	69.055	-0.132	0.138
-610.230	-38.683	-0.113	-0.060
-609.215	-55.442	-0.302	-0.138
-608.201	51.360	0.048	-0.047
-607.186	-200.000	0.016	-0.158
-606.171	800.000	0.090	0.287
-605.157	-97.598	-0.331	0.087
-604.142	-53.529	-0.174	0.081
-603.128	170.839	-0.164	0.238
-602.113	-138.441	0.087	-0.010
-601.098	-200.000	-0.030	0.258
-600.084	-200.000	0.056	-0.279
-599.069	45.334	0.257	-0.241
-598.055	-84.986	0.234	-0.075
-597.040	800.000	0.215	0.735
-596.025	80.558	0.129	0.142
-595.011	-27.883	0.161	-0.095
-593.996	69.456	-0.195	-0.204
-592.982	-155.285	-0.067	-0.004
-591.967	148.508	-0.077	0.105
-590.952	-200.000	-0.001	0.185
-589.938	552.728	-0.092	0.225
-588.923	-131.850	-0.188	0.025
-587.909	-11.164	0.248	0.166
-586.894	800.000	-0.036	0.115
-585.879	23.725	0.110	-0.092
-584.865	-200.000	-0.024	-0.243
-583.850	237.987	-0.149	-0.252
-582.836	-156.719	-0.142	-0.009
-581.821	61.260	0.089	0.089
-580.806	800.000	0.070	-0.297
-579.792	-60.899	0.094	-0.040
-578.777	13.264	-0.124	-0.097
-577.763	522.410	-0.102	0.242
-576.748	63.208	-0.144	0.146
-575.733	-81.038	-0.122	0.041
-574.719	1.863	-0.371	0.271
-573.704	160.522	-0.272	-0.386
-572.690	788.420	-0.085	-0.237
-571.675	-199.942	-0.052	-0.000
-570.661	-103.497	0.243	-0.058
-569.646	-200.000	-0.030	-0.209
-568.631	-18.735	-0.127	-0.080
-567.617	800.000	0.116	0.390
-566.602	-146.472	0.110	-0.010
-565.588	441.680	0.057	0.127
-564.573	60.695	0.008	0.008
-563.558	-78.087	0.004	0.001
-562.544	-88.741	0.125	-0.038
-561.529	800.000	0.069	-0.244
-560.515	-111.281	0.070	0.015
-559.500	-66.659	0.093	0.037
-558.485	-37.983	-0.326	0.176
-557.471	-200.000	-0.023	0.176
-556.456	800.000	-0.024	0.105
-555.442	204.629	-0.231	0.362
-554.427	14.875	-0.154	0.122
-553.412	296.407	-0.171	0.318
-552.398	800.000	0.056	0.233
-551.383	800.000	0.083	-0.288
-550.369	800.000	-0.077	-0.331
-549.354	800.000	0.078	-0.232
-548.339	-200.000	-0.050	-0.247
-547.325	-200.000	0.035	0.177
-546.310	800.000	0.040	-0.165
-545.296	12.709	0.251	0.197
-544.281	236.550	0.166	-0.279
-543.266	699.851	0.034	-0.090
-542.252	-86.229	-0.220	-0.069
-541.237	-71.022	-0.214	-0.082
-540.223	-200.000	0.015	0.187
-539.208	800.000	-0.079	0.227
-538.193	58.582	0.106	-0.106
-537.179	-1.224	0.192	-0.137
-536.164	800.000	-0.073	-0.279
-535.150	23.293	0.208	0.173
-534.135	-43.607	0.129	-0.066
-533.121	-59.647	0.114	-0.049
-532.106	-200.000	-0.079	0.383
-531.091	-72.905	0.356	0.132
-530.077	47.760	-0.066	-0.062
-529.062	-64.806	0.307	-0.126
-528.048	-166.618	0.394	-0.017
-527.033	-0.003	0.212	-0.153
-526.018	239.739	0.078	-0.131
-525.004	-4.213	-0.359	0.252
-523.989	-21.555	0.103	-0.064
-522.975	-188.013	-0.304	-0.004
-521.960	800.000	-0.042	-0.139
-520.945	72.574	-0.203	-0.214
-519.931	62.268	0.165	0.166
-518.916	-153.964	0.136	0.009
-517.902	800.000	-0.027	-0.109
-516.887	800.000	-0.106	0.318
-515.872	-200.000	0.022	0.168
-514.858	30.995	0.227	0.197
-513.843	472.281	-0.165	-0.377
-512.829	20.778	0.152	-0.125
-511.814	-187.896	0.114	0.002
-510.799	-78.983	-0.108	-0.037
-509.785	-159.554	-0.272	0.015
-508.770	-97.913	-0.120	0.031
-507.756	507.974	-0.170	-0.399
-506.741	-12.917	-0.028	0.018
-505.726	-159.216	-0.221	-0.013
-504.712	-49.052	-0.085	0.041
-503.697	-200.000	-0.049	0.396
-502.683	-200.000	-0.049	0.345
-501.668	74.681	-0.108	-0.115
-500.653	152.899	-0.201	0.277
-499.639	-130.964	0.391	0.053
-498.624	-15.917	-0.136	-0.087
-497.610	-26.662	-0.189	-0.112
-496.595	188.135	-0.085	-0.129
-495.581	51.599	0.295	-0.284
-494.566	41.629	-0.091	-0.084
-493.551	-127.468	-0.270	0.040
-492.537	176.849	-0.104	0.154
-491.522	187.734	-0.090	-0.136
-490.508	-108.752	0.208	0.045
-489.493	800.000	0.082	0.242
-488.478	-9.448	0.275	-0.185
-487.464	106.110	0.184	0.220
-486.449	-124.151	-0.571	0.090
-485.435	-200.000	-0.011	-0.095
-484.420	366.971	-0.054	-0.111
-483.405	109.045	0.161	0.195
-482.391	-76.868	-0.068	-0.024
-481.376	24.673	0.112	-0.094
-480.362	-9.327	-0.531	-0.358
-479.347	-200.000	0.017	-0.113
-478.332	-95.529	0.223	-0.060
-477.318	-123.741	-0.342	0.055
-476.303	-200.000	0.042	-0.210
-475.289	-200.000	-0.040	0.258
-474.274	383.236	-0.033	-0.069
-473.259	110.171	-0.064	0.078
-472.245	-85.512	0.141	-0.044
-471.230	-200.000	-0.036	0.197
-470.216	-200.000	0.026	0.163
-469.201	20.350	-0.309	-0.252
-468.186	-200.000	0.039	-0.229
-467.172	194.205	0.158	-0.241
-466.157	-200.000	-0.002	0.142
-465.143	422.409	0.179	-0.388
-464.128	-200.000	-0.009	-0.183
-463.113	355.848	0.072	-0.145
-462.099	-200.000	-0.024	-0.298
-461.084	241.331	-0.067	-0.114
-460.070	-102.783	-0.140	-0.034
-459.055	-82.733	0.388	0.127
-458.040	-66.118	-0.338	0.136
-457.026	-121.290	0.158	0.027
-456.011	212.048	0.120	-0.191
-454.997	1.259	0.079	0.057
-453.982	-146.378	0.218	-0.019
-452.968	25.299	0.202	-0.170
-451.953	800.000	0.045	0.136
-450.938	737.727	0.092	0.249
-449.924	-81.241	0.423	-0.141
-448.909	146.099	0.257	-0.349
-447.895	-200.000	0.081	-0.428
-446.880	-122.629	0.360	0.059
-445.865	-166.225	0.329	-0.014
-444.851	-200.000	-0.016	-0.604
-443.836	-112.180	0.140	-0.028
-442.822	-130.070	-0.224	0.031
-441.807	25.317	0.310	-0.260
-440.792	138.818	0.046	0.061
-439.778	238.904	0.058	0.098
-438.763	279.236	0.101	-0.182
-437.749	664.266	0.024	0.062
-436.734	536.531	0.068	-0.162
-435.719	737.398	0.039	0.106
-434.705	-6.935	-0.114	0.078
-433.690	113.822	0.241	-0.295
-432.676	628.977	0.058	0.147
-431.661	51.621	-0.469	-0.450
-430.646	-90.569	-0.325	0.095
-429.632	-107.392	-0.227	-0.050
-428.617	800.000	0.103	-0.353
-427.603	-86.938	-0.336	0.103
-426.588	-44.292	-0.146	-0.074
-425.573	410.340	0.056	-0.120
-424.559	800.000	-0.057	-0.209
-423.544	-200.000	0.023	0.244
-422.530	56.325	-0.124	0.122
-421.515	43.855	0.057	-0.053
-420.500	800.000	0.091	0.322
-419.486	-200.000	0.005	-0.082
-418.471	259.426	-0.062	0.108
-417.457	-42.749	0.054	-0.028
-416.442	-200.000	0.022	-0.116
-415.428	-47.036	-0.281	0.138
-414.413	-139.560	-0.154	0.017
-413.398	-125.324	-0.009	-0.001
-412.384	612.840	0.047	-0.119
-411.369	-159.507	0.217	0.012
-410.355	-74.514	0.034	-0.012
-409.340	18.611	-0.273	-0.220
-408.325	158.302	0.108	0.151
-407.311	43.740	-0.372	-0.343
-406.296	-97.142	-0.148	-0.039
-405.282	-197.421	0.113	-0.001
-404.267	-153.385	-0.165	-0.012
-403.252	184.114	-0.055	0.082
-402.238	159.367	-0.058	0.081
-401.223	460.875	-0.036	0.080
-400.209	2.035	0.164	-0.119
-399.194	800.000	-0.126	0.362
-398.179	-90.974	-0.053	-0.015
-397.165	34.940	0.251	0.221
-396.150	-112.534	0.382	0.077
-395.136	291.445	-0.104	0.190
-394.121	237.182	-0.087	-0.145
-393.106	-85.424	0.386	-0.121
-392.092	800.000	-0.043	0.144
-391.077	595.613	-0.104	0.258
-390.063	-64.159	0.126	-0.052
-389.048	239.408	0.091	0.153
-388.033	-28.048	0.060	0.035
-387.019	-200.000	-0.030	0.213
-386.004	-200.000	-0.027	0.294
-384.990	-106.085	-0.146	-0.033
-383.975	136.558	0.143	0.188
-382.960	-139.911	-0.111	-0.012
-381.946	-200.000	-0.022	0.297
-380.931	6.372	-0.388	-0.290
-379.917	68.643	-0.162	-0.167
-378.902	119.606	0.194	0.242
-377.888	67.137	-0.021	-0.022
-376.873	-0.401	-0.101	0.072
-375.858	-78.001	-0.214	-0.074
-374.844	-101.246	-0.058	-0.014
-373.829	-7.804	0.053	-0.036
-372.815	111.258	-0.068	-0.083
-371.800	-77.222	0.069	-0.024
-370.785	-73.736	-0.124	0.045
-369.771	25.440	0.179	0.149
-368.756	-70.504	-0.086	-0.033
-367.742	-58.761	-0.180	-0.078
-366.727	-59.733	0.255	-0.110
-365.712	79.018	-0.134	-0.144
-364.698	478.995	0.132	0.300
-363.683	75.152	0.137	-0.146
-362.669	-200.000	-0.002	-0.203
-361.654	-125.696	-0.316	-0.048
-360.639	-27.583	0.025	0.014
-359.625	-200.000	-0.002	-0.367
-358.610	-200.000	0.038	-0.227
-357.596	-106.105	0.309	-0.070
-356.581	-200.000	-0.037	-0.385
-355.566	-75.159	-0.247	-0.089
-354.552	297.905	0.153	0.282
-353.537	800.000	-0.054	-0.189
-352.523	152.570	-0.190	0.261
-351.508	-105.740	0.063	0.014
-350.493	-200.000	0.003	-0.192
-349.479	-119.653	-0.090	-0.016
-348.464	304.480	0.150	0.279
-347.450	249.813	-0.034	-0.059
-346.435	-108.776	0.112	0.024
-345.420	-88.050	0.066	0.020
-344.406	459.083	-0.103	0.231
-343.391	-75.493	-0.183	-0.066
-342.377	329.162	-0.153	0.296
-341.362	-200.000	-0.011	-0.057
-340.348	-97.982	-0.375	-0.097
-339.333	40.864	-0.178	0.161
-338.318	523.518	0.121	0.285
-337.304	325.959	-0.153	-0.295
-336.289	69.033	-0.210	-0.217
-335.275	3.368	-0.164	0.120
-334.260	-200.000	0.003	0.085
-333.245	800.000	-0.071	-0.200
-332.231	-200.000	-0.018	-0.273
-331.216	-172.098	-0.042	0.001
-330.202	-133.666	0.123	0.015
-329.187	-60.161	0.177	-0.076
-328.172	41.973	0.130	-0.118
-327.158	276.457	-0.107	-0.192
-326.143	139.503	0.098	0.130
-325.129	-7.491	0.237	-0.161
-324.114	-200.000	-0.227	-0.000
-323.099	381.290	-0.160	-0.330
-322.085	11.664	-0.300	-0.232
-321.070	-45.822	-0.108	0.054
-320.056	-11.832	-0.212	0.140
-319.041	63.225	0.098	0.099
-318.026	-88.758	0.216	-0.064
-317.012	-21.576	-0.205	0.126
-315.997	470.018	-0.119	-0.269
-314.983	-64.022	-0.142	0.058
-313.968	-200.000	0.045	0.207
-312.953	-79.525	0.253	-0.086
-311.939	107.343	0.094	-0.112
-310.924	-50.807	0.136	-0.064
-309.910	-156.123	-0.019	0.001
-308.895	-1.222	-0.111	-0.079
-307.880	-50.504	0.073	0.034
-306.866	-193.688	0.454	0.004
-305.851	-200.000	0.009	0.312
-304.837	-200.000	0.033	-0.204
-303.822	292.222	-0.060	0.109
-302.807	-110.399	-0.365	-0.076
-301.793	19.864	-0.152	0.123
-300.778	701.957	-0.119	0.314
-299.764	-3.046	0.073	0.051
-298.749	-200.000	-0.015	-0.181
-297.735	89.288	0.199	0.223
-296.720	-1.154	0.110	0.078
-295.705	-200.000	0.003	0.020
-294.691	355.351	0.060	0.121
-293.676	-99.638	-0.508	0.128
-292.662	-64.953	-0.309	0.125
-291.647	36.959	-0.190	-0.169
-290.632	112.944	-0.215	0.261
-289.618	-99.470	0.103	-0.026
-288.603	-38.355	-0.218	0.116
-287.589	800.000	-0.095	0.351
-286.574	-9.159	0.201	0.135
-285.559	326.957	-0.161	-0.309
-284.545	-200.000	0.010	-0.129
-283.530	257.425	-0.095	0.164
-282.516	35.699	-0.163	0.144
-281.501	741.274	-0.059	-0.159
-280.486	-105.971	-0.097	0.022
-279.472	-44.873	-0.316	0.158
-278.457	-133.898	0.708	-0.088
-277.443	543.373	0.149	0.357
-276.428	-200.000	0.052	0.294
-275.413	230.953	0.116	0.190
-274.399	-188.894	0.169	-0.002
-273.384	-10.537	-0.237	0.157
-272.370	40.466	-0.066	-0.059
-271.355	-88.652	0.104	-0.031
-270.340	512.224	-0.100	0.234
-269.326	80.314	0.131	-0.141
-268.311	-66.687	-0.039	-0.016
-267.297	800.000	-0.065	0.200
-266.282	-200.000	-0.030	0.205
-265.267	-52.396	-0.252	-0.117
-264.253	-38.633	-0.364	0.193
-263.238	-99.614	0.395	-0.099
-262.224	246.331	0.073	0.123
-261.209	-23.261	0.232	-0.140
-260.195	-15.563	-0.241	-0.154
-259.180	-56.533	0.109	0.048
-258.165	23.084	0.100	-0.082
-257.151	-200.000	-0.014	0.087
-256.136	95.600	0.039	0.044
-255.122	-67.581	-0.138	0.054
-254.107	141.291	-0.156	-0.206
-253.092	81.305	-0.158	0.171
-252.078	-25.748	0.275	0.163
-251.063	-200.000	0.001	0.180
-250.049	-34.457	0.338	0.185
-249.034	-62.346	0.185	-0.077
-248.019	-200.000	-0.001	0.040
-247.005	-20.076	0.283	-0.175
-245.990	-3.349	-0.169	0.118
-244.976	-77.443	-0.336	-0.117
-243.961	556.881	0.073	0.177
-242.946	-5.815	0.122	-0.084
-241.932	-71.316	0.291	-0.109
-240.917	-62.687	0.155	-0.064
-239.903	363.640	-0.120	0.242
-238.888	-91.007	0.211	-0.061
-237.873	-200.000	0.023	-0.192
-236.859	-200.000	0.065	-0.355
-235.844	-200.000	-0.022	-0.186
-234.830	-176.987	0.340	-0.009
-233.815	470.621	-0.045	-0.102
-232.800	800.000	0.024	0.093
-231.786	40.709	0.191	-0.173
-230.771	42.387	-0.098	-0.090
-229.757	-4.964	0.205	0.141
-228.742	800.000	0.071	-0.220
-227.727	-88.654	0.171	0.051
-226.713	-93.663	-0.108	-0.030
-225.698	-200.000	0.020	-0.119
-224.684	-200.000	-0.050	-0.280
-223.669	-61.092	0.166	0.070
-222.655	-172.974	0.258	-0.008
-221.640	-200.000	-0.087	0.404
-220.625	30.711	-0.068	0.059
-219.611	763.531	0.074	0.200
-218.596	378.869	0.094	-0.192
-217.582	-158.259	0.190	-0.011
-216.567	800.000	-0.026	0.103
-215.552	800.000	-0.050	-0.190
-214.538	647.552	0.085	0.217
-213.523	-38.962	-0.364	0.191
-212.509	800.000	-0.031	-0.087
-211.494	-125.859	0.465	0.070
-210.479	-53.073	-0.167	-0.077
-209.465	-124.608	0.357	0.055
-208.450	193.927	0.174	0.263
-207.436	-107.241	-0.493	-0.108
-206.421	-124.285	0.169	0.026
-205.406	99.562	0.178	-0.206
-204.392	90.612	-0.207	-0.232
-203.377	273.857	0.164	0.290
-202.363	-200.000	-0.083	0.367
-201.348	-200.000	0.029	0.157
-200.333	-43.965	0.210	0.105
-199.319	-90.829	-0.053	-0.015
-198.304	-162.179	0.204	-0.010
-197.290	800.000	0.058	-0.162
-196.275	381.133	0.136	-0.280
-195.260	-6.639	0.219	-0.149
-194.246	42.021	0.059	0.054
-193.231	-200.000	0.035	0.297
-192.217	69.096	0.037	0.038
-191.202	800.000	-0.083	0.245
-190.187	111.738	0.226	0.272
-189.173	82.837	0.189	-0.206
-188.158	-11.817	0.325	0.213
-187.144	-200.000	0.019	0.487
-186.129	-200.000	-0.035	-0.230
-185.114	-119.528	-0.122	0.021
-184.100	-172.346	-0.303	0.010
-183.085	95.376	-0.103	-0.118
-182.071	-118.595	-0.177	0.031
-181.056	-178.876	0.071	-0.002
-180.042	43.084	-0.157	-0.143
-179.027	497.415	-0.102	0.234
-178.012	-61.043	0.194	0.082
-176.998	-71.196	-0.024	0.009
-175.983	-25.109	0.240	0.142
-174.969	-163.642	-0.223	-0.011
-173.954	35.872	-0.069	-0.061
-172.939	-93.397	0.228	0.063
-171.925	-100.789	0.064	-0.016
-170.910	-27.329	-0.292	-0.170
-169.896	800.000	0.064	0.194
-168.881	-148.200	-0.180	-0.015
-167.866	4.242	-0.360	-0.264
-166.852	-82.317	0.060	0.020
-165.837	-23.500	0.294	-0.176
-164.823	421.292	0.109	0.234
-163.808	317.039	0.168	0.317
-162.793	-0.342	0.344	0.244
-161.779	152.447	-0.089	0.122
-160.764	-200.000	-0.003	0.190
-159.750	74.547	0.110	0.116
-158.735	-200.000	0.006	-0.185
-157.720	237.710	-0.050	-0.084
-156.706	80.819	0.111	0.120
-155.691	771.475	0.037	0.102
-154.677	-200.000	-0.033	0.255
-153.662	396.134	0.150	-0.313
-152.647	93.110	0.190	-0.214
-151.633	-200.000	-0.020	-0.306
-150.618	70.831	-0.104	0.107
-149.604	-188.569	-0.297	-0.004
-148.589	608.739	-0.083	0.206
-147.574	-105.536	-0.027	-0.006
-146.560	28.700	0.301	0.254
-145.545	-200.000	-0.037	0.201
-144.531	800.000	0.037	0.108
-143.516	1.068	0.137	0.098
-142.502	-12.876	-0.167	0.109
-141.487	-152.243	0.101	0.007
-140.472	-89.547	-0.396	-0.116
-139.458	-13.085	0.103	-0.067
-138.443	467.850	0.010	-0.023
-137.429	-136.704	-0.131	-0.015
-136.414	93.809	0.233	-0.263
-135.399	24.440	0.199	0.164
-134.385	391.595	0.120	0.249
-133.370	137.657	0.109	0.142
-132.356	800.000	0.033	-0.141
-131.341	456.565	0.141	-0.311
-130.326	800.000	-0.099	0.333
-129.312	-33.714	-0.234	0.128
-128.297	-36.778	-0.027	-0.014
-127.283	4.983	-0.015	-0.011
-126.268	99.479	0.133	0.153
-125.253	-200.000	0.015	0.165
-124.239	176.500	-0.116	-0.167
-123.224	363.413	0.200	0.401
-122.210	262.545	-0.087	0.150
-121.195	-50.561	0.184	0.086
-120.180	-45.033	0.172	0.085
-119.166	562.312	-0.064	0.155
-118.151	800.000	-0.028	-0.103
-117.137	688.582	0.086	-0.224
-116.122	-150.277	0.056	0.004
-115.107	-200.000	-0.045	0.347
-114.093	800.000	-0.098	0.343
-113.078	223.736	0.185	0.298
-112.064	-63.420	0.249	0.102
-111.049	23.803	0.084	0.069
-110.034	-200.000	0.008	0.097
-109.020	-105.509	-0.134	-0.030
-108.005	-200.000	-0.058	0.319
-106.991	-122.110	0.178	0.029
-105.976	-124.283	-0.180	0.028
-104.962	45.022	-0.060	0.055
-103.947	-122.652	-0.201	-0.032
-102.932	64.982	-0.174	0.175
-101.918	-139.860	-0.127	0.013
-100.903	276.301	0.112	0.199
-99.889	800.000	0.169	0.551
-98.874	-200.000	-0.006	0.197
-97.859	-38.012	0.067	-0.035
-96.845	51.554	-0.271	0.256
-95.830	-128.712	-0.072	0.010
-94.816	196.066	0.072	-0.109
-93.801	407.268	-0.087	-0.183
-92.786	-39.748	-0.277	-0.144
-91.772	21.348	-0.255	0.206
-90.757	-200.000	0.030	0.255
-89.743	-103.967	0.327	-0.076
-88.728	-200.000	-0.014	-0.096
-87.713	-200.000	-0.020	-0.091
-86.699	724.580	0.048	0.126
-85.684	800.000	-0.070	0.201
-84.670	-200.000	0.022	0.179
-83.655	218.615	-0.075	0.120
-82.640	-6.885	0.093	0.063
-81.626	-82.603	-0.298	0.096
-80.611	164.956	0.075	-0.105
-79.597	277.885	0.228	-0.404
-78.582	-99.392	0.207	-0.052
-77.567	-200.000	-0.015	-0.173
-76.553	-200.000	-0.009	-0.068
-75.538	655.936	0.029	0.075
-74.524	170.956	-0.109	0.156
-73.509	-162.619	0.206	0.010
-72.494	9.185	0.347	0.261
-71.480	800.000	-0.054	0.165
-70.465	554.098	0.075	-0.179
-69.451	-44.616	-0.324	0.161
-68.436	26.933	0.133	0.111
-67.422	-200.000	-0.042	-0.305
-66.407	86.312	0.075	-0.082
-65.392	-200.000	-0.008	0.117
-64.378	-200.000	-0.020	0.356
-63.363	451.013	-0.109	-0.239
-62.349	-73.935	-0.097	0.035
-61.334	17.971	-0.859	-0.680
-60.319	276.022	0.265	0.467
-59.305	634.661	-0.246	-0.621
-58.290	81.088	0.537	0.576
-57.276	643.562	0.620	1.571
-56.261	-200.000	76.078	522.107
-55.246	512.776	1349.131	3124.773
-54.232	138.939	2607.211	3405.421
-53.217	110.848	2381.069	2847.692
-52.203	50.858	1990.271	1873.734
-51.188	44.677	1778.333	1625.008
-50.173	42.009	1732.024	1561.851
-49.159	56.001	1766.865	1703.490
-48.144	61.767	1784.852	1766.009
-47.130	44.863	1748.210	1598.688
-46.115	41.565	1734.469	1560.336
-45.100	41.347	1729.940	1554.500
-44.086	41.330	1727.053	1551.714
-43.071	41.442	1724.390	1550.129
-42.057	41.439	1721.548	1547.492
-41.042	41.302	1720.015	1544.985
-40.027	41.382	1717.817	1543.567
-39.013	41.291	1716.605	1541.719
-37.998	41.297	1714.474	1539.790
-36.984	41.465	1712.669	1539.404
-35.969	41.561	1711.305	1538.852
-34.954	41.621	1709.432	1537.570
-33.940	41.516	1707.695	1535.141
-32.925	41.493	1705.762	1533.168
-31.911	41.543	1704.012	1531.912
-30.896	41.487	1701.865	1529.494
-29.881	41.479	1700.287	1527.954
-28.867	41.572	1698.149	1526.681
-27.852	41.486	1696.729	1524.687
-26.838	41.528	1695.319	1523.682
-25.823	41.500	1694.088	1522.306
-24.809	41.555	1692.452	1521.191
-23.794	41.584	1691.175	1520.208
-22.779	41.562	1689.288	1518.280
-21.765	41.539	1688.491	1517.326
-20.750	41.486	1686.654	1515.217
-19.736	41.477	1685.042	1513.641
-18.721	41.515	1683.651	1512.619
-17.706	41.468	1682.397	1511.078
-16.692	41.457	1680.436	1509.169
-15.677	41.498	1678.704	1507.867
-14.663	41.566	1677.510	1507.249
-13.648	41.514	1676.323	1505.729
-12.633	41.480	1674.427	1503.711
-11.619	41.511	1672.698	1502.330
-10.604	41.546	1671.016	1501.020
-9.590	41.572	1669.964	1500.215
-8.575	41.564	1668.790	1499.039
-7.560	41.556	1667.470	1497.730
-6.546	41.454	1666.253	1495.815
-5.531	41.523	1665.162	1495.296
-4.517	41.460	1664.425	1494.098
-3.502	41.523	1662.649	1492.921
-2.487	41.560	1661.307	1491.928
-1.473	41.646	1650.348	1482.669
-0.458	39.418	1630.869	1448.739
0.556	33.269	1628.789	1412.212
1.571	30.436	1652.945	1411.530
2.586	29.116	1666.777	1413.099
3.600	26.420	1614.357	1348.462
4.615	20.415	1505.238	1215.321
5.629	15.141	1438.795	1126.204
6.644	13.897	1429.251	1110.323
7.659	13.785	1427.432	1108.063
8.673	13.795	1425.931	1106.862
9.688	13.633	1424.471	1104.553
10.702	13.533	1421.625	1101.586
11.717	16.001	1426.928	1122.049
12.731	20.668	1434.988	1159.469
13.746	20.749	1432.518	1157.911
14.761	17.820	1426.224	1133.291
15.775	16.290	1422.820	1120.344
16.790	15.210	1419.771	1110.690
17.804	14.340	1417.505	1103.057
18.819	13.894	1415.696	1098.601
19.834	13.436	1414.551	1094.585
20.848	13.214	1413.245	1092.013
21.863	12.948	1411.645	1088.926
22.877	12.918	1410.118	1087.451
23.892	12.817	1409.574	1086.270
24.907	12.826	1409.104	1085.872
25.921	12.804	1407.847	1084.661
26.936	12.931	1406.393	1084.283
27.950	12.842	1406.091	1083.371
28.965	12.958	1404.963	1083.164
29.980	12.987	1403.416	1082.065
30.994	13.048	1402.314	1081.524
32.009	13.128	1400.817	1080.792
33.023	13.059	1400.100	1079.694
34.038	13.119	1398.082	1078.433
35.053	13.000	1397.464	1077.087
36.067	13.030	1396.045	1076.090
37.082	12.963	1394.894	1074.676
38.096	12.863	1394.081	1073.303
39.111	12.988	1393.033	1073.212
40.126	12.952	1392.045	1072.124
41.140	12.835	1391.004	1070.467
42.155	12.853	1390.805	1070.337
43.169	12.749	1390.581	1069.394
44.184	12.836	1390.105	1069.495
45.199	12.805	1389.432	1068.685
46.213	12.827	1389.423	1068.723
47.228	12.926	1388.470	1068.539
48.242	12.904	1386.845	1067.051
49.257	12.909	1385.616	1066.045
50.271	12.850	1384.347	1064.589
51.286	12.897	1382.943	1063.718
52.301	12.942	1381.871	1063.089
53.315	12.806	1380.661	1061.193
54.330	12.793	1379.429	1060.068
55.344	12.932	1377.999	1059.767
56.359	12.836	1377.247	1058.481
57.374	12.877	1376.089	1057.758
58.388	12.790	1375.373	1056.556
59.403	12.766	1374.992	1056.015
60.417	12.681	1374.153	1054.733
61.432	12.717	1373.401	1054.293
62.447	12.699	1372.285	1053.226
63.461	12.712	1370.471	1051.827
64.476	12.682	1369.856	1051.070
65.490	12.754	1368.467	1050.371
66.505	12.693	1366.895	1048.683
67.520	12.610	1366.077	1047.436
68.534	12.764	1364.567	1047.163
69.549	12.815	1363.567	1046.623
70.563	12.709	1362.817	1045.283
71.578	12.638	1361.585	1043.796
72.593	12.602	1360.895	1042.948
73.607	12.585	1359.894	1041.980
74.622	12.601	1359.361	1041.582
75.636	12.625	1358.811	1041.220
76.651	12.557	1357.918	1040.015
77.666	12.583	1357.272	1039.588
78.680	12.601	1356.892	1039.323
79.695	12.689	1355.803	1038.953
80.709	12.624	1355.293	1038.060
81.724	12.672	1354.513	1037.671
82.739	12.745	1353.462	1037.233
83.753	12.848	1352.728	1037.229
84.768	12.902	1351.762	1036.734
85.782	12.853	1350.528	1035.388
86.797	12.870	1349.175	1034.369
87.812	12.796	1347.855	1032.801
88.826	12.840	1346.696	1032.095
89.841	12.823	1345.433	1030.930
90.855	12.904	1344.299	1030.478
91.870	12.905	1343.697	1029.930
92.884	12.908	1342.769	1029.148
93.899	12.921	1342.041	1028.578
94.914	13.049	1341.076	1028.542
95.928	13.022	1340.298	1027.689
96.943	12.907	1339.198	1026.041
97.957	12.965	1338.105	1025.471
98.972	12.995	1337.071	1024.777
99.987	12.952	1335.845	1023.479
101.001	13.048	1334.833	1023.207
102.016	12.918	1333.749	1021.482
103.030	13.033	1332.661	1021.269
104.045	12.990	1331.926	1020.346
105.060	12.790	1331.019	1018.327
106.074	12.934	1329.400	1017.886
107.089	12.757	1328.286	1015.854
108.103	12.705	1327.224	1014.630
109.118	12.751	1325.576	1013.565
110.133	12.742	1324.139	1012.318
111.147	12.761	1322.330	1010.967
112.162	12.774	1321.346	1010.204
113.176	12.822	1320.412	1009.695
114.191	12.870	1319.351	1009.086
115.206	12.843	1318.102	1007.879
116.220	12.787	1316.862	1006.495
117.235	12.844	1315.861	1005.990
118.249	12.753	1314.870	1004.587
119.264	12.750	1313.833	1003.687
120.279	12.835	1312.046	1002.753
121.293	12.807	1311.244	1001.880
122.308	12.819	1310.230	1001.094
123.322	12.819	1308.938	1000.016
124.337	12.730	1308.101	998.750
125.352	12.729	1307.184	997.954
126.366	12.765	1305.911	997.109
127.381	12.751	1304.841	996.119
128.395	12.804	1303.230	995.124
129.410	12.844	1302.485	994.707
130.424	12.874	1301.693	994.198
131.439	12.823	1301.105	993.348
132.454	12.915	1299.874	992.875
133.468	12.997	1298.722	992.404
134.483	12.870	1298.837	991.642
135.497	12.902	1297.405	990.647
136.512	12.928	1295.931	989.591
137.527	12.920	1294.586	988.432
138.541	12.996	1292.737	987.384
139.556	13.036	1291.558	986.635
140.570	13.063	1290.659	986.024
141.585	13.093	1289.388	985.144
142.600	13.079	1287.842	983.795
143.614	13.026	1287.598	983.207
144.629	13.114	1286.300	982.650
145.643	13.179	1284.550	981.610
146.658	13.047	1283.536	979.968
147.673	12.980	1282.038	978.337
148.687	12.954	1280.682	977.063
149.702	12.894	1279.734	975.899
150.716	12.917	1278.257	974.821
151.731	12.817	1277.047	973.224
152.746	12.987	1275.543	972.992
153.760	12.981	1274.824	972.323
154.775	13.035	1273.343	971.426
155.789	13.086	1272.587	971.062
156.804	13.006	1271.798	969.902
157.819	13.055	1270.792	969.341
158.833	13.204	1269.166	968.886
159.848	13.191	1268.927	968.542
160.862	13.163	1267.395	967.126
161.877	13.119	1266.440	966.052
162.892	13.038	1265.111	964.482
163.906	12.948	1264.270	963.229
164.921	13.065	1263.095	962.932
165.935	13.019	1262.201	961.896
166.950	13.068	1261.837	961.817
167.964	13.063	1260.853	960.952
168.979	12.981	1260.262	959.942
169.994	13.036	1258.909	959.146
171.008	13.064	1258.273	958.741
172.023	13.235	1257.140	958.781
173.037	13.166	1256.847	958.076
174.052	13.121	1255.518	956.718
175.067	13.069	1254.780	955.767
176.081	13.153	1253.490	955.186
177.096	13.087	1252.235	953.764
178.110	13.049	1251.821	953.143
179.125	13.205	1249.902	952.499
180.140	13.161	1249.039	951.505
181.154	13.125	1248.045	950.452
182.169	13.244	1246.437	949.828
183.183	13.267	1245.687	949.309
184.198	13.364	1243.987	948.481
185.213	13.376	1242.493	947.328
186.227	13.412	1241.809	946.928
187.242	13.387	1240.982	946.073
188.256	13.455	1239.343	945.127
189.271	13.369	1239.120	944.383
190.286	13.330	1237.902	943.148
191.300	13.148	1236.929	941.286
192.315	13.141	1236.352	940.722
193.329	13.144	1235.818	940.254
194.344	13.213	1235.017	939.951
195.359	13.324	1234.494	940.101
196.373	13.308	1234.130	939.650
197.388	13.342	1233.185	939.038
198.402	13.492	1232.738	939.466
199.417	13.525	1232.187	939.153
200.432	13.533	1231.286	938.430
201.446	13.705	1230.248	938.530
202.461	13.672	1229.328	937.558
203.475	13.712	1228.090	936.752
204.490	13.653	1226.839	935.384
205.504	13.504	1225.643	933.550
206.519	13.519	1224.654	932.800
207.534	13.513	1223.262	931.621
208.548	13.574	1222.467	931.278
209.563	13.526	1222.211	930.731
210.577	13.676	1220.607	930.270
211.592	13.665	1219.610	929.365
212.607	13.695	1218.774	928.811
213.621	13.833	1217.870	928.812
214.636	13.653	1217.382	927.354
215.650	13.788	1216.521	927.371
216.665	13.781	1215.182	926.227
217.680	13.897	1214.308	926.127
218.694	13.889	1213.604	925.466
219.709	13.868	1212.746	924.607
220.723	13.735	1211.942	923.173
221.738	13.736	1211.477	922.743
222.753	13.891	1210.494	922.774
223.767	13.836	1210.317	922.254
224.782	13.786	1209.512	921.280
225.796	14.005	1208.267	921.468
226.811	13.909	1207.364	920.161
227.826	13.750	1207.169	919.051
228.840	13.891	1206.227	919.032
229.855	13.901	1205.293	918.296
230.869	13.855	1204.669	917.486
231.884	13.795	1203.939	916.520
232.899	13.914	1202.927	916.324
233.913	13.839	1202.169	915.251
234.928	13.891	1201.390	914.862
235.942	13.875	1200.642	914.125
236.957	13.815	1199.796	913.069
237.972	13.900	1198.963	912.820
238.986	13.879	1198.036	911.919
240.001	13.911	1197.519	911.623
241.015	13.874	1196.917	910.880
242.030	13.770	1196.254	909.723
243.045	14.002	1195.112	910.044
244.059	14.048	1194.152	909.487
245.074	14.066	1193.415	908.945
246.088	14.078	1192.404	908.159
247.103	14.089	1191.736	907.628
248.117	14.031	1191.266	906.873
249.132	14.252	1190.058	907.080
250.147	14.238	1189.877	906.784
251.161	14.308	1188.702	906.187
252.176	14.317	1188.480	905.991
253.190	14.349	1187.390	905.249
254.205	14.302	1187.463	904.973
255.220	14.327	1186.988	904.666
256.234	14.462	1186.028	904.587
257.249	14.443	1184.971	903.594
258.263	14.358	1184.446	902.657
259.278	14.441	1183.640	902.414
260.293	14.557	1182.928	902.419
261.307	14.510	1182.483	901.745
262.322	14.528	1181.851	901.281
263.336	14.534	1181.090	900.651
264.351	14.482	1180.852	900.106
265.366	14.545	1180.221	899.888
266.380	14.535	1179.318	899.068
267.395	14.525	1178.344	898.190
268.409	14.578	1177.449	897.713
269.424	14.523	1177.032	897.022
270.439	14.536	1176.399	896.529
271.453	14.619	1175.096	895.902
272.468	14.570	1174.260	894.920
273.482	14.529	1173.840	894.301
274.497	14.511	1173.216	893.652
275.512	14.613	1172.546	893.607
276.526	14.674	1171.484	893.047
277.541	14.592	1170.648	891.892
278.555	14.625	1170.155	891.614
279.570	14.653	1169.492	891.181
280.585	14.871	1167.858	891.017
281.599	14.782	1167.496	890.188
282.614	14.750	1166.605	889.260
283.628	14.833	1165.241	888.584
284.643	14.784	1164.486	887.668
285.657	14.708	1163.675	886.569
286.672	14.748	1162.759	886.004
287.687	14.736	1162.014	885.292
288.701	14.807	1161.186	884.962
289.716	14.797	1160.472	884.283
290.730	14.864	1159.407	883.753
291.745	14.837	1159.125	883.313
292.760	14.799	1158.354	882.447
293.774	14.822	1157.647	881.952
294.789	14.942	1157.213	882.179
295.803	14.948	1156.479	881.571
296.818	14.955	1155.361	880.675
297.833	14.922	1154.605	879.851
298.847	14.885	1153.580	878.794
299.862	14.990	1152.923	878.767
300.876	14.993	1152.364	878.282
301.891	15.070	1151.624	878.043
302.906	15.079	1150.960	877.504
303.920	15.025	1150.452	876.757
304.935	15.123	1149.662	876.591
305.949	15.193	1148.552	876.033
306.964	15.273	1147.965	875.929
307.979	15.199	1147.309	874.964
308.993	15.140	1147.122	874.432
310.008	15.095	1146.066	873.320
311.022	15.214	1145.113	873.135
312.037	15.272	1144.574	872.947
313.052	15.157	1143.451	871.417
314.066	15.172	1142.237	870.489
315.081	15.129	1141.163	869.373
316.095	15.233	1140.603	869.408
317.110	15.100	1139.788	868.023
318.125	14.977	1139.695	867.235
319.139	15.098	1138.394	866.798
320.154	15.182	1137.833	866.724
321.168	15.087	1137.347	865.789
322.183	15.131	1136.807	865.526
323.197	15.166	1136.256	865.212
324.212	15.196	1135.319	864.576
325.227	15.167	1134.964	864.082
326.241	15.288	1134.346	864.157
327.256	15.235	1133.455	863.127
328.270	15.145	1132.654	861.979
329.285	15.190	1131.360	861.152
330.300	15.243	1130.279	860.526
331.314	15.351	1129.456	860.374
332.329	15.330	1128.420	859.400
333.343	15.225	1127.893	858.388
334.358	15.381	1127.217	858.594
335.373	15.384	1126.556	858.029
336.387	15.481	1125.138	857.370
337.402	15.441	1124.503	856.605
338.416	15.464	1124.314	856.504
339.431	15.395	1123.706	855.615
340.446	15.528	1122.850	855.565
341.460	15.579	1121.892	855.015
342.475	15.573	1121.310	854.467
343.489	15.598	1120.437	853.855
344.504	15.733	1119.171	853.498
345.519	15.695	1118.422	852.658
346.533	15.738	1117.861	852.375
347.548	15.829	1116.806	851.955
348.562	15.730	1116.352	851.033
349.577	15.711	1115.444	850.166
350.592	15.681	1114.563	849.273
351.606	15.697	1113.850	848.730
352.621	15.658	1113.035	847.841
353.635	15.701	1112.181	847.331
354.650	15.707	1111.805	847.001
355.665	15.586	1111.167	845.828
356.679	15.658	1110.473	845.590
357.694	15.594	1110.061	844.879
358.708	15.810	1108.877	844.987
359.723	15.795	1108.584	844.615
360.738	15.944	1107.224	844.251
361.752	15.952	1107.038	844.074
362.767	15.893	1106.281	843.125
363.781	15.886	1105.861	842.695
364.796	15.866	1105.794	842.471
365.810	16.005	1104.674	842.237
366.825	15.984	1104.105	841.623
367.840	15.992	1103.790	841.352
368.854	16.054	1103.133	841.083
369.869	16.086	1102.317	840.548
370.883	16.032	1101.883	839.872
371.898	16.053	1100.391	838.767
372.913	16.048	1099.944	838.327
373.927	16.067	1099.507	838.010
374.942	16.179	1099.132	838.209
375.956	16.076	1098.535	837.170
376.971	16.152	1097.769	836.888
377.986	16.132	1097.373	836.414
379.000	16.181	1096.811	836.155
380.015	16.294	1096.163	836.146
381.029	16.261	1095.412	835.333
382.044	16.252	1094.728	834.694
383.059	16.258	1094.068	834.149
384.073	16.427	1092.580	833.774
385.088	16.268	1092.171	832.600
386.102	16.358	1091.499	832.459
387.117	16.292	1090.625	831.394
388.132	16.241	1089.540	830.241
389.146	16.263	1088.751	829.679
390.161	16.179	1087.989	828.611
391.175	16.291	1087.154	828.452
392.190	16.191	1087.195	827.918
393.205	16.482	1085.897	828.280
394.219	16.246	1085.445	826.706
395.234	16.481	1084.069	826.734
396.248	16.442	1083.077	825.714
397.263	16.383	1081.986	824.525
398.278	16.378	1081.125	823.768
399.292	16.256	1080.735	822.807
400.307	16.268	1080.042	822.261
401.321	16.366	1079.161	821.995
402.336	16.474	1078.366	821.844
403.350	16.386	1077.812	820.922
404.365	16.410	1077.119	820.438
405.380	16.416	1076.503	819.924
406.394	16.573	1075.665	819.976
407.409	16.510	1075.081	819.152
408.423	16.658	1073.811	818.830
409.438	16.496	1073.707	817.894
410.453	16.653	1072.858	817.933
411.467	16.726	1072.108	817.642
412.482	16.693	1071.564	816.993
413.496	16.670	1071.064	816.428
414.511	16.894	1069.980	816.613
415.526	16.811	1069.601	815.849
416.540	16.822	1069.450	815.714
417.555	16.765	1069.018	815.041
418.569	16.794	1068.592	814.783
419.584	16.735	1068.152	814.089
420.599	16.879	1067.246	814.019
421.613	83.219	1294.293	1357.333
422.628	76.923	1327.364	1357.468
