DTS Sentinel unit serial number:	SN413079Multiplexer serial number:	ORYXHardware model number:	OX4-SRSoftware version number:	ORYX F/W v4.00 Oryx Data Collector v3.7.2.0data status	okinstallation	princeton_trtdifferential loss correction	single-endedforward channel	channel 2reverse channel	N/Adate	2019/09/14time	10:43:34forward acquisition time	60.00reverse acquisition time	0.00gamma	496.2192k internal	0.2315k external	0.2315temperature offset calibration	1.0142default loss term (dB/km)	0.3790temperature slope calibration	1.0000multiplexer offset coefficient	1.0000multiplexer slope coefficient	1.0000fibre end	0.00T internal ref (°C)	35.37T ext. ref 1 (°C)	4.28T ext. ref 2 (°C)	32.79length (m)	temperature (°C)	Stokes	anti-Stokes-747.200	-76.519	-0.251	0.089
-746.185	136.602	0.044	-0.058
-745.171	-39.261	-0.101	0.054
-744.156	-200.000	0.049	-0.218
-743.142	800.000	0.080	-0.245
-742.127	-26.749	-0.223	0.132
-741.112	-112.060	0.080	-0.016
-740.098	184.162	0.178	0.266
-739.083	52.709	0.068	-0.066
-738.069	98.030	0.148	0.173
-737.054	-38.149	-0.136	-0.073
-736.039	-144.357	0.121	-0.011
-735.025	-80.722	0.306	0.103
-734.010	6.387	-0.283	-0.213
-732.996	92.796	0.130	-0.149
-731.981	-200.000	0.001	0.072
-730.966	372.697	0.125	0.258
-729.952	-14.752	-0.265	-0.172
-728.937	800.000	-0.047	0.138
-727.923	-200.000	0.023	0.161
-726.908	303.621	-0.029	0.054
-725.894	-83.114	0.239	-0.078
-724.879	-55.344	0.072	0.033
-723.864	-1.694	-0.243	-0.173
-722.850	800.000	0.002	-0.007
-721.835	-75.971	-0.014	0.005
-720.821	-77.880	-0.228	-0.080
-719.806	-200.000	0.009	-0.240
-718.791	236.717	0.073	-0.123
-717.777	-83.889	-0.142	0.046
-716.762	53.661	0.108	-0.105
-715.748	307.187	0.129	0.243
-714.733	800.000	-0.038	0.124
-713.718	307.895	-0.080	-0.152
-712.704	800.000	0.074	-0.258
-711.689	-100.795	-0.318	0.079
-710.675	459.503	-0.122	0.274
-709.660	800.000	-0.011	0.042
-708.645	660.846	0.095	-0.247
-707.631	26.605	-0.186	-0.157
-706.616	-46.481	0.341	-0.169
-705.602	-200.000	0.028	0.205
-704.587	-105.725	0.163	-0.037
-703.572	-40.388	0.251	-0.132
-702.558	-14.542	0.116	-0.075
-701.543	-44.794	0.296	0.149
-700.529	-92.448	0.217	0.062
-699.514	-70.656	-0.049	0.019
-698.499	-130.556	-0.209	0.028
-697.485	800.000	0.010	-0.032
-696.470	800.000	-0.098	-0.341
-695.456	-200.000	0.051	-0.243
-694.441	-200.000	0.040	0.292
-693.426	-200.000	0.010	-0.053
-692.412	474.634	-0.053	0.122
-691.397	-102.981	0.189	-0.045
-690.383	-131.005	0.198	0.027
-689.368	-200.000	-0.030	-0.294
-688.354	-182.257	0.298	-0.006
-687.339	-69.668	0.373	0.144
-686.324	300.607	0.107	-0.200
-685.310	-43.114	0.194	0.099
-684.295	-190.907	-0.081	-0.001
-683.281	800.000	0.145	-0.446
-682.266	297.490	0.132	-0.246
-681.251	120.587	0.102	-0.129
-680.237	241.723	0.100	-0.169
-679.222	49.936	-0.072	-0.069
-678.208	-81.485	-0.183	-0.061
-677.193	800.000	0.065	-0.253
-676.178	37.892	0.173	-0.155
-675.164	800.000	-0.076	-0.224
-674.149	135.403	-0.278	-0.365
-673.135	-134.536	-0.089	0.011
-672.120	38.008	-0.077	-0.069
-671.105	110.026	-0.108	-0.131
-670.091	-5.839	0.110	-0.076
-669.076	-35.010	0.133	-0.073
-668.062	-50.591	-0.180	-0.086
-667.047	800.000	-0.045	-0.146
-666.032	549.339	0.120	-0.291
-665.018	-200.000	0.024	-0.170
-664.003	329.924	-0.148	-0.287
-662.989	31.479	0.458	-0.397
-661.974	314.274	-0.081	-0.155
-660.959	-62.973	-0.235	-0.098
-659.945	800.000	-0.038	0.154
-658.930	-17.286	-0.189	0.120
-657.916	-200.000	-0.009	-0.094
-656.901	22.858	-0.137	-0.114
-655.886	223.773	-0.059	0.096
-654.872	616.599	0.099	0.251
-653.857	-200.000	-0.028	0.198
-652.843	-11.225	-0.029	-0.019
-651.828	249.501	-0.161	0.276
-650.814	-128.225	0.257	0.037
-649.799	139.279	-0.171	-0.227
-648.784	-200.000	0.023	-0.257
-647.770	800.000	0.032	-0.105
-646.755	-136.311	-0.254	-0.030
-645.741	-145.493	0.142	-0.013
-644.726	13.873	-0.160	0.126
-643.711	-161.378	-0.204	-0.011
-642.697	-200.000	0.075	-0.361
-641.682	-14.638	-0.253	-0.164
-640.668	35.188	-0.420	-0.372
-639.653	-57.210	0.052	-0.023
-638.638	-114.792	0.223	0.043
-637.624	-200.000	-0.253	0.000
-636.609	-200.000	-0.054	-0.359
-635.595	-102.504	-0.232	-0.056
-634.580	-156.883	-0.147	0.009
-633.565	-140.103	-0.253	-0.027
-632.551	-200.000	0.023	-0.243
-631.536	118.526	0.080	-0.100
-630.522	2.811	0.163	-0.119
-629.507	-33.319	-0.455	-0.254
-628.492	-184.328	0.201	0.003
-627.478	800.000	0.034	0.096
-626.463	-87.780	-0.094	0.029
-625.449	3.105	0.150	0.110
-624.434	-200.000	-0.000	-0.122
-623.419	-121.228	-0.229	-0.039
-622.405	-74.973	0.224	0.081
-621.390	-7.841	0.117	0.080
-620.376	-43.710	0.285	-0.145
-619.361	-200.000	0.017	-0.115
-618.346	-54.453	-0.040	0.018
-617.332	-9.172	0.139	0.094
-616.317	-149.615	-0.172	-0.014
-615.303	-45.660	-0.101	-0.051
-614.288	-200.000	0.023	-0.300
-613.273	27.972	-0.106	0.090
-612.259	557.385	-0.144	0.351
-611.244	14.756	-0.170	-0.134
-610.230	259.146	0.040	-0.070
-609.215	89.961	0.064	-0.072
-608.201	-82.646	0.130	-0.042
-607.186	76.177	0.028	0.030
-606.171	91.661	-0.210	0.238
-605.157	-43.105	0.167	-0.085
-604.142	-22.530	0.146	-0.089
-603.128	39.830	0.147	-0.133
-602.113	-200.000	0.013	0.061
-601.098	-34.532	0.225	-0.124
-600.084	-53.080	-0.035	0.016
-599.069	-119.273	-0.386	-0.068
-598.055	-200.000	-0.008	0.135
-597.040	40.422	-0.299	-0.271
-596.025	-130.407	0.090	-0.012
-595.011	206.933	-0.235	-0.369
-593.996	-183.743	-0.316	-0.005
-592.982	-53.807	-0.049	-0.023
-591.967	-15.168	0.183	0.118
-590.952	-200.000	-0.001	0.237
-589.938	-130.475	-0.132	-0.018
-588.923	-200.000	-0.013	-0.106
-587.909	211.042	-0.047	-0.074
-586.894	-135.589	-0.334	-0.040
-585.879	179.633	-0.104	-0.154
-584.865	-98.559	-0.071	-0.018
-583.850	-167.588	0.050	-0.002
-582.836	-98.508	-0.141	0.036
-581.821	319.423	0.125	0.238
-580.806	170.254	0.094	-0.135
-579.792	26.692	-0.327	0.275
-578.777	-89.987	0.176	-0.052
-577.763	151.520	0.020	-0.028
-576.748	800.000	0.059	0.187
-575.733	-75.302	-0.125	0.045
-574.719	800.000	0.043	-0.164
-573.704	-2.773	0.144	0.101
-572.690	-200.000	-0.017	-0.124
-571.675	-137.387	-0.100	-0.011
-570.661	-137.200	-0.255	-0.029
-569.646	81.284	0.193	0.210
-568.631	110.747	-0.074	-0.090
-567.617	-168.826	-0.163	-0.006
-566.602	19.880	0.217	0.176
-565.588	800.000	0.096	0.345
-564.573	-6.915	0.205	-0.140
-563.558	114.537	0.192	-0.236
-562.544	-47.631	0.176	-0.086
-561.529	196.315	-0.096	0.147
-560.515	33.529	-0.045	-0.040
-559.500	106.849	-0.106	-0.126
-558.485	207.325	0.124	-0.195
-557.471	352.145	-0.040	-0.080
-556.456	56.562	0.223	0.218
-555.442	0.378	0.168	0.120
-554.427	7.183	-0.161	0.121
-553.412	205.696	0.230	-0.360
-552.398	-200.000	0.019	0.242
-551.383	663.599	0.080	-0.208
-550.369	-54.071	0.152	0.070
-549.354	-29.786	0.104	0.060
-548.339	-61.765	-0.432	-0.182
-547.325	-171.819	0.025	0.001
-546.310	-200.000	-0.036	0.381
-545.296	367.325	0.148	-0.301
-544.281	-200.000	0.042	0.621
-543.266	492.671	-0.111	0.255
-542.252	47.850	-0.022	0.021
-541.237	-10.748	-0.102	0.068
-540.223	62.758	0.229	-0.230
-539.208	-155.232	0.119	0.008
-538.193	797.883	-0.052	-0.144
-537.179	372.669	-0.049	-0.101
-536.164	112.617	-0.072	-0.088
-535.150	47.891	0.189	0.178
-534.135	305.614	-0.104	0.195
-533.121	-200.000	0.006	0.091
-532.106	-72.686	0.245	0.091
-531.091	-200.000	-0.002	0.267
-530.077	800.000	-0.023	-0.073
-529.062	-17.878	0.145	0.092
-528.048	122.618	0.143	0.179
-527.033	120.515	0.165	-0.206
-526.018	-123.381	-0.224	0.036
-525.004	-200.000	0.022	0.138
-523.989	261.549	0.129	-0.225
-522.975	544.963	-0.108	-0.259
-521.960	-14.056	-0.163	0.106
-520.945	217.333	0.055	-0.088
-519.931	17.456	-0.152	-0.121
-518.916	-57.415	-0.259	0.114
-517.902	336.969	0.109	0.213
-516.887	800.000	0.070	-0.294
-515.872	-18.399	0.226	-0.142
-514.858	-200.000	-0.054	0.286
-513.843	82.590	-0.158	0.173
-512.829	58.988	-0.151	-0.149
-511.814	48.508	0.406	-0.382
-510.799	-193.752	-0.095	0.001
-509.785	-200.000	-0.459	-0.002
-508.770	526.956	-0.144	-0.341
-507.756	213.271	-0.103	0.163
-506.741	-20.263	0.124	-0.077
-505.726	211.711	-0.243	0.384
-504.712	800.000	-0.123	-0.346
-503.697	410.804	0.131	-0.278
-502.683	55.332	0.169	-0.165
-501.668	-200.000	-0.002	-0.090
-500.653	-200.000	-0.023	-0.299
-499.639	-1.879	-0.094	0.066
-498.624	-54.342	-0.073	0.033
-497.610	-19.437	-0.234	-0.145
-496.595	800.000	0.099	0.298
-495.581	-200.000	0.011	-0.265
-494.566	405.972	-0.113	0.238
-493.551	-133.843	-0.466	-0.058
-492.537	402.281	0.149	-0.314
-491.522	-70.402	0.065	0.025
-490.508	-166.177	-0.462	-0.020
-489.493	-36.447	-0.033	0.018
-488.478	-200.000	-0.039	0.260
-487.464	521.562	-0.099	0.233
-486.449	-117.117	0.198	0.036
-485.435	-21.384	-0.124	0.076
-484.420	-97.771	0.109	0.028
-483.405	180.577	-0.063	-0.093
-482.391	-125.838	0.350	0.053
-481.376	61.411	-0.133	-0.133
-480.362	485.678	-0.041	-0.093
-479.347	-102.863	-0.124	0.030
-478.332	266.412	-0.160	-0.281
-477.318	-141.713	0.256	-0.026
-476.303	-28.136	0.234	-0.135
-475.289	-200.000	-0.000	-0.054
-474.274	4.515	0.232	-0.170
-473.259	-91.014	-0.017	-0.005
-472.245	178.764	-0.152	0.223
-471.230	-60.892	-0.174	0.074
-470.216	-146.978	-0.418	-0.036
-469.201	800.000	0.143	-0.404
-468.186	-119.119	0.291	-0.051
-467.172	-200.000	-0.036	-0.252
-466.157	-109.756	-0.270	-0.057
-465.143	-37.711	0.059	0.031
-464.128	244.866	0.064	0.107
-463.113	170.607	0.181	-0.260
-462.099	-47.267	0.098	-0.048
-461.084	800.000	-0.068	-0.270
-460.070	-21.213	0.113	0.069
-459.055	-5.297	-0.157	0.108
-458.040	-77.425	-0.364	0.127
-457.026	9.659	0.157	-0.119
-456.011	11.904	0.208	-0.160
-454.997	800.000	-0.062	0.190
-453.982	41.900	0.168	-0.152
-452.968	-200.000	-0.057	0.257
-451.953	-200.000	-0.026	0.116
-450.938	-31.614	0.324	0.182
-449.924	-136.613	0.464	-0.054
-448.909	198.436	0.131	-0.200
-447.895	322.842	-0.187	0.356
-446.880	121.564	0.307	0.384
-445.865	800.000	-0.081	0.254
-444.851	88.430	0.181	-0.202
-443.836	-200.000	0.017	-0.179
-442.822	-37.393	0.079	0.042
-441.807	113.237	-0.154	0.186
-440.792	-22.807	-0.253	-0.153
-439.778	245.676	0.136	0.228
-438.763	-200.000	-0.031	0.221
-437.749	-29.699	0.164	-0.094
-436.734	128.637	-0.221	-0.282
-435.719	800.000	0.028	-0.083
-434.705	-106.966	0.252	-0.056
-433.690	96.709	0.145	-0.167
-432.676	5.027	-0.053	-0.039
-431.661	-200.000	-0.007	0.185
-430.646	800.000	0.107	0.343
-429.632	-200.000	0.018	-0.105
-428.617	-200.000	0.075	0.344
-427.603	-200.000	0.027	-0.124
-426.588	245.150	0.186	-0.314
-425.573	-142.832	-0.315	0.031
-424.559	77.699	0.165	-0.176
-423.544	-200.000	-0.031	0.201
-422.530	4.525	0.227	0.166
-421.515	-30.423	-0.349	0.198
-420.500	30.778	-0.096	0.083
-419.486	352.966	-0.057	0.113
-418.471	-47.883	-0.109	0.053
-417.457	-184.736	0.051	0.001
-416.442	13.908	0.079	-0.061
-415.428	-183.608	-0.315	-0.005
-414.413	-132.170	0.046	0.006
-413.398	180.929	0.141	0.208
-412.384	114.592	0.141	-0.171
-411.369	-33.488	-0.260	-0.144
-410.355	800.000	-0.065	0.182
-409.340	521.390	0.079	-0.186
-408.325	26.552	-0.101	0.085
-407.311	-200.000	-0.069	0.358
-406.296	-2.651	-0.182	-0.127
-405.282	-5.913	-0.022	0.015
-404.267	124.932	0.088	-0.110
-403.252	-84.572	0.107	-0.034
-402.238	-37.628	0.289	0.154
-401.223	60.510	0.198	0.196
-400.209	377.767	-0.041	-0.083
-399.194	176.199	0.051	-0.074
-398.179	3.239	-0.049	0.035
-397.165	-89.879	-0.141	0.041
-396.150	-4.708	0.181	-0.125
-395.136	-200.000	0.033	-0.165
-394.121	670.001	0.099	0.257
-393.106	107.117	0.039	0.047
-392.092	-94.016	-0.304	-0.083
-391.077	53.843	-0.062	-0.059
-390.063	-7.873	-0.334	-0.225
-389.048	-65.936	0.248	-0.099
-388.033	-200.000	0.006	-0.039
-387.019	582.306	-0.065	-0.160
-386.004	12.850	0.165	-0.127
-384.990	800.000	-0.060	-0.179
-383.975	-102.749	-0.278	-0.066
-382.960	82.723	-0.382	0.415
-381.946	-167.406	-0.041	0.002
-380.931	-8.296	0.159	0.107
-379.917	-200.000	-0.095	-0.476
-378.902	-69.339	-0.132	-0.051
-377.888	-86.598	0.331	0.101
-376.873	520.168	-0.236	0.551
-375.858	152.982	0.100	0.136
-374.844	-200.000	-0.035	-0.214
-373.829	-49.024	-0.275	0.131
-372.815	-200.000	0.008	0.213
-371.800	352.422	-0.036	-0.072
-370.785	-32.564	-0.296	0.165
-369.771	-4.261	-0.038	-0.026
-368.756	-200.000	-0.033	0.273
-367.742	280.583	-0.139	0.249
-366.727	800.000	-0.030	0.096
-365.712	-200.000	0.004	-0.083
-364.698	28.319	0.329	-0.277
-363.683	62.141	-0.090	-0.090
-362.669	57.435	0.208	-0.203
-361.654	-23.230	-0.154	-0.092
-360.639	775.954	-0.097	0.264
-359.625	800.000	-0.017	0.060
-358.610	558.378	-0.097	0.235
-357.596	-198.523	0.127	-0.001
-356.581	-139.913	0.096	0.010
-355.566	-18.971	-0.329	0.204
-354.552	-132.251	-0.063	-0.008
-353.537	-36.318	-0.347	0.187
-352.523	208.628	0.175	-0.273
-351.508	516.454	-0.062	-0.146
-350.493	357.050	-0.110	0.219
-349.479	-200.000	0.006	-0.056
-348.464	-200.000	-0.015	0.282
-347.450	50.760	0.200	-0.189
-346.435	294.634	-0.290	-0.529
-345.420	23.282	0.324	0.266
-344.406	-200.000	0.007	0.280
-343.391	-77.068	0.329	-0.114
-342.377	491.933	-0.125	-0.286
-341.362	-116.050	0.603	-0.112
-340.348	209.389	-0.090	0.141
-339.333	248.458	-0.017	-0.029
-338.318	-36.397	0.169	0.091
-337.304	-200.000	-0.003	0.127
-336.289	391.722	0.118	-0.245
-335.275	-130.849	0.137	-0.018
-334.260	-135.245	0.197	-0.024
-333.245	-200.000	0.019	0.231
-332.231	-45.032	-0.332	-0.165
-331.216	-106.196	-0.301	-0.067
-330.202	-60.577	0.189	0.080
-329.187	-29.612	0.094	0.053
-328.172	-6.513	-0.059	0.040
-327.158	-52.599	0.116	-0.053
-326.143	190.980	-0.091	0.137
-325.129	125.271	0.047	0.059
-324.114	-200.000	0.048	-0.227
-323.099	-183.417	0.164	0.003
-322.085	183.212	0.118	0.174
-321.070	-154.836	-0.297	-0.020
-320.056	-200.000	0.012	0.096
-319.041	130.387	0.097	-0.123
-318.026	-15.999	-0.115	-0.073
-317.012	586.489	0.041	-0.101
-315.997	-37.483	-0.255	-0.136
-314.983	48.014	-0.160	0.149
-313.968	274.216	0.140	0.248
-312.953	27.830	0.089	-0.075
-311.939	38.267	-0.202	0.179
-310.924	43.301	-0.118	-0.107
-309.910	45.055	-0.084	-0.077
-308.895	-79.757	-0.236	-0.079
-307.880	224.822	0.162	-0.261
-306.866	-200.000	-0.012	-0.094
-305.851	-101.578	0.232	0.056
-304.837	-200.000	0.024	0.195
-303.822	87.305	0.369	0.407
-302.807	-153.481	0.146	0.010
-301.793	157.270	0.181	0.249
-300.778	-11.338	0.106	0.070
-299.764	-30.232	0.155	-0.088
-298.749	464.998	0.085	0.189
-297.735	77.984	0.136	0.145
-296.720	-145.162	0.115	0.010
-295.705	800.000	-0.060	-0.220
-294.691	800.000	0.078	-0.311
-293.676	-122.150	-0.167	-0.027
-292.662	-77.666	0.180	0.062
-291.647	-79.097	0.386	0.130
-290.632	-56.768	-0.295	-0.130
-289.618	-200.000	0.006	-0.129
-288.603	9.782	0.210	0.158
-287.589	-58.494	-0.175	0.076
-286.574	201.241	-0.102	-0.157
-285.559	-150.323	-0.080	0.006
-284.545	-200.000	-0.031	-0.151
-283.530	-200.000	-0.005	-0.115
-282.516	59.474	0.065	0.064
-281.501	-87.784	0.368	-0.110
-280.486	-0.470	-0.099	0.070
-279.472	-146.527	-0.107	0.009
-278.457	-154.077	-0.272	-0.018
-277.443	314.142	0.108	-0.203
-276.428	153.358	-0.020	0.028
-275.413	-140.388	0.265	-0.028
-274.399	-117.922	0.289	0.051
-273.384	-23.228	-0.135	-0.081
-272.370	49.286	0.122	0.115
-271.355	-157.762	-0.491	-0.029
-270.340	-90.295	0.171	-0.050
-269.326	535.165	-0.088	-0.208
-268.311	5.057	0.103	-0.075
-267.297	205.756	-0.068	0.105
-266.282	340.836	-0.161	-0.313
-265.267	244.898	-0.107	0.178
-264.253	-200.000	-0.070	0.471
-263.238	-200.000	0.058	0.344
-262.224	242.529	0.071	0.118
-261.209	-200.000	0.025	-0.227
-260.195	-22.169	-0.193	-0.116
-259.180	-24.084	-0.075	-0.044
-258.165	196.008	0.111	-0.168
-257.151	-55.999	0.262	0.116
-256.136	800.000	0.044	0.145
-255.122	775.778	-0.009	-0.025
-254.107	6.623	-0.287	-0.212
-253.092	-13.977	0.430	-0.276
-252.078	54.264	0.239	-0.228
-251.063	800.000	-0.126	-0.426
-250.049	-59.501	-0.124	0.053
-249.034	-38.782	-0.248	0.130
-248.019	47.336	0.233	-0.216
-247.005	-167.118	-0.138	-0.006
-245.990	-139.834	-0.088	0.009
-244.976	-69.067	-0.321	0.123
-243.961	-200.000	-0.031	0.225
-242.946	312.043	-0.072	-0.134
-241.932	111.837	0.040	0.048
-240.917	-200.000	-0.019	-0.212
-239.903	-200.000	0.005	0.201
-238.888	-112.601	0.319	0.063
-237.873	800.000	0.039	-0.115
-236.859	-11.045	-0.321	0.210
-235.844	-58.744	0.103	0.044
-234.830	-141.185	-0.105	-0.011
-233.815	-200.000	-0.018	-0.135
-232.800	800.000	-0.048	-0.201
-231.786	800.000	-0.095	0.348
-230.771	-125.682	-0.101	0.015
-229.757	-35.704	0.130	-0.070
-228.742	-41.532	0.362	0.185
-227.727	-200.000	0.001	-0.031
-226.713	164.103	-0.194	0.271
-225.698	-200.000	-0.003	-0.040
-224.684	-92.111	0.364	0.102
-223.669	92.218	0.079	-0.089
-222.655	800.000	-0.101	0.328
-221.640	140.492	0.289	0.378
-220.625	-0.791	-0.184	0.130
-219.611	-138.238	0.235	0.026
-218.596	16.840	-0.302	0.237
-217.582	248.481	-0.163	0.274
-216.567	-200.000	0.010	0.200
-215.552	-3.878	-0.096	-0.066
-214.538	-21.517	-0.287	0.174
-213.523	-41.954	-0.179	-0.091
-212.509	-43.421	-0.096	-0.048
-211.494	800.000	-0.173	0.672
-210.479	-65.791	0.156	-0.062
-209.465	-200.000	0.017	0.139
-208.450	-120.901	-0.247	0.041
-207.436	-200.000	0.029	0.233
-206.421	-78.387	-0.176	-0.060
-205.406	-8.795	-0.256	0.170
-204.392	235.921	-0.201	0.330
-203.377	800.000	-0.079	0.226
-202.363	140.199	0.150	-0.197
-201.348	750.431	-0.055	-0.147
-200.333	-200.000	0.044	-0.533
-199.319	-105.459	-0.180	-0.040
-198.304	-200.000	-0.008	-0.187
-197.290	323.800	0.149	-0.283
-196.275	-104.181	0.318	-0.073
-195.260	-69.066	0.109	-0.041
-194.246	584.181	0.055	0.135
-193.231	-200.000	0.013	0.101
-192.217	18.471	0.007	0.006
-191.202	-200.000	0.003	-0.136
-190.187	-60.385	0.407	0.172
-189.173	-200.000	0.024	0.146
-188.158	-12.888	0.116	-0.075
-187.144	326.526	-0.028	-0.053
-186.129	-145.943	0.382	0.034
-185.114	400.515	-0.174	0.362
-184.100	-200.000	-0.058	0.265
-183.085	-128.920	0.282	-0.039
-182.071	-200.000	0.003	-0.306
-181.056	99.704	0.167	-0.192
-180.042	-151.178	-0.291	-0.022
-179.027	-65.389	-0.075	-0.030
-178.012	-200.000	0.011	0.076
-176.998	300.642	-0.052	0.094
-175.983	-141.154	-0.309	-0.031
-174.969	-118.772	0.046	-0.008
-173.954	-124.650	-0.224	0.034
-172.939	411.935	0.045	-0.095
-171.925	800.000	0.056	-0.177
-170.910	-200.000	0.094	0.000
-169.896	800.000	0.036	0.129
-168.881	-200.000	-0.053	0.382
-167.866	195.943	-0.024	0.036
-166.852	-142.740	0.476	0.046
-165.837	443.669	0.183	-0.397
-164.823	-200.000	-0.049	0.237
-163.808	160.435	0.136	0.188
-162.793	159.421	0.170	0.235
-161.779	58.280	0.175	-0.170
-160.764	-200.000	-0.017	0.107
-159.750	800.000	0.057	0.163
-158.735	298.217	0.088	-0.160
-157.720	10.890	0.094	-0.071
-156.706	-142.804	0.542	0.052
-155.691	-13.328	0.482	0.310
-154.677	49.104	0.052	0.048
-153.662	800.000	0.048	-0.166
-152.647	-94.242	0.107	0.029
-151.633	800.000	-0.086	-0.359
-150.618	-200.000	0.029	-0.166
-149.604	-26.816	0.102	-0.059
-148.589	-200.000	0.009	-0.202
-147.574	-51.990	0.111	0.051
-146.560	-200.000	0.004	0.135
-145.545	138.285	-0.047	-0.061
-144.531	-200.000	-0.011	-0.191
-143.516	-2.686	0.175	-0.121
-142.502	800.000	0.086	-0.295
-141.487	317.842	0.150	0.282
-140.472	665.767	-0.052	-0.134
-139.458	414.192	-0.121	0.256
-138.443	331.803	-0.119	0.226
-137.429	800.000	0.048	-0.161
-136.414	425.324	0.078	-0.166
-135.399	272.231	-0.173	-0.303
-134.385	-9.922	0.171	0.112
-133.370	-190.931	-0.564	0.006
-132.356	-150.425	0.364	-0.028
-131.341	42.471	-0.159	-0.143
-130.326	-38.211	0.030	0.016
-129.312	-49.191	0.269	-0.127
-128.297	-200.000	0.008	-0.117
-127.283	565.297	-0.068	-0.164
-126.268	-37.055	0.389	-0.206
-125.253	62.726	0.086	0.085
-124.239	-90.403	0.258	0.074
-123.224	800.000	-0.019	0.078
-122.210	-200.000	0.047	0.243
-121.195	158.373	-0.066	0.090
-120.180	326.275	-0.131	-0.247
-119.166	-130.952	0.386	0.051
-118.151	5.714	0.235	-0.172
-117.137	-12.406	0.263	0.170
-116.122	800.000	0.125	-0.371
-115.107	-38.981	-0.093	0.049
-114.093	39.403	-0.024	0.021
-113.078	-121.407	-0.155	-0.025
-112.064	-44.493	0.039	-0.019
-111.049	-20.433	-0.166	-0.101
-110.034	800.000	0.038	0.143
-109.020	-99.206	0.122	-0.030
-108.005	-78.153	0.188	-0.064
-106.991	800.000	-0.026	-0.079
-105.976	36.448	0.183	0.160
-104.962	-108.574	0.451	0.096
-103.947	-200.000	0.001	-0.024
-102.932	299.940	-0.237	0.432
-101.918	-34.995	0.272	0.147
-100.903	-193.385	0.215	0.002
-99.889	341.901	0.103	-0.199
-98.874	-174.795	-0.178	-0.005
-97.859	307.537	-0.030	0.055
-96.845	-83.912	0.257	-0.081
-95.830	199.084	-0.073	-0.111
-94.816	800.000	-0.072	0.202
-93.801	-163.903	0.033	0.002
-92.786	24.326	-0.280	0.228
-91.772	242.390	-0.103	0.170
-90.757	-127.832	-0.235	0.033
-89.743	-200.000	0.058	-0.251
-88.728	454.352	0.065	-0.142
-87.713	179.705	0.091	-0.132
-86.699	-66.554	-0.250	0.098
-85.684	639.540	-0.064	-0.161
-84.670	120.199	0.181	0.221
-83.655	58.012	0.044	-0.042
-82.640	570.034	-0.056	-0.134
-81.626	62.895	-0.219	-0.216
-80.611	49.441	0.176	-0.164
-79.597	-199.125	-0.256	0.001
-78.582	-111.889	0.097	-0.019
-77.567	180.570	-0.187	0.271
-76.553	-67.048	0.273	-0.106
-75.538	208.525	0.105	-0.162
-74.524	-53.460	-0.041	0.018
-73.509	-86.260	-0.382	0.116
-72.494	14.053	0.318	0.244
-71.480	-200.000	0.026	-0.142
-70.465	206.230	0.099	-0.152
-69.451	-97.613	-0.198	-0.051
-68.436	-200.000	-0.003	0.581
-67.422	46.085	-0.232	0.212
-66.407	-200.000	-0.004	-0.289
-65.392	17.673	-0.327	0.257
-64.378	-87.487	-0.252	0.075
-63.363	217.120	0.139	0.219
-62.349	-57.776	-0.159	-0.068
-61.334	44.128	-0.930	-0.841
-60.319	800.000	0.114	0.354
-59.305	800.000	-0.250	-0.694
-58.290	-200.000	0.210	1.104
-57.276	412.016	0.864	1.809
-56.261	-200.000	90.668	524.674
-55.246	579.574	1388.263	3352.610
-54.232	183.347	2630.634	3833.500
-53.217	113.498	2353.512	2818.063
-52.203	44.862	1959.008	1778.105
-51.188	38.737	1740.905	1532.396
-50.173	35.835	1695.597	1470.316
-49.159	51.273	1741.362	1629.862
-48.144	54.638	1759.214	1672.557
-47.130	38.345	1717.866	1508.849
-46.115	35.405	1702.976	1473.183
-45.100	35.259	1698.010	1467.710
-44.086	35.292	1694.521	1464.886
-43.071	35.271	1691.819	1462.334
-42.057	35.191	1690.025	1460.115
-41.042	35.251	1687.751	1458.549
-40.027	35.249	1686.057	1457.016
-39.013	35.268	1684.327	1455.605
-37.998	35.212	1683.213	1454.157
-36.984	35.277	1681.013	1452.692
-35.969	35.366	1679.862	1452.311
-34.954	35.389	1678.286	1451.070
-33.940	35.365	1676.400	1449.200
-32.925	35.422	1674.159	1447.634
-31.911	35.392	1672.662	1446.059
-30.896	35.419	1670.426	1444.267
-29.881	35.332	1669.198	1442.495
-28.867	35.393	1667.239	1441.206
-27.852	35.405	1666.165	1440.312
-26.838	35.304	1665.014	1438.499
-25.823	35.377	1663.388	1437.582
-24.809	35.377	1662.292	1436.583
-23.794	35.341	1661.006	1435.139
-22.779	35.420	1658.566	1433.568
-21.765	35.430	1656.896	1432.144
-20.750	35.357	1655.376	1430.223
-19.736	35.388	1654.108	1429.302
-18.721	35.433	1652.704	1428.369
-17.706	35.429	1650.739	1426.587
-16.692	35.423	1649.080	1425.049
-15.677	35.359	1648.220	1423.778
-14.663	35.423	1646.556	1422.753
-13.648	35.396	1645.219	1421.345
-12.633	35.509	1643.129	1420.316
-11.619	35.433	1641.632	1418.404
-10.604	35.428	1639.868	1416.790
-9.590	35.454	1639.341	1416.473
-8.575	35.414	1638.041	1414.995
-7.560	35.393	1635.964	1412.990
-6.546	35.342	1635.348	1412.026
-5.531	35.338	1634.405	1411.128
-4.517	35.363	1633.107	1410.137
-3.502	35.483	1631.968	1409.975
-2.487	35.499	1630.461	1408.733
-1.473	35.522	1619.341	1399.242
-0.458	33.133	1600.423	1365.608
0.556	31.098	1600.393	1334.004
1.571	28.570	1624.967	1335.989
2.586	27.512	1637.611	1338.492
3.600	23.595	1581.176	1264.407
4.615	13.721	1464.444	1105.463
5.629	5.651	1396.956	1002.930
6.644	4.367	1387.714	988.039
7.659	4.255	1386.070	986.065
8.673	4.175	1385.491	985.059
9.688	4.313	1383.471	984.411
10.702	4.248	1381.058	982.196
11.717	7.703	1388.510	1009.377
12.731	16.602	1404.186	1077.596
13.746	21.532	1411.754	1114.800
14.761	21.033	1408.981	1109.338
15.775	19.956	1407.057	1100.881
16.790	18.982	1404.058	1092.251
17.804	18.166	1401.936	1085.327
18.819	17.658	1400.780	1081.114
19.834	17.455	1399.496	1078.744
20.848	17.266	1398.361	1076.579
21.863	17.060	1396.480	1073.728
22.877	16.958	1395.411	1072.167
23.892	16.883	1394.731	1071.078
24.907	16.961	1394.112	1070.997
25.921	16.967	1392.866	1069.985
26.936	16.988	1391.873	1069.260
27.950	17.011	1390.591	1068.329
28.965	17.041	1390.045	1068.003
29.980	17.200	1388.869	1068.004
30.994	17.289	1387.869	1067.699
32.009	17.398	1386.451	1067.197
33.023	17.277	1385.355	1065.500
34.038	17.215	1384.075	1064.034
35.053	17.168	1382.495	1062.429
36.067	17.172	1381.467	1061.568
37.082	17.144	1380.608	1060.639
38.096	17.228	1379.850	1060.489
39.111	17.162	1379.330	1059.583
40.126	17.153	1377.685	1058.174
41.140	16.981	1376.417	1056.032
42.155	16.808	1376.169	1054.674
43.169	16.795	1376.308	1054.605
44.184	16.886	1375.732	1054.636
45.199	16.860	1375.314	1054.062
46.213	16.927	1374.994	1054.139
47.228	17.045	1374.536	1054.426
48.242	17.111	1373.055	1053.611
49.257	17.116	1371.412	1052.287
50.271	16.967	1370.128	1050.288
51.286	17.062	1369.086	1049.979
52.301	16.906	1367.925	1048.032
53.315	17.014	1366.304	1047.368
54.330	16.872	1365.664	1045.904
55.344	16.912	1363.901	1044.708
56.359	16.894	1362.787	1043.655
57.374	16.802	1362.289	1042.614
58.388	16.783	1361.227	1041.590
59.403	16.683	1360.678	1040.463
60.417	16.799	1359.751	1040.377
61.432	16.718	1359.280	1039.429
62.447	16.686	1358.109	1038.243
63.461	16.698	1356.454	1036.961
64.476	16.620	1355.613	1035.750
65.490	16.582	1354.621	1034.666
66.505	16.637	1352.831	1033.544
67.520	16.732	1351.802	1033.247
68.534	16.645	1350.737	1031.808
69.549	16.741	1349.548	1031.394
70.563	16.699	1348.500	1030.247
71.578	16.584	1347.480	1028.675
72.593	16.471	1346.552	1027.187
73.607	16.516	1345.637	1026.673
74.622	16.526	1344.940	1026.114
75.636	16.591	1344.258	1025.896
76.651	16.551	1343.377	1024.887
77.666	16.417	1343.597	1024.155
78.680	16.483	1342.751	1023.820
79.695	16.577	1342.010	1023.732
80.709	16.734	1340.722	1023.608
81.724	16.771	1340.003	1023.193
82.739	16.760	1339.359	1022.546
83.753	16.914	1338.672	1022.855
84.768	16.978	1337.805	1022.491
85.782	17.235	1335.887	1022.483
86.797	17.060	1335.123	1020.753
87.812	17.009	1333.889	1019.414
88.826	16.965	1332.889	1018.297
89.841	17.020	1331.701	1017.624
90.855	17.154	1330.430	1017.367
91.870	17.136	1330.086	1016.905
92.884	17.123	1328.930	1015.858
93.899	17.051	1328.572	1015.059
94.914	17.166	1327.925	1015.162
95.928	17.279	1326.654	1014.775
96.943	17.184	1325.675	1013.373
97.957	17.018	1325.052	1011.818
98.972	17.156	1323.397	1011.286
99.987	17.085	1322.563	1010.138
101.001	17.132	1321.850	1009.780
102.016	17.155	1320.744	1008.982
103.030	17.052	1320.092	1007.785
104.045	17.070	1318.903	1006.893
105.060	17.039	1317.478	1005.535
106.074	16.941	1315.991	1003.728
107.089	16.791	1314.583	1001.682
108.103	16.728	1313.513	1000.406
109.118	16.667	1312.085	998.869
110.133	16.718	1310.679	998.010
111.147	16.656	1309.707	996.816
112.162	16.783	1308.136	996.282
113.176	16.867	1306.921	995.759
114.191	16.895	1306.383	995.423
115.206	16.844	1305.126	994.083
116.220	16.881	1303.685	993.115
117.235	16.917	1302.250	992.141
118.249	16.750	1301.948	990.848
119.264	16.848	1300.451	990.196
120.279	16.761	1299.370	988.773
121.293	16.660	1298.341	987.314
122.308	16.722	1297.093	986.638
123.322	16.534	1296.655	985.125
124.337	16.604	1295.260	984.385
125.352	16.738	1293.735	983.919
126.366	16.654	1292.738	982.588
127.381	16.702	1291.874	982.118
128.395	16.611	1291.028	980.865
129.410	16.743	1290.063	980.806
130.424	16.648	1289.487	979.730
131.439	16.820	1288.034	979.536
132.454	16.865	1287.288	979.139
133.468	16.866	1287.065	978.888
134.483	16.861	1286.288	978.183
135.497	16.877	1284.824	977.077
136.512	16.861	1283.891	976.188
137.527	16.917	1281.973	974.966
138.541	16.926	1281.099	974.270
139.556	16.996	1279.708	973.523
140.570	16.966	1278.964	972.700
141.585	17.204	1277.426	972.806
142.600	17.243	1275.916	971.795
143.614	17.188	1275.891	971.376
144.629	17.276	1274.536	970.761
145.643	17.192	1273.720	969.572
146.658	17.085	1271.784	967.402
147.673	17.053	1270.593	966.227
148.687	16.917	1269.348	964.427
149.702	16.873	1268.001	963.065
150.716	16.912	1266.136	961.788
151.731	16.837	1265.555	960.836
152.746	16.841	1264.605	960.049
153.760	16.996	1263.222	959.794
154.775	16.986	1262.263	958.923
155.789	17.114	1261.085	958.667
156.804	17.205	1259.508	957.896
157.819	17.163	1258.905	957.115
158.833	17.226	1258.056	956.737
159.848	17.360	1257.245	956.793
160.862	17.220	1256.327	955.223
161.877	17.166	1254.855	953.713
162.892	16.913	1253.805	951.416
163.906	16.993	1252.689	950.928
164.921	16.953	1251.771	949.925
165.935	17.046	1250.737	949.576
166.950	17.156	1249.983	949.533
167.964	17.106	1249.474	948.786
168.979	17.125	1248.541	948.098
169.994	17.128	1247.958	947.590
171.008	17.108	1246.928	946.611
172.023	17.226	1246.440	946.816
173.037	17.315	1245.480	946.497
174.052	17.347	1244.316	945.705
175.067	17.088	1243.598	943.638
176.081	16.988	1242.516	942.181
177.096	16.981	1241.776	941.496
178.110	17.113	1240.107	940.876
179.125	17.222	1238.902	940.482
180.140	17.146	1238.099	939.371
181.154	17.195	1236.940	938.681
182.169	17.332	1235.837	938.514
183.183	17.394	1234.616	937.849
184.198	17.344	1233.590	936.712
185.213	17.407	1232.559	936.191
186.227	17.437	1231.423	935.411
187.242	17.424	1230.726	934.724
188.256	17.530	1229.554	934.333
189.271	17.489	1228.377	933.133
190.286	17.344	1227.486	931.579
191.300	17.092	1226.610	929.453
192.315	16.999	1225.518	928.033
193.329	17.111	1224.897	928.092
194.344	16.988	1224.754	927.233
195.359	17.153	1224.203	927.635
196.373	17.341	1223.614	928.133
197.388	17.420	1222.674	927.766
198.402	17.485	1222.940	928.243
199.417	17.703	1221.970	928.612
200.432	17.756	1221.110	928.163
201.446	17.691	1220.563	927.314
202.461	17.840	1219.443	927.185
203.475	17.751	1218.490	925.900
204.490	17.676	1217.025	924.294
205.504	17.665	1215.472	922.974
206.519	17.634	1214.440	921.941
207.534	17.509	1213.486	920.460
208.548	17.574	1212.430	919.930
209.563	17.487	1211.991	919.047
210.577	17.554	1210.924	918.518
211.592	17.704	1209.960	918.510
212.607	17.815	1208.873	918.205
213.621	17.676	1208.448	917.050
214.636	17.696	1207.282	916.192
215.650	17.708	1206.257	915.400
216.665	17.786	1205.428	915.106
217.680	17.858	1204.687	914.847
218.694	17.879	1203.825	914.227
219.709	17.972	1202.938	913.969
220.723	17.861	1202.688	913.103
221.738	17.846	1201.729	912.213
222.753	17.819	1200.761	911.254
223.767	17.826	1199.996	910.630
224.782	18.066	1199.121	911.169
225.796	18.041	1198.555	910.523
226.811	18.037	1197.993	909.993
227.826	17.921	1197.322	908.785
228.840	17.988	1196.307	908.294
229.855	17.849	1195.913	907.172
230.869	17.818	1195.091	906.306
231.884	17.824	1193.979	905.414
232.899	17.838	1193.039	904.696
233.913	17.751	1192.494	903.742
234.928	17.737	1191.818	903.076
235.942	17.746	1190.881	902.329
236.957	17.860	1190.196	902.336
237.972	17.816	1189.142	901.225
238.986	17.881	1188.592	901.071
240.001	17.848	1188.358	900.641
241.015	17.916	1187.169	900.018
242.030	17.842	1186.683	899.180
243.045	17.911	1185.788	898.784
244.059	17.922	1184.952	898.132
245.074	17.909	1183.966	897.236
246.088	18.147	1183.278	897.885
247.103	18.150	1182.670	897.360
248.117	18.231	1181.776	897.027
249.132	18.253	1181.207	896.627
250.147	18.483	1180.481	897.204
251.161	18.500	1179.980	896.834
252.176	18.539	1179.039	896.242
253.190	18.487	1178.749	895.669
254.205	18.553	1178.247	895.552
255.220	18.611	1177.574	895.268
256.234	18.603	1176.972	894.689
257.249	18.680	1175.461	893.860
258.263	18.504	1175.817	893.137
259.278	18.538	1174.842	892.492
260.293	18.578	1174.325	892.226
261.307	18.705	1173.081	891.864
262.322	18.665	1172.974	891.499
263.336	18.768	1172.028	891.235
264.351	18.715	1171.768	890.679
265.366	18.743	1170.872	890.066
266.380	18.653	1170.446	889.198
267.395	18.651	1169.386	888.301
268.409	18.696	1168.509	887.791
269.424	18.676	1167.760	887.038
270.439	18.710	1167.140	886.668
271.453	18.710	1166.394	886.022
272.468	18.681	1165.207	884.891
273.482	18.524	1164.525	883.488
274.497	18.635	1164.364	883.860
275.512	18.668	1163.504	883.297
276.526	18.606	1162.878	882.426
277.541	18.564	1162.088	881.530
278.555	18.606	1161.380	881.131
279.570	18.802	1160.672	881.521
280.585	18.903	1159.781	881.284
281.599	18.821	1159.000	880.195
282.614	18.803	1157.744	879.073
283.628	18.757	1156.747	878.003
284.643	18.705	1156.010	877.098
285.657	18.783	1154.740	876.452
286.672	18.849	1153.634	875.877
287.687	18.943	1152.759	875.613
288.701	18.895	1152.408	875.023
289.716	18.855	1151.350	873.938
290.730	18.905	1150.782	873.686
291.745	18.840	1150.215	872.844
292.760	18.927	1149.958	873.014
293.774	19.040	1149.345	873.048
294.789	19.064	1148.459	872.419
295.803	19.088	1147.522	871.752
296.818	18.944	1146.959	870.519
297.833	18.960	1146.032	869.819
298.847	18.995	1145.083	869.198
299.862	18.942	1144.607	868.490
300.876	19.050	1143.965	868.474
301.891	18.991	1143.242	867.549
302.906	19.066	1142.421	867.228
303.920	19.207	1141.703	867.316
304.935	19.220	1141.808	867.385
305.949	19.426	1140.490	867.340
306.964	19.397	1140.044	866.779
307.979	19.227	1139.363	865.331
308.993	19.264	1138.124	864.501
310.008	19.286	1137.512	864.066
311.022	19.350	1136.961	863.893
312.037	19.215	1136.132	862.511
313.052	19.149	1135.147	861.358
314.066	19.237	1133.561	860.520
315.081	19.078	1132.948	859.180
316.095	19.071	1132.217	858.517
317.110	19.165	1131.362	858.263
318.125	19.135	1130.733	857.559
319.139	19.117	1129.951	856.801
320.154	19.077	1129.511	856.192
321.168	19.064	1129.223	855.835
322.183	19.103	1128.851	855.671
323.197	19.202	1127.936	855.392
324.212	19.206	1127.354	854.894
325.227	19.183	1126.563	854.108
326.241	19.261	1125.440	853.566
327.256	19.295	1124.681	853.081
328.270	19.136	1124.002	851.706
329.285	19.200	1123.245	851.372
330.300	19.295	1122.100	850.900
331.314	19.284	1121.297	850.158
332.329	19.252	1120.253	849.137
333.343	19.231	1119.611	848.468
334.358	19.351	1118.818	848.384
335.373	19.492	1118.327	848.628
336.387	19.469	1117.350	847.700
337.402	19.536	1116.746	847.498
338.416	19.510	1116.059	846.773
339.431	19.576	1115.622	846.689
340.446	19.624	1114.904	846.307
341.460	19.814	1114.067	846.522
342.475	19.801	1113.148	845.687
343.489	19.703	1112.650	844.754
344.504	19.814	1111.158	844.090
345.519	19.705	1110.922	843.305
346.533	19.801	1109.597	842.693
347.548	19.957	1109.165	843.050
348.562	19.892	1108.250	841.963
349.577	19.803	1107.221	840.675
350.592	19.724	1105.982	839.275
351.606	19.579	1105.897	838.434
352.621	19.552	1105.249	837.737
353.635	19.617	1104.082	837.090
354.650	19.635	1103.751	836.855
355.665	19.725	1102.829	836.515
356.679	19.674	1102.342	835.827
357.694	19.803	1101.669	835.868
358.708	19.830	1101.121	835.506
359.723	19.794	1100.514	834.799
360.738	19.841	1099.673	834.312
361.752	19.891	1098.839	833.850
362.767	19.920	1098.336	833.529
363.781	19.940	1097.932	833.246
364.796	19.971	1097.487	832.985
365.810	20.059	1096.962	832.936
366.825	20.058	1096.596	832.580
367.840	20.212	1095.960	832.761
368.854	20.199	1095.414	832.211
369.869	20.179	1094.781	831.563
370.883	20.185	1093.402	830.469
371.898	20.129	1092.961	829.791
372.913	19.992	1092.250	828.522
373.927	20.085	1091.378	828.234
374.942	20.350	1090.540	828.790
375.956	20.208	1090.304	827.861
376.971	20.108	1090.304	827.311
377.986	20.153	1089.665	826.963
379.000	20.353	1089.154	827.459
380.015	20.334	1089.029	827.199
381.029	20.435	1088.186	826.967
382.044	20.406	1087.245	826.040
383.059	20.450	1086.077	825.289
384.073	20.253	1085.935	824.173
385.088	20.308	1084.880	823.559
386.102	20.342	1083.923	822.920
387.117	20.348	1082.707	821.951
388.132	20.215	1081.560	820.381
389.146	20.226	1081.111	820.018
390.161	20.301	1080.015	819.471
391.175	20.366	1079.154	819.051
392.190	20.425	1078.563	818.807
393.205	20.463	1077.995	818.484
394.219	20.472	1077.124	817.790
395.234	20.433	1076.164	816.807
396.248	20.331	1075.134	815.473
397.263	20.257	1074.099	814.270
398.278	20.273	1073.576	813.876
399.292	20.139	1072.848	812.622
400.307	20.206	1071.845	812.105
401.321	20.261	1071.043	811.685
402.336	20.210	1070.699	811.114
403.350	20.202	1070.063	810.523
404.365	20.295	1069.328	810.326
405.380	20.339	1068.692	809.980
406.394	20.378	1067.954	809.530
407.409	20.546	1067.227	809.692
408.423	20.641	1066.714	809.673
409.438	20.731	1065.997	809.473
410.453	20.674	1065.499	808.760
411.467	20.718	1064.374	808.038
412.482	20.559	1064.335	807.199
413.496	20.859	1063.254	807.702
414.511	20.818	1062.466	806.838
415.526	20.947	1061.987	807.003
416.540	21.013	1061.741	807.049
417.555	20.975	1061.169	806.366
418.569	21.008	1060.582	806.003
419.584	20.969	1059.837	805.182
420.599	20.906	1059.825	804.814
421.613	151.044	1401.521	1785.905
422.628	138.807	1451.306	1786.030
