DTS Sentinel unit serial number:	SN413079Multiplexer serial number:	ORYXHardware model number:	OX4-SRSoftware version number:	ORYX F/W v4.00 Oryx Data Collector v3.7.2.0data status	okinstallation	princeton_trtdifferential loss correction	single-endedforward channel	channel 2reverse channel	N/Adate	2019/09/18time	14:15:35forward acquisition time	60.00reverse acquisition time	0.00gamma	496.2192k internal	0.2318k external	0.2318temperature offset calibration	1.0002default loss term (dB/km)	0.3790temperature slope calibration	1.0000multiplexer offset coefficient	1.0000multiplexer slope coefficient	1.0000fibre end	0.00T internal ref (°C)	34.31T ext. ref 1 (°C)	0.67T ext. ref 2 (°C)	29.16length (m)	temperature (°C)	Stokes	anti-Stokes-747.200	-200.000	0.015	-0.149
-746.185	-200.000	-0.059	-0.386
-745.171	353.016	0.032	0.063
-744.156	372.818	0.083	0.171
-743.142	-144.279	0.377	0.036
-742.127	-103.374	0.051	-0.012
-741.112	-200.000	-0.024	0.189
-740.098	800.000	0.147	0.587
-739.083	-3.659	0.081	0.057
-738.069	800.000	-0.054	0.163
-737.054	800.000	-0.061	-0.252
-736.039	-155.802	-0.040	0.003
-735.025	-134.535	0.284	0.035
-734.010	653.563	-0.157	-0.407
-732.996	-200.000	-0.022	0.264
-731.981	-88.763	-0.255	-0.077
-730.966	7.491	-0.148	0.112
-729.952	27.485	-0.139	0.118
-728.937	22.185	-0.117	0.096
-727.923	78.272	-0.065	0.070
-726.908	-200.000	0.000	-0.054
-725.894	214.645	0.153	0.246
-724.879	-84.515	-0.125	-0.040
-723.864	-125.473	-0.388	-0.060
-722.850	587.567	0.111	0.275
-721.835	199.189	0.138	-0.214
-720.821	-200.000	-0.079	-0.366
-719.806	-10.323	0.211	-0.141
-718.791	-70.139	-0.147	0.057
-717.777	-111.467	-0.262	-0.054
-716.762	722.825	-0.042	0.113
-715.748	129.407	0.183	-0.236
-714.733	-83.034	-0.204	-0.066
-713.718	216.110	-0.139	-0.224
-712.704	-200.000	-0.019	0.287
-711.689	91.541	0.170	-0.193
-710.675	59.644	-0.087	-0.087
-709.660	-83.686	0.209	0.067
-708.645	800.000	0.061	-0.232
-707.631	-200.000	0.051	-0.395
-706.616	23.357	-0.158	-0.131
-705.602	-64.109	0.330	-0.136
-704.587	25.777	0.168	-0.141
-703.572	-12.946	0.188	0.123
-702.558	301.215	0.092	-0.172
-701.543	800.000	-0.102	-0.289
-700.529	-77.528	-0.093	0.033
-699.514	-200.000	-0.008	-0.233
-698.499	117.707	0.165	-0.205
-697.485	-102.674	0.261	-0.063
-696.470	187.849	-0.231	0.348
-695.456	-75.059	-0.193	-0.070
-694.441	125.989	0.234	0.299
-693.426	92.167	0.001	0.001
-692.412	-102.451	0.219	0.053
-691.397	-46.430	-0.195	-0.097
-690.383	-200.000	0.007	-0.068
-689.368	159.361	-0.065	0.091
-688.354	563.099	0.024	0.058
-687.339	-138.711	-0.348	-0.038
-686.324	800.000	-0.049	-0.191
-685.310	274.906	-0.209	-0.373
-684.295	35.166	-0.248	-0.220
-683.281	-200.000	0.003	0.082
-682.266	-200.000	-0.073	-0.329
-681.251	-149.288	0.024	0.002
-680.237	-200.000	-0.034	0.391
-679.222	57.593	0.111	-0.109
-678.208	-22.104	-0.331	-0.203
-677.193	-200.000	0.024	0.197
-676.178	-82.489	-0.204	-0.067
-675.164	-156.175	0.275	-0.017
-674.149	-29.396	0.095	0.055
-673.135	-59.941	-0.023	0.010
-672.120	121.853	0.140	0.177
-671.105	-132.494	0.069	-0.009
-670.091	-200.000	-0.060	-0.333
-669.076	-200.000	-0.007	-0.054
-668.062	-127.146	-0.246	0.036
-667.047	-34.738	-0.164	0.091
-666.032	-5.165	-0.233	-0.162
-665.018	-200.000	0.010	-0.059
-664.003	-200.000	-0.029	-0.185
-662.989	285.031	0.069	0.126
-661.974	-13.120	0.171	-0.112
-660.959	-140.544	-0.135	0.014
-659.945	-200.000	0.006	0.093
-658.930	-200.000	-0.074	-0.338
-657.916	-200.000	-0.025	0.368
-656.901	64.907	-0.207	-0.211
-655.886	800.000	-0.112	-0.396
-654.872	-200.000	0.031	0.218
-653.857	-101.893	-0.353	-0.086
-652.843	540.746	0.131	-0.315
-651.828	-62.531	-0.185	-0.078
-650.814	-148.158	-0.635	-0.053
-649.799	-10.383	-0.179	-0.120
-648.784	800.000	0.086	-0.264
-647.770	98.221	-0.069	-0.080
-646.755	-78.760	-0.170	0.058
-645.741	-17.836	-0.198	0.125
-644.726	-200.000	0.000	-0.174
-643.711	-200.000	-0.037	0.311
-642.697	-200.000	0.002	-0.070
-641.682	800.000	-0.017	-0.049
-640.668	-87.058	0.426	-0.131
-639.653	-126.082	0.481	0.073
-638.638	-81.648	-0.070	0.023
-637.624	-152.240	-0.081	0.006
-636.609	-200.000	-0.004	0.234
-635.595	40.892	0.056	-0.051
-634.580	-128.784	-0.240	-0.034
-633.565	800.000	0.037	-0.137
-632.551	228.328	-0.144	-0.237
-631.536	-200.000	0.009	0.082
-630.522	-84.748	-0.351	-0.111
-629.507	-73.033	0.289	-0.107
-628.492	48.778	-0.206	-0.195
-627.478	88.233	0.295	-0.330
-626.463	-103.895	0.156	-0.037
-625.449	-9.221	-0.371	-0.250
-624.434	100.318	-0.157	-0.183
-623.419	-31.947	-0.298	0.168
-622.405	293.839	-0.011	-0.020
-621.390	-100.111	0.260	0.065
-620.376	-200.000	0.036	0.311
-619.361	213.501	-0.252	-0.401
-618.346	-62.139	0.432	-0.182
-617.332	800.000	0.080	-0.259
-616.317	234.401	0.004	-0.006
-615.303	-48.448	0.103	-0.050
-614.288	-200.000	0.013	-0.060
-613.273	-200.000	-0.002	-0.188
-612.259	-13.248	0.091	0.059
-611.244	84.606	-0.197	-0.217
-610.230	-100.219	0.362	0.091
-609.215	-112.259	-0.298	0.060
-608.201	334.157	0.146	-0.284
-607.186	64.178	-0.264	-0.268
-606.171	81.874	-0.148	0.162
-605.157	-200.000	0.016	0.300
-604.142	308.955	0.179	0.336
-603.128	-89.019	-0.225	0.067
-602.113	336.906	-0.100	0.195
-601.098	15.763	-0.171	0.135
-600.084	140.141	0.071	-0.094
-599.069	538.253	0.064	0.153
-598.055	-79.597	0.162	-0.055
-597.040	115.089	-0.080	-0.098
-596.025	-0.030	-0.183	0.131
-595.011	-65.824	-0.158	-0.064
-593.996	580.339	0.085	-0.209
-592.982	198.668	0.124	-0.191
-591.967	199.390	0.085	-0.130
-590.952	-2.495	-0.178	-0.125
-589.938	-200.000	-0.000	-0.018
-588.923	-83.530	-0.102	-0.033
-587.909	800.000	0.078	0.311
-586.894	161.501	0.142	-0.200
-585.879	330.438	-0.158	0.306
-584.865	-93.574	-0.212	0.059
-583.850	48.746	0.080	0.075
-582.836	800.000	0.033	-0.114
-581.821	-51.353	0.393	0.185
-580.806	108.844	0.255	0.306
-579.792	259.066	0.094	0.164
-578.777	236.834	0.188	0.312
-577.763	-200.000	-0.007	-0.316
-576.748	-125.271	-0.353	0.054
-575.733	-122.412	-0.248	-0.041
-574.719	-200.000	0.007	0.121
-573.704	800.000	0.023	-0.083
-572.690	800.000	0.034	-0.114
-571.675	54.242	0.093	0.090
-570.661	646.196	0.092	-0.236
-569.646	-159.871	-0.324	0.018
-568.631	16.225	-0.247	0.196
-567.617	430.897	-0.111	0.241
-566.602	-69.033	-0.107	0.042
-565.588	-105.841	-0.204	-0.046
-564.573	800.000	0.102	-0.341
-563.558	-57.330	-0.052	-0.023
-562.544	-34.682	-0.115	0.063
-561.529	-200.000	0.024	0.144
-560.515	-79.096	-0.260	0.089
-559.500	69.291	0.099	0.103
-558.485	80.961	0.136	-0.147
-557.471	-200.000	0.007	0.088
-556.456	-16.121	0.222	-0.142
-555.442	297.764	-0.054	0.100
-554.427	-14.009	0.115	-0.075
-553.412	294.808	-0.103	0.190
-552.398	169.235	0.068	0.097
-551.383	-12.741	0.169	-0.111
-550.369	-99.848	-0.121	0.030
-549.354	-11.122	-0.246	0.163
-548.339	49.072	0.210	-0.198
-547.325	306.267	-0.170	-0.318
-546.310	-198.190	0.153	-0.001
-545.296	333.376	-0.036	0.070
-544.281	-11.683	0.173	-0.114
-543.266	-200.000	-0.002	-0.097
-542.252	-200.000	0.000	-0.292
-541.237	30.453	0.167	-0.144
-540.223	545.261	-0.082	-0.197
-539.208	-88.237	-0.072	-0.022
-538.193	800.000	0.044	-0.178
-537.179	-200.000	-0.024	-0.284
-536.164	473.846	-0.072	0.162
-535.150	-169.694	-0.209	0.008
-534.135	65.772	-0.061	0.062
-533.121	24.757	-0.153	0.127
-532.106	800.000	-0.146	0.513
-531.091	800.000	-0.092	-0.385
-530.077	57.841	-0.139	0.136
-529.062	-200.000	0.043	0.286
-528.048	51.283	-0.028	0.027
-527.033	611.423	-0.109	0.274
-526.018	-37.765	0.096	-0.051
-525.004	69.821	-0.103	0.107
-523.989	215.806	0.284	-0.453
-522.975	84.512	0.147	-0.162
-521.960	710.761	0.076	0.203
-520.945	-200.000	0.061	0.289
-519.931	-111.808	0.094	-0.019
-518.916	-57.972	0.094	0.041
-517.902	115.861	-0.135	-0.165
-516.887	-113.330	-0.126	-0.025
-515.872	-63.749	0.218	0.089
-514.858	-64.645	-0.394	0.160
-513.843	41.757	0.178	0.162
-512.829	-200.000	-0.009	0.256
-511.814	386.119	0.169	-0.350
-510.799	-46.803	0.477	0.234
-509.785	245.575	-0.156	0.264
-508.770	-200.000	-0.034	-0.302
-507.756	-181.933	-0.163	0.003
-506.741	144.671	0.204	-0.274
-505.726	219.877	0.080	0.129
-504.712	800.000	0.078	0.220
-503.697	800.000	-0.085	0.263
-502.683	101.002	-0.058	-0.067
-501.668	225.350	0.027	-0.044
-500.653	-74.444	0.058	0.021
-499.639	139.076	-0.136	0.180
-498.624	16.673	-0.134	-0.106
-497.610	-167.184	-0.055	-0.002
-496.595	-200.000	-0.004	-0.025
-495.581	587.569	0.085	-0.211
-494.566	-200.000	0.108	-0.000
-493.551	800.000	-0.047	-0.142
-492.537	74.126	-0.121	-0.128
-491.522	-170.982	0.208	0.007
-490.508	-26.106	0.062	0.037
-489.493	-119.093	-0.201	-0.035
-488.478	-200.000	0.038	-0.187
-487.464	-200.000	-0.025	-0.498
-486.449	-9.078	-0.141	-0.094
-485.435	-39.034	0.117	0.062
-484.420	-200.000	0.047	0.465
-483.405	-69.647	0.197	0.076
-482.391	434.652	0.081	-0.177
-481.376	800.000	-0.087	-0.323
-480.362	-200.000	0.031	-0.241
-479.347	-99.751	-0.225	-0.057
-478.332	800.000	0.079	-0.231
-477.318	109.976	0.171	0.205
-476.303	93.918	0.183	0.208
-475.289	16.528	0.193	0.153
-474.274	11.689	-0.251	-0.193
-473.259	-200.000	-0.047	-0.334
-472.245	-137.222	0.391	0.045
-471.230	-200.000	-0.030	0.178
-470.216	800.000	-0.026	-0.104
-469.201	31.066	-0.146	0.125
-468.186	-200.000	-0.385	0.000
-467.172	-200.000	0.051	0.242
-466.157	800.000	0.026	-0.088
-465.143	-60.179	0.338	0.144
-464.128	-127.242	-0.060	0.009
-463.113	247.731	-0.007	0.012
-462.099	109.870	0.065	-0.078
-461.084	-66.417	0.104	-0.041
-460.070	-159.751	-0.225	-0.012
-459.055	561.291	-0.138	0.335
-458.040	-200.000	-0.026	0.219
-457.026	-91.885	0.031	0.009
-456.011	-200.000	-0.038	0.271
-454.997	-42.020	0.210	0.107
-453.982	-23.736	-0.239	0.143
-452.968	442.810	-0.127	0.278
-451.953	-24.737	-0.220	-0.131
-450.938	-200.000	-0.009	-0.053
-449.924	13.886	0.076	-0.059
-448.909	25.846	0.224	0.187
-447.895	409.801	-0.021	0.044
-446.880	-200.000	0.009	-0.075
-445.865	321.508	0.132	-0.251
-444.851	800.000	-0.072	0.216
-443.836	800.000	-0.055	-0.155
-442.822	-81.478	-0.289	-0.095
-441.807	-17.101	0.226	-0.143
-440.792	-8.597	-0.123	0.083
-439.778	1.224	-0.152	0.109
-438.763	398.741	-0.028	-0.058
-437.749	-133.762	0.077	0.010
-436.734	-112.770	0.195	0.039
-435.719	138.883	-0.126	-0.166
-434.705	-60.602	0.143	-0.061
-433.690	-89.559	-0.203	0.060
-432.676	209.369	0.060	-0.094
-431.661	77.492	0.115	0.122
-430.646	-37.277	-0.270	0.144
-429.632	-200.000	0.039	0.214
-428.617	264.711	0.065	-0.113
-427.603	90.576	0.165	-0.185
-426.588	-200.000	0.076	-0.390
-425.573	-24.866	0.091	0.054
-424.559	-48.809	-0.249	0.120
-423.544	800.000	-0.044	-0.180
-422.530	-42.027	-0.155	-0.080
-421.515	-20.187	-0.290	-0.178
-420.500	223.985	0.246	0.396
-419.486	178.261	0.203	-0.296
-418.471	800.000	-0.101	-0.310
-417.457	-131.252	0.154	-0.020
-416.442	-200.000	-0.009	0.307
-415.428	130.192	-0.085	-0.108
-414.413	645.635	-0.081	0.208
-413.398	800.000	0.023	-0.093
-412.384	-200.000	-0.005	-0.261
-411.369	-143.890	0.319	-0.030
-410.355	800.000	-0.097	-0.291
-409.340	223.684	-0.108	-0.174
-408.325	334.850	-0.047	0.092
-407.311	-200.000	0.002	-0.092
-406.296	-200.000	0.013	0.087
-405.282	-28.325	-0.170	0.098
-404.267	-36.035	0.287	0.155
-403.252	-125.542	0.199	0.030
-402.238	84.661	-0.266	0.291
-401.223	31.971	-0.270	0.232
-400.209	-0.117	-0.128	-0.091
-399.194	28.875	-0.045	-0.038
-398.179	411.041	0.153	0.323
-397.165	-200.000	0.010	-0.098
-396.150	25.923	0.193	-0.161
-395.136	-50.568	-0.313	0.147
-394.121	-68.562	0.047	-0.018
-393.106	35.404	-0.143	0.126
-392.092	-115.675	-0.045	-0.008
-391.077	-101.783	0.320	-0.077
-390.063	-200.000	0.007	0.072
-389.048	-200.000	0.026	-0.180
-388.033	107.635	-0.133	-0.158
-387.019	68.713	0.215	-0.220
-386.004	-99.438	0.266	-0.067
-384.990	30.732	-0.010	-0.008
-383.975	-72.438	-0.120	-0.044
-382.960	-38.776	-0.057	-0.030
-381.946	-62.806	0.073	0.030
-380.931	-93.601	0.357	-0.098
-379.917	89.325	-0.218	-0.242
-378.902	196.041	-0.196	0.297
-377.888	22.756	-0.050	-0.041
-376.873	291.800	0.062	0.113
-375.858	118.992	0.124	-0.153
-374.844	-200.000	-0.000	-0.207
-373.829	-200.000	0.003	0.170
-372.815	-21.600	-0.218	0.132
-371.800	370.207	-0.081	-0.164
-370.785	-200.000	0.046	0.310
-369.771	-200.000	-0.062	-0.346
-368.756	163.091	0.195	-0.273
-367.742	-200.000	0.064	0.307
-366.727	-129.918	-0.163	-0.022
-365.712	-32.173	-0.247	0.138
-364.698	800.000	-0.015	-0.046
-363.683	277.522	0.098	0.173
-362.669	-200.000	0.082	0.445
-361.654	576.859	-0.080	-0.194
-360.639	800.000	-0.018	0.057
-359.625	-66.521	-0.151	0.060
-358.610	134.541	0.238	0.308
-357.596	-39.689	-0.119	-0.062
-356.581	317.004	0.064	0.121
-355.566	-65.823	0.199	-0.079
-354.552	316.353	-0.122	-0.229
-353.537	21.994	0.183	0.148
-352.523	-27.767	-0.178	-0.103
-351.508	353.278	0.174	0.345
-350.493	50.255	-0.149	0.141
-349.479	752.386	-0.136	0.367
-348.464	-200.000	-0.024	-0.223
-347.450	-74.447	0.275	0.099
-346.435	-26.322	-0.080	-0.047
-345.420	-122.656	0.212	-0.034
-344.406	494.630	0.092	-0.209
-343.391	-93.766	-0.149	-0.041
-342.377	184.078	0.163	-0.240
-341.362	-70.345	0.245	0.093
-340.348	93.428	0.126	-0.142
-339.333	458.399	-0.035	0.077
-338.318	-100.332	-0.144	0.036
-337.304	302.240	0.112	0.207
-336.289	-144.532	-0.199	-0.018
-335.275	-200.000	-0.052	-0.316
-334.260	-200.000	0.056	0.271
-333.245	322.180	-0.098	-0.186
-332.231	-151.134	-0.435	0.033
-331.216	64.633	0.175	-0.176
-330.202	-200.000	-0.040	-0.271
-329.187	-200.000	-0.044	-0.312
-328.172	-145.675	-0.286	0.025
-327.158	568.743	0.146	-0.352
-326.143	24.145	0.200	-0.164
-325.129	-87.077	-0.171	-0.052
-324.114	76.029	-0.199	-0.210
-323.099	-156.150	-0.454	0.028
-322.085	-200.000	0.001	-0.138
-321.070	800.000	0.040	-0.164
-320.056	463.287	-0.027	-0.059
-319.041	-51.650	-0.231	-0.107
-318.026	-109.005	0.333	0.071
-317.012	463.527	0.034	-0.075
-315.997	-200.000	0.014	0.301
-314.983	-47.337	-0.090	0.044
-313.968	800.000	0.041	-0.117
-312.953	800.000	-0.041	0.133
-311.939	112.529	0.044	-0.052
-310.924	-135.501	0.412	-0.049
-309.910	-90.838	0.261	-0.075
-308.895	-198.124	0.074	0.000
-307.880	-81.299	0.322	-0.106
-306.866	800.000	-0.001	-0.003
-305.851	230.070	-0.035	0.056
-304.837	14.802	0.338	0.263
-303.822	-50.119	-0.028	-0.013
-302.807	489.390	-0.162	-0.368
-301.793	450.041	0.029	-0.064
-300.778	-108.713	-0.421	0.090
-299.764	110.892	0.213	0.256
-298.749	-165.575	-0.312	-0.014
-297.735	-19.057	-0.092	0.057
-296.720	-83.863	0.499	0.158
-295.705	25.661	-0.117	0.097
-294.691	-200.000	-0.041	0.198
-293.676	-63.966	-0.371	0.151
-292.662	-8.746	-0.020	0.013
-291.647	-200.000	0.058	-0.324
-290.632	-73.911	0.217	-0.078
-289.618	-200.000	-0.079	0.411
-288.603	-200.000	0.027	0.205
-287.589	800.000	-0.140	-0.439
-286.574	-129.848	-0.262	0.036
-285.559	-153.374	0.061	0.004
-284.545	796.515	-0.033	-0.089
-283.530	28.565	0.131	0.110
-282.516	-200.000	0.044	-0.339
-281.501	-110.645	-0.337	-0.069
-280.486	661.626	0.091	0.234
-279.472	90.391	0.160	-0.178
-278.457	432.502	-0.042	-0.091
-277.443	-200.000	0.001	0.067
-276.428	689.297	0.108	0.282
-275.413	5.597	-0.086	-0.063
-274.399	25.678	0.178	-0.147
-273.384	-200.000	-0.035	0.157
-272.370	-84.427	-0.156	0.049
-271.355	-26.693	0.239	0.139
-270.340	-112.190	-0.236	0.047
-269.326	800.000	-0.073	-0.239
-268.311	260.381	0.116	0.199
-267.297	42.364	0.158	0.143
-266.282	81.353	-0.346	0.371
-265.267	106.794	-0.199	-0.235
-264.253	6.751	-0.054	0.040
-263.238	456.186	0.127	0.280
-262.224	-127.353	0.175	0.025
-261.209	-136.349	-0.134	0.015
-260.195	-139.569	-0.197	-0.021
-259.180	800.000	0.075	0.247
-258.165	710.945	0.112	0.295
-257.151	-5.303	-0.110	-0.075
-256.136	-0.636	-0.145	0.102
-255.122	-108.442	0.278	0.059
-254.107	693.440	-0.033	0.085
-253.092	-114.182	0.218	0.042
-252.078	433.962	-0.095	0.205
-251.063	-59.941	-0.277	0.118
-250.049	-200.000	0.085	0.372
-249.034	133.120	-0.045	0.057
-248.019	-12.874	-0.455	0.294
-247.005	746.168	-0.031	0.083
-245.990	760.130	0.079	0.212
-244.976	-48.793	-0.024	0.011
-243.961	754.486	0.093	0.249
-242.946	-45.257	0.208	0.102
-241.932	776.009	0.115	0.312
-240.917	800.000	-0.134	-0.397
-239.903	83.601	-0.185	-0.200
-238.888	53.433	0.095	-0.090
-237.873	398.525	0.052	0.107
-236.859	-70.823	0.141	-0.053
-235.844	800.000	0.026	-0.078
-234.830	609.336	-0.123	-0.304
-233.815	800.000	0.056	-0.174
-232.800	394.748	-0.162	0.335
-231.786	-132.149	-0.167	-0.022
-230.771	73.118	0.268	0.277
-229.757	800.000	0.121	-0.457
-228.742	115.653	-0.084	-0.102
-227.727	2.411	0.260	-0.187
-226.713	-30.841	0.133	0.075
-225.698	-100.348	0.247	-0.061
-224.684	166.565	0.034	-0.047
-223.669	-200.000	0.041	-0.268
-222.655	-97.822	0.277	-0.071
-221.640	-116.866	-0.097	-0.018
-220.625	53.757	-0.157	-0.149
-219.611	-200.000	0.040	0.353
-218.596	40.763	-0.062	-0.056
-217.582	365.352	-0.036	0.071
-216.567	45.688	0.074	-0.068
-215.552	-59.640	-0.092	-0.039
-214.538	474.674	0.073	0.162
-213.523	4.908	-0.163	0.119
-212.509	800.000	0.027	0.104
-211.494	-189.449	-0.153	0.002
-210.479	166.692	-0.077	-0.108
-209.465	98.444	-0.276	0.316
-208.450	-200.000	0.002	-0.072
-207.436	-40.523	-0.321	-0.165
-206.421	-200.000	0.065	0.295
-205.406	-200.000	-0.020	0.105
-204.392	800.000	-0.063	0.198
-203.377	121.968	-0.215	-0.265
-202.363	-11.935	0.110	-0.072
-201.348	1.915	0.242	0.173
-200.333	-200.000	0.011	0.060
-199.319	-92.309	-0.227	0.063
-198.304	-124.882	0.160	0.025
-197.290	-3.854	-0.179	-0.123
-196.275	384.100	0.071	-0.146
-195.260	-88.226	0.301	-0.089
-194.246	27.579	-0.388	0.324
-193.231	290.927	0.211	-0.381
-192.217	35.248	0.182	0.158
-191.202	-20.053	0.390	-0.238
-190.187	544.563	0.078	-0.184
-189.173	160.305	0.079	0.109
-188.158	-75.686	0.292	-0.102
-187.144	-151.787	0.253	-0.018
-186.129	-110.759	-0.266	-0.054
-185.114	296.372	0.092	-0.166
-184.100	-200.000	0.033	0.173
-183.085	188.518	0.179	-0.265
-182.071	-200.000	-0.016	-0.322
-181.056	-78.078	0.073	-0.025
-180.042	-200.000	0.047	0.225
-179.027	140.817	0.137	0.179
-178.012	-8.603	0.235	0.156
-176.998	151.965	0.179	0.241
-175.983	187.513	-0.171	0.252
-174.969	-200.000	0.045	-0.420
-173.954	53.087	0.183	-0.174
-172.939	8.658	-0.184	0.137
-171.925	19.527	0.151	0.120
-170.910	-116.350	0.331	-0.061
-169.896	252.819	0.087	0.146
-168.881	101.171	0.167	0.192
-167.866	-78.195	0.212	0.072
-166.852	-13.578	-0.318	0.204
-165.837	-38.639	-0.166	-0.087
-164.823	536.851	0.091	-0.213
-163.808	-196.635	-0.017	-0.000
-162.793	-200.000	-0.020	-0.168
-161.779	644.473	-0.010	-0.025
-160.764	-42.056	0.130	-0.066
-159.750	-92.682	-0.383	0.106
-158.735	-82.291	0.270	0.087
-157.720	136.185	-0.184	0.237
-156.706	800.000	0.049	-0.169
-155.691	75.529	-0.029	-0.030
-154.677	460.815	-0.080	0.177
-153.662	17.316	0.056	-0.044
-152.647	-189.953	-0.266	0.003
-151.633	52.367	0.060	-0.057
-150.618	286.835	0.169	0.303
-149.604	-84.378	0.079	0.025
-148.589	119.049	0.234	0.286
-147.574	-69.008	-0.299	-0.114
-146.560	-174.426	0.141	-0.004
-145.545	-200.000	-0.005	0.066
-144.531	37.275	-0.084	0.073
-143.516	147.760	0.206	0.275
-142.502	23.355	-0.199	0.162
-141.487	-132.666	0.058	-0.007
-140.472	-200.000	0.029	0.284
-139.458	-100.569	0.018	-0.004
-138.443	-200.000	0.083	0.468
-137.429	13.485	0.411	0.315
-136.414	208.351	-0.085	0.131
-135.399	13.910	0.242	-0.186
-134.385	800.000	0.152	-0.446
-133.370	62.225	-0.063	0.062
-132.356	-110.210	-0.372	0.077
-131.341	211.837	-0.115	-0.178
-130.326	800.000	-0.030	0.126
-129.312	-81.544	-0.154	0.050
-128.297	-200.000	-0.024	0.194
-127.283	51.748	0.205	-0.192
-126.268	-143.565	0.193	-0.018
-125.253	527.350	0.139	0.324
-124.239	800.000	-0.048	0.187
-123.224	-37.420	-0.020	0.010
-122.210	-83.819	-0.211	0.066
-121.195	-54.935	0.303	-0.135
-120.180	-113.635	-0.197	-0.038
-119.166	-121.953	-0.283	0.046
-118.151	34.884	0.050	0.044
-117.137	276.111	-0.170	-0.298
-116.122	-13.350	-0.222	-0.142
-115.107	239.312	-0.109	0.179
-114.093	-200.000	-0.023	0.134
-113.078	800.000	-0.112	0.309
-112.064	581.140	-0.044	0.106
-111.049	800.000	-0.069	0.273
-110.034	-60.450	-0.409	-0.172
-109.020	800.000	0.083	0.299
-108.005	-28.887	0.096	-0.054
-106.991	-64.406	-0.122	0.049
-105.976	35.067	-0.211	0.183
-104.962	800.000	-0.073	0.216
-103.947	-200.000	-0.024	-0.156
-102.932	-167.487	0.255	-0.010
-101.918	800.000	-0.065	-0.262
-100.903	800.000	0.102	0.299
-99.889	177.899	0.133	-0.192
-98.874	-200.000	0.013	-0.357
-97.859	-16.411	0.430	0.269
-96.845	36.293	0.081	0.071
-95.830	-123.560	-0.270	-0.042
-94.816	800.000	0.072	-0.259
-93.801	-154.312	0.089	0.006
-92.786	-107.453	0.275	0.060
-91.772	2.047	0.087	-0.062
-90.757	-68.415	0.056	0.021
-89.743	800.000	-0.192	0.548
-88.728	209.621	-0.142	0.220
-87.713	-200.000	0.035	0.195
-86.699	-67.055	-0.233	0.091
-85.684	248.451	0.071	-0.119
-84.670	-200.000	0.006	0.082
-83.655	800.000	0.035	-0.118
-82.640	-39.873	0.232	0.120
-81.626	366.085	0.065	-0.130
-80.611	9.507	0.213	-0.159
-79.597	-35.144	-0.260	0.140
-78.582	142.044	-0.057	-0.075
-77.567	109.012	0.060	0.071
-76.553	-71.000	-0.348	0.129
-75.538	800.000	-0.042	-0.135
-74.524	-53.988	-0.184	0.083
-73.509	213.065	-0.146	0.227
-72.494	96.079	0.236	0.266
-71.480	107.045	0.157	0.184
-70.465	20.681	0.116	-0.093
-69.451	84.058	-0.260	-0.280
-68.436	-100.692	0.170	-0.041
-67.422	313.579	-0.176	0.326
-66.407	800.000	0.067	-0.229
-65.392	-200.000	-0.035	-0.330
-64.378	178.286	0.066	-0.095
-63.363	22.574	-0.119	0.096
-62.349	-200.000	0.019	-0.251
-61.334	109.571	-0.770	-0.909
-60.319	106.231	0.243	0.283
-59.305	800.000	-0.361	-1.278
-58.290	122.716	0.585	0.721
-57.276	469.431	0.668	1.478
-56.261	-200.000	95.647	548.341
-55.246	502.963	1419.570	3232.906
-54.232	146.224	2645.691	3497.489
-53.217	104.201	2340.931	2712.451
-52.203	43.457	1949.899	1755.487
-51.188	37.518	1736.678	1517.311
-50.173	34.778	1692.580	1457.860
-49.159	50.465	1738.887	1619.364
-48.144	53.339	1756.236	1657.686
-47.130	37.104	1714.394	1494.419
-46.115	34.462	1698.956	1460.696
-45.100	34.228	1694.438	1454.967
-44.086	34.171	1691.400	1451.866
-43.071	34.235	1688.880	1450.131
-42.057	34.196	1686.438	1447.684
-41.042	34.160	1684.389	1445.595
-40.027	34.226	1682.531	1444.444
-39.013	34.124	1680.907	1442.220
-37.998	34.235	1678.689	1441.094
-36.984	34.222	1677.607	1440.014
-35.969	34.295	1675.883	1439.030
-34.954	34.360	1674.116	1437.940
-33.940	34.300	1672.052	1435.665
-32.925	34.364	1670.656	1434.885
-31.911	34.275	1668.860	1432.615
-30.896	34.215	1667.218	1430.703
-29.881	34.337	1665.080	1429.728
-28.867	34.296	1663.511	1428.013
-27.852	34.422	1661.462	1427.143
-26.838	34.301	1660.413	1425.278
-25.823	34.297	1659.608	1424.501
-24.809	34.335	1657.861	1423.233
-23.794	34.396	1656.274	1422.266
-22.779	34.350	1654.729	1420.539
-21.765	34.274	1653.461	1418.832
-20.750	34.236	1651.969	1417.206
-19.736	34.394	1650.056	1416.684
-18.721	34.303	1648.842	1414.908
-17.706	34.367	1646.957	1413.713
-16.692	34.291	1645.623	1411.945
-15.677	34.281	1644.027	1410.446
-14.663	34.386	1642.151	1409.557
-13.648	34.446	1640.813	1408.797
-12.633	34.308	1639.580	1406.666
-11.619	34.350	1638.250	1405.780
-10.604	34.417	1636.281	1404.528
-9.590	34.435	1634.885	1403.406
-8.575	34.357	1634.027	1402.041
-7.560	34.339	1632.638	1400.663
-6.546	34.269	1632.139	1399.663
-5.531	34.290	1630.486	1398.340
-4.517	34.325	1629.207	1397.450
-3.502	34.373	1628.067	1396.764
-2.487	34.377	1626.515	1395.406
-1.473	34.166	1614.478	1383.495
-0.458	31.080	1593.923	1343.632
0.556	25.413	1592.189	1302.966
1.571	22.341	1614.622	1298.570
2.586	21.316	1627.057	1300.835
3.600	19.151	1574.010	1242.700
4.615	10.888	1460.807	1097.655
5.629	2.626	1392.161	992.642
6.644	0.787	1383.837	974.773
7.659	0.738	1381.545	972.760
8.673	0.591	1380.652	971.100
9.688	0.554	1379.166	969.730
10.702	0.436	1376.310	966.878
11.717	4.167	1381.638	994.509
12.731	12.558	1395.534	1058.622
13.746	17.441	1401.543	1094.569
14.761	17.405	1400.231	1093.214
15.775	16.653	1398.035	1086.581
16.790	15.636	1395.216	1077.773
17.804	14.879	1392.902	1071.044
18.819	14.393	1391.921	1067.083
19.834	14.073	1390.423	1063.790
20.848	13.939	1389.022	1061.771
21.863	13.683	1387.821	1059.124
22.877	13.395	1386.956	1056.531
23.892	13.365	1385.941	1055.469
24.907	13.374	1384.804	1054.572
25.921	13.355	1383.802	1053.593
26.936	13.473	1382.859	1053.530
27.950	13.569	1382.212	1053.554
28.965	13.457	1381.334	1052.082
29.980	13.612	1380.009	1051.965
30.994	13.648	1379.598	1051.786
32.009	13.546	1378.598	1050.285
33.023	13.682	1377.282	1050.046
34.038	13.645	1375.575	1048.419
35.053	13.647	1374.274	1047.349
36.067	13.568	1373.380	1046.080
37.082	13.533	1372.514	1045.102
38.096	13.575	1371.757	1044.699
39.111	13.622	1370.755	1044.141
40.126	13.583	1369.809	1043.079
41.140	13.481	1369.433	1042.060
42.155	13.449	1368.675	1041.190
43.169	13.413	1368.393	1040.655
44.184	13.376	1368.672	1040.544
45.199	13.450	1367.949	1040.368
46.213	13.482	1367.441	1040.091
47.228	13.572	1366.105	1039.548
48.242	13.549	1365.064	1038.516
49.257	13.495	1363.702	1037.052
50.271	13.534	1362.263	1036.108
51.286	13.544	1361.007	1035.125
52.301	13.548	1359.552	1033.956
53.315	13.570	1358.487	1033.192
54.330	13.455	1357.665	1031.754
55.344	13.517	1356.157	1030.903
56.359	13.505	1354.944	1029.817
57.374	13.529	1354.821	1029.780
58.388	13.376	1353.693	1027.880
59.403	13.419	1352.773	1027.357
60.417	13.422	1351.931	1026.647
61.432	13.474	1351.158	1026.295
62.447	13.314	1350.626	1024.807
63.461	13.295	1349.056	1023.403
64.476	13.395	1347.949	1023.092
65.490	13.432	1346.607	1022.212
66.505	13.406	1345.178	1020.878
67.520	13.448	1343.992	1020.144
68.534	13.425	1342.890	1019.079
69.549	13.342	1342.134	1017.901
70.563	13.427	1340.571	1017.150
71.578	13.318	1339.756	1015.773
72.593	13.365	1338.712	1015.180
73.607	13.206	1337.951	1013.537
74.622	13.252	1337.194	1013.158
75.636	13.242	1336.482	1012.468
76.651	13.311	1335.855	1012.321
77.666	13.265	1335.186	1011.445
78.680	13.309	1334.469	1011.082
79.695	13.303	1333.499	1010.219
80.709	13.403	1332.805	1010.214
81.724	13.319	1332.275	1009.213
82.739	13.433	1330.751	1008.666
83.753	13.497	1329.529	1008.037
84.768	13.566	1328.657	1007.708
85.782	13.541	1327.514	1006.600
86.797	13.550	1326.002	1005.421
87.812	13.476	1324.931	1004.069
88.826	13.382	1324.355	1002.976
89.841	13.431	1323.133	1002.258
90.855	13.474	1322.005	1001.570
91.870	13.536	1321.274	1001.308
92.884	13.542	1320.448	1000.625
93.899	13.528	1319.179	999.490
94.914	13.625	1318.709	999.636
95.928	13.666	1317.761	999.071
96.943	13.631	1316.767	998.019
97.957	13.607	1316.074	997.259
98.972	13.562	1315.332	996.340
99.987	13.647	1313.765	995.575
101.001	13.512	1313.166	994.225
102.016	13.577	1311.910	993.578
103.030	13.626	1310.879	992.999
104.045	13.597	1310.299	992.302
105.060	13.540	1308.962	990.858
106.074	13.448	1307.680	989.253
107.089	13.494	1306.414	988.482
108.103	13.380	1305.511	987.031
109.118	13.507	1303.661	986.301
110.133	13.357	1303.039	984.850
111.147	13.433	1301.414	983.984
112.162	13.542	1299.824	983.345
113.176	13.529	1298.738	982.357
114.191	13.492	1298.165	981.616
115.206	13.617	1296.650	981.124
116.220	13.496	1296.112	979.916
117.235	13.444	1294.423	978.246
118.249	13.484	1293.224	977.491
119.264	13.515	1292.182	976.796
120.279	13.458	1291.155	975.598
121.293	13.433	1290.569	974.923
122.308	13.480	1289.380	974.215
123.322	13.475	1288.084	973.118
124.337	13.479	1287.162	972.360
125.352	13.410	1285.870	970.896
126.366	13.482	1285.010	970.582
127.381	13.408	1284.120	969.390
128.395	13.419	1282.873	968.424
129.410	13.570	1281.655	968.300
130.424	13.536	1281.212	967.687
131.439	13.547	1280.094	966.821
132.454	13.527	1278.618	965.502
133.468	13.525	1278.309	965.169
134.483	13.609	1277.406	964.891
135.497	13.597	1276.391	963.968
136.512	13.448	1275.398	962.272
137.527	13.439	1273.939	961.032
138.541	13.598	1271.741	960.209
139.556	13.580	1270.885	959.378
140.570	13.545	1269.990	958.410
141.585	13.605	1268.645	957.659
142.600	13.671	1267.458	957.060
143.614	13.670	1266.892	956.544
144.629	13.723	1265.612	955.796
145.643	13.658	1264.401	954.425
146.658	13.710	1263.243	953.764
147.673	13.590	1261.944	952.009
148.687	13.644	1260.534	951.171
149.702	13.644	1259.083	949.994
150.716	13.597	1257.781	948.653
151.731	13.531	1257.019	947.617
152.746	13.668	1255.727	947.345
153.760	13.739	1254.370	946.642
154.775	13.668	1253.591	945.567
155.789	13.785	1252.325	945.195
156.804	13.768	1251.306	944.245
157.819	13.765	1250.043	943.190
158.833	13.799	1249.280	942.724
159.848	13.769	1248.696	942.028
160.862	13.764	1247.646	941.124
161.877	13.668	1246.346	939.516
162.892	13.660	1245.730	938.927
163.906	13.689	1244.507	938.085
164.921	13.775	1243.457	937.695
165.935	13.758	1242.472	936.773
166.950	13.799	1241.966	936.542
167.964	13.876	1240.888	936.079
168.979	13.780	1240.339	935.044
169.994	13.776	1239.588	934.369
171.008	13.796	1239.042	933.987
172.023	13.903	1238.178	933.855
173.037	13.838	1237.547	932.932
174.052	13.875	1236.411	932.202
175.067	13.890	1235.048	931.175
176.081	13.901	1234.357	930.631
177.096	13.904	1232.833	929.418
178.110	13.834	1232.409	928.625
179.125	13.811	1231.269	927.558
180.140	13.984	1229.618	927.194
181.154	13.888	1228.568	925.786
182.169	14.017	1227.208	925.401
183.183	13.960	1226.331	924.335
184.198	14.047	1224.699	923.508
185.213	13.960	1223.606	922.120
186.227	14.102	1222.758	922.187
187.242	14.082	1221.882	921.337
188.256	14.200	1220.752	921.055
189.271	14.096	1219.930	919.779
190.286	14.068	1218.831	918.713
191.300	13.898	1218.050	917.105
192.315	13.910	1217.483	916.661
193.329	14.036	1216.516	916.545
194.344	14.067	1215.866	916.149
195.359	14.027	1215.495	915.564
196.373	14.009	1215.261	915.209
197.388	14.196	1213.980	915.194
198.402	14.249	1213.879	915.330
199.417	14.320	1212.781	914.809
200.432	14.279	1212.244	914.098
201.446	14.388	1211.531	914.079
202.461	14.254	1210.523	912.499
203.475	14.256	1209.428	911.606
204.490	14.314	1208.325	911.012
205.504	14.339	1206.582	909.754
206.519	14.277	1205.632	908.621
207.534	14.279	1204.870	907.972
208.548	14.342	1204.131	907.681
209.563	14.443	1203.039	907.327
210.577	14.383	1201.786	905.977
211.592	14.435	1200.964	905.558
212.607	14.447	1200.254	905.005
213.621	14.427	1199.450	904.214
214.636	14.480	1198.908	904.011
215.650	14.554	1197.858	903.543
216.665	14.517	1196.576	902.291
217.680	14.550	1195.733	901.758
218.694	14.614	1195.095	901.540
219.709	14.574	1194.320	900.660
220.723	14.586	1193.521	900.043
221.738	14.545	1192.701	899.123
222.753	14.558	1192.255	898.780
223.767	14.498	1191.489	897.797
224.782	14.703	1190.378	897.987
225.796	14.622	1190.095	897.258
226.811	14.611	1189.189	896.435
227.826	14.590	1188.495	895.719
228.840	14.571	1187.882	895.077
229.855	14.710	1186.718	894.867
230.869	14.623	1186.070	893.829
231.884	14.588	1185.457	893.102
232.899	14.637	1184.682	892.703
233.913	14.632	1183.482	891.691
234.928	14.680	1183.324	891.748
235.942	14.546	1182.464	890.310
236.957	14.565	1181.612	889.686
237.972	14.621	1181.305	889.678
238.986	14.651	1180.556	889.193
240.001	14.645	1180.058	888.709
241.015	14.630	1178.913	887.688
242.030	14.846	1177.315	887.553
243.045	14.729	1177.116	886.703
244.059	14.783	1176.231	886.245
245.074	14.804	1175.215	885.512
246.088	14.894	1174.296	885.218
247.103	14.787	1173.890	884.266
248.117	14.900	1172.740	883.921
249.132	14.896	1172.428	883.585
250.147	14.979	1171.657	883.367
251.161	14.972	1170.821	882.618
252.176	15.059	1169.804	882.235
253.190	15.148	1168.897	881.942
254.205	15.094	1168.611	881.363
255.220	15.129	1168.256	881.199
256.234	15.167	1167.505	880.756
257.249	15.130	1167.151	880.215
258.263	15.066	1166.299	879.161
259.278	15.135	1165.557	878.884
260.293	15.120	1165.215	878.472
261.307	15.173	1164.460	878.101
262.322	15.182	1164.028	877.747
263.336	15.226	1163.358	877.394
264.351	15.277	1162.843	877.196
265.366	15.267	1161.823	876.292
266.380	15.360	1160.950	876.045
267.395	15.262	1160.053	874.778
268.409	15.227	1159.883	874.389
269.424	15.263	1159.040	873.862
270.439	15.281	1158.651	873.586
271.453	15.279	1157.783	872.844
272.468	15.244	1157.063	872.045
273.482	15.224	1156.442	871.396
274.497	15.328	1155.538	871.174
275.512	15.407	1154.477	870.707
276.526	15.291	1153.987	869.660
277.541	15.396	1153.170	869.512
278.555	15.375	1152.543	868.852
279.570	15.436	1151.613	868.393
280.585	15.502	1150.637	867.918
281.599	15.469	1149.806	867.047
282.614	15.435	1148.879	866.097
283.628	15.534	1147.807	865.718
284.643	15.490	1146.889	864.727
285.657	15.402	1146.366	863.803
286.672	15.509	1145.256	863.436
287.687	15.615	1144.160	863.078
288.701	15.649	1143.601	862.756
289.716	15.582	1142.825	861.749
290.730	15.603	1142.125	861.255
291.745	15.672	1141.626	861.154
292.760	15.637	1141.121	860.519
293.774	15.779	1140.185	860.465
294.789	15.682	1139.388	859.291
295.803	15.705	1138.491	858.656
296.818	15.748	1137.884	858.340
297.833	15.827	1136.880	857.912
298.847	15.618	1136.712	856.643
299.862	15.737	1135.710	856.419
300.876	15.678	1135.290	855.726
301.891	15.750	1134.305	855.274
302.906	15.844	1133.185	854.830
303.920	15.854	1132.735	854.467
304.935	15.859	1132.645	854.347
305.949	15.988	1131.710	854.221
306.964	15.941	1131.000	853.371
307.979	16.009	1129.817	852.749
308.993	15.935	1129.184	851.822
310.008	15.937	1128.638	851.345
311.022	15.934	1128.146	850.879
312.037	16.070	1126.923	850.569
313.052	16.054	1125.373	849.244
314.066	15.965	1124.977	848.421
315.081	15.971	1124.283	847.853
316.095	15.852	1123.627	846.684
317.110	16.007	1122.600	846.616
318.125	16.064	1121.629	846.094
319.139	16.066	1121.028	845.574
320.154	15.992	1120.583	844.792
321.168	15.936	1120.019	844.012
322.183	16.018	1119.617	844.045
323.197	16.041	1118.630	843.341
324.212	16.042	1118.078	842.858
325.227	15.931	1118.109	842.250
326.241	16.099	1117.076	842.236
327.256	16.086	1115.940	841.244
328.270	15.982	1115.472	840.295
329.285	16.011	1114.639	839.739
330.300	16.055	1113.193	838.796
331.314	16.083	1112.214	838.123
332.329	16.075	1111.567	837.518
333.343	16.048	1110.946	836.842
334.358	16.227	1109.249	836.378
335.373	16.264	1109.202	836.454
336.387	16.314	1108.090	835.787
337.402	16.205	1107.774	834.936
338.416	16.345	1106.921	834.913
339.431	16.304	1106.024	833.957
340.446	16.437	1105.141	833.873
341.460	16.566	1104.628	834.049
342.475	16.432	1103.877	832.750
343.489	16.415	1102.961	831.902
344.504	16.473	1102.518	831.778
345.519	16.419	1101.606	830.750
346.533	16.581	1100.453	830.602
347.548	16.454	1100.105	829.643
348.562	16.428	1099.572	829.040
349.577	16.541	1098.316	828.576
350.592	16.558	1097.497	827.965
351.606	16.473	1097.126	827.197
352.621	16.484	1096.189	826.472
353.635	16.387	1095.766	825.608
354.650	16.466	1095.007	825.347
355.665	16.459	1094.527	824.879
356.679	16.424	1093.716	824.022
357.694	16.596	1093.105	824.329
358.708	16.633	1092.256	823.792
359.723	16.577	1091.673	823.008
360.738	16.606	1091.063	822.619
361.752	16.582	1090.630	822.103
362.767	16.699	1089.774	821.950
363.781	16.645	1089.174	821.163
364.796	16.651	1089.056	821.033
365.810	16.776	1088.164	820.894
366.825	16.750	1087.587	820.258
367.840	16.693	1087.237	819.644
368.854	16.735	1086.509	819.229
369.869	16.735	1085.991	818.767
370.883	16.892	1084.469	818.304
371.898	16.791	1083.966	817.364
372.913	16.780	1083.664	817.010
373.927	16.752	1083.256	816.496
374.942	16.758	1082.478	815.867
375.956	16.860	1081.902	815.853
376.971	16.880	1081.436	815.523
377.986	16.875	1080.797	814.944
379.000	17.010	1079.920	814.861
380.015	16.992	1079.504	814.389
381.029	16.999	1078.803	813.820
382.044	17.047	1078.123	813.467
383.059	17.028	1077.380	812.741
384.073	17.124	1076.547	812.499
385.088	17.240	1075.279	812.026
386.102	17.082	1074.746	810.798
387.117	17.095	1073.731	810.024
388.132	16.961	1073.163	808.883
389.146	17.052	1072.193	808.515
390.161	17.019	1071.406	807.691
391.175	17.045	1070.888	807.354
392.190	17.126	1070.232	807.174
393.205	17.123	1069.318	806.397
394.219	17.149	1068.623	805.924
395.234	17.109	1067.552	804.855
396.248	17.126	1066.996	804.445
397.263	17.175	1065.519	803.495
398.278	17.047	1065.259	802.620
399.292	17.153	1064.386	802.394
400.307	17.155	1063.516	801.678
401.321	17.193	1062.577	801.076
402.336	17.194	1062.193	800.721
403.350	17.188	1061.390	800.015
404.365	17.348	1060.854	800.294
405.380	17.324	1059.825	799.335
406.394	17.307	1059.380	798.848
407.409	17.269	1058.502	797.940
408.423	17.334	1057.961	797.762
409.438	17.386	1056.998	797.210
410.453	17.452	1056.418	797.012
411.467	17.523	1055.844	796.840
412.482	17.597	1054.832	796.351
413.496	17.443	1054.519	795.327
414.511	17.567	1053.523	795.084
415.526	17.574	1053.305	794.883
416.540	17.620	1053.038	794.822
417.555	17.607	1052.255	794.100
418.569	17.583	1052.029	793.750
419.584	17.773	1051.073	793.841
420.599	17.656	1050.644	792.901
421.613	100.122	1317.562	1449.502
422.628	92.172	1356.438	1449.589
