DTS Sentinel unit serial number:	SN413079Multiplexer serial number:	ORYXHardware model number:	OX4-SRSoftware version number:	ORYX F/W v4.00 Oryx Data Collector v3.7.2.0data status	okinstallation	princeton_trtdifferential loss correction	single-endedforward channel	channel 2reverse channel	N/Adate	2019/09/17time	13:03:34forward acquisition time	60.00reverse acquisition time	0.00gamma	496.2192k internal	0.2318k external	0.2318temperature offset calibration	0.9983default loss term (dB/km)	0.3790temperature slope calibration	1.0000multiplexer offset coefficient	1.0000multiplexer slope coefficient	1.0000fibre end	0.00T internal ref (°C)	33.48T ext. ref 1 (°C)	0.41T ext. ref 2 (°C)	31.52length (m)	temperature (°C)	Stokes	anti-Stokes-747.200	357.559	0.202	0.408
-746.185	800.000	0.052	0.193
-745.171	5.614	0.307	0.229
-744.156	-200.000	0.017	0.949
-743.142	110.476	-0.121	0.147
-742.127	-3.600	-0.246	0.173
-741.112	37.048	0.364	0.326
-740.098	112.540	-0.309	-0.378
-739.083	-200.000	-0.009	-0.102
-738.069	117.522	-0.132	-0.165
-737.054	-65.971	0.228	-0.092
-736.039	800.000	0.035	-0.134
-735.025	-108.555	-0.176	0.038
-734.010	-164.942	-0.379	-0.017
-732.996	-101.029	-0.160	-0.040
-731.981	800.000	0.155	0.523
-730.966	20.189	-0.395	-0.322
-729.952	68.394	-0.290	-0.300
-728.937	-200.000	0.004	-0.241
-727.923	-96.303	-0.098	-0.026
-726.908	-200.000	-0.048	0.267
-725.894	182.611	0.185	-0.275
-724.879	-139.734	-0.302	0.032
-723.864	-200.000	0.076	-0.344
-722.850	-102.221	-0.060	-0.015
-721.835	-175.600	0.301	-0.008
-720.821	-141.752	-0.479	0.049
-719.806	-91.472	0.223	0.064
-718.791	800.000	-0.026	0.072
-717.777	279.404	0.115	-0.208
-716.762	6.360	-0.417	0.313
-715.748	555.702	0.037	-0.090
-714.733	-12.653	-0.353	-0.233
-713.718	-10.774	-0.052	0.035
-712.704	-41.615	-0.206	0.107
-711.689	-184.895	-0.079	-0.001
-710.675	459.907	0.178	-0.401
-709.660	360.473	-0.105	-0.212
-708.645	413.471	-0.105	-0.227
-707.631	-6.234	-0.099	-0.068
-706.616	-49.793	-0.328	0.158
-705.602	625.907	-0.072	0.185
-704.587	-134.163	0.128	0.016
-703.572	158.688	0.078	-0.109
-702.558	-200.000	0.021	0.182
-701.543	-32.949	-0.138	-0.077
-700.529	-162.229	-0.368	-0.019
-699.514	272.528	0.035	-0.062
-698.499	-200.000	-0.008	0.051
-697.485	-200.000	-0.001	0.227
-696.470	-104.096	0.420	0.099
-695.456	-157.145	-0.383	-0.024
-694.441	7.686	0.168	0.127
-693.426	10.331	0.301	0.232
-692.412	117.782	-0.202	-0.251
-691.397	562.343	-0.061	-0.149
-690.383	-74.280	-0.381	-0.139
-689.368	51.301	0.067	-0.064
-688.354	-81.362	-0.069	-0.023
-687.339	61.682	0.122	0.123
-686.324	-200.000	-0.010	-0.162
-685.310	-62.598	-0.105	-0.044
-684.295	-200.000	0.004	-0.128
-683.281	800.000	-0.035	-0.139
-682.266	424.076	0.052	0.114
-681.251	181.264	-0.136	-0.201
-680.237	99.554	-0.252	-0.295
-679.222	-200.000	-0.008	0.292
-678.208	-197.668	-0.274	-0.002
-677.193	800.000	0.101	-0.415
-676.178	-110.142	-0.183	0.038
-675.164	-40.652	-0.093	0.048
-674.149	-200.000	0.074	0.346
-673.135	-74.484	0.075	-0.027
-672.120	102.901	-0.070	-0.082
-671.105	-91.495	0.240	0.069
-670.091	-63.118	-0.052	0.022
-669.076	92.619	0.101	0.115
-668.062	-102.112	-0.056	0.014
-667.047	-107.272	0.211	-0.047
-666.032	-45.724	0.329	-0.164
-665.018	173.897	-0.070	0.102
-664.003	-89.306	-0.282	0.084
-662.989	77.170	-0.108	0.116
-661.974	227.744	0.128	0.211
-660.959	9.016	0.272	-0.207
-659.945	-200.000	-0.010	0.049
-658.930	255.975	0.140	-0.242
-657.916	84.331	-0.126	0.139
-656.901	77.880	-0.116	-0.124
-655.886	-27.445	-0.153	-0.090
-654.872	92.374	-0.318	0.361
-653.857	334.154	-0.115	0.225
-652.843	-32.129	-0.129	0.073
-651.828	57.706	-0.154	0.152
-650.814	-200.000	-0.002	-0.116
-649.799	-165.321	-0.122	0.005
-648.784	-200.000	-0.007	0.157
-647.770	-98.067	0.241	-0.063
-646.755	-100.046	-0.085	0.021
-645.741	-200.000	0.023	-0.230
-644.726	-131.236	0.018	0.002
-643.711	-129.730	-0.143	0.020
-642.697	-200.000	0.034	0.246
-641.682	253.770	-0.046	-0.079
-640.668	742.508	0.034	-0.091
-639.653	-104.257	-0.229	-0.054
-638.638	191.865	0.137	0.208
-637.624	-200.000	0.026	-0.222
-636.609	34.902	0.157	-0.138
-635.595	800.000	-0.040	-0.114
-634.580	-142.494	-0.348	-0.034
-633.565	88.324	-0.098	0.110
-632.551	-103.841	0.147	0.035
-631.536	800.000	0.056	0.182
-630.522	54.563	0.194	-0.189
-629.507	-30.547	-0.225	0.128
-628.492	-71.054	0.088	-0.033
-627.478	-60.033	0.361	0.155
-626.463	800.000	0.074	0.230
-625.449	800.000	0.098	0.334
-624.434	66.975	-0.083	0.085
-623.419	104.755	-0.304	-0.361
-622.405	-48.448	-0.148	0.072
-621.390	157.765	0.172	-0.239
-620.376	-59.655	-0.328	-0.142
-619.361	-200.000	-0.001	0.431
-618.346	-190.466	-0.170	-0.002
-617.332	67.185	0.113	-0.116
-616.317	247.569	-0.095	-0.162
-615.303	35.328	-0.214	0.189
-614.288	-200.000	0.037	-0.364
-613.273	-200.000	-0.021	-0.139
-612.259	190.806	0.141	-0.213
-611.244	800.000	-0.087	0.312
-610.230	800.000	-0.034	0.147
-609.215	-181.493	-0.139	-0.003
-608.201	-66.280	-0.116	0.046
-607.186	3.921	0.134	-0.099
-606.171	-200.000	0.020	0.117
-605.157	-156.033	0.066	-0.004
-604.142	-200.000	-0.030	-0.252
-603.128	33.917	-0.153	-0.134
-602.113	-132.554	0.192	0.025
-601.098	-176.632	-0.124	0.003
-600.084	374.460	0.073	-0.149
-599.069	-200.000	0.047	0.275
-598.055	-200.000	0.003	-0.074
-597.040	-61.867	-0.258	-0.108
-596.025	17.481	0.195	-0.156
-595.011	-200.000	-0.044	0.430
-593.996	-200.000	0.015	0.143
-592.982	-112.878	0.248	0.049
-591.967	53.868	0.136	0.132
-590.952	64.986	0.125	0.127
-589.938	44.834	-0.207	-0.191
-588.923	28.685	-0.110	0.094
-587.909	-53.846	0.131	0.060
-586.894	15.259	-0.196	0.155
-585.879	108.096	-0.021	-0.025
-584.865	45.159	-0.306	-0.284
-583.850	-11.183	-0.136	-0.090
-582.836	-200.000	0.022	-0.300
-581.821	-133.527	0.341	0.043
-580.806	-200.000	-0.038	-0.203
-579.792	-183.927	0.101	-0.002
-578.777	-56.858	0.168	-0.075
-577.763	800.000	0.041	-0.156
-576.748	800.000	0.035	0.117
-575.733	-58.697	-0.283	-0.123
-574.719	-200.000	0.089	-0.406
-573.704	-131.778	0.282	-0.037
-572.690	55.445	0.201	-0.196
-571.675	356.300	0.011	0.022
-570.661	90.899	-0.214	0.242
-569.646	-81.047	0.218	0.072
-568.631	-174.791	-0.149	0.004
-567.617	-43.695	-0.126	-0.064
-566.602	676.932	0.044	0.115
-565.588	-200.000	-0.021	0.202
-564.573	-91.822	0.434	-0.124
-563.558	-96.803	-0.374	-0.099
-562.544	-200.000	0.001	-0.093
-561.529	33.418	0.101	0.088
-560.515	800.000	-0.049	0.137
-559.500	-83.960	0.158	0.050
-558.485	114.528	-0.176	-0.216
-557.471	-7.604	-0.189	0.128
-556.456	800.000	-0.084	0.238
-555.442	42.017	0.067	-0.061
-554.427	-20.861	0.278	-0.171
-553.412	214.054	0.145	0.231
-552.398	800.000	-0.063	-0.240
-551.383	79.879	-0.169	0.183
-550.369	-70.285	0.178	-0.068
-549.354	77.048	0.244	0.260
-548.339	800.000	-0.051	-0.181
-547.325	-142.206	0.171	-0.017
-546.310	-132.100	0.173	0.023
-545.296	-200.000	0.016	0.439
-544.281	145.538	0.149	0.201
-543.266	218.265	-0.059	-0.094
-542.252	-130.537	-0.076	-0.010
-541.237	184.256	0.144	0.214
-540.223	-16.997	0.248	-0.157
-539.208	-200.000	-0.043	-0.300
-538.193	267.921	0.097	-0.170
-537.179	-39.906	-0.305	0.160
-536.164	116.121	-0.051	-0.062
-535.150	36.301	-0.204	-0.181
-534.135	-113.587	0.062	-0.012
-533.121	-112.548	-0.121	-0.024
-532.106	-159.594	0.233	-0.013
-531.091	-55.086	0.105	-0.047
-530.077	-135.483	0.226	-0.027
-529.062	800.000	-0.052	0.157
-528.048	67.042	0.272	0.278
-527.033	652.630	0.047	-0.121
-526.018	-200.000	0.020	-0.165
-525.004	-60.673	-0.097	0.041
-523.989	67.845	-0.203	0.209
-522.975	164.512	0.303	0.428
-521.960	800.000	0.072	-0.208
-520.945	36.169	-0.166	-0.147
-519.931	153.002	-0.242	-0.332
-518.916	800.000	0.090	0.276
-517.902	-76.991	-0.109	-0.038
-516.887	-200.000	-0.177	-0.001
-515.872	14.719	-0.251	-0.197
-514.858	800.000	-0.081	-0.225
-513.843	434.824	-0.166	-0.363
-512.829	27.380	-0.168	-0.141
-511.814	44.873	-0.144	-0.133
-510.799	-134.753	0.076	-0.009
-509.785	-108.821	-0.054	-0.011
-508.770	-49.901	0.263	0.125
-507.756	634.673	0.049	-0.124
-506.741	800.000	-0.102	0.311
-505.726	-5.051	0.250	-0.173
-504.712	51.700	-0.132	0.126
-503.697	-100.413	0.289	-0.072
-502.683	32.350	0.266	-0.230
-501.668	28.772	-0.208	-0.177
-500.653	-31.546	-0.183	0.103
-499.639	462.391	0.034	-0.076
-498.624	-41.095	0.307	-0.159
-497.610	-35.846	-0.116	-0.063
-496.595	23.871	-0.206	-0.170
-495.581	32.295	0.184	-0.159
-494.566	-200.000	-0.010	-0.086
-493.551	-200.000	0.000	0.036
-492.537	-200.000	-0.035	-0.156
-491.522	8.808	-0.223	0.169
-490.508	-143.022	0.421	0.041
-489.493	-200.000	0.016	0.289
-488.478	-87.077	-0.237	0.072
-487.464	-200.000	0.078	0.412
-486.449	73.702	-0.079	-0.083
-485.435	-98.069	-0.073	-0.019
-484.420	785.980	-0.056	0.155
-483.405	-58.673	0.391	0.170
-482.391	-144.053	0.212	-0.020
-481.376	296.269	-0.100	0.184
-480.362	-49.070	-0.258	-0.124
-479.347	-170.667	0.683	-0.024
-478.332	-75.954	-0.292	0.104
-477.318	-95.914	-0.096	-0.026
-476.303	59.522	0.126	-0.124
-475.289	127.364	0.229	0.291
-474.274	66.761	-0.082	0.084
-473.259	-157.221	-0.114	0.007
-472.245	-9.989	0.267	-0.177
-471.230	800.000	-0.048	0.152
-470.216	-13.981	0.088	-0.057
-469.201	308.080	0.120	0.224
-468.186	117.329	-0.126	-0.155
-467.172	-84.226	-0.168	-0.053
-466.157	39.687	-0.043	0.038
-465.143	438.140	0.051	0.112
-464.128	304.504	-0.066	-0.123
-463.113	373.086	0.090	-0.183
-462.099	-200.000	0.003	-0.276
-461.084	-89.486	0.161	-0.048
-460.070	467.173	0.019	-0.043
-459.055	800.000	-0.060	0.238
-458.040	-200.000	-0.022	0.118
-457.026	-20.839	-0.415	0.255
-456.011	-20.463	0.236	0.145
-454.997	800.000	0.035	-0.116
-453.982	-200.000	0.038	-0.312
-452.968	-9.123	-0.169	-0.113
-451.953	273.022	0.152	-0.268
-450.938	-56.603	-0.197	0.087
-449.924	-80.711	-0.103	0.034
-448.909	48.979	0.124	-0.116
-447.895	-200.000	-0.033	-0.286
-446.880	120.583	0.031	0.039
-445.865	-200.000	-0.008	0.087
-444.851	-200.000	-0.002	-0.059
-443.836	-17.542	-0.179	0.112
-442.822	391.192	-0.123	-0.255
-441.807	2.731	0.255	-0.185
-440.792	347.946	0.117	-0.230
-439.778	-174.828	-0.308	-0.009
-438.763	-200.000	0.003	0.212
-437.749	-32.107	0.150	0.084
-436.734	-200.000	-0.036	-0.178
-435.719	-85.577	-0.127	-0.039
-434.705	-112.069	-0.028	-0.006
-433.690	-200.000	0.419	-0.001
-432.676	-49.512	0.062	0.030
-431.661	800.000	-0.097	-0.386
-430.646	-60.131	-0.158	-0.068
-429.632	-200.000	-0.006	0.038
-428.617	-127.022	-0.274	-0.040
-427.603	109.822	0.217	-0.260
-426.588	553.464	0.023	0.055
-425.573	31.739	-0.241	0.208
-424.559	241.196	0.097	0.162
-423.544	-44.628	0.128	0.064
-422.530	-34.503	-0.110	0.060
-421.515	-89.859	-0.107	0.031
-420.500	212.814	0.067	0.106
-419.486	315.124	0.131	0.247
-418.471	-121.688	0.105	-0.017
-417.457	-124.678	-0.281	-0.044
-416.442	59.244	0.079	-0.078
-415.428	-187.503	-0.217	0.003
-414.413	6.679	0.153	0.114
-413.398	-200.000	-0.040	0.245
-412.384	226.618	-0.118	0.192
-411.369	-200.000	-0.027	0.131
-410.355	-25.985	-0.442	-0.260
-409.340	277.287	-0.171	0.304
-408.325	-154.546	-0.159	0.011
-407.311	-74.193	-0.371	0.134
-406.296	176.250	0.282	-0.409
-405.282	-196.159	0.032	-0.000
-404.267	-50.959	0.271	-0.127
-403.252	206.723	0.104	0.162
-402.238	800.000	0.072	-0.201
-401.223	-71.898	-0.145	0.054
-400.209	-200.000	-0.008	-0.272
-399.194	25.829	0.138	-0.115
-398.179	205.797	0.058	-0.089
-397.165	14.581	0.165	0.128
-396.150	-33.741	-0.200	0.110
-395.136	-200.000	0.034	0.222
-394.121	-100.117	0.139	-0.034
-393.106	137.297	-0.166	-0.217
-392.092	47.089	0.061	0.057
-391.077	-200.000	0.002	0.064
-390.063	800.000	0.120	0.453
-389.048	800.000	0.080	-0.317
-388.033	-25.688	-0.497	0.293
-387.019	0.274	-0.079	-0.056
-386.004	-151.613	0.101	-0.007
-384.990	64.892	-0.191	-0.192
-383.975	-98.495	0.169	-0.043
-382.960	-200.000	0.012	-0.118
-381.946	46.084	-0.145	0.134
-380.931	254.273	-0.126	-0.215
-379.917	800.000	-0.071	0.247
-378.902	75.633	0.161	0.169
-377.888	-99.151	0.334	-0.084
-376.873	-15.482	-0.207	0.132
-375.858	100.212	0.164	-0.189
-374.844	123.191	0.184	0.229
-373.829	-200.000	-0.079	0.387
-372.815	800.000	-0.136	0.489
-371.800	-69.330	-0.115	-0.044
-370.785	-108.154	0.184	0.040
-369.771	800.000	-0.103	0.304
-368.756	-200.000	0.011	0.111
-367.742	219.109	-0.121	-0.192
-366.727	-100.581	0.147	0.036
-365.712	410.073	-0.113	-0.239
-364.698	800.000	0.011	-0.043
-363.683	-71.695	-0.341	-0.127
-362.669	69.771	0.113	0.117
-361.654	102.853	0.275	0.321
-360.639	-18.213	0.235	-0.146
-359.625	8.699	0.201	0.151
-358.610	-200.000	0.010	-0.081
-357.596	-200.000	0.087	-0.381
-356.581	371.699	0.090	-0.182
-355.566	-9.872	0.085	-0.057
-354.552	45.526	-0.103	0.095
-353.537	54.566	0.260	-0.249
-352.523	-69.595	-0.360	0.137
-351.508	-145.552	0.396	0.035
-350.493	-20.586	0.097	0.059
-349.479	-200.000	0.016	-0.170
-348.464	78.604	0.071	-0.076
-347.450	-124.537	0.289	0.045
-346.435	-169.157	0.251	-0.009
-345.420	-33.947	-0.107	-0.059
-344.406	189.347	0.092	-0.137
-343.391	183.682	-0.133	0.196
-342.377	-200.000	0.170	0.000
-341.362	-36.288	0.111	-0.060
-340.348	-135.761	-0.247	0.029
-339.333	-200.000	-0.029	0.292
-338.318	-7.485	-0.137	-0.092
-337.304	-200.000	-0.036	-0.255
-336.289	199.776	-0.116	0.177
-335.275	-200.000	-0.019	-0.137
-334.260	-80.909	0.204	-0.067
-333.245	-200.000	0.038	0.254
-332.231	52.601	0.108	-0.103
-331.216	-200.000	-0.001	-0.094
-330.202	91.672	0.231	0.258
-329.187	-142.755	0.308	-0.030
-328.172	-200.000	-0.051	0.244
-327.158	-122.587	-0.407	-0.066
-326.143	-110.869	-0.324	-0.066
-325.129	-200.000	-0.001	-0.004
-324.114	-13.051	0.256	-0.166
-323.099	-109.621	-0.097	-0.020
-322.085	-25.249	0.209	0.123
-321.070	-67.118	0.070	-0.027
-320.056	408.938	0.049	0.103
-319.041	-92.005	-0.228	0.064
-318.026	241.398	-0.132	-0.219
-317.012	-200.000	-0.047	0.205
-315.997	68.455	-0.078	0.079
-314.983	-93.927	-0.105	-0.029
-313.968	499.381	0.087	-0.200
-312.953	-82.355	0.363	0.117
-311.939	-156.100	0.131	-0.008
-310.924	147.497	-0.039	-0.052
-309.910	-126.209	-0.160	0.024
-308.895	275.852	0.093	-0.164
-307.880	-200.000	-0.019	-0.203
-306.866	-135.871	-0.074	0.009
-305.851	30.688	-0.106	0.090
-304.837	24.112	-0.303	-0.249
-303.822	-200.000	-0.015	-0.442
-302.807	-112.141	-0.055	0.011
-301.793	800.000	-0.086	0.305
-300.778	295.892	-0.168	0.306
-299.764	42.404	-0.089	-0.080
-298.749	1.543	0.084	-0.060
-297.735	-87.278	-0.464	0.140
-296.720	-101.106	0.103	0.025
-295.705	800.000	0.096	-0.288
-294.691	348.437	0.033	-0.065
-293.676	-104.483	0.170	0.039
-292.662	218.695	0.308	0.489
-291.647	-14.477	0.178	-0.114
-290.632	800.000	-0.032	0.114
-289.618	-200.000	-0.004	0.152
-288.603	47.796	0.264	-0.245
-287.589	123.532	-0.026	-0.033
-286.574	-200.000	0.057	0.262
-285.559	354.779	-0.039	-0.077
-284.545	-38.470	0.043	-0.022
-283.530	-156.120	-0.486	0.030
-282.516	140.481	0.173	-0.227
-281.501	139.428	0.089	0.116
-280.486	-200.000	-0.058	-0.387
-279.472	-71.902	-0.195	-0.072
-278.457	451.632	-0.025	-0.054
-277.443	-52.701	0.224	-0.103
-276.428	-5.334	-0.038	-0.026
-275.413	-200.000	-0.026	0.140
-274.399	-200.000	0.029	-0.179
-273.384	1.574	0.225	0.161
-272.370	94.693	-0.342	0.387
-271.355	-200.000	-0.042	0.185
-270.340	-200.000	-0.060	0.298
-269.326	182.049	0.119	0.173
-268.311	21.118	-0.259	0.209
-267.297	127.433	0.286	-0.360
-266.282	27.013	0.291	0.243
-265.267	493.456	0.103	0.235
-264.253	123.033	-0.147	0.183
-263.238	539.051	0.125	-0.295
-262.224	800.000	-0.045	-0.134
-261.209	-11.215	-0.147	0.096
-260.195	-170.048	-0.044	0.002
-259.180	-40.085	0.122	-0.063
-258.165	193.876	-0.060	-0.090
-257.151	435.846	0.059	-0.128
-256.136	289.854	0.089	0.160
-255.122	-170.868	-0.063	-0.002
-254.107	-131.376	-0.208	-0.027
-253.092	-144.098	-0.512	0.048
-252.078	-181.224	0.110	0.002
-251.063	800.000	-0.052	0.179
-250.049	172.395	0.127	0.181
-249.034	-22.783	0.134	-0.080
-248.019	42.008	-0.031	-0.028
-247.005	588.942	0.038	-0.093
-245.990	40.704	-0.296	-0.264
-244.976	70.238	0.096	-0.099
-243.961	0.384	-0.215	0.152
-242.946	761.484	0.042	-0.113
-241.932	-26.007	-0.182	-0.106
-240.917	162.671	0.143	-0.198
-239.903	39.084	0.194	0.172
-238.888	-47.556	0.013	0.006
-237.873	186.587	0.102	0.150
-236.859	-139.507	-0.182	0.019
-235.844	800.000	-0.062	0.204
-234.830	-6.933	0.175	-0.118
-233.815	-44.448	0.109	-0.054
-232.800	-168.116	-0.405	0.016
-231.786	-136.212	0.044	0.005
-230.771	404.874	-0.091	0.191
-229.757	254.231	-0.134	-0.228
-228.742	141.652	0.161	0.211
-227.727	-93.910	-0.273	0.074
-226.713	-200.000	-0.011	-0.274
-225.698	-200.000	0.018	0.147
-224.684	-17.660	-0.165	-0.103
-223.669	800.000	-0.061	0.217
-222.655	-136.607	0.238	-0.027
-221.640	342.796	0.133	-0.259
-220.625	-200.000	-0.010	-0.198
-219.611	0.056	-0.139	-0.098
-218.596	582.030	0.130	-0.317
-217.582	-134.773	-0.226	0.027
-216.567	103.067	0.099	0.115
-215.552	8.140	-0.407	0.303
-214.538	639.126	0.015	-0.037
-213.523	596.940	0.112	0.275
-212.509	-140.157	-0.179	-0.019
-211.494	20.494	0.092	0.073
-210.479	800.000	-0.106	0.311
-209.465	-45.304	0.350	0.172
-208.450	734.174	0.123	-0.326
-207.436	321.323	-0.040	-0.076
-206.421	-107.779	0.053	-0.011
-205.406	800.000	0.040	-0.131
-204.392	-163.862	-0.107	0.005
-203.377	-103.984	-0.255	-0.059
-202.363	145.062	-0.162	-0.214
-201.348	-109.381	-0.215	0.045
-200.333	-24.709	-0.218	0.128
-199.319	-48.367	-0.132	-0.063
-198.304	-200.000	-0.000	0.154
-197.290	800.000	-0.087	-0.346
-196.275	-117.555	-0.097	0.017
-195.260	-200.000	-0.040	0.476
-194.246	-200.000	0.008	0.369
-193.231	-131.717	0.414	-0.054
-192.217	800.000	0.056	0.166
-191.202	476.188	-0.012	-0.027
-190.187	284.682	0.045	0.080
-189.173	59.991	-0.271	0.265
-188.158	800.000	0.055	-0.214
-187.144	91.142	0.162	0.180
-186.129	800.000	-0.094	-0.311
-185.114	-154.481	-0.290	-0.019
-184.100	-24.412	0.265	0.156
-183.085	-200.000	0.004	-0.213
-182.071	140.734	0.037	-0.049
-181.056	-184.284	-0.177	-0.003
-180.042	143.327	-0.184	0.242
-179.027	91.768	0.229	0.255
-178.012	-167.318	0.176	0.007
-176.998	-8.361	0.137	0.091
-175.983	-10.027	-0.115	0.075
-174.969	-200.000	-0.054	-0.321
-173.954	91.692	0.243	0.271
-172.939	-24.591	0.370	-0.218
-171.925	-200.000	0.030	0.331
-170.910	315.550	-0.055	0.102
-169.896	156.965	-0.085	-0.116
-168.881	-77.720	-0.198	0.068
-167.866	-101.996	-0.039	-0.009
-166.852	-200.000	0.082	-0.374
-165.837	-126.467	-0.190	-0.028
-164.823	-200.000	0.024	0.124
-163.808	21.697	0.143	0.115
-162.793	345.484	-0.075	-0.146
-161.779	269.210	0.100	-0.174
-160.764	-200.000	0.039	-0.427
-159.750	800.000	-0.020	0.057
-158.735	-22.342	0.133	-0.080
-157.720	110.647	-0.079	0.094
-156.706	800.000	-0.074	-0.254
-155.691	768.697	0.050	0.135
-154.677	800.000	-0.109	0.384
-153.662	800.000	-0.037	-0.125
-152.647	-200.000	0.400	0.001
-151.633	800.000	0.077	-0.246
-150.618	-200.000	0.001	-0.041
-149.604	284.915	-0.095	-0.170
-148.589	-85.574	0.093	-0.029
-147.574	800.000	-0.089	0.278
-146.560	500.160	0.112	-0.256
-145.545	241.411	-0.087	0.144
-144.531	342.608	-0.108	0.209
-143.516	-82.455	0.051	0.016
-142.502	101.541	0.240	-0.277
-141.487	-200.000	0.005	-0.216
-140.472	800.000	0.166	-0.487
-139.458	-10.828	-0.262	0.171
-138.443	-14.071	0.270	0.173
-137.429	253.654	-0.055	-0.093
-136.414	-200.000	-0.007	0.093
-135.399	-118.566	0.250	0.044
-134.385	36.576	0.140	0.122
-133.370	190.032	-0.047	-0.069
-132.356	-105.064	0.110	0.025
-131.341	414.617	-0.244	0.514
-130.326	57.131	-0.117	-0.112
-129.312	800.000	-0.118	-0.468
-128.297	466.211	-0.078	-0.174
-127.283	-140.510	0.136	-0.014
-126.268	80.507	0.205	0.218
-125.253	-174.003	-0.038	0.001
-124.239	-113.074	-0.245	0.048
-123.224	270.821	-0.086	-0.149
-122.210	433.450	0.142	0.305
-121.195	-170.401	-0.208	-0.007
-120.180	-84.317	-0.169	-0.053
-119.166	27.266	0.158	-0.131
-118.151	256.746	0.163	-0.276
-117.137	-131.208	0.098	0.013
-116.122	-126.494	0.317	-0.046
-115.107	-200.000	0.002	0.134
-114.093	-34.478	-0.154	0.083
-113.078	508.468	0.044	-0.100
-112.064	28.988	0.091	-0.076
-111.049	-200.000	0.048	-0.289
-110.034	-53.643	0.071	0.032
-109.020	-200.000	-0.020	0.338
-108.005	-82.312	-0.017	0.006
-106.991	800.000	-0.107	0.338
-105.976	-200.000	0.036	-0.374
-104.962	-200.000	0.010	0.106
-103.947	251.947	0.136	0.229
-102.932	-118.692	-0.230	0.040
-101.918	-200.000	0.008	-0.249
-100.903	-200.000	-0.045	0.254
-99.889	19.040	-0.074	-0.059
-98.874	333.362	-0.081	0.154
-97.859	-50.693	0.107	0.050
-96.845	73.635	-0.047	0.048
-95.830	-53.816	-0.079	-0.036
-94.816	-122.917	-0.167	-0.026
-93.801	-63.501	-0.205	-0.083
-92.786	800.000	0.075	-0.239
-91.772	335.709	-0.126	0.241
-90.757	-200.000	0.504	0.001
-89.743	30.351	-0.083	0.070
-88.728	193.883	0.352	0.526
-87.713	-200.000	-0.016	0.131
-86.699	800.000	-0.091	0.362
-85.684	612.673	-0.149	0.367
-84.670	-98.107	0.086	0.022
-83.655	-172.160	-0.287	-0.009
-82.640	-200.000	-0.018	0.389
-81.626	17.793	-0.134	-0.105
-80.611	169.660	-0.150	-0.212
-79.597	216.170	-0.070	0.109
-78.582	-200.000	0.005	0.272
-77.567	407.626	-0.010	0.021
-76.553	-200.000	0.031	0.311
-75.538	800.000	-0.046	0.135
-74.524	143.861	0.146	0.192
-73.509	142.910	0.220	-0.289
-72.494	58.943	-0.487	0.472
-71.480	-103.545	0.268	0.062
-70.465	-112.148	-0.129	-0.026
-69.451	-109.141	-0.043	0.009
-68.436	489.863	0.062	0.140
-67.422	739.948	0.038	0.100
-66.407	-73.748	0.202	-0.073
-65.392	70.714	-0.153	0.156
-64.378	301.765	0.164	0.300
-63.363	-200.000	0.020	0.107
-62.349	80.403	0.088	0.094
-61.334	-42.284	-0.861	-0.434
-60.319	-16.549	0.716	0.447
-59.305	-200.000	-0.152	-0.911
-58.290	700.733	0.551	1.429
-57.276	170.159	0.899	1.267
-56.261	-200.000	95.830	558.079
-55.246	515.086	1420.897	3268.267
-54.232	146.690	2642.288	3497.970
-53.217	104.563	2336.112	2710.580
-52.203	42.712	1943.796	1743.733
-51.188	36.702	1730.147	1505.426
-50.173	34.000	1685.649	1446.134
-49.159	50.391	1733.501	1613.966
-48.144	52.806	1750.663	1648.503
-47.130	36.283	1708.264	1482.936
-46.115	33.580	1692.457	1448.537
-45.100	33.389	1687.843	1443.072
-44.086	33.381	1685.051	1440.571
-43.071	33.326	1682.719	1438.099
-42.057	33.299	1680.098	1435.599
-41.042	33.424	1677.440	1434.220
-40.027	33.358	1675.593	1432.081
-39.013	33.384	1673.608	1430.526
-37.998	33.410	1672.005	1429.297
-36.984	33.358	1671.322	1428.260
-35.969	33.522	1669.406	1427.805
-34.954	33.468	1667.879	1426.035
-33.940	33.429	1666.313	1424.346
-32.925	33.520	1663.891	1422.901
-31.911	33.513	1662.601	1421.693
-30.896	33.495	1660.602	1419.790
-29.881	33.396	1659.260	1417.847
-28.867	33.451	1657.073	1416.331
-27.852	33.517	1655.111	1415.091
-26.838	33.548	1654.019	1414.333
-25.823	33.522	1652.189	1412.519
-24.809	33.609	1650.694	1411.831
-23.794	33.508	1649.660	1410.137
-22.779	33.558	1648.302	1409.294
-21.765	33.581	1646.276	1407.674
-20.750	33.444	1644.786	1405.333
-19.736	33.494	1643.521	1404.568
-18.721	33.491	1642.066	1403.246
-17.706	33.559	1640.274	1402.158
-16.692	33.560	1638.512	1400.603
-15.677	33.558	1637.071	1399.305
-14.663	33.523	1635.943	1398.027
-13.648	33.474	1634.589	1396.449
-12.633	33.444	1633.309	1395.079
-11.619	33.437	1631.531	1393.456
-10.604	33.472	1629.892	1392.255
-9.590	33.511	1628.532	1391.324
-8.575	33.498	1627.525	1390.318
-7.560	33.443	1626.320	1388.827
-6.546	33.523	1624.866	1388.115
-5.531	33.499	1623.849	1387.020
-4.517	33.591	1622.327	1386.338
-3.502	33.530	1621.790	1385.378
-2.487	33.600	1619.847	1384.171
-1.473	33.600	1608.796	1374.671
-0.458	31.504	1590.089	1343.599
0.556	26.576	1590.624	1312.698
1.571	23.989	1614.187	1312.962
2.586	23.072	1626.587	1316.104
3.600	20.757	1573.083	1256.019
4.615	11.588	1458.589	1102.881
5.629	2.500	1388.812	991.398
6.644	0.556	1379.418	972.091
7.659	0.448	1378.046	970.346
8.673	0.389	1376.784	968.996
9.688	0.258	1375.263	966.993
10.702	0.171	1372.175	964.185
11.717	4.268	1379.300	995.439
12.731	13.364	1394.348	1064.999
13.746	18.125	1400.030	1099.948
14.761	17.422	1397.686	1093.494
15.775	16.454	1394.868	1084.978
16.790	15.430	1392.212	1076.253
17.804	14.559	1390.041	1068.904
18.819	14.220	1388.803	1065.683
19.834	13.984	1386.776	1062.530
20.848	13.728	1385.539	1059.849
21.863	13.497	1384.250	1057.293
22.877	13.265	1383.399	1055.073
23.892	13.303	1382.209	1054.315
24.907	13.200	1381.462	1052.995
25.921	13.271	1380.657	1052.738
26.936	13.309	1379.558	1052.051
27.950	13.409	1378.328	1051.656
28.965	13.441	1377.685	1051.273
29.980	13.470	1376.723	1050.634
30.994	13.470	1376.080	1050.049
32.009	13.546	1374.638	1049.337
33.023	13.677	1373.192	1048.970
34.038	13.476	1372.282	1046.911
35.053	13.499	1370.841	1045.862
36.067	13.458	1369.874	1044.772
37.082	13.470	1369.155	1044.207
38.096	13.447	1368.528	1043.493
39.111	13.419	1367.331	1042.314
40.126	13.355	1367.210	1041.721
41.140	13.345	1365.831	1040.519
42.155	13.298	1365.281	1039.714
43.169	13.251	1365.300	1039.338
44.184	13.241	1365.145	1039.068
45.199	13.277	1364.303	1038.559
46.213	13.327	1363.987	1038.543
47.228	13.359	1363.013	1037.907
48.242	13.358	1361.916	1036.970
49.257	13.359	1359.980	1035.413
50.271	13.397	1358.414	1034.365
51.286	13.457	1357.311	1033.809
52.301	13.338	1356.259	1032.179
53.315	13.378	1354.869	1031.279
54.330	13.317	1353.999	1030.140
55.344	13.342	1352.987	1029.439
56.359	13.321	1351.724	1028.256
57.374	13.364	1350.422	1027.437
58.388	13.359	1349.475	1026.596
59.403	13.222	1349.844	1025.935
60.417	13.220	1348.806	1025.046
61.432	13.253	1348.023	1024.561
62.447	13.155	1347.111	1023.171
63.461	13.206	1345.692	1022.318
64.476	13.105	1344.649	1020.814
65.490	13.163	1343.134	1019.930
66.505	13.266	1341.421	1019.174
67.520	13.246	1340.396	1018.180
68.534	13.241	1339.685	1017.520
69.549	13.175	1338.334	1015.999
70.563	13.246	1337.249	1015.521
71.578	13.146	1336.009	1013.879
72.593	13.155	1335.311	1013.312
73.607	13.022	1334.673	1011.922
74.622	13.110	1333.811	1011.718
75.636	13.133	1333.405	1011.466
76.651	13.169	1331.988	1010.518
77.666	13.090	1331.682	1009.717
78.680	13.130	1330.910	1009.287
79.695	13.175	1330.158	1008.899
80.709	13.219	1329.020	1008.218
81.724	13.216	1328.087	1007.398
82.739	13.274	1327.292	1007.060
83.753	13.227	1326.835	1006.342
84.768	13.402	1325.442	1006.256
85.782	13.383	1324.210	1005.117
86.797	13.383	1322.961	1004.081
87.812	13.381	1321.634	1002.972
88.826	13.321	1321.009	1002.045
89.841	13.240	1320.035	1000.728
90.855	13.490	1318.864	1001.265
91.870	13.449	1317.708	1000.048
92.884	13.478	1316.894	999.520
93.899	13.492	1315.867	998.734
94.914	13.565	1314.947	998.390
95.928	13.489	1314.459	997.472
96.943	13.460	1313.536	996.508
97.957	13.529	1312.621	996.142
98.972	13.387	1311.607	994.433
99.987	13.470	1310.195	993.770
101.001	13.469	1309.435	993.099
102.016	13.441	1308.545	992.170
103.030	13.432	1307.846	991.500
104.045	13.436	1306.773	990.624
105.060	13.262	1305.985	988.897
106.074	13.412	1304.017	988.213
107.089	13.333	1302.478	986.491
108.103	13.231	1301.982	985.419
109.118	13.298	1300.253	984.420
110.133	13.242	1299.335	983.307
111.147	13.287	1297.929	982.421
112.162	13.263	1296.637	981.215
113.176	13.301	1295.785	980.708
114.191	13.351	1294.872	980.229
115.206	13.363	1293.165	978.916
116.220	13.301	1292.636	978.066
117.235	13.292	1291.588	977.133
118.249	13.390	1290.086	976.490
119.264	13.300	1288.783	974.882
120.279	13.353	1287.664	974.262
121.293	13.187	1287.313	972.935
122.308	13.174	1285.984	971.768
123.322	13.236	1285.023	971.318
124.337	13.152	1284.242	970.153
125.352	13.233	1282.582	969.286
126.366	13.212	1281.712	968.417
127.381	13.211	1280.527	967.430
128.395	13.206	1279.635	966.643
129.410	13.278	1278.708	966.277
130.424	13.417	1277.419	966.031
131.439	13.282	1276.957	964.809
132.454	13.432	1275.642	964.603
133.468	13.454	1274.638	963.885
134.483	13.364	1274.412	963.104
135.497	13.397	1272.786	961.986
136.512	13.389	1271.502	960.881
137.527	13.474	1270.033	960.178
138.541	13.448	1268.770	958.987
139.556	13.476	1267.219	957.898
140.570	13.533	1266.445	957.552
141.585	13.537	1265.394	956.699
142.600	13.406	1264.117	954.894
143.614	13.544	1263.702	955.293
144.629	13.619	1262.103	954.430
145.643	13.520	1261.043	952.977
146.658	13.530	1259.431	951.729
147.673	13.487	1257.909	950.245
148.687	13.482	1256.829	949.316
149.702	13.336	1256.020	947.787
150.716	13.393	1254.033	946.531
151.731	13.415	1253.100	945.870
152.746	13.423	1251.869	944.904
153.760	13.531	1250.817	944.640
154.775	13.544	1249.818	943.874
155.789	13.457	1248.813	942.540
156.804	13.477	1248.085	942.017
157.819	13.475	1246.953	941.070
158.833	13.596	1245.728	940.751
159.848	13.656	1244.487	940.069
160.862	13.636	1243.701	939.278
161.877	13.572	1242.772	938.133
162.892	13.493	1241.642	936.746
163.906	13.555	1240.718	936.319
164.921	13.556	1240.070	935.751
165.935	13.541	1239.207	934.932
166.950	13.587	1238.439	934.531
167.964	13.606	1237.560	933.889
168.979	13.692	1236.744	933.679
169.994	13.632	1235.755	932.512
171.008	13.645	1235.356	932.201
172.023	13.719	1234.757	932.081
173.037	13.731	1233.844	931.377
174.052	13.704	1232.671	930.258
175.067	13.676	1231.693	929.280
176.081	13.601	1230.724	928.048
177.096	13.632	1229.856	927.487
178.110	13.684	1228.303	926.523
179.125	13.783	1226.851	925.896
180.140	13.746	1226.010	924.975
181.154	13.729	1225.281	924.250
182.169	13.797	1223.909	923.508
183.183	13.786	1222.761	922.502
184.198	13.828	1221.432	921.648
185.213	13.911	1220.092	921.020
186.227	13.896	1219.184	920.167
187.242	13.992	1217.942	919.682
188.256	13.944	1217.015	918.632
189.271	13.929	1216.292	917.921
190.286	13.804	1215.263	916.372
191.300	13.768	1214.656	915.640
192.315	13.746	1213.519	914.580
193.329	13.789	1213.139	914.449
194.344	13.780	1212.777	914.044
195.359	13.797	1212.225	913.644
196.373	13.958	1211.324	913.765
197.388	13.907	1211.110	913.246
198.402	13.979	1210.495	913.097
199.417	14.028	1210.131	913.009
200.432	14.135	1208.911	912.597
201.446	14.255	1207.665	912.229
202.461	14.219	1206.744	911.259
203.475	14.114	1206.103	910.116
204.490	14.006	1205.063	908.662
205.504	14.018	1203.472	907.449
206.519	14.116	1202.117	906.879
207.534	14.161	1200.636	905.926
208.548	14.055	1200.097	904.864
209.563	14.005	1199.773	904.266
210.577	14.165	1198.545	904.134
211.592	14.227	1197.679	903.737
212.607	14.125	1197.303	902.817
213.621	14.245	1195.914	902.343
214.636	14.299	1194.716	901.651
215.650	14.219	1194.180	900.734
216.665	14.274	1193.453	900.403
217.680	14.254	1192.197	899.267
218.694	14.298	1191.489	898.894
219.709	14.314	1190.807	898.381
220.723	14.338	1189.886	897.738
221.738	14.355	1189.170	897.212
222.753	14.387	1188.292	896.642
223.767	14.278	1187.810	895.610
224.782	14.421	1186.933	895.637
225.796	14.517	1186.567	895.802
226.811	14.563	1185.580	895.221
227.826	14.410	1185.002	893.884
228.840	14.364	1184.283	893.018
229.855	14.379	1183.648	892.542
230.869	14.422	1182.641	891.931
231.884	14.523	1181.959	891.880
232.899	14.373	1181.173	890.404
233.913	14.386	1180.705	890.041
234.928	14.410	1179.441	889.142
235.942	14.418	1178.996	888.766
236.957	14.436	1178.466	888.385
237.972	14.405	1177.802	887.640
238.986	14.429	1177.149	887.198
240.001	14.338	1176.577	886.203
241.015	14.504	1175.240	886.002
242.030	14.435	1174.627	885.097
243.045	14.617	1173.452	885.094
244.059	14.585	1172.805	884.359
245.074	14.680	1172.154	884.296
246.088	14.672	1171.036	883.329
247.103	14.660	1170.133	882.510
248.117	14.630	1169.795	882.018
249.132	14.714	1169.292	882.001
250.147	14.770	1168.572	881.679
251.161	14.796	1167.522	880.945
252.176	14.775	1166.938	880.317
253.190	14.874	1165.980	880.037
254.205	14.793	1165.823	879.415
255.220	14.928	1165.335	879.675
256.234	14.959	1164.733	879.307
257.249	14.983	1163.832	878.676
258.263	14.956	1163.165	877.952
259.278	14.983	1162.324	877.380
260.293	14.979	1161.789	876.880
261.307	15.066	1161.056	876.705
262.322	14.990	1161.140	876.292
263.336	14.920	1160.248	875.175
264.351	15.110	1159.465	875.501
265.366	15.121	1158.869	875.030
266.380	15.138	1157.604	874.088
267.395	15.112	1157.531	873.819
268.409	15.060	1156.735	872.867
269.424	15.099	1155.872	872.345
270.439	15.098	1155.110	871.685
271.453	15.015	1154.699	870.864
272.468	15.117	1153.836	870.666
273.482	14.988	1152.978	869.275
274.497	15.168	1152.278	869.606
275.512	15.166	1151.771	869.135
276.526	15.057	1150.976	867.894
277.541	15.183	1149.712	867.514
278.555	15.174	1149.297	867.078
279.570	15.188	1148.602	866.552
280.585	15.301	1147.783	866.438
281.599	15.440	1146.513	866.121
282.614	15.327	1145.960	865.043
283.628	15.369	1144.690	864.222
284.643	15.328	1143.484	863.026
285.657	15.305	1143.206	862.625
286.672	15.423	1142.014	862.254
287.687	15.359	1141.020	861.097
288.701	15.413	1140.512	860.915
289.716	15.358	1139.729	859.968
290.730	15.257	1139.180	858.959
291.745	15.381	1138.172	858.758
292.760	15.435	1137.990	858.823
293.774	15.405	1137.548	858.258
294.789	15.531	1136.223	857.823
295.803	15.520	1135.900	857.448
296.818	15.466	1135.140	856.524
297.833	15.539	1134.455	856.302
298.847	15.440	1133.611	855.085
299.862	15.440	1133.246	854.738
300.876	15.536	1132.401	854.510
301.891	15.543	1131.425	853.733
302.906	15.659	1130.718	853.713
303.920	15.670	1129.928	853.098
304.935	15.659	1129.527	852.663
305.949	15.595	1129.340	852.123
306.964	15.833	1128.305	852.473
307.979	15.838	1127.234	851.612
308.993	15.745	1126.374	850.417
310.008	15.635	1125.961	849.473
311.022	15.704	1125.160	849.145
312.037	15.820	1124.095	848.853
313.052	15.726	1123.757	848.049
314.066	15.687	1122.559	846.870
315.081	15.666	1121.032	845.540
316.095	15.664	1120.814	845.290
317.110	15.681	1120.245	844.868
318.125	15.744	1119.190	844.316
319.139	15.724	1118.659	843.742
320.154	15.769	1117.743	843.200
321.168	15.663	1117.850	842.673
322.183	15.822	1116.867	842.656
323.197	15.806	1115.933	841.794
324.212	15.796	1115.728	841.515
325.227	15.894	1114.762	841.201
326.241	15.791	1114.475	840.398
327.256	15.863	1113.367	839.847
328.270	15.800	1112.647	838.916
329.285	15.793	1111.851	838.207
330.300	15.915	1110.913	838.032
331.314	15.888	1109.754	836.949
332.329	15.867	1108.722	835.996
333.343	15.813	1108.346	835.370
334.358	15.945	1106.827	834.802
335.373	15.963	1106.732	834.746
336.387	15.981	1105.829	834.083
337.402	16.058	1104.770	833.589
338.416	16.016	1104.229	832.902
339.431	16.093	1103.527	832.677
340.446	16.097	1102.857	832.119
341.460	16.093	1102.272	831.583
342.475	16.119	1101.504	831.060
343.489	16.147	1100.506	830.370
344.504	16.275	1099.382	830.079
345.519	16.331	1098.600	829.689
346.533	16.324	1098.126	829.222
347.548	16.369	1097.160	828.643
348.562	16.346	1096.556	828.000
349.577	16.241	1095.946	826.949
350.592	16.075	1095.607	825.807
351.606	16.212	1094.374	825.477
352.621	16.221	1093.449	824.749
353.635	16.209	1092.961	824.250
354.650	16.241	1092.001	823.607
355.665	16.189	1091.456	822.874
356.679	16.411	1090.885	823.452
357.694	16.381	1090.428	822.885
358.708	16.396	1089.651	822.302
359.723	16.367	1089.059	821.638
360.738	16.441	1088.167	821.254
361.752	16.510	1087.517	821.027
362.767	16.456	1086.949	820.263
363.781	16.406	1086.911	819.918
364.796	16.405	1086.424	819.472
365.810	16.450	1085.588	818.987
366.825	16.513	1084.859	818.671
367.840	16.574	1084.235	818.420
368.854	16.706	1083.417	818.369
369.869	16.602	1082.803	817.329
370.883	16.624	1081.818	816.622
371.898	16.623	1080.996	815.924
372.913	16.602	1080.740	815.557
373.927	16.615	1079.996	814.988
374.942	16.623	1079.490	814.572
375.956	16.746	1078.944	814.680
376.971	16.584	1078.823	813.735
377.986	16.722	1077.899	813.631
379.000	16.859	1077.325	813.785
380.015	16.777	1076.960	813.040
381.029	16.810	1076.026	812.422
382.044	16.917	1075.611	812.549
383.059	16.895	1075.093	811.980
384.073	16.823	1073.781	810.576
385.088	16.873	1073.260	810.348
386.102	16.841	1072.299	809.400
387.117	16.828	1071.209	808.441
388.132	16.843	1070.405	807.835
389.146	16.847	1069.575	807.159
390.161	16.900	1068.698	806.678
391.175	16.872	1067.806	805.800
392.190	17.031	1067.315	806.111
393.205	17.061	1066.603	805.644
394.219	16.889	1066.230	804.476
395.234	16.985	1064.885	803.844
396.248	16.953	1064.251	803.145
397.263	16.935	1062.891	801.963
398.278	16.943	1062.156	801.375
399.292	16.965	1061.738	801.093
400.307	16.777	1060.870	799.479
401.321	16.977	1060.450	800.033
402.336	16.949	1059.748	799.303
403.350	16.932	1059.014	798.596
404.365	17.124	1058.022	798.682
405.380	17.132	1057.492	798.248
406.394	17.049	1057.189	797.559
407.409	17.106	1055.965	796.834
408.423	17.097	1055.569	796.419
409.438	17.246	1054.466	796.216
410.453	17.153	1053.962	795.330
411.467	17.220	1053.113	794.933
412.482	17.228	1052.438	794.388
413.496	17.416	1051.835	794.743
414.511	17.385	1051.349	794.159
415.526	17.377	1050.975	793.769
416.540	17.467	1050.325	793.630
417.555	17.334	1049.843	792.575
418.569	17.343	1049.311	792.147
419.584	17.391	1048.804	791.914
420.599	17.434	1048.638	791.920
421.613	99.917	1316.323	1449.937
422.628	91.949	1355.313	1450.046
