DTS Sentinel unit serial number:	SN413079Multiplexer serial number:	ORYXHardware model number:	OX4-SRSoftware version number:	ORYX F/W v4.00 Oryx Data Collector v3.7.2.0data status	okinstallation	princeton_trtdifferential loss correction	single-endedforward channel	channel 2reverse channel	N/Adate	2019/09/11time	23:21:10forward acquisition time	60.00reverse acquisition time	0.00gamma	496.2192k internal	0.2325k external	0.2325temperature offset calibration	1.0075default loss term (dB/km)	0.3790temperature slope calibration	1.0000multiplexer offset coefficient	1.0000multiplexer slope coefficient	1.0000fibre end	0.00T internal ref (°C)	34.36T ext. ref 1 (°C)	1.86T ext. ref 2 (°C)	28.76length (m)	temperature (°C)	Stokes	anti-Stokes-747.200	-131.479	0.344	-0.046
-746.185	133.334	-0.161	0.210
-745.171	122.104	-0.115	0.144
-744.156	-67.921	-0.297	0.117
-743.142	-39.199	-0.072	-0.038
-742.127	15.934	-0.278	0.221
-741.112	-25.622	0.154	0.092
-740.098	-84.027	-0.048	0.015
-739.083	-50.154	0.047	-0.022
-738.069	291.850	-0.086	-0.158
-737.054	-134.438	-0.035	0.004
-736.039	800.000	-0.047	0.173
-735.025	-99.817	0.107	0.027
-734.010	800.000	0.129	-0.444
-732.996	137.322	-0.082	0.108
-731.981	800.000	-0.047	-0.184
-730.966	-179.699	-0.107	-0.002
-729.952	305.140	-0.108	0.203
-728.937	1.844	0.137	0.100
-727.923	88.130	-0.202	-0.226
-726.908	-72.726	-0.307	0.114
-725.894	112.774	-0.401	-0.490
-724.879	18.374	0.132	0.106
-723.864	-29.682	-0.223	-0.128
-722.850	219.785	-0.112	-0.181
-721.835	-125.783	0.034	0.005
-720.821	-200.000	-0.079	-0.355
-719.806	288.945	0.091	-0.165
-718.791	-200.000	-0.045	-0.226
-717.777	327.055	-0.057	-0.110
-716.762	-121.662	0.208	-0.035
-715.748	79.316	-0.082	-0.089
-714.733	633.898	-0.045	0.114
-713.718	-160.596	0.067	-0.004
-712.704	588.565	-0.076	0.189
-711.689	-98.377	-0.211	0.054
-710.675	43.085	0.353	0.324
-709.660	-176.467	0.431	0.011
-708.645	-200.000	0.021	-0.185
-707.631	-35.016	-0.114	0.063
-706.616	-48.955	0.233	0.113
-705.602	128.142	-0.129	0.165
-704.587	146.864	0.213	0.289
-703.572	77.128	-0.089	0.095
-702.558	-136.546	0.160	0.019
-701.543	-4.095	-0.091	-0.063
-700.529	-145.154	0.235	-0.021
-699.514	-145.778	-0.337	0.030
-698.499	136.401	0.098	0.129
-697.485	384.631	-0.068	0.141
-696.470	-32.847	-0.141	-0.079
-695.456	-61.663	-0.231	-0.098
-694.441	-200.000	0.005	0.146
-693.426	-200.000	-0.046	0.277
-692.412	-12.939	0.201	0.132
-691.397	-137.783	-0.438	-0.049
-690.383	226.158	0.094	-0.153
-689.368	302.627	-0.158	-0.294
-688.354	-139.755	-0.137	-0.015
-687.339	-112.031	-0.473	-0.096
-686.324	26.111	0.075	0.063
-685.310	-78.323	0.253	-0.088
-684.295	800.000	0.049	-0.204
-683.281	-138.584	-0.439	0.048
-682.266	384.163	-0.085	0.175
-681.251	378.874	-0.086	-0.177
-680.237	51.698	-0.146	0.140
-679.222	800.000	0.077	-0.278
-678.208	100.260	-0.296	0.346
-677.193	172.377	0.038	-0.055
-676.178	-42.057	-0.352	-0.181
-675.164	30.502	0.133	-0.114
-674.149	-74.550	-0.270	-0.098
-673.135	-125.665	0.111	0.017
-672.120	-39.905	0.198	0.104
-671.105	800.000	0.083	-0.255
-670.091	-85.533	0.067	-0.021
-669.076	110.050	-0.096	-0.116
-668.062	114.659	-0.163	0.199
-667.047	82.756	-0.204	-0.224
-666.032	-69.127	0.416	-0.161
-665.018	-22.936	-0.157	0.095
-664.003	800.000	-0.034	0.107
-662.989	3.382	0.179	0.131
-661.974	76.626	0.123	0.131
-660.959	-141.776	-0.162	-0.016
-659.945	101.997	-0.322	0.378
-658.930	35.026	0.142	0.125
-657.916	10.005	-0.330	0.252
-656.901	182.701	0.049	-0.072
-655.886	13.075	0.228	-0.177
-654.872	-99.826	0.315	-0.079
-653.857	-101.529	0.068	0.017
-652.843	-96.399	-0.096	-0.026
-651.828	-200.000	-0.068	-0.302
-650.814	302.689	0.019	-0.035
-649.799	-128.250	-0.379	-0.054
-648.784	-133.447	0.134	-0.017
-647.770	-32.663	-0.089	-0.050
-646.755	90.294	0.136	-0.152
-645.741	-62.256	0.215	0.090
-644.726	227.640	-0.110	-0.180
-643.711	-200.000	0.023	-0.104
-642.697	-184.947	-0.282	-0.004
-641.682	24.384	0.355	-0.295
-640.668	-144.184	-0.262	-0.025
-639.653	-200.000	0.002	-0.071
-638.638	-200.000	-0.013	-0.185
-637.624	103.190	0.159	-0.188
-636.609	-200.000	-0.009	-0.083
-635.595	-104.998	0.254	-0.058
-634.580	10.466	-0.322	-0.246
-633.565	800.000	-0.071	0.284
-632.551	228.834	-0.018	-0.030
-631.536	-43.052	0.123	0.063
-630.522	-200.000	-0.002	-0.272
-629.507	668.410	-0.078	0.202
-628.492	800.000	-0.047	-0.168
-627.478	207.908	-0.184	0.288
-626.463	71.951	-0.157	-0.164
-625.449	-6.893	-0.292	-0.199
-624.434	342.058	0.190	-0.373
-623.419	110.461	0.064	0.077
-622.405	13.110	-0.110	-0.085
-621.390	510.758	0.079	-0.184
-620.376	-75.726	0.159	-0.057
-619.361	-200.000	-0.045	-0.232
-618.346	-200.000	0.062	-0.357
-617.332	-200.000	0.010	-0.092
-616.317	-124.891	-0.159	-0.025
-615.303	-85.309	0.271	-0.085
-614.288	315.966	-0.127	-0.240
-613.273	135.463	0.155	-0.202
-612.259	143.451	0.045	-0.061
-611.244	-200.000	-0.025	-0.359
-610.230	53.824	0.206	0.198
-609.215	83.371	-0.183	-0.201
-608.201	103.656	0.269	-0.317
-607.186	-36.631	-0.111	-0.060
-606.171	123.591	-0.040	-0.051
-605.157	273.315	0.170	-0.302
-604.142	221.318	0.141	0.228
-603.128	136.799	-0.022	0.029
-602.113	-47.329	0.121	0.059
-601.098	-21.956	0.051	-0.031
-600.084	-60.109	-0.279	0.120
-599.069	325.334	0.164	-0.314
-598.055	411.846	0.026	0.056
-597.040	-106.868	-0.251	-0.056
-596.025	-65.714	0.344	-0.138
-595.011	800.000	-0.085	0.351
-593.996	-122.567	0.213	0.035
-592.982	-200.000	-0.025	-0.330
-591.967	396.259	-0.103	0.216
-590.952	800.000	-0.068	0.192
-589.938	800.000	0.062	0.245
-588.923	-29.198	-0.285	0.164
-587.909	-89.347	0.268	-0.079
-586.894	636.440	0.012	-0.031
-585.879	431.467	-0.066	-0.144
-584.865	336.891	-0.135	0.262
-583.850	573.353	-0.079	0.192
-582.836	800.000	-0.035	0.104
-581.821	-200.000	0.026	-0.242
-580.806	800.000	0.124	-0.361
-579.792	-200.000	0.013	0.247
-578.777	710.013	0.032	0.086
-577.763	74.745	0.239	-0.252
-576.748	-38.700	0.158	-0.083
-575.733	800.000	0.110	0.331
-574.719	-28.539	-0.264	0.152
-573.704	-200.000	-0.000	-0.014
-572.690	59.830	-0.389	-0.385
-571.675	-118.538	0.116	-0.020
-570.661	-8.949	-0.161	0.108
-569.646	324.174	0.063	-0.120
-568.631	-122.971	0.261	-0.042
-567.617	800.000	-0.109	0.335
-566.602	789.440	0.039	-0.108
-565.588	-58.250	-0.531	0.232
-564.573	-151.786	-0.051	0.004
-563.558	-134.829	-0.562	-0.068
-562.544	-200.000	-0.026	0.138
-561.529	107.525	-0.180	-0.215
-560.515	-134.420	0.134	0.016
-559.500	-77.058	-0.156	-0.055
-558.485	800.000	0.023	-0.067
-557.471	401.394	0.098	-0.207
-556.456	-91.631	-0.127	0.036
-555.442	-200.000	0.285	0.000
-554.427	-200.000	0.015	-0.137
-553.412	-200.000	-0.003	0.105
-552.398	-200.000	0.006	-0.079
-551.383	301.855	0.145	-0.269
-550.369	99.454	0.071	0.082
-549.354	800.000	-0.044	0.175
-548.339	358.267	0.116	0.232
-547.325	-200.000	0.045	-0.241
-546.310	-200.000	-0.014	-0.289
-545.296	-80.456	-0.141	-0.047
-544.281	215.513	0.102	0.161
-543.266	278.677	0.227	0.405
-542.252	-171.493	0.219	0.007
-541.237	-49.150	-0.178	-0.085
-540.223	-1.524	0.204	0.144
-539.208	272.227	0.229	-0.404
-538.193	800.000	0.030	-0.100
-537.179	-49.842	0.204	0.097
-536.164	-66.665	0.195	-0.077
-535.150	-95.184	-0.209	0.056
-534.135	710.278	-0.071	-0.187
-533.121	585.714	-0.065	0.160
-532.106	-13.074	-0.151	-0.098
-531.091	182.489	-0.149	0.220
-530.077	-108.575	-0.144	-0.031
-529.062	-200.000	-0.006	-0.061
-528.048	166.988	0.038	0.054
-527.033	267.601	0.095	-0.167
-526.018	-109.403	0.140	-0.030
-525.004	190.139	0.120	-0.181
-523.989	656.565	0.041	0.107
-522.975	1.807	-0.271	0.195
-521.960	-188.959	0.059	-0.001
-520.945	-97.598	-0.298	0.077
-519.931	335.845	0.071	-0.139
-518.916	201.948	0.018	-0.028
-517.902	-113.918	0.318	0.062
-516.887	-94.658	0.167	-0.045
-515.872	800.000	0.009	0.037
-514.858	-70.740	0.332	-0.125
-513.843	-17.752	0.260	0.163
-512.829	800.000	0.035	0.114
-511.814	-130.283	-0.530	-0.072
-510.799	-44.732	-0.090	-0.045
-509.785	800.000	-0.053	-0.193
-508.770	649.523	0.089	0.229
-507.756	137.997	0.036	-0.047
-506.741	800.000	0.066	0.272
-505.726	800.000	0.062	0.176
-504.712	800.000	0.030	-0.106
-503.697	-200.000	0.053	-0.318
-502.683	21.210	0.262	-0.213
-501.668	-70.054	0.082	0.031
-500.653	-200.000	0.008	-0.097
-499.639	-49.517	0.119	-0.056
-498.624	-70.827	0.170	-0.064
-497.610	-200.000	-0.045	0.215
-496.595	-200.000	0.014	0.167
-495.581	-67.546	-0.079	0.031
-494.566	11.913	0.247	-0.190
-493.551	170.683	-0.073	-0.105
-492.537	-69.688	-0.157	0.060
-491.522	-200.000	0.063	-0.384
-490.508	641.090	-0.044	-0.113
-489.493	800.000	-0.086	-0.302
-488.478	-80.446	-0.120	-0.040
-487.464	321.849	-0.098	-0.187
-486.449	12.290	0.142	-0.109
-485.435	1.641	-0.180	-0.130
-484.420	726.904	0.044	0.118
-483.405	-66.062	-0.296	0.118
-482.391	413.568	0.159	-0.337
-481.376	-200.000	-0.009	0.180
-480.362	-129.104	-0.297	-0.041
-479.347	-64.216	0.310	0.126
-478.332	398.933	0.153	0.320
-477.318	397.423	-0.142	0.296
-476.303	70.040	-0.090	-0.093
-475.289	-200.000	-0.018	0.227
-474.274	615.587	-0.057	-0.142
-473.259	-34.843	0.228	0.125
-472.245	278.444	0.118	-0.210
-471.230	-200.000	-0.027	-0.140
-470.216	188.653	0.030	0.045
-469.201	40.023	-0.125	0.112
-468.186	-115.281	-0.361	0.068
-467.172	800.000	0.029	0.103
-466.157	-200.000	0.084	-0.426
-465.143	-200.000	0.027	-0.120
-464.128	-200.000	0.003	0.077
-463.113	-62.237	0.176	0.073
-462.099	-114.675	0.139	0.027
-461.084	-200.000	0.037	0.186
-460.070	-91.747	-0.158	0.045
-459.055	589.535	-0.088	-0.215
-458.040	-49.419	0.205	0.098
-457.026	64.560	-0.176	0.177
-456.011	-109.289	-0.416	-0.088
-454.997	-52.732	-0.031	-0.014
-453.982	-44.050	0.196	-0.098
-452.968	299.681	0.042	-0.077
-451.953	-66.197	-0.210	-0.083
-450.938	3.939	-0.216	-0.157
-449.924	-18.701	0.161	-0.100
-448.909	103.579	0.069	0.081
-447.895	-38.814	0.350	-0.184
-446.880	-91.320	0.247	-0.071
-445.865	-122.403	0.212	0.035
-444.851	254.448	0.131	-0.224
-443.836	273.166	-0.042	-0.075
-442.822	256.317	0.113	0.193
-441.807	-141.269	0.349	0.035
-440.792	209.447	-0.055	0.086
-439.778	-90.553	-0.306	0.088
-438.763	-180.605	-0.428	0.009
-437.749	262.862	0.023	0.039
-436.734	-161.214	-0.417	-0.022
-435.719	800.000	-0.151	0.472
-434.705	-71.589	0.109	-0.041
-433.690	-89.399	-0.092	-0.027
-432.676	50.173	0.322	0.303
-431.661	-104.205	-0.261	-0.060
-430.646	-99.298	0.083	-0.021
-429.632	-84.617	0.245	0.077
-428.617	24.678	-0.095	0.078
-427.603	795.715	0.084	0.231
-426.588	-166.693	-0.177	0.007
-425.573	337.629	0.037	-0.072
-424.559	-11.199	-0.295	-0.194
-423.544	800.000	-0.092	-0.260
-422.530	58.282	0.036	0.035
-421.515	179.952	-0.120	-0.176
-420.500	-200.000	-0.015	-0.109
-419.486	-22.478	-0.189	0.114
-418.471	27.051	-0.039	0.033
-417.457	-144.522	0.378	0.035
-416.442	-68.377	0.175	-0.068
-415.428	-94.754	0.239	-0.065
-414.413	-144.472	0.119	-0.011
-413.398	-45.157	0.210	0.104
-412.384	295.096	-0.152	-0.277
-411.369	800.000	-0.048	-0.133
-410.355	250.486	-0.121	0.205
-409.340	13.349	-0.113	0.087
-408.325	493.980	-0.151	-0.345
-407.311	5.262	0.203	0.149
-406.296	230.211	0.134	-0.218
-405.282	450.472	-0.088	-0.193
-404.267	183.752	-0.035	-0.052
-403.252	-200.000	0.039	0.170
-402.238	159.995	0.039	-0.054
-401.223	-200.000	-0.012	0.217
-400.209	103.287	-0.087	0.101
-399.194	67.437	0.169	0.172
-398.179	431.920	-0.081	0.174
-397.165	631.880	0.052	0.131
-396.150	-64.194	0.100	-0.041
-395.136	162.166	-0.049	0.068
-394.121	166.316	-0.140	0.198
-393.106	-116.953	0.119	0.022
-392.092	-7.944	0.156	-0.105
-391.077	70.884	-0.276	0.284
-390.063	-71.821	0.096	-0.036
-389.048	-126.625	0.257	-0.038
-388.033	-85.078	-0.266	-0.083
-387.019	23.325	-0.160	0.131
-386.004	-200.000	-0.019	0.189
-384.990	-152.617	0.173	0.012
-383.975	321.119	0.144	0.272
-382.960	-45.860	-0.018	-0.009
-381.946	126.811	0.075	-0.094
-380.931	240.785	0.062	0.103
-379.917	105.110	-0.070	-0.082
-378.902	-70.861	-0.161	-0.061
-377.888	-117.245	-0.441	0.080
-376.873	-48.781	0.226	-0.108
-375.858	535.980	0.088	0.209
-374.844	55.134	-0.204	-0.196
-373.829	-200.000	0.082	0.595
-372.815	50.589	0.262	-0.246
-371.800	-145.312	-0.217	0.019
-370.785	173.451	-0.067	-0.096
-369.771	302.817	-0.091	0.167
-368.756	-200.000	-0.014	0.136
-367.742	82.908	0.210	-0.227
-366.727	71.614	-0.246	-0.254
-365.712	109.099	-0.038	0.045
-364.698	183.693	-0.038	0.056
-363.683	371.946	-0.030	0.061
-362.669	-92.362	0.151	0.042
-361.654	-200.000	0.021	-0.166
-360.639	800.000	0.047	0.181
-359.625	-200.000	0.054	-0.238
-358.610	-144.811	-0.434	0.040
-357.596	800.000	-0.059	0.197
-356.581	-154.107	-0.193	0.013
-355.566	501.133	0.091	-0.208
-354.552	756.965	-0.074	0.198
-353.537	108.477	0.089	0.105
-352.523	-200.000	-0.046	-0.214
-351.508	800.000	-0.037	-0.101
-350.493	-98.870	-0.076	-0.019
-349.479	-200.000	0.027	0.344
-348.464	-89.741	0.233	0.068
-347.450	-200.000	-0.012	0.215
-346.435	-38.583	-0.092	0.048
-345.420	-184.799	0.139	-0.002
-344.406	-200.000	0.002	0.069
-343.391	-57.835	-0.046	0.020
-342.377	800.000	0.080	-0.244
-341.362	-92.419	0.298	0.083
-340.348	27.317	0.338	0.282
-339.333	-163.823	-0.101	-0.005
-338.318	81.053	0.111	-0.119
-337.304	-200.000	0.031	0.307
-336.289	436.905	0.117	-0.252
-335.275	-133.313	0.195	-0.024
-334.260	45.000	0.076	0.069
-333.245	-38.287	-0.218	-0.115
-332.231	-177.775	0.237	-0.006
-331.216	-143.025	0.485	0.047
-330.202	-47.314	0.168	0.081
-329.187	-146.868	-0.240	0.020
-328.172	800.000	0.054	-0.205
-327.158	-93.488	-0.254	0.070
-326.143	166.108	-0.133	0.187
-325.129	-145.465	0.104	-0.009
-324.114	52.962	0.201	-0.191
-323.099	535.575	0.044	-0.104
-322.085	-61.975	-0.112	-0.046
-321.070	617.732	-0.205	-0.510
-320.056	-93.322	0.165	0.045
-319.041	199.440	-0.119	0.181
-318.026	13.771	0.207	0.160
-317.012	-200.000	-0.063	0.285
-315.997	-129.130	0.181	0.025
-314.983	-200.000	0.001	-0.282
-313.968	-39.580	-0.091	-0.047
-312.953	-76.229	0.092	-0.032
-311.939	800.000	-0.023	-0.091
-310.924	-54.202	-0.495	0.223
-309.910	-200.000	-0.034	0.186
-308.895	255.571	-0.040	0.068
-307.880	-200.000	0.034	-0.217
-306.866	161.923	-0.236	-0.328
-305.851	-55.627	-0.243	-0.108
-304.837	-14.514	-0.293	0.187
-303.822	170.055	0.060	0.085
-302.807	-10.435	0.401	0.263
-301.793	209.053	-0.070	-0.108
-300.778	342.419	-0.031	-0.061
-299.764	-102.169	0.112	-0.027
-298.749	-43.780	0.257	-0.129
-297.735	-68.329	0.355	0.137
-296.720	-114.797	0.184	-0.035
-295.705	-200.000	-0.043	-0.328
-294.691	-200.000	0.014	0.452
-293.676	79.482	-0.273	0.291
-292.662	79.589	0.218	-0.232
-291.647	-112.120	-0.161	0.032
-290.632	-200.000	-0.026	0.233
-289.618	194.156	-0.141	0.212
-288.603	55.642	-0.097	0.093
-287.589	-200.000	-0.034	0.161
-286.574	158.054	-0.290	0.398
-285.559	411.133	0.166	-0.350
-284.545	231.233	0.167	-0.271
-283.530	800.000	0.089	0.341
-282.516	156.921	0.094	0.129
-281.501	-64.142	0.206	0.083
-280.486	73.565	0.123	0.128
-279.472	98.992	-0.151	0.173
-278.457	197.343	0.110	0.166
-277.443	-96.773	0.169	0.044
-276.428	-103.987	-0.169	0.039
-275.413	-38.985	0.104	0.054
-274.399	800.000	-0.029	0.102
-273.384	80.518	-0.143	-0.152
-272.370	12.308	0.258	0.197
-271.355	199.685	0.118	-0.179
-270.340	14.600	-0.330	0.256
-269.326	-200.000	0.009	-0.197
-268.311	800.000	-0.042	0.162
-267.297	800.000	0.091	0.363
-266.282	27.304	0.297	-0.247
-265.267	-78.777	0.112	-0.038
-264.253	-104.115	0.207	-0.048
-263.238	800.000	0.088	0.313
-262.224	776.437	-0.114	-0.309
-261.209	446.764	0.078	0.169
-260.195	20.001	-0.053	0.042
-259.180	-34.077	-0.259	0.141
-258.165	28.382	-0.051	0.043
-257.151	-73.421	0.240	-0.087
-256.136	-200.000	0.027	-0.171
-255.122	-116.740	-0.136	-0.025
-254.107	27.500	0.027	0.023
-253.092	800.000	-0.018	-0.065
-252.078	-129.218	0.403	-0.056
-251.063	-200.000	-0.043	0.598
-250.049	41.338	-0.184	0.165
-249.034	-1.782	-0.330	0.230
-248.019	362.445	-0.090	0.178
-247.005	2.876	-0.307	0.220
-245.990	-200.000	0.012	0.463
-244.976	-6.028	-0.317	-0.214
-243.961	-200.000	-0.010	-0.073
-242.946	64.449	0.108	-0.107
-241.932	-51.555	-0.373	0.172
-240.917	-200.000	0.040	0.240
-239.903	68.408	-0.127	0.129
-238.888	12.679	-0.164	0.126
-237.873	-120.653	0.344	0.058
-236.859	800.000	-0.048	-0.151
-235.844	144.253	-0.170	0.224
-234.830	38.461	0.136	-0.120
-233.815	287.891	-0.057	0.102
-232.800	151.348	0.049	-0.066
-231.786	334.275	-0.110	-0.211
-230.771	-200.000	0.027	0.140
-229.757	564.282	-0.018	-0.043
-228.742	-199.031	0.144	-0.001
-227.727	800.000	-0.026	-0.098
-226.713	-51.689	0.167	-0.077
-225.698	-200.000	0.042	-0.230
-224.684	800.000	-0.035	0.130
-223.669	251.476	-0.105	-0.176
-222.655	-26.826	-0.159	0.092
-221.640	-200.000	0.050	0.244
-220.625	-26.538	-0.200	-0.116
-219.611	680.215	0.108	-0.278
-218.596	-70.076	0.205	0.077
-217.582	224.462	0.111	-0.177
-216.567	-94.840	-0.219	0.059
-215.552	2.164	0.041	-0.030
-214.538	-96.857	-0.102	-0.027
-213.523	-49.963	-0.256	0.120
-212.509	-76.575	-0.127	-0.044
-211.494	-105.070	0.164	-0.037
-210.479	-41.691	-0.208	0.106
-209.465	-41.474	-0.170	-0.086
-208.450	-162.689	-0.114	-0.006
-207.436	99.100	-0.116	-0.132
-206.421	-57.170	0.091	-0.040
-205.406	-200.000	-0.196	0.000
-204.392	-56.991	-0.120	0.052
-203.377	91.798	0.238	-0.265
-202.363	-63.244	-0.167	0.068
-201.348	-120.398	0.212	-0.036
-200.333	-51.386	-0.199	-0.092
-199.319	365.390	-0.081	-0.161
-198.304	-200.000	-0.048	0.236
-197.290	800.000	0.025	0.086
-196.275	-106.326	-0.456	-0.101
-195.260	-31.397	0.266	-0.148
-194.246	132.014	-0.062	0.079
-193.231	721.191	0.093	0.245
-192.217	13.138	0.037	-0.029
-191.202	800.000	-0.074	0.203
-190.187	7.070	-0.228	-0.168
-189.173	-200.000	0.017	-0.449
-188.158	800.000	-0.036	-0.115
-187.144	-55.823	0.437	0.193
-186.129	-7.988	0.306	0.204
-185.114	-200.000	0.057	-0.292
-184.100	-200.000	0.046	0.437
-183.085	-58.338	0.122	-0.052
-182.071	419.589	0.105	-0.223
-181.056	-40.835	-0.266	0.136
-180.042	-126.025	0.125	0.019
-179.027	167.037	-0.210	-0.294
-178.012	-17.614	-0.060	-0.037
-176.998	23.659	0.270	-0.219
-175.983	-107.471	-0.113	-0.024
-174.969	-48.743	0.311	-0.147
-173.954	-83.740	0.225	0.071
-172.939	-86.041	-0.185	-0.056
-171.925	-200.000	-0.008	0.132
-170.910	-81.150	0.434	0.142
-169.896	-200.000	0.054	0.313
-168.881	-14.757	-0.234	0.148
-167.866	-200.000	0.013	-0.162
-166.852	131.752	-0.164	0.208
-165.837	124.234	0.012	-0.014
-164.823	-151.391	0.047	0.003
-163.808	-105.031	-0.121	-0.027
-162.793	15.753	0.279	-0.216
-161.779	800.000	-0.042	0.165
-160.764	800.000	0.005	0.018
-159.750	674.176	0.038	-0.097
-158.735	-81.047	0.045	0.015
-157.720	632.498	-0.108	-0.271
-156.706	800.000	-0.101	0.320
-155.691	61.533	-0.139	0.136
-154.677	78.839	-0.221	0.233
-153.662	-54.098	-0.035	-0.016
-152.647	800.000	-0.070	0.300
-151.633	-145.159	-0.145	-0.013
-150.618	-49.634	-0.125	0.058
-149.604	31.442	0.282	0.239
-148.589	-48.536	-0.109	0.052
-147.574	-195.534	-0.365	0.003
-146.560	-134.610	0.066	-0.008
-145.545	800.000	-0.114	-0.330
-144.531	175.906	0.162	-0.231
-143.516	92.793	0.115	0.128
-142.502	-144.365	0.272	0.025
-141.487	11.439	-0.214	-0.162
-140.472	348.172	0.088	-0.170
-139.458	800.000	-0.037	-0.116
-138.443	50.131	-0.077	0.071
-137.429	179.490	0.081	-0.117
-136.414	-41.908	0.068	0.034
-135.399	-72.751	-0.415	0.151
-134.385	585.048	-0.070	0.168
-133.370	-200.000	0.046	0.404
-132.356	-200.000	0.054	-0.279
-131.341	-18.727	0.266	-0.163
-130.326	-60.767	-0.228	0.095
-129.312	145.356	0.130	0.171
-128.297	-200.000	-0.020	0.179
-127.283	-110.693	0.132	0.027
-126.268	-99.770	0.189	0.047
-125.253	-71.742	-0.391	-0.144
-124.239	61.229	0.172	-0.168
-123.224	-200.000	-0.044	0.384
-122.210	800.000	0.116	0.454
-121.195	215.400	-0.272	0.425
-120.180	-200.000	0.025	0.367
-119.166	-1.344	-0.242	0.168
-118.151	-19.667	-0.079	-0.048
-117.137	193.463	0.182	-0.272
-116.122	-71.613	0.035	-0.013
-115.107	-98.793	0.542	0.136
-114.093	-48.768	0.077	0.036
-113.078	-90.885	0.161	-0.046
-112.064	-200.000	0.048	0.286
-111.049	-144.906	0.270	0.024
-110.034	-121.099	0.028	-0.005
-109.020	67.898	0.264	-0.266
-108.005	94.574	-0.194	0.217
-106.991	-31.200	0.289	0.160
-105.976	138.568	0.017	0.023
-104.962	-200.000	-0.038	0.316
-103.947	-37.245	-0.233	-0.123
-102.932	800.000	0.039	-0.141
-101.918	390.834	0.059	0.120
-100.903	800.000	-0.002	0.006
-99.889	5.722	0.226	-0.164
-98.874	-182.101	-0.207	0.004
-97.859	-200.000	-0.053	0.332
-96.845	551.459	0.073	-0.173
-95.830	380.958	0.026	-0.052
-94.816	779.903	-0.047	-0.126
-93.801	-85.120	0.030	-0.009
-92.786	166.234	0.134	-0.186
-91.772	-29.414	-0.169	0.095
-90.757	-133.042	0.403	-0.050
-89.743	278.654	-0.160	-0.281
-88.728	-191.070	0.200	0.002
-87.713	-72.551	0.142	0.052
-86.699	271.141	-0.285	-0.493
-85.684	48.070	0.136	-0.125
-84.670	800.000	-0.103	-0.297
-83.655	163.395	0.069	0.095
-82.640	-127.465	-0.388	0.055
-81.626	800.000	0.032	-0.118
-80.611	-94.794	0.392	-0.105
-79.597	28.277	0.188	-0.156
-78.582	286.756	-0.082	-0.146
-77.567	507.683	0.060	-0.137
-76.553	196.752	0.068	0.102
-75.538	-81.133	0.150	-0.049
-74.524	-21.800	-0.264	0.158
-73.509	565.131	-0.032	0.076
-72.494	327.170	-0.134	0.252
-71.480	-107.720	0.111	0.024
-70.465	18.981	-0.198	0.156
-69.451	381.494	0.110	-0.222
-68.436	-18.204	-0.054	0.033
-67.422	800.000	-0.077	-0.297
-66.407	-55.647	-0.145	0.064
-65.392	-200.000	0.052	0.425
-64.378	306.547	0.053	-0.098
-63.363	42.647	-0.268	-0.239
-62.349	-200.000	-0.021	0.141
-61.334	5.322	-0.665	-0.481
-60.319	800.000	0.205	0.754
-59.305	-200.000	0.020	-0.703
-58.290	50.072	0.647	0.600
-57.276	512.159	0.755	1.727
-56.261	-200.000	98.784	589.839
-55.246	552.934	1393.980	3290.222
-54.232	153.784	2597.886	3496.818
-53.217	107.954	2281.992	2670.842
-52.203	43.627	1899.289	1706.392
-51.188	37.579	1689.648	1472.397
-50.173	34.811	1645.105	1413.090
-49.159	53.116	1693.945	1592.651
-48.144	56.152	1711.620	1631.924
-47.130	37.263	1668.197	1451.108
-46.115	34.395	1653.107	1416.651
-45.100	34.319	1647.721	1411.413
-44.086	34.258	1645.429	1408.945
-43.071	34.203	1642.717	1406.163
-42.057	34.221	1640.331	1404.192
-41.042	34.311	1638.527	1403.257
-40.027	34.221	1636.485	1400.792
-39.013	34.181	1634.532	1398.769
-37.998	34.196	1632.991	1397.502
-36.984	34.328	1631.265	1396.944
-35.969	34.262	1630.086	1395.391
-34.954	34.362	1627.831	1394.140
-33.940	34.340	1626.538	1392.811
-32.925	34.338	1624.640	1391.116
-31.911	34.286	1623.169	1389.422
-30.896	34.290	1620.848	1387.414
-29.881	34.358	1619.359	1386.579
-28.867	34.283	1618.191	1384.976
-27.852	34.338	1616.649	1384.001
-26.838	34.346	1614.816	1382.436
-25.823	34.341	1613.421	1381.147
-24.809	34.384	1612.355	1380.495
-23.794	34.354	1611.074	1379.123
-22.779	34.438	1609.269	1378.134
-21.765	34.353	1608.051	1376.422
-20.750	34.440	1606.120	1375.344
-19.736	34.385	1605.193	1374.100
-18.721	34.479	1603.432	1373.212
-17.706	34.419	1601.926	1371.434
-16.692	34.359	1600.377	1369.622
-15.677	34.391	1599.065	1368.680
-14.663	34.447	1597.384	1367.585
-13.648	34.299	1596.194	1365.450
-12.633	34.327	1595.115	1364.675
-11.619	34.518	1592.798	1364.001
-10.604	34.437	1591.796	1362.515
-9.590	34.392	1590.801	1361.286
-8.575	34.504	1588.992	1360.486
-7.560	34.405	1587.854	1358.751
-6.546	34.405	1586.701	1357.707
-5.531	34.493	1585.491	1357.248
-4.517	34.432	1584.338	1355.774
-3.502	34.317	1583.604	1354.268
-2.487	34.497	1581.777	1353.932
-1.473	34.144	1570.242	1341.517
-0.458	31.309	1550.853	1305.130
0.556	27.976	1551.302	1274.486
1.571	25.622	1575.304	1277.395
2.586	25.120	1589.016	1284.809
3.600	22.152	1536.153	1221.359
4.615	12.462	1425.044	1070.138
5.629	3.581	1357.992	964.396
6.644	2.021	1348.539	947.912
7.659	1.878	1347.741	946.377
8.673	1.791	1346.389	944.809
9.688	1.750	1344.164	942.908
10.702	1.451	1341.594	939.174
11.717	5.008	1348.547	966.025
12.731	15.348	1367.637	1044.291
13.746	23.893	1381.986	1108.680
14.761	25.880	1384.299	1122.828
15.775	26.129	1384.490	1124.438
16.790	26.119	1384.533	1124.309
17.804	26.346	1383.375	1124.686
18.819	26.498	1383.624	1125.730
19.834	26.513	1382.911	1125.143
20.848	26.585	1381.782	1124.571
21.863	26.698	1380.924	1124.480
22.877	26.666	1379.854	1123.309
23.892	26.545	1379.693	1122.325
24.907	26.549	1378.845	1121.564
25.921	26.707	1377.215	1121.118
26.936	26.639	1377.073	1120.479
27.950	26.709	1375.427	1119.478
28.965	26.674	1374.378	1118.304
29.980	26.633	1372.794	1116.664
30.994	26.655	1371.506	1115.656
32.009	26.579	1370.884	1114.583
33.023	26.648	1369.904	1114.108
34.038	26.618	1368.362	1112.571
35.053	26.666	1367.514	1112.083
36.067	26.626	1366.769	1111.131
37.082	26.607	1365.665	1110.018
38.096	26.566	1365.264	1109.340
39.111	26.550	1364.718	1108.703
40.126	26.635	1363.511	1108.145
41.140	26.626	1362.924	1107.512
42.155	26.602	1362.625	1107.028
43.169	26.560	1362.801	1106.814
44.184	26.533	1362.694	1106.463
45.199	26.688	1361.586	1106.413
46.213	26.576	1361.914	1105.898
47.228	26.651	1359.942	1104.654
48.242	26.713	1359.034	1104.199
49.257	26.626	1357.444	1102.279
50.271	26.679	1356.176	1101.479
51.286	26.658	1355.234	1100.488
52.301	26.628	1354.024	1099.223
53.315	26.572	1352.986	1097.941
54.330	26.658	1352.001	1097.571
55.344	26.634	1350.823	1096.368
56.359	26.542	1349.974	1095.029
57.374	26.623	1349.017	1094.645
58.388	26.605	1348.508	1094.028
59.403	26.645	1348.075	1093.820
60.417	26.641	1347.567	1093.288
61.432	26.549	1347.092	1092.250
62.447	26.600	1346.009	1091.579
63.461	26.638	1344.748	1090.692
64.476	26.597	1344.445	1090.104
65.490	26.569	1342.917	1088.597
66.505	26.573	1341.026	1086.992
67.520	26.669	1340.077	1086.702
68.534	26.668	1338.724	1085.505
69.549	26.675	1337.780	1084.684
70.563	26.584	1337.548	1083.854
71.578	26.573	1336.034	1082.466
72.593	26.759	1335.245	1082.843
73.607	26.616	1334.642	1081.407
74.622	26.693	1333.986	1081.236
75.636	26.655	1333.385	1080.427
76.651	26.617	1332.758	1079.599
77.666	26.685	1332.027	1079.314
78.680	26.654	1331.672	1078.745
79.695	26.699	1330.617	1078.065
80.709	26.659	1329.977	1077.215
81.724	26.616	1329.331	1076.339
82.739	26.611	1328.427	1075.480
83.753	26.685	1327.024	1074.691
84.768	26.692	1326.199	1073.966
85.782	26.703	1325.222	1073.146
86.797	26.616	1324.355	1071.837
87.812	26.750	1322.778	1071.253
88.826	26.643	1322.079	1069.965
89.841	26.692	1320.468	1068.856
90.855	26.757	1319.499	1068.359
91.870	26.707	1319.155	1067.688
92.884	26.690	1318.545	1067.000
93.899	26.723	1317.424	1066.194
94.914	26.683	1316.642	1065.230
95.928	26.600	1316.167	1064.268
96.943	26.717	1315.369	1064.214
97.957	26.706	1314.706	1063.516
98.972	26.746	1313.732	1062.870
99.987	26.621	1312.975	1061.429
101.001	26.713	1311.665	1060.820
102.016	26.596	1311.257	1059.710
103.030	26.708	1310.000	1059.251
104.045	26.684	1309.437	1058.566
105.060	26.714	1308.560	1057.937
106.074	26.764	1307.372	1057.172
107.089	26.697	1306.501	1055.984
108.103	26.832	1304.976	1055.443
109.118	26.742	1304.652	1054.564
110.133	26.847	1303.062	1053.798
111.147	26.819	1302.229	1052.868
112.162	26.800	1300.679	1051.415
113.176	26.692	1300.371	1050.444
114.191	26.693	1299.819	1049.913
115.206	26.645	1298.448	1048.432
116.220	26.783	1296.981	1047.955
117.235	26.730	1296.289	1046.995
118.249	26.721	1295.372	1046.113
119.264	26.718	1294.640	1045.411
120.279	26.780	1293.779	1044.979
121.293	26.822	1292.794	1044.333
122.308	26.884	1291.840	1043.829
123.322	26.914	1291.058	1043.274
124.337	26.828	1290.111	1041.921
125.352	26.882	1289.294	1041.484
126.366	26.761	1288.794	1040.291
127.381	26.876	1287.789	1040.048
128.395	26.732	1287.085	1038.563
129.410	26.791	1286.274	1038.155
130.424	26.858	1285.663	1037.952
131.439	26.929	1284.364	1037.219
132.454	26.826	1283.589	1035.909
133.468	26.830	1283.092	1035.439
134.483	26.753	1282.650	1034.554
135.497	26.796	1281.893	1034.097
136.512	26.864	1280.455	1033.234
137.527	26.772	1279.678	1031.989
138.541	26.825	1278.106	1030.933
139.556	26.849	1277.466	1030.463
140.570	26.820	1276.552	1029.465
141.585	26.788	1275.240	1028.136
142.600	26.737	1274.087	1026.826
143.614	26.787	1273.433	1026.495
144.629	26.831	1272.442	1025.853
145.643	26.737	1271.508	1024.479
146.658	26.802	1270.158	1023.668
147.673	26.708	1269.682	1022.662
148.687	26.829	1268.419	1022.234
149.702	26.666	1267.804	1020.729
150.716	26.733	1266.511	1019.975
151.731	26.690	1265.250	1018.631
152.746	26.746	1264.385	1018.160
153.760	26.741	1263.631	1017.431
154.775	26.913	1262.348	1017.271
155.789	26.814	1261.624	1016.045
156.804	26.833	1260.732	1015.345
157.819	26.766	1260.056	1014.333
158.833	26.729	1259.556	1013.635
159.848	26.836	1258.931	1013.638
160.862	26.797	1258.080	1012.645
161.877	26.846	1257.380	1012.270
162.892	26.836	1256.078	1011.077
163.906	26.808	1255.691	1010.520
164.921	26.973	1254.570	1010.443
165.935	26.917	1253.834	1009.451
166.950	26.965	1253.603	1009.445
167.964	26.778	1253.247	1008.028
168.979	26.969	1252.431	1008.343
169.994	26.860	1251.785	1007.126
171.008	27.026	1250.820	1007.181
172.023	27.007	1250.082	1006.397
173.037	26.993	1249.481	1005.742
174.052	26.958	1248.930	1005.019
175.067	26.912	1248.169	1004.062
176.081	26.998	1247.265	1003.722
177.096	26.845	1246.918	1002.508
178.110	26.897	1245.774	1001.789
179.125	27.068	1244.241	1001.407
180.140	26.981	1243.841	1000.516
181.154	27.006	1242.479	999.472
182.169	26.999	1241.570	998.614
183.183	26.943	1240.457	997.324
184.198	26.976	1239.664	996.775
185.213	26.959	1238.379	995.563
186.227	27.069	1237.791	995.606
187.242	27.042	1236.599	994.413
188.256	26.940	1236.288	993.513
189.271	27.015	1234.982	992.785
190.286	27.082	1234.416	992.610
191.300	27.017	1233.844	991.705
192.315	26.998	1233.487	991.227
193.329	26.954	1233.090	990.580
194.344	27.125	1232.340	990.822
195.359	27.064	1231.815	989.984
196.373	27.027	1231.557	989.483
197.388	26.916	1231.334	988.613
198.402	26.932	1230.915	988.276
199.417	26.913	1230.107	987.439
200.432	27.063	1229.362	987.566
201.446	27.007	1228.866	986.778
202.461	27.071	1228.423	986.682
203.475	27.050	1227.404	985.665
204.490	26.966	1226.699	984.552
205.504	27.073	1225.530	984.106
206.519	27.089	1224.661	983.411
207.534	27.147	1223.611	982.793
208.548	27.035	1223.008	981.615
209.563	27.218	1221.864	981.598
210.577	27.034	1221.362	980.116
211.592	27.060	1220.303	979.317
212.607	27.262	1219.778	979.900
213.621	27.231	1218.832	978.886
214.636	27.099	1218.407	977.746
215.650	27.274	1217.384	977.780
216.665	27.136	1216.036	975.873
217.680	27.109	1215.385	975.121
218.694	27.279	1214.577	975.293
219.709	27.145	1214.030	974.052
220.723	27.184	1213.435	973.695
221.738	27.170	1212.295	972.621
222.753	27.137	1211.680	971.863
223.767	27.074	1211.612	971.390
224.782	27.175	1211.105	971.437
225.796	27.210	1210.186	970.799
226.811	27.098	1210.088	970.036
227.826	27.202	1209.302	969.874
228.840	27.137	1209.055	969.243
229.855	27.214	1207.960	968.694
230.869	27.277	1207.363	968.462
231.884	27.317	1206.646	968.014
232.899	27.262	1205.909	967.045
233.913	27.264	1205.165	966.375
234.928	27.314	1204.590	966.094
235.942	27.386	1203.921	965.854
236.957	27.369	1203.298	965.175
237.972	27.289	1202.694	964.184
238.986	27.294	1201.894	963.483
240.001	27.451	1201.498	963.910
241.015	27.387	1200.772	962.904
242.030	27.357	1200.100	962.125
243.045	27.385	1198.987	961.295
244.059	27.283	1198.922	960.617
245.074	27.366	1197.664	959.964
246.088	27.365	1196.990	959.331
247.103	27.401	1196.070	958.702
248.117	27.516	1195.064	958.414
249.132	27.429	1194.913	957.748
250.147	27.437	1194.118	957.071
251.161	27.501	1193.342	956.699
252.176	27.447	1192.765	955.866
253.190	27.479	1191.874	955.235
254.205	27.507	1191.349	954.879
255.220	27.500	1190.741	954.273
256.234	27.511	1190.199	953.811
257.249	27.555	1189.406	953.317
258.263	27.495	1189.209	952.762
259.278	27.541	1188.521	952.368
260.293	27.499	1187.950	951.608
261.307	27.646	1187.294	951.765
262.322	27.649	1186.784	951.286
263.336	27.549	1186.189	950.206
264.351	27.659	1185.222	949.917
265.366	27.592	1184.657	949.031
266.380	27.565	1184.060	948.333
267.395	27.607	1183.206	947.779
268.409	27.590	1182.832	947.310
269.424	27.389	1182.718	946.092
270.439	27.574	1181.815	946.245
271.453	27.612	1181.326	945.967
272.468	27.494	1180.557	944.654
273.482	27.576	1179.979	944.533
274.497	27.598	1179.223	943.961
275.512	27.637	1178.624	943.597
276.526	27.651	1177.909	943.015
277.541	27.729	1177.144	942.722
278.555	27.639	1177.145	942.173
279.570	27.689	1176.150	941.552
280.585	27.613	1175.465	940.527
281.599	27.640	1174.737	940.000
282.614	27.714	1173.361	939.199
283.628	27.763	1172.633	938.783
284.643	27.780	1171.491	937.875
285.657	27.765	1170.719	937.095
286.672	27.662	1169.953	935.871
287.687	27.694	1169.348	935.467
288.701	27.761	1168.823	935.309
289.716	27.760	1167.697	934.321
290.730	27.785	1167.330	934.073
291.745	27.806	1166.702	933.597
292.760	27.720	1166.624	933.012
293.774	27.844	1165.606	932.746
294.789	28.007	1164.802	932.855
295.803	27.916	1164.429	932.006
296.818	27.828	1163.596	930.808
297.833	27.927	1163.129	930.859
298.847	27.919	1162.487	930.219
299.862	27.848	1161.785	929.218
300.876	27.974	1160.851	929.025
301.891	27.898	1160.656	928.402
302.906	28.003	1159.851	928.208
303.920	27.954	1159.245	927.394
304.935	27.968	1158.616	926.880
305.949	27.957	1157.922	926.188
306.964	27.911	1157.558	925.582
307.979	27.863	1156.995	924.808
308.993	28.030	1156.012	924.783
310.008	28.000	1155.368	924.037
311.022	28.146	1154.291	923.826
312.037	27.962	1153.970	922.559
313.052	27.966	1153.249	921.924
314.066	27.955	1152.255	920.990
315.081	28.004	1151.445	920.510
316.095	28.055	1150.960	920.299
317.110	28.043	1150.737	919.978
318.125	28.131	1149.691	919.502
319.139	28.014	1149.200	918.439
320.154	28.031	1148.797	918.119
321.168	28.065	1148.497	917.969
322.183	28.089	1147.729	917.397
323.197	27.987	1146.977	916.205
324.212	28.052	1146.446	916.022
325.227	28.155	1146.165	916.236
326.241	28.208	1145.159	915.613
327.256	28.188	1144.323	914.766
328.270	28.133	1143.883	914.058
329.285	28.179	1142.918	913.436
330.300	28.243	1142.127	913.039
331.314	28.165	1141.144	911.784
332.329	28.160	1140.483	911.152
333.343	28.354	1139.455	911.212
334.358	28.270	1138.904	910.274
335.373	28.296	1138.247	909.799
336.387	28.344	1137.311	909.210
337.402	28.402	1136.834	909.033
338.416	28.198	1136.952	908.037
339.431	28.285	1136.031	907.650
340.446	28.269	1135.515	907.082
341.460	28.423	1134.422	906.888
342.475	28.381	1133.889	906.175
343.489	28.470	1132.917	905.755
344.504	28.367	1131.671	904.172
345.519	28.388	1131.152	903.782
346.533	28.386	1130.599	903.249
347.548	28.413	1129.913	902.757
348.562	28.345	1129.359	901.896
349.577	28.360	1128.619	901.301
350.592	28.364	1127.853	900.628
351.606	28.217	1127.491	899.536
352.621	28.384	1126.845	899.765
353.635	28.451	1125.931	899.285
354.650	28.413	1125.483	898.659
355.665	28.471	1124.709	898.246
356.679	28.491	1124.431	898.044
357.694	28.534	1123.591	897.501
358.708	28.490	1123.123	896.834
359.723	28.511	1122.122	896.055
360.738	28.422	1121.781	895.270
361.752	28.472	1121.133	894.921
362.767	28.555	1120.466	894.712
363.781	28.435	1120.200	893.835
364.796	28.707	1118.656	893.846
365.810	28.527	1118.580	892.830
366.825	28.523	1118.443	892.623
367.840	28.627	1117.856	892.585
368.854	28.686	1116.962	892.076
369.869	28.714	1116.137	891.477
370.883	28.703	1115.684	890.983
371.898	28.787	1114.625	890.462
372.913	28.683	1114.344	889.656
373.927	28.694	1113.868	889.253
374.942	28.728	1113.479	889.024
375.956	28.804	1112.804	888.774
376.971	28.836	1112.145	888.324
377.986	28.780	1111.687	887.609
379.000	28.847	1111.378	887.607
380.015	28.858	1110.796	887.121
381.029	28.863	1109.780	886.252
382.044	28.887	1109.159	885.795
383.059	28.844	1108.511	884.991
384.073	28.780	1108.104	884.282
385.088	28.813	1107.133	883.588
386.102	28.827	1106.599	883.148
387.117	28.847	1105.320	882.143
388.132	28.804	1104.734	881.392
389.146	28.776	1104.070	880.653
390.161	28.850	1103.827	880.735
391.175	28.875	1103.014	880.127
392.190	28.891	1102.451	879.677
393.205	28.763	1101.989	878.619
394.219	28.860	1100.747	878.014
395.234	29.008	1099.754	877.853
396.248	28.961	1099.200	877.106
397.263	28.936	1098.530	876.374
398.278	29.143	1097.645	876.574
399.292	29.082	1097.152	875.816
400.307	29.003	1096.847	875.117
401.321	28.981	1096.211	874.430
402.336	29.099	1095.272	874.161
403.350	29.057	1094.410	873.199
404.365	29.079	1093.948	872.857
405.380	29.032	1093.565	872.252
406.394	29.160	1092.682	872.078
407.409	29.146	1091.984	871.374
408.423	29.172	1091.058	870.681
409.438	29.156	1090.605	870.170
410.453	29.172	1090.256	869.888
411.467	29.261	1089.155	869.352
412.482	29.159	1088.562	868.321
413.496	29.219	1088.205	868.244
414.511	29.179	1087.420	867.351
415.526	29.230	1087.076	867.242
416.540	29.274	1086.411	866.842
417.555	29.201	1086.158	866.218
418.569	29.268	1085.702	866.095
419.584	29.282	1084.925	865.463
420.599	29.361	1084.412	865.348
421.613	102.716	1318.361	1448.847
422.628	95.636	1352.404	1448.937
