DTS Sentinel unit serial number:	SN413079Multiplexer serial number:	ORYXHardware model number:	OX4-SRSoftware version number:	ORYX F/W v4.00 Oryx Data Collector v3.7.2.0data status	okinstallation	princeton_trtdifferential loss correction	single-endedforward channel	channel 2reverse channel	N/Adate	2019/09/15time	05:47:34forward acquisition time	60.00reverse acquisition time	0.00gamma	496.2192k internal	0.2326k external	0.2326temperature offset calibration	1.0038default loss term (dB/km)	0.3790temperature slope calibration	1.0000multiplexer offset coefficient	1.0000multiplexer slope coefficient	1.0000fibre end	0.00T internal ref (°C)	30.62T ext. ref 1 (°C)	4.85T ext. ref 2 (°C)	25.67length (m)	temperature (°C)	Stokes	anti-Stokes-747.200	199.357	-0.185	-0.287
-746.185	17.691	-0.115	0.092
-745.171	800.000	0.054	-0.177
-744.156	-111.093	-0.329	-0.068
-743.142	-135.385	-0.207	-0.025
-742.127	-38.323	0.168	0.090
-741.112	800.000	0.045	-0.156
-740.098	37.720	-0.216	0.193
-739.083	-200.000	-0.037	0.175
-738.069	269.456	0.039	-0.069
-737.054	55.081	0.125	-0.122
-736.039	-48.373	-0.288	0.140
-735.025	-76.279	0.324	0.115
-734.010	-32.860	-0.190	0.106
-732.996	-43.800	-0.238	0.121
-731.981	-107.349	-0.344	-0.076
-730.966	82.109	-0.024	-0.026
-729.952	230.613	-0.178	-0.294
-728.937	143.793	-0.087	-0.117
-727.923	-1.993	0.169	-0.120
-726.908	-37.997	0.166	0.089
-725.894	68.461	-0.195	0.202
-724.879	-103.852	-0.237	-0.056
-723.864	800.000	-0.026	-0.077
-722.850	-136.477	-0.171	0.020
-721.835	-92.149	0.276	-0.078
-720.821	-144.949	0.329	0.030
-719.806	-78.549	-0.447	-0.154
-718.791	-16.616	-0.074	0.047
-717.777	800.000	-0.097	-0.311
-716.762	16.506	0.245	-0.195
-715.748	87.716	0.064	-0.071
-714.733	-150.485	0.150	0.012
-713.718	455.124	0.032	-0.071
-712.704	93.385	0.146	-0.167
-711.689	-136.905	0.159	-0.018
-710.675	-53.565	0.079	-0.036
-709.660	-200.000	-0.007	-0.125
-708.645	800.000	-0.057	-0.208
-707.631	90.379	-0.120	-0.135
-706.616	-36.716	-0.223	-0.121
-705.602	800.000	0.068	0.276
-704.587	-28.887	0.074	-0.043
-703.572	-35.966	0.231	-0.126
-702.558	-6.490	-0.080	-0.055
-701.543	13.440	-0.177	-0.138
-700.529	-111.107	-0.180	-0.037
-699.514	-200.000	0.005	-0.063
-698.499	-4.644	-0.154	0.107
-697.485	800.000	-0.079	0.305
-696.470	102.289	0.088	-0.104
-695.456	-200.000	0.005	-0.034
-694.441	-200.000	0.013	-0.296
-693.426	-180.185	0.154	0.003
-692.412	13.532	0.233	0.182
-691.397	100.136	0.078	0.091
-690.383	426.667	0.044	-0.096
-689.368	169.285	-0.374	-0.538
-688.354	170.181	0.110	0.159
-687.339	228.099	-0.032	0.053
-686.324	-38.226	0.287	-0.153
-685.310	470.289	0.066	-0.150
-684.295	-200.000	-0.060	0.314
-683.281	-92.556	-0.209	-0.059
-682.266	-200.000	0.013	-0.143
-681.251	10.750	-0.370	-0.284
-680.237	-75.672	0.139	-0.050
-679.222	539.889	-0.127	0.304
-678.208	-125.030	-0.297	0.046
-677.193	42.851	0.200	-0.183
-676.178	124.350	-0.205	-0.259
-675.164	273.614	-0.135	-0.240
-674.149	-200.000	-0.037	0.225
-673.135	-117.793	0.115	0.021
-672.120	-17.258	-0.186	-0.118
-671.105	564.608	0.073	0.177
-670.091	-200.000	0.041	-0.191
-669.076	-200.000	-0.057	-0.271
-668.062	-79.181	-0.149	-0.051
-667.047	800.000	0.133	0.413
-666.032	800.000	-0.072	-0.264
-665.018	77.965	-0.184	-0.198
-664.003	477.417	-0.084	-0.191
-662.989	-165.509	-0.450	-0.020
-661.974	-73.208	0.217	-0.080
-660.959	-37.860	-0.126	0.067
-659.945	622.495	0.019	0.049
-658.930	92.367	0.048	-0.054
-657.916	57.773	-0.083	0.082
-656.901	-61.277	-0.379	0.160
-655.886	-73.281	0.427	-0.157
-654.872	39.750	-0.123	-0.111
-653.857	54.178	0.022	0.021
-652.843	-200.000	-0.026	0.207
-651.828	-200.000	-0.072	-0.597
-650.814	88.933	0.312	-0.349
-649.799	26.744	0.111	0.094
-648.784	-68.404	0.012	-0.005
-647.770	-200.000	-0.009	-0.062
-646.755	481.992	0.104	0.237
-645.741	-200.000	-0.056	0.331
-644.726	272.318	-0.133	0.236
-643.711	-61.096	-0.310	0.131
-642.697	385.513	0.048	0.099
-641.682	21.688	0.192	-0.157
-640.668	800.000	0.076	-0.332
-639.653	800.000	-0.108	-0.402
-638.638	177.419	0.052	0.075
-637.624	372.863	0.091	-0.186
-636.609	268.178	0.071	0.126
-635.595	-151.322	-0.141	-0.011
-634.580	-26.311	-0.234	0.138
-633.565	120.315	-0.154	-0.192
-632.551	-89.816	-0.140	-0.041
-631.536	127.360	-0.053	0.068
-630.522	-200.000	-0.038	-0.383
-629.507	-91.992	-0.205	-0.058
-628.492	-62.166	-0.284	0.119
-627.478	-35.435	0.124	0.068
-626.463	80.460	0.161	0.174
-625.449	-200.000	0.036	0.304
-624.434	205.766	-0.123	0.191
-623.419	152.068	0.224	0.307
-622.405	-77.282	0.216	0.075
-621.390	-92.136	-0.308	-0.088
-620.376	505.448	-0.048	0.111
-619.361	37.163	-0.119	-0.106
-618.346	-200.000	-0.010	0.110
-617.332	-61.663	-0.089	0.038
-616.317	-96.507	0.114	-0.030
-615.303	-37.788	0.116	0.062
-614.288	-33.067	-0.198	0.110
-613.273	-2.231	0.386	-0.272
-612.259	-54.225	-0.106	-0.048
-611.244	-200.000	0.010	0.137
-610.230	424.340	0.184	-0.398
-609.215	190.186	-0.046	0.070
-608.201	-94.408	-0.370	-0.101
-607.186	-200.000	-0.009	0.081
-606.171	-29.860	-0.158	0.090
-605.157	-64.201	-0.148	-0.061
-604.142	99.706	-0.126	-0.146
-603.128	100.517	0.212	0.246
-602.113	3.123	0.196	-0.143
-601.098	-172.390	-0.330	0.011
-600.084	0.204	0.186	-0.133
-599.069	-38.382	0.097	-0.051
-598.055	5.501	-0.201	-0.149
-597.040	-200.000	-0.022	0.263
-596.025	-149.750	-0.105	-0.008
-595.011	-28.918	-0.229	-0.132
-593.996	-37.889	0.132	-0.070
-592.982	-200.000	0.031	-0.142
-591.967	-154.898	0.150	0.010
-590.952	-200.000	0.007	-0.070
-589.938	-45.640	-0.151	0.075
-588.923	140.233	0.170	-0.225
-587.909	57.542	0.109	-0.107
-586.894	60.623	-0.139	0.138
-585.879	336.437	-0.020	0.038
-584.865	139.862	0.164	-0.216
-583.850	-110.770	0.078	-0.016
-582.836	12.374	-0.259	0.200
-581.821	-177.765	0.214	-0.005
-580.806	-95.399	-0.134	-0.036
-579.792	765.679	-0.123	-0.335
-578.777	-200.000	-0.012	-0.167
-577.763	108.397	-0.169	0.202
-576.748	-39.459	0.106	0.056
-575.733	123.957	0.063	-0.079
-574.719	142.264	-0.093	-0.124
-573.704	170.646	0.070	-0.100
-572.690	-200.000	-0.027	0.133
-571.675	-200.000	0.007	-0.071
-570.661	136.117	0.264	-0.345
-569.646	557.610	0.053	-0.129
-568.631	-94.147	0.226	0.062
-567.617	-171.746	0.288	-0.009
-566.602	-81.256	0.254	0.084
-565.588	800.000	-0.134	0.504
-564.573	-110.805	0.274	0.057
-563.558	-200.000	0.007	0.170
-562.544	1.703	0.216	-0.156
-561.529	-200.000	-0.016	0.231
-560.515	206.495	-0.117	0.183
-559.500	446.453	0.047	-0.104
-558.485	33.192	0.395	-0.343
-557.471	68.738	-0.111	-0.114
-556.456	-106.479	-0.411	0.092
-555.442	-85.644	-0.226	0.070
-554.427	734.168	-0.116	0.311
-553.412	-90.780	0.239	-0.069
-552.398	-109.824	-0.328	-0.069
-551.383	-86.718	-0.075	-0.023
-550.369	-29.852	-0.122	-0.069
-549.354	-72.783	0.125	0.046
-548.339	299.300	0.050	-0.092
-547.325	800.000	0.101	-0.370
-546.310	-47.579	-0.165	-0.080
-545.296	-105.607	0.514	-0.117
-544.281	129.539	-0.220	0.281
-543.266	16.236	-0.044	-0.035
-542.252	-200.000	-0.005	0.487
-541.237	81.815	-0.217	0.235
-540.223	-66.047	-0.082	0.033
-539.208	-136.895	-0.146	-0.017
-538.193	-139.154	0.173	0.019
-537.179	-66.264	-0.245	0.098
-536.164	-44.025	-0.160	-0.081
-535.150	-165.536	0.463	0.020
-534.135	219.528	-0.046	0.073
-533.121	-96.965	-0.151	-0.040
-532.106	261.218	0.013	0.023
-531.091	-46.559	0.055	-0.027
-530.077	-200.000	0.069	-0.428
-529.062	-9.036	-0.370	-0.248
-528.048	-22.206	0.080	-0.049
-527.033	800.000	-0.030	0.107
-526.018	-120.915	0.226	0.038
-525.004	713.984	0.152	0.402
-523.989	-66.947	-0.240	0.095
-522.975	-15.597	0.271	0.173
-521.960	296.630	-0.127	-0.233
-520.945	-100.357	0.233	0.058
-519.931	476.554	0.121	0.274
-518.916	-52.164	0.412	0.191
-517.902	-200.000	-0.001	-0.075
-516.887	-139.647	0.294	0.031
-515.872	163.498	-0.104	0.146
-514.858	-200.000	-0.020	0.350
-513.843	146.903	0.033	-0.044
-512.829	104.360	-0.079	0.093
-511.814	-33.394	0.214	-0.118
-510.799	-29.959	0.057	-0.032
-509.785	-200.000	-0.005	-0.044
-508.770	-7.071	-0.071	0.048
-507.756	301.114	0.058	0.107
-506.741	-45.853	0.077	0.038
-505.726	-124.623	-0.192	0.030
-504.712	-115.219	-0.124	-0.023
-503.697	-43.300	-0.133	-0.067
-502.683	800.000	0.094	-0.294
-501.668	-106.293	0.174	-0.039
-500.653	-155.252	0.223	0.015
-499.639	647.132	-0.044	-0.113
-498.624	800.000	0.097	0.316
-497.610	193.726	-0.226	-0.342
-496.595	136.790	0.108	-0.141
-495.581	75.100	0.096	0.101
-494.566	-200.000	-0.016	-0.120
-493.551	-38.200	0.229	0.121
-492.537	-200.000	-0.042	-0.299
-491.522	50.376	-0.109	0.103
-490.508	-160.921	-0.172	-0.009
-489.493	800.000	0.072	0.261
-488.478	226.413	0.147	-0.237
-487.464	726.720	-0.103	-0.275
-486.449	-126.927	0.400	0.059
-485.435	-132.018	0.128	-0.017
-484.420	-78.513	-0.244	-0.083
-483.405	800.000	-0.013	-0.054
-482.391	29.091	-0.149	-0.127
-481.376	19.767	-0.217	0.175
-480.362	-173.276	-0.166	-0.005
-479.347	70.040	-0.195	-0.201
-478.332	-134.731	0.330	-0.040
-477.318	-146.249	0.129	0.011
-476.303	800.000	0.052	-0.173
-475.289	3.278	0.314	0.228
-474.274	15.627	-0.211	-0.165
-473.259	-46.212	-0.086	0.042
-472.245	142.357	0.243	0.323
-471.230	-98.002	-0.510	0.131
-470.216	51.438	0.171	-0.162
-469.201	-200.000	0.033	-0.162
-468.186	-38.307	0.167	0.088
-467.172	-109.303	-0.221	-0.047
-466.157	19.475	-0.104	-0.084
-465.143	25.777	-0.249	-0.207
-464.128	181.427	-0.290	-0.426
-463.113	30.167	-0.163	-0.139
-462.099	122.872	-0.144	0.179
-461.084	253.825	-0.111	0.190
-460.070	45.893	0.119	0.110
-459.055	800.000	0.046	-0.129
-458.040	-43.604	-0.187	0.094
-457.026	14.434	0.164	0.128
-456.011	800.000	-0.063	0.232
-454.997	-200.000	0.028	-0.169
-453.982	46.969	0.090	0.083
-452.968	272.786	-0.175	0.308
-451.953	-200.000	-0.016	0.296
-450.938	179.997	0.136	0.199
-449.924	-115.808	-0.442	0.082
-448.909	270.257	-0.209	-0.367
-447.895	1.560	-0.218	-0.156
-446.880	155.089	-0.115	0.157
-445.865	-139.818	0.171	-0.018
-444.851	800.000	-0.125	-0.397
-443.836	-96.354	-0.289	0.076
-442.822	44.170	-0.122	-0.111
-441.807	432.432	0.093	-0.200
-440.792	-62.212	-0.299	-0.124
-439.778	-60.846	-0.279	-0.118
-438.763	-82.122	0.034	-0.011
-437.749	197.614	-0.029	-0.044
-436.734	800.000	-0.069	0.254
-435.719	-81.209	0.048	-0.016
-434.705	-52.537	-0.269	-0.124
-433.690	141.633	-0.212	0.280
-432.676	800.000	-0.112	-0.336
-431.661	66.382	0.191	-0.194
-430.646	800.000	-0.018	0.066
-429.632	-139.975	0.128	-0.013
-428.617	-117.163	0.277	-0.050
-427.603	695.398	0.184	0.480
-426.588	254.557	-0.139	0.237
-425.573	-92.785	0.182	-0.051
-424.559	-200.000	-0.007	0.038
-423.544	-200.000	-0.047	0.230
-422.530	-88.544	0.424	0.126
-421.515	91.872	-0.169	-0.190
-420.500	93.199	0.187	0.211
-419.486	-76.865	0.080	0.028
-418.471	-139.348	-0.122	0.013
-417.457	-133.002	0.497	-0.063
-416.442	800.000	0.051	-0.146
-415.428	-12.404	-0.216	0.140
-414.413	280.977	0.134	0.239
-413.398	-178.435	0.244	0.006
-412.384	706.891	0.063	0.164
-411.369	-105.696	-0.070	0.016
-410.355	-2.039	-0.011	-0.008
-409.340	751.714	0.076	0.205
-408.325	-139.013	0.445	-0.048
-407.311	74.088	-0.254	0.266
-406.296	-54.950	0.296	-0.133
-405.282	-97.325	-0.038	-0.010
-404.267	203.758	-0.133	0.205
-403.252	267.657	-0.163	-0.284
-402.238	414.858	-0.052	0.111
-401.223	-78.975	0.168	-0.057
-400.209	-8.391	-0.165	-0.110
-399.194	27.683	-0.070	0.058
-398.179	800.000	-0.049	-0.160
-397.165	-30.381	-0.148	0.083
-396.150	325.351	0.167	-0.318
-395.136	-131.436	0.384	0.050
-394.121	590.452	-0.135	-0.331
-393.106	391.325	0.032	-0.066
-392.092	114.522	-0.245	-0.297
-391.077	800.000	-0.066	0.225
-390.063	-200.000	0.057	0.314
-389.048	104.131	-0.262	0.306
-388.033	172.146	0.079	-0.113
-387.019	332.393	0.093	-0.179
-386.004	800.000	0.100	0.351
-384.990	-142.705	0.452	0.044
-383.975	234.022	-0.191	-0.313
-382.960	-114.647	-0.501	-0.095
-381.946	15.648	0.280	-0.219
-380.931	-196.530	0.043	-0.000
-379.917	146.971	0.113	-0.151
-378.902	75.545	-0.223	0.234
-377.888	159.658	-0.108	0.150
-376.873	141.699	-0.090	0.119
-375.858	-200.000	0.045	-0.442
-374.844	427.167	0.031	0.066
-373.829	199.891	0.188	-0.288
-372.815	110.355	-0.220	0.262
-371.800	336.878	0.119	0.231
-370.785	69.887	-0.011	-0.011
-369.771	-200.000	0.024	0.173
-368.756	3.213	-0.175	-0.126
-367.742	41.583	-0.224	-0.202
-366.727	87.444	-0.086	0.095
-365.712	23.907	0.130	-0.107
-364.698	800.000	0.060	-0.205
-363.683	-200.000	-0.057	0.274
-362.669	79.929	-0.198	0.212
-361.654	-51.400	-0.112	0.052
-360.639	-75.825	-0.110	0.039
-359.625	-115.496	0.246	-0.046
-358.610	-200.000	-0.049	0.342
-357.596	87.929	0.179	-0.197
-356.581	-7.864	0.126	-0.085
-355.566	78.664	0.253	-0.269
-354.552	-97.048	0.088	-0.023
-353.537	-122.298	-0.352	-0.057
-352.523	446.454	-0.101	-0.221
-351.508	-126.208	0.594	0.088
-350.493	-5.904	-0.177	-0.120
-349.479	-145.724	0.318	0.028
-348.464	697.018	-0.067	-0.176
-347.450	-11.642	-0.169	-0.110
-346.435	-65.661	0.252	-0.100
-345.420	-65.898	0.314	0.125
-344.406	-200.000	0.000	-0.122
-343.391	298.742	-0.097	-0.178
-342.377	-99.293	-0.401	-0.101
-341.362	-200.000	0.036	0.228
-340.348	-200.000	-0.057	0.395
-339.333	115.643	0.172	0.209
-338.318	48.366	0.073	0.068
-337.304	-200.000	0.045	0.355
-336.289	62.525	0.125	0.124
-335.275	271.162	0.144	-0.252
-334.260	-117.385	-0.107	0.019
-333.245	-74.616	-0.140	0.050
-332.231	-128.791	0.364	-0.051
-331.216	-79.511	0.110	-0.037
-330.202	-19.515	-0.165	0.101
-329.187	78.587	-0.075	0.079
-328.172	-17.249	0.207	0.129
-327.158	-33.240	-0.267	-0.147
-326.143	-200.000	0.059	-0.558
-325.129	135.776	-0.195	0.252
-324.114	340.287	0.064	0.125
-323.099	18.418	0.099	0.078
-322.085	-101.550	-0.092	0.022
-321.070	3.852	-0.123	-0.089
-320.056	10.985	0.103	0.078
-319.041	800.000	-0.111	0.475
-318.026	-67.490	-0.206	-0.080
-317.012	800.000	0.036	-0.101
-315.997	-30.596	0.315	0.177
-314.983	-200.000	-0.048	0.267
-313.968	28.993	-0.291	-0.245
-312.953	-200.000	-0.021	0.206
-311.939	-200.000	-0.035	-0.167
-310.924	-15.123	0.207	-0.132
-309.910	-153.306	-0.176	-0.012
-308.895	91.447	0.165	-0.184
-307.880	-66.697	0.211	0.083
-306.866	-200.000	-0.009	-0.144
-305.851	-200.000	0.001	-0.058
-304.837	-142.274	-0.372	-0.036
-303.822	4.943	0.185	0.135
-302.807	192.665	0.060	0.089
-301.793	192.031	-0.093	-0.139
-300.778	10.183	-0.049	0.037
-299.764	-200.000	0.025	-0.182
-298.749	19.315	0.139	0.110
-297.735	103.448	-0.067	-0.078
-296.720	-200.000	-0.018	-0.196
-295.705	800.000	-0.119	-0.466
-294.691	-136.195	0.166	-0.019
-293.676	44.018	-0.225	0.205
-292.662	200.953	0.111	-0.169
-291.647	-200.000	-0.019	-0.307
-290.632	-48.706	-0.234	-0.112
-289.618	-118.276	0.156	-0.028
-288.603	103.251	0.050	-0.058
-287.589	684.575	-0.180	0.465
-286.574	-66.794	0.392	0.154
-285.559	-200.000	-0.038	0.298
-284.545	800.000	0.047	0.133
-283.530	698.720	-0.066	-0.172
-282.516	252.815	-0.094	-0.159
-281.501	233.246	0.074	0.121
-280.486	-200.000	-0.033	-0.241
-279.472	-79.547	-0.389	0.130
-278.457	-64.321	-0.188	0.076
-277.443	-24.547	-0.342	0.201
-276.428	459.252	0.146	0.323
-275.413	-120.318	0.202	0.034
-274.399	35.767	0.267	-0.232
-273.384	233.358	0.054	0.088
-272.370	21.046	-0.143	0.115
-271.355	-94.353	-0.193	0.052
-270.340	-36.664	0.114	-0.061
-269.326	-68.102	-0.021	0.008
-268.311	-200.000	0.033	0.335
-267.297	65.125	0.044	0.044
-266.282	-200.000	0.005	-0.245
-265.267	-124.761	0.154	0.024
-264.253	-153.479	-0.248	0.017
-263.238	-200.000	0.013	-0.192
-262.224	-200.000	-0.033	0.270
-261.209	-68.030	0.116	-0.045
-260.195	-200.000	0.002	-0.183
-259.180	683.398	-0.096	0.248
-258.165	165.521	0.105	-0.147
-257.151	423.156	0.034	-0.073
-256.136	-21.362	0.242	0.146
-255.122	80.113	-0.221	0.236
-254.107	203.134	0.064	0.098
-253.092	-26.838	-0.071	0.041
-252.078	-38.209	-0.150	0.079
-251.063	-6.141	0.192	-0.130
-250.049	155.826	-0.212	-0.289
-249.034	800.000	-0.110	0.403
-248.019	-21.359	-0.062	-0.037
-247.005	800.000	-0.053	-0.163
-245.990	173.794	0.167	0.239
-244.976	92.214	-0.133	0.149
-243.961	24.106	-0.037	0.031
-242.946	103.525	-0.158	0.183
-241.932	193.335	-0.191	-0.285
-240.917	215.409	0.133	0.209
-239.903	162.177	0.156	0.217
-238.888	271.264	0.067	0.117
-237.873	-200.000	0.031	-0.200
-236.859	-18.298	0.211	-0.131
-235.844	-72.753	0.082	-0.030
-234.830	-68.877	0.316	0.121
-233.815	-200.000	-0.017	0.626
-232.800	-45.642	0.151	-0.074
-231.786	-62.656	-0.240	-0.098
-230.771	-200.000	-0.023	-0.122
-229.757	-36.600	0.139	0.074
-228.742	22.799	-0.104	0.084
-227.727	-200.000	0.028	0.256
-226.713	800.000	0.072	-0.294
-225.698	6.468	-0.076	0.055
-224.684	-161.817	0.372	-0.019
-223.669	115.122	0.054	-0.065
-222.655	107.439	0.079	0.093
-221.640	93.614	-0.222	0.249
-220.625	-178.060	-0.158	0.004
-219.611	-200.000	0.026	0.206
-218.596	145.872	0.101	0.134
-217.582	-200.000	0.016	0.198
-216.567	-10.159	0.247	0.162
-215.552	-200.000	-0.008	0.153
-214.538	-200.000	0.051	0.282
-213.523	-102.968	0.164	0.039
-212.509	11.392	-0.242	-0.183
-211.494	39.496	-0.115	-0.102
-210.479	-100.580	-0.287	0.070
-209.465	63.979	-0.162	0.160
-208.450	-163.988	0.200	0.009
-207.436	-5.128	0.083	-0.057
-206.421	-57.980	-0.290	-0.125
-205.406	311.635	-0.074	0.137
-204.392	800.000	0.041	0.157
-203.377	-155.918	0.172	0.011
-202.363	99.664	0.296	-0.339
-201.348	24.254	-0.441	-0.360
-200.333	226.748	-0.068	-0.109
-199.319	-37.095	-0.325	0.172
-198.304	-200.000	0.010	0.059
-197.290	-89.004	0.209	-0.061
-196.275	800.000	0.111	-0.390
-195.260	706.245	0.155	0.404
-194.246	-9.809	-0.054	-0.036
-193.231	-49.682	0.274	-0.129
-192.217	300.306	0.097	-0.177
-191.202	-129.050	0.265	-0.037
-190.187	86.387	0.257	-0.279
-189.173	47.982	0.280	-0.258
-188.158	85.336	0.116	-0.125
-187.144	-60.423	0.204	-0.085
-186.129	-97.021	0.146	0.038
-185.114	-200.000	-0.006	0.174
-184.100	-40.016	-0.176	-0.091
-183.085	800.000	-0.107	-0.309
-182.071	189.805	-0.087	0.129
-181.056	-28.922	0.139	0.079
-180.042	122.336	-0.033	0.041
-179.027	66.135	0.022	0.022
-178.012	201.901	-0.119	0.181
-176.998	435.609	-0.051	-0.110
-175.983	-57.393	-0.290	-0.126
-174.969	7.583	-0.115	0.085
-173.954	-117.656	-0.158	-0.028
-172.939	192.948	-0.046	0.068
-171.925	124.613	0.438	-0.544
-170.910	-175.455	0.270	0.007
-169.896	-200.000	0.043	-0.449
-168.881	-77.215	-0.333	0.114
-167.866	-31.788	0.239	-0.132
-166.852	800.000	-0.068	-0.211
-165.837	-175.709	-0.156	-0.004
-164.823	-37.343	-0.184	0.097
-163.808	-36.827	0.249	-0.132
-162.793	80.356	0.208	-0.221
-161.779	747.096	-0.086	-0.227
-160.764	69.355	-0.241	0.245
-159.750	166.550	-0.236	-0.330
-158.735	800.000	0.016	-0.057
-157.720	29.794	0.128	-0.107
-156.706	68.018	0.055	0.055
-155.691	-58.050	-0.249	-0.107
-154.677	800.000	0.059	-0.228
-153.662	-21.415	-0.207	0.124
-152.647	800.000	-0.052	-0.209
-151.633	-104.418	0.291	0.066
-150.618	420.875	-0.173	0.366
-149.604	336.655	0.168	-0.322
-148.589	274.392	-0.082	0.143
-147.574	319.138	0.213	0.399
-146.560	486.693	-0.015	-0.033
-145.545	-90.512	-0.270	-0.077
-144.531	-200.000	-0.226	-0.001
-143.516	-200.000	0.001	-0.055
-142.502	-200.000	-0.004	-0.109
-141.487	141.069	0.130	0.170
-140.472	54.843	-0.082	0.078
-139.458	-55.964	-0.059	0.026
-138.443	800.000	-0.052	0.199
-137.429	-200.000	0.003	-0.366
-136.414	-198.972	0.275	0.001
-135.399	19.639	0.289	-0.229
-134.385	257.552	-0.120	0.203
-133.370	-15.064	-0.080	0.051
-132.356	-99.094	0.116	0.029
-131.341	100.947	-0.138	-0.158
-130.326	-10.921	-0.120	0.078
-129.312	-200.000	0.014	0.216
-128.297	-171.391	0.599	0.020
-127.283	-200.000	-0.055	-0.329
-126.268	-200.000	-0.035	-0.164
-125.253	-200.000	0.017	-0.214
-124.239	-19.325	-0.203	-0.124
-123.224	63.136	-0.315	-0.311
-122.210	-123.866	-0.369	0.057
-121.195	-165.649	0.230	0.010
-120.180	130.598	0.143	0.181
-119.166	115.848	-0.165	0.199
-118.151	800.000	0.025	0.075
-117.137	9.202	0.380	-0.282
-116.122	-73.577	0.119	-0.043
-115.107	-66.334	-0.288	0.113
-114.093	-159.439	-0.051	0.003
-113.078	-104.423	0.038	0.009
-112.064	800.000	-0.050	0.198
-111.049	81.798	0.143	-0.152
-110.034	800.000	-0.132	-0.490
-109.020	-63.449	-0.122	-0.049
-108.005	-46.081	0.232	0.113
-106.991	101.402	0.074	0.085
-105.976	-65.993	-0.228	0.090
-104.962	233.324	0.197	0.319
-103.947	-42.266	0.130	-0.065
-102.932	800.000	-0.036	-0.119
-101.918	-138.133	-0.156	-0.017
-100.903	-41.556	-0.193	0.098
-99.889	-200.000	0.006	0.135
-98.874	321.276	0.077	0.145
-97.859	-186.594	0.288	-0.004
-96.845	379.995	0.181	0.364
-95.830	666.623	-0.098	0.249
-94.816	800.000	-0.071	-0.212
-93.801	29.241	-0.262	0.219
-92.786	21.406	-0.256	0.204
-91.772	-2.992	0.207	-0.142
-90.757	-24.264	-0.121	0.071
-89.743	-200.000	-0.039	-0.221
-88.728	-200.000	0.004	-0.025
-87.713	-45.491	0.379	0.184
-86.699	138.712	0.418	0.539
-85.684	77.099	-0.179	-0.187
-84.670	-63.107	0.459	-0.186
-83.655	800.000	0.055	-0.188
-82.640	-200.000	0.036	0.186
-81.626	-130.893	-0.212	0.028
-80.611	168.547	0.152	-0.213
-79.597	-200.000	0.053	-0.263
-78.582	-69.892	0.116	-0.043
-77.567	558.336	0.142	0.337
-76.553	508.114	-0.109	-0.250
-75.538	-106.918	0.149	-0.032
-74.524	-4.361	-0.187	0.127
-73.509	419.223	-0.082	-0.172
-72.494	11.779	-0.290	0.219
-71.480	203.138	-0.013	-0.020
-70.465	-59.351	0.196	-0.083
-69.451	124.760	0.246	0.304
-68.436	3.656	-0.147	-0.105
-67.422	5.423	0.077	-0.056
-66.407	356.424	0.041	-0.080
-65.392	-200.000	0.065	-0.285
-64.378	0.884	-0.204	0.143
-63.363	-200.000	-0.025	0.219
-62.349	208.850	-0.223	0.343
-61.334	17.555	-0.990	-0.773
-60.319	219.908	0.341	0.537
-59.305	-200.000	0.157	-1.305
-58.290	293.585	0.741	1.329
-57.276	800.000	0.582	1.816
-56.261	-200.000	102.016	590.388
-55.246	555.146	1433.427	3387.561
-54.232	186.205	2630.823	3842.535
-53.217	109.581	2282.129	2684.878
-52.203	39.984	1897.381	1673.299
-51.188	33.847	1686.271	1440.693
-50.173	31.136	1642.970	1383.570
-49.159	49.547	1693.931	1565.514
-48.144	50.657	1710.274	1588.908
-47.130	33.502	1668.423	1422.627
-46.115	30.692	1654.572	1389.803
-45.100	30.559	1649.491	1384.489
-44.086	30.498	1647.251	1382.102
-43.071	30.523	1644.404	1379.842
-42.057	30.508	1641.832	1377.517
-41.042	30.577	1639.404	1375.936
-40.027	30.556	1638.092	1374.625
-39.013	30.544	1635.967	1372.704
-37.998	30.481	1634.611	1371.046
-36.984	30.524	1633.437	1370.323
-35.969	30.604	1632.038	1369.682
-34.954	30.712	1629.850	1368.584
-33.940	30.580	1628.351	1366.306
-32.925	30.674	1627.268	1366.030
-31.911	30.488	1625.187	1362.863
-30.896	30.626	1623.419	1362.341
-29.881	30.633	1621.934	1361.094
-28.867	30.612	1619.601	1358.926
-27.852	30.590	1618.099	1357.454
-26.838	30.632	1616.763	1356.582
-25.823	30.610	1615.534	1355.338
-24.809	30.763	1614.262	1355.334
-23.794	30.583	1613.342	1353.196
-22.779	30.722	1611.183	1352.340
-21.765	30.675	1609.444	1350.488
-20.750	30.703	1608.075	1349.489
-19.736	30.601	1607.317	1348.057
-18.721	30.614	1605.854	1346.874
-17.706	30.678	1603.891	1345.631
-16.692	30.588	1602.686	1343.922
-15.677	30.616	1601.044	1342.693
-14.663	30.660	1599.979	1342.063
-13.648	30.614	1598.870	1340.750
-12.633	30.631	1597.093	1339.330
-11.619	30.662	1595.268	1337.965
-10.604	30.715	1593.756	1337.025
-9.590	30.666	1592.052	1335.194
-8.575	30.647	1591.256	1334.334
-7.560	30.661	1589.990	1333.323
-6.546	30.719	1589.225	1333.039
-5.531	30.670	1588.159	1331.747
-4.517	30.627	1586.817	1330.257
-3.502	30.698	1585.002	1329.189
-2.487	30.748	1583.650	1328.361
-1.473	30.484	1572.003	1316.666
-0.458	27.753	1553.469	1281.935
0.556	23.732	1554.719	1251.722
1.571	21.415	1579.153	1254.674
2.586	21.000	1592.278	1261.992
3.600	18.819	1538.845	1204.262
4.615	11.615	1432.750	1073.954
5.629	5.788	1371.623	991.294
6.644	4.853	1364.893	980.455
7.659	4.783	1363.284	978.778
8.673	4.842	1361.747	977.955
9.688	4.912	1360.311	977.279
10.702	4.721	1357.747	974.152
11.717	7.491	1362.765	995.054
12.731	14.523	1375.419	1048.560
13.746	19.052	1381.744	1081.827
14.761	18.836	1380.886	1079.698
15.775	17.766	1377.897	1070.557
16.790	16.785	1375.062	1062.112
17.804	16.042	1372.811	1055.627
18.819	15.586	1371.269	1051.495
19.834	15.267	1370.609	1048.898
20.848	15.007	1369.231	1046.130
21.863	14.923	1367.442	1044.141
22.877	14.670	1366.908	1042.064
23.892	14.650	1366.148	1041.266
24.907	14.526	1365.566	1039.960
25.921	14.669	1363.910	1039.494
26.936	14.630	1363.399	1038.769
27.950	14.736	1362.413	1038.586
28.965	14.900	1361.149	1038.549
29.980	14.925	1359.826	1037.607
30.994	14.923	1359.274	1037.082
32.009	14.963	1357.651	1035.995
33.023	14.899	1356.672	1034.765
34.038	14.825	1355.859	1033.592
35.053	14.859	1354.358	1032.568
36.067	14.895	1353.180	1031.804
37.082	14.839	1352.305	1030.696
38.096	14.999	1350.866	1030.494
39.111	15.001	1350.054	1029.796
40.126	14.867	1349.376	1028.362
41.140	14.727	1348.445	1026.700
42.155	14.662	1347.953	1025.839
43.169	14.645	1347.880	1025.589
44.184	14.651	1347.341	1025.126
45.199	14.587	1347.379	1024.670
46.213	14.799	1346.461	1025.179
47.228	14.739	1345.816	1024.230
48.242	14.787	1344.352	1023.319
49.257	14.724	1343.352	1022.081
50.271	14.759	1341.646	1020.910
51.286	14.749	1340.803	1020.115
52.301	14.792	1339.286	1019.132
53.315	14.803	1337.910	1018.064
54.330	14.697	1337.123	1016.729
55.344	14.654	1336.033	1015.548
56.359	14.620	1335.212	1014.627
57.374	14.719	1333.796	1014.064
58.388	14.599	1333.209	1012.796
59.403	14.613	1332.597	1012.329
60.417	14.631	1332.164	1012.020
61.432	14.503	1331.591	1010.719
62.447	14.564	1330.417	1010.104
63.461	14.548	1328.839	1008.726
64.476	14.459	1328.089	1007.525
65.490	14.454	1326.745	1006.391
66.505	14.533	1325.141	1005.559
67.520	14.486	1324.107	1004.400
68.534	14.551	1323.137	1003.969
69.549	14.554	1322.271	1003.243
70.563	14.637	1320.585	1002.373
71.578	14.403	1319.905	1000.363
72.593	14.355	1318.959	999.265
73.607	14.362	1318.288	998.716
74.622	14.365	1317.634	998.147
75.636	14.481	1316.563	997.941
76.651	14.465	1316.404	997.638
77.666	14.407	1315.752	996.709
78.680	14.496	1315.072	996.637
79.695	14.497	1314.228	995.914
80.709	14.475	1313.529	995.166
81.724	14.621	1312.660	995.288
82.739	14.655	1311.826	994.774
83.753	14.705	1311.312	994.594
84.768	14.802	1310.200	994.239
85.782	14.843	1308.755	993.296
86.797	14.855	1307.235	992.126
87.812	14.781	1306.576	991.097
88.826	14.712	1305.429	989.736
89.841	14.809	1304.336	989.391
90.855	14.828	1303.283	988.620
91.870	14.876	1302.360	988.114
92.884	14.904	1301.440	987.491
93.899	15.058	1300.548	987.640
94.914	14.871	1300.212	986.193
95.928	15.057	1298.983	986.267
96.943	14.932	1298.853	985.348
97.957	14.795	1297.301	983.279
98.972	14.840	1296.165	982.590
99.987	14.940	1294.950	982.170
101.001	14.913	1293.830	981.079
102.016	14.810	1293.303	979.984
103.030	14.962	1291.977	979.789
104.045	14.981	1290.843	978.949
105.060	14.836	1289.919	977.314
106.074	14.737	1288.951	975.916
107.089	14.605	1287.162	973.704
108.103	14.572	1286.394	972.849
109.118	14.595	1284.721	971.627
110.133	14.580	1283.687	970.672
111.147	14.643	1281.940	969.631
112.162	14.540	1280.918	968.176
113.176	14.653	1280.271	968.256
114.191	14.695	1279.524	967.853
115.206	14.642	1278.485	966.674
116.220	14.661	1276.820	965.437
117.235	14.652	1275.449	964.264
118.249	14.674	1274.797	963.814
119.264	14.715	1272.948	962.563
120.279	14.610	1272.716	961.697
121.293	14.620	1271.365	960.648
122.308	14.545	1269.902	959.030
123.322	14.466	1269.282	958.022
124.337	14.586	1268.287	957.876
125.352	14.515	1267.407	956.721
126.366	14.500	1266.245	955.674
127.381	14.536	1265.302	955.083
128.395	14.618	1264.225	954.654
129.410	14.538	1263.565	953.611
130.424	14.665	1262.349	953.334
131.439	14.654	1261.580	952.609
132.454	14.673	1260.617	951.904
133.468	14.794	1259.308	951.518
134.483	14.730	1258.501	950.464
135.497	14.710	1257.736	949.690
136.512	14.657	1256.371	948.272
137.527	14.774	1254.920	947.755
138.541	14.688	1253.958	946.458
139.556	14.854	1252.000	945.838
140.570	14.774	1251.982	945.288
141.585	14.760	1250.857	944.271
142.600	14.834	1249.279	943.419
143.614	14.927	1248.671	943.402
144.629	14.989	1247.221	942.571
145.643	14.904	1246.346	941.347
146.658	14.931	1244.641	940.129
147.673	14.760	1243.753	938.411
148.687	14.836	1242.345	937.692
149.702	14.813	1240.566	936.138
150.716	14.720	1239.963	935.082
151.731	14.693	1239.259	934.317
152.746	14.778	1237.470	933.357
153.760	14.860	1236.335	932.876
154.775	14.877	1235.193	932.030
155.789	14.925	1234.356	931.584
156.804	14.969	1233.447	931.059
157.819	14.991	1232.098	930.082
158.833	15.001	1231.454	929.567
159.848	14.986	1230.729	928.855
160.862	15.007	1230.175	928.469
161.877	14.945	1228.629	926.877
162.892	14.935	1227.054	925.552
163.906	14.912	1226.216	924.713
164.921	14.874	1225.262	923.698
165.935	14.969	1224.413	923.504
166.950	14.909	1224.048	922.816
167.964	15.009	1223.365	922.771
168.979	15.038	1222.314	922.053
169.994	14.954	1221.913	921.207
171.008	15.017	1220.651	920.523
172.023	15.070	1220.269	920.446
173.037	15.065	1219.607	919.838
174.052	15.107	1218.571	919.202
175.067	14.983	1217.643	917.743
176.081	14.967	1216.550	916.748
177.096	14.898	1215.602	915.578
178.110	14.997	1214.931	915.532
179.125	15.081	1213.314	914.692
180.140	15.058	1211.954	913.461
181.154	15.103	1210.926	912.850
182.169	15.088	1209.580	911.670
183.183	15.184	1208.754	911.490
184.198	15.314	1207.223	910.960
185.213	15.293	1205.999	909.845
186.227	15.240	1205.445	909.059
187.242	15.159	1204.655	907.945
188.256	15.237	1203.462	907.385
189.271	15.276	1202.537	906.819
190.286	15.187	1201.472	905.455
191.300	15.080	1200.322	903.930
192.315	14.973	1199.397	902.575
193.329	14.976	1198.724	902.007
194.344	15.069	1198.229	902.056
195.359	15.171	1197.862	902.249
196.373	15.260	1197.513	902.384
197.388	15.310	1197.182	902.325
198.402	15.372	1196.988	902.433
199.417	15.511	1196.290	902.575
200.432	15.571	1195.039	901.870
201.446	15.603	1194.193	901.327
202.461	15.551	1193.452	900.406
203.475	15.571	1192.595	899.791
204.490	15.581	1191.110	898.639
205.504	15.516	1189.996	897.377
206.519	15.464	1188.889	896.182
207.534	15.373	1187.675	894.701
208.548	15.468	1186.659	894.363
209.563	15.438	1185.651	893.364
210.577	15.587	1184.891	893.506
211.592	15.575	1184.049	892.731
212.607	15.552	1183.962	892.463
213.621	15.684	1182.544	892.013
214.636	15.571	1181.660	890.670
215.650	15.614	1180.558	889.989
216.665	15.597	1179.713	889.182
217.680	15.754	1179.181	889.535
218.694	15.710	1178.458	888.675
219.709	15.795	1177.184	888.084
220.723	15.657	1176.758	886.957
221.738	15.789	1175.896	886.923
222.753	15.703	1175.382	886.004
223.767	15.788	1174.245	885.518
224.782	15.834	1174.341	885.755
225.796	15.774	1173.606	884.805
226.811	15.768	1173.120	884.332
227.826	15.844	1171.787	883.648
228.840	15.739	1171.028	882.443
229.855	15.860	1170.473	882.584
230.869	15.869	1169.431	881.764
231.884	15.680	1168.910	880.304
232.899	15.809	1167.380	879.750
233.913	15.597	1167.425	878.599
234.928	15.672	1166.954	878.559
235.942	15.610	1166.089	877.502
236.957	15.637	1165.071	876.802
237.972	15.783	1163.814	876.539
238.986	15.809	1163.316	876.220
240.001	15.738	1163.244	875.717
241.015	15.790	1162.116	875.061
242.030	15.745	1161.359	874.182
243.045	15.925	1160.757	874.586
244.059	15.740	1160.263	873.178
245.074	15.908	1158.751	872.832
246.088	15.946	1157.994	872.385
247.103	16.136	1157.087	872.603
248.117	16.124	1156.525	872.044
249.132	16.192	1156.029	871.940
250.147	16.270	1155.280	871.702
251.161	16.332	1154.522	871.373
252.176	16.249	1154.078	870.531
253.190	16.452	1153.507	871.072
254.205	16.460	1152.847	870.538
255.220	16.452	1152.224	869.949
256.234	16.308	1151.737	868.764
257.249	16.547	1150.587	869.049
258.263	16.472	1150.060	868.187
259.278	16.447	1149.726	867.731
260.293	16.372	1149.462	867.071
261.307	16.548	1148.236	866.970
262.322	16.397	1147.920	865.879
263.336	16.511	1147.217	865.857
264.351	16.579	1146.411	865.521
265.366	16.567	1145.620	864.786
266.380	16.539	1145.124	864.191
267.395	16.696	1144.076	864.126
268.409	16.487	1143.257	862.362
269.424	16.537	1142.546	862.005
270.439	16.531	1141.982	861.475
271.453	16.519	1141.312	860.831
272.468	16.512	1140.559	860.153
273.482	16.353	1139.992	858.838
274.497	16.481	1139.342	858.923
275.512	16.445	1138.637	858.134
276.526	16.472	1137.334	857.211
277.541	16.542	1136.630	856.962
278.555	16.599	1135.948	856.662
279.570	16.580	1135.700	856.298
280.585	16.763	1134.895	856.543
281.599	16.835	1133.558	855.820
282.614	16.706	1132.824	854.543
283.628	16.639	1131.887	853.423
284.643	16.641	1130.932	852.636
285.657	16.659	1129.986	851.938
286.672	16.720	1129.203	851.578
287.687	16.676	1128.545	850.788
288.701	16.712	1127.589	850.172
289.716	16.871	1126.717	850.235
290.730	16.850	1126.033	849.538
291.745	16.929	1125.189	849.224
292.760	16.898	1124.200	848.248
293.774	16.884	1124.067	847.999
294.789	16.910	1123.533	847.654
295.803	16.847	1123.186	846.998
296.818	16.822	1122.375	846.190
297.833	16.908	1121.429	845.832
298.847	16.878	1120.533	844.930
299.862	16.872	1119.540	844.076
300.876	16.785	1119.559	843.585
301.891	16.980	1118.372	843.584
302.906	17.051	1118.085	843.646
303.920	17.115	1117.333	843.324
304.935	17.036	1117.120	842.695
305.949	17.179	1115.712	842.264
306.964	17.229	1115.047	841.940
307.979	17.132	1114.754	841.159
308.993	17.155	1114.015	840.643
310.008	17.122	1113.130	839.737
311.022	17.136	1112.494	839.251
312.037	17.219	1111.501	838.842
313.052	17.209	1110.549	837.998
314.066	16.908	1109.904	835.950
315.081	16.967	1109.287	835.705
316.095	16.909	1108.155	834.492
317.110	17.086	1107.454	834.760
318.125	17.065	1106.705	834.022
319.139	17.047	1105.965	833.300
320.154	17.105	1105.267	832.985
321.168	17.132	1104.850	832.730
322.183	17.204	1104.369	832.645
323.197	17.066	1103.897	831.543
324.212	17.146	1103.172	831.310
325.227	17.084	1102.682	830.566
326.241	17.169	1101.816	830.257
327.256	17.114	1101.212	829.461
328.270	17.139	1099.956	828.562
329.285	17.176	1099.278	828.158
330.300	17.252	1098.061	827.538
331.314	17.138	1097.468	826.460
332.329	17.180	1096.166	825.615
333.343	17.252	1095.580	825.447
334.358	17.269	1095.037	825.049
335.373	17.203	1094.397	824.172
336.387	17.454	1093.314	824.499
337.402	17.348	1092.828	823.550
338.416	17.526	1092.080	823.774
339.431	17.435	1091.319	822.687
340.446	17.545	1090.800	822.754
341.460	17.569	1090.276	822.399
342.475	17.531	1089.276	821.393
343.489	17.692	1088.384	821.422
344.504	17.696	1087.743	820.886
345.519	17.787	1086.711	820.471
346.533	17.741	1086.081	819.699
347.548	17.653	1085.573	818.825
348.562	17.648	1084.856	818.184
349.577	17.664	1083.969	817.521
350.592	17.581	1082.692	816.088
351.606	17.610	1082.041	815.662
352.621	17.566	1081.474	814.954
353.635	17.608	1080.444	814.308
354.650	17.520	1079.718	813.266
355.665	17.574	1079.395	813.208
356.679	17.548	1078.780	812.551
357.694	17.704	1077.888	812.548
358.708	17.696	1077.377	812.052
359.723	17.819	1076.799	812.131
360.738	17.718	1076.144	811.087
361.752	17.777	1075.536	810.836
362.767	17.798	1075.150	810.573
363.781	17.794	1074.490	809.983
364.796	17.802	1073.715	809.368
365.810	17.891	1073.579	809.615
366.825	17.929	1072.493	808.907
367.840	18.001	1072.413	809.111
368.854	18.150	1071.828	809.306
369.869	18.054	1070.725	807.949
370.883	18.094	1070.226	807.688
371.898	17.988	1069.126	806.285
372.913	17.940	1068.880	805.804
373.927	18.009	1068.384	805.685
374.942	18.099	1067.696	805.517
375.956	18.143	1067.307	805.362
376.971	18.198	1066.460	804.909
377.986	18.167	1065.920	804.286
379.000	18.240	1065.416	804.177
380.015	18.211	1065.322	803.897
381.029	18.192	1064.450	803.079
382.044	18.251	1063.682	802.703
383.059	18.287	1062.814	802.148
384.073	18.425	1061.594	801.802
385.088	18.391	1061.046	801.158
386.102	18.342	1060.060	800.112
387.117	18.279	1058.973	798.927
388.132	18.120	1058.420	797.698
389.146	18.204	1057.660	797.448
390.161	18.147	1057.039	796.642
391.175	18.290	1056.243	796.638
392.190	18.469	1055.003	796.462
393.205	18.298	1055.016	795.611
394.219	18.264	1053.994	794.609
395.234	18.305	1052.921	793.922
396.248	18.184	1052.312	792.830
397.263	18.382	1050.685	792.452
398.278	18.347	1050.110	791.786
399.292	18.267	1049.646	790.996
400.307	18.215	1049.118	790.286
401.321	18.127	1048.453	789.312
402.336	18.196	1048.012	789.225
403.350	18.310	1047.213	789.081
404.365	18.261	1045.968	787.846
405.380	18.377	1045.500	787.957
406.394	18.377	1044.974	787.493
407.409	18.481	1044.195	787.315
408.423	18.565	1043.413	787.042
409.438	18.619	1042.754	786.722
410.453	18.695	1041.897	786.355
411.467	18.678	1041.559	785.948
412.482	18.757	1041.287	786.037
413.496	18.689	1040.173	784.815
414.511	18.730	1039.437	784.380
415.526	18.863	1039.072	784.642
416.540	18.749	1038.664	783.744
417.555	18.877	1038.162	783.879
418.569	18.745	1037.781	782.920
419.584	18.789	1037.199	782.612
420.599	18.824	1036.839	782.428
421.613	150.631	1402.443	1795.349
422.628	137.604	1455.692	1795.421
