DTS Sentinel unit serial number:	SN413079Multiplexer serial number:	ORYXHardware model number:	OX4-SRSoftware version number:	ORYX F/W v4.00 Oryx Data Collector v3.7.2.0data status	okinstallation	princeton_trtdifferential loss correction	single-endedforward channel	channel 2reverse channel	N/Adate	2019/09/16time	23:27:34forward acquisition time	60.00reverse acquisition time	0.00gamma	496.2192k internal	0.2330k external	0.2330temperature offset calibration	0.9974default loss term (dB/km)	0.3790temperature slope calibration	1.0000multiplexer offset coefficient	1.0000multiplexer slope coefficient	1.0000fibre end	0.00T internal ref (°C)	29.91T ext. ref 1 (°C)	0.09T ext. ref 2 (°C)	23.56length (m)	temperature (°C)	Stokes	anti-Stokes-747.200	360.416	0.146	0.295
-746.185	-61.875	0.310	0.131
-745.171	-31.874	-0.041	0.023
-744.156	19.242	-0.174	-0.141
-743.142	-11.715	0.193	-0.128
-742.127	414.735	-0.096	0.206
-741.112	-200.000	0.016	0.153
-740.098	800.000	-0.153	0.430
-739.083	-200.000	0.021	0.304
-738.069	-200.000	0.016	-0.148
-737.054	155.130	-0.153	-0.212
-736.039	64.708	-0.267	0.271
-735.025	800.000	-0.072	0.224
-734.010	7.200	-0.272	-0.204
-732.996	399.840	-0.117	-0.248
-731.981	-200.000	0.012	-0.150
-730.966	-200.000	0.003	-0.183
-729.952	-100.309	-0.274	0.068
-728.937	120.020	0.285	0.356
-727.923	-11.421	-0.128	0.085
-726.908	-74.610	-0.271	0.098
-725.894	184.279	0.104	0.156
-724.879	-200.000	0.023	-0.393
-723.864	13.643	-0.432	-0.338
-722.850	-82.730	-0.083	0.027
-721.835	7.062	0.138	0.103
-720.821	-98.404	-0.112	-0.029
-719.806	-45.640	-0.405	0.202
-718.791	-200.000	-0.032	0.186
-717.777	800.000	-0.066	0.256
-716.762	-200.000	0.105	0.486
-715.748	-173.427	-0.103	-0.003
-714.733	-28.391	-0.255	-0.148
-713.718	87.149	-0.178	0.197
-712.704	581.787	0.067	0.165
-711.689	54.659	-0.049	-0.048
-710.675	52.205	0.199	0.191
-709.660	-200.000	0.002	0.388
-708.645	277.395	0.038	0.068
-707.631	-99.374	-0.252	0.064
-706.616	-61.998	-0.227	-0.095
-705.602	-66.047	0.180	0.072
-704.587	-123.090	-0.179	-0.029
-703.572	17.362	-0.152	-0.121
-702.558	-133.177	0.142	0.018
-701.543	-200.000	0.024	0.199
-700.529	206.165	-0.165	-0.259
-699.514	70.260	-0.170	-0.177
-698.499	203.261	0.007	-0.011
-697.485	800.000	0.065	0.202
-696.470	-183.319	-0.195	0.003
-695.456	589.211	-0.176	0.437
-694.441	88.036	0.183	-0.204
-693.426	-200.000	-0.016	0.087
-692.412	-138.900	0.281	0.031
-691.397	100.598	0.137	0.160
-690.383	-200.000	0.042	-0.188
-689.368	301.348	0.181	-0.336
-688.354	-49.899	0.068	0.032
-687.339	-67.971	0.225	-0.088
-686.324	-52.523	0.216	-0.100
-685.310	-200.000	-0.006	-0.114
-684.295	43.909	-0.184	-0.169
-683.281	800.000	0.044	-0.182
-682.266	698.018	0.011	-0.028
-681.251	18.459	-0.087	0.070
-680.237	311.630	-0.036	0.067
-679.222	128.638	-0.339	0.434
-678.208	-200.000	0.036	-0.200
-677.193	22.959	-0.153	0.126
-676.178	-107.968	-0.359	0.078
-675.164	-57.846	-0.241	-0.106
-674.149	-68.107	0.154	0.060
-673.135	-200.000	-0.024	-0.274
-672.120	201.475	-0.171	-0.264
-671.105	-96.620	-0.097	0.026
-670.091	-25.667	-0.190	0.113
-669.076	-200.000	0.027	-0.155
-668.062	-1.529	-0.180	-0.127
-667.047	147.366	-0.179	0.242
-666.032	800.000	0.070	-0.237
-665.018	-200.000	-0.069	-0.309
-664.003	800.000	-0.030	-0.083
-662.989	-106.382	-0.233	-0.052
-661.974	-200.000	-0.012	-0.218
-660.959	220.104	-0.079	-0.127
-659.945	-120.599	0.262	-0.044
-658.930	117.352	0.212	-0.261
-657.916	-200.000	-0.043	-0.243
-656.901	-150.805	0.185	-0.014
-655.886	-200.000	-0.058	-0.404
-654.872	-33.847	-0.051	0.028
-653.857	-55.233	0.107	-0.048
-652.843	-65.715	-0.035	-0.014
-651.828	188.804	0.095	-0.143
-650.814	-161.086	0.195	-0.010
-649.799	6.764	-0.236	0.176
-648.784	174.051	-0.099	0.143
-647.770	154.404	-0.285	-0.393
-646.755	-200.000	-0.019	0.115
-645.741	-157.632	-0.169	0.010
-644.726	-70.424	0.229	-0.087
-643.711	-140.664	-0.264	-0.027
-642.697	-200.000	-0.064	0.339
-641.682	415.633	0.036	0.076
-640.668	137.957	0.141	-0.185
-639.653	-200.000	0.011	0.179
-638.638	-100.053	0.365	-0.091
-637.624	-70.311	-0.233	-0.089
-636.609	-63.662	0.224	-0.092
-635.595	-200.000	0.015	-0.196
-634.580	-40.365	-0.359	0.187
-633.565	-137.638	0.092	0.010
-632.551	125.101	0.090	-0.113
-631.536	-54.197	0.210	0.096
-630.522	22.223	-0.141	-0.116
-629.507	800.000	-0.074	-0.317
-628.492	800.000	-0.020	-0.079
-627.478	24.128	0.094	-0.078
-626.463	158.221	-0.136	-0.190
-625.449	-26.120	-0.083	-0.049
-624.434	-133.194	0.249	-0.032
-623.419	56.456	0.056	-0.055
-622.405	-145.963	0.357	0.032
-621.390	-57.848	0.248	0.109
-620.376	800.000	-0.068	-0.201
-619.361	15.717	-0.202	0.159
-618.346	321.673	0.055	0.105
-617.332	245.201	0.182	0.308
-616.317	161.249	-0.243	0.341
-615.303	8.079	0.232	0.175
-614.288	127.549	0.197	0.251
-613.273	-90.489	0.372	0.108
-612.259	-134.540	-0.077	0.009
-611.244	-115.537	0.126	-0.024
-610.230	-6.416	0.168	-0.115
-609.215	-200.000	0.016	-0.280
-608.201	6.115	-0.136	-0.101
-607.186	126.377	-0.064	0.081
-606.171	75.870	0.257	0.272
-605.157	209.322	-0.116	0.182
-604.142	-29.693	-0.101	0.058
-603.128	176.591	-0.147	-0.214
-602.113	-200.000	0.023	0.183
-601.098	-8.999	-0.175	0.117
-600.084	-24.891	-0.149	-0.089
-599.069	-145.111	-0.148	-0.013
-598.055	132.656	0.177	-0.228
-597.040	26.685	0.115	0.096
-596.025	163.993	-0.169	0.238
-595.011	174.272	-0.216	0.312
-593.996	9.895	0.245	0.186
-592.982	31.826	0.271	0.234
-591.967	-43.406	-0.216	-0.109
-590.952	800.000	0.054	-0.164
-589.938	-17.168	-0.160	-0.101
-588.923	-78.407	-0.202	0.069
-587.909	85.851	-0.125	0.137
-586.894	156.592	0.277	0.382
-585.879	-37.545	-0.170	-0.091
-584.865	-200.000	-0.022	0.121
-583.850	-66.106	-0.382	0.152
-582.836	-151.859	0.025	0.002
-581.821	152.714	0.122	-0.167
-580.806	-21.035	-0.202	-0.124
-579.792	800.000	0.043	0.160
-578.777	-24.183	0.093	-0.056
-577.763	149.609	0.076	0.103
-576.748	2.166	-0.239	-0.173
-575.733	11.147	0.227	-0.173
-574.719	186.087	0.065	-0.097
-573.704	225.100	0.351	-0.569
-572.690	800.000	0.088	-0.369
-571.675	199.307	-0.094	-0.144
-570.661	-200.000	-0.016	0.153
-569.646	-21.888	-0.161	0.098
-568.631	323.745	-0.207	-0.395
-567.617	-200.000	-0.008	-0.141
-566.602	114.020	-0.103	-0.125
-565.588	-56.343	-0.199	-0.089
-564.573	-70.272	-0.062	-0.024
-563.558	699.659	-0.161	-0.424
-562.544	180.363	-0.165	-0.242
-561.529	300.017	0.042	0.077
-560.515	-56.515	-0.137	-0.061
-559.500	33.383	0.189	0.164
-558.485	-109.394	-0.233	0.049
-557.471	-23.904	0.203	0.121
-556.456	-90.275	0.243	-0.071
-555.442	-89.819	-0.489	0.143
-554.427	800.000	0.071	0.276
-553.412	361.383	0.090	0.179
-552.398	-69.935	0.113	0.043
-551.383	-30.725	0.090	0.051
-550.369	41.734	0.148	0.134
-549.354	800.000	-0.088	0.272
-548.339	800.000	0.063	-0.192
-547.325	-69.260	-0.320	0.123
-546.310	-200.000	0.013	0.444
-545.296	-41.282	0.263	-0.135
-544.281	137.589	-0.186	0.243
-543.266	-158.613	0.178	-0.010
-542.252	-93.303	0.174	-0.048
-541.237	-54.753	-0.259	0.117
-540.223	-137.227	0.111	-0.013
-539.208	-101.239	0.254	0.062
-538.193	-200.000	0.079	0.412
-537.179	118.998	0.095	0.117
-536.164	16.886	0.181	-0.143
-535.150	42.439	0.159	0.144
-534.135	-200.000	0.009	-0.106
-533.121	800.000	-0.036	0.155
-532.106	356.872	0.050	-0.100
-531.091	800.000	0.052	-0.179
-530.077	-55.678	-0.275	0.123
-529.062	481.245	0.024	-0.053
-528.048	-93.568	0.417	-0.115
-527.033	-164.676	0.125	0.006
-526.018	800.000	-0.051	0.161
-525.004	-200.000	-0.046	-0.237
-523.989	-200.000	-0.006	-0.129
-522.975	7.317	-0.066	-0.050
-521.960	-93.018	-0.162	-0.045
-520.945	127.207	-0.052	-0.066
-519.931	-28.084	0.242	-0.140
-518.916	-200.000	0.002	-0.112
-517.902	-7.491	-0.312	0.211
-516.887	-79.407	-0.396	0.134
-515.872	800.000	-0.019	-0.056
-514.858	800.000	-0.047	-0.174
-513.843	-200.000	-0.017	0.126
-512.829	-200.000	-0.057	0.333
-511.814	-54.304	-0.200	0.091
-510.799	60.159	-0.121	-0.120
-509.785	-11.139	0.234	-0.154
-508.770	91.440	0.019	-0.021
-507.756	800.000	0.095	-0.383
-506.741	-118.888	-0.107	0.019
-505.726	-200.000	0.031	0.221
-504.712	91.474	0.112	0.125
-503.697	17.860	0.210	-0.167
-502.683	-115.595	-0.366	-0.069
-501.668	-200.000	-0.005	0.163
-500.653	800.000	0.028	0.116
-499.639	63.108	-0.056	0.056
-498.624	11.920	0.222	0.170
-497.610	-200.000	-0.003	-0.020
-496.595	-151.988	0.028	0.002
-495.581	-10.530	0.265	-0.175
-494.566	-200.000	-0.010	0.092
-493.551	800.000	-0.068	-0.188
-492.537	16.095	0.311	-0.245
-491.522	-130.295	0.042	0.006
-490.508	800.000	0.013	-0.051
-489.493	186.607	-0.094	-0.140
-488.478	-143.606	0.224	-0.021
-487.464	-63.003	0.104	0.043
-486.449	-21.653	-0.384	-0.233
-485.435	-64.324	0.091	0.037
-484.420	80.005	0.289	-0.309
-483.405	95.101	-0.081	0.092
-482.391	800.000	0.063	-0.226
-481.376	800.000	-0.005	-0.016
-480.362	-54.219	-0.215	-0.097
-479.347	-134.090	0.145	0.018
-478.332	-18.104	0.298	0.186
-477.318	-200.000	-0.041	-0.268
-476.303	422.578	0.074	0.159
-475.289	69.022	-0.128	0.131
-474.274	673.901	-0.121	0.313
-473.259	-91.876	0.192	-0.054
-472.245	299.223	0.060	-0.110
-471.230	388.546	0.065	0.133
-470.216	21.145	-0.128	0.103
-469.201	-66.167	0.391	0.155
-468.186	-69.471	-0.248	0.095
-467.172	-146.309	0.097	-0.008
-466.157	39.401	-0.230	0.205
-465.143	20.680	0.157	-0.127
-464.128	-26.757	-0.047	-0.027
-463.113	-80.612	-0.166	-0.055
-462.099	-77.021	-0.250	-0.087
-461.084	-200.000	-0.026	0.116
-460.070	68.997	-0.248	0.254
-459.055	800.000	0.068	0.206
-458.040	54.326	0.118	-0.113
-457.026	-200.000	0.025	0.155
-456.011	-200.000	0.001	0.020
-454.997	-97.086	0.138	0.036
-453.982	800.000	-0.047	-0.162
-452.968	-2.808	-0.245	-0.170
-451.953	-200.000	0.040	0.328
-450.938	39.951	0.111	0.099
-449.924	-65.982	0.199	0.079
-448.909	-75.866	-0.164	0.058
-447.895	-102.589	0.304	-0.072
-446.880	-200.000	-0.005	-0.081
-445.865	43.439	-0.102	-0.093
-444.851	800.000	-0.137	0.401
-443.836	47.907	0.107	0.100
-442.822	211.273	0.103	-0.161
-441.807	100.945	0.037	0.043
-440.792	-108.517	-0.239	0.051
-439.778	-99.313	0.264	-0.066
-438.763	26.112	-0.153	0.127
-437.749	-200.000	0.006	0.160
-436.734	274.908	-0.194	-0.342
-435.719	800.000	-0.023	0.086
-434.705	-87.188	-0.309	-0.094
-433.690	260.421	0.078	0.135
-432.676	-86.473	0.207	-0.063
-431.661	-200.000	-0.010	-0.096
-430.646	800.000	0.089	-0.347
-429.632	800.000	0.039	-0.163
-428.617	-200.000	0.020	0.135
-427.603	273.994	-0.124	0.217
-426.588	-185.397	0.050	0.001
-425.573	-45.226	0.261	0.129
-424.559	441.027	0.084	-0.182
-423.544	-200.000	0.384	-0.001
-422.530	-152.552	0.142	0.010
-421.515	800.000	-0.067	0.270
-420.500	-71.933	0.244	0.090
-419.486	362.660	0.188	0.375
-418.471	-84.988	-0.346	0.108
-417.457	78.703	-0.403	0.429
-416.442	-87.758	-0.035	-0.011
-415.428	709.269	-0.078	-0.206
-414.413	-200.000	0.002	-0.315
-413.398	800.000	-0.055	-0.183
-412.384	67.697	0.205	0.208
-411.369	-200.000	0.021	0.244
-410.355	-200.000	0.008	0.225
-409.340	-73.936	-0.180	0.065
-408.325	-196.325	0.068	0.000
-407.311	-200.000	-0.019	-0.315
-406.296	-83.464	0.253	0.081
-405.282	-200.000	-0.006	-0.159
-404.267	198.735	0.111	0.169
-403.252	359.945	0.021	-0.042
-402.238	309.280	-0.086	0.160
-401.223	-33.345	-0.183	0.101
-400.209	535.453	-0.136	-0.321
-399.194	81.427	-0.258	-0.278
-398.179	576.290	0.121	0.294
-397.165	-36.613	0.151	-0.080
-396.150	26.240	0.228	-0.189
-395.136	-200.000	-0.022	0.332
-394.121	-8.926	0.143	0.095
-393.106	800.000	0.068	0.239
-392.092	23.042	-0.222	-0.181
-391.077	184.662	-0.109	-0.160
-390.063	-93.041	0.017	-0.005
-389.048	-200.000	-0.038	-0.472
-388.033	-41.883	0.186	0.095
-387.019	114.395	-0.109	-0.132
-386.004	28.050	-0.019	0.016
-384.990	-187.409	0.243	0.003
-383.975	-200.000	-0.004	0.095
-382.960	-200.000	0.025	-0.293
-381.946	-200.000	-0.042	0.297
-380.931	94.097	-0.071	0.080
-379.917	-200.000	-0.031	-0.253
-378.902	6.664	0.157	-0.116
-377.888	-200.000	0.023	-0.120
-376.873	95.577	0.196	0.222
-375.858	-200.000	-0.040	0.308
-374.844	32.864	0.113	-0.097
-373.829	146.659	-0.142	-0.189
-372.815	362.334	0.101	-0.202
-371.800	-30.756	-0.185	-0.104
-370.785	72.407	-0.168	-0.174
-369.771	-135.387	0.192	0.023
-368.756	26.648	-0.282	0.234
-367.742	-41.648	0.177	-0.090
-366.727	100.302	0.176	0.203
-365.712	138.080	-0.032	-0.042
-364.698	-25.550	-0.210	-0.123
-363.683	-167.077	-0.333	-0.013
-362.669	-28.483	0.171	-0.098
-361.654	278.944	0.075	0.132
-360.639	196.944	-0.180	0.273
-359.625	-121.944	-0.154	-0.025
-358.610	525.898	-0.122	-0.286
-357.596	709.171	0.093	-0.245
-356.581	276.006	0.184	-0.324
-355.566	10.710	-0.028	-0.021
-354.552	696.748	-0.053	-0.137
-353.537	563.037	-0.042	-0.101
-352.523	800.000	-0.082	-0.245
-351.508	-200.000	-0.011	0.078
-350.493	-200.000	-0.085	-0.496
-349.479	-200.000	-0.056	-0.301
-348.464	49.811	0.242	-0.226
-347.450	-102.218	-0.244	0.058
-346.435	-11.669	0.133	-0.086
-345.420	-197.632	0.101	0.001
-344.406	479.614	0.042	-0.095
-343.391	-200.000	-0.019	0.236
-342.377	73.224	-0.064	0.066
-341.362	-200.000	-0.067	0.292
-340.348	-64.063	-0.199	0.080
-339.333	-169.692	-0.500	-0.018
-338.318	54.202	-0.304	-0.290
-337.304	189.530	-0.090	0.133
-336.289	-32.301	0.105	-0.058
-335.275	462.640	0.050	-0.111
-334.260	800.000	0.095	-0.365
-333.245	16.529	-0.328	-0.257
-332.231	-200.000	-0.049	-0.315
-331.216	-200.000	0.057	-0.292
-330.202	800.000	-0.104	-0.319
-329.187	-101.835	-0.406	-0.097
-328.172	-99.243	0.369	-0.092
-327.158	-200.000	-0.039	-0.484
-326.143	-29.217	-0.203	0.116
-325.129	14.941	0.138	0.107
-324.114	800.000	-0.076	0.218
-323.099	62.208	0.296	0.293
-322.085	-123.564	-0.194	-0.031
-321.070	-102.551	0.307	0.073
-320.056	111.874	0.199	0.238
-319.041	143.667	0.056	0.074
-318.026	-200.000	0.026	-0.143
-317.012	-131.316	-0.270	-0.035
-315.997	646.084	-0.062	0.157
-314.983	800.000	0.108	0.427
-313.968	43.180	-0.137	-0.124
-312.953	800.000	0.039	0.120
-311.939	-200.000	-0.082	0.480
-310.924	-200.000	-0.002	0.065
-309.910	101.339	-0.127	0.146
-308.895	0.317	0.102	0.072
-307.880	-200.000	-0.013	0.325
-306.866	-200.000	-0.011	-0.215
-305.851	71.811	0.108	-0.111
-304.837	263.943	-0.073	-0.126
-303.822	117.202	0.356	0.433
-302.807	800.000	-0.057	0.205
-301.793	800.000	0.030	-0.093
-300.778	-138.486	-0.186	-0.020
-299.764	-97.503	-0.059	-0.015
-298.749	-84.101	-0.049	0.015
-297.735	800.000	-0.027	0.086
-296.720	-200.000	-0.007	0.271
-295.705	98.789	-0.088	-0.100
-294.691	-200.000	0.081	-0.394
-293.676	-200.000	-0.007	0.261
-292.662	694.827	0.041	0.105
-291.647	87.039	-0.208	0.228
-290.632	-200.000	0.052	0.235
-289.618	-200.000	-0.005	0.074
-288.603	-200.000	-0.047	0.313
-287.589	-61.927	-0.131	-0.054
-286.574	-163.302	0.157	0.007
-285.559	-71.666	0.414	0.153
-284.545	23.332	-0.196	-0.159
-283.530	88.032	0.289	0.317
-282.516	448.437	0.093	-0.202
-281.501	-109.819	-0.369	0.077
-280.486	-200.000	-0.034	0.283
-279.472	-113.220	-0.147	-0.029
-278.457	46.326	-0.149	-0.136
-277.443	101.899	-0.135	0.156
-276.428	-83.019	0.168	-0.053
-275.413	-84.686	0.201	-0.063
-274.399	323.495	-0.033	-0.061
-273.384	-200.000	-0.051	-0.401
-272.370	800.000	-0.052	0.171
-271.355	2.890	-0.313	0.224
-270.340	-31.379	-0.111	-0.062
-269.326	-142.057	0.169	0.017
-268.311	800.000	0.021	-0.089
-267.297	800.000	-0.080	0.221
-266.282	50.260	-0.142	0.132
-265.267	-81.126	0.252	-0.082
-264.253	190.436	-0.095	-0.141
-263.238	-40.476	0.157	0.081
-262.224	-200.000	-0.006	-0.068
-261.209	-200.000	0.003	-0.107
-260.195	-52.888	-0.264	0.120
-259.180	-59.576	0.366	-0.155
-258.165	39.610	-0.205	-0.181
-257.151	139.412	-0.118	-0.154
-256.136	-200.000	-0.046	0.266
-255.122	-30.508	-0.292	-0.163
-254.107	-65.780	-0.263	0.104
-253.092	-103.940	-0.270	-0.062
-252.078	-200.000	0.013	-0.260
-251.063	-200.000	0.015	-0.142
-250.049	74.463	-0.189	0.196
-249.034	-30.548	-0.242	-0.136
-248.019	-19.033	-0.227	-0.139
-247.005	-200.000	0.023	-0.111
-245.990	-134.119	0.282	-0.034
-244.976	0.131	0.386	0.272
-243.961	-200.000	0.005	0.144
-242.946	13.161	0.134	0.103
-241.932	-3.906	0.313	0.215
-240.917	-200.000	-0.059	-0.474
-239.903	15.432	-0.185	0.144
-238.888	316.924	0.035	-0.065
-237.873	-75.535	-0.136	0.048
-236.859	-200.000	-0.001	-0.068
-235.844	-200.000	-0.022	0.105
-234.830	-200.000	0.005	0.142
-233.815	800.000	0.060	0.203
-232.800	307.359	-0.087	0.160
-231.786	-187.912	-0.268	0.003
-230.771	108.659	0.173	0.204
-229.757	7.540	-0.137	0.101
-228.742	58.169	-0.176	0.171
-227.727	800.000	0.098	0.380
-226.713	-200.000	-0.023	0.209
-225.698	-125.148	0.145	-0.022
-224.684	-67.334	-0.186	0.072
-223.669	-24.805	0.301	-0.177
-222.655	-39.883	-0.157	-0.081
-221.640	800.000	-0.077	-0.257
-220.625	-200.000	0.011	0.133
-219.611	-9.705	0.180	-0.118
-218.596	-15.677	0.115	-0.072
-217.582	26.577	0.268	-0.221
-216.567	259.021	-0.095	0.161
-215.552	32.510	0.072	0.061
-214.538	800.000	-0.068	0.191
-213.523	99.212	0.175	-0.200
-212.509	-200.000	-0.061	-0.269
-211.494	-20.446	0.114	-0.069
-210.479	104.257	-0.159	-0.185
-209.465	48.809	-0.072	0.067
-208.450	65.156	-0.054	0.054
-207.436	-108.351	0.065	-0.014
-206.421	-200.000	-0.001	-0.121
-205.406	-66.484	-0.124	-0.049
-204.392	-107.472	-0.155	0.033
-203.377	254.741	0.119	0.200
-202.363	-200.000	-0.099	0.443
-201.348	56.050	0.311	-0.297
-200.333	487.656	-0.110	-0.248
-199.319	338.896	0.047	-0.090
-198.304	109.379	-0.101	-0.119
-197.290	800.000	0.072	-0.230
-196.275	107.015	0.099	-0.116
-195.260	-200.000	0.029	-0.191
-194.246	800.000	0.057	-0.170
-193.231	722.658	-0.134	-0.352
-192.217	-39.596	0.093	0.048
-191.202	8.541	-0.076	-0.056
-190.187	-200.000	0.003	-0.314
-189.173	22.500	-0.109	0.088
-188.158	-106.205	0.089	-0.020
-187.144	5.692	-0.085	0.062
-186.129	-151.123	-0.305	-0.023
-185.114	211.745	0.138	0.214
-184.100	354.027	-0.110	-0.215
-183.085	-38.064	-0.360	-0.188
-182.071	-200.000	0.028	0.328
-181.056	800.000	-0.087	0.321
-180.042	-35.445	0.191	-0.102
-179.027	-25.914	0.278	-0.161
-178.012	-32.565	0.367	0.202
-176.998	-15.802	-0.071	-0.045
-175.983	-171.758	0.188	0.006
-174.969	-200.000	-0.011	-0.183
-173.954	17.185	-0.091	0.071
-172.939	-45.867	0.157	0.076
-171.925	-136.097	0.313	-0.036
-170.910	-200.000	0.005	-0.116
-169.896	47.385	0.214	0.196
-168.881	-200.000	-0.001	-0.099
-167.866	-200.000	0.050	-0.314
-166.852	-196.271	-0.178	0.001
-165.837	211.513	0.176	-0.273
-164.823	800.000	-0.050	-0.159
-163.808	-95.669	-0.259	-0.068
-162.793	-68.878	0.232	0.088
-161.779	135.277	0.191	-0.244
-160.764	-118.671	0.458	-0.080
-159.750	-200.000	-0.046	0.217
-158.735	800.000	0.042	0.175
-157.720	-200.000	0.018	0.340
-156.706	-31.631	0.156	0.086
-155.691	250.534	0.029	-0.048
-154.677	0.021	0.083	0.058
-153.662	237.699	0.126	0.205
-152.647	247.089	-0.093	-0.155
-151.633	-200.000	0.000	-0.115
-150.618	800.000	0.073	0.277
-149.604	-71.967	-0.235	0.086
-148.589	77.040	0.167	0.174
-147.574	8.148	-0.207	0.153
-146.560	-200.000	0.026	0.239
-145.545	-101.857	0.163	0.039
-144.531	-72.248	-0.212	-0.077
-143.516	217.296	0.121	-0.190
-142.502	-200.000	0.032	-0.228
-141.487	106.159	0.208	-0.242
-140.472	-41.188	0.163	-0.083
-139.458	-42.565	-0.171	-0.085
-138.443	-41.486	0.102	-0.052
-137.429	-15.365	-0.252	-0.158
-136.414	86.733	0.124	-0.135
-135.399	-200.000	0.063	-0.274
-134.385	-41.088	0.132	0.067
-133.370	76.435	-0.336	0.350
-132.356	-124.035	0.309	0.048
-131.341	800.000	0.112	0.444
-130.326	261.046	0.069	0.118
-129.312	-25.710	-0.306	0.178
-128.297	-36.250	0.220	0.117
-127.283	-171.331	0.154	-0.005
-126.268	5.967	0.143	-0.104
-125.253	22.562	0.232	0.186
-124.239	-200.000	-0.013	-0.154
-123.224	800.000	0.058	-0.168
-122.210	-200.000	-0.023	0.116
-121.195	54.957	0.253	0.240
-120.180	-200.000	-0.024	-0.113
-119.166	-200.000	-0.028	-0.209
-118.151	-200.000	0.048	-0.364
-117.137	-15.680	0.063	-0.040
-116.122	-22.763	-0.310	0.184
-115.107	-200.000	-0.070	0.443
-114.093	-86.614	0.227	-0.068
-113.078	-66.635	-0.262	0.102
-112.064	800.000	0.030	0.101
-111.049	-200.000	0.001	0.029
-110.034	-41.044	0.171	-0.087
-109.020	-109.624	-0.074	-0.015
-108.005	382.307	0.144	0.291
-106.991	51.665	-0.041	0.038
-105.976	100.806	0.276	-0.315
-104.962	-9.043	-0.084	-0.055
-103.947	474.470	-0.260	-0.577
-102.932	-200.000	0.020	-0.134
-101.918	-200.000	-0.004	-0.026
-100.903	-200.000	0.005	-0.093
-99.889	-32.226	-0.055	-0.030
-98.874	242.093	0.115	0.188
-97.859	237.134	-0.130	0.212
-96.845	-105.412	0.449	-0.100
-95.830	-16.997	0.195	-0.121
-94.816	-130.218	0.052	0.007
-93.801	101.608	0.027	-0.031
-92.786	-147.333	0.196	0.016
-91.772	-91.201	-0.167	0.047
-90.757	-111.349	0.485	0.097
-89.743	-107.689	-0.120	0.026
-88.728	10.919	0.131	0.098
-87.713	57.776	-0.136	-0.130
-86.699	212.153	-0.221	0.342
-85.684	112.069	-0.280	-0.332
-84.670	-17.528	0.159	0.098
-83.655	-189.787	-0.294	0.003
-82.640	-200.000	-0.014	-0.157
-81.626	800.000	0.123	0.334
-80.611	-15.853	-0.419	-0.262
-79.597	-38.781	-0.135	0.070
-78.582	395.489	-0.168	0.343
-77.567	-200.000	-0.072	-0.373
-76.553	-132.929	-0.153	-0.019
-75.538	-200.000	-0.023	-0.295
-74.524	-200.000	-0.024	0.148
-73.509	-200.000	0.042	-0.212
-72.494	-6.641	0.071	-0.047
-71.480	213.592	0.189	0.293
-70.465	632.285	-0.159	0.394
-69.451	406.012	0.113	-0.233
-68.436	-200.000	0.061	0.438
-67.422	-200.000	0.052	0.450
-66.407	306.593	-0.078	-0.143
-65.392	294.682	-0.060	-0.107
-64.378	25.964	-0.084	-0.069
-63.363	-145.395	0.185	0.016
-62.349	-41.626	0.252	0.127
-61.334	28.778	-0.984	-0.817
-60.319	-63.905	0.662	0.265
-59.305	321.661	-0.521	-0.972
-58.290	249.596	0.602	1.000
-57.276	471.514	0.774	1.707
-56.261	-200.000	108.041	592.526
-55.246	455.398	1473.941	3203.481
-54.232	148.139	2659.733	3517.431
-53.217	100.492	2281.276	2596.073
-52.203	38.916	1896.119	1660.281
-51.188	33.092	1686.016	1432.279
-50.173	30.598	1642.403	1376.730
-49.159	49.102	1695.119	1560.602
-48.144	49.853	1711.002	1580.812
-47.130	32.721	1669.384	1415.139
-46.115	29.977	1655.051	1382.481
-45.100	29.782	1650.186	1376.906
-44.086	29.798	1647.459	1374.699
-43.071	29.702	1645.020	1371.895
-42.057	29.694	1642.000	1369.265
-41.042	29.808	1639.661	1368.104
-40.027	29.828	1638.051	1366.854
-39.013	29.787	1636.525	1365.223
-37.998	29.738	1634.910	1363.461
-36.984	29.783	1633.466	1362.533
-35.969	29.962	1632.143	1362.692
-34.954	29.958	1630.233	1361.013
-33.940	29.886	1628.855	1359.284
-32.925	29.886	1626.886	1357.585
-31.911	29.890	1625.320	1356.251
-30.896	29.907	1623.223	1354.576
-29.881	29.872	1622.384	1353.562
-28.867	29.977	1619.885	1352.196
-27.852	29.850	1618.936	1350.420
-26.838	29.882	1617.357	1349.285
-25.823	29.984	1615.898	1348.753
-24.809	29.978	1615.055	1347.954
-23.794	29.914	1613.357	1346.014
-22.779	29.923	1611.717	1344.657
-21.765	29.911	1609.984	1343.071
-20.750	29.893	1608.269	1341.459
-19.736	29.888	1607.388	1340.637
-18.721	30.013	1605.371	1339.804
-17.706	29.853	1604.210	1337.624
-16.692	29.939	1602.946	1337.141
-15.677	29.961	1601.561	1336.094
-14.663	29.934	1600.132	1334.654
-13.648	29.970	1598.847	1333.782
-12.633	29.880	1597.229	1331.734
-11.619	29.891	1595.748	1330.528
-10.604	29.924	1594.260	1329.472
-9.590	29.933	1592.965	1328.401
-8.575	30.084	1591.209	1327.964
-7.560	29.941	1591.146	1326.837
-6.546	29.901	1589.898	1325.458
-5.531	29.960	1588.369	1324.552
-4.517	29.912	1587.547	1323.468
-3.502	29.925	1585.890	1322.127
-2.487	29.992	1584.328	1321.252
-1.473	29.511	1572.952	1308.303
-0.458	26.654	1553.535	1272.073
0.556	21.167	1554.285	1239.107
1.571	18.820	1577.454	1240.539
2.586	18.378	1590.702	1247.628
3.600	16.840	1537.498	1194.957
4.615	9.403	1429.030	1061.647
5.629	1.746	1364.596	965.297
6.644	0.243	1356.264	949.844
7.659	0.078	1355.190	947.970
8.673	0.014	1354.205	946.793
9.688	0.045	1351.894	945.286
10.702	-0.131	1348.901	942.007
11.717	3.555	1354.978	969.355
12.731	11.953	1368.064	1031.713
13.746	17.307	1374.476	1070.249
14.761	17.354	1373.286	1069.523
15.775	16.238	1371.223	1060.810
16.790	15.175	1368.354	1051.830
17.804	14.464	1365.611	1045.171
18.819	14.131	1364.665	1042.271
19.834	13.739	1363.473	1038.813
20.848	13.558	1362.489	1036.839
21.863	13.345	1360.885	1034.194
22.877	13.226	1359.374	1032.211
23.892	13.109	1358.819	1030.969
24.907	13.083	1358.139	1030.194
25.921	13.119	1357.439	1029.799
26.936	13.235	1356.143	1029.447
27.950	13.238	1355.398	1028.812
28.965	13.307	1354.277	1028.297
29.980	13.315	1353.585	1027.727
30.994	13.278	1352.821	1026.829
32.009	13.364	1351.713	1026.429
33.023	13.383	1350.514	1025.546
34.038	13.417	1349.468	1024.871
35.053	13.401	1348.118	1023.659
36.067	13.413	1346.722	1022.584
37.082	13.294	1346.674	1021.717
38.096	13.356	1345.294	1020.962
39.111	13.431	1343.890	1020.269
40.126	13.284	1344.003	1019.358
41.140	13.271	1342.919	1018.370
42.155	13.167	1342.091	1017.008
43.169	13.172	1342.390	1017.175
44.184	13.138	1342.055	1016.625
45.199	13.143	1341.353	1016.035
46.213	13.140	1341.071	1015.710
47.228	13.321	1339.849	1015.805
48.242	13.252	1338.897	1014.572
49.257	13.306	1336.927	1013.324
50.271	13.330	1335.383	1012.211
51.286	13.232	1334.858	1011.124
52.301	13.318	1333.224	1010.321
53.315	13.335	1331.997	1009.402
54.330	13.233	1331.270	1008.143
55.344	13.123	1330.145	1006.529
56.359	13.186	1329.117	1006.044
57.374	13.214	1328.177	1005.416
58.388	13.174	1327.611	1004.659
59.403	13.094	1327.409	1003.929
60.417	13.093	1326.085	1002.830
61.432	12.977	1325.281	1001.432
62.447	13.091	1324.371	1001.347
63.461	13.099	1323.103	1000.348
64.476	13.008	1321.864	998.771
65.490	13.090	1320.496	998.146
66.505	13.157	1318.841	997.210
67.520	13.101	1317.953	996.113
68.534	13.110	1316.848	995.242
69.549	13.127	1316.177	994.748
70.563	13.094	1314.926	993.521
71.578	13.033	1313.816	992.227
72.593	13.019	1312.581	991.122
73.607	13.097	1311.540	990.714
74.622	13.033	1311.435	990.162
75.636	13.010	1310.259	989.051
76.651	13.056	1309.571	988.718
77.666	12.980	1309.123	987.837
78.680	12.990	1308.340	987.222
79.695	13.000	1307.965	986.907
80.709	13.023	1307.507	986.616
81.724	13.204	1306.003	986.471
82.739	13.195	1305.198	985.726
83.753	13.123	1304.497	984.677
84.768	13.282	1303.261	984.603
85.782	13.367	1301.987	984.060
86.797	13.182	1301.213	982.290
87.812	13.262	1299.865	981.661
88.826	13.280	1298.391	980.567
89.841	13.270	1297.862	980.019
90.855	13.202	1297.135	978.984
91.870	13.398	1295.840	979.077
92.884	13.323	1295.197	978.060
93.899	13.416	1294.425	977.940
94.914	13.480	1293.087	977.222
95.928	13.432	1292.347	976.294
96.943	13.350	1291.585	975.146
97.957	13.365	1290.998	974.705
98.972	13.369	1289.669	973.641
99.987	13.361	1288.689	972.767
101.001	13.334	1287.597	971.701
102.016	13.271	1286.997	970.790
103.030	13.391	1285.900	970.583
104.045	13.441	1285.101	970.182
105.060	13.345	1283.869	968.606
106.074	13.235	1282.241	966.650
107.089	13.209	1280.800	965.325
108.103	13.103	1280.378	964.303
109.118	13.248	1278.415	963.585
110.133	13.223	1277.279	962.498
111.147	13.188	1276.089	961.312
112.162	13.127	1275.165	960.179
113.176	13.253	1273.490	959.564
114.191	13.223	1272.792	958.778
115.206	13.275	1271.819	958.261
116.220	13.316	1270.463	957.392
117.235	13.224	1269.992	956.419
118.249	13.288	1268.563	955.626
119.264	13.212	1267.423	954.248
120.279	13.239	1266.451	953.586
121.293	13.186	1265.581	952.544
122.308	13.207	1264.224	951.558
123.322	13.105	1263.496	950.338
124.337	13.147	1262.573	949.799
125.352	13.132	1261.353	948.711
126.366	13.203	1259.710	947.803
127.381	13.128	1259.115	946.838
128.395	13.119	1258.071	945.920
129.410	13.175	1256.977	945.335
130.424	13.175	1256.552	944.931
131.439	13.197	1255.227	943.978
132.454	13.254	1253.782	943.130
133.468	13.212	1253.882	942.881
134.483	13.243	1252.725	942.107
135.497	13.264	1251.386	941.134
136.512	13.232	1250.529	940.224
137.527	13.296	1249.236	939.532
138.541	13.324	1247.474	938.282
139.556	13.332	1246.357	937.405
140.570	13.386	1245.400	936.911
141.585	13.381	1244.150	935.860
142.600	13.382	1242.581	934.598
143.614	13.347	1241.822	933.747
144.629	13.381	1240.955	933.207
145.643	13.395	1239.793	932.329
146.658	13.432	1238.556	931.527
147.673	13.324	1237.169	929.793
148.687	13.296	1235.941	928.630
149.702	13.351	1234.499	927.773
150.716	13.290	1233.678	926.732
151.731	13.299	1232.316	925.677
152.746	13.257	1231.117	924.459
153.760	13.517	1229.785	924.830
154.775	13.423	1228.841	923.515
155.789	13.411	1228.144	922.842
156.804	13.516	1226.850	922.369
157.819	13.465	1226.069	921.419
158.833	13.521	1225.371	921.123
159.848	13.579	1224.291	920.554
160.862	13.595	1223.314	919.826
161.877	13.417	1222.179	917.902
162.892	13.431	1221.031	917.036
163.906	13.466	1219.914	916.314
164.921	13.470	1219.485	915.932
165.935	13.384	1219.053	915.049
166.950	13.517	1217.935	914.866
167.964	13.553	1216.887	914.192
168.979	13.585	1216.035	913.650
169.994	13.593	1215.509	913.219
171.008	13.544	1214.802	912.337
172.023	13.598	1213.793	911.796
173.037	13.644	1213.029	911.394
174.052	13.682	1212.019	910.760
175.067	13.584	1211.403	909.683
176.081	13.510	1210.300	908.369
177.096	13.493	1209.331	907.467
178.110	13.665	1207.923	907.271
179.125	13.635	1206.638	906.059
180.140	13.614	1205.676	905.143
181.154	13.616	1204.696	904.339
182.169	13.596	1203.406	903.182
183.183	13.720	1202.158	902.838
184.198	13.681	1200.812	901.536
185.213	13.784	1199.808	901.263
186.227	13.777	1198.951	900.501
187.242	13.784	1198.068	899.798
188.256	13.790	1196.770	898.776
189.271	13.889	1195.985	898.640
190.286	13.721	1194.907	896.843
191.300	13.623	1193.887	895.468
192.315	13.584	1193.109	894.597
193.329	13.619	1192.838	894.501
194.344	13.704	1191.987	894.244
195.359	13.783	1191.229	894.021
196.373	13.771	1190.485	893.319
197.388	13.889	1190.152	893.624
198.402	13.891	1190.301	893.668
199.417	14.100	1188.914	893.674
200.432	14.025	1188.410	892.814
201.446	14.034	1187.443	892.056
202.461	14.191	1186.427	892.052
203.475	14.139	1185.389	890.913
204.490	14.010	1184.443	889.433
205.504	14.043	1182.770	888.280
206.519	13.950	1181.961	887.094
207.534	14.099	1180.473	886.692
208.548	14.036	1179.836	885.799
209.563	14.061	1179.253	885.418
210.577	14.020	1178.388	884.474
211.592	14.118	1177.198	884.023
212.607	14.203	1176.372	883.774
213.621	14.219	1175.637	883.228
214.636	14.103	1174.944	882.013
215.650	14.290	1173.597	881.917
216.665	14.182	1173.054	880.860
217.680	14.260	1172.107	880.481
218.694	14.224	1171.581	879.818
219.709	14.339	1170.746	879.721
220.723	14.315	1169.960	878.926
221.738	14.273	1169.515	878.292
222.753	14.242	1168.430	877.237
223.767	14.340	1167.491	876.969
224.782	14.409	1167.093	876.956
225.796	14.452	1166.534	876.688
226.811	14.369	1166.028	875.788
227.826	14.301	1165.442	874.917
228.840	14.305	1164.733	874.324
229.855	14.298	1164.126	873.759
230.869	14.390	1163.281	873.530
231.884	14.389	1161.899	872.405
232.899	14.390	1161.374	871.941
233.913	14.366	1160.304	870.936
234.928	14.258	1160.423	870.384
235.942	14.387	1158.598	869.611
236.957	14.425	1158.325	869.525
237.972	14.394	1157.529	868.692
238.986	14.378	1157.022	868.148
240.001	14.383	1156.280	867.542
241.015	14.376	1155.484	866.830
242.030	14.361	1154.772	866.144
243.045	14.556	1153.784	866.339
244.059	14.529	1153.024	865.552
245.074	14.534	1152.190	864.875
246.088	14.498	1151.575	864.153
247.103	14.642	1150.460	863.982
248.117	14.591	1149.694	863.068
249.132	14.673	1148.897	862.817
250.147	14.642	1149.007	862.664
251.161	14.873	1148.038	863.049
252.176	14.825	1147.251	862.136
253.190	14.891	1146.628	861.931
254.205	14.910	1145.676	861.239
255.220	14.877	1145.221	860.647
256.234	14.882	1144.926	860.375
257.249	14.870	1143.853	859.430
258.263	14.905	1143.132	858.992
259.278	14.918	1142.663	858.633
260.293	14.855	1142.569	858.165
261.307	14.996	1141.619	858.096
262.322	15.089	1140.547	857.692
263.336	15.032	1140.153	857.026
264.351	15.078	1139.631	856.793
265.366	15.076	1138.756	856.050
266.380	15.042	1138.262	855.429
267.395	15.040	1137.381	854.683
268.409	14.998	1136.887	854.021
269.424	15.079	1136.335	853.945
270.439	15.058	1135.772	853.340
271.453	15.070	1134.635	852.471
272.468	15.065	1133.855	851.783
273.482	14.937	1133.446	850.749
274.497	15.193	1132.575	851.322
275.512	15.080	1131.611	849.946
276.526	15.063	1131.120	849.417
277.541	15.118	1130.421	849.096
278.555	15.155	1129.977	848.877
279.570	15.188	1128.814	848.095
280.585	15.246	1127.893	847.619
281.599	15.264	1127.384	847.253
282.614	15.202	1126.303	846.050
283.628	15.273	1125.043	845.389
284.643	15.278	1124.351	844.817
285.657	15.339	1123.337	844.291
286.672	15.241	1123.033	843.492
287.687	15.257	1121.871	842.626
288.701	15.312	1120.979	842.157
289.716	15.394	1120.352	842.023
290.730	15.362	1119.881	841.434
291.745	15.366	1119.092	840.789
292.760	15.334	1118.775	840.315
293.774	15.476	1117.868	840.267
294.789	15.443	1117.554	839.794
295.803	15.490	1116.345	839.045
296.818	15.508	1115.647	838.539
297.833	15.410	1115.445	837.823
298.847	15.439	1114.430	837.130
299.862	15.397	1113.582	836.210
300.876	15.492	1113.145	836.283
301.891	15.454	1112.814	835.771
302.906	15.579	1111.541	835.361
303.920	15.548	1111.108	834.808
304.935	15.595	1110.792	834.728
305.949	15.727	1109.601	834.413
306.964	15.634	1109.281	833.638
307.979	15.717	1108.185	833.154
308.993	15.603	1107.535	832.025
310.008	15.760	1107.133	832.429
311.022	15.769	1106.078	831.608
312.037	15.774	1104.750	830.559
313.052	15.725	1103.948	829.642
314.066	15.685	1103.234	828.833
315.081	15.661	1102.599	828.164
316.095	15.667	1101.987	827.660
317.110	15.769	1100.893	827.270
318.125	15.658	1100.384	826.265
319.139	15.695	1099.705	825.863
320.154	15.720	1099.118	825.476
321.168	15.655	1098.553	824.657
322.183	15.724	1098.027	824.530
323.197	15.627	1097.449	823.549
324.212	15.739	1096.803	823.535
325.227	15.765	1096.141	823.092
326.241	15.808	1095.698	822.901
327.256	15.844	1094.720	822.270
328.270	15.777	1094.036	821.356
329.285	15.764	1092.881	820.350
330.300	15.742	1091.868	819.410
331.314	15.781	1091.148	818.987
332.329	15.817	1090.195	818.375
333.343	15.774	1089.550	817.608
334.358	15.932	1088.276	817.348
335.373	15.912	1088.017	816.984
336.387	15.972	1087.223	816.607
337.402	15.987	1086.216	815.853
338.416	15.951	1085.952	815.404
339.431	16.017	1084.977	814.920
340.446	16.156	1084.475	815.141
341.460	15.951	1084.199	813.873
342.475	16.025	1083.057	813.301
343.489	16.215	1081.820	813.218
344.504	16.233	1081.056	812.657
345.519	16.238	1079.980	811.798
346.533	16.254	1079.578	811.502
347.548	16.326	1078.777	811.175
348.562	16.188	1077.917	809.794
349.577	16.193	1077.272	809.261
350.592	16.198	1076.626	808.728
351.606	16.161	1075.671	807.762
352.621	16.200	1074.837	807.253
353.635	16.097	1074.793	806.655
354.650	16.263	1073.348	806.291
355.665	16.166	1073.127	805.593
356.679	16.182	1072.591	805.192
357.694	16.286	1072.219	805.339
358.708	16.256	1071.834	804.836
359.723	16.288	1070.854	804.179
360.738	16.243	1070.359	803.526
361.752	16.274	1069.557	802.997
362.767	16.366	1068.476	802.552
363.781	16.368	1068.511	802.518
364.796	16.429	1067.944	802.312
365.810	16.414	1067.381	801.744
366.825	16.451	1066.896	801.484
367.840	16.689	1065.947	801.831
368.854	16.568	1065.713	801.010
369.869	16.649	1064.422	800.349
370.883	16.582	1063.889	799.564
371.898	16.621	1063.098	799.082
372.913	16.652	1062.325	798.574
373.927	16.526	1062.224	797.837
374.942	16.571	1061.473	797.410
375.956	16.657	1060.965	797.367
376.971	16.643	1060.358	796.770
377.986	16.620	1060.044	796.360
379.000	16.731	1059.506	796.406
380.015	16.746	1059.063	796.074
381.029	16.928	1057.857	795.952
382.044	16.728	1057.039	794.327
383.059	16.895	1056.717	794.797
384.073	16.848	1055.868	793.866
385.088	16.875	1054.988	793.264
386.102	16.838	1054.100	792.353
387.117	16.811	1053.308	791.561
388.132	16.789	1052.307	790.633
389.146	16.592	1051.988	789.405
390.161	16.835	1050.838	789.607
391.175	16.828	1050.161	788.994
392.190	16.849	1049.457	788.492
393.205	16.943	1049.016	788.527
394.219	16.815	1048.155	787.219
395.234	16.876	1047.356	786.830
396.248	16.805	1046.579	785.848
397.263	16.941	1044.951	785.185
398.278	16.916	1044.871	784.939
399.292	16.843	1044.104	783.956
400.307	16.870	1043.222	783.352
401.321	16.809	1042.930	782.780
402.336	16.961	1041.883	782.627
403.350	17.060	1040.901	782.276
404.365	17.029	1040.470	781.740
405.380	16.912	1040.126	780.873
406.394	17.127	1039.008	780.954
407.409	17.050	1038.352	780.038
408.423	17.067	1037.461	779.379
409.438	17.156	1037.162	779.494
410.453	17.107	1036.471	778.682
411.467	17.259	1035.459	778.547
412.482	17.167	1034.877	777.621
413.496	17.269	1034.146	777.468
414.511	17.221	1033.864	776.969
415.526	17.170	1034.083	776.831
416.540	17.253	1033.189	776.471
417.555	17.443	1032.663	776.872
418.569	17.274	1031.982	775.519
419.584	17.376	1031.355	775.444
420.599	17.442	1030.829	775.282
421.613	103.715	1321.774	1469.477
422.628	94.945	1364.124	1469.593
