DTS Sentinel unit serial number:	SN413079Multiplexer serial number:	ORYXHardware model number:	OX4-SRSoftware version number:	ORYX F/W v4.00 Oryx Data Collector v3.7.2.0data status	okinstallation	princeton_trtdifferential loss correction	single-endedforward channel	channel 2reverse channel	N/Adate	2019/09/15time	18:03:35forward acquisition time	60.00reverse acquisition time	0.00gamma	496.2192k internal	0.2283k external	0.2283temperature offset calibration	0.9923default loss term (dB/km)	0.3790temperature slope calibration	1.0000multiplexer offset coefficient	1.0000multiplexer slope coefficient	1.0000fibre end	0.00T internal ref (°C)	44.69T ext. ref 1 (°C)	6.49T ext. ref 2 (°C)	38.98length (m)	temperature (°C)	Stokes	anti-Stokes-747.200	424.909	-0.112	0.247
-746.185	800.000	0.018	-0.056
-745.171	-32.543	0.253	0.145
-744.156	161.558	0.132	0.190
-743.142	99.898	0.068	0.081
-742.127	22.983	0.388	0.327
-741.112	181.596	-0.123	-0.185
-740.098	-9.333	-0.237	0.162
-739.083	-85.746	-0.240	0.077
-738.069	-133.977	-0.317	0.040
-737.054	-57.692	-0.098	0.044
-736.039	-100.118	-0.314	0.080
-735.025	-200.000	0.017	0.205
-734.010	-200.000	-0.041	-0.426
-732.996	-90.867	-0.196	-0.058
-731.981	-200.000	0.042	-0.243
-730.966	284.425	-0.065	0.120
-729.952	-125.192	-0.222	-0.035
-728.937	-200.000	0.016	-0.277
-727.923	17.368	-0.085	0.069
-726.908	60.029	0.201	0.204
-725.894	-200.000	0.007	0.123
-724.879	-184.622	0.246	0.004
-723.864	144.815	0.032	0.044
-722.850	-108.705	0.167	-0.037
-721.835	641.849	0.194	0.507
-720.821	800.000	-0.074	0.213
-719.806	-55.575	0.235	0.108
-718.791	-200.000	0.064	-0.344
-717.777	-115.039	-0.116	-0.023
-716.762	170.284	0.262	-0.384
-715.748	668.573	-0.135	-0.358
-714.733	21.492	-0.135	-0.112
-713.718	-1.143	0.165	0.120
-712.704	185.662	0.123	0.188
-711.689	-131.801	-0.233	-0.031
-710.675	-104.627	-0.146	0.034
-709.660	547.834	-0.115	-0.283
-708.645	-92.080	-0.135	-0.039
-707.631	77.920	0.131	0.143
-706.616	337.928	-0.053	0.106
-705.602	-60.619	0.248	0.108
-704.587	229.307	-0.133	-0.223
-703.572	-142.495	0.219	-0.022
-702.558	244.558	0.053	0.092
-701.543	568.064	0.027	0.068
-700.529	236.982	-0.150	-0.255
-699.514	-200.000	0.017	-0.385
-698.499	361.238	0.129	-0.264
-697.485	-118.822	-0.431	-0.078
-696.470	-117.405	-0.194	-0.036
-695.456	-71.849	0.254	-0.097
-694.441	209.256	-0.140	-0.224
-693.426	103.565	0.105	-0.127
-692.412	-200.000	0.041	0.272
-691.397	660.111	-0.075	0.198
-690.383	103.394	0.156	-0.188
-689.368	-200.000	-0.023	-0.382
-688.354	-200.000	-0.011	-0.313
-687.339	-200.000	-0.012	-0.302
-686.324	-111.095	-0.108	-0.023
-685.310	-41.147	0.317	0.168
-684.295	108.975	-0.133	-0.163
-683.281	800.000	0.080	0.245
-682.266	-64.860	-0.233	0.096
-681.251	800.000	0.080	-0.247
-680.237	437.374	0.111	0.247
-679.222	-129.894	0.243	-0.034
-678.208	-157.688	-0.225	-0.014
-677.193	-78.029	-0.346	-0.122
-676.178	185.803	-0.095	0.144
-675.164	-200.000	-0.045	-0.252
-674.149	243.896	-0.184	0.317
-673.135	324.595	-0.027	0.053
-672.120	-22.746	0.154	-0.095
-671.105	800.000	-0.064	0.237
-670.091	-120.601	-0.302	-0.052
-669.076	-112.267	0.139	0.029
-668.062	539.182	-0.081	-0.196
-667.047	-200.000	0.012	-0.238
-666.032	-80.978	-0.114	0.039
-665.018	-99.164	0.255	0.066
-664.003	786.273	0.057	0.160
-662.989	140.089	0.185	0.249
-661.974	94.824	0.222	0.258
-660.959	-103.550	0.196	0.047
-659.945	24.801	-0.381	-0.323
-658.930	-1.149	-0.141	0.102
-657.916	-120.139	0.195	0.034
-656.901	-124.165	-0.483	-0.078
-655.886	-140.536	0.307	-0.033
-654.872	325.934	-0.036	0.071
-653.857	-85.307	-0.238	0.076
-652.843	189.497	-0.249	0.382
-651.828	-85.682	0.103	-0.033
-650.814	561.245	-0.049	0.121
-649.799	-200.000	-0.034	-0.257
-648.784	501.324	0.081	0.191
-647.770	800.000	0.080	0.283
-646.755	-200.000	-0.038	-0.188
-645.741	201.871	0.092	0.144
-644.726	-200.000	-0.051	0.261
-643.711	200.450	-0.074	0.116
-642.697	-24.449	-0.027	-0.016
-641.682	-91.953	-0.226	-0.065
-640.668	-129.808	0.447	0.063
-639.653	-200.000	0.016	0.302
-638.638	104.236	0.020	0.024
-637.624	-135.456	-0.110	-0.013
-636.609	-157.833	-0.330	0.020
-635.595	8.088	0.335	-0.257
-634.580	11.201	0.094	-0.074
-633.565	-200.000	-0.019	-0.131
-632.551	-142.039	-0.144	-0.015
-631.536	-108.475	-0.177	0.039
-630.522	655.539	0.045	-0.118
-629.507	-200.000	0.014	0.102
-628.492	800.000	-0.122	0.428
-627.478	-128.630	-0.297	-0.043
-626.463	22.951	0.103	0.087
-625.449	293.408	-0.194	0.362
-624.434	594.161	-0.078	0.198
-623.419	-100.916	0.214	0.054
-622.405	-25.809	0.086	-0.052
-621.390	-150.338	0.078	0.006
-620.376	-200.000	-0.266	0.001
-619.361	-140.544	0.118	-0.013
-618.346	173.108	-0.058	0.086
-617.332	111.150	0.121	-0.150
-616.317	435.378	-0.117	0.259
-615.303	-134.755	-0.057	-0.007
-614.288	-200.000	-0.027	-0.175
-613.273	323.200	0.069	0.134
-612.259	156.354	0.181	-0.256
-611.244	367.285	-0.066	-0.137
-610.230	275.862	-0.015	0.027
-609.215	10.369	-0.275	-0.214
-608.201	157.052	-0.087	0.123
-607.186	56.854	0.103	0.103
-606.171	-200.000	-0.049	-0.287
-605.157	-161.970	0.246	0.013
-604.142	68.834	-0.214	-0.224
-603.128	-200.000	-0.001	-0.136
-602.113	-174.654	0.250	-0.007
-601.098	-146.867	-0.120	0.011
-600.084	10.469	-0.301	0.234
-599.069	158.006	-0.149	0.211
-598.055	800.000	-0.030	-0.113
-597.040	-113.857	-0.371	0.074
-596.025	58.171	-0.139	0.139
-595.011	70.198	-0.078	0.082
-593.996	317.473	0.112	-0.216
-592.982	-200.000	0.012	-0.280
-591.967	-133.234	0.149	-0.019
-590.952	9.082	-0.292	-0.225
-589.938	-39.323	0.232	-0.125
-588.923	-200.000	0.047	-0.279
-587.909	403.266	0.060	0.130
-586.894	-133.542	-0.115	-0.015
-585.879	-182.876	0.201	0.004
-584.865	-200.000	0.081	-0.628
-583.850	-186.543	-0.133	-0.002
-582.836	85.648	0.256	0.287
-581.821	135.972	-0.141	0.187
-580.806	-200.000	-0.027	0.123
-579.792	-200.000	-0.002	-0.192
-578.777	-200.000	0.018	0.317
-577.763	800.000	0.043	0.178
-576.748	52.627	0.048	0.047
-575.733	135.865	-0.200	-0.266
-574.719	-200.000	-0.009	-0.071
-573.704	142.472	-0.214	0.290
-572.690	40.958	-0.321	-0.296
-571.675	-154.163	0.069	-0.005
-570.661	-200.000	-0.015	0.183
-569.646	-21.877	-0.275	-0.171
-568.631	800.000	0.057	-0.172
-567.617	-12.824	0.089	0.059
-566.602	-49.082	-0.148	-0.072
-565.588	19.525	0.184	-0.151
-564.573	-200.000	-0.002	-0.196
-563.558	-72.259	-0.585	0.221
-562.544	-158.341	0.136	0.008
-561.529	-200.000	-0.011	-0.179
-560.515	-102.363	0.100	0.025
-559.500	449.801	0.041	0.093
-558.485	-200.000	-0.047	-0.214
-557.471	587.540	-0.026	-0.064
-556.456	800.000	-0.125	-0.382
-555.442	800.000	0.072	0.256
-554.427	433.377	-0.061	0.136
-553.412	-149.244	-0.093	-0.008
-552.398	-72.036	-0.280	-0.106
-551.383	-135.526	-0.167	-0.020
-550.369	11.393	0.150	0.117
-549.354	-112.222	0.054	0.011
-548.339	158.495	-0.095	0.134
-547.325	800.000	-0.031	0.137
-546.310	-64.957	-0.230	0.095
-545.296	-200.000	0.002	0.130
-544.281	657.747	0.105	-0.275
-543.266	-80.709	0.267	0.091
-542.252	103.425	0.126	0.151
-541.237	-67.077	0.313	0.126
-540.223	-200.000	0.015	0.115
-539.208	-78.557	0.064	-0.022
-538.193	-200.000	-0.031	-0.282
-537.179	-200.000	-0.018	-0.197
-536.164	-3.964	0.227	-0.160
-535.150	566.923	-0.044	0.108
-534.135	126.976	-0.090	-0.117
-533.121	-126.370	0.246	0.037
-532.106	356.389	-0.072	0.145
-531.091	-72.379	0.256	-0.097
-530.077	-200.000	-0.001	-0.161
-529.062	800.000	0.078	-0.258
-528.048	-65.087	-0.365	0.150
-527.033	-200.000	-0.043	-0.207
-526.018	222.952	-0.220	-0.361
-525.004	326.313	0.161	0.315
-523.989	800.000	-0.037	-0.115
-522.975	59.766	-0.195	-0.196
-521.960	-200.000	-0.048	0.259
-520.945	-200.000	-0.013	0.331
-519.931	527.905	0.065	0.156
-518.916	-175.752	0.531	-0.015
-517.902	70.485	0.134	0.141
-516.887	800.000	-0.056	0.212
-515.872	-171.314	-0.046	0.002
-514.858	-125.936	0.447	-0.069
-513.843	26.802	-0.220	0.188
-512.829	-100.536	-0.359	-0.090
-511.814	351.012	-0.076	-0.152
-510.799	-200.000	-0.037	0.397
-509.785	-61.357	-0.278	0.119
-508.770	-200.000	0.036	0.165
-507.756	-64.827	0.279	-0.115
-506.741	-189.612	-0.176	0.002
-505.726	8.311	-0.146	0.112
-504.712	116.688	0.142	-0.178
-503.697	106.828	0.134	-0.162
-502.683	425.811	-0.161	-0.353
-501.668	-23.134	0.168	-0.103
-500.653	29.029	-0.105	0.091
-499.639	-66.511	0.291	-0.117
-498.624	-166.521	-0.384	-0.016
-497.610	-98.618	-0.097	-0.025
-496.595	32.220	0.212	0.186
-495.581	361.870	0.146	-0.297
-494.566	9.278	-0.179	-0.137
-493.551	-69.925	-0.134	0.052
-492.537	264.198	0.084	0.148
-491.522	5.481	0.013	-0.009
-490.508	-200.000	-0.007	0.103
-489.493	547.556	0.092	-0.225
-488.478	265.095	-0.240	-0.425
-487.464	29.964	0.133	0.115
-486.449	117.994	-0.154	0.193
-485.435	277.770	-0.188	0.341
-484.420	501.935	0.138	0.324
-483.405	800.000	-0.076	0.327
-482.391	121.109	0.214	0.271
-481.376	498.372	-0.050	0.117
-480.362	437.142	0.132	-0.293
-479.347	670.288	-0.033	0.087
-478.332	800.000	-0.043	-0.143
-477.318	800.000	0.091	-0.311
-476.303	-49.146	0.205	-0.100
-475.289	-200.000	-0.033	-0.272
-474.274	-19.214	-0.228	-0.144
-473.259	5.517	0.159	0.120
-472.245	-200.000	-0.002	-0.011
-471.230	22.723	0.202	-0.168
-470.216	-200.000	0.020	-0.100
-469.201	-200.000	0.044	-0.288
-468.186	-104.422	-0.106	0.025
-467.172	9.797	-0.078	0.060
-466.157	-94.664	0.136	0.038
-465.143	544.958	0.051	0.125
-464.128	800.000	0.052	-0.150
-463.113	-67.091	0.140	-0.056
-462.099	-200.000	0.024	-0.223
-461.084	800.000	-0.086	-0.256
-460.070	-200.000	-0.020	0.103
-459.055	-200.000	-0.000	-0.168
-458.040	800.000	-0.091	-0.324
-457.026	800.000	0.058	-0.195
-456.011	638.702	0.095	0.245
-454.997	-200.000	-0.002	-0.220
-453.982	800.000	-0.038	0.136
-452.968	-140.210	-0.140	-0.015
-451.953	8.182	-0.082	-0.063
-450.938	85.553	-0.096	0.107
-449.924	-54.949	0.184	0.084
-448.909	-200.000	-0.149	-0.000
-447.895	67.636	0.078	0.081
-446.880	800.000	-0.022	-0.067
-445.865	-135.606	0.144	-0.017
-444.851	-200.000	-0.010	-0.100
-443.836	-200.000	0.058	-0.345
-442.822	-76.818	0.112	-0.040
-441.807	-87.154	0.292	-0.090
-440.792	314.160	-0.279	-0.533
-439.778	217.666	-0.101	-0.164
-438.763	627.841	-0.026	-0.066
-437.749	40.808	0.127	-0.116
-436.734	-200.000	-0.026	-0.167
-435.719	-49.833	0.097	0.047
-434.705	464.316	0.077	-0.175
-433.690	-200.000	-0.002	0.040
-432.676	-142.638	0.138	-0.014
-431.661	6.771	0.155	0.117
-430.646	-75.745	-0.017	-0.006
-429.632	38.929	0.145	0.132
-428.617	-66.786	-0.305	0.122
-427.603	77.639	-0.290	0.314
-426.588	-200.000	0.312	-0.001
-425.573	31.768	-0.171	0.149
-424.559	44.604	-0.106	0.099
-423.544	-97.477	-0.153	0.040
-422.530	-53.102	-0.170	-0.079
-421.515	127.508	0.142	-0.183
-420.500	1.676	-0.124	0.091
-419.486	-13.653	-0.085	0.056
-418.471	45.901	-0.171	0.161
-417.457	-200.000	0.016	0.296
-416.442	111.360	-0.092	-0.113
-415.428	800.000	-0.085	-0.286
-414.413	-194.990	-0.315	-0.002
-413.398	-200.000	0.074	-0.344
-412.384	-200.000	-0.028	-0.261
-411.369	-200.000	-0.012	0.406
-410.355	-140.774	0.348	0.036
-409.340	800.000	0.032	-0.136
-408.325	-68.954	-0.190	0.074
-407.311	107.494	-0.032	-0.039
-406.296	800.000	-0.085	-0.308
-405.282	131.107	0.230	0.300
-404.267	148.754	-0.217	-0.298
-403.252	564.761	-0.155	-0.381
-402.238	-57.924	-0.125	0.056
-401.223	-200.000	0.025	-0.220
-400.209	-44.940	-0.290	-0.146
-399.194	-95.842	-0.308	-0.083
-398.179	50.049	-0.038	0.036
-397.165	245.652	-0.024	0.041
-396.150	-116.293	-0.119	0.022
-395.136	-98.234	-0.143	0.037
-394.121	800.000	0.087	0.268
-393.106	-200.000	0.006	0.168
-392.092	-200.000	-0.034	0.279
-391.077	-130.698	-0.346	0.047
-390.063	83.783	-0.112	-0.124
-389.048	167.185	0.023	0.032
-388.033	800.000	0.034	0.148
-387.019	69.759	-0.157	0.164
-386.004	-103.430	-0.348	0.083
-384.990	-200.000	0.030	-0.221
-383.975	92.496	-0.054	-0.062
-382.960	800.000	0.039	0.121
-381.946	-89.410	0.221	0.066
-380.931	51.276	0.101	0.098
-379.917	-164.821	-0.099	-0.005
-378.902	-90.742	0.262	0.076
-377.888	-104.998	-0.123	-0.029
-376.873	703.198	0.121	-0.322
-375.858	-38.601	-0.096	-0.052
-374.844	6.943	-0.265	-0.200
-373.829	-106.687	0.268	-0.060
-372.815	255.082	-0.118	0.204
-371.800	-93.900	0.211	-0.059
-370.785	-65.542	0.259	-0.105
-369.771	160.979	0.120	0.169
-368.756	-25.192	0.209	0.125
-367.742	800.000	-0.060	0.189
-366.727	-124.989	0.217	0.034
-365.712	800.000	0.018	0.077
-364.698	74.961	-0.219	-0.234
-363.683	-88.185	0.163	-0.049
-362.669	-151.027	0.144	-0.011
-361.654	134.111	0.181	0.238
-360.639	8.729	-0.189	0.144
-359.625	18.735	0.114	-0.092
-358.610	-200.000	-0.011	-0.126
-357.596	800.000	0.070	0.207
-356.581	-156.975	0.244	-0.015
-355.566	800.000	0.093	-0.263
-354.552	-166.896	0.200	-0.008
-353.537	-200.000	0.057	-0.000
-352.523	160.789	-0.011	0.015
-351.508	-138.114	-0.138	0.015
-350.493	-99.059	0.262	-0.067
-349.479	-142.567	0.173	-0.017
-348.464	-28.973	0.217	-0.126
-347.450	165.090	0.105	-0.150
-346.435	463.453	0.080	-0.180
-345.420	78.632	-0.109	-0.118
-344.406	-200.000	0.013	-0.441
-343.391	422.989	-0.054	-0.116
-342.377	35.569	-0.244	0.217
-341.362	89.312	-0.290	0.327
-340.348	51.098	0.172	-0.165
-339.333	-200.000	0.006	0.398
-338.318	-136.239	-0.123	-0.015
-337.304	-15.123	0.212	-0.137
-336.289	-200.000	0.017	-0.111
-335.275	-200.000	0.025	-0.157
-334.260	-42.984	-0.051	0.026
-333.245	-137.935	-0.083	0.009
-332.231	-60.510	0.177	-0.076
-331.216	114.328	-0.130	-0.160
-330.202	-200.000	0.051	-0.353
-329.187	800.000	-0.162	0.604
-328.172	-200.000	-0.018	-0.235
-327.158	341.621	-0.109	0.215
-326.143	-200.000	-0.057	-0.254
-325.129	-34.076	-0.337	-0.187
-324.114	-200.000	0.000	-0.098
-323.099	-200.000	0.020	0.154
-322.085	-200.000	-0.045	-0.227
-321.070	-181.635	-0.315	0.006
-320.056	-54.591	-0.109	-0.050
-319.041	-94.561	0.033	0.009
-318.026	93.915	-0.119	-0.137
-317.012	156.474	0.092	0.128
-315.997	800.000	-0.071	0.272
-314.983	43.760	-0.170	0.157
-313.968	229.390	0.156	-0.258
-312.953	-31.835	-0.127	0.072
-311.939	800.000	-0.146	0.463
-310.924	84.401	-0.215	0.237
-309.910	64.254	-0.148	0.151
-308.895	-25.852	-0.146	-0.087
-307.880	-44.504	0.126	-0.064
-306.866	33.518	0.172	-0.151
-305.851	78.690	-0.192	0.208
-304.837	-83.056	0.192	-0.062
-303.822	800.000	0.038	0.145
-302.807	-122.162	0.254	0.042
-301.793	-200.000	-0.021	0.250
-300.778	-200.000	0.005	-0.056
-299.764	-200.000	-0.024	-0.298
-298.749	111.452	-0.131	-0.160
-297.735	-132.830	-0.341	0.044
-296.720	-111.671	0.205	0.042
-295.705	-92.699	0.222	0.063
-294.691	295.603	0.143	0.264
-293.676	47.557	-0.177	0.167
-292.662	-200.000	-0.024	0.226
-291.647	-44.918	-0.232	-0.117
-290.632	76.919	0.161	0.172
-289.618	-129.072	0.377	0.053
-288.603	434.120	-0.099	0.217
-287.589	-200.000	-0.044	-0.323
-286.574	75.759	-0.060	-0.064
-285.559	800.000	0.021	0.084
-284.545	28.877	0.170	0.146
-283.530	39.627	0.092	0.084
-282.516	-20.737	0.194	-0.120
-281.501	-200.000	-0.071	0.508
-280.486	-137.893	0.274	-0.031
-279.472	122.391	-0.112	0.142
-278.457	-13.900	-0.133	0.087
-277.443	73.431	-0.148	0.156
-276.428	-76.042	0.382	-0.136
-275.413	53.646	0.128	0.124
-274.399	-137.920	-0.199	-0.022
-273.384	5.138	-0.158	-0.117
-272.370	-200.000	-0.002	0.088
-271.355	800.000	0.113	-0.386
-270.340	155.620	0.070	0.097
-269.326	49.772	0.057	-0.055
-268.311	-200.000	0.019	-0.117
-267.297	138.061	0.201	-0.266
-266.282	-141.961	0.182	-0.018
-265.267	134.052	-0.102	0.133
-264.253	-200.000	-0.004	-0.136
-263.238	124.921	-0.132	0.168
-262.224	800.000	0.137	0.424
-261.209	-122.841	-0.085	-0.014
-260.195	-200.000	-0.014	0.120
-259.180	-80.084	0.105	-0.035
-258.165	145.550	0.133	0.180
-257.151	18.889	-0.197	0.159
-256.136	-30.078	0.132	-0.076
-255.122	175.421	0.089	-0.130
-254.107	800.000	0.046	0.181
-253.092	580.960	0.116	0.286
-252.078	800.000	0.028	0.121
-251.063	800.000	-0.039	0.166
-250.049	102.722	-0.063	-0.074
-249.034	-200.000	0.010	-0.047
-248.019	-200.000	0.007	-0.111
-247.005	633.570	-0.015	-0.038
-245.990	-200.000	0.029	0.198
-244.976	23.427	0.148	-0.123
-243.961	138.042	-0.196	0.259
-242.946	201.568	0.024	-0.037
-241.932	211.939	-0.010	0.016
-240.917	216.161	0.250	0.401
-239.903	364.000	-0.179	0.363
-238.888	800.000	-0.015	-0.056
-237.873	67.137	0.060	0.062
-236.859	-200.000	0.028	0.224
-235.844	8.432	-0.206	-0.156
-234.830	20.775	-0.213	-0.174
-233.815	-133.691	-0.063	0.008
-232.800	-112.544	0.274	-0.055
-231.786	426.862	0.143	-0.311
-230.771	-51.603	0.286	0.135
-229.757	-82.039	-0.201	-0.066
-228.742	-52.222	-0.231	0.108
-227.727	-181.099	0.217	-0.004
-226.713	19.731	0.042	0.034
-225.698	-200.000	-0.001	0.137
-224.684	70.252	0.144	-0.150
-223.669	-104.646	0.349	0.081
-222.655	-44.899	0.162	0.081
-221.640	-25.908	-0.107	0.064
-220.625	-38.854	-0.231	-0.122
-219.611	91.602	-0.122	-0.138
-218.596	800.000	-0.115	0.361
-217.582	-155.297	0.212	-0.014
-216.567	220.452	-0.127	0.205
-215.552	-90.966	-0.020	-0.006
-214.538	410.517	-0.207	-0.442
-213.523	15.024	0.199	-0.157
-212.509	-200.000	0.008	-0.257
-211.494	-62.651	-0.194	-0.081
-210.479	50.692	-0.022	0.021
-209.465	-200.000	0.015	0.329
-208.450	12.504	0.107	0.083
-207.436	106.543	0.239	0.285
-206.421	-90.981	0.150	0.043
-205.406	-114.660	0.343	-0.066
-204.392	71.866	-0.141	0.148
-203.377	-108.609	0.249	0.054
-202.363	800.000	-0.143	-0.455
-201.348	26.122	0.129	-0.108
-200.333	800.000	-0.017	-0.060
-199.319	-200.000	-0.007	-0.142
-198.304	800.000	0.053	0.210
-197.290	-74.071	0.362	-0.132
-196.275	-171.161	-0.288	0.010
-195.260	19.516	-0.190	0.154
-194.246	45.444	-0.116	0.107
-193.231	430.516	0.171	-0.373
-192.217	24.957	0.066	0.055
-191.202	-91.344	-0.249	0.072
-190.187	17.689	-0.038	-0.030
-189.173	110.901	0.101	-0.123
-188.158	-200.000	-0.025	0.143
-187.144	-40.457	0.302	-0.158
-186.129	-200.000	0.074	0.346
-185.114	-30.264	0.221	0.126
-184.100	24.035	-0.158	-0.131
-183.085	-34.986	0.113	-0.062
-182.071	-28.012	0.199	-0.116
-181.056	49.938	-0.091	-0.087
-180.042	-81.506	-0.111	0.037
-179.027	-200.000	-0.004	-0.037
-178.012	-155.451	-0.164	0.011
-176.998	800.000	0.061	0.186
-175.983	-93.143	0.306	-0.086
-174.969	-158.278	0.216	-0.013
-173.954	395.468	0.067	-0.141
-172.939	-200.000	-0.031	-0.177
-171.925	-99.626	-0.106	-0.027
-170.910	-200.000	-0.001	0.327
-169.896	-46.797	0.232	0.114
-168.881	162.796	0.093	-0.131
-167.866	51.389	-0.327	0.312
-166.852	-200.000	0.027	0.248
-165.837	-11.632	-0.313	0.207
-164.823	-200.000	-0.024	0.235
-163.808	46.465	-0.137	-0.127
-162.793	-129.533	0.226	-0.031
-161.779	19.896	0.210	-0.170
-160.764	-3.489	-0.271	0.190
-159.750	20.230	-0.087	-0.070
-158.735	67.423	-0.089	0.091
-157.720	25.623	0.230	-0.192
-156.706	-97.916	0.171	-0.044
-155.691	-82.427	0.288	0.094
-154.677	29.508	0.057	0.049
-153.662	-6.289	-0.147	-0.101
-152.647	-124.402	0.294	0.046
-151.633	-200.000	0.011	-0.206
-150.618	422.151	0.196	0.422
-149.604	-200.000	-0.022	-0.335
-148.589	-97.401	0.441	-0.115
-147.574	-116.183	0.383	-0.071
-146.560	-18.456	-0.215	-0.135
-145.545	126.404	-0.086	-0.109
-144.531	146.701	0.065	0.087
-143.516	115.177	-0.123	0.151
-142.502	-200.000	-0.028	-0.322
-141.487	32.209	0.291	0.252
-140.472	67.495	-0.259	0.265
-139.458	-83.916	-0.217	0.069
-138.443	7.158	-0.073	0.054
-137.429	-200.000	0.017	0.250
-136.414	-74.296	-0.309	0.112
-135.399	24.331	-0.209	0.173
-134.385	450.240	0.031	0.068
-133.370	217.052	-0.078	-0.125
-132.356	-50.521	0.090	-0.043
-131.341	-200.000	-0.010	0.085
-130.326	-13.789	-0.057	-0.037
-129.312	-129.284	0.150	0.021
-128.297	800.000	0.066	0.290
-127.283	-43.678	-0.289	0.146
-126.268	-132.231	-0.187	0.024
-125.253	-200.000	-0.027	-0.225
-124.239	432.615	0.113	0.247
-123.224	-19.481	-0.116	-0.072
-122.210	-200.000	0.089	-0.473
-121.195	-26.389	-0.281	0.166
-120.180	39.379	0.198	0.178
-119.166	425.616	0.071	0.153
-118.151	-111.683	0.089	0.018
-117.137	61.075	0.072	0.072
-116.122	-163.373	0.271	0.013
-115.107	94.096	0.154	-0.175
-114.093	10.065	0.180	0.137
-113.078	-134.656	0.144	0.018
-112.064	-104.573	0.330	0.076
-111.049	-163.443	0.056	0.003
-110.034	-114.477	0.131	0.025
-109.020	-14.061	0.197	0.127
-108.005	-117.361	0.279	-0.051
-106.991	72.726	-0.045	0.047
-105.976	132.905	0.080	-0.103
-104.962	-25.423	0.269	-0.159
-103.947	800.000	0.057	-0.198
-102.932	-200.000	-0.020	0.189
-101.918	385.853	0.023	-0.047
-100.903	339.406	-0.141	-0.275
-99.889	-200.000	0.009	0.297
-98.874	-104.679	-0.208	-0.048
-97.859	-200.000	-0.047	-0.259
-96.845	495.553	-0.067	-0.155
-95.830	-142.709	-0.225	-0.022
-94.816	25.332	-0.248	0.206
-93.801	127.475	0.075	0.095
-92.786	-200.000	-0.001	0.066
-91.772	-10.230	0.150	0.100
-90.757	304.577	-0.106	-0.197
-89.743	-19.963	0.318	-0.197
-88.728	35.272	0.339	0.297
-87.713	-0.251	0.249	0.177
-86.699	76.196	-0.286	0.303
-85.684	800.000	0.016	0.064
-84.670	-47.818	0.066	0.032
-83.655	-68.597	-0.067	-0.026
-82.640	500.600	-0.188	0.435
-81.626	-200.000	0.071	0.410
-80.611	800.000	0.058	-0.193
-79.597	-120.478	0.272	0.046
-78.582	30.738	-0.103	-0.089
-77.567	-151.506	0.241	-0.018
-76.553	230.963	-0.029	0.048
-75.538	200.400	-0.081	-0.124
-74.524	-111.618	0.208	0.042
-73.509	34.782	0.098	0.085
-72.494	3.454	-0.237	0.173
-71.480	26.041	-0.121	0.101
-70.465	50.083	0.068	0.064
-69.451	-48.239	0.210	0.101
-68.436	-88.118	-0.144	-0.043
-67.422	800.000	-0.016	0.071
-66.407	-157.244	-0.049	0.003
-65.392	-110.828	0.196	0.040
-64.378	-200.000	0.021	0.098
-63.363	-167.927	0.221	-0.009
-62.349	800.000	0.066	0.262
-61.334	199.005	-0.504	-0.772
-60.319	148.017	-0.161	0.217
-59.305	-200.000	-0.099	-0.769
-58.290	800.000	0.198	0.552
-57.276	185.918	0.908	1.350
-56.261	-200.000	70.089	523.297
-55.246	593.614	1248.830	3087.642
-54.232	141.302	2498.576	3307.152
-53.217	113.473	2353.726	2858.076
-52.203	54.517	1977.796	1906.296
-51.188	48.056	1766.041	1651.059
-50.173	45.231	1718.107	1584.317
-49.159	58.549	1748.085	1715.983
-48.144	65.765	1767.161	1790.785
-47.130	48.223	1731.870	1620.150
-46.115	44.757	1718.393	1580.645
-45.100	44.599	1714.065	1575.378
-44.086	44.545	1711.196	1572.267
-43.071	44.434	1708.944	1569.273
-42.057	44.406	1706.678	1566.918
-41.042	44.492	1704.355	1565.383
-40.027	44.497	1702.553	1563.708
-39.013	44.582	1699.886	1561.843
-37.998	44.462	1698.779	1559.851
-36.984	44.655	1696.805	1559.449
-35.969	44.678	1695.260	1558.143
-34.954	44.794	1693.272	1557.143
-33.940	44.670	1692.240	1555.185
-32.925	44.747	1689.805	1553.474
-31.911	44.696	1688.616	1551.928
-30.896	44.703	1686.748	1550.203
-29.881	44.762	1684.657	1548.672
-28.867	44.638	1683.435	1546.540
-27.852	44.652	1681.747	1545.037
-26.838	44.719	1679.958	1543.844
-25.823	44.764	1678.377	1542.664
-24.809	44.744	1677.235	1541.406
-23.794	44.760	1675.735	1540.082
-22.779	44.775	1674.232	1538.759
-21.765	44.659	1672.535	1536.264
-20.750	44.663	1670.863	1534.698
-19.736	44.695	1669.284	1533.422
-18.721	44.741	1667.654	1532.215
-17.706	44.765	1665.759	1530.588
-16.692	44.669	1664.347	1528.511
-15.677	44.562	1663.192	1526.586
-14.663	44.741	1661.161	1526.004
-13.648	44.707	1659.522	1524.182
-12.633	44.701	1658.385	1523.034
-11.619	44.690	1656.346	1521.020
-10.604	44.787	1655.109	1520.545
-9.590	44.758	1653.715	1518.991
-8.575	44.637	1652.829	1517.215
-7.560	44.708	1651.203	1516.189
-6.546	44.695	1650.219	1515.131
-5.531	44.650	1649.045	1513.653
-4.517	44.700	1647.977	1512.986
-3.502	44.688	1646.341	1511.333
-2.487	44.851	1644.909	1511.168
-1.473	44.703	1633.947	1499.953
-0.458	41.736	1612.397	1458.498
0.556	33.701	1606.683	1407.534
1.571	29.363	1627.337	1392.824
2.586	27.787	1640.366	1391.841
3.600	24.531	1588.812	1323.885
4.615	16.103	1476.277	1171.696
5.629	8.391	1405.908	1064.527
6.644	6.645	1395.527	1045.016
7.659	6.470	1393.905	1042.550
8.673	6.474	1392.621	1041.522
9.688	6.361	1390.499	1039.101
10.702	6.144	1388.314	1035.944
11.717	9.351	1395.222	1062.216
12.731	16.401	1407.959	1118.654
13.746	19.086	1410.585	1138.426
14.761	17.298	1406.132	1122.930
15.775	16.020	1402.996	1111.902
16.790	14.912	1400.253	1102.326
17.804	13.974	1397.967	1094.254
18.819	13.511	1396.715	1090.130
19.834	13.289	1395.151	1087.352
20.848	13.031	1393.493	1084.273
21.863	12.709	1392.579	1081.349
22.877	12.644	1390.989	1079.594
23.892	12.577	1390.331	1078.550
24.907	12.604	1389.689	1078.128
25.921	12.559	1388.979	1077.189
26.936	12.661	1387.556	1076.660
27.950	12.647	1386.599	1075.727
28.965	12.692	1385.937	1075.417
29.980	12.801	1384.455	1074.880
30.994	12.953	1383.028	1074.666
32.009	12.931	1381.894	1073.548
33.023	12.897	1380.669	1072.278
34.038	12.824	1379.468	1070.776
35.053	12.799	1378.461	1069.738
36.067	12.778	1377.096	1068.452
37.082	12.748	1376.157	1067.429
38.096	12.893	1374.901	1067.303
39.111	12.985	1373.773	1066.925
40.126	12.838	1373.335	1065.540
41.140	12.742	1371.923	1063.732
42.155	12.616	1371.576	1062.553
43.169	12.575	1371.426	1062.080
44.184	12.535	1371.340	1061.660
45.199	12.529	1370.795	1061.104
46.213	12.669	1369.976	1061.282
47.228	12.676	1369.298	1060.707
48.242	12.782	1368.349	1060.564
49.257	12.651	1367.044	1058.616
50.271	12.657	1365.180	1057.117
51.286	12.772	1363.396	1056.377
52.301	12.741	1362.674	1055.527
53.315	12.674	1361.644	1054.209
54.330	12.582	1360.250	1052.447
55.344	12.529	1359.260	1051.244
56.359	12.669	1357.952	1051.038
57.374	12.578	1357.469	1049.986
58.388	12.559	1356.271	1048.848
59.403	12.502	1356.040	1048.212
60.417	12.505	1355.308	1047.571
61.432	12.597	1354.001	1047.053
62.447	12.478	1353.388	1045.733
63.461	12.416	1352.428	1044.505
64.476	12.459	1350.906	1043.511
65.490	12.458	1349.593	1042.397
66.505	12.493	1347.886	1041.205
67.520	12.454	1346.866	1040.082
68.534	12.412	1346.173	1039.189
69.549	12.469	1345.190	1038.695
70.563	12.504	1343.923	1037.850
71.578	12.525	1342.442	1036.745
72.593	12.353	1342.369	1035.514
73.607	12.340	1341.502	1034.669
74.622	12.430	1340.091	1034.057
75.636	12.323	1339.974	1033.205
76.651	12.366	1338.883	1032.537
77.666	12.293	1338.547	1031.730
78.680	12.427	1337.698	1031.827
79.695	12.516	1336.441	1031.326
80.709	12.449	1336.508	1030.866
81.724	12.558	1335.438	1030.633
82.739	12.488	1334.673	1029.509
83.753	12.493	1334.062	1028.981
84.768	12.712	1332.723	1029.221
85.782	12.747	1331.375	1028.311
86.797	12.747	1329.819	1027.017
87.812	12.689	1328.720	1025.716
88.826	12.710	1327.623	1024.910
89.841	12.657	1326.845	1023.889
90.855	12.725	1326.019	1023.584
91.870	12.767	1324.989	1022.961
92.884	12.773	1324.273	1022.352
93.899	12.810	1323.346	1021.775
94.914	12.892	1322.808	1021.780
95.928	12.955	1321.309	1020.921
96.943	12.769	1321.063	1019.492
97.957	12.754	1320.086	1018.554
98.972	12.811	1318.638	1017.696
99.987	12.813	1317.942	1017.081
101.001	12.728	1316.723	1015.528
102.016	12.788	1315.450	1014.822
103.030	12.819	1314.926	1014.524
104.045	12.825	1313.961	1013.725
105.060	12.757	1312.476	1012.072
106.074	12.618	1311.521	1010.394
107.089	12.493	1310.191	1008.512
108.103	12.464	1308.774	1007.155
109.118	12.517	1307.429	1006.351
110.133	12.548	1306.196	1005.506
111.147	12.578	1304.541	1004.325
112.162	12.572	1303.239	1003.200
113.176	12.542	1302.662	1002.484
114.191	12.565	1301.332	1001.510
115.206	12.671	1299.823	1000.905
116.220	12.691	1298.824	1000.166
117.235	12.665	1297.657	999.023
118.249	12.638	1296.681	998.022
119.264	12.558	1295.807	996.773
120.279	12.470	1294.676	995.282
121.293	12.553	1293.622	994.888
122.308	12.590	1292.479	994.141
123.322	12.439	1291.919	992.716
124.337	12.480	1290.803	992.017
125.352	12.558	1289.388	991.312
126.366	12.557	1288.454	990.495
127.381	12.455	1287.617	989.152
128.395	12.511	1286.802	988.776
129.410	12.536	1285.724	988.008
130.424	12.638	1284.400	987.515
131.439	12.541	1283.970	986.516
132.454	12.581	1282.961	985.897
133.468	12.631	1282.129	985.466
134.483	12.673	1280.829	984.631
135.497	12.785	1279.855	984.468
136.512	12.756	1278.689	983.308
137.527	12.679	1277.294	981.688
138.541	12.732	1275.709	980.701
139.556	12.749	1274.721	979.957
140.570	12.833	1273.764	979.634
141.585	12.916	1272.352	978.951
142.600	12.795	1271.106	977.187
143.614	12.929	1270.020	977.060
144.629	12.870	1269.357	976.117
145.643	12.820	1268.206	974.846
146.658	12.858	1267.046	974.099
147.673	12.709	1265.603	972.020
148.687	12.785	1264.367	971.431
149.702	12.670	1263.216	969.786
150.716	12.751	1261.180	968.611
151.731	12.817	1260.180	968.149
152.746	12.790	1258.894	966.918
153.760	12.877	1258.197	966.804
154.775	12.802	1257.090	965.432
155.789	12.857	1255.909	964.760
156.804	12.855	1254.921	963.906
157.819	12.874	1254.067	963.272
158.833	12.890	1252.859	962.353
159.848	12.973	1251.662	961.830
160.862	12.960	1250.770	960.987
161.877	12.817	1249.635	959.197
162.892	12.808	1248.575	958.247
163.906	12.779	1247.760	957.369
164.921	12.792	1246.681	956.528
165.935	12.865	1245.544	955.995
166.950	12.854	1245.331	955.686
167.964	12.952	1244.332	955.402
168.979	12.858	1243.488	954.124
169.994	12.897	1242.561	953.552
171.008	12.887	1241.922	952.922
172.023	13.044	1241.000	953.038
173.037	13.052	1240.319	952.476
174.052	13.093	1239.350	951.883
175.067	12.886	1238.196	949.719
176.081	12.748	1237.713	948.469
177.096	12.775	1236.297	947.456
178.110	12.825	1235.261	946.867
179.125	13.020	1233.661	946.677
180.140	13.051	1232.239	945.678
181.154	13.087	1231.137	944.954
182.169	13.095	1230.344	944.307
183.183	13.069	1229.212	943.210
184.198	13.150	1228.103	942.735
185.213	13.151	1226.801	941.661
186.227	13.176	1225.758	940.916
187.242	13.095	1225.071	939.846
188.256	13.162	1224.376	939.611
189.271	13.163	1223.202	938.631
190.286	13.053	1222.080	937.063
191.300	12.962	1220.807	935.489
192.315	12.932	1220.117	934.708
193.329	12.852	1219.887	933.993
194.344	12.900	1219.188	933.645
195.359	12.871	1218.906	933.186
196.373	13.070	1218.301	933.766
197.388	13.201	1217.428	933.752
198.402	13.294	1216.945	933.826
199.417	13.292	1216.512	933.397
200.432	13.393	1215.501	933.109
201.446	13.357	1214.564	932.109
202.461	13.546	1213.540	932.301
203.475	13.393	1212.894	930.864
204.490	13.403	1210.982	929.367
205.504	13.379	1209.977	928.382
206.519	13.298	1209.320	927.342
207.534	13.405	1207.566	926.512
208.548	13.408	1206.756	925.826
209.563	13.381	1206.275	925.224
210.577	13.354	1205.669	924.524
211.592	13.392	1204.418	923.698
212.607	13.562	1203.791	924.084
213.621	13.560	1202.638	923.105
214.636	13.590	1201.717	922.485
215.650	13.456	1200.660	920.844
216.665	13.495	1200.036	920.501
217.680	13.641	1198.826	920.300
218.694	13.728	1198.047	920.104
219.709	13.557	1197.489	918.647
220.723	13.528	1196.607	917.728
221.738	13.681	1195.656	917.764
222.753	13.641	1195.044	916.992
223.767	13.650	1194.401	916.470
224.782	13.663	1194.016	916.163
225.796	13.782	1192.914	915.896
226.811	13.755	1192.295	915.191
227.826	13.658	1191.583	914.027
228.840	13.593	1190.737	912.939
229.855	13.664	1190.044	912.719
230.869	13.712	1189.001	912.100
231.884	13.719	1188.563	911.724
232.899	13.599	1187.597	910.240
233.913	13.609	1186.768	909.581
234.928	13.575	1185.961	908.694
235.942	13.521	1185.260	907.783
236.957	13.634	1184.393	907.655
237.972	13.650	1183.485	906.966
238.986	13.694	1182.853	906.647
240.001	13.649	1182.309	905.903
241.015	13.655	1181.591	905.306
242.030	13.694	1180.971	904.961
243.045	13.780	1180.003	904.607
244.059	13.772	1179.354	903.989
245.074	13.878	1178.327	903.696
246.088	13.804	1177.443	902.536
247.103	13.926	1176.546	902.433
248.117	13.966	1176.084	902.218
249.132	13.934	1175.243	901.317
250.147	14.031	1174.937	901.530
251.161	14.136	1173.961	901.270
252.176	14.147	1173.520	900.908
253.190	14.134	1173.091	900.430
254.205	14.180	1172.248	899.954
255.220	14.290	1171.631	899.996
256.234	14.252	1171.244	899.414
257.249	14.191	1170.400	898.352
258.263	14.242	1169.614	897.948
259.278	14.201	1168.790	897.015
260.293	14.265	1168.273	896.884
261.307	14.411	1167.665	897.121
262.322	14.368	1166.744	896.106
263.336	14.272	1166.801	895.552
264.351	14.375	1165.973	895.390
265.366	14.367	1165.463	894.877
266.380	14.369	1164.878	894.361
267.395	14.389	1163.517	893.341
268.409	14.346	1162.844	892.518
269.424	14.327	1162.336	891.946
270.439	14.316	1161.241	890.967
271.453	14.382	1160.379	890.580
272.468	14.301	1159.635	889.498
273.482	14.245	1159.196	888.784
274.497	14.386	1158.568	888.976
275.512	14.429	1157.601	888.383
276.526	14.477	1157.005	888.104
277.541	14.441	1156.375	887.349
278.555	14.397	1155.894	886.669
279.570	14.584	1154.883	886.807
280.585	14.578	1154.192	886.167
281.599	14.498	1153.314	884.993
282.614	14.499	1152.314	884.148
283.628	14.594	1150.866	883.462
284.643	14.475	1149.967	882.068
285.657	14.571	1149.082	881.815
286.672	14.622	1148.365	881.456
287.687	14.642	1147.233	880.615
288.701	14.659	1146.905	880.377
289.716	14.590	1145.798	879.084
290.730	14.620	1145.053	878.596
291.745	14.772	1144.349	878.774
292.760	14.708	1143.712	877.873
293.774	14.713	1143.375	877.561
294.789	14.650	1142.981	876.850
295.803	14.822	1141.991	876.918
296.818	14.822	1140.797	875.920
297.833	14.693	1140.348	874.824
298.847	14.754	1139.174	874.167
299.862	14.707	1138.819	873.568
300.876	14.751	1138.081	873.159
301.891	14.859	1137.102	872.894
302.906	14.787	1136.734	872.153
303.920	14.952	1136.205	872.534
304.935	14.947	1135.225	871.680
305.949	15.045	1134.673	871.686
306.964	14.964	1133.936	870.620
307.979	14.778	1133.639	869.351
308.993	14.959	1132.237	869.141
310.008	14.986	1131.490	868.627
311.022	15.066	1130.694	868.357
312.037	15.020	1129.707	867.285
313.052	14.964	1128.773	866.200
314.066	14.904	1127.940	865.170
315.081	14.854	1127.114	864.204
316.095	14.900	1126.243	863.697
317.110	14.804	1125.735	862.734
318.125	14.930	1124.548	862.397
319.139	14.927	1123.979	861.869
320.154	14.854	1123.273	860.879
321.168	14.911	1122.721	860.673
322.183	14.917	1122.440	860.413
323.197	14.956	1121.841	860.075
324.212	14.952	1121.304	859.565
325.227	14.967	1120.761	859.154
326.241	15.052	1120.067	858.979
327.256	14.970	1118.979	857.652
328.270	15.049	1117.693	856.993
329.285	15.045	1117.074	856.422
330.300	15.075	1115.796	855.520
331.314	15.073	1115.426	855.151
332.329	14.987	1114.452	853.891
333.343	15.124	1113.479	853.764
334.358	15.125	1112.844	853.208
335.373	15.141	1112.263	852.771
336.387	15.203	1111.032	852.068
337.402	15.255	1110.475	851.827
338.416	15.224	1109.881	851.138
339.431	15.182	1109.374	850.463
340.446	15.192	1108.950	850.111
341.460	15.484	1107.981	850.775
342.475	15.348	1106.843	849.133
343.489	15.359	1106.212	848.634
344.504	15.528	1104.961	848.452
345.519	15.564	1104.234	848.002
346.533	15.464	1103.757	847.053
347.548	15.558	1102.747	846.679
348.562	15.560	1102.064	846.090
349.577	15.505	1101.193	845.065
350.592	15.555	1100.202	844.485
351.606	15.488	1099.507	843.541
352.621	15.312	1098.996	842.190
353.635	15.415	1098.170	841.996
354.650	15.413	1097.758	841.599
355.665	15.374	1097.040	840.780
356.679	15.538	1095.713	840.506
357.694	15.539	1095.597	840.347
358.708	15.643	1095.013	840.348
359.723	15.561	1094.106	839.166
360.738	15.468	1094.227	838.720
361.752	15.560	1093.641	838.656
362.767	15.563	1092.553	837.760
363.781	15.639	1092.029	837.667
364.796	15.715	1091.645	837.675
365.810	15.677	1090.996	836.913
366.825	15.814	1090.110	836.841
367.840	15.799	1089.832	836.482
368.854	15.942	1089.112	836.561
369.869	15.871	1088.593	835.737
370.883	15.927	1087.537	835.133
371.898	15.765	1087.056	833.885
372.913	15.885	1086.001	833.596
373.927	15.845	1085.645	833.052
374.942	15.913	1085.440	833.156
375.956	15.907	1084.332	832.204
376.971	15.962	1083.933	832.092
377.986	15.966	1083.454	831.673
379.000	15.998	1082.591	831.096
380.015	16.031	1082.615	831.204
381.029	16.169	1081.609	831.037
382.044	16.046	1081.120	829.982
383.059	16.138	1080.016	829.514
384.073	16.062	1079.306	828.520
385.088	16.233	1078.515	828.678
386.102	16.166	1077.678	827.633
387.117	15.967	1077.008	826.071
388.132	15.900	1075.828	824.764
389.146	15.918	1075.204	824.303
390.161	16.012	1074.221	823.935
391.175	15.994	1073.404	823.146
392.190	16.144	1072.769	823.319
393.205	16.316	1071.925	823.439
394.219	16.123	1071.299	821.943
395.234	16.183	1070.469	821.525
396.248	16.067	1069.304	819.996
397.263	16.110	1068.787	819.737
398.278	16.184	1067.632	819.139
399.292	16.055	1067.252	818.147
400.307	16.066	1065.783	817.000
401.321	16.086	1065.211	816.586
402.336	16.108	1065.174	816.592
403.350	15.982	1064.607	815.475
404.365	16.158	1063.636	815.509
405.380	16.109	1062.834	814.589
406.394	16.176	1061.885	814.111
407.409	16.284	1061.116	813.972
408.423	16.332	1060.535	813.686
409.438	16.407	1059.922	813.504
410.453	16.376	1059.308	812.812
411.467	16.429	1058.698	812.525
412.482	16.391	1057.967	811.710
413.496	16.415	1057.256	811.208
414.511	16.507	1056.848	811.262
415.526	16.566	1055.753	810.637
416.540	16.699	1055.686	811.151
417.555	16.562	1055.296	810.124
418.569	16.655	1054.409	809.813
419.584	16.575	1054.013	809.054
420.599	16.617	1053.546	808.824
421.613	68.210	1266.132	1259.062
422.628	62.671	1297.100	1259.189
