DTS Sentinel unit serial number:	SN413079Multiplexer serial number:	ORYXHardware model number:	OX4-SRSoftware version number:	ORYX F/W v4.00 Oryx Data Collector v3.7.2.0data status	okinstallation	princeton_trtdifferential loss correction	single-endedforward channel	channel 2reverse channel	N/Adate	2019/09/15time	23:07:35forward acquisition time	60.00reverse acquisition time	0.00gamma	496.2192k internal	0.2335k external	0.2335temperature offset calibration	0.9952default loss term (dB/km)	0.3790temperature slope calibration	1.0000multiplexer offset coefficient	1.0000multiplexer slope coefficient	1.0000fibre end	0.00T internal ref (°C)	28.48T ext. ref 1 (°C)	9.02T ext. ref 2 (°C)	22.18length (m)	temperature (°C)	Stokes	anti-Stokes-747.200	-53.357	0.154	-0.071
-746.185	800.000	-0.057	0.248
-745.171	-137.182	-0.367	0.042
-744.156	105.168	-0.051	0.061
-743.142	-200.000	0.000	0.173
-742.127	-200.000	0.046	0.416
-741.112	101.312	-0.295	0.345
-740.098	346.129	-0.164	0.325
-739.083	215.731	0.060	0.096
-738.069	-82.870	-0.124	0.040
-737.054	-85.398	-0.154	-0.048
-736.039	28.716	-0.189	-0.160
-735.025	577.490	-0.109	0.268
-734.010	-93.317	-0.126	-0.035
-732.996	-168.965	-0.334	-0.013
-731.981	584.394	0.102	0.251
-730.966	397.822	-0.096	0.202
-729.952	170.838	-0.143	0.205
-728.937	800.000	0.086	0.249
-727.923	-150.633	-0.241	-0.018
-726.908	84.462	-0.054	0.059
-725.894	31.642	0.283	0.245
-724.879	-200.000	-0.037	-0.176
-723.864	168.415	0.123	-0.176
-722.850	6.039	0.294	-0.219
-721.835	-161.068	0.086	-0.005
-720.821	21.621	-0.289	-0.236
-719.806	800.000	-0.124	-0.543
-718.791	-200.000	-0.011	0.062
-717.777	678.140	0.017	-0.045
-716.762	-88.905	0.152	0.045
-715.748	-200.000	-0.004	0.245
-714.733	-27.879	-0.116	-0.067
-713.718	22.471	0.136	-0.111
-712.704	382.660	-0.125	-0.257
-711.689	-168.004	-0.267	0.010
-710.675	173.264	0.059	0.086
-709.660	-134.048	-0.277	0.034
-708.645	-102.025	0.156	-0.038
-707.631	-200.000	-0.052	0.335
-706.616	59.188	-0.277	-0.273
-705.602	406.851	0.152	-0.322
-704.587	-163.880	0.255	0.012
-703.572	185.739	-0.010	-0.014
-702.558	-122.623	0.072	-0.012
-701.543	297.735	0.203	-0.374
-700.529	295.175	-0.066	0.121
-699.514	295.251	0.186	-0.342
-698.499	-111.294	-0.308	0.063
-697.485	24.033	0.235	0.195
-696.470	800.000	0.102	-0.394
-695.456	37.076	-0.128	0.113
-694.441	800.000	-0.047	0.195
-693.426	26.279	0.104	0.087
-692.412	-137.474	0.203	0.023
-691.397	351.144	-0.015	0.030
-690.383	-18.241	0.094	0.059
-689.368	-200.000	0.019	-0.097
-688.354	240.857	0.008	-0.013
-687.339	800.000	-0.062	-0.211
-686.324	-25.103	-0.148	-0.088
-685.310	-105.487	-0.142	-0.032
-684.295	85.516	0.187	0.206
-683.281	-82.572	0.091	0.029
-682.266	66.857	0.098	-0.100
-681.251	800.000	-0.094	-0.354
-680.237	212.434	0.096	-0.151
-679.222	-163.111	-0.195	0.009
-678.208	24.756	0.147	-0.122
-677.193	111.373	0.061	-0.074
-676.178	-162.142	0.256	-0.013
-675.164	-37.392	-0.209	0.112
-674.149	-83.003	-0.224	-0.072
-673.135	-2.398	0.210	-0.148
-672.120	-111.803	0.133	0.027
-671.105	99.735	-0.058	0.067
-670.091	-200.000	0.025	0.152
-669.076	-122.760	-0.240	0.039
-668.062	-166.296	0.086	0.004
-667.047	-200.000	-0.006	0.030
-666.032	159.276	0.102	0.143
-665.018	800.000	-0.075	-0.216
-664.003	411.120	-0.103	-0.219
-662.989	496.854	-0.034	0.078
-661.974	56.392	0.053	-0.052
-660.959	4.535	0.275	-0.202
-659.945	66.415	0.365	0.372
-658.930	405.390	-0.118	-0.250
-657.916	-71.011	0.309	-0.117
-656.901	-113.939	0.103	-0.020
-655.886	-171.767	0.314	0.010
-654.872	-200.000	0.086	0.486
-653.857	159.484	0.061	-0.085
-652.843	95.215	-0.041	-0.047
-651.828	-200.000	0.011	-0.095
-650.814	-200.000	0.010	-0.076
-649.799	760.227	0.044	-0.119
-648.784	-141.889	-0.292	0.029
-647.770	513.682	-0.061	-0.142
-646.755	-84.263	0.386	-0.122
-645.741	-102.447	-0.020	-0.005
-644.726	-52.695	-0.190	-0.088
-643.711	27.252	-0.025	-0.021
-642.697	318.398	0.115	-0.218
-641.682	800.000	-0.090	-0.255
-640.668	119.272	-0.190	0.235
-639.653	-137.244	0.428	-0.049
-638.638	-179.721	-0.229	-0.005
-637.624	690.595	0.135	-0.353
-636.609	-122.788	0.076	0.012
-635.595	156.637	0.107	-0.147
-634.580	800.000	-0.089	0.326
-633.565	-109.264	0.060	0.013
-632.551	800.000	0.034	0.122
-631.536	126.425	0.081	-0.102
-630.522	37.208	-0.102	-0.090
-629.507	-200.000	0.060	-0.361
-628.492	-23.287	0.067	0.040
-627.478	-200.000	0.037	-0.321
-626.463	-8.735	0.122	0.082
-625.449	-168.766	-0.402	0.015
-624.434	-4.077	0.096	0.067
-623.419	0.425	-0.227	0.162
-622.405	-42.528	0.323	-0.165
-621.390	210.807	-0.182	-0.286
-620.376	155.207	-0.137	0.188
-619.361	-164.355	-0.128	0.006
-618.346	-58.725	0.107	-0.046
-617.332	-143.377	-0.298	0.029
-616.317	1.251	-0.014	0.010
-615.303	-5.739	0.228	-0.156
-614.288	-130.200	-0.088	0.012
-613.273	-12.562	-0.345	0.225
-612.259	-200.000	-0.023	-0.160
-611.244	-45.768	0.073	-0.036
-610.230	-81.311	0.138	0.045
-609.215	38.533	-0.161	-0.144
-608.201	-13.689	-0.157	-0.102
-607.186	346.894	-0.148	0.292
-606.171	-143.173	0.361	-0.035
-605.157	9.419	-0.222	-0.168
-604.142	223.390	0.043	-0.069
-603.128	181.657	-0.059	0.087
-602.113	-200.000	-0.031	0.267
-601.098	210.370	0.035	-0.055
-600.084	-95.650	-0.181	-0.048
-599.069	-179.747	-0.286	-0.006
-598.055	-119.067	0.203	0.035
-597.040	-130.719	0.107	-0.014
-596.025	-200.000	-0.022	0.113
-595.011	128.301	0.093	-0.118
-593.996	46.133	0.350	-0.324
-592.982	-62.152	-0.195	-0.081
-591.967	323.261	-0.033	0.064
-590.952	-179.460	0.226	0.005
-589.938	800.000	0.025	0.081
-588.923	800.000	-0.057	-0.212
-587.909	-67.646	-0.035	-0.014
-586.894	-200.000	0.045	0.257
-585.879	-22.006	0.200	0.122
-584.865	800.000	0.133	0.367
-583.850	477.658	0.173	0.391
-582.836	-200.000	-0.024	-0.191
-581.821	-5.723	-0.188	0.128
-580.806	-200.000	0.028	0.143
-579.792	-200.000	-0.050	0.247
-578.777	785.587	-0.050	0.138
-577.763	5.246	0.103	0.075
-576.748	-58.934	-0.253	-0.109
-575.733	800.000	0.114	-0.372
-574.719	-51.000	0.223	-0.105
-573.704	-200.000	-0.060	-0.324
-572.690	92.344	-0.180	0.203
-571.675	-159.781	0.256	0.014
-570.661	-64.066	-0.166	-0.068
-569.646	151.002	0.076	0.103
-568.631	-33.880	-0.264	0.145
-567.617	-165.889	0.254	-0.011
-566.602	123.011	-0.185	-0.231
-565.588	8.076	0.334	-0.250
-564.573	49.564	0.268	0.252
-563.558	800.000	0.025	-0.092
-562.544	35.207	-0.115	-0.100
-561.529	-21.901	-0.238	-0.144
-560.515	800.000	0.038	-0.121
-559.500	-177.290	0.196	0.005
-558.485	-133.491	0.071	-0.009
-557.471	65.730	-0.212	0.214
-556.456	29.659	-0.151	0.129
-555.442	8.021	-0.224	0.168
-554.427	-200.000	0.036	-0.316
-553.412	235.192	0.033	-0.055
-552.398	-67.918	0.095	0.037
-551.383	18.082	-0.143	-0.114
-550.369	-200.000	0.040	-0.218
-549.354	-53.724	-0.258	-0.118
-548.339	-116.454	0.084	-0.016
-547.325	-178.944	0.037	0.001
-546.310	-63.547	0.107	0.044
-545.296	-64.930	-0.294	-0.118
-544.281	800.000	-0.042	-0.121
-543.266	-57.386	-0.283	-0.124
-542.252	175.255	0.157	-0.227
-541.237	800.000	0.089	0.262
-540.223	-96.365	-0.055	-0.015
-539.208	93.059	0.113	-0.127
-538.193	300.362	-0.053	-0.098
-537.179	-107.895	0.039	0.008
-536.164	-26.283	0.163	-0.095
-535.150	-56.311	0.190	0.084
-534.135	137.785	0.029	0.038
-533.121	488.412	-0.077	-0.174
-532.106	-101.354	0.386	-0.094
-531.091	5.562	0.085	0.063
-530.077	-200.000	-0.002	-0.024
-529.062	-200.000	-0.019	-0.115
-528.048	-200.000	-0.004	-0.045
-527.033	23.775	0.236	-0.194
-526.018	-17.768	-0.160	-0.100
-525.004	-120.521	0.080	0.013
-523.989	-2.363	0.372	0.260
-522.975	121.147	0.178	0.220
-521.960	514.959	-0.173	-0.401
-520.945	701.377	-0.078	-0.206
-519.931	10.571	-0.165	0.125
-518.916	192.791	-0.102	-0.154
-517.902	-124.057	0.246	0.038
-516.887	-170.170	-0.330	-0.012
-515.872	-94.293	0.198	0.054
-514.858	241.062	-0.185	-0.307
-513.843	89.201	0.067	0.074
-512.829	800.000	0.039	-0.112
-511.814	-96.817	0.358	0.094
-510.799	-69.273	-0.199	-0.076
-509.785	76.762	-0.223	0.236
-508.770	164.947	-0.062	0.087
-507.756	328.450	0.069	0.131
-506.741	-76.635	0.209	-0.073
-505.726	34.599	-0.331	-0.288
-504.712	305.914	-0.113	0.209
-503.697	147.155	0.129	-0.172
-502.683	-58.446	-0.172	-0.074
-501.668	-17.882	-0.120	-0.075
-500.653	157.293	-0.233	-0.321
-499.639	84.889	0.173	-0.189
-498.624	217.567	-0.230	-0.365
-497.610	-2.879	0.215	0.149
-496.595	123.257	0.221	0.276
-495.581	381.257	0.054	-0.109
-494.566	-71.574	-0.111	-0.041
-493.551	41.945	0.258	0.233
-492.537	726.156	-0.165	0.438
-491.522	225.856	0.078	0.126
-490.508	-40.222	-0.153	0.079
-489.493	-68.690	0.087	-0.033
-488.478	-200.000	-0.052	-0.234
-487.464	615.190	0.110	-0.274
-486.449	-200.000	0.032	0.209
-485.435	35.077	-0.146	0.127
-484.420	-70.972	-0.108	0.040
-483.405	-179.030	-0.156	-0.003
-482.391	381.184	0.105	0.214
-481.376	165.613	-0.128	0.180
-480.362	640.502	0.050	-0.126
-479.347	-117.284	0.195	-0.035
-478.332	-181.442	0.125	-0.002
-477.318	-200.000	0.021	0.201
-476.303	-118.788	0.424	-0.074
-475.289	-200.000	-0.023	-0.153
-474.274	800.000	0.064	0.273
-473.259	-90.856	-0.190	-0.055
-472.245	100.311	0.171	0.197
-471.230	-200.000	0.007	0.091
-470.216	-200.000	-0.048	0.214
-469.201	489.845	-0.042	-0.096
-468.186	196.265	-0.084	-0.127
-467.172	-189.049	-0.142	0.002
-466.157	600.318	-0.110	0.272
-465.143	-200.000	-0.027	0.180
-464.128	0.975	0.160	0.114
-463.113	16.802	-0.042	0.033
-462.099	-94.188	-0.164	-0.045
-461.084	142.185	0.169	-0.223
-460.070	615.633	-0.085	-0.212
-459.055	-39.057	0.226	-0.118
-458.040	10.280	0.061	0.046
-457.026	800.000	0.063	0.234
-456.011	-179.505	0.339	0.007
-454.997	598.614	-0.067	0.166
-453.982	-134.013	-0.407	0.050
-452.968	36.705	0.229	-0.201
-451.953	800.000	-0.064	-0.203
-450.938	-79.014	-0.268	-0.091
-449.924	-54.047	-0.071	0.032
-448.909	249.093	0.079	0.133
-447.895	-175.527	0.079	-0.002
-446.880	558.998	-0.182	-0.436
-445.865	800.000	0.108	-0.369
-444.851	485.939	0.090	0.203
-443.836	90.108	-0.032	0.036
-442.822	212.417	-0.092	-0.144
-441.807	38.156	0.034	0.030
-440.792	-200.000	-0.002	-0.085
-439.778	140.500	-0.119	0.156
-438.763	800.000	0.114	0.380
-437.749	-98.362	0.240	0.061
-436.734	-25.614	-0.247	-0.145
-435.719	-28.449	-0.066	0.038
-434.705	800.000	-0.037	-0.132
-433.690	-127.476	0.281	-0.041
-432.676	696.095	0.004	-0.010
-431.661	-125.066	-0.237	0.036
-430.646	800.000	-0.078	0.311
-429.632	-133.604	-0.196	-0.024
-428.617	108.979	0.073	-0.087
-427.603	800.000	0.090	-0.292
-426.588	-103.455	-0.201	-0.047
-425.573	140.624	-0.070	-0.092
-424.559	800.000	0.026	0.084
-423.544	-200.000	-0.063	-0.532
-422.530	800.000	-0.059	0.180
-421.515	-144.816	-0.226	-0.021
-420.500	800.000	-0.045	0.166
-419.486	-2.393	0.223	-0.155
-418.471	-200.000	0.073	0.645
-417.457	-0.193	0.203	0.144
-416.442	800.000	0.110	-0.325
-415.428	12.299	0.123	-0.094
-414.413	-65.821	-0.175	-0.070
-413.398	-200.000	0.037	-0.211
-412.384	-71.010	-0.068	-0.025
-411.369	69.169	-0.149	-0.152
-410.355	-141.623	0.282	-0.028
-409.340	-5.193	-0.279	0.190
-408.325	17.168	0.223	0.176
-407.311	-60.395	0.116	-0.049
-406.296	555.444	-0.056	-0.135
-405.282	191.340	-0.055	0.083
-404.267	381.036	-0.128	0.261
-403.252	-193.592	0.163	-0.001
-402.238	-2.585	-0.167	-0.116
-401.223	-68.882	0.303	0.116
-400.209	121.865	0.187	-0.231
-399.194	-38.982	-0.329	0.172
-398.179	800.000	0.085	-0.282
-397.165	29.887	0.149	-0.126
-396.150	74.329	-0.305	0.317
-395.136	237.501	-0.142	0.233
-394.121	-118.677	-0.193	-0.034
-393.106	-74.953	-0.342	0.121
-392.092	401.941	0.129	-0.269
-391.077	-200.000	0.007	-0.116
-390.063	-129.846	0.013	-0.002
-389.048	-106.822	-0.109	0.024
-388.033	-93.224	0.166	0.046
-387.019	4.150	0.345	0.250
-386.004	-14.313	-0.048	-0.031
-384.990	153.606	0.108	-0.147
-383.975	-200.000	0.023	-0.376
-382.960	-104.302	0.115	-0.026
-381.946	179.344	0.017	-0.024
-380.931	-125.569	0.107	-0.016
-379.917	-105.758	-0.357	0.080
-378.902	-200.000	-0.046	0.204
-377.888	-166.976	0.012	0.001
-376.873	131.269	0.427	-0.543
-375.858	310.989	-0.099	-0.183
-374.844	-16.236	-0.034	0.022
-373.829	-200.000	-0.026	-0.238
-372.815	-35.497	0.282	-0.152
-371.800	766.470	-0.101	-0.272
-370.785	-163.131	-0.129	-0.006
-369.771	115.907	0.215	0.260
-368.756	-58.808	-0.147	0.063
-367.742	-33.841	0.127	0.069
-366.727	-141.140	0.085	0.009
-365.712	287.152	0.146	-0.261
-364.698	57.318	-0.102	-0.099
-363.683	94.295	0.141	0.158
-362.669	565.872	0.106	0.255
-361.654	-200.000	0.007	0.249
-360.639	-100.804	0.132	0.032
-359.625	-200.000	0.028	0.235
-358.610	-30.374	-0.144	0.081
-357.596	77.396	0.167	0.176
-356.581	243.944	0.082	0.136
-355.566	-123.822	0.080	0.013
-354.552	-81.231	-0.243	0.079
-353.537	-200.000	0.024	0.194
-352.523	800.000	0.121	0.353
-351.508	39.633	-0.259	0.230
-350.493	448.829	0.106	-0.231
-349.479	800.000	-0.012	0.042
-348.464	-13.466	-0.234	-0.150
-347.450	205.613	-0.158	0.242
-346.435	424.987	0.023	0.049
-345.420	-200.000	-0.028	-0.306
-344.406	168.461	-0.050	0.071
-343.391	103.185	0.113	0.131
-342.377	349.765	-0.076	0.148
-341.362	800.000	-0.054	0.163
-340.348	18.436	-0.282	-0.223
-339.333	19.808	0.247	-0.197
-338.318	800.000	0.069	0.232
-337.304	-200.000	-0.054	0.368
-336.289	-51.592	-0.315	0.145
-335.275	-200.000	-0.043	0.288
-334.260	-35.776	-0.102	-0.055
-333.245	172.896	0.068	-0.096
-332.231	-200.000	-0.025	0.355
-331.216	-200.000	0.026	-0.264
-330.202	800.000	-0.124	-0.356
-329.187	-161.029	-0.164	0.009
-328.172	-128.551	0.297	0.042
-327.158	-126.476	0.108	-0.016
-326.143	-52.203	-0.377	-0.173
-325.129	-200.000	-0.017	0.216
-324.114	-152.400	0.373	0.027
-323.099	-91.986	0.138	-0.039
-322.085	-9.110	-0.226	-0.149
-321.070	-200.000	0.010	0.058
-320.056	-99.445	0.414	0.103
-319.041	800.000	-0.024	0.102
-318.026	800.000	0.011	0.040
-317.012	-71.672	-0.229	-0.084
-315.997	800.000	0.102	0.352
-314.983	-2.360	0.073	-0.051
-313.968	-74.668	0.256	-0.091
-312.953	-164.683	-0.208	0.009
-311.939	-80.660	0.110	0.036
-310.924	800.000	0.074	-0.256
-309.910	150.038	-0.135	-0.181
-308.895	409.930	-0.069	-0.143
-307.880	-126.409	-0.228	-0.034
-306.866	512.183	0.041	-0.095
-305.851	167.678	-0.185	-0.260
-304.837	-22.202	0.129	0.078
-303.822	800.000	-0.067	-0.186
-302.807	800.000	-0.160	0.449
-301.793	685.326	-0.229	0.591
-300.778	5.389	0.329	0.240
-299.764	-45.581	-0.158	-0.077
-298.749	-40.131	-0.161	0.083
-297.735	-65.625	0.105	0.041
-296.720	-141.813	0.068	0.007
-295.705	275.876	0.155	-0.272
-294.691	59.234	0.152	0.148
-293.676	187.620	-0.101	-0.148
-292.662	67.367	0.154	-0.155
-291.647	-200.000	0.004	0.284
-290.632	-66.854	-0.153	0.060
-289.618	106.957	0.166	-0.195
-288.603	12.294	0.099	0.075
-287.589	-28.675	0.057	-0.032
-286.574	207.381	0.056	-0.086
-285.559	271.567	-0.112	-0.194
-284.545	800.000	-0.110	0.417
-283.530	50.887	0.064	-0.060
-282.516	-50.135	-0.198	-0.093
-281.501	330.074	0.068	-0.129
-280.486	800.000	0.065	0.201
-279.472	-200.000	0.055	-0.282
-278.457	-200.000	-0.062	0.395
-277.443	-5.025	0.116	0.079
-276.428	-200.000	-0.036	-0.182
-275.413	-200.000	0.001	0.061
-274.399	74.899	-0.022	-0.023
-273.384	59.432	0.106	-0.103
-272.370	800.000	0.074	0.228
-271.355	-59.703	-0.081	-0.034
-270.340	108.956	-0.169	0.199
-269.326	-54.010	0.113	-0.051
-268.311	103.517	-0.030	0.034
-267.297	-200.000	0.017	0.450
-266.282	314.889	0.144	0.268
-265.267	-200.000	-0.037	0.293
-264.253	-110.190	-0.286	-0.059
-263.238	-14.813	-0.420	-0.265
-262.224	-135.767	0.054	-0.006
-261.209	-15.460	-0.288	0.181
-260.195	-56.086	0.296	-0.130
-259.180	570.797	-0.076	0.181
-258.165	-175.138	0.160	0.004
-257.151	17.425	0.200	0.157
-256.136	-169.292	-0.320	0.012
-255.122	661.120	0.047	-0.120
-254.107	800.000	0.119	0.360
-253.092	463.240	0.121	-0.267
-252.078	-200.000	-0.015	0.108
-251.063	800.000	-0.088	0.274
-250.049	-200.000	-0.001	0.100
-249.034	-90.478	-0.413	0.118
-248.019	158.412	0.071	0.097
-247.005	262.961	-0.076	-0.130
-245.990	-200.000	0.036	-0.236
-244.976	-140.018	0.335	-0.035
-243.961	536.473	0.094	0.219
-242.946	224.077	0.133	0.211
-241.932	-33.478	-0.204	0.111
-240.917	-81.460	-0.047	0.015
-239.903	800.000	-0.079	-0.257
-238.888	347.208	0.176	0.342
-237.873	-5.564	0.155	0.105
-236.859	-200.000	0.001	0.356
-235.844	-115.212	-0.087	-0.016
-234.830	-200.000	-0.014	0.336
-233.815	-185.490	0.350	0.005
-232.800	219.478	0.333	-0.525
-231.786	66.388	0.067	0.067
-230.771	800.000	-0.054	0.233
-229.757	-142.993	-0.262	0.025
-228.742	195.070	-0.149	-0.223
-227.727	523.819	0.056	-0.130
-226.713	82.031	0.120	-0.128
-225.698	-17.671	0.102	-0.063
-224.684	-133.792	-0.423	0.052
-223.669	800.000	-0.021	0.075
-222.655	-199.955	0.192	-0.001
-221.640	-37.490	-0.311	-0.163
-220.625	10.084	-0.137	-0.102
-219.611	-200.000	0.037	-0.254
-218.596	-200.000	0.007	-0.077
-217.582	56.244	-0.092	-0.088
-216.567	-78.007	-0.175	-0.059
-215.552	-71.523	-0.267	0.098
-214.538	60.341	-0.209	0.203
-213.523	-132.930	-0.231	-0.029
-212.509	6.235	0.095	0.069
-211.494	-200.000	0.095	0.506
-210.479	-87.361	0.274	-0.082
-209.465	800.000	0.134	-0.422
-208.450	-88.773	-0.186	-0.054
-207.436	436.874	-0.144	0.309
-206.421	-108.457	0.312	-0.066
-205.406	-27.933	0.105	-0.060
-204.392	-200.000	0.047	0.308
-203.377	-46.120	0.095	-0.046
-202.363	-200.000	0.020	0.105
-201.348	30.841	0.229	-0.193
-200.333	-106.897	0.048	0.010
-199.319	-75.994	0.154	0.054
-198.304	-69.776	-0.150	-0.056
-197.290	498.339	0.068	0.155
-196.275	306.295	-0.064	-0.116
-195.260	-24.055	-0.173	0.101
-194.246	190.113	0.138	-0.203
-193.231	573.408	0.087	-0.209
-192.217	-0.463	0.066	-0.046
-191.202	-200.000	0.011	-0.160
-190.187	149.890	0.059	0.079
-189.173	-90.168	0.166	-0.047
-188.158	-26.700	-0.091	-0.052
-187.144	88.905	0.132	0.144
-186.129	-110.736	0.235	0.048
-185.114	-68.643	-0.115	-0.044
-184.100	-31.053	0.030	-0.017
-183.085	-106.425	-0.339	0.074
-182.071	-112.428	-0.428	0.084
-181.056	-89.544	-0.142	-0.041
-180.042	-26.399	0.251	0.144
-179.027	-200.000	0.010	0.065
-178.012	-133.521	0.203	-0.025
-176.998	93.491	-0.116	0.129
-175.983	90.731	-0.023	-0.025
-174.969	560.525	0.121	0.286
-173.954	-200.000	-0.034	-0.170
-172.939	-200.000	0.002	0.257
-171.925	112.203	-0.119	0.141
-170.910	-200.000	-0.027	0.179
-169.896	-200.000	-0.017	-0.266
-168.881	88.350	0.295	-0.322
-167.866	-80.734	-0.214	0.070
-166.852	-46.986	-0.024	-0.012
-165.837	-167.187	0.284	-0.011
-164.823	182.351	0.109	0.157
-163.808	800.000	0.049	0.210
-162.793	-62.744	-0.258	0.105
-161.779	170.883	-0.036	0.050
-160.764	191.529	0.128	-0.189
-159.750	151.727	-0.088	-0.117
-158.735	800.000	-0.122	-0.373
-157.720	-200.000	-0.014	0.072
-156.706	-5.904	0.253	-0.170
-155.691	37.786	0.084	0.074
-154.677	8.427	0.402	-0.297
-153.662	217.735	-0.175	-0.273
-152.647	-9.533	-0.366	-0.240
-151.633	-122.242	-0.171	-0.027
-150.618	37.754	0.091	0.079
-149.604	-52.404	-0.149	-0.068
-148.589	687.682	-0.175	0.450
-147.574	92.632	0.213	0.236
-146.560	-200.000	0.028	-0.136
-145.545	800.000	0.033	-0.112
-144.531	202.363	-0.045	-0.068
-143.516	83.371	0.351	0.375
-142.502	194.220	-0.055	0.082
-141.487	800.000	0.031	0.129
-140.472	-36.888	0.409	-0.215
-139.458	-89.825	0.095	-0.027
-138.443	-17.188	-0.007	-0.004
-137.429	-200.000	0.051	0.228
-136.414	278.264	0.178	0.310
-135.399	158.118	-0.165	0.224
-134.385	800.000	-0.053	0.205
-133.370	-80.723	-0.107	0.035
-132.356	83.568	0.138	-0.147
-131.341	-200.000	-0.030	0.357
-130.326	401.902	-0.078	0.160
-129.312	-78.920	0.219	-0.073
-128.297	-140.364	-0.195	0.020
-127.283	800.000	0.033	0.131
-126.268	-86.796	-0.137	-0.041
-125.253	800.000	-0.058	0.182
-124.239	800.000	0.016	-0.053
-123.224	545.902	-0.062	0.146
-122.210	-50.153	0.159	-0.074
-121.195	-200.000	-0.034	0.174
-120.180	567.533	-0.159	0.379
-119.166	654.818	0.074	0.187
-118.151	501.043	0.134	0.303
-117.137	126.583	-0.117	0.145
-116.122	8.072	0.199	-0.146
-115.107	-200.000	-0.014	-0.295
-114.093	-100.443	-0.363	0.088
-113.078	563.567	-0.075	0.178
-112.064	49.197	0.077	0.071
-111.049	533.781	0.011	-0.025
-110.034	83.706	-0.055	0.059
-109.020	800.000	0.026	0.105
-108.005	9.354	0.106	0.079
-106.991	46.148	-0.196	0.178
-105.976	58.681	-0.163	-0.157
-104.962	134.482	-0.209	0.265
-103.947	-27.149	0.124	0.071
-102.932	461.001	0.097	-0.213
-101.918	733.298	-0.066	0.172
-100.903	185.657	0.065	0.094
-99.889	31.161	-0.074	0.062
-98.874	406.609	-0.018	0.038
-97.859	430.719	0.068	0.144
-96.845	-14.510	-0.149	0.094
-95.830	553.723	-0.140	0.329
-94.816	-5.914	0.244	-0.163
-93.801	455.505	-0.032	-0.069
-92.786	-200.000	-0.019	-0.148
-91.772	262.459	-0.096	-0.163
-90.757	800.000	-0.016	0.060
-89.743	252.112	-0.119	-0.198
-88.728	320.103	-0.101	-0.187
-87.713	-83.654	-0.216	0.067
-86.699	99.262	-0.161	0.182
-85.684	-200.000	0.029	0.166
-84.670	-45.941	0.087	0.042
-83.655	-200.000	-0.014	-0.156
-82.640	42.124	0.082	0.073
-81.626	-200.000	0.024	-0.132
-80.611	-12.011	-0.036	-0.023
-79.597	84.527	0.059	0.063
-78.582	11.392	0.091	0.068
-77.567	-100.182	0.014	0.003
-76.553	158.325	-0.213	0.289
-75.538	-143.967	0.544	0.050
-74.524	800.000	-0.105	0.339
-73.509	221.394	0.135	-0.213
-72.494	-119.992	-0.240	0.040
-71.480	31.165	0.241	0.202
-70.465	-81.000	-0.180	0.058
-69.451	384.910	0.088	0.178
-68.436	-96.911	0.189	-0.049
-67.422	-40.599	-0.059	0.030
-66.407	719.526	0.082	-0.213
-65.392	151.693	0.161	-0.215
-64.378	447.439	-0.026	0.055
-63.363	-200.000	0.001	0.082
-62.349	94.654	-0.045	0.050
-61.334	54.836	-1.008	-0.951
-60.319	87.494	0.514	0.557
-59.305	578.904	-0.376	-0.899
-58.290	442.064	0.585	1.252
-57.276	800.000	0.402	1.625
-56.261	-200.000	109.910	637.708
-55.246	491.083	1482.178	3317.773
-54.232	150.350	2654.037	3523.361
-53.217	100.342	2268.963	2574.707
-52.203	37.595	1885.478	1636.039
-51.188	31.772	1677.481	1411.783
-50.173	29.050	1635.866	1356.670
-49.159	50.312	1689.031	1560.354
-48.144	50.423	1704.573	1575.481
-47.130	31.295	1663.289	1396.055
-46.115	28.537	1648.872	1363.432
-45.100	28.396	1643.796	1358.135
-44.086	28.340	1641.488	1355.760
-43.071	28.417	1638.838	1354.089
-42.057	28.296	1636.566	1351.258
-41.042	28.369	1634.600	1350.120
-40.027	28.483	1632.393	1349.082
-39.013	28.372	1630.379	1346.549
-37.998	28.423	1629.201	1345.898
-36.984	28.277	1628.052	1343.825
-35.969	28.488	1626.150	1343.750
-34.954	28.423	1625.006	1342.274
-33.940	28.494	1623.297	1341.328
-32.925	28.486	1621.433	1339.676
-31.911	28.529	1619.595	1338.416
-30.896	28.506	1617.807	1336.719
-29.881	28.471	1616.443	1335.289
-28.867	28.361	1614.690	1332.986
-27.852	28.556	1613.091	1333.031
-26.838	28.503	1611.726	1331.462
-25.823	28.485	1610.654	1330.395
-24.809	28.523	1609.454	1329.622
-23.794	28.468	1608.239	1328.169
-22.779	28.484	1606.437	1326.748
-21.765	28.538	1604.871	1325.790
-20.750	28.432	1603.293	1323.665
-19.736	28.511	1602.080	1323.186
-18.721	28.596	1600.399	1322.357
-17.706	28.486	1599.386	1320.675
-16.692	28.530	1597.388	1319.290
-15.677	28.571	1596.090	1318.461
-14.663	28.583	1595.098	1317.673
-13.648	28.550	1594.058	1316.526
-12.633	28.497	1592.309	1314.646
-11.619	28.507	1590.298	1313.005
-10.604	28.453	1589.494	1311.906
-9.590	28.505	1588.137	1311.104
-8.575	28.498	1587.073	1310.126
-7.560	28.509	1585.881	1309.163
-6.546	28.520	1584.957	1308.433
-5.531	28.577	1583.038	1307.203
-4.517	28.509	1582.300	1306.052
-3.502	28.583	1581.549	1305.911
-2.487	28.598	1579.609	1304.366
-1.473	28.165	1567.519	1291.276
-0.458	25.149	1548.745	1254.691
0.556	19.435	1549.463	1222.809
1.571	17.032	1572.672	1223.707
2.586	16.649	1584.612	1230.102
3.600	15.747	1535.278	1185.348
4.615	12.695	1437.258	1089.410
5.629	9.775	1381.618	1028.546
6.644	9.098	1374.372	1018.767
7.659	8.943	1373.530	1017.073
8.673	9.045	1371.860	1016.389
9.688	8.974	1370.337	1014.726
10.702	8.870	1367.513	1011.884
11.717	10.314	1369.216	1022.180
12.731	13.989	1375.357	1049.932
13.746	16.846	1379.960	1071.439
14.761	17.108	1379.623	1072.740
15.775	16.382	1376.553	1065.683
16.790	15.247	1374.115	1056.546
17.804	14.366	1371.905	1049.206
18.819	13.978	1370.798	1045.827
19.834	13.700	1369.409	1042.926
20.848	13.462	1368.291	1040.486
21.863	13.224	1366.731	1037.717
22.877	13.072	1365.871	1036.018
23.892	13.081	1364.259	1034.760
24.907	12.959	1363.790	1033.549
25.921	13.056	1362.848	1033.352
26.936	13.058	1362.165	1032.752
27.950	13.102	1360.979	1032.037
28.965	13.151	1360.243	1031.691
29.980	13.227	1358.962	1031.103
30.994	13.372	1357.372	1030.713
32.009	13.378	1356.080	1029.678
33.023	13.290	1355.285	1028.431
34.038	13.289	1353.730	1027.154
35.053	13.261	1352.518	1025.973
36.067	13.162	1351.611	1024.578
37.082	13.178	1350.407	1023.678
38.096	13.334	1349.161	1023.606
39.111	13.239	1348.676	1022.558
40.126	13.146	1347.902	1021.309
41.140	13.170	1346.528	1020.321
42.155	13.110	1346.057	1019.504
43.169	13.018	1346.250	1018.996
44.184	12.918	1345.909	1018.029
45.199	12.962	1345.053	1017.563
46.213	13.168	1344.784	1018.540
47.228	13.207	1343.644	1017.827
48.242	13.186	1342.584	1016.805
49.257	13.144	1340.901	1015.181
50.271	13.128	1339.450	1013.896
51.286	13.237	1338.223	1013.543
52.301	13.184	1336.953	1012.166
53.315	13.084	1336.293	1010.966
54.330	13.064	1334.740	1009.578
55.344	13.035	1333.848	1008.636
56.359	13.047	1332.821	1007.847
57.374	13.051	1332.173	1007.293
58.388	13.018	1331.452	1006.454
59.403	12.990	1330.897	1005.779
60.417	12.948	1330.088	1004.821
61.432	12.943	1329.336	1004.134
62.447	12.979	1328.015	1003.266
63.461	12.956	1326.744	1002.076
64.476	12.972	1325.241	1000.947
65.490	12.990	1324.536	1000.439
66.505	12.952	1322.768	998.784
67.520	12.938	1322.149	998.141
68.534	12.958	1320.779	997.142
69.549	13.026	1320.007	996.878
70.563	12.879	1319.261	995.341
71.578	12.762	1318.156	993.715
72.593	12.919	1316.797	993.548
73.607	12.767	1316.351	992.207
74.622	12.926	1315.440	992.392
75.636	12.946	1314.897	992.013
76.651	12.843	1314.125	990.724
77.666	12.907	1314.128	991.023
78.680	12.946	1313.267	990.520
79.695	12.822	1312.844	989.368
80.709	12.977	1311.540	989.227
81.724	13.025	1310.929	988.965
82.739	12.910	1310.307	987.720
83.753	13.150	1309.148	988.200
84.768	13.134	1308.594	987.597
85.782	13.180	1307.155	986.696
86.797	13.170	1305.873	985.583
87.812	13.079	1304.644	984.028
88.826	13.133	1303.242	983.205
89.841	13.166	1302.143	982.483
90.855	13.148	1301.577	981.862
91.870	13.174	1300.510	981.123
92.884	13.236	1299.644	980.752
93.899	13.200	1298.986	979.956
94.914	13.302	1298.372	980.008
95.928	13.338	1297.603	979.559
96.943	13.236	1296.241	977.836
97.957	13.240	1295.638	977.320
98.972	13.225	1294.317	976.147
99.987	13.207	1293.486	975.332
101.001	13.181	1292.447	974.309
102.016	13.181	1291.494	973.500
103.030	13.310	1290.305	973.276
104.045	13.217	1289.352	971.926
105.060	13.143	1288.346	970.646
106.074	13.051	1287.258	969.204
107.089	12.912	1286.130	967.454
108.103	12.910	1284.360	966.022
109.118	12.926	1282.866	964.906
110.133	12.975	1281.819	964.320
111.147	12.999	1280.239	963.187
112.162	13.034	1279.140	962.478
113.176	12.995	1278.218	961.474
114.191	13.178	1276.981	961.522
115.206	13.123	1275.755	960.196
116.220	13.037	1274.656	958.785
117.235	13.062	1273.745	958.159
118.249	13.109	1272.421	957.350
119.264	13.044	1271.432	956.144
120.279	13.001	1270.631	955.208
121.293	12.970	1269.530	954.116
122.308	12.950	1268.539	953.172
123.322	12.932	1267.625	952.298
124.337	13.023	1266.186	951.656
125.352	12.956	1264.656	950.039
126.366	13.047	1263.503	949.609
127.381	13.002	1262.696	948.658
128.395	12.964	1262.058	947.882
129.410	12.937	1260.822	946.714
130.424	13.039	1260.165	946.720
131.439	13.040	1259.185	945.904
132.454	13.149	1258.254	945.746
133.468	13.063	1257.119	944.318
134.483	13.089	1256.897	944.219
135.497	13.058	1255.866	943.180
136.512	13.073	1254.337	942.037
137.527	12.981	1253.069	940.477
138.541	13.156	1251.162	939.955
139.556	13.160	1249.954	938.988
140.570	13.180	1249.213	938.465
141.585	13.284	1248.015	938.067
142.600	13.265	1247.124	937.208
143.614	13.322	1245.911	936.536
144.629	13.224	1245.101	935.290
145.643	13.241	1244.098	934.551
146.658	13.202	1242.867	933.326
147.673	13.098	1241.443	931.586
148.687	13.110	1240.309	930.720
149.702	13.113	1238.759	929.491
150.716	13.203	1236.936	928.546
151.731	13.204	1235.752	927.582
152.746	13.190	1235.232	927.029
153.760	13.236	1233.796	926.130
154.775	13.288	1233.110	925.824
155.789	13.298	1231.994	924.961
156.804	13.314	1230.436	923.797
157.819	13.297	1229.743	923.102
158.833	13.329	1229.134	922.740
159.848	13.453	1228.071	922.549
160.862	13.383	1226.880	921.183
161.877	13.321	1225.803	919.952
162.892	13.246	1224.752	918.661
163.906	13.250	1223.726	917.832
164.921	13.382	1222.631	917.663
165.935	13.318	1221.989	916.747
166.950	13.421	1221.223	916.660
167.964	13.304	1220.799	915.614
168.979	13.311	1219.767	914.799
169.994	13.429	1219.139	914.899
171.008	13.401	1218.273	914.014
172.023	13.417	1217.437	913.391
173.037	13.574	1216.783	913.687
174.052	13.539	1215.884	912.737
175.067	13.450	1214.525	911.145
176.081	13.307	1213.648	909.622
177.096	13.219	1213.130	908.671
178.110	13.459	1211.327	908.554
179.125	13.468	1210.191	907.671
180.140	13.521	1208.915	906.928
181.154	13.547	1207.809	906.157
182.169	13.459	1206.900	904.914
183.183	13.613	1206.027	905.023
184.198	13.545	1204.837	903.679
185.213	13.563	1203.472	902.670
186.227	13.660	1202.393	902.312
187.242	13.655	1201.860	901.803
188.256	13.710	1200.662	901.125
189.271	13.658	1199.800	900.115
190.286	13.526	1198.623	898.435
191.300	13.444	1197.920	897.384
192.315	13.429	1196.828	896.405
193.329	13.406	1196.322	895.824
194.344	13.477	1195.848	895.775
195.359	13.444	1195.604	895.335
196.373	13.636	1194.589	895.530
197.388	13.637	1194.914	895.703
198.402	13.672	1194.438	895.455
199.417	13.868	1193.030	895.377
200.432	13.863	1192.420	894.814
201.446	13.907	1191.368	894.182
202.461	14.051	1190.614	894.311
203.475	13.931	1189.854	893.015
204.490	14.096	1188.341	892.685
205.504	13.841	1187.090	890.303
206.519	13.780	1185.977	889.059
207.534	13.933	1184.732	888.867
208.548	14.002	1183.292	888.079
209.563	13.861	1183.114	887.112
210.577	13.805	1182.420	886.214
211.592	13.982	1181.297	886.235
212.607	13.993	1180.909	885.927
213.621	14.027	1179.945	885.306
214.636	13.989	1178.876	884.225
215.650	13.993	1178.256	883.699
216.665	14.045	1177.206	883.114
217.680	14.070	1176.068	882.312
218.694	14.141	1175.557	882.226
219.709	14.029	1174.541	880.795
220.723	14.191	1173.964	881.139
221.738	14.120	1173.418	880.280
222.753	14.133	1172.507	879.584
223.767	14.161	1171.860	879.169
224.782	14.301	1171.002	879.189
225.796	14.226	1170.584	878.400
226.811	14.298	1169.601	877.963
227.826	14.235	1169.049	877.139
228.840	14.142	1168.251	875.975
229.855	14.223	1167.680	875.896
230.869	14.138	1166.854	874.750
231.884	14.212	1165.718	874.212
232.899	14.253	1165.058	873.856
233.913	14.165	1164.241	872.703
234.928	14.128	1163.921	872.190
235.942	14.196	1163.095	871.849
236.957	14.123	1162.287	870.787
237.972	14.229	1161.409	870.607
238.986	14.119	1160.949	869.610
240.001	14.182	1160.302	869.378
241.015	14.257	1159.445	869.049
242.030	14.211	1158.717	868.184
243.045	14.331	1157.625	867.915
244.059	14.232	1156.966	866.832
245.074	14.358	1155.810	866.544
246.088	14.346	1155.489	866.162
247.103	14.431	1154.638	865.887
248.117	14.434	1153.712	865.133
249.132	14.481	1153.428	865.089
250.147	14.627	1152.246	864.883
251.161	14.678	1151.358	864.403
252.176	14.608	1151.287	863.911
253.190	14.719	1150.842	864.075
254.205	14.775	1150.184	863.794
255.220	14.656	1149.596	862.662
256.234	14.749	1148.500	862.242
257.249	14.747	1148.093	861.849
258.263	14.828	1147.122	861.463
259.278	14.810	1146.482	860.814
260.293	14.818	1146.246	860.602
261.307	14.825	1145.727	860.169
262.322	14.869	1144.954	859.739
263.336	14.904	1144.293	859.349
264.351	14.933	1143.692	858.971
265.366	14.816	1143.194	857.917
266.380	14.895	1141.917	857.289
267.395	14.920	1141.320	856.896
268.409	14.827	1141.117	856.188
269.424	14.832	1140.206	855.458
270.439	14.834	1139.289	854.703
271.453	14.883	1138.723	854.451
272.468	14.826	1137.700	853.318
273.482	14.846	1136.720	852.609
274.497	14.740	1136.464	851.802
275.512	14.919	1135.994	852.287
276.526	14.939	1135.190	851.708
277.541	14.950	1134.220	850.961
278.555	14.836	1133.548	849.804
279.570	15.021	1133.203	850.412
280.585	15.099	1132.041	849.858
281.599	15.055	1131.247	848.966
282.614	15.050	1130.154	848.044
283.628	15.074	1128.848	847.111
284.643	15.105	1128.242	846.737
285.657	15.004	1127.596	845.666
286.672	14.920	1127.057	844.765
287.687	15.095	1126.122	844.871
288.701	15.093	1124.908	843.878
289.716	15.114	1124.276	843.430
290.730	15.106	1123.562	842.780
291.745	15.191	1122.545	842.370
292.760	15.055	1122.256	841.397
293.774	15.291	1121.385	841.856
294.789	15.269	1121.004	841.385
295.803	15.226	1120.798	840.939
296.818	15.260	1119.631	840.161
297.833	15.158	1119.189	839.240
298.847	15.186	1118.413	838.725
299.862	15.187	1117.242	837.780
300.876	15.264	1116.749	837.722
301.891	15.212	1116.516	837.212
302.906	15.256	1115.715	836.758
303.920	15.511	1114.425	836.984
304.935	15.565	1113.723	836.651
305.949	15.526	1113.527	836.236
306.964	15.412	1112.985	835.191
307.979	15.490	1111.958	834.732
308.993	15.444	1111.178	833.844
310.008	15.535	1110.463	833.685
311.022	15.527	1109.510	832.856
312.037	15.547	1109.089	832.569
313.052	15.542	1107.878	831.558
314.066	15.465	1106.984	830.436
315.081	15.406	1105.849	829.218
316.095	15.318	1105.510	828.457
317.110	15.403	1105.048	828.457
318.125	15.411	1104.201	827.788
319.139	15.343	1103.674	826.983
320.154	15.442	1102.355	826.408
321.168	15.415	1102.236	826.112
322.183	15.511	1101.390	825.881
323.197	15.446	1100.786	825.035
324.212	15.585	1100.329	825.303
325.227	15.558	1099.724	824.643
326.241	15.586	1098.955	824.132
327.256	15.600	1098.266	823.610
328.270	15.530	1097.181	822.377
329.285	15.491	1096.677	821.739
330.300	15.481	1095.575	820.792
331.314	15.523	1095.038	820.522
332.329	15.588	1093.813	819.847
333.343	15.706	1092.495	819.361
334.358	15.669	1091.878	818.646
335.373	15.758	1091.098	818.424
336.387	15.757	1090.312	817.756
337.402	15.708	1089.944	817.168
338.416	15.751	1089.467	816.948
339.431	15.862	1088.595	816.759
340.446	15.823	1087.943	816.011
341.460	15.935	1087.164	815.896
342.475	16.044	1086.404	815.779
343.489	16.062	1085.456	815.082
344.504	16.094	1084.567	814.500
345.519	16.095	1083.727	813.802
346.533	16.037	1083.344	813.161
347.548	15.960	1082.610	812.168
348.562	16.052	1081.632	811.804
349.577	16.035	1081.083	811.238
350.592	15.960	1079.792	809.837
351.606	15.916	1079.130	809.056
352.621	15.955	1078.651	808.814
353.635	15.926	1077.746	807.925
354.650	15.994	1077.401	807.922
355.665	15.940	1076.853	807.178
356.679	16.046	1075.988	806.966
357.694	16.087	1075.594	806.797
358.708	16.109	1074.824	806.251
359.723	16.127	1074.149	805.764
360.738	16.063	1073.344	804.782
361.752	16.138	1073.087	804.873
362.767	16.089	1072.687	804.269
363.781	16.236	1071.844	804.266
364.796	16.268	1071.187	803.857
365.810	16.238	1070.727	803.295
366.825	16.295	1070.156	803.066
367.840	16.427	1069.279	802.966
368.854	16.474	1068.670	802.663
369.869	16.436	1068.197	802.054
370.883	16.331	1067.383	800.872
371.898	16.345	1066.721	800.373
372.913	16.341	1066.160	799.862
373.927	16.401	1065.435	799.530
374.942	16.520	1064.696	799.470
375.956	16.313	1064.803	798.498
376.971	16.387	1063.889	798.094
377.986	16.603	1063.065	798.425
379.000	16.547	1063.100	798.115
380.015	16.509	1062.398	797.339
381.029	16.694	1061.321	797.332
382.044	16.674	1060.573	796.603
383.059	16.473	1060.431	795.482
384.073	16.609	1059.611	795.433
385.088	16.587	1058.635	794.528
386.102	16.614	1057.939	794.063
387.117	16.778	1056.477	793.662
388.132	16.589	1055.877	792.258
389.146	16.499	1055.213	791.268
390.161	16.591	1054.585	791.159
391.175	16.516	1053.731	790.098
392.190	16.499	1053.215	789.561
393.205	16.736	1052.207	789.839
394.219	16.583	1052.100	788.975
395.234	16.705	1050.630	788.373
396.248	16.690	1049.479	787.370
397.263	16.692	1048.700	786.725
398.278	16.672	1048.001	786.038
399.292	16.608	1047.131	785.018
400.307	16.633	1046.396	784.516
401.321	16.666	1045.752	784.114
402.336	16.529	1045.543	783.253
403.350	16.717	1044.300	783.122
404.365	16.770	1043.527	782.721
405.380	16.809	1042.778	782.268
406.394	16.833	1042.077	781.786
407.409	16.833	1041.664	781.404
408.423	16.834	1041.297	781.067
409.438	16.824	1040.451	780.314
410.453	16.884	1039.805	780.037
411.467	16.948	1039.085	779.722
412.482	16.917	1038.203	778.848
413.496	17.131	1037.402	779.164
414.511	17.288	1036.818	779.373
415.526	17.162	1036.739	778.669
416.540	17.140	1036.340	778.200
417.555	17.143	1035.591	777.580
418.569	17.062	1035.270	776.902
419.584	16.954	1034.967	776.109
420.599	17.111	1034.026	776.054
421.613	104.393	1324.251	1475.487
422.628	95.622	1366.507	1475.579
