DTS Sentinel unit serial number:	SN413079Multiplexer serial number:	ORYXHardware model number:	OX4-SRSoftware version number:	ORYX F/W v4.00 Oryx Data Collector v3.7.2.0data status	okinstallation	princeton_trtdifferential loss correction	single-endedforward channel	channel 2reverse channel	N/Adate	2019/09/11time	13:17:11forward acquisition time	60.00reverse acquisition time	0.00gamma	496.2192k internal	0.2292k external	0.2292temperature offset calibration	1.0008default loss term (dB/km)	0.3790temperature slope calibration	1.0000multiplexer offset coefficient	1.0000multiplexer slope coefficient	1.0000fibre end	0.00T internal ref (°C)	41.94T ext. ref 1 (°C)	0.81T ext. ref 2 (°C)	36.58length (m)	temperature (°C)	Stokes	anti-Stokes-747.200	228.712	-0.109	0.182
-746.185	497.180	0.146	0.345
-745.171	9.249	0.142	0.110
-744.156	-110.119	-0.273	0.058
-743.142	-200.000	-0.022	0.160
-742.127	-108.515	0.241	0.053
-741.112	102.149	0.227	0.272
-740.098	136.680	-0.152	0.203
-739.083	-200.000	0.020	0.127
-738.069	368.489	-0.149	0.309
-737.054	-59.234	0.351	0.155
-736.039	-11.826	0.172	-0.116
-735.025	-29.303	-0.105	0.061
-734.010	15.012	-0.324	-0.260
-732.996	346.774	0.116	-0.233
-731.981	387.476	0.179	-0.379
-730.966	-11.123	-0.130	0.088
-729.952	3.593	-0.048	-0.036
-728.937	-200.000	-0.026	-0.206
-727.923	800.000	0.086	0.267
-726.908	800.000	0.073	-0.267
-725.894	90.447	0.099	0.113
-724.879	335.048	-0.038	0.074
-723.864	800.000	0.121	0.424
-722.850	800.000	-0.049	0.153
-721.835	-24.871	-0.106	0.064
-720.821	-111.938	-0.209	-0.043
-719.806	-48.585	-0.173	-0.085
-718.791	28.405	0.056	0.048
-717.777	-67.247	0.148	0.059
-716.762	-200.000	0.033	0.192
-715.748	-99.680	0.197	0.051
-714.733	444.963	-0.139	0.313
-713.718	597.437	-0.177	0.448
-712.704	47.239	-0.110	-0.105
-711.689	800.000	-0.085	-0.312
-710.675	107.900	0.250	-0.305
-709.660	20.965	-0.119	-0.099
-708.645	304.848	-0.133	-0.252
-707.631	-171.268	0.188	-0.006
-706.616	202.125	0.168	-0.265
-705.602	-33.200	-0.223	-0.126
-704.587	228.763	-0.029	-0.048
-703.572	267.415	0.067	-0.120
-702.558	-88.210	-0.106	-0.032
-701.543	-183.148	-0.151	0.003
-700.529	-12.370	-0.180	0.120
-699.514	-70.152	-0.251	0.098
-698.499	-200.000	-0.003	0.171
-697.485	-65.134	-0.179	-0.074
-696.470	800.000	0.105	-0.385
-695.456	-69.501	-0.099	0.039
-694.441	-200.000	0.007	0.044
-693.426	2.399	-0.147	0.108
-692.412	-200.000	0.045	0.203
-691.397	-111.846	-0.404	-0.083
-690.383	-28.203	-0.227	0.134
-689.368	193.846	-0.097	-0.150
-688.354	-114.639	-0.171	0.034
-687.339	0.947	-0.237	0.173
-686.324	54.342	-0.108	0.106
-685.310	-200.000	-0.032	-0.160
-684.295	-84.765	0.084	0.027
-683.281	9.311	-0.137	0.106
-682.266	800.000	0.032	0.121
-681.251	-200.000	0.030	0.176
-680.237	-200.000	0.024	-0.229
-679.222	-200.000	-0.003	-0.037
-678.208	-200.000	-0.012	0.173
-677.193	-80.508	-0.289	-0.098
-676.178	-20.433	-0.142	-0.089
-675.164	131.247	0.092	0.120
-674.149	-183.815	0.200	0.003
-673.135	-67.310	-0.217	0.087
-672.120	-73.569	-0.191	-0.071
-671.105	44.572	0.120	-0.112
-670.091	269.373	-0.183	-0.328
-669.076	-85.554	0.284	-0.090
-668.062	-200.000	-0.063	0.281
-667.047	-200.000	0.070	-0.355
-666.032	-200.000	0.026	-0.304
-665.018	-138.047	-0.238	0.027
-664.003	800.000	-0.024	0.080
-662.989	800.000	-0.043	0.137
-661.974	678.917	0.064	-0.170
-660.959	-104.520	-0.066	0.016
-659.945	95.897	-0.134	0.156
-658.930	786.694	0.081	0.228
-657.916	800.000	0.072	0.231
-656.901	288.416	0.078	0.145
-655.886	-38.302	-0.089	0.048
-654.872	-65.357	0.214	-0.088
-653.857	-5.259	0.047	0.033
-652.843	-113.590	-0.185	0.037
-651.828	8.662	-0.181	-0.139
-650.814	-200.000	0.003	-0.086
-649.799	146.588	-0.042	0.058
-648.784	-200.000	0.023	-0.145
-647.770	-101.889	-0.335	-0.083
-646.755	105.665	-0.064	-0.077
-645.741	256.404	-0.131	-0.229
-644.726	-32.382	-0.156	-0.089
-643.711	33.756	0.046	-0.041
-642.697	-59.771	0.265	0.116
-641.682	-200.000	-0.030	-0.272
-640.668	-200.000	0.006	-0.321
-639.653	-200.000	-0.006	-0.162
-638.638	-45.027	-0.128	-0.065
-637.624	-128.371	-0.128	-0.019
-636.609	-200.000	-0.003	0.084
-635.595	-33.628	-0.147	-0.082
-634.580	-200.000	-0.008	0.192
-633.565	-200.000	0.001	-0.111
-632.551	1.895	0.097	0.071
-631.536	-92.972	0.294	-0.084
-630.522	800.000	-0.090	-0.261
-629.507	-38.967	-0.349	0.187
-628.492	285.959	0.196	-0.361
-627.478	-32.003	0.265	0.151
-626.463	2.731	-0.463	-0.342
-625.449	197.199	0.027	-0.042
-624.434	800.000	0.040	-0.151
-623.419	-123.126	0.231	0.038
-622.405	580.034	0.079	0.197
-621.390	62.229	-0.178	0.181
-620.376	-69.149	-0.083	0.033
-619.361	-200.000	-0.037	-0.421
-618.346	147.516	-0.068	-0.093
-617.332	-57.679	-0.246	-0.110
-616.317	-55.521	0.339	0.155
-615.303	164.146	0.131	-0.188
-614.288	170.284	-0.073	-0.107
-613.273	-46.099	0.169	-0.085
-612.259	-145.323	-0.110	0.010
-611.244	800.000	-0.057	0.186
-610.230	-125.057	-0.209	0.033
-609.215	-200.000	-0.079	0.400
-608.201	173.718	-0.174	0.256
-607.186	-90.224	0.225	-0.066
-606.171	-200.000	-0.071	-0.360
-605.157	376.567	-0.075	0.155
-604.142	43.959	0.062	-0.058
-603.128	-7.260	0.203	-0.140
-602.113	223.629	0.133	0.218
-601.098	-200.000	0.000	-0.179
-600.084	168.471	0.074	0.107
-599.069	193.579	-0.242	0.373
-598.055	-200.000	0.005	0.065
-597.040	800.000	-0.030	0.108
-596.025	21.175	-0.224	0.185
-595.011	-200.000	0.019	0.248
-593.996	98.158	0.096	0.112
-592.982	-200.000	-0.019	-0.111
-591.967	27.744	-0.085	-0.073
-590.952	108.055	0.060	0.073
-589.938	-50.261	0.136	0.066
-588.923	-124.162	0.286	0.046
-587.909	123.069	0.084	0.107
-586.894	-42.985	-0.175	0.090
-585.879	607.670	0.071	-0.181
-584.865	94.592	-0.095	-0.110
-583.850	81.214	0.216	-0.237
-582.836	800.000	0.039	-0.173
-581.821	15.197	-0.176	-0.140
-580.806	-54.374	-0.128	-0.059
-579.792	-22.550	-0.213	0.131
-578.777	-41.691	0.237	0.124
-577.763	-200.000	-0.020	-0.116
-576.748	-102.089	-0.141	0.034
-575.733	-126.161	0.181	-0.028
-574.719	800.000	0.046	-0.142
-573.704	-108.814	-0.272	0.059
-572.690	-122.241	-0.458	0.076
-571.675	-113.996	-0.343	0.068
-570.661	65.497	-0.139	-0.143
-569.646	-56.855	-0.084	-0.038
-568.631	12.994	-0.215	-0.169
-567.617	-200.000	-0.012	-0.273
-566.602	-200.000	0.039	-0.207
-565.588	-55.477	0.207	-0.094
-564.573	-200.000	0.033	0.178
-563.558	-154.648	-0.130	-0.009
-562.544	16.595	0.062	-0.050
-561.529	800.000	-0.076	-0.220
-560.515	-200.000	-0.005	0.109
-559.500	-42.099	0.299	0.155
-558.485	800.000	-0.053	0.164
-557.471	800.000	-0.026	-0.076
-556.456	-127.377	-0.119	0.018
-555.442	27.274	-0.113	0.097
-554.427	408.575	0.114	-0.245
-553.412	423.820	0.030	-0.066
-552.398	104.944	0.243	0.291
-551.383	800.000	-0.070	0.276
-550.369	196.177	0.044	-0.068
-549.354	-95.193	-0.292	-0.080
-548.339	-102.641	0.416	0.101
-547.325	-14.894	-0.263	0.171
-546.310	-78.105	0.160	-0.056
-545.296	-102.827	-0.563	0.136
-544.281	6.143	0.160	0.120
-543.266	800.000	-0.120	0.341
-542.252	75.916	0.167	-0.179
-541.237	800.000	-0.060	0.196
-540.223	-200.000	-0.035	0.168
-539.208	-82.673	0.262	0.086
-538.193	116.036	-0.157	0.195
-537.179	468.334	0.075	0.171
-536.164	609.709	-0.019	0.049
-535.150	-200.000	-0.017	-0.201
-534.135	-200.000	0.017	0.136
-533.121	147.313	0.205	0.280
-532.106	395.022	-0.086	0.181
-531.091	800.000	0.021	-0.087
-530.077	138.099	0.160	-0.212
-529.062	-113.514	0.185	0.037
-528.048	-162.137	0.305	-0.016
-527.033	86.628	0.160	-0.179
-526.018	-6.889	-0.287	0.198
-525.004	-51.001	-0.058	0.028
-523.989	420.233	-0.135	0.294
-522.975	-200.000	0.001	-0.052
-521.960	-147.085	-0.279	-0.024
-520.945	156.244	-0.042	-0.058
-519.931	-200.000	-0.054	-0.268
-518.916	-7.573	-0.349	0.240
-517.902	52.615	-0.082	0.080
-516.887	-112.248	-0.291	-0.059
-515.872	-200.000	-0.006	-0.034
-514.858	-119.214	-0.097	0.017
-513.843	800.000	0.093	0.311
-512.829	-119.929	0.336	0.059
-511.814	218.518	-0.164	-0.266
-510.799	-10.922	0.049	0.033
-509.785	36.826	-0.070	-0.063
-508.770	-151.794	0.481	-0.036
-507.756	230.715	-0.109	-0.182
-506.741	0.800	0.204	0.148
-505.726	-51.242	0.109	0.052
-504.712	800.000	-0.045	0.141
-503.697	-200.000	0.058	0.297
-502.683	-200.000	-0.005	-0.153
-501.668	-195.781	0.231	0.002
-500.653	95.149	-0.122	-0.141
-499.639	-42.767	-0.148	-0.076
-498.624	70.300	-0.175	-0.184
-497.610	-44.199	-0.077	-0.039
-496.595	-56.050	-0.097	-0.044
-495.581	800.000	0.049	0.206
-494.566	416.281	0.035	0.075
-493.551	78.479	0.241	0.261
-492.537	-44.267	-0.272	-0.138
-491.522	-200.000	-0.041	-0.427
-490.508	800.000	-0.036	-0.114
-489.493	-126.414	-0.189	-0.029
-488.478	256.428	-0.116	0.201
-487.464	427.946	-0.113	0.247
-486.449	800.000	-0.101	0.338
-485.435	4.736	-0.240	-0.179
-484.420	290.702	0.133	-0.245
-483.405	-200.000	0.014	-0.155
-482.391	122.611	-0.110	0.140
-481.376	-27.062	0.026	0.015
-480.362	-56.667	-0.198	-0.089
-479.347	-73.625	-0.136	-0.050
-478.332	-173.116	0.131	0.004
-477.318	214.356	0.120	-0.193
-476.303	-40.496	-0.342	-0.180
-475.289	-200.000	0.016	-0.292
-474.274	707.937	-0.026	0.071
-473.259	-200.000	0.009	-0.299
-472.245	-71.465	-0.251	-0.095
-471.230	662.268	0.088	0.229
-470.216	27.687	0.112	-0.095
-469.201	-200.000	0.278	0.000
-468.186	-200.000	0.037	0.217
-467.172	-65.356	0.186	-0.076
-466.157	-123.102	-0.169	0.027
-465.143	404.889	0.021	0.045
-464.128	297.673	0.145	0.269
-463.113	-68.546	0.457	0.179
-462.099	-144.911	-0.263	-0.024
-461.084	-59.624	0.273	0.119
-460.070	-200.000	0.015	0.101
-459.055	-58.486	-0.282	0.124
-458.040	-22.257	0.276	0.169
-457.026	14.484	-0.118	-0.093
-456.011	500.384	0.106	-0.248
-454.997	-100.846	0.104	-0.026
-453.982	-76.308	-0.118	-0.042
-452.968	-53.083	0.234	-0.109
-451.953	-78.875	0.104	-0.036
-450.938	276.396	-0.233	-0.420
-449.924	800.000	0.072	-0.207
-448.909	431.505	-0.085	-0.185
-447.895	-70.204	-0.297	0.114
-446.880	-200.000	-0.015	-0.141
-445.865	-183.617	0.123	0.002
-444.851	113.536	0.147	0.181
-443.836	-42.730	-0.085	-0.044
-442.822	736.725	0.035	0.094
-441.807	-100.989	0.121	0.030
-440.792	191.225	0.118	-0.179
-439.778	800.000	-0.026	-0.090
-438.763	-32.969	0.121	0.068
-437.749	102.785	-0.095	-0.113
-436.734	-200.000	0.018	0.246
-435.719	-200.000	-0.001	0.401
-434.705	-110.789	-0.107	-0.022
-433.690	-200.000	0.006	-0.029
-432.676	-191.680	-0.138	0.001
-431.661	391.776	0.048	0.100
-430.646	-97.708	0.293	0.077
-429.632	92.356	-0.106	-0.121
-428.617	-200.000	-0.005	0.214
-427.603	-200.000	-0.019	-0.092
-426.588	11.638	0.160	-0.124
-425.573	-81.836	-0.153	0.051
-424.559	-75.519	-0.222	-0.080
-423.544	376.731	-0.066	0.137
-422.530	326.150	0.038	-0.073
-421.515	800.000	0.062	-0.246
-420.500	504.792	-0.071	-0.166
-419.486	7.359	0.149	-0.112
-418.471	-90.048	-0.198	0.058
-417.457	31.714	-0.414	0.360
-416.442	-46.375	-0.129	-0.064
-415.428	-200.000	0.003	0.397
-414.413	-16.916	-0.127	0.081
-413.398	-200.000	-0.007	0.270
-412.384	539.482	0.185	0.444
-411.369	-47.107	0.153	0.075
-410.355	477.831	-0.088	-0.202
-409.340	-4.877	-0.168	0.117
-408.325	243.817	-0.064	-0.108
-407.311	-72.149	-0.132	-0.050
-406.296	-73.095	0.249	-0.092
-405.282	68.903	0.324	0.336
-404.267	-200.000	-0.084	-0.411
-403.252	499.185	0.175	-0.406
-402.238	-200.000	0.010	-0.252
-401.223	88.344	-0.197	-0.220
-400.209	-17.342	0.086	0.054
-399.194	-164.023	0.213	0.010
-398.179	60.924	0.063	0.063
-397.165	1.957	-0.434	-0.316
-396.150	2.204	-0.163	-0.119
-395.136	239.510	0.080	-0.135
-394.121	61.679	0.374	0.376
-393.106	16.449	0.097	-0.078
-392.092	-65.831	0.130	-0.052
-391.077	658.923	0.041	0.106
-390.063	81.164	-0.052	0.057
-389.048	-11.634	0.138	-0.092
-388.033	-200.000	0.025	-0.188
-387.019	-49.477	0.304	0.146
-386.004	267.826	-0.150	0.265
-384.990	800.000	0.032	-0.122
-383.975	-2.507	0.179	-0.126
-382.960	56.255	-0.044	-0.043
-381.946	-78.293	-0.228	-0.079
-380.931	-200.000	0.046	0.210
-379.917	274.249	-0.163	-0.291
-378.902	125.692	-0.195	-0.248
-377.888	-57.233	0.101	-0.045
-376.873	-75.397	0.262	-0.094
-375.858	-199.219	-0.046	-0.000
-374.844	-90.151	0.160	0.047
-373.829	800.000	0.075	0.249
-372.815	201.688	0.053	0.083
-371.800	-23.438	0.123	-0.074
-370.785	534.620	-0.117	-0.279
-369.771	65.184	0.069	-0.070
-368.756	800.000	-0.030	-0.093
-367.742	62.278	-0.204	-0.205
-366.727	174.205	-0.105	-0.153
-365.712	3.115	-0.368	0.270
-364.698	-81.898	0.181	0.060
-363.683	-70.760	-0.171	-0.065
-362.669	197.027	0.041	0.063
-361.654	291.773	0.126	-0.231
-360.639	-200.000	0.023	0.166
-359.625	-200.000	-0.052	0.260
-358.610	-200.000	0.015	0.083
-357.596	-200.000	-0.004	-0.065
-356.581	156.352	-0.147	-0.205
-355.566	-2.313	0.389	0.275
-354.552	-200.000	0.020	0.285
-353.537	-142.402	-0.225	-0.022
-352.523	-124.410	-0.258	0.041
-351.508	-143.394	0.271	0.026
-350.493	800.000	0.120	0.494
-349.479	-200.000	0.014	0.375
-348.464	800.000	0.094	0.274
-347.450	122.869	-0.187	-0.235
-346.435	-151.456	0.326	-0.024
-345.420	-1.894	-0.061	0.043
-344.406	-78.099	0.124	0.043
-343.391	155.801	0.135	0.187
-342.377	514.799	0.157	-0.370
-341.362	-4.581	0.179	0.125
-340.348	-70.051	0.021	0.008
-339.333	12.612	-0.274	-0.213
-338.318	560.884	0.056	-0.136
-337.304	-147.832	0.181	-0.015
-336.289	-198.661	0.198	-0.001
-335.275	98.123	0.093	-0.108
-334.260	-191.604	0.228	0.002
-333.245	549.270	0.062	-0.151
-332.231	800.000	0.116	0.332
-331.216	-130.717	-0.194	0.026
-330.202	800.000	-0.052	0.224
-329.187	-200.000	0.009	0.196
-328.172	-51.186	-0.080	0.038
-327.158	-21.073	0.286	0.176
-326.143	-83.699	0.216	-0.070
-325.129	-102.774	-0.054	-0.013
-324.114	-200.000	0.061	0.292
-323.099	100.251	-0.102	-0.119
-322.085	-153.275	-0.305	0.021
-321.070	-197.869	-0.187	-0.001
-320.056	-68.432	0.177	-0.069
-319.041	-17.832	-0.120	-0.076
-318.026	-178.913	0.179	-0.004
-317.012	169.999	0.213	-0.307
-315.997	-83.327	-0.163	0.053
-314.983	19.253	-0.348	0.281
-313.968	65.701	0.150	-0.153
-312.953	159.348	-0.044	-0.061
-311.939	-34.204	0.106	-0.059
-310.924	-200.000	0.063	0.311
-309.910	-76.292	-0.157	-0.055
-308.895	-134.024	0.288	0.036
-307.880	800.000	-0.052	0.158
-306.866	-200.000	0.011	0.089
-305.851	-49.714	0.225	-0.108
-304.837	-74.848	0.134	-0.049
-303.822	-200.000	-0.012	-0.318
-302.807	-200.000	-0.022	0.249
-301.793	-51.338	-0.175	-0.082
-300.778	-104.083	-0.047	0.011
-299.764	19.183	0.229	-0.185
-298.749	237.471	0.093	-0.154
-297.735	19.135	0.161	0.130
-296.720	-31.365	-0.079	-0.045
-295.705	-159.965	-0.489	-0.027
-294.691	-84.554	0.116	0.037
-293.676	59.336	-0.127	0.126
-292.662	-64.990	-0.328	-0.133
-291.647	-107.776	-0.303	0.066
-290.632	-64.334	-0.355	-0.145
-289.618	290.180	-0.081	-0.148
-288.603	53.068	0.233	-0.224
-287.589	800.000	-0.040	-0.154
-286.574	26.793	0.331	-0.279
-285.559	-200.000	-0.031	-0.230
-284.545	-15.192	-0.191	-0.123
-283.530	66.325	0.209	-0.213
-282.516	173.204	-0.189	-0.274
-281.501	-200.000	-0.065	-0.305
-280.486	-1.244	0.335	0.238
-279.472	-0.025	-0.175	0.125
-278.457	23.892	0.297	0.246
-277.443	-119.648	0.224	0.039
-276.428	-46.415	-0.232	-0.114
-275.413	514.974	0.105	0.245
-274.399	0.203	-0.354	-0.253
-273.384	235.269	0.162	0.270
-272.370	-62.638	0.122	0.051
-271.355	224.896	-0.120	0.195
-270.340	-118.218	-0.128	0.023
-269.326	686.749	-0.103	0.270
-268.311	-156.825	0.284	0.018
-267.297	77.526	0.068	-0.073
-266.282	-126.432	0.214	0.032
-265.267	326.751	-0.269	-0.517
-264.253	207.455	-0.115	-0.181
-263.238	235.451	-0.173	-0.286
-262.224	643.356	0.114	-0.293
-261.209	-130.933	-0.168	-0.023
-260.195	-200.000	-0.018	0.136
-259.180	-99.783	-0.045	-0.011
-258.165	132.312	0.150	0.195
-257.151	-38.214	0.047	-0.025
-256.136	49.696	0.316	-0.299
-255.122	-74.024	0.257	-0.094
-254.107	321.993	0.076	-0.145
-253.092	543.997	-0.089	0.214
-252.078	-200.000	0.010	0.295
-251.063	222.216	-0.063	-0.102
-250.049	-94.783	-0.136	0.037
-249.034	-182.209	-0.248	0.005
-248.019	-200.000	0.044	0.230
-247.005	-102.679	0.141	-0.034
-245.990	107.200	0.142	0.169
-244.976	652.174	0.092	0.236
-243.961	-200.000	-0.057	0.376
-242.946	-55.911	0.182	0.081
-241.932	261.563	-0.073	-0.127
-240.917	-200.000	0.009	0.193
-239.903	-123.086	0.211	0.034
-238.888	-95.928	-0.168	-0.045
-237.873	-177.107	0.144	0.004
-236.859	206.500	0.064	-0.100
-235.844	-200.000	0.069	0.387
-234.830	7.740	-0.024	-0.018
-233.815	5.377	-0.136	0.101
-232.800	21.868	-0.219	-0.179
-231.786	-101.001	-0.309	0.076
-230.771	800.000	0.039	-0.116
-229.757	-200.000	-0.131	0.000
-228.742	-23.647	0.170	-0.102
-227.727	-164.034	-0.110	-0.005
-226.713	-137.232	0.237	0.027
-225.698	-170.834	0.102	-0.004
-224.684	225.125	-0.091	0.148
-223.669	316.769	-0.181	0.344
-222.655	-200.000	-0.018	0.213
-221.640	83.456	-0.182	0.199
-220.625	60.948	-0.115	-0.115
-219.611	37.559	0.300	-0.266
-218.596	-43.497	0.122	-0.062
-217.582	-164.053	-0.181	-0.008
-216.567	-82.121	0.192	0.063
-215.552	-200.000	0.041	0.188
-214.538	65.671	0.464	0.471
-213.523	31.471	0.148	0.127
-212.509	-174.896	0.381	0.011
-211.494	139.724	-0.169	-0.224
-210.479	-116.608	0.269	0.050
-209.465	9.530	0.157	0.119
-208.450	114.873	-0.208	-0.254
-207.436	2.753	-0.106	0.077
-206.421	-2.161	-0.079	0.056
-205.406	-200.000	-0.081	-0.378
-204.392	-32.352	0.247	-0.138
-203.377	-41.305	-0.033	0.017
-202.363	145.339	0.122	-0.164
-201.348	-169.519	-0.163	0.006
-200.333	800.000	0.061	-0.222
-199.319	800.000	-0.060	-0.228
-198.304	166.324	-0.224	-0.317
-197.290	741.674	-0.072	0.194
-196.275	56.794	-0.036	0.035
-195.260	-32.026	0.062	0.035
-194.246	705.574	-0.069	0.182
-193.231	643.314	0.033	0.083
-192.217	50.412	-0.374	0.355
-191.202	-81.267	-0.044	-0.015
-190.187	-62.136	0.196	0.082
-189.173	83.539	-0.173	-0.189
-188.158	-140.765	0.087	-0.009
-187.144	-200.000	0.063	0.510
-186.129	-107.625	0.342	0.075
-185.114	-22.855	0.114	-0.069
-184.100	124.146	-0.158	0.198
-183.085	-38.534	0.260	-0.138
-182.071	555.137	0.043	-0.103
-181.056	-9.059	-0.129	0.087
-180.042	-21.126	-0.071	0.044
-179.027	359.089	0.027	0.055
-178.012	-200.000	-0.040	-0.211
-176.998	-127.885	0.296	-0.043
-175.983	764.814	-0.014	0.038
-174.969	710.053	0.091	-0.241
-173.954	-112.330	0.261	-0.052
-172.939	-129.435	-0.326	-0.045
-171.925	59.789	0.125	0.124
-170.910	800.000	0.054	0.187
-169.896	36.500	-0.298	-0.263
-168.881	-13.865	-0.352	0.228
-167.866	800.000	0.055	0.161
-166.852	183.792	-0.165	-0.244
-165.837	194.624	0.129	0.196
-164.823	207.357	0.141	0.220
-163.808	800.000	0.065	0.196
-162.793	40.322	-0.228	0.205
-161.779	23.589	0.281	-0.232
-160.764	72.413	-0.129	-0.134
-159.750	-91.616	-0.158	-0.045
-158.735	800.000	0.123	-0.425
-157.720	800.000	0.100	-0.286
-156.706	-200.000	-0.005	0.418
-155.691	104.420	0.168	0.198
-154.677	-74.761	-0.161	-0.058
-153.662	73.890	-0.115	0.121
-152.647	34.400	0.234	-0.205
-151.633	-200.000	-0.010	-0.296
-150.618	10.270	0.116	-0.088
-149.604	-95.917	0.147	-0.039
-148.589	66.161	-0.048	0.049
-147.574	744.149	0.065	-0.174
-146.560	-108.386	0.057	0.012
-145.545	-106.734	-0.130	0.029
-144.531	-117.300	-0.159	0.029
-143.516	223.505	0.129	-0.209
-142.502	-98.772	-0.133	-0.034
-141.487	-93.617	-0.348	-0.096
-140.472	-200.000	0.068	-0.348
-139.458	85.851	0.120	0.132
-138.443	-67.323	-0.043	0.017
-137.429	-200.000	0.005	0.104
-136.414	97.578	-0.167	0.192
-135.399	-200.000	0.002	-0.400
-134.385	-108.040	0.142	-0.031
-133.370	-49.300	-0.164	0.078
-132.356	13.363	0.279	-0.216
-131.341	-55.142	0.117	0.053
-130.326	683.657	0.057	-0.149
-129.312	-116.328	0.225	0.042
-128.297	-48.612	-0.206	0.099
-127.283	800.000	-0.083	-0.297
-126.268	-42.232	-0.157	0.080
-125.253	27.828	0.147	0.124
-124.239	-111.066	-0.376	-0.077
-123.224	167.532	-0.203	-0.288
-122.210	-107.242	-0.099	0.022
-121.195	-200.000	-0.002	-0.086
-120.180	40.745	-0.220	0.198
-119.166	-38.455	-0.145	0.077
-118.151	24.433	-0.284	0.235
-117.137	-10.126	0.402	-0.267
-116.122	64.624	-0.102	0.103
-115.107	42.828	-0.186	-0.169
-114.093	321.438	-0.073	-0.138
-113.078	-200.000	0.017	-0.325
-112.064	118.565	0.178	-0.220
-111.049	-200.000	0.003	0.308
-110.034	516.775	-0.087	0.204
-109.020	-82.385	-0.055	-0.018
-108.005	-3.671	-0.049	-0.034
-106.991	-82.259	0.168	-0.054
-105.976	43.117	0.164	0.149
-104.962	-200.000	-0.009	0.341
-103.947	2.239	-0.448	-0.323
-102.932	74.071	-0.336	-0.352
-101.918	-19.803	0.292	-0.180
-100.903	245.122	0.163	0.274
-99.889	-200.000	-0.016	0.458
-98.874	-26.033	0.138	-0.081
-97.859	800.000	-0.067	-0.220
-96.845	19.313	0.184	-0.147
-95.830	-150.334	-0.174	0.013
-94.816	800.000	0.072	-0.237
-93.801	-159.153	0.364	0.020
-92.786	-143.537	0.034	-0.003
-91.772	358.972	-0.191	0.382
-90.757	-200.000	0.044	0.237
-89.743	-27.053	-0.251	-0.146
-88.728	-36.385	-0.250	-0.134
-87.713	800.000	0.068	-0.240
-86.699	-85.890	-0.287	0.089
-85.684	451.594	0.147	-0.324
-84.670	-149.269	-0.155	0.012
-83.655	-61.717	0.354	0.148
-82.640	-120.219	-0.220	-0.037
-81.626	10.098	0.092	-0.070
-80.611	-122.050	0.135	0.022
-79.597	-200.000	0.017	0.208
-78.582	-118.221	0.176	0.031
-77.567	-200.000	-0.014	0.110
-76.553	461.225	-0.088	0.196
-75.538	-14.880	0.281	0.179
-74.524	-31.781	0.177	-0.099
-73.509	176.508	0.161	-0.233
-72.494	-54.414	0.205	0.093
-71.480	-76.219	0.128	-0.045
-70.465	-3.689	0.017	0.012
-69.451	800.000	-0.074	-0.230
-68.436	800.000	0.082	-0.317
-67.422	4.770	0.270	0.198
-66.407	170.341	0.291	-0.415
-65.392	13.867	-0.058	-0.045
-64.378	-117.839	0.432	0.077
-63.363	352.627	0.129	0.255
-62.349	-41.308	-0.291	0.149
-61.334	20.854	-1.067	-0.862
-60.319	-62.869	0.275	0.114
-59.305	-200.000	-0.045	-1.034
-58.290	116.069	0.311	0.379
-57.276	75.446	0.940	0.988
-56.261	-200.000	75.399	530.646
-55.246	557.227	1307.100	3139.379
-54.232	143.612	2560.690	3398.660
-53.217	111.834	2366.798	2847.161
-52.203	51.579	1980.030	1875.148
-51.188	45.490	1765.572	1623.863
-50.173	42.427	1718.985	1557.236
-49.159	56.397	1753.132	1697.577
-48.144	62.097	1771.175	1759.450
-47.130	45.219	1734.651	1593.063
-46.115	42.062	1720.783	1555.785
-45.100	41.870	1715.960	1549.874
-44.086	41.824	1713.342	1547.092
-43.071	41.875	1710.402	1544.773
-42.057	41.771	1708.068	1541.800
-41.042	41.801	1706.233	1540.312
-40.027	41.799	1704.288	1538.479
-39.013	41.820	1701.826	1536.358
-37.998	41.819	1700.220	1534.841
-36.984	41.820	1698.886	1533.580
-35.969	42.011	1697.091	1533.366
-34.954	42.045	1695.281	1531.926
-33.940	42.051	1693.055	1529.897
-32.925	41.954	1691.467	1527.662
-31.911	42.023	1689.886	1526.702
-30.896	41.943	1688.353	1524.650
-29.881	41.920	1686.427	1522.675
-28.867	41.899	1684.828	1521.008
-27.852	41.921	1683.233	1519.678
-26.838	41.886	1681.717	1517.978
-25.823	41.921	1679.990	1516.629
-24.809	42.020	1678.478	1515.953
-23.794	41.936	1677.364	1514.249
-22.779	41.972	1675.736	1512.992
-21.765	41.926	1674.104	1511.110
-20.750	41.960	1672.058	1509.460
-19.736	41.987	1670.865	1508.525
-18.721	41.907	1669.683	1506.796
-17.706	41.864	1667.893	1504.798
-16.692	41.979	1666.114	1503.997
-15.677	41.925	1664.507	1502.084
-14.663	42.029	1663.244	1501.667
-13.648	41.974	1662.036	1500.100
-12.633	41.898	1660.587	1498.163
-11.619	41.976	1659.006	1497.266
-10.604	41.980	1657.111	1495.526
-9.590	41.935	1655.821	1493.966
-8.575	41.975	1654.472	1492.989
-7.560	42.010	1653.165	1492.011
-6.546	41.891	1652.316	1490.299
-5.531	41.945	1650.871	1489.336
-4.517	41.927	1649.804	1488.183
-3.502	41.912	1648.881	1487.174
-2.487	41.984	1647.066	1486.012
-1.473	41.975	1635.578	1475.529
-0.458	39.392	1615.493	1438.507
0.556	34.437	1613.995	1401.836
1.571	31.656	1638.586	1402.276
2.586	30.943	1653.585	1409.594
3.600	27.196	1598.937	1335.425
4.615	14.622	1476.380	1147.087
5.629	3.169	1399.700	1012.409
6.644	0.937	1389.365	990.254
7.659	0.879	1387.164	988.220
8.673	0.734	1386.394	986.636
9.688	0.690	1384.725	985.078
10.702	0.460	1382.279	981.748
11.717	4.459	1390.096	1013.349
12.731	15.828	1412.484	1104.588
13.746	23.654	1425.467	1166.268
14.761	24.285	1425.933	1170.689
15.775	24.397	1425.240	1170.755
16.790	24.377	1424.807	1170.161
17.804	24.403	1423.898	1169.484
18.819	24.693	1423.619	1171.048
19.834	24.833	1422.711	1171.114
20.848	24.729	1422.205	1169.918
21.863	24.697	1421.361	1168.910
22.877	24.691	1420.640	1168.172
23.892	24.654	1419.923	1167.236
24.907	24.785	1418.275	1166.635
25.921	24.774	1417.221	1165.595
26.936	24.781	1416.544	1164.981
27.950	24.834	1414.903	1163.870
28.965	24.643	1414.583	1162.261
29.980	24.774	1412.763	1161.517
30.994	24.760	1411.557	1160.331
32.009	24.778	1410.258	1159.275
33.023	24.647	1409.474	1157.679
34.038	24.834	1407.910	1157.505
35.053	24.662	1407.367	1155.840
36.067	24.732	1406.202	1155.234
37.082	24.658	1405.387	1153.985
38.096	24.743	1404.442	1153.654
39.111	24.744	1403.622	1152.884
40.126	24.690	1402.365	1151.405
41.140	24.756	1402.296	1151.668
42.155	24.758	1402.156	1151.466
43.169	24.758	1401.666	1150.965
44.184	24.740	1401.185	1150.352
45.199	24.688	1400.950	1149.718
46.213	24.703	1400.639	1149.457
47.228	24.821	1399.228	1148.957
48.242	24.702	1398.036	1147.112
49.257	24.688	1396.814	1145.922
50.271	24.709	1395.461	1144.846
51.286	24.661	1394.533	1143.673
52.301	24.718	1392.504	1142.270
53.315	24.784	1391.898	1142.097
54.330	24.711	1390.788	1140.620
55.344	24.763	1389.675	1139.935
56.359	24.744	1388.627	1138.854
57.374	24.716	1387.877	1137.963
58.388	24.674	1387.318	1137.136
59.403	24.658	1387.246	1136.871
60.417	24.733	1385.968	1136.200
61.432	24.692	1385.649	1135.581
62.447	24.731	1384.567	1134.836
63.461	24.748	1383.028	1133.584
64.476	24.741	1382.516	1133.019
65.490	24.784	1380.994	1131.943
66.505	24.746	1379.871	1130.684
67.520	24.619	1379.104	1129.151
68.534	24.615	1378.032	1128.152
69.549	24.784	1376.472	1127.841
70.563	24.788	1374.940	1126.507
71.578	24.676	1374.622	1125.445
72.593	24.720	1373.838	1124.982
73.607	24.682	1372.886	1123.860
74.622	24.790	1371.831	1123.576
75.636	24.763	1371.453	1123.000
76.651	24.716	1370.492	1121.814
77.666	24.670	1370.815	1121.692
78.680	24.684	1370.255	1121.224
79.695	24.789	1368.498	1120.345
80.709	24.838	1367.794	1119.978
81.724	24.714	1367.352	1118.739
82.739	24.710	1366.308	1117.762
83.753	24.779	1364.945	1116.978
84.768	24.715	1364.326	1115.972
85.782	24.842	1362.595	1115.251
86.797	24.729	1361.745	1113.755
87.812	24.692	1361.023	1112.831
88.826	24.720	1359.932	1112.015
89.841	24.786	1358.538	1111.189
90.855	24.799	1357.403	1110.240
91.870	24.748	1356.361	1108.978
92.884	24.807	1355.568	1108.596
93.899	24.803	1355.360	1108.298
94.914	24.847	1354.013	1107.375
95.928	24.790	1353.533	1106.529
96.943	24.730	1352.999	1105.625
97.957	24.802	1351.959	1105.124
98.972	24.799	1351.211	1104.392
99.987	24.697	1350.067	1102.735
101.001	24.782	1348.714	1102.056
102.016	24.754	1348.278	1101.430
103.030	24.780	1347.224	1100.632
104.045	24.899	1346.135	1100.373
105.060	24.765	1345.334	1098.797
106.074	24.796	1344.290	1098.038
107.089	24.827	1343.065	1097.130
108.103	24.772	1342.834	1096.507
109.118	24.841	1340.940	1095.289
110.133	24.874	1339.907	1094.550
111.147	24.820	1338.617	1093.070
112.162	24.814	1337.774	1092.246
113.176	24.775	1336.741	1091.071
114.191	24.786	1335.498	1090.022
115.206	24.834	1334.973	1089.793
116.220	24.883	1333.726	1088.976
117.235	24.877	1332.467	1087.812
118.249	24.809	1331.597	1086.596
119.264	24.848	1330.681	1085.987
120.279	24.902	1329.832	1085.525
121.293	24.896	1328.857	1084.600
122.308	24.883	1328.342	1084.003
123.322	24.870	1327.513	1083.152
124.337	24.966	1326.400	1082.728
125.352	24.818	1325.961	1081.381
126.366	24.872	1324.732	1080.610
127.381	24.979	1324.090	1080.634
128.395	24.819	1323.306	1078.936
129.410	24.890	1322.267	1078.420
130.424	24.895	1321.844	1078.006
131.439	24.976	1320.674	1077.448
132.454	24.814	1320.121	1075.923
133.468	24.952	1319.158	1075.873
134.483	24.945	1318.655	1075.326
135.497	24.857	1317.983	1074.158
136.512	24.917	1316.902	1073.542
137.527	24.925	1315.169	1072.082
138.541	24.955	1314.061	1071.261
139.556	24.930	1312.836	1070.021
140.570	24.923	1312.247	1069.401
141.585	24.939	1310.341	1067.848
142.600	24.876	1309.871	1066.998
143.614	24.909	1309.062	1066.439
144.629	24.927	1307.874	1065.484
145.643	24.797	1307.078	1063.967
146.658	24.851	1305.863	1063.204
147.673	24.884	1305.223	1062.785
148.687	24.742	1304.294	1061.093
149.702	24.827	1302.868	1060.344
150.716	24.876	1301.823	1059.689
151.731	24.828	1300.795	1058.475
152.746	24.919	1299.458	1057.832
153.760	24.947	1297.919	1056.650
154.775	24.830	1297.750	1055.728
155.789	24.965	1296.774	1055.637
156.804	24.913	1295.468	1054.178
157.819	24.925	1294.535	1053.392
158.833	24.958	1293.791	1052.887
159.848	25.012	1293.089	1052.543
160.862	24.896	1292.489	1051.280
161.877	24.976	1291.635	1050.960
162.892	24.810	1290.951	1049.339
163.906	24.899	1290.499	1049.401
164.921	24.923	1289.491	1048.625
165.935	24.901	1288.331	1047.461
166.950	24.971	1287.877	1047.408
167.964	25.009	1287.198	1046.989
168.979	25.051	1286.697	1046.732
169.994	24.962	1286.281	1045.781
171.008	24.974	1285.672	1045.266
172.023	25.051	1284.340	1044.537
173.037	25.014	1283.905	1043.878
174.052	25.031	1283.115	1043.242
175.067	25.030	1282.214	1042.407
176.081	24.912	1281.521	1041.065
177.096	24.996	1280.734	1040.825
178.110	24.882	1280.096	1039.552
179.125	24.981	1278.775	1038.960
180.140	25.014	1277.669	1038.160
181.154	25.001	1276.440	1036.996
182.169	25.031	1275.238	1036.102
183.183	24.929	1274.802	1035.067
184.198	25.142	1272.749	1034.538
185.213	24.992	1272.121	1033.068
186.227	24.981	1271.774	1032.632
187.242	25.053	1270.526	1031.945
188.256	25.089	1269.898	1031.550
189.271	25.130	1268.669	1030.696
190.286	25.122	1267.887	1029.924
191.300	25.087	1267.634	1029.427
192.315	25.038	1266.942	1028.492
193.329	25.066	1267.004	1028.612
194.344	25.154	1266.219	1028.385
195.359	25.104	1265.828	1027.689
196.373	24.993	1265.292	1026.528
197.388	25.109	1264.360	1026.347
198.402	25.058	1264.293	1025.910
199.417	25.085	1263.736	1025.520
200.432	25.116	1263.197	1025.168
201.446	25.047	1262.626	1024.218
202.461	25.141	1261.642	1023.871
203.475	25.120	1260.841	1023.006
204.490	25.073	1259.967	1021.939
205.504	25.102	1259.214	1021.406
206.519	25.144	1258.006	1020.575
207.534	25.145	1257.175	1019.815
208.548	25.169	1255.976	1018.889
209.563	25.145	1255.366	1018.169
210.577	25.163	1254.642	1017.592
211.592	25.065	1254.192	1016.581
212.607	25.019	1253.703	1015.836
213.621	25.105	1252.728	1015.439
214.636	25.174	1251.338	1014.617
215.650	25.285	1250.384	1014.382
216.665	25.220	1249.550	1013.248
217.680	25.109	1248.754	1011.884
218.694	25.319	1247.728	1012.149
219.709	25.211	1247.305	1011.104
220.723	25.201	1246.663	1010.441
221.738	25.211	1245.812	1009.718
222.753	25.112	1245.405	1008.739
223.767	25.171	1244.689	1008.406
224.782	25.230	1243.967	1008.061
225.796	25.313	1243.237	1007.847
226.811	25.371	1242.496	1007.482
227.826	25.330	1241.742	1006.550
228.840	25.223	1241.311	1005.510
229.855	25.356	1240.297	1005.348
230.869	25.147	1240.036	1003.879
231.884	25.251	1239.125	1003.633
232.899	25.198	1238.644	1002.858
233.913	25.395	1237.978	1003.329
234.928	25.497	1237.362	1003.312
235.942	25.421	1236.470	1002.078
236.957	25.353	1236.217	1001.405
237.972	25.256	1235.653	1000.318
238.986	25.283	1235.099	999.929
240.001	25.351	1234.175	999.473
241.015	25.413	1233.389	999.094
242.030	25.423	1232.561	998.386
243.045	25.532	1231.628	998.151
244.059	25.532	1230.770	997.363
245.074	25.462	1230.520	996.688
246.088	25.461	1229.258	995.569
247.103	25.498	1228.512	995.085
248.117	25.411	1227.701	993.854
249.132	25.510	1226.862	993.637
250.147	25.521	1226.201	993.077
251.161	25.560	1225.446	992.588
252.176	25.501	1225.018	991.829
253.190	25.602	1224.260	991.684
254.205	25.567	1223.700	990.954
255.220	25.513	1223.463	990.373
256.234	25.555	1222.971	990.120
257.249	25.487	1222.060	988.923
258.263	25.467	1221.721	988.451
259.278	25.632	1220.594	988.357
260.293	25.659	1220.245	988.136
261.307	25.557	1219.890	987.197
262.322	25.586	1218.842	986.424
263.336	25.518	1218.348	985.563
264.351	25.609	1217.688	985.443
265.366	25.520	1217.341	984.586
266.380	25.530	1216.924	984.213
267.395	25.526	1216.021	983.378
268.409	25.577	1215.233	982.931
269.424	25.538	1214.819	982.295
270.439	25.604	1214.380	982.211
271.453	25.581	1213.296	981.123
272.468	25.513	1212.600	980.107
273.482	25.644	1211.910	980.174
274.497	25.638	1211.485	979.711
275.512	25.631	1210.804	979.036
276.526	25.613	1210.255	978.408
277.541	25.678	1209.394	977.980
278.555	25.618	1209.062	977.298
279.570	25.701	1208.050	976.842
280.585	25.747	1207.056	976.203
281.599	25.809	1205.915	975.530
282.614	25.775	1205.447	974.881
283.628	25.782	1204.154	973.785
284.643	25.813	1203.587	973.410
285.657	25.704	1203.241	972.454
286.672	25.656	1202.375	971.409
287.687	25.808	1200.949	970.990
288.701	25.732	1200.626	970.231
289.716	25.775	1199.956	969.838
290.730	25.926	1198.924	969.733
291.745	25.815	1198.697	968.865
292.760	25.851	1197.877	968.310
293.774	25.806	1197.718	967.852
294.789	25.802	1197.298	967.405
295.803	25.954	1196.295	967.328
296.818	25.988	1195.743	966.976
297.833	25.901	1194.947	965.780
298.847	25.909	1194.516	965.391
299.862	25.902	1193.755	964.651
300.876	25.928	1192.957	964.058
301.891	25.915	1192.343	963.412
302.906	26.003	1191.633	963.221
303.920	26.051	1190.801	962.718
304.935	26.073	1190.466	962.481
305.949	25.934	1189.497	960.871
306.964	26.016	1189.262	961.036
307.979	26.025	1188.677	960.522
308.993	25.978	1187.592	959.311
310.008	25.997	1186.891	958.761
311.022	26.128	1186.021	958.669
312.037	26.141	1185.281	958.058
313.052	25.988	1184.533	956.556
314.066	25.996	1183.839	955.953
315.081	26.075	1183.098	955.690
316.095	26.117	1182.410	955.270
317.110	26.074	1181.694	954.378
318.125	26.126	1180.861	953.894
319.139	26.084	1180.387	953.205
320.154	26.071	1179.623	952.436
321.168	26.087	1179.100	952.014
322.183	26.136	1178.837	951.979
323.197	26.120	1178.134	951.242
324.212	26.053	1177.509	950.297
325.227	26.158	1177.269	950.572
326.241	26.237	1176.495	950.280
327.256	26.146	1175.583	948.982
328.270	26.144	1174.756	948.218
329.285	26.084	1174.455	947.578
330.300	26.120	1173.476	946.895
331.314	26.162	1172.549	946.280
332.329	26.169	1171.779	945.614
333.343	26.275	1171.079	945.519
334.358	26.251	1170.150	944.561
335.373	26.316	1169.397	944.208
336.387	26.280	1169.241	943.810
337.402	26.263	1168.229	942.821
338.416	26.337	1167.368	942.429
339.431	26.327	1166.756	941.800
340.446	26.330	1166.336	941.393
341.460	26.420	1165.303	940.941
342.475	26.443	1164.623	940.431
343.489	26.492	1163.452	939.659
344.504	26.414	1162.729	938.583
345.519	26.422	1162.114	938.049
346.533	26.367	1161.299	937.018
347.548	26.539	1160.388	937.094
348.562	26.376	1160.047	935.891
349.577	26.498	1159.136	935.706
350.592	26.261	1158.722	934.062
351.606	26.319	1158.067	933.753
352.621	26.331	1157.492	933.269
353.635	26.548	1156.511	933.514
354.650	26.482	1156.077	932.738
355.665	26.481	1155.465	932.158
356.679	26.589	1154.647	931.972
357.694	26.610	1154.430	931.824
358.708	26.536	1153.343	930.480
359.723	26.512	1152.624	929.698
360.738	26.520	1152.090	929.226
361.752	26.587	1151.590	929.083
362.767	26.593	1150.818	928.408
363.781	26.582	1150.525	928.034
364.796	26.637	1149.803	927.651
365.810	26.692	1149.206	927.367
366.825	26.624	1148.533	926.398
367.840	26.697	1148.226	926.439
368.854	26.753	1147.242	925.852
369.869	26.659	1146.828	924.953
370.883	26.797	1145.567	924.558
371.898	26.684	1145.242	923.640
372.913	26.729	1144.539	923.220
373.927	26.786	1144.252	923.196
374.942	26.791	1143.265	922.343
375.956	26.745	1143.122	921.915
376.971	26.701	1142.878	921.408
377.986	26.785	1142.089	921.120
379.000	26.762	1141.600	920.525
380.015	26.748	1141.228	920.072
381.029	26.805	1140.441	919.650
382.044	26.792	1139.615	918.835
383.059	26.779	1138.917	918.124
384.073	26.861	1138.130	917.821
385.088	26.780	1137.418	916.760
386.102	26.839	1136.274	916.054
387.117	26.806	1135.640	915.296
388.132	26.865	1134.786	914.820
389.146	26.797	1134.118	913.861
390.161	26.967	1133.364	914.031
391.175	26.867	1132.918	913.086
392.190	26.862	1132.299	912.479
393.205	26.893	1131.508	911.916
394.219	26.921	1130.708	911.333
395.234	27.038	1129.654	910.987
396.248	26.941	1129.094	909.972
397.263	27.057	1127.784	909.415
398.278	27.081	1127.476	909.205
399.292	27.159	1126.851	909.011
400.307	27.003	1126.405	907.793
401.321	27.066	1125.492	907.292
402.336	27.099	1125.173	907.116
403.350	27.020	1124.440	906.052
404.365	27.049	1123.841	905.633
405.380	27.080	1123.016	905.046
406.394	27.124	1122.324	904.627
407.409	27.226	1121.240	904.180
408.423	27.325	1120.546	904.032
409.438	27.229	1120.039	903.067
410.453	27.218	1119.304	902.337
411.467	27.221	1118.857	901.914
412.482	27.194	1117.998	901.004
413.496	27.247	1117.152	900.508
414.511	27.164	1116.383	899.398
415.526	27.266	1115.915	899.444
416.540	27.231	1115.817	899.114
417.555	27.158	1115.526	898.440
418.569	27.233	1114.976	898.289
419.584	27.338	1114.082	898.004
420.599	27.406	1113.881	898.099
421.613	83.372	1292.744	1350.566
422.628	78.376	1318.801	1350.685
