DTS Sentinel unit serial number:	SN413079Multiplexer serial number:	ORYXHardware model number:	OX4-SRSoftware version number:	ORYX F/W v4.00 Oryx Data Collector v3.7.2.0data status	okinstallation	princeton_trtdifferential loss correction	single-endedforward channel	channel 2reverse channel	N/Adate	2019/09/13time	07:31:35forward acquisition time	60.00reverse acquisition time	0.00gamma	496.2192k internal	0.2337k external	0.2337temperature offset calibration	1.0196default loss term (dB/km)	0.3790temperature slope calibration	1.0000multiplexer offset coefficient	1.0000multiplexer slope coefficient	1.0000fibre end	0.00T internal ref (°C)	26.23T ext. ref 1 (°C)	4.19T ext. ref 2 (°C)	22.06length (m)	temperature (°C)	Stokes	anti-Stokes-747.200	-91.035	-0.175	-0.050
-746.185	-200.000	0.021	0.114
-745.171	-109.865	0.081	0.017
-744.156	-200.000	0.083	0.444
-743.142	-58.835	-0.104	0.045
-742.127	290.517	0.242	0.441
-741.112	-200.000	-0.002	0.211
-740.098	135.620	0.091	0.119
-739.083	-105.843	0.201	0.046
-738.069	479.797	-0.008	0.018
-737.054	89.617	-0.294	0.329
-736.039	657.563	0.115	-0.296
-735.025	-39.517	-0.129	0.068
-734.010	-200.000	0.074	-0.421
-732.996	-200.000	-0.005	-0.407
-731.981	355.500	-0.081	-0.161
-730.966	-2.719	-0.187	-0.131
-729.952	13.408	-0.215	0.167
-728.937	159.531	-0.052	0.072
-727.923	-90.520	-0.445	0.129
-726.908	-200.000	0.018	-0.257
-725.894	-67.354	-0.435	-0.171
-724.879	-39.513	0.238	-0.125
-723.864	117.384	-0.068	-0.083
-722.850	-85.776	-0.177	-0.055
-721.835	382.647	-0.072	0.149
-720.821	230.509	-0.028	0.045
-719.806	36.776	0.292	-0.259
-718.791	-144.964	-0.300	0.027
-717.777	-157.904	-0.110	-0.007
-716.762	800.000	0.086	-0.277
-715.748	-44.812	0.231	0.116
-714.733	800.000	0.031	-0.113
-713.718	-52.359	-0.268	0.125
-712.704	237.095	-0.124	-0.206
-711.689	-200.000	-0.009	-0.069
-710.675	57.445	-0.203	0.199
-709.660	-24.567	0.040	-0.024
-708.645	-200.000	0.004	0.219
-707.631	200.500	-0.140	0.216
-706.616	-53.306	0.180	0.083
-705.602	140.128	-0.160	-0.212
-704.587	-172.518	-0.017	-0.001
-703.572	-111.635	0.282	0.057
-702.558	-13.850	-0.199	0.129
-701.543	-99.443	-0.133	-0.034
-700.529	308.261	0.110	-0.206
-699.514	-120.394	-0.156	-0.027
-698.499	24.329	-0.185	-0.153
-697.485	-121.134	0.201	0.034
-696.470	-152.168	-0.338	-0.025
-695.456	80.773	-0.294	-0.318
-694.441	109.794	0.119	-0.144
-693.426	304.849	-0.031	0.059
-692.412	-200.000	0.060	0.334
-691.397	85.840	-0.152	-0.168
-690.383	335.305	0.057	0.111
-689.368	-85.365	0.452	-0.141
-688.354	-93.169	0.152	-0.042
-687.339	-200.000	0.025	0.226
-686.324	-156.285	-0.449	0.028
-685.310	800.000	0.136	0.572
-684.295	-62.068	-0.121	-0.051
-683.281	-16.463	0.386	-0.245
-682.266	-3.737	0.121	0.084
-681.251	-200.000	0.084	0.430
-680.237	511.541	-0.015	-0.035
-679.222	-134.239	0.097	-0.012
-678.208	-61.331	0.136	-0.057
-677.193	-200.000	0.016	-0.135
-676.178	-123.314	-0.183	0.029
-675.164	486.467	-0.102	-0.234
-674.149	-200.000	-0.029	0.190
-673.135	-43.460	-0.396	-0.200
-672.120	-94.941	0.130	-0.035
-671.105	-121.357	-0.398	-0.066
-670.091	256.755	0.168	-0.288
-669.076	-137.174	-0.123	-0.014
-668.062	184.399	-0.092	0.136
-667.047	574.440	-0.166	0.406
-666.032	264.899	0.146	0.254
-665.018	83.652	0.073	-0.080
-664.003	800.000	-0.109	-0.374
-662.989	472.105	-0.044	-0.099
-661.974	769.082	-0.144	0.392
-660.959	-154.233	-0.165	-0.011
-659.945	-29.190	0.125	-0.072
-658.930	-129.481	0.163	0.023
-657.916	74.725	-0.324	0.341
-656.901	26.681	0.216	0.181
-655.886	142.094	-0.279	-0.370
-654.872	239.734	0.159	0.264
-653.857	-92.466	-0.140	-0.039
-652.843	-39.087	0.477	-0.251
-651.828	365.138	-0.045	-0.090
-650.814	-144.525	0.197	0.018
-649.799	84.538	0.176	-0.193
-648.784	800.000	-0.046	-0.151
-647.770	-200.000	-0.007	0.043
-646.755	-81.604	-0.189	0.062
-645.741	159.910	0.080	-0.111
-644.726	790.019	0.109	-0.301
-643.711	-30.203	0.077	0.044
-642.697	-132.531	0.213	-0.027
-641.682	787.094	0.121	-0.331
-640.668	139.507	-0.126	0.165
-639.653	683.552	0.084	-0.219
-638.638	-182.979	-0.324	-0.006
-637.624	-110.059	-0.213	-0.045
-636.609	171.799	0.030	-0.044
-635.595	-75.198	0.209	-0.075
-634.580	58.291	-0.144	0.141
-633.565	185.085	0.125	0.186
-632.551	-63.833	0.241	-0.098
-631.536	-55.696	-0.220	-0.099
-630.522	-172.522	0.164	-0.005
-629.507	66.531	-0.192	-0.196
-628.492	-200.000	-0.032	0.338
-627.478	153.901	0.166	-0.228
-626.463	-142.199	-0.326	-0.032
-625.449	800.000	-0.026	0.088
-624.434	313.322	-0.088	-0.165
-623.419	-101.374	0.042	0.010
-622.405	-200.000	-0.008	0.062
-621.390	-142.177	-0.135	0.013
-620.376	264.226	-0.043	0.075
-619.361	54.379	0.130	0.125
-618.346	-181.410	-0.401	0.008
-617.332	777.128	0.041	-0.111
-616.317	-200.000	0.070	-0.446
-615.303	125.409	-0.294	-0.371
-614.288	-163.757	0.329	0.015
-613.273	9.135	0.034	0.026
-612.259	-26.964	-0.201	0.117
-611.244	223.092	0.032	-0.051
-610.230	341.474	0.165	-0.321
-609.215	-19.882	-0.186	-0.115
-608.201	-200.000	0.047	0.238
-607.186	-76.705	-0.424	-0.148
-606.171	147.511	-0.219	-0.294
-605.157	-9.971	-0.243	-0.161
-604.142	67.708	0.141	-0.143
-603.128	-98.122	0.240	-0.062
-602.113	-200.000	-0.012	-0.071
-601.098	-53.459	0.057	0.026
-600.084	-200.000	-0.011	-0.242
-599.069	-86.504	-0.216	-0.066
-598.055	800.000	0.092	0.280
-597.040	-200.000	0.000	-0.221
-596.025	800.000	0.083	0.269
-595.011	50.724	0.216	0.204
-593.996	60.035	-0.241	0.238
-592.982	-200.000	-0.016	-0.173
-591.967	299.062	-0.122	-0.224
-590.952	-38.453	0.479	-0.253
-589.938	281.458	0.069	0.124
-588.923	-200.000	0.006	-0.392
-587.909	401.016	0.023	-0.048
-586.894	-15.624	-0.214	0.136
-585.879	-94.220	0.539	-0.147
-584.865	325.417	-0.109	-0.208
-583.850	800.000	-0.134	-0.405
-582.836	77.562	-0.146	-0.155
-581.821	39.366	0.015	0.013
-580.806	-200.000	0.326	0.001
-579.792	-182.139	-0.143	0.003
-578.777	121.701	0.035	-0.044
-577.763	-16.429	0.269	-0.170
-576.748	26.312	0.107	-0.090
-575.733	28.291	-0.343	0.289
-574.719	-170.320	-0.170	0.006
-573.704	-107.182	-0.163	-0.036
-572.690	800.000	0.125	0.410
-571.675	464.068	0.080	-0.178
-570.661	81.173	0.056	0.060
-569.646	-83.159	0.121	-0.039
-568.631	-90.144	0.146	0.042
-567.617	-200.000	-0.038	-0.337
-566.602	-200.000	0.060	-0.282
-565.588	-200.000	0.036	-0.198
-564.573	195.739	-0.113	-0.171
-563.558	-44.744	-0.278	-0.138
-562.544	-200.000	0.049	0.265
-561.529	-200.000	-0.006	-0.107
-560.515	-39.192	-0.165	-0.086
-559.500	-46.192	-0.247	-0.121
-558.485	-163.486	0.372	-0.018
-557.471	-51.793	0.047	0.022
-556.456	240.204	0.130	0.215
-555.442	-40.121	-0.218	-0.113
-554.427	325.989	-0.148	-0.283
-553.412	-200.000	-0.004	-0.281
-552.398	2.005	0.248	0.179
-551.383	-200.000	-0.028	0.285
-550.369	800.000	-0.030	0.120
-549.354	441.669	0.129	0.281
-548.339	12.422	0.189	0.145
-547.325	205.515	0.168	0.260
-546.310	-104.590	0.424	0.097
-545.296	800.000	0.104	-0.327
-544.281	-57.176	0.117	-0.051
-543.266	-200.000	-0.018	0.368
-542.252	83.417	0.242	0.262
-541.237	58.076	-0.021	-0.020
-540.223	131.039	0.220	-0.281
-539.208	415.219	0.036	0.076
-538.193	-24.485	-0.090	-0.053
-537.179	-74.309	0.172	-0.062
-536.164	-200.000	-0.004	0.242
-535.150	800.000	0.047	0.203
-534.135	-160.365	-0.038	-0.002
-533.121	-88.530	-0.398	0.118
-532.106	-52.740	-0.246	0.113
-531.091	-200.000	0.029	-0.299
-530.077	-137.878	-0.231	0.026
-529.062	-74.942	-0.160	0.057
-528.048	-36.609	0.048	-0.026
-527.033	-76.499	-0.078	0.027
-526.018	-140.982	-0.184	-0.019
-525.004	18.181	-0.239	0.190
-523.989	68.785	-0.072	0.074
-522.975	19.383	0.279	-0.223
-521.960	206.120	0.144	0.224
-520.945	238.921	0.113	0.186
-519.931	-200.000	0.076	-0.386
-518.916	-22.469	-0.041	0.025
-517.902	-13.663	-0.102	-0.066
-516.887	-200.000	-0.007	-0.278
-515.872	-69.449	-0.157	0.060
-514.858	-200.000	-0.008	0.155
-513.843	-131.822	-0.371	-0.048
-512.829	7.090	0.298	0.221
-511.814	-54.168	-0.230	-0.104
-510.799	311.818	0.105	0.195
-509.785	-53.009	0.115	0.053
-508.770	237.607	0.130	0.214
-507.756	-200.000	0.028	-0.330
-506.741	-70.949	-0.101	-0.038
-505.726	-200.000	-0.004	-0.149
-504.712	-129.053	-0.181	0.025
-503.697	-10.336	-0.213	0.141
-502.683	-12.526	-0.262	0.170
-501.668	-200.000	0.017	-0.422
-500.653	800.000	0.054	-0.162
-499.639	-86.810	0.279	0.085
-498.624	337.806	0.082	-0.158
-497.610	800.000	0.085	-0.243
-496.595	-105.939	0.345	-0.077
-495.581	-85.530	-0.384	0.119
-494.566	24.089	0.516	0.424
-493.551	-76.707	0.140	-0.049
-492.537	761.182	-0.031	0.084
-491.522	-47.388	0.140	-0.068
-490.508	-200.000	0.000	0.137
-489.493	223.052	-0.056	0.089
-488.478	292.716	-0.079	0.144
-487.464	800.000	0.118	-0.344
-486.449	-92.614	-0.252	0.070
-485.435	-115.394	0.042	0.008
-484.420	-92.657	-0.086	-0.024
-483.405	1.425	0.146	-0.104
-482.391	-181.636	-0.363	0.007
-481.376	75.110	-0.157	-0.164
-480.362	-107.653	-0.333	-0.072
-479.347	582.936	0.103	0.250
-478.332	800.000	-0.048	0.142
-477.318	800.000	0.044	0.173
-476.303	-200.000	-0.018	-0.562
-475.289	28.717	-0.184	0.155
-474.274	-138.706	-0.452	-0.049
-473.259	-68.047	0.031	0.012
-472.245	152.547	-0.067	0.091
-471.230	264.787	-0.235	-0.406
-470.216	-154.227	0.170	0.011
-469.201	-61.615	-0.029	0.012
-468.186	-43.397	-0.253	0.127
-467.172	307.421	0.081	-0.149
-466.157	-200.000	-0.072	-0.385
-465.143	-200.000	-0.019	0.098
-464.128	439.016	-0.107	-0.233
-463.113	800.000	0.128	-0.376
-462.099	-36.542	-0.155	-0.083
-461.084	102.006	-0.166	0.192
-460.070	-200.000	0.006	-0.178
-459.055	537.647	-0.074	-0.175
-458.040	-200.000	0.022	-0.181
-457.026	-73.601	0.249	0.090
-456.011	-5.170	0.208	0.142
-454.997	-164.973	0.237	-0.010
-453.982	800.000	-0.054	-0.197
-452.968	800.000	0.039	0.164
-451.953	56.517	0.226	-0.218
-450.938	128.125	-0.141	-0.177
-449.924	-3.857	0.263	0.181
-448.909	-7.243	0.195	0.131
-447.895	-56.564	0.055	0.024
-446.880	-40.631	0.056	-0.029
-445.865	800.000	0.062	0.262
-444.851	87.978	-0.077	-0.085
-443.836	223.500	0.048	-0.076
-442.822	-200.000	0.002	-0.212
-441.807	-200.000	0.014	0.105
-440.792	-156.901	-0.201	-0.012
-439.778	-82.148	-0.118	-0.038
-438.763	31.432	-0.111	-0.095
-437.749	47.057	0.082	0.076
-436.734	1.254	0.197	0.140
-435.719	-4.144	-0.258	0.177
-434.705	-92.861	0.073	0.020
-433.690	-200.000	-0.004	-0.173
-432.676	-169.297	-0.086	0.003
-431.661	320.515	0.082	0.155
-430.646	466.424	0.047	0.104
-429.632	46.615	-0.038	0.035
-428.617	-129.946	-0.118	-0.016
-427.603	-176.165	0.330	0.009
-426.588	-89.602	-0.187	-0.055
-425.573	-200.000	-0.049	0.225
-424.559	-135.613	0.382	0.045
-423.544	631.685	0.126	0.316
-422.530	-147.807	0.314	-0.026
-421.515	-94.381	0.223	-0.060
-420.500	225.746	-0.060	0.096
-419.486	436.978	-0.068	-0.147
-418.471	-147.048	0.193	0.016
-417.457	800.000	-0.027	0.075
-416.442	800.000	0.077	0.279
-415.428	175.482	0.212	-0.304
-414.413	0.783	-0.364	-0.258
-413.398	-199.480	-0.289	0.001
-412.384	-179.951	0.194	-0.004
-411.369	-200.000	-0.038	0.381
-410.355	311.643	-0.187	0.347
-409.340	305.412	0.070	-0.128
-408.325	800.000	-0.089	-0.283
-407.311	433.337	0.126	0.270
-406.296	-69.967	-0.185	0.070
-405.282	-74.651	0.166	0.059
-404.267	-200.000	-0.006	-0.138
-403.252	800.000	0.040	0.138
-402.238	175.788	0.212	-0.305
-401.223	-165.075	-0.378	0.017
-400.209	9.009	-0.134	-0.100
-399.194	-200.000	0.065	0.502
-398.179	248.496	0.140	-0.235
-397.165	245.182	-0.153	-0.255
-396.150	241.728	-0.024	0.039
-395.136	-200.000	0.315	-0.001
-394.121	-200.000	-0.036	-0.315
-393.106	32.656	-0.184	-0.158
-392.092	345.679	-0.093	0.182
-391.077	800.000	-0.105	-0.314
-390.063	-63.985	-0.348	-0.141
-389.048	-63.211	0.193	0.079
-388.033	403.887	0.093	-0.194
-387.019	702.602	-0.056	-0.146
-386.004	324.587	-0.074	0.139
-384.990	-6.382	-0.048	-0.032
-383.975	800.000	0.064	0.206
-382.960	-24.320	0.225	0.133
-381.946	-117.198	-0.216	-0.039
-380.931	-200.000	0.060	0.277
-379.917	140.349	-0.085	0.111
-378.902	-93.012	0.308	0.085
-377.888	688.635	-0.037	-0.095
-376.873	228.729	-0.125	-0.202
-375.858	-200.000	0.009	0.071
-374.844	147.037	-0.032	-0.042
-373.829	-112.004	-0.108	-0.022
-372.815	-46.716	0.185	0.090
-371.800	-41.458	-0.263	-0.134
-370.785	89.415	0.038	0.042
-369.771	800.000	0.033	0.135
-368.756	-62.729	-0.179	0.073
-367.742	-107.593	0.051	0.011
-366.727	-200.000	0.009	0.307
-365.712	-200.000	0.018	-0.271
-364.698	-85.223	-0.236	-0.073
-363.683	-200.000	0.001	0.006
-362.669	3.283	0.161	0.116
-361.654	233.475	0.249	0.405
-360.639	45.702	0.132	-0.121
-359.625	497.787	0.003	0.007
-358.610	217.363	-0.164	0.258
-357.596	501.904	-0.109	0.248
-356.581	-123.030	-0.031	-0.005
-355.566	-93.774	0.129	-0.035
-354.552	59.162	0.010	-0.009
-353.537	-200.000	0.025	0.308
-352.523	-58.248	0.140	0.060
-351.508	37.135	-0.188	-0.164
-350.493	238.461	0.151	-0.248
-349.479	-45.783	-0.161	0.079
-348.464	-35.401	0.011	0.006
-347.450	139.780	0.111	0.144
-346.435	85.052	-0.121	-0.132
-345.420	693.962	0.012	-0.031
-344.406	-200.000	-0.012	0.364
-343.391	13.139	0.044	0.034
-342.377	749.892	-0.041	0.109
-341.362	-200.000	0.002	0.145
-340.348	-73.134	-0.319	0.116
-339.333	84.388	0.102	-0.110
-338.318	0.106	-0.045	-0.032
-337.304	-57.111	-0.201	0.088
-336.289	-200.000	-0.008	-0.043
-335.275	-121.669	0.149	0.024
-334.260	-78.490	0.233	0.079
-333.245	345.382	-0.095	0.185
-332.231	200.946	-0.127	0.194
-331.216	-19.168	-0.106	-0.065
-330.202	42.876	-0.158	-0.143
-329.187	-141.336	-0.200	0.020
-328.172	-71.738	0.282	-0.104
-327.158	-27.914	-0.013	0.008
-326.143	-67.045	-0.207	0.081
-325.129	-141.113	-0.178	0.018
-324.114	-68.265	0.218	0.084
-323.099	-56.284	0.377	-0.165
-322.085	28.212	-0.100	-0.084
-321.070	-1.331	-0.077	0.054
-320.056	800.000	0.107	-0.456
-319.041	800.000	-0.040	-0.121
-318.026	-12.349	0.212	-0.137
-317.012	-80.288	-0.244	0.081
-315.997	-144.831	0.300	0.027
-314.983	-0.142	0.394	-0.277
-313.968	96.103	-0.210	0.237
-312.953	-120.756	-0.161	0.027
-311.939	719.945	-0.064	0.167
-310.924	331.916	-0.045	0.086
-309.910	37.439	-0.089	0.078
-308.895	82.387	0.090	0.096
-307.880	69.447	0.086	-0.087
-306.866	438.831	0.176	-0.380
-305.851	162.196	-0.042	0.059
-304.837	-73.492	-0.337	0.121
-303.822	-45.343	0.134	-0.066
-302.807	119.024	-0.151	0.184
-301.793	-200.000	0.015	0.147
-300.778	-112.243	0.055	0.011
-299.764	800.000	-0.018	0.063
-298.749	-107.908	0.061	-0.013
-297.735	-77.403	-0.318	0.109
-296.720	-134.202	-0.276	0.034
-295.705	-162.527	0.177	0.009
-294.691	-114.873	-0.164	0.031
-293.676	-160.514	0.185	-0.010
-292.662	-27.804	0.205	-0.117
-291.647	-200.000	0.031	-0.186
-290.632	-69.576	-0.216	0.081
-289.618	89.564	0.176	-0.194
-288.603	343.583	0.064	-0.124
-287.589	-118.090	0.288	-0.051
-286.574	800.000	-0.097	-0.311
-285.559	-130.550	0.188	0.025
-284.545	-200.000	0.061	0.343
-283.530	34.806	0.196	0.169
-282.516	-104.185	-0.451	-0.103
-281.501	277.187	0.084	-0.148
-280.486	-54.058	0.159	-0.071
-279.472	55.002	-0.259	0.246
-278.457	800.000	-0.049	0.176
-277.443	87.619	0.279	-0.304
-276.428	-105.457	0.134	-0.030
-275.413	800.000	-0.114	-0.342
-274.399	-16.014	0.191	-0.120
-273.384	-43.212	-0.094	0.047
-272.370	-132.321	-0.232	0.030
-271.355	-154.370	-0.201	-0.013
-270.340	-129.645	-0.392	0.053
-269.326	800.000	0.055	-0.202
-268.311	-122.584	0.100	-0.016
-267.297	-39.141	-0.300	0.155
-266.282	85.190	0.042	0.045
-265.267	0.913	0.236	-0.167
-264.253	-21.457	-0.116	-0.070
-263.238	0.029	0.127	-0.089
-262.224	118.061	-0.134	-0.163
-261.209	800.000	0.085	0.260
-260.195	30.582	0.313	0.264
-259.180	701.462	-0.071	0.185
-258.165	76.427	0.109	-0.114
-257.151	49.448	0.095	-0.088
-256.136	-16.263	-0.290	-0.181
-255.122	80.379	-0.151	-0.160
-254.107	-10.767	0.401	0.261
-253.092	146.446	0.100	-0.133
-252.078	800.000	-0.072	0.197
-251.063	-66.695	-0.263	-0.102
-250.049	-200.000	0.050	0.273
-249.034	83.512	-0.161	-0.173
-248.019	-127.528	0.268	-0.038
-247.005	-94.547	0.179	0.048
-245.990	-200.000	-0.001	0.103
-244.976	-200.000	-0.024	-0.215
-243.961	-200.000	0.011	0.224
-242.946	-156.980	0.219	0.013
-241.932	-81.772	-0.216	-0.070
-240.917	-144.841	-0.130	0.012
-239.903	-14.470	0.132	-0.083
-238.888	283.540	0.139	-0.245
-237.873	50.153	0.078	0.072
-236.859	-120.895	-0.256	0.042
-235.844	-31.656	0.246	-0.136
-234.830	-94.197	-0.125	-0.034
-233.815	212.538	-0.094	0.147
-232.800	-129.284	-0.246	0.034
-231.786	-111.795	0.158	0.031
-230.771	-77.128	-0.240	0.082
-229.757	187.632	0.152	0.224
-228.742	-200.000	-0.007	0.150
-227.727	-147.905	0.261	0.021
-226.713	-197.387	-0.073	0.000
-225.698	-89.692	0.126	0.036
-224.684	-101.516	0.187	-0.045
-223.669	-200.000	-0.011	-0.065
-222.655	316.203	0.102	-0.190
-221.640	127.513	0.195	0.243
-220.625	800.000	-0.077	-0.295
-219.611	14.362	-0.132	0.101
-218.596	139.263	0.201	0.260
-217.582	-85.265	0.307	0.094
-216.567	117.378	0.184	0.222
-215.552	-112.709	0.210	0.041
-214.538	-200.000	-0.006	-0.116
-213.523	-113.644	-0.178	-0.034
-212.509	-115.003	-0.209	0.039
-211.494	112.351	0.217	-0.258
-210.479	-91.593	0.184	-0.051
-209.465	229.920	0.198	0.318
-208.450	-134.556	-0.201	0.024
-207.436	-150.186	0.197	0.015
-206.421	117.534	-0.174	-0.210
-205.406	-200.000	-0.031	0.172
-204.392	-55.542	-0.370	-0.163
-203.377	-200.000	0.058	0.300
-202.363	117.596	0.145	-0.175
-201.348	-122.589	-0.245	0.039
-200.333	-89.982	0.137	0.039
-199.319	-85.344	-0.212	0.065
-198.304	-171.469	0.231	0.008
-197.290	-200.000	0.025	0.171
-196.275	40.665	0.280	-0.248
-195.260	160.409	0.187	0.256
-194.246	-26.148	0.300	0.173
-193.231	-27.472	-0.195	-0.112
-192.217	-79.666	0.210	-0.070
-191.202	24.382	0.197	0.160
-190.187	45.928	0.473	0.430
-189.173	-90.330	0.032	-0.009
-188.158	9.574	0.240	0.179
-187.144	-47.191	0.202	0.097
-186.129	176.874	0.034	0.049
-185.114	800.000	-0.151	-0.460
-184.100	-200.000	0.057	0.284
-183.085	-200.000	-0.003	-0.028
-182.071	104.288	-0.203	0.234
-181.056	800.000	-0.080	0.248
-180.042	-76.134	-0.036	0.013
-179.027	520.243	0.091	0.210
-178.012	-34.786	0.075	-0.040
-176.998	5.903	-0.197	0.143
-175.983	-59.631	-0.269	0.113
-174.969	524.059	-0.126	0.291
-173.954	-114.013	-0.181	0.034
-172.939	298.867	-0.085	0.154
-171.925	-185.370	-0.294	-0.004
-170.910	96.350	0.118	0.133
-169.896	-183.742	0.240	0.004
-168.881	463.483	-0.147	0.322
-167.866	-137.229	-0.424	0.047
-166.852	-200.000	-0.039	0.497
-165.837	293.553	0.067	0.120
-164.823	433.614	-0.104	0.222
-163.808	660.112	-0.131	0.331
-162.793	4.233	-0.289	-0.208
-161.779	-71.953	0.256	0.094
-160.764	57.147	-0.112	0.107
-159.750	26.214	-0.168	-0.138
-158.735	-200.000	-0.037	-0.314
-157.720	106.590	0.314	-0.366
-156.706	-200.000	-0.017	0.132
-155.691	163.396	-0.100	0.137
-154.677	-111.577	-0.138	0.027
-153.662	-200.000	0.002	-0.265
-152.647	-135.070	0.103	0.012
-151.633	-79.824	-0.333	0.110
-150.618	-164.739	0.380	0.017
-149.604	-200.000	0.007	0.122
-148.589	226.048	0.073	0.115
-147.574	79.399	0.241	0.254
-146.560	15.065	-0.098	0.075
-145.545	21.452	0.302	0.241
-144.531	2.537	-0.180	-0.128
-143.516	-62.491	0.293	-0.120
-142.502	567.009	-0.049	-0.116
-141.487	-200.000	0.012	-0.267
-140.472	-40.667	0.045	-0.023
-139.458	83.761	-0.129	-0.138
-138.443	-200.000	0.069	0.359
-137.429	-200.000	-0.055	0.266
-136.414	63.166	0.114	-0.112
-135.399	139.538	0.058	-0.075
-134.385	-109.934	0.127	-0.026
-133.370	-82.396	0.452	-0.144
-132.356	-99.730	0.157	-0.039
-131.341	96.461	-0.213	0.239
-130.326	800.000	0.038	0.108
-129.312	134.362	-0.191	-0.243
-128.297	-31.275	-0.247	0.136
-127.283	36.630	0.120	-0.104
-126.268	-17.679	-0.187	0.115
-125.253	471.680	0.063	0.140
-124.239	-27.734	-0.397	0.226
-123.224	-69.398	0.321	0.121
-122.210	-73.869	-0.390	0.139
-121.195	445.861	0.175	0.377
-120.180	-200.000	-0.013	0.225
-119.166	153.485	-0.209	0.281
-118.151	168.479	0.079	0.110
-117.137	-21.612	0.175	0.104
-116.122	800.000	-0.114	0.343
-115.107	9.639	0.364	-0.270
-114.093	-4.952	0.230	-0.155
-113.078	-32.025	0.249	0.136
-112.064	-200.000	0.034	0.280
-111.049	-28.169	0.112	-0.064
-110.034	-54.457	-0.280	-0.124
-109.020	-200.000	0.057	0.283
-108.005	-25.424	-0.295	-0.171
-106.991	43.034	0.427	0.382
-105.976	52.908	-0.084	-0.079
-104.962	83.558	0.036	0.038
-103.947	188.741	0.174	0.255
-102.932	18.799	-0.160	-0.126
-101.918	-200.000	-0.021	0.157
-100.903	800.000	0.036	-0.124
-99.889	188.145	0.013	-0.019
-98.874	33.438	-0.215	-0.183
-97.859	-200.000	-0.053	-0.358
-96.845	-200.000	0.062	-0.522
-95.830	-60.183	-0.122	-0.051
-94.816	-94.363	0.229	0.061
-93.801	48.946	-0.172	0.158
-92.786	191.010	0.195	0.288
-91.772	-16.729	-0.300	-0.186
-90.757	-100.417	0.530	-0.129
-89.743	-200.000	-0.026	-0.133
-88.728	48.801	0.193	0.177
-87.713	-111.212	-0.137	-0.027
-86.699	-32.385	0.197	-0.108
-85.684	78.906	-0.112	0.117
-84.670	87.446	0.434	0.470
-83.655	57.400	-0.332	-0.317
-82.640	-200.000	0.016	0.194
-81.626	458.744	0.153	-0.334
-80.611	800.000	-0.058	-0.174
-79.597	221.617	-0.223	0.350
-78.582	85.294	0.047	0.051
-77.567	58.498	-0.175	0.168
-76.553	83.948	0.289	0.309
-75.538	172.158	-0.228	-0.321
-74.524	-143.730	0.589	-0.055
-73.509	800.000	0.106	0.310
-72.494	23.989	0.212	0.171
-71.480	-200.000	-0.009	0.195
-70.465	-119.909	0.438	0.074
-69.451	-121.972	-0.127	0.020
-68.436	-71.177	0.250	0.092
-67.422	-128.953	-0.351	-0.048
-66.407	-97.449	0.131	-0.033
-65.392	-53.387	-0.185	0.083
-64.378	-65.711	0.031	-0.012
-63.363	800.000	0.022	0.079
-62.349	-18.712	0.078	0.047
-61.334	156.175	-0.964	-1.300
-60.319	199.600	0.519	0.779
-59.305	800.000	-0.319	-1.267
-58.290	258.675	0.805	1.357
-57.276	753.449	0.606	1.601
-56.261	-200.000	118.955	660.272
-55.246	499.807	1555.780	3505.882
-54.232	172.436	2732.369	3841.789
-53.217	97.926	2298.860	2584.497
-52.203	35.217	1904.102	1630.922
-51.188	29.403	1695.255	1407.772
-50.173	26.919	1654.571	1355.408
-49.159	47.830	1712.139	1562.043
-48.144	46.306	1725.372	1562.486
-47.130	28.888	1683.067	1393.528
-46.115	26.330	1668.488	1362.151
-45.100	26.136	1663.424	1356.504
-44.086	26.115	1660.769	1354.128
-43.071	26.053	1658.233	1351.546
-42.057	26.125	1655.683	1349.952
-41.042	26.151	1653.710	1348.479
-40.027	26.148	1651.841	1346.880
-39.013	26.089	1649.872	1344.780
-37.998	26.056	1648.331	1343.228
-36.984	26.108	1646.943	1342.433
-35.969	26.170	1645.428	1341.602
-34.954	26.253	1643.989	1340.993
-33.940	26.223	1642.082	1339.159
-32.925	26.240	1640.612	1338.037
-31.911	26.273	1638.752	1336.709
-30.896	26.229	1636.988	1334.893
-29.881	26.310	1635.199	1333.979
-28.867	26.179	1634.032	1332.009
-27.852	26.291	1632.536	1331.562
-26.838	26.230	1631.085	1329.875
-25.823	26.154	1630.202	1328.542
-24.809	26.327	1628.165	1328.100
-23.794	26.257	1627.134	1326.693
-22.779	26.308	1625.390	1325.591
-21.765	26.285	1623.641	1323.947
-20.750	26.169	1622.112	1321.794
-19.736	26.261	1620.848	1321.391
-18.721	26.259	1619.570	1320.279
-17.706	26.248	1617.943	1318.821
-16.692	26.210	1616.387	1317.218
-15.677	26.365	1614.544	1316.799
-14.663	26.246	1613.669	1315.165
-13.648	26.362	1612.154	1314.719
-12.633	26.271	1610.712	1312.835
-11.619	26.216	1609.430	1311.339
-10.604	26.250	1607.622	1310.057
-9.590	26.256	1606.195	1308.887
-8.575	26.288	1604.499	1307.686
-7.560	26.298	1603.302	1306.727
-6.546	26.313	1602.457	1306.095
-5.531	26.214	1601.762	1304.760
-4.517	26.180	1601.053	1303.890
-3.502	26.221	1599.632	1302.972
-2.487	26.368	1597.658	1302.371
-1.473	26.069	1585.728	1290.457
-0.458	23.423	1567.150	1256.557
0.556	22.233	1569.258	1227.662
1.571	20.033	1593.779	1231.115
2.586	19.483	1606.375	1236.799
3.600	17.549	1551.297	1180.883
4.615	11.052	1443.951	1057.010
5.629	5.220	1384.887	977.274
6.644	4.135	1377.608	965.295
7.659	4.166	1376.247	964.449
8.673	4.231	1375.657	964.355
9.688	4.238	1373.908	963.090
10.702	4.200	1370.738	960.542
11.717	6.961	1376.067	981.349
12.731	14.566	1389.419	1038.278
13.746	20.785	1400.418	1085.293
14.761	22.491	1401.987	1097.049
15.775	21.999	1400.175	1092.472
16.790	21.066	1397.504	1084.497
17.804	20.374	1395.172	1078.293
18.819	19.996	1394.643	1075.442
19.834	20.049	1393.077	1074.470
20.848	19.963	1392.759	1073.599
21.863	19.670	1391.505	1070.717
22.877	19.638	1390.315	1069.509
23.892	19.578	1389.074	1068.091
24.907	19.540	1388.458	1067.290
25.921	19.624	1387.046	1066.627
26.936	19.608	1386.384	1065.926
27.950	19.573	1385.601	1065.009
28.965	19.629	1384.774	1064.624
29.980	19.829	1383.685	1064.927
30.994	20.061	1382.653	1065.468
32.009	20.059	1381.624	1064.567
33.023	19.953	1380.628	1063.055
34.038	19.957	1378.790	1061.570
35.053	19.795	1377.383	1059.402
36.067	19.799	1376.281	1058.481
37.082	19.856	1375.312	1057.995
38.096	19.940	1374.604	1057.866
39.111	19.867	1374.132	1056.966
40.126	19.600	1373.248	1054.561
41.140	19.447	1371.805	1052.427
42.155	19.162	1371.703	1050.517
43.169	19.360	1371.255	1051.289
44.184	19.134	1370.996	1049.619
45.199	19.251	1370.949	1050.205
46.213	19.454	1370.664	1051.131
47.228	19.659	1369.702	1051.546
48.242	19.649	1368.409	1050.398
49.257	19.667	1367.062	1049.384
50.271	19.696	1365.417	1048.202
51.286	19.765	1363.961	1047.410
52.301	19.653	1363.212	1046.066
53.315	19.492	1361.648	1043.798
54.330	19.484	1360.451	1042.740
55.344	19.301	1359.518	1040.826
56.359	19.316	1357.985	1039.651
57.374	19.302	1357.694	1039.254
58.388	19.205	1356.890	1037.961
59.403	19.142	1356.640	1037.297
60.417	19.142	1355.616	1036.423
61.432	19.119	1354.625	1035.432
62.447	19.142	1352.864	1034.134
63.461	18.942	1352.489	1032.554
64.476	18.821	1351.711	1031.146
65.490	18.976	1350.206	1030.834
66.505	18.919	1348.537	1029.127
67.520	18.964	1347.394	1028.431
68.534	18.953	1346.492	1027.585
69.549	18.942	1345.740	1026.860
70.563	18.959	1344.017	1025.556
71.578	18.849	1342.644	1023.762
72.593	18.820	1341.851	1022.893
73.607	18.792	1341.132	1022.089
74.622	18.805	1340.387	1021.507
75.636	18.760	1340.298	1021.080
76.651	18.806	1339.601	1020.730
77.666	18.827	1339.091	1020.376
78.680	18.952	1338.872	1020.861
79.695	19.046	1338.239	1020.848
80.709	19.190	1337.425	1020.987
81.724	19.323	1336.609	1021.065
82.739	19.416	1335.429	1020.622
83.753	19.583	1335.318	1021.438
84.768	19.692	1334.470	1021.340
85.782	19.838	1333.395	1021.292
86.797	19.778	1332.178	1019.915
87.812	19.660	1331.190	1018.374
88.826	19.592	1329.697	1016.736
89.841	19.793	1328.965	1017.274
90.855	19.928	1327.531	1016.880
91.870	19.776	1327.034	1015.514
92.884	19.858	1326.217	1015.281
93.899	20.042	1325.264	1015.542
94.914	19.970	1324.951	1014.791
95.928	19.994	1324.068	1014.161
96.943	19.810	1323.031	1012.200
97.957	19.806	1321.913	1011.236
98.972	19.777	1320.870	1010.178
99.987	19.887	1319.984	1010.052
101.001	19.777	1319.097	1008.642
102.016	19.797	1318.527	1008.233
103.030	19.853	1317.365	1007.584
104.045	19.847	1316.256	1006.609
105.060	19.680	1314.728	1004.382
106.074	19.321	1313.291	1001.109
107.089	19.033	1311.842	998.247
108.103	18.992	1310.457	996.868
109.118	18.963	1309.219	995.672
110.133	18.938	1307.991	994.503
111.147	19.098	1306.354	994.096
112.162	19.107	1305.275	993.235
113.176	19.157	1304.616	992.936
114.191	19.170	1303.383	991.986
115.206	19.236	1302.469	991.582
116.220	19.245	1301.096	990.502
117.235	19.309	1299.859	989.835
118.249	19.188	1298.668	988.148
119.264	19.042	1297.836	986.592
120.279	19.099	1296.681	985.955
121.293	18.972	1295.499	984.238
122.308	18.880	1294.265	982.688
123.322	18.877	1293.293	981.848
124.337	18.720	1292.517	980.275
125.352	18.741	1291.277	979.367
126.366	18.780	1290.246	978.718
127.381	18.836	1288.867	977.908
128.395	18.783	1288.139	976.970
129.410	18.751	1287.323	976.077
130.424	18.985	1286.600	976.777
131.439	19.021	1285.961	976.407
132.454	19.082	1284.629	975.654
133.468	19.190	1284.405	976.013
134.483	19.133	1283.868	975.192
135.497	19.193	1282.583	974.468
136.512	19.226	1281.529	973.771
137.527	19.246	1279.913	972.568
138.541	19.268	1278.893	971.831
139.556	19.372	1277.849	971.537
140.570	19.348	1277.374	970.954
141.585	19.602	1275.786	971.092
142.600	19.693	1274.514	970.550
143.614	19.801	1273.922	970.619
144.629	19.874	1272.924	970.179
145.643	19.811	1271.608	968.738
146.658	19.598	1270.492	966.611
147.673	19.417	1268.869	964.278
148.687	19.290	1267.587	962.511
149.702	19.233	1266.231	961.076
150.716	19.194	1264.803	959.690
151.731	19.248	1263.551	958.959
152.746	19.302	1262.217	958.160
153.760	19.447	1260.916	957.895
154.775	19.308	1260.804	956.953
155.789	19.399	1260.167	956.886
156.804	19.513	1259.177	956.683
157.819	19.619	1258.069	956.342
158.833	19.619	1257.648	955.938
159.848	19.979	1255.983	956.576
160.862	19.804	1255.319	955.022
161.877	19.454	1253.895	951.922
162.892	19.236	1252.323	949.442
163.906	19.186	1251.575	948.516
164.921	19.260	1250.622	948.117
165.935	19.354	1249.837	947.957
166.950	19.450	1249.334	948.019
167.964	19.464	1248.435	947.330
168.979	19.348	1247.829	946.150
169.994	19.341	1246.942	945.354
171.008	19.337	1246.837	945.171
172.023	19.616	1245.253	945.414
173.037	19.763	1244.940	945.896
174.052	19.707	1244.125	944.890
175.067	19.311	1242.797	941.635
176.081	19.268	1241.696	940.480
177.096	19.241	1240.480	939.328
178.110	19.265	1239.667	938.761
179.125	19.311	1238.933	938.369
180.140	19.481	1237.651	938.243
181.154	19.622	1236.554	938.093
182.169	19.654	1235.352	937.273
183.183	19.827	1234.421	937.420
184.198	19.835	1233.368	936.581
185.213	19.898	1232.360	936.076
186.227	19.804	1231.497	934.828
187.242	19.881	1230.845	934.664
188.256	19.962	1229.733	934.174
189.271	19.992	1228.910	933.628
190.286	19.678	1227.494	930.779
191.300	19.281	1226.630	927.906
192.315	19.169	1225.334	926.242
193.329	19.326	1224.898	926.676
194.344	19.357	1224.383	926.370
195.359	19.472	1223.524	926.256
196.373	19.447	1223.285	925.855
197.388	19.754	1223.061	927.253
198.402	19.951	1222.840	928.057
199.417	20.063	1222.522	928.332
200.432	20.225	1221.450	928.303
201.446	20.279	1220.907	928.098
202.461	20.389	1220.124	928.012
203.475	20.299	1218.906	926.520
204.490	20.075	1217.622	924.270
205.504	19.889	1216.275	922.175
206.519	19.835	1214.604	920.539
207.534	19.812	1213.494	919.494
208.548	19.795	1212.517	918.579
209.563	19.708	1212.132	917.748
210.577	19.974	1211.079	918.277
211.592	19.946	1210.439	917.561
212.607	20.217	1209.691	918.352
213.621	20.069	1208.919	916.899
214.636	20.043	1208.007	915.988
215.650	20.098	1207.093	915.507
216.665	20.214	1206.285	915.422
217.680	20.346	1205.657	915.561
218.694	20.345	1204.991	914.969
219.709	20.234	1204.174	913.686
220.723	20.122	1203.360	912.397
221.738	20.271	1202.243	912.253
222.753	20.248	1201.398	911.412
223.767	20.251	1200.857	910.935
224.782	20.353	1200.588	911.185
225.796	20.514	1199.737	911.305
226.811	20.378	1199.081	910.010
227.826	20.345	1197.720	908.726
228.840	20.274	1197.097	907.802
229.855	20.127	1197.000	906.876
230.869	20.245	1195.448	906.236
231.884	20.008	1194.765	904.404
232.899	19.946	1194.110	903.504
233.913	19.880	1193.338	902.493
234.928	19.835	1192.270	901.372
235.942	19.778	1191.498	900.412
236.957	19.831	1190.714	900.017
237.972	19.723	1190.215	898.996
238.986	19.834	1189.391	898.876
240.001	19.925	1188.660	898.714
241.015	20.030	1187.517	898.317
242.030	20.137	1186.873	898.301
243.045	20.197	1186.427	898.197
244.059	20.188	1185.508	897.377
245.074	20.263	1184.746	897.106
246.088	20.237	1184.689	896.850
247.103	20.449	1183.655	897.083
248.117	20.532	1183.158	897.056
249.132	20.740	1182.600	897.625
250.147	20.893	1182.443	898.216
251.161	21.007	1181.477	897.987
252.176	21.096	1180.945	897.964
253.190	21.223	1180.228	897.991
254.205	21.321	1179.417	897.798
255.220	21.256	1179.417	897.384
256.234	21.199	1178.287	896.154
257.249	21.188	1177.733	895.599
258.263	21.225	1176.375	894.676
259.278	21.108	1176.043	893.740
260.293	21.151	1175.848	893.737
261.307	21.312	1174.867	893.732
262.322	21.289	1174.661	893.379
263.336	21.267	1173.997	892.687
264.351	21.350	1173.504	892.657
265.366	21.369	1172.577	891.969
266.380	21.388	1171.702	891.322
267.395	21.187	1171.098	889.759
268.409	21.113	1169.832	888.339
269.424	21.124	1169.205	887.840
270.439	20.952	1168.759	886.548
271.453	21.029	1167.852	886.174
272.468	20.783	1167.061	884.246
273.482	20.886	1165.673	883.638
274.497	20.883	1165.498	883.414
275.512	20.943	1164.728	883.054
276.526	20.883	1164.044	882.156
277.541	20.847	1163.329	881.352
278.555	21.020	1162.536	881.548
279.570	21.189	1162.053	881.958
280.585	21.333	1161.477	882.171
281.599	21.332	1160.706	881.499
282.614	21.172	1159.309	879.554
283.628	21.043	1158.056	877.879
284.643	21.029	1157.600	877.386
285.657	21.142	1156.390	876.960
286.672	21.056	1155.321	875.637
287.687	21.062	1154.661	875.088
288.701	21.059	1154.073	874.551
289.716	20.974	1153.131	873.333
290.730	21.067	1152.828	873.496
291.745	21.115	1151.981	873.014
292.760	21.148	1151.353	872.626
293.774	21.120	1151.327	872.387
294.789	21.414	1150.337	873.030
295.803	21.475	1149.446	872.579
296.818	21.299	1148.501	870.908
297.833	21.121	1147.706	869.344
298.847	21.122	1147.096	868.810
299.862	21.117	1146.110	867.959
300.876	21.195	1145.673	867.940
301.891	21.351	1144.895	868.048
302.906	21.331	1144.519	867.590
303.920	21.485	1144.536	868.289
304.935	21.513	1143.662	867.689
305.949	21.719	1142.885	868.041
306.964	21.639	1142.155	867.014
307.979	21.548	1141.417	865.930
308.993	21.532	1140.481	865.061
310.008	21.704	1139.518	865.106
311.022	21.801	1138.743	864.916
312.037	21.702	1137.552	863.450
313.052	21.480	1136.951	861.822
314.066	21.361	1135.499	860.060
315.081	21.066	1134.657	857.894
316.095	21.093	1133.886	857.367
317.110	21.093	1133.699	857.153
318.125	21.188	1132.388	856.553
319.139	21.082	1131.634	855.388
320.154	21.225	1131.426	855.854
321.168	21.222	1130.760	855.259
322.183	21.214	1130.090	854.636
323.197	21.234	1129.515	854.225
324.212	21.337	1129.046	854.300
325.227	21.336	1128.797	854.030
326.241	21.443	1127.721	853.662
327.256	21.395	1126.827	852.675
328.270	21.263	1125.971	851.309
329.285	21.251	1125.304	850.672
330.300	21.206	1124.179	849.529
331.314	21.281	1122.885	848.840
332.329	21.307	1122.026	848.242
333.343	21.394	1121.463	848.163
334.358	21.433	1120.916	847.863
335.373	21.615	1120.298	848.203
336.387	21.627	1119.837	847.835
337.402	21.635	1119.235	847.345
338.416	21.749	1118.415	847.196
339.431	21.843	1117.751	847.072
340.446	21.981	1117.015	847.107
341.460	22.141	1116.631	847.512
342.475	22.131	1115.934	846.860
343.489	22.149	1115.175	846.298
344.504	22.309	1114.164	846.225
345.519	22.246	1113.189	845.107
346.533	22.329	1112.537	844.935
347.548	22.320	1112.054	844.448
348.562	22.317	1111.015	843.572
349.577	21.994	1109.592	840.868
350.592	21.959	1108.329	839.672
351.606	21.752	1107.710	838.137
352.621	21.502	1107.477	836.692
353.635	21.761	1106.187	836.882
354.650	21.585	1106.059	835.869
355.665	21.750	1105.101	835.857
356.679	21.768	1104.727	835.587
357.694	21.809	1104.219	835.325
358.708	21.977	1103.525	835.527
359.723	22.067	1103.023	835.497
360.738	22.096	1102.203	834.941
361.752	22.078	1101.783	834.467
362.767	21.965	1101.185	833.401
363.781	22.076	1100.487	833.324
364.796	22.283	1100.051	833.903
365.810	22.402	1099.785	834.194
366.825	22.474	1099.249	834.052
367.840	22.761	1098.473	834.749
368.854	22.622	1098.232	833.833
369.869	22.519	1097.640	832.823
370.883	22.486	1096.319	831.593
371.898	22.414	1095.260	830.377
372.913	22.256	1094.984	829.348
373.927	22.416	1094.564	829.709
374.942	22.559	1094.013	829.893
375.956	22.567	1093.008	829.095
376.971	22.447	1092.693	828.219
377.986	22.547	1091.962	828.058
379.000	22.729	1091.715	828.653
380.015	22.753	1091.220	828.316
381.029	22.923	1090.555	828.537
382.044	22.747	1090.071	827.272
383.059	22.718	1089.435	826.580
384.073	22.592	1088.731	825.382
385.088	22.715	1087.679	825.087
386.102	22.764	1086.775	824.555
387.117	22.581	1085.131	822.384
388.132	22.310	1083.963	820.161
389.146	22.346	1083.669	820.034
390.161	22.168	1082.847	818.511
391.175	22.325	1081.887	818.445
392.190	22.375	1081.627	818.408
393.205	22.568	1080.926	818.703
394.219	22.621	1080.050	818.209
395.234	22.448	1078.940	816.498
396.248	22.391	1078.110	815.530
397.263	22.416	1076.628	814.454
398.278	22.183	1076.407	813.136
399.292	22.216	1075.743	812.716
400.307	22.189	1074.193	811.347
401.321	22.195	1073.937	811.109
402.336	22.176	1073.177	810.378
403.350	22.223	1072.645	810.121
404.365	22.217	1072.123	809.626
405.380	22.318	1071.184	809.311
406.394	22.553	1070.748	809.992
407.409	22.641	1070.064	809.804
408.423	22.767	1069.091	809.574
409.438	22.855	1068.971	809.815
410.453	22.984	1068.395	809.900
411.467	22.982	1067.582	809.203
412.482	23.122	1066.860	809.224
413.496	23.140	1066.590	809.030
414.511	23.118	1066.186	808.552
415.526	23.329	1065.989	809.293
416.540	23.391	1065.324	809.000
417.555	23.207	1064.557	807.510
418.569	23.092	1063.978	806.473
419.584	23.038	1063.299	805.642
420.599	23.189	1062.782	805.866
421.613	158.050	1403.562	1796.624
422.628	145.456	1453.215	1796.717
