DTS Sentinel unit serial number:	SN413079Multiplexer serial number:	ORYXHardware model number:	OX4-SRSoftware version number:	ORYX F/W v4.00 Oryx Data Collector v3.7.2.0data status	okinstallation	princeton_trtdifferential loss correction	single-endedforward channel	channel 2reverse channel	N/Adate	2019/09/14time	20:03:35forward acquisition time	60.00reverse acquisition time	0.00gamma	496.2192k internal	0.2321k external	0.2321temperature offset calibration	1.0092default loss term (dB/km)	0.3790temperature slope calibration	1.0000multiplexer offset coefficient	1.0000multiplexer slope coefficient	1.0000fibre end	0.00T internal ref (°C)	34.00T ext. ref 1 (°C)	4.87T ext. ref 2 (°C)	28.35length (m)	temperature (°C)	Stokes	anti-Stokes-747.200	-178.388	-0.159	-0.004
-746.185	-200.000	0.060	0.329
-745.171	534.755	-0.052	0.125
-744.156	-200.000	0.047	0.273
-743.142	-34.225	0.190	0.105
-742.127	-29.601	0.245	0.142
-741.112	-36.812	-0.301	-0.164
-740.098	147.171	-0.077	0.104
-739.083	0.650	0.327	-0.236
-738.069	-158.343	-0.521	-0.031
-737.054	-51.551	0.103	0.048
-736.039	-174.625	-0.203	-0.006
-735.025	-119.656	-0.124	0.022
-734.010	470.295	-0.077	-0.176
-732.996	386.214	-0.109	-0.228
-731.981	-200.000	0.009	0.055
-730.966	-58.723	-0.247	0.108
-729.952	393.180	-0.120	0.253
-728.937	-29.778	-0.287	0.165
-727.923	170.277	0.091	-0.131
-726.908	130.944	0.119	-0.154
-725.894	-167.176	-0.310	0.013
-724.879	136.356	-0.309	-0.407
-723.864	-73.647	-0.218	0.080
-722.850	-158.528	-0.321	-0.019
-721.835	-21.795	0.234	-0.144
-720.821	46.969	0.173	0.162
-719.806	-200.000	0.016	0.312
-718.791	373.296	-0.082	0.169
-717.777	226.510	0.096	0.157
-716.762	-200.000	0.006	-0.537
-715.748	196.978	0.126	-0.194
-714.733	-200.000	-0.010	-0.422
-713.718	147.505	-0.236	-0.321
-712.704	800.000	0.048	-0.206
-711.689	-76.767	-0.166	0.059
-710.675	-91.729	0.179	0.051
-709.660	-152.933	-0.184	-0.013
-708.645	-4.850	-0.198	-0.138
-707.631	-166.871	0.302	-0.013
-706.616	51.039	0.112	-0.107
-705.602	229.346	0.138	0.227
-704.587	-200.000	0.007	0.396
-703.572	-153.350	0.077	-0.005
-702.558	-132.892	-0.086	-0.011
-701.543	116.712	-0.182	-0.225
-700.529	-3.985	-0.407	-0.285
-699.514	-200.000	0.054	-0.550
-698.499	25.434	0.241	0.202
-697.485	800.000	0.065	-0.203
-696.470	-162.520	-0.392	0.020
-695.456	166.889	-0.116	0.166
-694.441	-85.578	0.103	-0.032
-693.426	-200.000	0.004	0.113
-692.412	153.573	0.086	0.118
-691.397	-95.343	-0.367	-0.100
-690.383	-46.366	0.190	-0.094
-689.368	-64.745	0.049	-0.020
-688.354	81.427	0.097	0.106
-687.339	5.857	-0.166	-0.124
-686.324	16.589	-0.245	-0.195
-685.310	-122.923	-0.233	0.038
-684.295	-97.999	-0.191	-0.050
-683.281	-99.341	-0.246	-0.063
-682.266	-52.326	-0.128	-0.060
-681.251	-118.606	-0.126	0.023
-680.237	33.789	-0.180	0.158
-679.222	-80.899	-0.211	0.071
-678.208	287.017	-0.046	-0.084
-677.193	76.104	0.049	0.052
-676.178	293.458	0.162	-0.297
-675.164	9.956	-0.052	0.040
-674.149	-200.000	-0.021	0.109
-673.135	-200.000	0.026	0.127
-672.120	800.000	0.062	-0.269
-671.105	71.255	0.179	0.187
-670.091	2.335	0.272	0.199
-669.076	65.280	-0.217	0.222
-668.062	-57.197	-0.281	-0.125
-667.047	49.662	0.183	-0.174
-666.032	800.000	-0.102	-0.338
-665.018	-104.052	-0.106	0.025
-664.003	30.561	0.051	-0.044
-662.989	800.000	-0.113	0.330
-661.974	-18.745	-0.102	0.064
-660.959	23.359	-0.121	-0.100
-659.945	-200.000	0.017	0.094
-658.930	-200.000	-0.038	0.189
-657.916	-200.000	-0.004	-0.199
-656.901	-25.029	0.267	-0.160
-655.886	141.152	-0.178	0.237
-654.872	36.807	0.126	-0.113
-653.857	55.322	-0.048	-0.046
-652.843	1.148	-0.450	0.326
-651.828	-62.186	0.052	-0.022
-650.814	-161.678	-0.169	0.009
-649.799	-118.391	0.033	-0.006
-648.784	423.679	-0.178	-0.384
-647.770	-75.010	-0.170	0.061
-646.755	83.353	0.132	0.144
-645.741	9.564	-0.100	-0.076
-644.726	249.349	0.150	-0.257
-643.711	151.735	-0.138	-0.190
-642.697	-109.973	-0.156	-0.033
-641.682	-114.882	-0.303	-0.058
-640.668	553.573	0.038	0.093
-639.653	283.025	-0.021	-0.037
-638.638	52.377	0.194	-0.186
-637.624	-143.014	-0.480	0.047
-636.609	233.897	0.057	0.094
-635.595	-200.000	-0.079	-0.392
-634.580	-196.522	-0.116	-0.001
-633.565	-128.606	0.111	0.016
-632.551	800.000	0.134	-0.525
-631.536	800.000	0.069	-0.213
-630.522	-78.155	-0.231	0.080
-629.507	-200.000	0.000	-0.156
-628.492	-145.004	0.216	-0.020
-627.478	-152.163	-0.193	0.014
-626.463	367.150	0.019	-0.038
-625.449	86.155	0.120	0.133
-624.434	800.000	-0.060	0.190
-623.419	-122.276	0.132	0.022
-622.405	-200.000	0.023	0.124
-621.390	-200.000	-0.038	-0.399
-620.376	800.000	-0.061	-0.250
-619.361	335.516	-0.143	-0.280
-618.346	-118.454	0.233	0.042
-617.332	171.433	0.281	-0.406
-616.317	308.828	-0.114	-0.215
-615.303	128.780	-0.067	0.086
-614.288	-200.000	0.018	-0.083
-613.273	11.283	0.121	0.093
-612.259	-33.134	0.126	0.070
-611.244	66.764	-0.276	-0.282
-610.230	800.000	0.061	-0.173
-609.215	8.714	-0.119	0.090
-608.201	-164.185	0.052	-0.002
-607.186	800.000	0.036	0.122
-606.171	-200.000	0.018	0.083
-605.157	800.000	0.057	-0.218
-604.142	251.557	0.060	0.103
-603.128	800.000	0.138	-0.453
-602.113	133.454	-0.201	0.261
-601.098	138.181	-0.125	-0.165
-600.084	-200.000	0.014	0.222
-599.069	-65.363	0.028	-0.011
-598.055	-200.000	0.006	0.260
-597.040	-1.914	-0.096	-0.068
-596.025	-110.045	-0.193	-0.041
-595.011	6.691	0.191	0.143
-593.996	235.921	0.116	0.193
-592.982	79.164	0.085	0.092
-591.967	37.313	0.156	-0.139
-590.952	114.642	-0.113	-0.139
-589.938	800.000	-0.063	-0.182
-588.923	32.890	0.170	0.148
-587.909	153.129	-0.106	0.146
-586.894	-41.309	0.171	-0.088
-585.879	-14.059	0.200	-0.130
-584.865	800.000	-0.088	-0.328
-583.850	80.537	-0.240	0.260
-582.836	172.867	-0.239	-0.346
-581.821	-200.000	0.187	0.001
-580.806	-200.000	-0.012	-0.149
-579.792	-155.224	-0.276	0.018
-578.777	356.422	0.086	0.172
-577.763	47.967	0.306	0.288
-576.748	-71.408	0.307	-0.115
-575.733	-200.000	-0.002	0.188
-574.719	-83.160	-0.176	-0.057
-573.704	460.092	0.126	-0.281
-572.690	5.202	-0.064	0.048
-571.675	-55.812	-0.140	-0.063
-570.661	-79.768	0.174	0.059
-569.646	-21.122	-0.471	-0.289
-568.631	125.979	0.051	-0.065
-567.617	-118.235	-0.257	-0.046
-566.602	-112.796	-0.209	-0.042
-565.588	800.000	0.160	-0.656
-564.573	-158.081	0.221	0.013
-563.558	-35.679	0.218	0.118
-562.544	-200.000	0.006	-0.052
-561.529	-29.107	-0.182	-0.105
-560.515	-200.000	-0.052	0.266
-559.500	-7.518	-0.228	0.155
-558.485	800.000	0.041	-0.128
-557.471	-129.986	0.180	-0.025
-556.456	-200.000	0.003	0.175
-555.442	132.395	-0.089	0.115
-554.427	-200.000	0.004	-0.064
-553.412	799.492	-0.050	0.139
-552.398	187.888	0.063	-0.095
-551.383	369.999	-0.099	-0.201
-550.369	-200.000	-0.039	0.210
-549.354	-168.548	-0.100	0.004
-548.339	-35.426	0.181	0.099
-547.325	-98.203	0.211	0.054
-546.310	455.087	-0.134	-0.298
-545.296	-200.000	0.066	0.384
-544.281	6.468	0.252	0.188
-543.266	-130.836	0.227	-0.030
-542.252	-102.415	0.155	0.037
-541.237	-200.000	0.001	-0.143
-540.223	549.397	0.099	0.238
-539.208	-114.203	-0.252	-0.049
-538.193	82.349	0.087	-0.095
-537.179	-74.431	-0.433	-0.157
-536.164	78.144	0.081	0.087
-535.150	-200.000	0.022	-0.259
-534.135	110.501	-0.082	-0.099
-533.121	-144.230	0.157	0.015
-532.106	720.781	-0.113	0.302
-531.091	-158.848	0.074	0.004
-530.077	55.000	0.191	0.185
-529.062	456.722	-0.126	0.280
-528.048	184.225	-0.046	0.069
-527.033	-64.786	-0.281	0.114
-526.018	149.576	0.148	-0.201
-525.004	-177.151	0.115	-0.003
-523.989	-200.000	-0.011	0.386
-522.975	202.210	0.115	-0.178
-521.960	116.383	0.115	0.141
-520.945	115.052	-0.026	0.032
-519.931	-19.179	-0.168	0.105
-518.916	19.156	-0.197	0.159
-517.902	-71.401	0.158	0.059
-516.887	-181.237	-0.242	-0.005
-515.872	800.000	-0.091	-0.266
-514.858	320.210	-0.098	-0.186
-513.843	-176.245	-0.270	0.007
-512.829	-200.000	-0.024	-0.292
-511.814	800.000	-0.080	-0.298
-510.799	27.748	0.132	-0.112
-509.785	-200.000	0.003	0.013
-508.770	196.437	0.065	0.099
-507.756	-200.000	0.242	0.000
-506.741	55.955	0.126	0.122
-505.726	75.704	0.077	0.081
-504.712	-200.000	0.022	0.405
-503.697	-155.515	-0.292	-0.019
-502.683	-19.979	0.287	-0.177
-501.668	800.000	0.043	0.137
-500.653	-24.512	0.207	0.123
-499.639	-109.183	-0.361	0.077
-498.624	188.819	0.088	0.132
-497.610	204.312	-0.052	-0.080
-496.595	47.411	0.153	0.143
-495.581	471.696	-0.034	0.078
-494.566	-200.000	0.014	0.212
-493.551	800.000	0.033	0.116
-492.537	-200.000	0.002	-0.136
-491.522	-116.303	0.272	0.050
-490.508	-200.000	0.001	0.082
-489.493	-34.658	-0.267	0.146
-488.478	800.000	0.027	-0.105
-487.464	152.844	-0.043	-0.058
-486.449	-45.583	-0.081	0.040
-485.435	19.249	-0.246	-0.197
-484.420	-1.041	0.260	-0.184
-483.405	76.919	-0.259	0.276
-482.391	-200.000	0.017	-0.269
-481.376	113.496	0.051	0.061
-480.362	-200.000	-0.107	-0.598
-479.347	96.447	0.022	-0.025
-478.332	61.853	-0.137	-0.137
-477.318	222.054	-0.072	-0.116
-476.303	62.636	0.093	0.093
-475.289	-200.000	0.020	0.405
-474.274	-65.064	-0.054	-0.022
-473.259	504.598	-0.086	0.200
-472.245	-200.000	0.001	-0.057
-471.230	-200.000	-0.009	0.263
-470.216	112.021	-0.012	-0.015
-469.201	-184.083	0.073	-0.001
-468.186	384.540	0.079	0.163
-467.172	368.084	-0.196	0.396
-466.157	515.996	0.116	-0.270
-465.143	25.352	0.106	-0.088
-464.128	310.980	0.180	-0.337
-463.113	-200.000	0.043	0.297
-462.099	110.602	0.202	0.243
-461.084	-200.000	-0.018	0.258
-460.070	-200.000	0.027	-0.221
-459.055	-136.154	0.242	-0.028
-458.040	-200.000	0.050	-0.485
-457.026	-200.000	-0.009	-0.075
-456.011	39.155	0.171	0.153
-454.997	272.831	-0.086	-0.152
-453.982	800.000	-0.097	-0.280
-452.968	59.594	-0.090	0.089
-451.953	-16.072	-0.204	0.130
-450.938	-126.190	-0.277	-0.041
-449.924	-27.248	0.102	0.059
-448.909	-53.314	0.158	-0.072
-447.895	406.226	-0.121	0.255
-446.880	-87.766	-0.213	-0.064
-445.865	62.324	0.117	0.116
-444.851	285.915	-0.090	0.162
-443.836	-128.476	-0.084	-0.012
-442.822	-200.000	0.002	-0.167
-441.807	-24.867	-0.064	0.038
-440.792	-200.000	0.017	0.323
-439.778	-55.435	0.062	0.028
-438.763	-150.767	0.088	0.007
-437.749	11.519	0.119	0.091
-436.734	183.807	0.087	-0.128
-435.719	-40.707	-0.106	-0.055
-434.705	-129.717	0.086	0.012
-433.690	-85.856	0.010	-0.003
-432.676	-200.000	0.262	0.001
-431.661	-190.080	-0.337	-0.004
-430.646	-200.000	-0.025	-0.167
-429.632	66.324	-0.076	0.077
-428.617	90.424	-0.219	-0.245
-427.603	-155.371	0.248	-0.016
-426.588	-129.700	0.198	-0.027
-425.573	-96.979	0.340	-0.089
-424.559	398.596	0.107	0.223
-423.544	145.980	0.207	-0.277
-422.530	14.721	-0.301	-0.235
-421.515	98.757	0.161	-0.185
-420.500	-200.000	0.002	-0.100
-419.486	-118.319	0.109	0.019
-418.471	-48.410	0.182	-0.087
-417.457	-200.000	0.105	-0.603
-416.442	-115.691	0.094	0.018
-415.428	56.957	0.119	0.116
-414.413	-200.000	-0.026	0.199
-413.398	-44.847	-0.112	-0.056
-412.384	-140.749	-0.093	-0.010
-411.369	374.096	-0.138	0.280
-410.355	10.466	-0.242	-0.184
-409.340	-174.521	-0.137	-0.004
-408.325	-200.000	-0.057	-0.286
-407.311	-72.655	-0.241	-0.089
-406.296	374.521	0.061	-0.124
-405.282	-66.200	0.357	-0.142
-404.267	-45.259	0.114	-0.056
-403.252	463.672	0.068	-0.152
-402.238	-200.000	-0.068	0.326
-401.223	474.464	-0.104	0.233
-400.209	800.000	0.057	0.213
-399.194	31.697	0.060	0.051
-398.179	-133.400	-0.195	0.024
-397.165	-5.523	-0.135	-0.093
-396.150	-200.000	-0.003	-0.073
-395.136	800.000	-0.075	0.304
-394.121	133.599	-0.330	0.425
-393.106	-82.528	-0.344	-0.111
-392.092	-200.000	-0.010	0.065
-391.077	260.351	-0.052	0.089
-390.063	-107.416	-0.280	0.061
-389.048	-95.535	0.058	0.016
-388.033	111.371	0.207	0.249
-387.019	154.349	-0.141	0.193
-386.004	63.940	0.176	-0.177
-384.990	74.023	0.291	0.304
-383.975	-149.064	0.158	-0.013
-382.960	101.385	-0.098	0.114
-381.946	181.567	0.147	0.215
-380.931	-75.580	0.055	0.020
-379.917	-33.790	0.183	0.101
-378.902	-42.035	-0.314	0.160
-377.888	226.724	-0.114	-0.184
-376.873	143.703	0.086	0.114
-375.858	-200.000	-0.036	0.404
-374.844	-40.244	0.323	-0.168
-373.829	78.737	0.047	-0.050
-372.815	-140.240	-0.120	0.013
-371.800	10.529	-0.031	-0.023
-370.785	-200.000	0.012	-0.177
-369.771	-110.917	-0.251	-0.051
-368.756	-200.000	0.001	-0.105
-367.742	17.047	0.221	-0.174
-366.727	-93.273	0.120	0.033
-365.712	149.019	-0.133	0.179
-364.698	132.535	0.066	0.085
-363.683	195.948	0.251	-0.380
-362.669	-114.212	0.201	-0.039
-361.654	-13.839	0.015	0.010
-360.639	-135.191	0.276	-0.033
-359.625	-102.699	0.205	-0.049
-358.610	180.115	-0.076	0.110
-357.596	800.000	-0.108	-0.381
-356.581	29.734	0.239	-0.203
-355.566	-63.915	-0.144	0.059
-354.552	-35.240	0.230	0.124
-353.537	-137.969	0.407	-0.045
-352.523	51.205	-0.125	0.118
-351.508	61.193	-0.043	-0.042
-350.493	-200.000	-0.003	0.154
-349.479	-144.965	0.129	0.012
-348.464	-70.083	0.199	0.075
-347.450	78.446	-0.272	0.290
-346.435	33.207	0.195	0.169
-345.420	75.783	0.219	-0.231
-344.406	75.802	-0.180	-0.189
-343.391	114.381	0.098	0.119
-342.377	-200.000	0.018	-0.312
-341.362	-132.952	-0.054	0.007
-340.348	-138.391	0.297	-0.033
-339.333	-117.972	-0.352	-0.063
-338.318	-200.000	0.100	-0.473
-337.304	154.790	-0.079	0.108
-336.289	800.000	0.062	0.237
-335.275	-52.013	0.006	0.003
-334.260	-200.000	0.017	-0.258
-333.245	-74.190	0.343	0.124
-332.231	-200.000	-0.003	0.388
-331.216	161.854	0.075	-0.105
-330.202	-49.655	-0.272	0.129
-329.187	-122.064	-0.095	-0.015
-328.172	-57.629	0.055	0.024
-327.158	-145.194	-0.242	0.022
-326.143	240.172	-0.118	-0.195
-325.129	-41.951	0.031	0.016
-324.114	800.000	-0.014	0.052
-323.099	-81.429	0.234	-0.077
-322.085	-63.617	0.019	-0.008
-321.070	-133.454	-0.229	0.029
-320.056	-72.211	-0.128	0.047
-319.041	-19.394	0.327	0.202
-318.026	-200.000	-0.082	0.385
-317.012	-122.126	0.182	0.030
-315.997	-200.000	-0.033	-0.173
-314.983	-152.312	-0.290	-0.021
-313.968	-15.766	-0.254	-0.161
-312.953	33.470	0.089	-0.077
-311.939	0.749	-0.117	0.083
-310.924	-31.036	0.179	-0.100
-309.910	2.430	-0.080	-0.057
-308.895	-200.000	-0.041	0.244
-307.880	-49.669	0.196	-0.093
-306.866	-139.773	-0.244	-0.026
-305.851	-114.317	0.140	0.027
-304.837	254.812	-0.056	0.096
-303.822	-200.000	0.002	-0.026
-302.807	606.917	0.090	-0.223
-301.793	122.813	-0.190	0.237
-300.778	-78.262	-0.256	0.087
-299.764	-77.593	0.283	-0.098
-298.749	258.459	-0.102	-0.174
-297.735	125.671	-0.097	-0.121
-296.720	29.679	-0.380	-0.321
-295.705	243.441	-0.133	0.221
-294.691	-26.807	-0.171	0.099
-293.676	-112.170	0.197	-0.039
-292.662	-137.741	0.143	0.016
-291.647	16.852	-0.149	0.117
-290.632	735.228	0.062	-0.164
-289.618	-81.173	0.149	0.049
-288.603	136.248	0.192	0.248
-287.589	-71.779	0.191	-0.071
-286.574	-133.693	-0.400	0.050
-285.559	-200.000	0.048	-0.238
-284.545	-28.602	-0.265	-0.152
-283.530	-200.000	0.002	0.295
-282.516	14.591	0.095	0.074
-281.501	-37.419	0.343	0.182
-280.486	800.000	-0.041	0.127
-279.472	-200.000	0.008	0.063
-278.457	800.000	-0.063	-0.183
-277.443	-134.480	-0.327	0.040
-276.428	-136.405	0.262	0.030
-275.413	-200.000	0.066	0.352
-274.399	777.434	-0.121	0.329
-273.384	-137.009	-0.045	0.005
-272.370	145.872	-0.127	-0.170
-271.355	15.311	0.029	-0.023
-270.340	246.061	-0.165	0.276
-269.326	800.000	-0.048	0.166
-268.311	461.691	0.098	0.217
-267.297	800.000	0.006	-0.020
-266.282	-100.367	0.379	0.093
-265.267	-161.191	-0.078	-0.004
-264.253	101.930	0.060	0.070
-263.238	-106.998	-0.207	-0.045
-262.224	800.000	-0.080	0.233
-261.209	61.103	0.089	0.087
-260.195	-99.501	-0.190	0.047
-259.180	-99.644	0.429	-0.107
-258.165	800.000	0.127	0.356
-257.151	97.634	-0.092	-0.105
-256.136	800.000	-0.066	-0.226
-255.122	-137.918	0.273	0.030
-254.107	-45.299	0.473	-0.233
-253.092	272.795	-0.191	0.335
-252.078	232.600	0.088	-0.143
-251.063	-178.738	-0.212	-0.005
-250.049	-200.000	-0.004	-0.172
-249.034	-200.000	0.003	0.304
-248.019	15.561	0.111	0.086
-247.005	38.067	0.281	-0.248
-245.990	46.547	-0.350	0.322
-244.976	-128.988	-0.166	-0.023
-243.961	-88.851	0.370	0.109
-242.946	73.926	-0.240	0.250
-241.932	207.579	0.253	-0.391
-240.917	-175.829	-0.396	0.010
-239.903	-96.755	0.276	-0.072
-238.888	552.272	-0.061	-0.145
-237.873	489.920	0.162	0.367
-236.859	-156.927	-0.335	-0.020
-235.844	-20.685	-0.249	-0.152
-234.830	-200.000	-0.049	0.493
-233.815	-95.385	0.071	-0.019
-232.800	-131.407	-0.204	-0.027
-231.786	31.480	0.247	-0.211
-230.771	-0.822	-0.057	0.040
-229.757	800.000	-0.057	0.174
-228.742	-29.724	0.121	0.069
-227.727	124.761	-0.160	-0.200
-226.713	-53.190	0.217	0.099
-225.698	528.111	0.157	-0.368
-224.684	190.870	-0.172	0.256
-223.669	-200.000	0.008	0.104
-222.655	800.000	0.023	-0.097
-221.640	652.042	-0.053	-0.134
-220.625	197.296	0.069	-0.105
-219.611	310.942	0.132	0.245
-218.596	-15.534	0.172	0.108
-217.582	198.080	-0.108	-0.163
-216.567	468.006	-0.019	0.042
-215.552	716.350	0.092	0.242
-214.538	800.000	-0.028	-0.092
-213.523	507.167	0.146	-0.336
-212.509	-4.808	0.153	0.105
-211.494	-77.959	0.087	-0.030
-210.479	-151.693	-0.388	0.028
-209.465	-200.000	0.014	-0.098
-208.450	-90.376	-0.144	0.041
-207.436	351.013	-0.051	0.100
-206.421	-156.291	0.225	-0.014
-205.406	-39.940	0.206	0.106
-204.392	150.252	-0.154	-0.207
-203.377	-1.594	0.046	-0.032
-202.363	-96.913	-0.296	-0.077
-201.348	-31.597	0.220	-0.122
-200.333	24.212	0.154	-0.126
-199.319	212.627	0.055	-0.087
-198.304	789.859	0.069	0.188
-197.290	263.837	0.107	0.184
-196.275	146.582	-0.166	-0.221
-195.260	-200.000	-0.009	-0.153
-194.246	-38.821	0.167	0.087
-193.231	627.143	-0.158	0.395
-192.217	132.720	-0.101	-0.129
-191.202	-200.000	0.024	0.140
-190.187	282.002	0.137	-0.243
-189.173	-200.000	0.053	0.346
-188.158	139.835	0.225	-0.293
-187.144	800.000	0.054	-0.157
-186.129	-48.283	0.104	0.050
-185.114	468.549	0.124	-0.276
-184.100	800.000	0.060	0.163
-183.085	352.704	0.045	-0.089
-182.071	39.070	-0.154	-0.136
-181.056	-41.645	0.193	0.098
-180.042	-200.000	-0.007	0.260
-179.027	-17.862	0.359	-0.223
-178.012	-75.769	-0.326	-0.114
-176.998	-81.468	-0.170	0.055
-175.983	-141.338	-0.020	0.002
-174.969	268.963	-0.139	-0.241
-173.954	800.000	-0.023	-0.089
-172.939	153.135	-0.106	-0.143
-171.925	430.034	-0.011	-0.024
-170.910	-39.569	-0.253	0.131
-169.896	-165.220	-0.069	-0.003
-168.881	-200.000	0.017	-0.144
-167.866	-137.051	-0.186	-0.021
-166.852	-98.519	-0.205	-0.052
-165.837	-61.975	0.180	0.074
-164.823	-200.000	0.023	0.431
-163.808	-200.000	-0.001	0.609
-162.793	-200.000	-0.259	0.000
-161.779	-4.160	0.150	0.103
-160.764	-90.473	0.141	-0.040
-159.750	274.553	-0.175	-0.305
-158.735	113.541	-0.150	0.179
-157.720	-41.144	-0.216	0.110
-156.706	-200.000	0.018	0.157
-155.691	-200.000	0.001	0.117
-154.677	-192.880	-0.104	-0.001
-153.662	-200.000	0.023	0.112
-152.647	-200.000	-0.008	-0.129
-151.633	-74.351	-0.393	-0.140
-150.618	395.411	0.143	-0.294
-149.604	-75.534	0.064	-0.022
-148.589	589.646	-0.021	-0.052
-147.574	-96.631	-0.463	-0.121
-146.560	58.125	-0.129	-0.125
-145.545	11.326	0.470	0.355
-144.531	-6.488	-0.237	0.159
-143.516	-127.727	0.147	-0.021
-142.502	-200.000	-0.025	0.211
-141.487	-67.700	0.284	0.110
-140.472	-4.369	0.300	0.205
-139.458	13.269	0.138	0.105
-138.443	-200.000	-0.039	-0.238
-137.429	166.069	0.103	0.145
-136.414	-31.898	-0.207	0.115
-135.399	512.624	-0.050	0.115
-134.385	800.000	-0.062	0.235
-133.370	800.000	-0.054	-0.192
-132.356	-200.000	0.002	-0.071
-131.341	6.753	0.178	0.131
-130.326	-200.000	0.029	0.279
-129.312	-96.568	0.058	0.015
-128.297	-129.362	-0.204	0.028
-127.283	-200.000	-0.005	0.040
-126.268	36.912	-0.142	0.124
-125.253	380.868	-0.072	0.146
-124.239	50.953	0.157	-0.146
-123.224	800.000	0.041	0.170
-122.210	-42.054	-0.046	0.023
-121.195	-19.531	-0.036	-0.022
-120.180	-131.091	0.312	-0.041
-119.166	567.216	0.025	-0.060
-118.151	800.000	-0.020	0.070
-117.137	28.257	-0.082	0.069
-116.122	-200.000	-0.001	-0.101
-115.107	-33.761	0.044	0.024
-114.093	404.384	0.027	-0.056
-113.078	618.060	0.157	-0.388
-112.064	-69.522	0.185	0.070
-111.049	-175.218	-0.222	0.006
-110.034	800.000	-0.082	0.298
-109.020	-200.000	0.028	0.180
-108.005	-22.996	0.111	0.066
-106.991	-53.427	0.086	-0.039
-105.976	-6.085	-0.163	-0.110
-104.962	202.218	-0.156	0.237
-103.947	-128.690	-0.173	-0.024
-102.932	-9.498	0.157	0.104
-101.918	-200.000	0.058	-0.275
-100.903	791.215	-0.054	0.146
-99.889	20.892	-0.113	0.090
-98.874	800.000	-0.066	0.215
-97.859	256.399	-0.205	-0.347
-96.845	-200.000	-0.039	0.226
-95.830	554.637	0.072	-0.172
-94.816	142.133	-0.037	-0.049
-93.801	-94.070	-0.094	-0.025
-92.786	73.071	0.082	-0.085
-91.772	-139.275	-0.338	0.036
-90.757	450.476	-0.085	0.184
-89.743	-200.000	0.009	0.368
-88.728	67.557	-0.292	0.294
-87.713	800.000	0.052	0.224
-86.699	-83.140	-0.225	0.071
-85.684	-168.744	0.240	-0.009
-84.670	32.127	-0.263	-0.223
-83.655	-98.596	-0.137	-0.034
-82.640	19.803	0.311	-0.247
-81.626	433.132	-0.192	-0.410
-80.611	-200.000	0.007	0.049
-79.597	259.127	0.158	0.268
-78.582	-158.882	0.263	-0.015
-77.567	-34.020	0.170	0.092
-76.553	79.497	-0.090	0.095
-75.538	30.653	-0.165	-0.139
-74.524	-183.833	0.172	-0.003
-73.509	87.329	0.302	-0.329
-72.494	-156.867	-0.173	-0.010
-71.480	-69.797	-0.144	0.054
-70.465	-115.196	0.478	0.089
-69.451	177.092	-0.151	0.216
-68.436	-82.098	-0.223	0.072
-67.422	-200.000	0.000	-0.191
-66.407	97.902	-0.082	-0.093
-65.392	-200.000	0.028	-0.262
-64.378	241.426	0.145	0.239
-63.363	-47.221	0.300	-0.144
-62.349	142.739	-0.110	-0.144
-61.334	-4.264	-1.117	-0.761
-60.319	-52.540	0.588	0.267
-59.305	-200.000	0.080	-1.162
-58.290	800.000	0.368	1.113
-57.276	421.687	0.710	1.500
-56.261	-200.000	96.255	573.690
-55.246	629.700	1392.204	3464.780
-54.232	190.880	2594.108	3838.993
-53.217	113.546	2284.637	2729.924
-52.203	43.246	1903.380	1710.079
-51.188	37.309	1694.014	1476.948
-50.173	34.569	1650.165	1418.328
-49.159	52.430	1697.283	1593.701
-48.144	54.603	1714.005	1625.682
-47.130	36.825	1672.771	1454.556
-46.115	33.987	1657.846	1420.360
-45.100	33.890	1653.384	1415.755
-44.086	33.783	1650.744	1412.640
-43.071	33.906	1647.822	1411.004
-42.057	33.849	1645.392	1408.443
-41.042	33.739	1643.915	1406.305
-40.027	33.967	1641.164	1405.586
-39.013	33.931	1639.126	1403.515
-37.998	33.855	1638.047	1401.976
-36.984	33.952	1636.393	1401.220
-35.969	33.996	1635.030	1400.319
-34.954	33.980	1633.346	1398.708
-33.940	33.985	1631.508	1397.113
-32.925	33.907	1630.238	1395.396
-31.911	34.013	1628.024	1394.221
-30.896	33.985	1626.507	1392.662
-29.881	33.935	1624.828	1390.808
-28.867	34.001	1623.143	1389.793
-27.852	34.023	1621.521	1388.508
-26.838	33.995	1620.172	1387.094
-25.823	33.971	1618.811	1385.698
-24.809	33.953	1617.599	1384.475
-23.794	34.017	1615.807	1383.352
-22.779	34.044	1614.522	1382.393
-21.765	34.061	1612.947	1381.110
-20.750	33.997	1611.244	1379.132
-19.736	34.010	1610.017	1378.125
-18.721	34.016	1608.597	1376.900
-17.706	34.022	1607.017	1375.536
-16.692	33.955	1605.565	1373.752
-15.677	34.050	1603.750	1372.831
-14.663	34.011	1602.538	1371.457
-13.648	34.005	1601.345	1370.337
-12.633	34.065	1599.837	1369.422
-11.619	34.146	1597.637	1368.068
-10.604	34.086	1596.275	1366.416
-9.590	34.087	1595.198	1365.451
-8.575	34.168	1593.759	1364.744
-7.560	34.014	1593.185	1363.098
-6.546	34.009	1592.113	1362.091
-5.531	34.013	1591.220	1361.295
-4.517	34.139	1589.155	1360.381
-3.502	34.140	1588.313	1359.608
-2.487	34.096	1586.621	1357.798
-1.473	33.708	1574.781	1344.861
-0.458	30.767	1554.851	1307.172
0.556	27.217	1554.343	1271.952
1.571	24.619	1578.392	1273.038
2.586	23.981	1591.383	1278.814
3.600	21.154	1538.389	1216.450
4.615	12.944	1429.469	1076.837
5.629	5.959	1365.654	984.981
6.644	5.034	1356.889	972.800
7.659	4.793	1356.314	970.804
8.673	4.743	1355.508	969.830
9.688	4.900	1353.927	969.588
10.702	4.718	1351.102	966.352
11.717	7.814	1356.958	989.737
12.731	15.585	1370.653	1048.302
13.746	20.315	1377.603	1083.113
14.761	19.915	1376.110	1079.349
15.775	18.889	1373.172	1070.561
16.790	17.855	1370.320	1061.816
17.804	16.856	1368.471	1054.077
18.819	16.579	1367.499	1051.518
19.834	16.387	1365.628	1048.794
20.848	16.107	1364.484	1046.086
21.863	15.911	1362.967	1043.611
22.877	15.765	1361.850	1041.763
23.892	15.734	1361.168	1040.958
24.907	15.762	1360.376	1040.432
25.921	15.824	1359.231	1039.845
26.936	15.799	1358.743	1039.226
27.950	15.837	1357.509	1038.428
28.965	15.891	1356.600	1037.970
29.980	16.082	1355.890	1038.513
30.994	16.051	1354.599	1037.241
32.009	16.048	1353.594	1036.363
33.023	16.014	1352.204	1034.999
34.038	16.098	1350.664	1034.239
35.053	15.960	1349.513	1032.426
36.067	16.028	1348.568	1032.024
37.082	15.931	1347.163	1030.264
38.096	16.013	1346.355	1030.061
39.111	16.020	1345.548	1029.389
40.126	15.912	1344.869	1028.124
41.140	15.724	1344.272	1026.429
42.155	15.668	1343.587	1025.471
43.169	15.688	1342.981	1025.043
44.184	15.625	1343.034	1024.607
45.199	15.652	1342.578	1024.329
46.213	15.675	1342.154	1024.057
47.228	15.771	1341.630	1024.151
48.242	15.893	1339.793	1023.403
49.257	15.791	1338.751	1021.892
50.271	15.839	1336.977	1020.739
51.286	15.823	1335.762	1019.630
52.301	15.924	1334.521	1019.198
53.315	15.925	1333.429	1018.283
54.330	15.813	1332.192	1016.573
55.344	15.697	1331.441	1015.205
56.359	15.849	1329.657	1014.676
57.374	15.614	1329.878	1013.334
58.388	15.589	1329.114	1012.512
59.403	15.522	1328.825	1011.797
60.417	15.537	1327.935	1011.123
61.432	15.586	1326.939	1010.570
62.447	15.496	1325.541	1008.875
63.461	15.440	1324.469	1007.635
64.476	15.446	1323.483	1006.829
65.490	15.529	1322.497	1006.491
66.505	15.565	1320.376	1004.999
67.520	15.554	1319.726	1004.354
68.534	15.537	1318.929	1003.554
69.549	15.627	1317.545	1002.948
70.563	15.487	1316.670	1001.362
71.578	15.421	1315.634	1000.091
72.593	15.435	1314.831	999.478
73.607	15.319	1314.196	998.216
74.622	15.482	1312.416	997.741
75.636	15.448	1312.827	997.761
76.651	15.419	1311.372	996.397
77.666	15.354	1311.542	996.054
78.680	15.539	1310.879	996.557
79.695	15.611	1309.787	996.064
80.709	15.603	1309.302	995.561
81.724	15.633	1308.662	995.163
82.739	15.715	1307.282	994.512
83.753	15.739	1306.589	994.042
84.768	15.870	1305.583	993.962
85.782	15.928	1304.802	993.621
86.797	15.764	1303.821	991.821
87.812	15.862	1301.720	990.711
88.826	15.881	1300.668	989.931
89.841	15.911	1300.218	989.679
90.855	15.890	1299.401	988.848
91.870	16.019	1298.024	988.466
92.884	15.897	1297.765	987.469
93.899	15.981	1296.917	987.224
94.914	16.088	1295.650	986.799
95.928	16.001	1295.448	986.052
96.943	16.053	1293.753	984.976
97.957	15.868	1293.292	983.461
98.972	15.987	1291.939	983.039
99.987	15.941	1290.848	981.851
101.001	15.995	1289.637	981.156
102.016	15.984	1289.110	980.605
103.030	16.014	1288.185	979.991
104.045	15.925	1287.324	978.732
105.060	15.901	1286.132	977.599
106.074	15.807	1284.596	975.800
107.089	15.601	1283.076	973.364
108.103	15.554	1281.771	972.019
109.118	15.557	1280.709	971.143
110.133	15.574	1279.272	970.067
111.147	15.595	1277.855	969.029
112.162	15.664	1276.555	968.354
113.176	15.593	1275.628	967.158
114.191	15.686	1274.889	967.043
115.206	15.666	1274.011	966.178
116.220	15.760	1272.150	965.220
117.235	15.773	1271.501	964.721
118.249	15.627	1270.769	963.240
119.264	15.610	1269.492	962.093
120.279	15.593	1268.031	960.802
121.293	15.516	1267.593	959.942
122.308	15.529	1266.380	959.015
123.322	15.527	1265.156	957.990
124.337	15.479	1264.171	956.887
125.352	15.559	1262.843	956.255
126.366	15.515	1261.750	955.090
127.381	15.510	1261.101	954.487
128.395	15.584	1259.821	953.854
129.410	15.629	1258.995	953.400
130.424	15.633	1258.291	952.802
131.439	15.670	1256.777	951.783
132.454	15.709	1256.179	951.468
133.468	15.652	1255.617	950.631
134.483	15.713	1255.166	950.555
135.497	15.719	1253.825	949.484
136.512	15.729	1252.674	948.586
137.527	15.742	1251.254	947.502
138.541	15.683	1249.636	945.859
139.556	15.870	1248.614	946.055
140.570	15.798	1247.931	945.047
141.585	15.910	1246.557	944.553
142.600	15.908	1245.542	943.688
143.614	16.009	1244.652	943.498
144.629	16.027	1243.574	942.698
145.643	15.916	1242.206	940.956
146.658	15.948	1240.673	939.890
147.673	15.932	1239.650	938.944
148.687	15.695	1239.045	937.079
149.702	15.775	1237.261	936.095
150.716	15.676	1236.087	934.575
151.731	15.831	1234.562	934.196
152.746	15.761	1234.049	933.337
153.760	15.768	1232.825	932.368
154.775	15.818	1231.624	931.653
155.789	15.896	1230.392	931.071
156.804	15.960	1229.795	930.891
157.819	15.936	1228.868	929.976
158.833	15.977	1227.532	929.111
159.848	15.974	1227.270	928.809
160.862	16.115	1225.706	928.323
161.877	15.940	1224.806	926.596
162.892	15.840	1223.515	924.987
163.906	15.845	1222.469	924.144
164.921	15.925	1221.642	923.872
165.935	15.924	1221.290	923.518
166.950	15.952	1220.637	923.097
167.964	16.017	1219.400	922.434
168.979	15.982	1219.141	921.970
169.994	16.007	1217.789	921.001
171.008	16.031	1217.482	920.816
172.023	16.057	1217.034	920.539
173.037	15.937	1216.343	919.280
174.052	16.115	1215.197	919.306
175.067	15.966	1214.007	917.512
176.081	15.851	1212.930	915.991
177.096	15.974	1211.899	915.800
178.110	15.965	1210.789	914.827
179.125	15.988	1209.876	914.182
180.140	16.071	1208.626	913.605
181.154	16.029	1207.455	912.413
182.169	16.068	1206.364	911.721
183.183	16.087	1205.973	911.447
184.198	16.187	1204.102	910.492
185.213	16.136	1203.568	909.735
186.227	16.241	1202.394	909.328
187.242	16.436	1200.916	909.179
188.256	16.320	1200.254	907.976
189.271	16.430	1198.948	907.498
190.286	16.200	1198.194	905.612
191.300	15.964	1197.531	903.765
192.315	15.950	1196.465	902.805
193.329	15.980	1195.821	902.399
194.344	15.979	1195.619	902.162
195.359	16.043	1195.114	902.047
196.373	16.223	1194.356	902.356
197.388	16.253	1194.091	902.236
198.402	16.468	1193.543	902.893
199.417	16.550	1192.983	902.826
200.432	16.613	1191.916	902.273
201.446	16.544	1191.512	901.521
202.461	16.622	1190.622	901.184
203.475	16.551	1189.780	900.090
204.490	16.557	1188.419	899.011
205.504	16.441	1186.844	897.126
206.519	16.390	1186.174	896.268
207.534	16.264	1185.177	894.767
208.548	16.369	1184.166	894.480
209.563	16.387	1183.573	894.048
210.577	16.436	1182.649	893.531
211.592	16.492	1181.547	892.915
212.607	16.588	1180.544	892.584
213.621	16.574	1179.951	891.983
214.636	16.598	1178.814	891.170
215.650	16.583	1178.172	890.531
216.665	16.533	1177.643	889.787
217.680	16.679	1176.304	889.462
218.694	16.736	1175.951	889.415
219.709	16.767	1174.650	888.519
220.723	16.744	1173.986	887.816
221.738	16.726	1173.004	886.902
222.753	16.721	1172.595	886.484
223.767	16.730	1171.869	885.904
224.782	16.860	1171.336	886.105
225.796	16.914	1170.817	885.914
226.811	16.810	1170.133	884.778
227.826	16.789	1169.638	884.216
228.840	16.735	1168.386	882.908
229.855	16.773	1168.033	882.759
230.869	16.712	1167.274	881.794
231.884	16.708	1166.198	880.881
232.899	16.690	1165.322	880.046
233.913	16.762	1164.574	879.778
234.928	16.687	1164.043	878.908
235.942	16.546	1163.255	877.507
236.957	16.670	1162.360	877.395
237.972	16.721	1161.653	877.050
238.986	16.656	1160.774	875.969
240.001	16.716	1160.580	876.057
241.015	16.793	1159.141	875.294
242.030	16.727	1158.509	874.398
243.045	16.818	1158.033	874.428
244.059	16.842	1157.302	873.921
245.074	16.793	1156.503	872.993
246.088	17.014	1155.393	873.214
247.103	16.996	1154.925	872.690
248.117	17.044	1154.113	872.247
249.132	17.097	1153.576	872.034
250.147	17.221	1153.146	872.268
251.161	17.238	1152.546	871.826
252.176	17.353	1151.418	871.482
253.190	17.386	1150.674	871.010
254.205	17.429	1150.556	871.068
255.220	17.436	1149.828	870.471
256.234	17.459	1149.047	869.924
257.249	17.447	1148.604	869.448
258.263	17.571	1147.322	869.032
259.278	17.435	1147.021	868.035
260.293	17.373	1146.835	867.501
261.307	17.531	1146.239	867.781
262.322	17.612	1145.325	867.421
263.336	17.573	1145.018	866.913
264.351	17.596	1144.276	866.393
265.366	17.673	1143.598	866.198
266.380	17.507	1142.796	864.670
267.395	17.487	1141.721	863.676
268.409	17.526	1141.524	863.647
269.424	17.422	1140.791	862.493
270.439	17.569	1139.921	862.500
271.453	17.467	1139.375	861.494
272.468	17.417	1138.498	860.505
273.482	17.466	1137.590	859.988
274.497	17.458	1136.992	859.419
275.512	17.521	1136.505	859.292
276.526	17.527	1135.692	858.632
277.541	17.526	1134.779	857.861
278.555	17.505	1134.193	857.239
279.570	17.721	1133.759	857.920
280.585	17.727	1132.683	857.062
281.599	17.718	1131.935	856.372
282.614	17.640	1130.730	854.996
283.628	17.708	1129.662	854.451
284.643	17.649	1128.959	853.551
285.657	17.696	1127.955	852.950
286.672	17.593	1127.373	851.920
287.687	17.673	1126.101	851.283
288.701	17.653	1125.446	850.611
289.716	17.727	1124.465	850.166
290.730	17.694	1123.907	849.505
291.745	17.731	1123.294	849.147
292.760	17.777	1122.509	848.707
293.774	17.882	1121.838	848.651
294.789	18.034	1121.397	848.998
295.803	17.931	1121.052	848.148
296.818	17.897	1120.195	847.255
297.833	17.791	1119.385	846.041
298.847	17.770	1118.834	845.447
299.862	17.896	1118.014	845.378
300.876	17.829	1117.158	844.321
301.891	17.964	1116.692	844.565
302.906	18.065	1115.941	844.419
303.920	17.956	1115.157	843.212
304.935	18.151	1114.453	843.566
305.949	18.209	1113.894	843.357
306.964	18.070	1113.473	842.276
307.979	18.137	1112.693	841.944
308.993	18.034	1111.752	840.651
310.008	18.004	1111.044	839.893
311.022	18.298	1109.998	840.470
312.037	18.141	1109.194	839.019
313.052	18.078	1108.323	837.978
314.066	18.064	1107.380	837.119
315.081	17.916	1106.229	835.453
316.095	17.833	1105.759	834.619
317.110	18.085	1104.960	835.171
318.125	17.880	1104.759	833.946
319.139	17.921	1103.720	833.289
320.154	18.053	1102.634	833.036
321.168	18.077	1102.123	832.693
322.183	18.055	1101.746	832.229
323.197	18.177	1100.924	832.125
324.212	18.089	1100.514	831.316
325.227	18.070	1100.302	830.989
326.241	18.147	1099.363	830.580
327.256	18.115	1098.526	829.719
328.270	18.035	1098.036	828.891
329.285	18.136	1096.795	828.367
330.300	18.018	1095.852	827.012
331.314	18.088	1095.028	826.657
332.329	18.101	1094.135	825.969
333.343	18.156	1093.155	825.423
334.358	18.137	1092.696	824.911
335.373	18.297	1091.629	824.805
336.387	18.368	1090.696	824.369
337.402	18.314	1090.353	823.774
338.416	18.321	1089.944	823.427
339.431	18.451	1089.177	823.398
340.446	18.467	1088.400	822.817
341.460	18.593	1087.887	822.963
342.475	18.469	1087.233	821.800
343.489	18.517	1086.174	821.154
344.504	18.631	1085.387	821.035
345.519	18.701	1084.452	820.586
346.533	18.657	1083.772	819.792
347.548	18.750	1083.175	819.712
348.562	18.666	1082.430	818.673
349.577	18.602	1081.651	817.705
350.592	18.560	1080.572	816.620
351.606	18.484	1079.931	815.702
352.621	18.524	1079.106	815.196
353.635	18.449	1078.466	814.285
354.650	18.468	1077.569	813.625
355.665	18.469	1077.082	813.187
356.679	18.563	1076.466	813.098
357.694	18.622	1075.678	812.709
358.708	18.667	1075.489	812.710
359.723	18.712	1074.410	812.033
360.738	18.678	1074.139	811.597
361.752	18.711	1073.706	811.356
362.767	18.681	1073.004	810.612
363.781	18.718	1072.427	810.276
364.796	18.848	1071.814	810.356
365.810	18.851	1071.249	809.868
366.825	18.917	1070.750	809.733
367.840	19.050	1070.321	809.964
368.854	19.025	1069.792	809.372
369.869	19.104	1068.617	808.786
370.883	18.974	1067.994	807.629
371.898	18.939	1067.276	806.853
372.913	18.940	1066.616	806.288
373.927	18.911	1066.281	805.825
374.942	19.046	1066.083	806.238
375.956	19.131	1065.468	806.096
376.971	19.051	1064.817	805.161
377.986	18.984	1064.356	804.427
379.000	19.101	1063.614	804.341
380.015	19.271	1062.929	804.546
381.029	19.316	1062.291	804.203
382.044	19.183	1061.537	802.942
383.059	19.249	1061.216	802.936
384.073	19.270	1060.183	802.177
385.088	19.173	1059.290	800.980
386.102	19.355	1058.028	800.801
387.117	19.161	1057.340	799.308
388.132	19.131	1056.378	798.372
389.146	18.952	1055.925	797.128
390.161	19.106	1054.994	797.069
391.175	19.198	1054.033	796.698
392.190	19.183	1053.775	796.363
393.205	19.296	1053.157	796.349
394.219	19.343	1052.166	795.747
395.234	19.243	1051.435	794.660
396.248	19.299	1050.141	793.871
397.263	19.158	1049.139	792.393
398.278	19.057	1048.619	791.468
399.292	19.149	1047.789	791.191
400.307	19.144	1047.113	790.588
401.321	19.268	1046.460	790.598
402.336	19.193	1045.779	789.669
403.350	19.171	1045.208	789.063
404.365	19.163	1044.487	788.414
405.380	19.215	1043.910	788.146
406.394	19.324	1042.929	787.837
407.409	19.450	1042.237	787.817
408.423	19.393	1042.016	787.323
409.438	19.542	1040.979	787.146
410.453	19.558	1040.473	786.766
411.467	19.654	1040.012	786.786
412.482	19.631	1039.292	786.066
413.496	19.625	1038.398	785.295
414.511	19.588	1037.954	784.723
415.526	19.703	1037.714	784.994
416.540	19.772	1037.352	784.961
417.555	19.801	1036.368	784.282
418.569	19.712	1036.295	783.752
419.584	19.768	1035.308	783.192
420.599	19.640	1035.285	782.524
421.613	151.393	1401.129	1791.843
422.628	138.307	1454.411	1791.954
