DTS Sentinel unit serial number:	SN413079Multiplexer serial number:	ORYXHardware model number:	OX4-SRSoftware version number:	ORYX F/W v4.00 Oryx Data Collector v3.7.2.0data status	okinstallation	princeton_trtdifferential loss correction	single-endedforward channel	channel 2reverse channel	N/Adate	2019/09/16time	10:35:35forward acquisition time	60.00reverse acquisition time	0.00gamma	496.2192k internal	0.2318k external	0.2318temperature offset calibration	0.9959default loss term (dB/km)	0.3790temperature slope calibration	1.0000multiplexer offset coefficient	1.0000multiplexer slope coefficient	1.0000fibre end	0.00T internal ref (°C)	35.58T ext. ref 1 (°C)	12.61T ext. ref 2 (°C)	33.62length (m)	temperature (°C)	Stokes	anti-Stokes-747.200	353.800	-0.105	0.212
-746.185	800.000	-0.124	0.436
-745.171	-23.213	-0.241	-0.147
-744.156	42.657	0.154	0.141
-743.142	621.453	-0.036	-0.091
-742.127	201.278	-0.093	0.145
-741.112	264.907	-0.073	-0.129
-740.098	-16.972	-0.323	0.206
-739.083	139.145	-0.143	0.190
-738.069	252.200	-0.105	0.181
-737.054	-59.511	0.242	0.105
-736.039	155.077	-0.025	0.035
-735.025	125.008	0.227	0.289
-734.010	128.590	-0.073	-0.094
-732.996	-200.000	-0.021	-0.310
-731.981	37.105	0.259	-0.232
-730.966	-142.841	0.366	-0.036
-729.952	452.470	0.042	0.095
-728.937	-157.390	-0.031	-0.002
-727.923	506.559	0.043	0.101
-726.908	513.318	-0.125	-0.294
-725.894	-200.000	0.006	0.049
-724.879	800.000	0.041	0.148
-723.864	-200.000	-0.008	0.122
-722.850	-97.299	-0.404	-0.107
-721.835	19.894	0.188	-0.153
-720.821	191.411	-0.028	-0.043
-719.806	248.903	0.145	-0.248
-718.791	-86.096	-0.043	-0.013
-717.777	45.255	0.094	-0.088
-716.762	613.458	0.088	-0.223
-715.748	-200.000	0.027	-0.184
-714.733	800.000	-0.036	-0.144
-713.718	-78.777	-0.499	-0.172
-712.704	318.568	0.158	-0.302
-711.689	140.419	-0.177	0.236
-710.675	-75.365	-0.190	-0.068
-709.660	-180.734	-0.383	-0.008
-708.645	-200.000	-0.023	0.240
-707.631	-96.265	-0.266	0.071
-706.616	-4.190	0.468	0.327
-705.602	-152.453	-0.093	-0.007
-704.587	-88.438	-0.178	0.054
-703.572	27.764	-0.204	-0.173
-702.558	-115.310	0.229	0.044
-701.543	-83.198	0.300	0.097
-700.529	-180.576	0.173	0.004
-699.514	-0.567	-0.152	0.109
-698.499	8.898	0.058	0.044
-697.485	-53.577	0.054	0.025
-696.470	-95.358	-0.088	0.024
-695.456	10.276	0.310	-0.238
-694.441	800.000	0.054	-0.199
-693.426	-200.000	0.040	-0.180
-692.412	-56.635	0.032	0.014
-691.397	156.668	-0.049	0.068
-690.383	-200.000	-0.006	0.190
-689.368	-113.832	-0.504	-0.099
-688.354	-65.428	-0.124	-0.050
-687.339	417.557	-0.076	-0.164
-686.324	-200.000	0.024	0.272
-685.310	-111.442	-0.196	-0.040
-684.295	-175.931	-0.250	0.007
-683.281	-95.756	-0.265	-0.072
-682.266	-200.000	0.012	0.123
-681.251	800.000	-0.051	0.211
-680.237	800.000	-0.039	0.170
-679.222	198.464	-0.075	0.116
-678.208	-137.166	-0.143	0.016
-677.193	-42.610	0.199	0.102
-676.178	800.000	-0.042	-0.125
-675.164	800.000	-0.105	0.334
-674.149	362.576	-0.091	0.184
-673.135	230.019	0.014	-0.023
-672.120	-200.000	0.024	-0.223
-671.105	173.259	0.067	-0.098
-670.091	196.370	0.234	-0.359
-669.076	800.000	0.093	-0.286
-668.062	-100.846	-0.197	-0.049
-667.047	800.000	0.015	-0.068
-666.032	-21.470	0.195	0.120
-665.018	-118.892	-0.156	0.028
-664.003	-160.940	-0.115	0.006
-662.989	-200.000	-0.015	0.275
-661.974	-124.343	-0.078	-0.012
-660.959	75.447	-0.117	0.124
-659.945	-39.708	0.286	0.151
-658.930	-200.000	0.018	0.223
-657.916	-147.272	-0.313	-0.027
-656.901	-200.000	-0.029	-0.331
-655.886	800.000	-0.050	0.148
-654.872	-59.829	0.076	0.033
-653.857	-200.000	-0.041	-0.457
-652.843	-71.366	0.453	-0.171
-651.828	149.552	0.101	-0.139
-650.814	-153.485	-0.127	0.009
-649.799	-26.437	0.134	0.079
-648.784	-163.094	0.057	0.003
-647.770	-96.236	-0.219	0.058
-646.755	84.573	0.075	-0.082
-645.741	169.941	0.214	-0.309
-644.726	-121.520	-0.397	0.066
-643.711	-200.000	0.066	-0.405
-642.697	-48.176	0.070	-0.034
-641.682	325.899	-0.128	0.246
-640.668	-200.000	0.001	0.063
-639.653	800.000	-0.103	-0.317
-638.638	800.000	0.065	-0.263
-637.624	-23.246	0.138	0.083
-636.609	27.901	0.202	-0.171
-635.595	17.449	-0.068	-0.055
-634.580	139.787	0.232	-0.308
-633.565	800.000	0.068	0.243
-632.551	-200.000	-0.003	0.171
-631.536	-157.350	0.021	-0.001
-630.522	-41.369	-0.257	0.133
-629.507	-152.138	-0.467	0.034
-628.492	-130.948	-0.269	0.036
-627.478	336.472	0.067	-0.131
-626.463	-86.478	-0.171	-0.053
-625.449	800.000	-0.038	-0.155
-624.434	76.542	0.154	0.165
-623.419	-15.681	0.147	-0.094
-622.405	595.027	-0.090	-0.224
-621.390	-51.480	-0.036	0.017
-620.376	540.514	-0.089	0.213
-619.361	-132.581	-0.132	-0.017
-618.346	-128.080	0.060	0.009
-617.332	23.080	0.033	0.028
-616.317	532.142	0.154	-0.366
-615.303	594.753	-0.166	-0.414
-614.288	-7.240	0.126	-0.086
-613.273	-85.169	-0.055	-0.017
-612.259	-200.000	-0.021	0.167
-611.244	-22.749	0.085	0.052
-610.230	274.469	-0.062	-0.110
-609.215	800.000	0.022	0.065
-608.201	-81.760	-0.025	0.008
-607.186	-121.452	-0.349	-0.058
-606.171	13.490	0.181	-0.142
-605.157	66.025	0.097	0.099
-604.142	156.115	-0.086	0.119
-603.128	498.271	0.079	0.182
-602.113	-200.000	-0.046	0.252
-601.098	-23.399	-0.114	-0.069
-600.084	-46.770	-0.271	0.134
-599.069	413.643	-0.095	0.203
-598.055	46.123	0.128	-0.119
-597.040	95.072	-0.076	-0.088
-596.025	103.704	-0.113	0.134
-595.011	128.605	-0.014	-0.018
-593.996	373.526	0.135	0.277
-592.982	-72.447	0.335	-0.125
-591.967	-54.025	-0.249	0.114
-590.952	192.912	0.072	0.110
-589.938	169.443	0.091	0.131
-588.923	-83.118	-0.238	-0.077
-587.909	115.164	-0.272	0.334
-586.894	-59.053	0.133	0.058
-585.879	-97.787	0.197	0.051
-584.865	57.623	0.207	-0.203
-583.850	-200.000	0.007	0.039
-582.836	-40.988	0.233	-0.121
-581.821	-91.908	-0.127	0.036
-580.806	-200.000	0.012	0.133
-579.792	800.000	-0.094	-0.289
-578.777	-72.609	-0.285	0.106
-577.763	417.332	-0.072	0.156
-576.748	800.000	-0.049	0.211
-575.733	19.099	-0.216	-0.175
-574.719	225.719	0.140	0.228
-573.704	229.267	-0.326	0.535
-572.690	-90.333	0.284	0.083
-571.675	85.520	0.102	0.113
-570.661	13.358	-0.048	-0.038
-569.646	-200.000	0.045	0.270
-568.631	-200.000	0.046	0.245
-567.617	-200.000	-0.010	-0.301
-566.602	-45.295	-0.081	0.040
-565.588	0.488	-0.298	0.214
-564.573	-55.821	-0.112	-0.050
-563.558	389.218	-0.064	0.132
-562.544	-8.274	0.276	-0.186
-561.529	1.113	-0.171	-0.123
-560.515	-57.819	0.258	-0.113
-559.500	220.488	0.108	-0.173
-558.485	226.254	0.167	-0.272
-557.471	-117.079	-0.242	-0.044
-556.456	-64.066	-0.143	0.059
-555.442	185.406	0.079	0.118
-554.427	800.000	-0.069	0.291
-553.412	-79.014	-0.215	-0.073
-552.398	47.708	-0.167	0.156
-551.383	800.000	0.051	-0.188
-550.369	800.000	-0.060	0.230
-549.354	131.463	-0.148	0.191
-548.339	800.000	0.041	-0.146
-547.325	-85.822	0.184	-0.057
-546.310	-111.566	0.216	-0.044
-545.296	-136.534	-0.164	0.019
-544.281	175.016	0.052	-0.076
-543.266	536.177	-0.061	0.145
-542.252	-200.000	0.006	0.133
-541.237	107.577	-0.011	-0.013
-540.223	32.340	0.082	-0.071
-539.208	547.634	0.138	-0.331
-538.193	-200.000	0.019	0.105
-537.179	221.863	0.271	0.437
-536.164	223.046	-0.146	-0.236
-535.150	-200.000	-0.011	-0.337
-534.135	-171.653	0.059	0.002
-533.121	-200.000	-0.039	-0.209
-532.106	31.912	-0.136	0.118
-531.091	96.512	0.097	0.112
-530.077	363.207	0.105	0.213
-529.062	92.265	0.183	-0.206
-528.048	-52.860	-0.212	-0.098
-527.033	0.892	0.144	-0.104
-526.018	-13.235	0.125	0.081
-525.004	800.000	-0.083	0.278
-523.989	-200.000	-0.015	-0.085
-522.975	-200.000	0.003	-0.232
-521.960	800.000	-0.054	-0.218
-520.945	152.976	0.097	0.133
-519.931	-110.680	0.210	0.044
-518.916	20.084	-0.125	-0.101
-517.902	-28.468	0.107	0.062
-516.887	346.756	0.134	0.264
-515.872	139.724	-0.196	0.259
-514.858	-156.738	0.253	0.016
-513.843	-62.174	-0.381	-0.159
-512.829	-14.174	0.363	0.235
-511.814	420.665	0.102	0.219
-510.799	-200.000	0.005	0.169
-509.785	-200.000	0.039	0.177
-508.770	226.524	0.010	-0.016
-507.756	-75.412	-0.215	0.077
-506.741	-195.256	0.143	-0.001
-505.726	201.605	0.079	-0.122
-504.712	-45.806	0.197	-0.098
-503.697	-101.108	-0.336	-0.083
-502.683	378.331	-0.198	0.407
-501.668	367.630	-0.057	-0.115
-500.653	22.585	0.177	0.145
-499.639	53.528	-0.138	-0.133
-498.624	322.030	0.044	0.085
-497.610	50.391	-0.162	0.154
-496.595	691.828	-0.088	0.232
-495.581	81.968	-0.135	-0.147
-494.566	25.236	0.166	-0.138
-493.551	268.067	-0.202	-0.355
-492.537	76.569	0.079	-0.084
-491.522	251.692	-0.056	-0.095
-490.508	441.878	0.085	0.186
-489.493	16.224	-0.249	-0.197
-488.478	44.104	-0.134	-0.123
-487.464	394.848	0.020	-0.042
-486.449	245.492	-0.168	-0.283
-485.435	-83.794	0.330	-0.105
-484.420	31.148	0.121	-0.104
-483.405	-200.000	-0.020	-0.220
-482.391	800.000	0.118	-0.472
-481.376	-91.871	-0.254	0.072
-480.362	800.000	-0.113	-0.347
-479.347	800.000	-0.168	-0.548
-478.332	198.560	-0.163	-0.250
-477.318	359.559	-0.073	-0.145
-476.303	18.422	-0.201	-0.161
-475.289	47.546	0.156	-0.146
-474.274	98.943	0.049	-0.056
-473.259	-31.955	-0.214	-0.120
-472.245	800.000	-0.011	-0.034
-471.230	-71.857	0.034	-0.013
-470.216	53.077	0.080	0.077
-469.201	-7.976	-0.037	0.025
-468.186	239.833	-0.102	-0.170
-467.172	-72.548	-0.203	0.075
-466.157	-143.820	-0.162	-0.015
-465.143	-30.274	-0.105	-0.060
-464.128	-87.037	-0.297	0.090
-463.113	-103.927	-0.131	0.031
-462.099	272.267	-0.130	0.229
-461.084	-15.291	-0.150	0.096
-460.070	124.684	0.084	0.106
-459.055	701.992	-0.038	0.101
-458.040	-141.143	-0.012	-0.001
-457.026	-171.656	-0.309	-0.010
-456.011	800.000	-0.071	-0.218
-454.997	610.544	0.087	0.218
-453.982	-200.000	0.015	-0.162
-452.968	-135.190	0.263	0.032
-451.953	-74.317	-0.178	0.064
-450.938	-112.616	0.339	-0.068
-449.924	-62.016	-0.027	-0.011
-448.909	152.441	0.192	-0.263
-447.895	306.921	0.270	-0.503
-446.880	-140.993	0.354	0.036
-445.865	207.856	-0.133	0.208
-444.851	9.191	0.227	-0.172
-443.836	75.141	0.242	0.255
-442.822	486.044	0.116	0.265
-441.807	100.573	-0.081	0.094
-440.792	494.807	0.162	-0.372
-439.778	-108.296	-0.111	0.024
-438.763	-65.242	0.163	0.066
-437.749	800.000	-0.009	-0.030
-436.734	-5.599	0.104	0.071
-435.719	-74.799	0.464	0.167
-434.705	-142.560	-0.104	-0.010
-433.690	-200.000	-0.029	0.255
-432.676	-12.361	0.291	0.190
-431.661	-90.272	-0.126	0.037
-430.646	-182.984	0.297	-0.005
-429.632	-113.829	-0.113	0.022
-428.617	800.000	-0.019	-0.069
-427.603	800.000	-0.042	0.139
-426.588	145.621	-0.138	0.184
-425.573	-80.845	-0.173	0.057
-424.559	-103.153	-0.163	0.039
-423.544	134.514	-0.089	-0.116
-422.530	-41.448	-0.247	0.127
-421.515	-158.608	0.186	-0.011
-420.500	-200.000	-0.034	-0.175
-419.486	-155.283	-0.415	0.027
-418.471	170.978	0.100	0.144
-417.457	-88.341	0.067	0.020
-416.442	-125.889	0.252	-0.038
-415.428	-175.713	0.054	0.001
-414.413	-83.258	0.181	0.058
-413.398	-64.495	0.051	-0.021
-412.384	-13.347	0.354	-0.229
-411.369	-18.837	-0.223	0.139
-410.355	108.177	-0.247	0.294
-409.340	800.000	0.024	0.074
-408.325	-123.301	-0.268	-0.043
-407.311	-125.266	0.148	-0.023
-406.296	800.000	0.065	0.194
-405.282	207.629	0.082	0.128
-404.267	26.991	0.185	-0.155
-403.252	-49.369	0.226	0.107
-402.238	49.281	0.144	0.135
-401.223	25.648	0.137	0.114
-400.209	-156.532	-0.186	-0.012
-399.194	50.199	-0.290	-0.273
-398.179	-92.722	-0.252	-0.071
-397.165	74.002	-0.079	-0.083
-396.150	-75.401	-0.123	-0.044
-395.136	53.589	0.176	-0.168
-394.121	429.434	-0.207	-0.447
-393.106	800.000	-0.073	-0.240
-392.092	719.243	-0.133	0.352
-391.077	657.257	-0.028	-0.073
-390.063	13.877	-0.208	0.161
-389.048	-114.736	0.171	0.033
-388.033	-102.217	0.423	-0.101
-387.019	-200.000	0.010	0.238
-386.004	-200.000	0.040	-0.196
-384.990	-103.474	0.115	0.027
-383.975	123.075	0.234	0.292
-382.960	-78.811	0.320	-0.109
-381.946	800.000	0.115	0.325
-380.931	68.970	0.169	0.174
-379.917	60.801	-0.206	-0.203
-378.902	-110.098	0.212	-0.044
-377.888	-200.000	-0.258	-0.001
-376.873	-103.398	0.059	-0.014
-375.858	-125.761	-0.106	0.016
-374.844	45.073	0.108	-0.099
-373.829	-12.464	-0.238	0.155
-372.815	-105.736	0.129	-0.029
-371.800	800.000	-0.039	-0.140
-370.785	169.984	-0.102	-0.146
-369.771	10.057	0.220	0.167
-368.756	200.937	0.104	0.160
-367.742	-97.777	-0.420	-0.108
-366.727	182.322	-0.047	0.069
-365.712	-20.229	-0.150	0.092
-364.698	10.525	-0.184	-0.140
-363.683	-60.461	0.086	-0.037
-362.669	176.727	0.180	-0.261
-361.654	-155.281	0.102	-0.007
-360.639	11.929	0.079	0.060
-359.625	128.381	-0.158	0.201
-358.610	-134.079	0.304	0.037
-357.596	800.000	-0.080	-0.254
-356.581	-101.211	0.224	-0.055
-355.566	-200.000	0.017	0.300
-354.552	35.040	0.104	0.091
-353.537	527.269	0.123	-0.289
-352.523	122.693	0.218	-0.271
-351.508	-200.000	-0.023	-0.183
-350.493	-200.000	-0.003	-0.070
-349.479	-175.074	0.162	0.004
-348.464	300.118	-0.099	0.183
-347.450	369.438	0.048	0.097
-346.435	12.619	-0.013	-0.010
-345.420	-200.000	0.050	0.267
-344.406	240.121	0.191	-0.317
-343.391	703.849	-0.076	-0.199
-342.377	-200.000	-0.053	-0.378
-341.362	-100.035	-0.172	-0.043
-340.348	6.393	-0.168	0.124
-339.333	-164.396	0.294	0.013
-338.318	-3.669	0.352	-0.243
-337.304	-44.755	0.167	-0.083
-336.289	14.249	-0.247	-0.192
-335.275	-151.061	-0.320	-0.024
-334.260	214.323	-0.152	-0.239
-333.245	-163.427	-0.126	0.006
-332.231	59.288	-0.467	-0.458
-331.216	113.342	0.285	-0.344
-330.202	800.000	0.086	0.344
-329.187	94.569	-0.187	0.211
-328.172	171.861	0.127	-0.181
-327.158	141.743	-0.105	0.138
-326.143	-128.661	0.382	-0.054
-325.129	-112.903	-0.050	-0.010
-324.114	71.255	0.300	-0.310
-323.099	-200.000	-0.041	0.260
-322.085	106.011	-0.075	0.088
-321.070	-200.000	-0.087	-0.000
-320.056	194.283	-0.025	0.037
-319.041	-24.090	0.129	0.077
-318.026	800.000	0.032	-0.135
-317.012	140.065	-0.235	0.308
-315.997	-200.000	-0.053	-0.354
-314.983	277.600	-0.050	-0.089
-313.968	-200.000	0.028	-0.139
-312.953	-90.104	0.133	0.038
-311.939	-105.412	-0.333	-0.075
-310.924	-120.840	0.102	-0.017
-309.910	27.984	0.150	0.126
-308.895	206.538	-0.083	-0.129
-307.880	800.000	0.090	0.290
-306.866	-70.016	0.109	0.041
-305.851	48.994	-0.260	-0.243
-304.837	-118.636	0.788	-0.138
-303.822	4.292	0.254	0.185
-302.807	259.909	-0.048	-0.083
-301.793	-200.000	0.012	0.121
-300.778	-113.499	-0.335	0.065
-299.764	-200.000	-0.045	-0.379
-298.749	-134.145	0.346	0.042
-297.735	653.024	0.074	0.188
-296.720	358.177	0.066	0.131
-295.705	800.000	0.048	0.185
-294.691	-55.848	-0.251	-0.111
-293.676	-77.338	0.181	0.063
-292.662	45.035	0.306	-0.280
-291.647	-200.000	0.015	0.226
-290.632	46.076	0.237	0.218
-289.618	-42.069	-0.226	-0.115
-288.603	10.443	-0.192	0.145
-287.589	-148.785	0.116	-0.009
-286.574	62.926	-0.321	-0.319
-285.559	-200.000	-0.059	0.395
-284.545	-71.247	-0.344	0.128
-283.530	800.000	0.102	0.382
-282.516	800.000	-0.026	-0.087
-281.501	89.695	-0.197	-0.219
-280.486	-106.488	-0.117	0.026
-279.472	-131.743	-0.344	-0.045
-278.457	115.016	-0.033	-0.040
-277.443	800.000	-0.016	-0.066
-276.428	800.000	-0.132	0.415
-275.413	264.295	0.048	-0.083
-274.399	-200.000	-0.002	-0.268
-273.384	-111.795	-0.257	0.052
-272.370	11.509	-0.223	0.170
-271.355	800.000	0.012	-0.039
-270.340	162.465	-0.168	-0.234
-269.326	-37.987	-0.358	-0.189
-268.311	57.780	-0.222	0.216
-267.297	-200.000	0.032	0.141
-266.282	-155.475	-0.061	0.004
-265.267	-200.000	-0.003	0.032
-264.253	800.000	-0.032	-0.116
-263.238	249.813	-0.145	-0.245
-262.224	488.956	-0.010	-0.023
-261.209	15.190	0.093	0.073
-260.195	-8.624	-0.117	-0.078
-259.180	800.000	0.105	-0.352
-258.165	800.000	0.047	0.168
-257.151	112.266	-0.204	-0.244
-256.136	-200.000	-0.011	-0.057
-255.122	800.000	-0.042	0.122
-254.107	-76.061	0.168	0.059
-253.092	-162.782	-0.430	0.021
-252.078	16.199	0.103	-0.080
-251.063	43.974	-0.127	0.115
-250.049	509.156	0.044	0.101
-249.034	63.554	0.232	-0.231
-248.019	-127.635	0.053	-0.008
-247.005	-96.530	0.359	0.094
-245.990	169.988	0.100	-0.141
-244.976	-200.000	0.004	0.071
-243.961	237.567	0.203	0.334
-242.946	0.349	-0.133	0.094
-241.932	800.000	0.065	0.248
-240.917	-5.439	0.197	0.134
-239.903	800.000	0.024	-0.078
-238.888	404.594	0.078	0.162
-237.873	6.890	0.081	-0.060
-236.859	295.094	0.027	-0.050
-235.844	800.000	-0.050	0.215
-234.830	-117.541	0.149	-0.027
-233.815	67.451	-0.113	0.114
-232.800	-200.000	-0.023	0.113
-231.786	173.899	-0.145	0.208
-230.771	161.462	-0.094	0.130
-229.757	-27.441	0.171	0.099
-228.742	350.082	-0.124	-0.244
-227.727	-78.592	0.224	0.076
-226.713	122.130	-0.090	0.112
-225.698	-200.000	-0.051	-0.306
-224.684	-96.885	0.235	0.061
-223.669	-200.000	-0.028	0.187
-222.655	70.419	0.390	0.399
-221.640	-112.386	-0.082	0.016
-220.625	-102.325	-0.131	0.031
-219.611	-200.000	0.014	-0.240
-218.596	2.876	-0.457	0.329
-217.582	524.735	-0.182	0.424
-216.567	-65.312	-0.208	0.083
-215.552	-159.857	0.239	-0.013
-214.538	800.000	0.031	0.124
-213.523	-200.000	0.019	0.086
-212.509	178.735	-0.085	0.123
-211.494	40.016	0.096	-0.085
-210.479	-200.000	0.013	0.198
-209.465	158.850	0.104	-0.144
-208.450	-200.000	0.007	0.038
-207.436	33.391	0.312	0.269
-206.421	800.000	0.058	0.231
-205.406	23.632	0.226	0.185
-204.392	6.858	-0.078	-0.058
-203.377	-111.610	0.368	-0.074
-202.363	800.000	-0.093	-0.281
-201.348	767.534	-0.104	-0.280
-200.333	79.846	-0.020	0.022
-199.319	-78.416	0.119	-0.040
-198.304	-51.886	0.293	0.135
-197.290	-200.000	-0.025	0.199
-196.275	-70.538	-0.069	-0.026
-195.260	800.000	0.034	-0.136
-194.246	96.054	-0.109	0.123
-193.231	-131.401	0.108	-0.014
-192.217	-128.932	0.372	0.052
-191.202	-200.000	0.011	0.287
-190.187	239.431	-0.054	0.088
-189.173	-151.422	0.154	0.011
-188.158	-169.477	0.353	-0.013
-187.144	481.474	0.146	0.329
-186.129	146.776	0.270	0.359
-185.114	662.297	0.136	-0.346
-184.100	-172.146	-0.301	0.010
-183.085	114.398	-0.106	0.128
-182.071	-200.000	-0.117	0.636
-181.056	-130.036	-0.079	0.011
-180.042	-200.000	-0.015	-0.361
-179.027	-200.000	-0.030	-0.135
-178.012	42.407	0.132	-0.119
-176.998	-80.554	0.084	-0.028
-175.983	-14.963	-0.286	0.181
-174.969	324.425	0.122	0.231
-173.954	324.223	0.073	0.138
-172.939	-200.000	0.018	-0.126
-171.925	578.360	0.126	-0.305
-170.910	-154.833	-0.079	-0.005
-169.896	-24.721	-0.278	0.164
-168.881	30.843	-0.058	0.049
-167.866	-200.000	0.037	-0.233
-166.852	800.000	-0.140	-0.418
-165.837	-86.792	0.112	-0.034
-164.823	219.320	0.087	0.137
-163.808	154.562	-0.214	-0.290
-162.793	-187.446	0.271	0.004
-161.779	-41.239	-0.364	-0.186
-160.764	-87.778	-0.390	-0.116
-159.750	247.084	-0.072	-0.120
-158.735	96.339	-0.203	-0.230
-157.720	-89.260	0.361	0.105
-156.706	-90.632	0.135	-0.039
-155.691	24.685	0.048	-0.039
-154.677	-183.210	-0.206	0.004
-153.662	800.000	0.065	-0.270
-152.647	-135.904	0.289	0.034
-151.633	-30.433	0.071	0.040
-150.618	800.000	-0.082	-0.288
-149.604	227.206	0.098	-0.158
-148.589	-200.000	-0.036	0.176
-147.574	43.399	-0.220	-0.199
-146.560	116.448	-0.298	0.362
-145.545	21.574	0.083	0.067
-144.531	-200.000	0.001	0.190
-143.516	-200.000	0.000	0.029
-142.502	800.000	0.053	-0.204
-141.487	-200.000	-0.004	0.198
-140.472	-200.000	0.073	-0.414
-139.458	800.000	-0.019	-0.073
-138.443	85.582	0.230	-0.250
-137.429	457.813	-0.145	-0.319
-136.414	-200.000	-0.045	0.310
-135.399	26.495	0.059	0.049
-134.385	-59.954	-0.096	-0.041
-133.370	324.120	0.135	0.255
-132.356	800.000	-0.025	-0.084
-131.341	800.000	0.060	-0.200
-130.326	39.631	-0.123	-0.109
-129.312	-200.000	0.011	0.050
-128.297	229.178	0.100	-0.161
-127.283	800.000	0.016	0.051
-126.268	-37.535	0.238	0.125
-125.253	-113.597	0.191	-0.037
-124.239	-44.094	0.053	0.026
-123.224	-129.852	-0.211	-0.029
-122.210	-200.000	-0.008	0.309
-121.195	555.133	-0.064	0.153
-120.180	265.111	-0.044	-0.076
-119.166	-200.000	0.016	0.141
-118.151	-105.458	-0.095	0.021
-117.137	78.849	-0.077	-0.081
-116.122	34.650	0.244	-0.211
-115.107	-17.529	-0.236	0.147
-114.093	-200.000	-0.022	-0.179
-113.078	-200.000	-0.011	0.258
-112.064	-38.481	-0.168	-0.087
-111.049	76.796	0.120	0.126
-110.034	800.000	0.188	0.637
-109.020	800.000	0.031	0.130
-108.005	-200.000	0.004	-0.106
-106.991	434.877	0.094	-0.203
-105.976	264.342	-0.117	-0.200
-104.962	-39.250	-0.116	-0.060
-103.947	16.954	-0.298	-0.233
-102.932	-77.673	0.334	-0.114
-101.918	61.012	0.052	0.050
-100.903	-104.384	0.188	-0.043
-99.889	100.815	0.168	-0.192
-98.874	-71.253	0.304	0.113
-97.859	-61.296	-0.469	-0.195
-96.845	-41.969	-0.214	0.108
-95.830	61.601	-0.138	-0.135
-94.816	-53.563	0.185	-0.083
-93.801	-58.525	-0.205	0.088
-92.786	-137.312	0.278	-0.031
-91.772	-200.000	-0.007	0.204
-90.757	573.884	-0.021	0.051
-89.743	-128.404	-0.098	0.014
-88.728	466.921	-0.105	0.232
-87.713	-70.857	-0.065	0.024
-86.699	-23.351	-0.223	0.132
-85.684	-168.384	0.163	-0.006
-84.670	-29.560	0.181	-0.102
-83.655	184.093	0.178	-0.260
-82.640	485.859	-0.091	-0.204
-81.626	16.740	-0.088	-0.068
-80.611	-86.301	-0.172	0.052
-79.597	-69.847	-0.236	-0.089
-78.582	5.926	0.430	0.314
-77.567	216.088	0.043	-0.067
-76.553	-30.077	0.285	-0.160
-75.538	-10.624	0.122	0.080
-74.524	-128.592	0.174	-0.024
-73.509	-200.000	0.019	0.248
-72.494	-60.804	0.368	0.153
-71.480	-51.300	-0.090	-0.042
-70.465	800.000	-0.040	0.162
-69.451	-112.477	-0.379	0.075
-68.436	-200.000	0.037	0.224
-67.422	542.790	0.142	-0.333
-66.407	98.287	-0.177	-0.201
-65.392	34.133	-0.126	0.108
-64.378	-31.889	-0.099	0.055
-63.363	-61.897	-0.082	0.034
-62.349	-84.111	0.204	0.064
-61.334	140.611	-0.647	-0.842
-60.319	-200.000	0.068	0.558
-59.305	693.705	-0.394	-1.018
-58.290	66.006	0.881	0.881
-57.276	-200.000	0.397	1.722
-56.261	-200.000	91.513	531.052
-55.246	474.401	1427.363	3172.260
-54.232	144.934	2642.420	3480.493
-53.217	105.336	2361.582	2747.245
-52.203	44.878	1964.324	1780.930
-51.188	38.708	1747.103	1535.777
-50.173	35.995	1700.976	1474.436
-49.159	51.398	1746.297	1633.482
-48.144	54.506	1764.455	1674.513
-47.130	38.566	1722.517	1512.829
-46.115	35.665	1707.143	1477.014
-45.100	35.540	1702.598	1472.062
-44.086	35.461	1699.844	1469.019
-43.071	35.445	1697.391	1466.718
-42.057	35.376	1695.333	1464.360
-41.042	35.487	1693.227	1463.330
-40.027	35.479	1691.244	1461.493
-39.013	35.400	1689.890	1459.666
-37.998	35.461	1688.010	1458.445
-36.984	35.383	1686.796	1456.750
-35.969	35.604	1684.931	1456.758
-34.954	35.607	1683.620	1455.586
-33.940	35.686	1681.596	1454.374
-32.925	35.645	1679.355	1452.073
-31.911	35.637	1677.926	1450.718
-30.896	35.578	1676.173	1448.699
-29.881	35.590	1673.916	1446.780
-28.867	35.534	1672.565	1445.133
-27.852	35.575	1671.398	1444.375
-26.838	35.631	1669.532	1443.132
-25.823	35.603	1668.646	1442.093
-24.809	35.601	1667.051	1440.643
-23.794	35.599	1665.531	1439.258
-22.779	35.590	1664.029	1437.837
-21.765	35.538	1662.573	1436.134
-20.750	35.582	1660.178	1434.338
-19.736	35.684	1659.065	1434.081
-18.721	35.642	1657.467	1432.330
-17.706	35.691	1656.015	1431.377
-16.692	35.608	1654.474	1429.377
-15.677	35.521	1653.434	1427.771
-14.663	35.594	1651.769	1426.817
-13.648	35.528	1650.430	1425.117
-12.633	35.623	1648.477	1424.080
-11.619	35.645	1646.889	1422.813
-10.604	35.615	1645.141	1421.021
-9.590	35.568	1644.139	1419.752
-8.575	35.642	1642.865	1419.146
-7.560	35.628	1641.583	1417.879
-6.546	35.523	1640.358	1415.986
-5.531	35.546	1639.941	1415.742
-4.517	35.560	1638.452	1414.504
-3.502	35.625	1636.899	1413.582
-2.487	35.674	1635.828	1412.963
-1.473	35.727	1624.919	1403.873
-0.458	33.724	1606.161	1373.137
0.556	28.316	1606.845	1341.936
1.571	26.086	1631.032	1345.411
2.586	25.138	1644.702	1349.436
3.600	23.170	1593.339	1292.816
4.615	18.297	1486.507	1172.727
5.629	13.613	1424.204	1092.658
6.644	12.682	1415.671	1079.913
7.659	12.649	1414.575	1078.764
8.673	12.619	1412.915	1077.209
9.688	12.481	1411.518	1075.145
10.702	12.503	1408.199	1072.668
11.717	14.641	1412.665	1089.950
12.731	18.746	1419.871	1122.296
13.746	19.501	1419.177	1126.578
14.761	17.792	1414.694	1111.795
15.775	16.611	1411.663	1101.626
16.790	15.536	1409.035	1092.492
17.804	14.678	1406.721	1085.026
18.819	14.221	1405.374	1080.926
19.834	13.819	1403.395	1076.698
20.848	13.679	1402.226	1074.796
21.863	13.290	1401.127	1071.342
22.877	13.207	1399.360	1069.359
23.892	13.139	1398.711	1068.329
24.907	13.154	1398.167	1067.913
25.921	13.185	1397.320	1067.373
26.936	13.254	1396.290	1066.941
27.950	13.199	1395.589	1065.951
28.965	13.234	1394.469	1065.227
29.980	13.368	1392.955	1064.841
30.994	13.327	1392.332	1064.006
32.009	13.489	1390.504	1063.559
33.023	13.490	1389.376	1062.609
34.038	13.334	1388.292	1060.682
35.053	13.376	1387.045	1059.905
36.067	13.439	1385.644	1059.145
37.082	13.376	1384.327	1057.639
38.096	13.316	1383.890	1056.828
39.111	13.347	1382.734	1056.049
40.126	13.250	1381.993	1054.772
41.140	13.109	1380.801	1052.871
42.155	13.082	1380.545	1052.413
43.169	13.145	1380.913	1053.000
44.184	13.133	1380.252	1052.323
45.199	13.102	1379.597	1051.534
46.213	13.149	1379.154	1051.407
47.228	13.254	1378.322	1051.346
48.242	13.264	1376.793	1050.150
49.257	13.288	1375.218	1049.009
50.271	13.232	1373.443	1047.204
51.286	13.294	1371.706	1046.182
52.301	13.227	1371.283	1045.345
53.315	13.221	1369.749	1044.043
54.330	13.228	1368.624	1043.136
55.344	13.092	1368.506	1042.094
56.359	13.107	1366.648	1040.681
57.374	13.129	1365.967	1040.213
58.388	13.064	1365.161	1039.094
59.403	12.986	1364.771	1038.215
60.417	13.068	1363.763	1037.872
61.432	13.054	1363.178	1037.250
62.447	12.957	1362.077	1035.708
63.461	13.021	1360.635	1034.922
64.476	12.924	1359.995	1033.740
65.490	13.022	1358.351	1033.011
66.505	13.033	1356.796	1031.806
67.520	13.098	1355.693	1031.283
68.534	13.029	1354.911	1030.165
69.549	13.076	1353.080	1028.975
70.563	12.978	1352.693	1027.977
71.578	13.024	1351.759	1027.465
72.593	12.929	1350.647	1025.938
73.607	12.957	1349.850	1025.414
74.622	12.889	1349.136	1024.361
75.636	12.962	1348.613	1024.322
76.651	12.964	1347.450	1023.365
77.666	13.004	1347.109	1023.258
78.680	12.895	1346.679	1022.169
79.695	12.917	1345.535	1021.346
80.709	12.967	1344.864	1021.053
81.724	13.015	1343.888	1020.519
82.739	13.145	1342.621	1020.269
83.753	13.186	1342.094	1020.032
84.768	13.194	1341.223	1019.329
85.782	13.250	1340.146	1018.764
86.797	13.268	1338.176	1017.291
87.812	13.177	1337.544	1016.160
88.826	13.144	1336.272	1014.900
89.841	13.178	1335.504	1014.435
90.855	13.267	1334.269	1013.953
91.870	13.260	1333.422	1013.180
92.884	13.216	1332.741	1012.303
93.899	13.293	1331.714	1011.906
94.914	13.339	1330.863	1011.448
95.928	13.381	1329.906	1010.886
96.943	13.351	1328.945	1009.887
97.957	13.315	1327.731	1008.652
98.972	13.268	1327.041	1007.752
99.987	13.332	1325.963	1007.236
101.001	13.289	1324.725	1005.945
102.016	13.268	1323.836	1005.053
103.030	13.264	1323.096	1004.381
104.045	13.322	1322.103	1003.886
105.060	13.222	1320.721	1002.145
106.074	13.212	1319.623	1001.163
107.089	13.157	1317.894	999.426
108.103	12.976	1316.946	997.524
109.118	13.114	1315.353	997.063
110.133	13.108	1314.042	995.948
111.147	13.147	1312.393	994.841
112.162	13.205	1311.076	994.107
113.176	13.094	1310.604	992.991
114.191	13.173	1309.266	992.364
115.206	13.147	1308.139	991.270
116.220	13.191	1306.753	990.392
117.235	13.075	1305.935	988.990
118.249	13.116	1304.835	988.314
119.264	13.195	1303.677	987.823
120.279	13.110	1302.611	986.423
121.293	13.073	1301.884	985.565
122.308	13.078	1300.666	984.581
123.322	13.039	1299.572	983.435
124.337	13.046	1298.120	982.288
125.352	13.008	1297.241	981.315
126.366	13.033	1296.089	980.505
127.381	13.058	1295.309	979.972
128.395	13.083	1294.149	979.157
129.410	13.200	1292.608	978.598
130.424	13.177	1291.916	977.850
131.439	13.144	1291.295	977.102
132.454	13.140	1290.313	976.246
133.468	13.224	1288.938	975.616
134.483	13.171	1288.667	975.014
135.497	13.152	1287.870	974.210
136.512	13.103	1286.029	972.442
137.527	13.171	1284.481	971.586
138.541	13.200	1283.210	970.708
139.556	13.219	1282.264	970.023
140.570	13.215	1281.181	969.089
141.585	13.327	1279.690	968.535
142.600	13.381	1278.404	967.793
143.614	13.304	1277.743	966.758
144.629	13.354	1276.485	966.011
145.643	13.327	1275.482	965.007
146.658	13.311	1273.849	963.594
147.673	13.290	1272.338	962.245
148.687	13.218	1271.235	960.907
149.702	13.258	1269.924	960.061
150.716	13.166	1268.604	958.447
151.731	13.264	1266.778	957.548
152.746	13.172	1266.372	956.626
153.760	13.278	1264.911	956.048
154.775	13.277	1263.987	955.262
155.789	13.359	1262.503	954.528
156.804	13.323	1261.675	953.610
157.819	13.301	1260.877	952.795
158.833	13.433	1259.585	952.494
159.848	13.504	1258.242	951.805
160.862	13.485	1257.531	951.070
161.877	13.431	1256.046	949.554
162.892	13.256	1255.252	947.864
163.906	13.325	1254.238	947.412
164.921	13.366	1253.344	946.886
165.935	13.304	1252.502	945.815
166.950	13.314	1252.154	945.523
167.964	13.281	1251.710	944.915
168.979	13.327	1250.428	944.127
169.994	13.381	1250.003	944.030
171.008	13.455	1248.730	943.410
172.023	13.544	1247.563	942.949
173.037	13.519	1247.536	942.703
174.052	13.496	1246.705	941.863
175.067	13.438	1245.061	940.206
176.081	13.361	1244.270	939.091
177.096	13.423	1243.214	938.562
178.110	13.392	1242.081	937.448
179.125	13.514	1240.631	936.959
180.140	13.550	1239.521	936.243
181.154	13.559	1238.430	935.383
182.169	13.590	1237.055	934.438
183.183	13.595	1236.278	933.798
184.198	13.537	1234.840	932.302
185.213	13.598	1233.834	931.804
186.227	13.697	1232.784	931.485
187.242	13.653	1232.228	930.737
188.256	13.777	1230.715	930.202
189.271	13.841	1229.540	929.592
190.286	13.736	1228.537	928.167
191.300	13.418	1228.433	926.226
192.315	13.415	1227.551	925.461
193.329	13.447	1226.862	925.038
194.344	13.490	1226.028	924.567
195.359	13.561	1225.490	924.476
196.373	13.654	1225.117	924.632
197.388	13.724	1224.494	924.471
198.402	13.710	1224.332	924.189
199.417	13.873	1222.962	923.979
200.432	14.011	1222.128	924.036
201.446	13.951	1221.408	923.074
202.461	13.936	1220.590	922.295
203.475	13.980	1219.522	921.650
204.490	13.916	1218.661	920.559
205.504	13.783	1217.486	918.853
206.519	13.858	1216.067	918.118
207.534	13.879	1214.907	917.278
208.548	13.803	1214.105	916.168
209.563	13.945	1212.756	915.852
210.577	13.877	1211.969	914.806
211.592	13.891	1211.086	914.134
212.607	14.038	1210.234	914.219
213.621	14.008	1209.429	913.367
214.636	14.040	1208.666	912.884
215.650	13.947	1207.986	911.778
216.665	14.182	1206.337	911.741
217.680	14.123	1205.752	910.895
218.694	14.169	1204.713	910.284
219.709	14.170	1204.145	909.779
220.723	14.136	1203.535	909.050
221.738	14.173	1202.926	908.714
222.753	14.167	1202.175	908.031
223.767	14.213	1201.147	907.428
224.782	14.250	1200.598	907.134
225.796	14.306	1199.477	906.511
226.811	14.235	1199.389	905.975
227.826	14.187	1198.602	905.043
228.840	14.215	1197.567	904.332
229.855	14.293	1197.023	904.265
230.869	14.246	1196.034	903.180
231.884	14.186	1195.262	902.193
232.899	14.178	1194.649	901.606
233.913	14.122	1193.984	900.725
234.928	14.235	1192.830	900.383
235.942	14.163	1192.051	899.325
236.957	14.130	1191.459	898.620
237.972	14.158	1190.636	898.071
238.986	14.182	1189.768	897.471
240.001	14.266	1188.936	897.216
241.015	14.250	1188.631	896.818
242.030	14.219	1187.451	895.684
243.045	14.351	1186.624	895.691
244.059	14.263	1186.201	894.820
245.074	14.268	1185.448	894.198
246.088	14.336	1184.370	893.672
247.103	14.425	1183.267	893.237
248.117	14.510	1182.928	893.355
249.132	14.653	1181.885	893.254
250.147	14.569	1181.400	892.359
251.161	14.645	1180.890	892.300
252.176	14.708	1179.824	891.753
253.190	14.710	1179.432	891.389
254.205	14.685	1178.761	890.668
255.220	14.911	1178.107	891.299
256.234	14.750	1177.585	889.972
257.249	14.823	1176.606	889.540
258.263	14.763	1176.109	888.766
259.278	14.800	1175.454	888.391
260.293	14.816	1174.832	887.924
261.307	14.852	1174.430	887.737
262.322	14.795	1173.860	886.923
263.336	14.966	1172.362	886.618
264.351	14.891	1172.268	886.071
265.366	14.781	1171.889	885.126
266.380	14.865	1170.659	884.559
267.395	14.862	1169.889	883.887
268.409	14.865	1169.223	883.319
269.424	14.960	1168.399	883.122
270.439	14.921	1168.060	882.581
271.453	14.923	1166.684	881.471
272.468	14.887	1165.992	880.683
273.482	14.894	1165.572	880.323
274.497	14.788	1165.203	879.410
275.512	14.911	1164.320	879.311
276.526	14.937	1163.326	878.620
277.541	14.818	1162.875	877.578
278.555	14.982	1162.218	877.862
279.570	14.954	1161.287	876.938
280.585	15.078	1160.428	876.859
281.599	15.138	1159.166	876.140
282.614	15.085	1158.316	875.145
283.628	15.073	1157.310	874.247
284.643	15.078	1156.409	873.515
285.657	15.098	1155.759	873.049
286.672	15.175	1154.328	872.290
287.687	15.222	1153.676	871.967
288.701	15.131	1153.026	870.926
289.716	15.102	1152.305	870.155
290.730	15.278	1151.454	870.345
291.745	15.171	1150.609	869.078
292.760	15.276	1150.473	869.440
293.774	15.330	1149.282	868.745
294.789	15.379	1149.275	868.915
295.803	15.285	1148.575	867.826
296.818	15.236	1147.848	866.942
297.833	15.179	1146.958	865.899
298.847	15.263	1145.967	865.511
299.862	15.322	1144.919	864.944
300.876	15.273	1144.554	864.339
301.891	15.307	1143.910	863.955
302.906	15.390	1143.644	864.103
303.920	15.458	1142.398	863.434
304.935	15.370	1142.173	862.738
305.949	15.530	1141.130	862.692
306.964	15.664	1140.351	862.714
307.979	15.523	1139.325	861.141
308.993	15.482	1138.849	860.495
310.008	15.454	1138.161	859.757
311.022	15.504	1137.458	859.402
312.037	15.519	1136.052	858.344
313.052	15.520	1135.506	857.861
314.066	15.520	1134.356	856.916
315.081	15.498	1133.582	856.143
316.095	15.489	1133.185	855.720
317.110	15.460	1132.724	855.151
318.125	15.448	1131.724	854.255
319.139	15.483	1130.844	853.694
320.154	15.559	1130.232	853.545
321.168	15.522	1129.473	852.707
322.183	15.530	1129.028	852.336
323.197	15.533	1128.398	851.798
324.212	15.581	1127.912	851.602
325.227	15.646	1127.021	851.184
326.241	15.580	1126.440	850.333
327.256	15.600	1125.403	849.576
328.270	15.567	1124.693	848.801
329.285	15.564	1123.794	848.031
330.300	15.601	1122.730	847.339
331.314	15.643	1121.470	846.524
332.329	15.667	1120.628	845.933
333.343	15.637	1120.004	845.240
334.358	15.696	1119.318	844.942
335.373	15.534	1118.732	843.610
336.387	15.746	1117.515	843.683
337.402	15.706	1116.760	842.839
338.416	15.811	1116.045	842.749
339.431	15.821	1115.571	842.369
340.446	15.839	1115.028	841.971
341.460	15.927	1114.066	841.614
342.475	15.999	1113.395	841.391
343.489	15.974	1112.659	840.636
344.504	16.001	1111.177	839.576
345.519	16.133	1110.464	839.619
346.533	16.012	1109.760	838.410
347.548	16.090	1109.095	838.221
348.562	16.088	1108.452	837.651
349.577	16.009	1107.722	836.633
350.592	16.074	1106.687	836.102
351.606	15.908	1106.287	834.900
352.621	15.991	1105.598	834.721
353.635	15.980	1104.624	833.857
354.650	16.065	1103.875	833.635
355.665	16.026	1103.319	832.952
356.679	16.065	1102.548	832.486
357.694	16.180	1101.868	832.468
358.708	16.209	1101.030	831.905
359.723	16.226	1100.600	831.587
360.738	16.062	1100.044	830.288
361.752	16.062	1099.638	829.905
362.767	16.204	1098.944	830.011
363.781	16.179	1098.691	829.623
364.796	16.190	1097.751	828.894
365.810	16.268	1097.142	828.743
366.825	16.310	1096.381	828.297
367.840	16.394	1096.119	828.438
368.854	16.486	1095.252	828.163
369.869	16.407	1094.374	827.039
370.883	16.441	1093.493	826.468
371.898	16.478	1092.655	825.939
372.913	16.337	1092.509	825.065
373.927	16.350	1092.307	824.905
374.942	16.364	1091.533	824.317
375.956	16.422	1090.894	824.043
376.971	16.385	1090.232	823.291
377.986	16.448	1089.633	823.073
379.000	16.667	1088.581	823.270
380.015	16.543	1088.515	822.545
381.029	16.553	1087.801	821.979
382.044	16.600	1087.035	821.556
383.059	16.645	1086.360	821.193
384.073	16.756	1085.340	820.886
385.088	16.732	1084.319	819.926
386.102	16.790	1083.351	819.402
387.117	16.695	1082.421	818.165
388.132	16.682	1081.768	817.536
389.146	16.663	1080.940	816.747
390.161	16.599	1080.449	815.995
391.175	16.609	1079.694	815.401
392.190	16.637	1079.081	815.001
393.205	16.745	1077.940	814.589
394.219	16.788	1077.534	814.416
395.234	16.730	1076.588	813.351
396.248	16.667	1075.506	812.160
397.263	16.715	1074.135	811.281
398.278	16.635	1073.596	810.418
399.292	16.660	1073.052	810.058
400.307	16.619	1072.346	809.258
401.321	16.675	1071.515	808.824
402.336	16.698	1070.731	808.272
403.350	16.680	1070.037	807.588
404.365	16.656	1069.624	807.092
405.380	16.774	1068.567	806.786
406.394	16.755	1068.104	806.275
407.409	16.838	1067.094	805.834
408.423	16.948	1066.539	805.868
409.438	16.979	1065.826	805.403
410.453	16.944	1065.148	804.657
411.467	16.966	1064.549	804.234
412.482	17.077	1063.713	804.057
413.496	17.144	1062.702	803.541
414.511	17.078	1062.607	803.084
415.526	17.086	1061.656	802.334
416.540	17.181	1061.323	802.459
417.555	17.284	1060.631	802.350
418.569	17.121	1060.676	801.544
419.584	17.158	1059.995	801.133
420.599	17.212	1059.394	800.864
421.613	96.260	1314.598	1432.430
422.628	88.797	1351.781	1432.583
