DTS Sentinel unit serial number:	SN413079Multiplexer serial number:	ORYXHardware model number:	OX4-SRSoftware version number:	ORYX F/W v4.00 Oryx Data Collector v3.7.2.0data status	okinstallation	princeton_trtdifferential loss correction	single-endedforward channel	channel 2reverse channel	N/Adate	2019/09/14time	18:35:35forward acquisition time	60.00reverse acquisition time	0.00gamma	496.2192k internal	0.2318k external	0.2318temperature offset calibration	1.0101default loss term (dB/km)	0.3790temperature slope calibration	1.0000multiplexer offset coefficient	1.0000multiplexer slope coefficient	1.0000fibre end	0.00T internal ref (°C)	36.44T ext. ref 1 (°C)	4.93T ext. ref 2 (°C)	30.18length (m)	temperature (°C)	Stokes	anti-Stokes-747.200	-16.511	-0.295	-0.189
-746.185	800.000	-0.054	0.241
-745.171	96.796	0.132	-0.153
-744.156	100.426	-0.088	0.103
-743.142	-39.620	0.088	0.046
-742.127	-5.330	0.414	-0.288
-741.112	-90.482	0.194	-0.057
-740.098	-200.000	0.006	0.040
-739.083	800.000	0.111	0.433
-738.069	-200.000	-0.031	0.403
-737.054	-152.770	-0.301	-0.022
-736.039	-120.134	-0.307	0.053
-735.025	118.341	0.084	0.105
-734.010	-11.895	-0.424	-0.281
-732.996	78.930	-0.199	-0.216
-731.981	-200.000	0.005	-0.026
-730.966	-10.194	-0.199	-0.133
-729.952	-50.054	-0.248	0.119
-728.937	48.782	-0.078	-0.074
-727.923	-200.000	0.105	-0.498
-726.908	-148.449	0.136	-0.011
-725.894	128.022	0.072	-0.092
-724.879	-200.000	-0.028	0.233
-723.864	85.199	-0.244	-0.270
-722.850	116.204	-0.104	-0.129
-721.835	316.481	-0.122	0.234
-720.821	337.404	-0.130	-0.256
-719.806	-147.188	-0.270	-0.023
-718.791	-62.538	-0.142	-0.059
-717.777	7.719	0.188	0.143
-716.762	90.094	-0.183	0.207
-715.748	145.671	0.119	0.161
-714.733	-200.000	-0.022	0.107
-713.718	-155.664	-0.160	0.010
-712.704	325.582	0.026	0.049
-711.689	-95.855	0.103	-0.028
-710.675	-41.791	0.290	-0.150
-709.660	-18.325	0.116	-0.073
-708.645	800.000	-0.089	-0.258
-707.631	678.313	0.005	0.013
-706.616	-136.633	0.286	0.033
-705.602	163.473	-0.046	-0.065
-704.587	-17.842	0.241	0.153
-703.572	248.801	-0.101	-0.173
-702.558	-200.000	-0.003	-0.331
-701.543	-200.000	-0.002	-0.064
-700.529	270.120	0.113	-0.200
-699.514	38.180	-0.106	-0.096
-698.499	2.891	-0.128	0.094
-697.485	-200.000	-0.026	0.116
-696.470	-62.062	0.189	0.080
-695.456	-28.680	0.238	-0.139
-694.441	659.370	-0.162	-0.420
-693.426	4.536	-0.063	-0.046
-692.412	-200.000	0.006	-0.129
-691.397	-89.896	-0.096	0.028
-690.383	-200.000	-0.024	0.296
-689.368	63.084	0.292	0.295
-688.354	-51.675	-0.244	0.115
-687.339	-200.000	-0.032	-0.161
-686.324	680.136	0.059	0.154
-685.310	39.486	-0.285	-0.258
-684.295	-163.840	0.035	0.002
-683.281	34.035	-0.207	-0.182
-682.266	79.162	0.117	-0.127
-681.251	-63.958	0.037	-0.015
-680.237	-200.000	-0.014	-0.117
-679.222	-48.516	-0.312	-0.151
-678.208	-126.832	-0.297	-0.044
-677.193	800.000	-0.017	-0.056
-676.178	-200.000	-0.088	-0.496
-675.164	20.515	0.148	0.121
-674.149	121.026	-0.125	-0.157
-673.135	183.795	0.019	0.028
-672.120	12.739	-0.287	-0.224
-671.105	-10.246	-0.390	-0.261
-670.091	228.480	0.129	-0.212
-669.076	233.312	-0.166	-0.275
-668.062	-200.000	-0.035	-0.265
-667.047	9.968	-0.177	0.136
-666.032	148.155	0.101	0.138
-665.018	-66.981	-0.334	-0.133
-664.003	-200.000	-0.036	0.183
-662.989	-39.445	0.243	-0.129
-661.974	114.621	0.068	-0.084
-660.959	-200.000	0.000	-0.064
-659.945	-121.400	0.261	0.044
-658.930	277.691	0.102	0.182
-657.916	41.524	0.146	-0.133
-656.901	-122.682	-0.343	0.056
-655.886	282.308	-0.180	-0.325
-654.872	800.000	0.048	-0.142
-653.857	-200.000	0.004	-0.095
-652.843	-36.513	0.037	0.020
-651.828	360.836	-0.162	-0.327
-650.814	10.451	-0.083	0.063
-649.799	-200.000	0.012	0.267
-648.784	36.272	-0.094	0.083
-647.770	133.378	0.220	-0.286
-646.755	-200.000	0.044	-0.476
-645.741	-200.000	-0.024	-0.226
-644.726	-200.000	0.001	-0.278
-643.711	800.000	0.072	-0.220
-642.697	-150.223	-0.137	-0.011
-641.682	253.249	-0.134	0.231
-640.668	151.092	0.134	-0.184
-639.653	-200.000	0.042	-0.250
-638.638	-1.407	-0.400	-0.284
-637.624	-200.000	0.006	0.171
-636.609	-25.007	0.037	0.022
-635.595	-200.000	-0.020	0.145
-634.580	655.844	0.144	0.373
-633.565	88.050	0.309	-0.345
-632.551	-200.000	0.014	-0.078
-631.536	-200.000	0.030	0.250
-630.522	481.900	-0.179	0.409
-629.507	800.000	0.066	0.265
-628.492	800.000	0.010	0.042
-627.478	-200.000	-0.008	-0.069
-626.463	-200.000	-0.012	-0.296
-625.449	313.513	0.190	-0.360
-624.434	361.997	-0.031	0.062
-623.419	-121.148	-0.041	0.007
-622.405	-121.573	0.256	0.043
-621.390	800.000	0.051	-0.216
-620.376	-37.201	-0.132	-0.071
-619.361	-200.000	-0.019	0.361
-618.346	159.359	0.137	0.192
-617.332	16.547	0.315	-0.250
-616.317	800.000	-0.040	-0.170
-615.303	-79.934	0.344	-0.116
-614.288	-200.000	0.022	-0.149
-613.273	-200.000	-0.022	0.170
-612.259	800.000	0.093	0.295
-611.244	-200.000	-0.085	0.481
-610.230	149.063	0.114	0.155
-609.215	-13.144	0.205	0.134
-608.201	39.900	-0.179	0.162
-607.186	-170.172	0.108	-0.004
-606.171	445.863	-0.089	0.197
-605.157	-200.000	-0.050	-0.515
-604.142	-1.784	0.108	-0.076
-603.128	40.223	0.186	0.168
-602.113	-39.243	-0.163	0.086
-601.098	-74.496	-0.259	-0.094
-600.084	800.000	0.050	-0.180
-599.069	800.000	0.132	-0.433
-598.055	-117.142	0.202	-0.037
-597.040	39.675	-0.186	0.168
-596.025	208.872	0.207	-0.326
-595.011	13.364	0.085	-0.066
-593.996	800.000	-0.015	0.044
-592.982	-148.760	-0.077	0.006
-591.967	-141.017	-0.214	0.022
-590.952	455.367	0.078	0.173
-589.938	-10.315	0.174	-0.116
-588.923	202.624	-0.039	-0.060
-587.909	-23.579	-0.233	0.141
-586.894	-109.147	-0.157	0.034
-585.879	-142.650	0.291	-0.029
-584.865	121.072	-0.161	0.202
-583.850	32.299	0.141	0.122
-582.836	-168.683	-0.141	0.005
-581.821	257.310	-0.076	0.132
-580.806	800.000	0.078	-0.216
-579.792	-10.514	-0.050	0.034
-578.777	141.694	0.064	0.085
-577.763	-200.000	0.008	-0.116
-576.748	53.866	-0.080	0.078
-575.733	392.343	-0.040	0.084
-574.719	-200.000	0.012	-0.095
-573.704	-200.000	-0.011	-0.124
-572.690	-200.000	0.001	-0.344
-571.675	47.676	-0.342	-0.321
-570.661	788.172	0.129	-0.355
-569.646	-92.298	-0.293	-0.083
-568.631	-66.655	0.161	-0.064
-567.617	24.728	0.055	-0.045
-566.602	-200.000	-0.015	-0.256
-565.588	-110.476	-0.245	-0.051
-564.573	-144.337	0.134	0.012
-563.558	464.781	0.036	0.082
-562.544	-171.298	-0.122	-0.004
-561.529	-24.020	0.137	0.082
-560.515	-120.279	0.161	0.028
-559.500	-176.370	-0.432	0.011
-558.485	-14.517	-0.048	0.031
-557.471	-75.871	0.287	0.102
-556.456	-61.376	-0.274	0.116
-555.442	-200.000	-0.019	-0.205
-554.427	-165.164	-0.203	-0.009
-553.412	63.864	0.210	-0.212
-552.398	-200.000	0.021	-0.096
-551.383	-56.943	-0.188	0.083
-550.369	-200.000	-0.017	0.118
-549.354	-143.101	-0.170	-0.016
-548.339	-95.700	-0.317	-0.085
-547.325	800.000	-0.128	-0.441
-546.310	249.595	-0.081	0.138
-545.296	190.995	0.108	0.163
-544.281	-71.866	0.318	-0.119
-543.266	-192.458	0.411	-0.004
-542.252	82.191	0.112	0.122
-541.237	-79.753	-0.153	0.052
-540.223	-54.991	-0.108	0.049
-539.208	-200.000	0.026	-0.157
-538.193	60.077	-0.272	0.270
-537.179	-22.931	-0.194	-0.117
-536.164	-200.000	-0.031	-0.169
-535.150	364.754	0.057	-0.115
-534.135	70.682	-0.283	0.293
-533.121	-200.000	-0.024	-0.111
-532.106	57.171	0.050	0.049
-531.091	-45.814	-0.263	0.130
-530.077	63.582	-0.228	-0.229
-529.062	-80.869	0.076	-0.025
-528.048	-196.434	0.177	0.001
-527.033	-117.221	-0.334	0.061
-526.018	-200.000	-0.022	0.206
-525.004	408.748	0.018	0.038
-523.989	273.480	0.162	-0.288
-522.975	-200.000	-0.004	-0.056
-521.960	259.959	-0.120	-0.207
-520.945	180.466	-0.162	0.238
-519.931	290.978	0.091	0.166
-518.916	424.989	-0.065	-0.139
-517.902	-118.694	-0.187	0.033
-516.887	396.468	0.073	-0.154
-515.872	36.008	0.091	0.081
-514.858	-200.000	-0.011	-0.493
-513.843	104.940	0.069	0.081
-512.829	585.899	-0.104	0.257
-511.814	198.507	0.169	0.260
-510.799	101.252	-0.326	0.380
-509.785	244.204	-0.123	0.207
-508.770	295.410	0.131	0.240
-507.756	-118.163	-0.276	0.049
-506.741	788.218	-0.111	0.305
-505.726	29.211	0.287	0.244
-504.712	142.247	0.118	0.157
-503.697	-200.000	0.057	0.427
-502.683	-200.000	0.021	-0.221
-501.668	131.686	-0.035	-0.045
-500.653	37.969	-0.051	0.045
-499.639	-96.897	0.152	0.040
-498.624	-200.000	-0.012	0.151
-497.610	-125.844	0.111	0.017
-496.595	-200.000	0.038	0.192
-495.581	-131.257	0.085	-0.011
-494.566	25.185	0.103	-0.086
-493.551	362.439	-0.170	0.341
-492.537	107.124	-0.214	0.254
-491.522	296.183	0.061	-0.111
-490.508	336.575	-0.073	-0.141
-489.493	315.277	-0.095	-0.180
-488.478	-200.000	-0.020	0.163
-487.464	-161.325	-0.559	-0.029
-486.449	4.174	0.140	0.103
-485.435	-200.000	0.060	-0.322
-484.420	-176.297	-0.233	-0.006
-483.405	-200.000	0.002	-0.082
-482.391	-87.508	0.399	-0.121
-481.376	-45.728	0.106	0.053
-480.362	10.991	-0.154	-0.118
-479.347	44.422	0.062	-0.057
-478.332	437.685	-0.041	0.089
-477.318	800.000	0.047	0.142
-476.303	-27.257	0.201	-0.117
-475.289	-102.409	0.121	-0.029
-474.274	-200.000	-0.020	0.217
-473.259	183.286	0.088	0.130
-472.245	-187.358	0.495	0.007
-471.230	106.842	-0.214	-0.254
-470.216	-200.000	0.031	-0.273
-469.201	-200.000	0.002	-0.490
-468.186	36.826	0.409	-0.362
-467.172	-116.720	0.403	0.074
-466.157	-82.113	-0.280	0.091
-465.143	155.605	-0.127	0.175
-464.128	-78.448	-0.251	0.086
-463.113	-82.064	0.209	0.068
-462.099	-141.588	-0.109	0.011
-461.084	-61.910	0.099	0.042
-460.070	87.395	0.144	0.160
-459.055	137.706	-0.104	0.136
-458.040	-200.000	0.045	-0.589
-457.026	-127.769	0.228	-0.033
-456.011	-92.382	-0.327	-0.092
-454.997	-1.166	0.040	0.028
-453.982	800.000	0.043	0.121
-452.968	800.000	-0.043	0.124
-451.953	-48.240	0.161	0.078
-450.938	800.000	-0.038	0.164
-449.924	90.456	-0.116	-0.130
-448.909	136.285	-0.002	-0.003
-447.895	65.201	0.072	0.072
-446.880	800.000	0.213	0.626
-445.865	-7.082	-0.131	-0.089
-444.851	-93.160	-0.032	-0.009
-443.836	438.842	0.108	0.235
-442.822	-85.657	-0.416	0.129
-441.807	44.968	0.174	-0.160
-440.792	47.710	0.291	0.272
-439.778	265.923	-0.104	0.182
-438.763	-94.919	-0.071	-0.019
-437.749	-15.751	-0.139	0.089
-436.734	346.704	-0.184	-0.362
-435.719	-53.754	0.166	-0.076
-434.705	614.156	-0.042	-0.106
-433.690	-200.000	0.045	0.215
-432.676	800.000	-0.099	0.436
-431.661	-97.502	-0.059	-0.015
-430.646	-200.000	0.036	-0.306
-429.632	306.479	0.056	-0.103
-428.617	-200.000	0.001	-0.169
-427.603	-200.000	0.031	-0.196
-426.588	410.832	-0.071	-0.151
-425.573	-200.000	0.013	0.226
-424.559	-60.221	-0.102	-0.043
-423.544	-71.230	0.137	-0.051
-422.530	-163.916	0.124	-0.006
-421.515	73.431	0.192	0.201
-420.500	309.996	0.121	-0.227
-419.486	31.844	0.247	0.213
-418.471	87.269	-0.101	0.112
-417.457	543.692	-0.062	-0.148
-416.442	-200.000	0.046	-0.226
-415.428	230.607	-0.138	-0.226
-414.413	-200.000	0.024	-0.239
-413.398	-162.423	-0.416	0.021
-412.384	-200.000	0.012	0.350
-411.369	122.640	0.096	0.120
-410.355	800.000	0.043	0.143
-409.340	-173.897	-0.287	0.008
-408.325	16.152	-0.164	0.129
-407.311	-200.000	-0.002	0.114
-406.296	-40.074	-0.156	-0.081
-405.282	-114.996	-0.106	-0.020
-404.267	86.821	-0.219	-0.241
-403.252	-200.000	-0.031	-0.313
-402.238	800.000	-0.082	-0.235
-401.223	223.007	0.094	-0.151
-400.209	36.014	0.197	0.173
-399.194	-200.000	-0.021	-0.115
-398.179	175.413	-0.083	-0.120
-397.165	-114.531	0.111	0.021
-396.150	-171.464	-0.075	-0.002
-395.136	-18.038	0.109	-0.068
-394.121	31.216	0.072	0.061
-393.106	169.356	0.130	-0.186
-392.092	-200.000	0.008	0.388
-391.077	-193.731	-0.210	-0.002
-390.063	-102.944	0.230	-0.054
-389.048	-153.707	-0.073	-0.005
-388.033	-115.199	-0.247	0.047
-387.019	406.041	0.157	0.330
-386.004	98.021	-0.164	0.189
-384.990	283.482	-0.128	-0.229
-383.975	420.588	-0.146	-0.311
-382.960	-11.251	-0.099	-0.065
-381.946	277.661	0.172	-0.305
-380.931	-39.434	0.214	0.112
-379.917	35.195	0.083	0.072
-378.902	-89.583	0.334	-0.098
-377.888	-20.515	-0.394	0.241
-376.873	103.272	-0.182	0.213
-375.858	-93.112	-0.106	0.029
-374.844	-178.916	0.039	-0.001
-373.829	-200.000	-0.006	0.295
-372.815	-138.523	-0.176	-0.019
-371.800	315.563	0.046	-0.086
-370.785	505.871	-0.121	-0.279
-369.771	-132.361	-0.191	0.025
-368.756	800.000	-0.068	-0.290
-367.742	173.339	0.137	0.197
-366.727	-62.788	-0.177	-0.073
-365.712	-146.293	0.181	-0.016
-364.698	-200.000	0.012	-0.342
-363.683	-140.358	0.192	-0.020
-362.669	-62.239	0.284	-0.118
-361.654	-200.000	-0.077	0.448
-360.639	258.864	-0.217	0.373
-359.625	800.000	0.026	0.113
-358.610	358.522	0.069	0.138
-357.596	103.390	-0.132	-0.154
-356.581	-37.329	-0.318	-0.170
-355.566	-25.426	0.156	0.092
-354.552	-117.840	-0.288	-0.052
-353.537	34.186	-0.172	0.150
-352.523	-125.049	0.234	0.036
-351.508	-102.110	0.140	-0.034
-350.493	-95.842	0.398	0.106
-349.479	-134.507	-0.171	0.021
-348.464	395.301	0.093	0.192
-347.450	-9.549	-0.110	-0.073
-346.435	199.205	0.047	0.072
-345.420	8.919	0.132	0.099
-344.406	-108.327	0.461	0.099
-343.391	149.210	0.061	0.082
-342.377	-76.864	-0.157	0.055
-341.362	800.000	-0.123	-0.429
-340.348	-200.000	-0.082	-0.366
-339.333	-10.237	-0.139	-0.092
-338.318	509.737	-0.120	0.277
-337.304	-136.519	-0.135	-0.016
-336.289	800.000	-0.102	-0.426
-335.275	-20.503	0.265	-0.162
-334.260	116.943	0.112	-0.137
-333.245	126.000	-0.190	-0.239
-332.231	-50.683	0.323	0.152
-331.216	-150.783	-0.453	-0.034
-330.202	142.346	0.111	-0.147
-329.187	157.650	0.153	0.210
-328.172	-200.000	0.004	-0.019
-327.158	140.698	0.124	-0.163
-326.143	-132.763	0.319	0.041
-325.129	-200.000	0.005	0.149
-324.114	207.817	0.274	0.426
-323.099	-11.751	0.228	0.149
-322.085	-19.751	-0.245	-0.151
-321.070	-163.003	-0.169	-0.008
-320.056	800.000	-0.045	0.140
-319.041	-200.000	-0.035	0.369
-318.026	-53.082	0.152	0.070
-317.012	180.778	0.020	-0.029
-315.997	-33.127	0.328	-0.181
-314.983	-200.000	0.024	-0.244
-313.968	320.579	-0.087	0.165
-312.953	37.422	0.076	-0.067
-311.939	-79.556	-0.335	-0.113
-310.924	-69.381	-0.087	-0.033
-309.910	108.348	0.129	-0.153
-308.895	-69.234	0.143	0.055
-307.880	-31.155	-0.466	-0.262
-306.866	-200.000	-0.034	0.182
-305.851	198.758	-0.126	-0.192
-304.837	36.656	0.127	-0.112
-303.822	135.419	-0.124	0.160
-302.807	-94.401	-0.106	0.029
-301.793	92.110	-0.107	0.120
-300.778	-13.085	0.329	-0.213
-299.764	65.737	-0.109	0.110
-298.749	249.553	0.141	-0.238
-297.735	-12.145	-0.074	-0.048
-296.720	-200.000	0.178	-0.001
-295.705	-200.000	-0.001	0.086
-294.691	-200.000	-0.029	0.187
-293.676	26.178	0.203	-0.169
-292.662	-46.367	-0.109	-0.053
-291.647	-95.274	0.262	0.070
-290.632	68.195	-0.125	-0.128
-289.618	741.093	-0.067	-0.178
-288.603	-200.000	0.051	-0.223
-287.589	-70.840	-0.193	-0.072
-286.574	-200.000	-0.001	0.189
-285.559	-144.317	0.087	-0.008
-284.545	-200.000	0.018	0.113
-283.530	298.953	-0.096	-0.176
-282.516	-200.000	0.008	-0.127
-281.501	-32.134	0.363	0.202
-280.486	-200.000	0.007	0.063
-279.472	-71.282	0.253	0.094
-278.457	99.185	-0.381	-0.438
-277.443	463.108	-0.037	-0.083
-276.428	5.942	0.300	0.221
-275.413	800.000	-0.082	0.323
-274.399	176.609	-0.092	-0.133
-273.384	-100.412	-0.273	-0.067
-272.370	-87.948	-0.299	-0.089
-271.355	-58.294	-0.318	0.137
-270.340	83.342	0.180	-0.195
-269.326	800.000	0.020	0.062
-268.311	96.271	0.078	-0.089
-267.297	-200.000	-0.129	0.712
-266.282	-200.000	0.248	-0.001
-265.267	-93.932	-0.041	-0.011
-264.253	-74.682	-0.326	-0.117
-263.238	-61.278	0.269	-0.113
-262.224	-186.411	0.206	-0.003
-261.209	-21.603	-0.300	0.182
-260.195	-200.000	-0.014	-0.080
-259.180	126.939	-0.173	0.218
-258.165	27.084	-0.055	0.046
-257.151	147.313	0.118	-0.158
-256.136	38.130	-0.228	0.202
-255.122	800.000	-0.039	-0.159
-254.107	-200.000	0.024	0.139
-253.092	-33.354	0.174	0.096
-252.078	-135.501	-0.129	-0.015
-251.063	-114.999	0.172	-0.032
-250.049	-189.903	0.249	-0.003
-249.034	800.000	0.015	0.057
-248.019	-32.158	0.105	-0.058
-247.005	158.414	0.116	0.159
-245.990	25.145	-0.035	0.029
-244.976	93.588	-0.109	-0.122
-243.961	460.717	0.079	-0.174
-242.946	8.726	-0.098	0.073
-241.932	800.000	0.119	0.460
-240.917	-200.000	0.006	0.360
-239.903	135.906	0.046	0.059
-238.888	-73.290	-0.201	0.073
-237.873	-200.000	0.030	0.136
-236.859	328.965	-0.146	0.277
-235.844	103.153	-0.158	0.184
-234.830	-42.962	-0.189	-0.095
-233.815	-142.212	0.132	0.013
-232.800	110.437	0.166	-0.197
-231.786	-26.843	-0.115	-0.066
-230.771	680.886	-0.074	-0.191
-229.757	-9.543	-0.151	-0.100
-228.742	239.893	0.144	-0.237
-227.727	-200.000	0.010	-0.146
-226.713	350.649	0.115	-0.226
-225.698	43.342	0.248	-0.225
-224.684	-114.280	0.234	0.045
-223.669	-135.999	-0.132	-0.015
-222.655	-200.000	-0.036	0.167
-221.640	-72.178	-0.070	-0.026
-220.625	21.350	0.274	0.220
-219.611	50.726	0.264	-0.248
-218.596	800.000	-0.168	0.487
-217.582	143.926	-0.056	-0.074
-216.567	252.761	-0.159	-0.270
-215.552	130.564	0.290	-0.369
-214.538	-85.145	0.197	0.061
-213.523	-129.604	-0.552	-0.076
-212.509	-104.588	0.175	-0.040
-211.494	223.237	-0.142	0.226
-210.479	-127.925	0.260	0.037
-209.465	-174.258	0.109	0.003
-208.450	-200.000	0.045	-0.341
-207.436	106.001	-0.045	-0.052
-206.421	-91.510	0.022	0.006
-205.406	192.319	-0.069	0.104
-204.392	-130.459	0.187	0.025
-203.377	-199.865	0.184	0.001
-202.363	-200.000	-0.007	-0.369
-201.348	-172.016	0.139	0.004
-200.333	1.244	-0.089	0.063
-199.319	-101.525	-0.177	-0.043
-198.304	-28.569	0.346	-0.197
-197.290	-69.277	-0.159	-0.060
-196.275	535.553	-0.071	0.168
-195.260	-102.646	0.388	-0.092
-194.246	72.013	0.230	0.237
-193.231	-200.000	-0.009	0.066
-192.217	-18.202	-0.301	-0.187
-191.202	800.000	0.075	-0.257
-190.187	187.095	0.046	-0.068
-189.173	800.000	0.024	-0.076
-188.158	-112.778	0.275	-0.054
-187.144	-149.490	0.236	-0.019
-186.129	-200.000	0.037	-0.163
-185.114	666.274	-0.014	0.036
-184.100	17.275	0.257	0.202
-183.085	30.729	0.253	-0.214
-182.071	81.179	-0.021	0.022
-181.056	-25.617	-0.153	0.089
-180.042	42.347	0.158	-0.142
-179.027	-46.470	0.308	0.150
-178.012	137.673	-0.167	0.217
-176.998	-22.509	0.159	0.095
-175.983	418.848	-0.106	0.224
-174.969	-200.000	0.048	0.291
-173.954	107.267	-0.288	0.339
-172.939	99.137	-0.185	0.211
-171.925	-19.150	-0.223	-0.137
-170.910	-31.629	-0.103	-0.057
-169.896	350.031	-0.155	0.303
-168.881	-153.597	0.092	0.006
-167.866	70.294	-0.179	0.183
-166.852	286.138	-0.063	-0.113
-165.837	19.641	0.115	0.091
-164.823	-140.133	-0.214	0.022
-163.808	41.955	-0.066	-0.059
-162.793	16.127	-0.241	0.188
-161.779	26.743	0.087	-0.072
-160.764	113.589	-0.173	-0.208
-159.750	-7.803	0.282	0.189
-158.735	-200.000	0.009	-0.151
-157.720	71.964	0.146	-0.150
-156.706	-200.000	-0.003	0.030
-155.691	-126.524	0.170	-0.025
-154.677	800.000	-0.078	0.293
-153.662	-107.029	-0.221	-0.048
-152.647	52.272	-0.152	0.143
-151.633	32.390	0.063	0.053
-150.618	-135.256	-0.077	-0.009
-149.604	629.167	0.138	0.344
-148.589	-22.432	-0.107	0.064
-147.574	14.327	-0.167	-0.128
-146.560	-18.116	-0.317	-0.196
-145.545	-200.000	-0.022	0.137
-144.531	-15.461	-0.075	0.048
-143.516	-200.000	-0.007	0.282
-142.502	-104.228	0.584	0.134
-141.487	267.268	0.129	-0.222
-140.472	203.829	0.192	-0.293
-139.458	181.511	0.054	0.079
-138.443	-141.240	-0.139	0.014
-137.429	-135.854	0.270	-0.031
-136.414	-100.933	0.375	0.091
-135.399	800.000	0.036	-0.103
-134.385	149.903	-0.092	-0.123
-133.370	200.431	-0.122	0.184
-132.356	751.345	-0.013	0.034
-131.341	60.032	0.141	0.138
-130.326	-137.213	0.100	-0.011
-129.312	369.759	-0.090	0.179
-128.297	207.692	-0.141	0.218
-127.283	36.971	0.227	-0.199
-126.268	58.364	0.315	-0.306
-125.253	30.917	0.105	0.089
-124.239	29.822	-0.008	-0.007
-123.224	-111.914	0.123	-0.024
-122.210	-86.442	0.161	0.049
-121.195	-16.487	-0.215	-0.134
-120.180	-78.155	-0.337	-0.114
-119.166	274.223	-0.196	0.342
-118.151	-200.000	0.034	0.218
-117.137	26.873	-0.038	0.032
-116.122	-147.459	-0.394	-0.033
-115.107	2.629	0.315	-0.226
-114.093	152.835	-0.180	-0.243
-113.078	205.228	0.155	0.238
-112.064	-200.000	-0.034	0.148
-111.049	800.000	-0.007	0.018
-110.034	352.340	-0.121	-0.236
-109.020	471.126	0.185	0.410
-108.005	-25.334	-0.155	0.091
-106.991	-19.536	0.146	0.089
-105.976	-21.970	-0.204	-0.123
-104.962	367.803	-0.042	-0.084
-103.947	-173.570	-0.214	-0.006
-102.932	-34.449	0.424	-0.229
-101.918	374.748	0.134	-0.269
-100.903	-8.868	-0.358	-0.237
-99.889	203.485	0.035	0.053
-98.874	-163.691	0.192	-0.009
-97.859	253.328	0.083	-0.140
-96.845	-38.801	0.328	0.171
-95.830	-143.604	-0.156	-0.015
-94.816	-200.000	0.068	-0.365
-93.801	142.431	0.165	-0.215
-92.786	-122.917	-0.187	0.030
-91.772	800.000	-0.021	-0.076
-90.757	800.000	0.046	-0.131
-89.743	-131.402	0.179	-0.023
-88.728	800.000	0.050	0.136
-87.713	-100.153	-0.210	0.052
-86.699	-92.478	0.145	0.040
-85.684	162.950	-0.109	-0.151
-84.670	-173.286	-0.202	0.006
-83.655	97.193	-0.248	-0.281
-82.640	454.501	-0.019	-0.043
-81.626	138.875	0.111	-0.144
-80.611	24.234	-0.090	0.073
-79.597	136.296	-0.256	0.329
-78.582	800.000	0.117	0.380
-77.567	-16.667	0.037	-0.023
-76.553	57.736	-0.064	0.061
-75.538	-4.503	-0.113	-0.077
-74.524	41.852	0.013	0.012
-73.509	-150.840	0.411	-0.031
-72.494	-12.538	-0.213	0.137
-71.480	800.000	0.095	-0.305
-70.465	800.000	0.034	-0.111
-69.451	80.065	-0.016	0.017
-68.436	342.141	-0.112	-0.217
-67.422	56.313	0.257	-0.246
-66.407	800.000	0.090	0.318
-65.392	363.328	0.132	-0.261
-64.378	-184.689	-0.206	0.003
-63.363	-200.000	-0.007	0.037
-62.349	-44.599	0.016	0.008
-61.334	-28.298	-0.739	-0.421
-60.319	159.786	0.265	0.363
-59.305	263.596	-0.384	-0.658
-58.290	121.322	0.700	0.858
-57.276	728.550	0.547	1.438
-56.261	-200.000	92.052	540.992
-55.246	613.760	1377.340	3397.216
-54.232	190.571	2590.839	3834.942
-53.217	118.909	2306.051	2806.893
-52.203	46.232	1923.628	1755.408
-51.188	39.890	1712.659	1514.399
-50.173	36.859	1668.806	1452.875
-49.159	53.654	1715.723	1621.727
-48.144	57.176	1733.545	1665.248
-47.130	39.578	1690.387	1492.110
-46.115	36.477	1676.421	1456.390
-45.100	36.481	1670.700	1451.395
-44.086	36.361	1668.225	1448.290
-43.071	36.326	1665.541	1445.634
-42.057	36.252	1663.499	1443.257
-41.042	36.280	1661.811	1441.938
-40.027	36.355	1659.633	1440.557
-39.013	36.351	1657.531	1438.642
-37.998	36.273	1656.441	1437.060
-36.984	36.273	1655.119	1435.856
-35.969	36.370	1653.219	1434.871
-34.954	36.399	1651.692	1433.705
-33.940	36.507	1649.586	1432.616
-32.925	36.498	1648.042	1431.156
-31.911	36.356	1646.939	1429.089
-30.896	36.456	1644.599	1427.743
-29.881	36.380	1643.085	1425.809
-28.867	36.486	1641.465	1425.127
-27.852	36.443	1639.702	1423.225
-26.838	36.484	1638.565	1422.482
-25.823	36.492	1637.093	1421.205
-24.809	36.507	1635.612	1419.978
-23.794	36.429	1634.330	1418.236
-22.779	36.447	1632.597	1416.803
-21.765	36.494	1630.887	1415.610
-20.750	36.411	1629.423	1413.673
-19.736	36.502	1627.873	1412.940
-18.721	36.501	1626.520	1411.703
-17.706	36.432	1625.187	1409.989
-16.692	36.489	1623.182	1408.604
-15.677	36.461	1622.212	1407.506
-14.663	36.486	1620.774	1406.382
-13.648	36.507	1619.127	1405.048
-12.633	36.430	1617.812	1403.293
-11.619	36.473	1616.257	1402.203
-10.604	36.451	1614.617	1400.561
-9.590	36.463	1613.653	1399.761
-8.575	36.536	1612.144	1398.919
-7.560	36.487	1611.066	1397.576
-6.546	36.459	1609.713	1396.147
-5.531	36.387	1609.273	1395.188
-4.517	36.459	1607.454	1394.078
-3.502	36.466	1606.693	1393.411
-2.487	36.529	1605.169	1392.487
-1.473	36.142	1593.541	1379.578
-0.458	32.894	1572.919	1338.684
0.556	29.351	1571.494	1301.163
1.571	26.644	1594.635	1300.793
2.586	25.778	1608.025	1305.327
3.600	22.631	1554.379	1239.578
4.615	13.801	1442.392	1092.303
5.629	6.179	1376.834	994.511
6.644	5.029	1367.987	980.804
7.659	4.916	1366.860	979.199
8.673	4.843	1365.808	977.898
9.688	4.922	1364.132	977.108
10.702	4.957	1361.177	975.124
11.717	7.982	1367.706	998.706
12.731	16.094	1382.474	1060.627
13.746	20.768	1389.105	1095.091
14.761	20.171	1386.881	1089.487
15.775	19.196	1383.796	1080.857
16.790	18.085	1381.584	1072.064
17.804	17.226	1379.269	1064.799
18.819	16.797	1377.952	1060.998
19.834	16.612	1376.528	1058.649
20.848	16.383	1375.549	1056.374
21.863	16.155	1374.323	1053.913
22.877	15.960	1373.024	1051.607
23.892	15.869	1372.557	1050.591
24.907	15.961	1371.278	1050.090
25.921	15.970	1370.433	1049.403
26.936	16.042	1369.514	1049.054
27.950	16.006	1368.934	1048.295
28.965	16.171	1367.251	1047.939
29.980	16.266	1366.728	1048.034
30.994	16.334	1364.813	1046.898
32.009	16.376	1364.406	1046.750
33.023	16.326	1363.505	1045.661
34.038	16.170	1361.827	1043.317
35.053	16.260	1360.270	1042.585
36.067	16.174	1359.825	1041.622
37.082	16.111	1358.857	1040.397
38.096	16.233	1357.447	1039.978
39.111	16.257	1356.724	1039.483
40.126	16.124	1355.923	1037.954
41.140	16.035	1354.517	1036.240
42.155	15.927	1354.490	1035.466
43.169	15.810	1354.132	1034.379
44.184	15.879	1353.881	1034.520
45.199	15.820	1354.033	1034.183
46.213	15.941	1353.171	1034.178
47.228	16.097	1351.731	1033.942
48.242	16.111	1350.844	1033.258
49.257	16.182	1349.449	1032.531
50.271	16.112	1347.866	1030.801
51.286	16.172	1346.710	1030.193
52.301	16.160	1345.525	1029.122
53.315	16.004	1344.524	1027.318
54.330	15.906	1343.372	1025.748
55.344	15.892	1342.318	1024.764
56.359	15.897	1341.047	1023.735
57.374	15.812	1340.011	1022.338
58.388	15.867	1339.498	1022.192
59.403	15.709	1339.179	1020.900
60.417	15.791	1337.981	1020.391
61.432	15.803	1337.140	1019.730
62.447	15.750	1335.929	1018.398
63.461	15.605	1335.377	1017.010
64.476	15.697	1333.507	1016.048
65.490	15.677	1332.897	1015.373
66.505	15.695	1331.426	1014.272
67.520	15.813	1329.643	1013.533
68.534	15.758	1329.236	1012.804
69.549	15.846	1327.725	1012.095
70.563	15.670	1327.423	1010.717
71.578	15.658	1325.710	1009.247
72.593	15.628	1324.678	1008.195
73.607	15.529	1324.191	1007.139
74.622	15.656	1323.345	1007.168
75.636	15.662	1322.693	1006.619
76.651	15.648	1322.195	1006.067
77.666	15.600	1321.651	1005.278
78.680	15.745	1321.096	1005.634
79.695	15.743	1320.350	1004.967
80.709	15.821	1319.555	1004.734
81.724	15.921	1318.446	1004.401
82.739	15.951	1317.517	1003.781
83.753	15.922	1317.121	1003.218
84.768	16.061	1316.227	1003.274
85.782	16.256	1314.543	1003.066
86.797	16.247	1313.349	1002.013
87.812	16.143	1312.136	1000.377
88.826	16.010	1311.280	998.848
89.841	16.188	1309.659	998.578
90.855	16.136	1309.007	997.685
91.870	16.193	1308.269	997.374
92.884	16.212	1307.544	996.843
93.899	16.178	1306.889	996.057
94.914	16.243	1306.432	996.002
95.928	16.315	1305.006	995.251
96.943	16.247	1304.297	994.220
97.957	16.185	1303.127	992.878
98.972	16.170	1302.130	991.946
99.987	16.242	1301.245	991.602
101.001	16.254	1300.258	990.832
102.016	16.154	1299.467	989.558
103.030	16.126	1298.909	988.878
104.045	16.103	1297.697	987.734
105.060	16.085	1296.418	986.568
106.074	15.921	1294.966	984.420
107.089	15.894	1293.604	983.137
108.103	15.848	1292.124	981.661
109.118	15.825	1290.879	980.491
110.133	15.861	1289.967	979.923
111.147	15.805	1288.324	978.260
112.162	15.893	1286.636	977.406
113.176	15.891	1286.123	976.917
114.191	16.017	1284.983	976.697
115.206	15.997	1283.634	975.466
116.220	15.905	1282.976	974.351
117.235	15.833	1282.037	973.132
118.249	15.770	1280.899	971.816
119.264	15.862	1279.742	971.385
120.279	15.866	1278.114	970.087
121.293	15.875	1277.273	969.415
122.308	15.840	1276.122	968.254
123.322	15.797	1275.183	967.209
124.337	15.727	1274.508	966.210
125.352	15.755	1273.081	965.205
126.366	15.769	1272.243	964.560
127.381	15.809	1271.171	963.894
128.395	15.858	1269.971	963.176
129.410	15.902	1268.956	962.575
130.424	15.825	1268.921	962.020
131.439	15.812	1267.765	960.985
132.454	15.893	1266.806	960.637
133.468	15.932	1265.847	960.050
134.483	16.045	1264.950	959.925
135.497	15.873	1264.251	958.332
136.512	15.917	1262.888	957.463
137.527	15.975	1261.503	956.656
138.541	16.043	1260.057	955.861
139.556	15.972	1259.101	954.654
140.570	16.089	1257.948	954.353
141.585	16.106	1256.885	953.561
142.600	16.233	1255.636	953.247
143.614	16.229	1254.956	952.622
144.629	16.207	1253.910	951.622
145.643	16.264	1252.734	950.967
146.658	16.115	1251.698	949.258
147.673	16.080	1250.375	947.972
148.687	16.013	1248.967	946.444
149.702	16.103	1247.275	945.581
150.716	15.904	1246.316	943.657
151.731	16.029	1245.098	943.353
152.746	15.973	1244.052	942.163
153.760	16.114	1242.374	941.598
154.775	16.130	1241.529	940.958
155.789	16.156	1240.703	940.398
156.804	16.171	1239.686	939.626
157.819	16.157	1239.111	939.027
158.833	16.256	1238.003	938.656
159.848	16.398	1236.656	938.340
160.862	16.354	1235.607	937.217
161.877	16.156	1234.909	935.505
162.892	16.109	1233.689	934.238
163.906	16.019	1233.207	933.294
164.921	16.175	1231.536	932.807
165.935	16.186	1231.157	932.499
166.950	16.177	1230.332	931.745
167.964	16.208	1229.265	931.026
168.979	16.189	1228.697	930.407
169.994	16.181	1227.591	929.444
171.008	16.105	1227.169	928.622
172.023	16.223	1226.730	928.855
173.037	16.304	1225.943	928.625
174.052	16.382	1224.680	928.015
175.067	16.210	1223.487	926.087
176.081	16.043	1222.667	924.465
177.096	16.218	1221.664	924.583
178.110	16.248	1220.671	923.917
179.125	16.156	1219.371	922.344
180.140	16.144	1218.410	921.471
181.154	16.276	1217.155	921.163
182.169	16.399	1215.649	920.613
183.183	16.400	1214.886	919.958
184.198	16.466	1213.366	919.082
185.213	16.460	1212.342	918.197
186.227	16.459	1211.528	917.492
187.242	16.501	1210.519	916.873
188.256	16.478	1209.861	916.170
189.271	16.590	1208.397	915.588
190.286	16.423	1207.642	914.030
191.300	16.129	1206.753	911.687
192.315	16.084	1206.112	910.881
193.329	16.110	1205.250	910.289
194.344	16.154	1204.675	910.013
195.359	16.251	1203.979	909.925
196.373	16.343	1203.702	910.132
197.388	16.527	1202.829	910.383
198.402	16.605	1202.757	910.666
199.417	16.667	1202.320	910.592
200.432	16.780	1201.306	910.348
201.446	16.854	1200.427	910.001
202.461	16.753	1199.924	908.995
203.475	16.753	1198.824	908.082
204.490	16.739	1196.909	906.477
205.504	16.620	1195.835	904.948
206.519	16.566	1195.076	904.004
207.534	16.621	1193.649	903.138
208.548	16.581	1192.747	902.159
209.563	16.722	1191.797	902.115
210.577	16.633	1191.188	901.101
211.592	16.695	1190.223	900.622
212.607	16.747	1189.901	900.576
213.621	16.786	1188.693	899.784
214.636	16.743	1187.890	898.872
215.650	16.881	1187.000	898.850
216.665	16.812	1186.113	897.733
217.680	16.985	1184.967	897.700
218.694	16.950	1184.554	897.126
219.709	16.942	1183.922	896.525
220.723	17.062	1182.664	896.125
221.738	16.951	1182.132	895.055
222.753	16.973	1181.034	894.265
223.767	16.863	1180.798	893.425
224.782	16.967	1179.974	893.271
225.796	17.069	1179.518	893.383
226.811	17.138	1178.678	893.033
227.826	16.937	1177.895	891.300
228.840	17.009	1176.895	890.844
229.855	16.987	1176.270	890.178
230.869	17.027	1175.255	889.537
231.884	16.927	1174.349	888.252
232.899	16.962	1173.704	887.870
233.913	16.808	1173.489	886.822
234.928	16.901	1171.890	886.020
235.942	16.838	1171.300	885.168
236.957	16.858	1170.809	884.822
237.972	16.805	1170.651	884.345
238.986	16.962	1169.566	884.269
240.001	16.862	1168.963	883.213
241.015	16.868	1167.807	882.295
242.030	17.066	1166.971	882.613
243.045	16.929	1166.412	881.402
244.059	17.091	1165.453	881.438
245.074	17.034	1165.161	880.845
246.088	17.170	1163.978	880.574
247.103	17.060	1163.449	879.530
248.117	17.177	1162.236	879.137
249.132	17.433	1161.958	880.175
250.147	17.477	1161.186	879.740
251.161	17.461	1160.921	879.377
252.176	17.571	1159.911	879.104
253.190	17.659	1159.124	878.885
254.205	17.688	1158.690	878.628
255.220	17.755	1158.286	878.588
256.234	17.602	1157.562	877.173
257.249	17.615	1156.832	876.606
258.263	17.679	1156.040	876.260
259.278	17.615	1155.400	875.367
260.293	17.600	1154.928	874.857
261.307	17.703	1154.584	875.049
262.322	17.765	1153.683	874.602
263.336	17.775	1153.029	874.085
264.351	17.812	1152.382	873.702
265.366	17.841	1151.646	873.218
266.380	17.892	1150.712	872.691
267.395	17.794	1150.002	871.573
268.409	17.737	1149.082	870.513
269.424	17.672	1148.694	869.808
270.439	17.686	1148.369	869.557
271.453	17.707	1147.278	868.758
272.468	17.760	1145.877	867.890
273.482	17.612	1145.859	867.049
274.497	17.662	1145.080	866.638
275.512	17.785	1144.262	866.568
276.526	17.736	1143.343	865.544
277.541	17.721	1142.764	864.955
278.555	17.744	1142.408	864.723
279.570	17.885	1141.459	864.645
280.585	17.995	1140.394	864.318
281.599	18.017	1139.592	863.743
282.614	17.892	1138.493	862.201
283.628	17.790	1137.707	861.017
284.643	17.783	1136.936	860.321
285.657	17.843	1135.734	859.639
286.672	17.931	1134.825	859.318
287.687	17.883	1133.975	858.357
288.701	17.882	1133.400	857.841
289.716	17.956	1132.736	857.633
290.730	17.847	1132.152	856.567
291.745	17.936	1131.314	856.303
292.760	18.034	1130.617	856.191
293.774	18.001	1130.365	855.763
294.789	18.117	1129.680	855.746
295.803	18.209	1128.787	855.455
296.818	17.971	1127.876	853.498
297.833	18.075	1127.165	853.407
298.847	18.076	1126.046	852.488
299.862	17.952	1125.783	851.595
300.876	18.045	1124.981	851.376
301.891	18.146	1124.422	851.379
302.906	18.183	1123.903	851.098
303.920	18.243	1123.153	850.751
304.935	18.354	1122.432	850.683
305.949	18.375	1121.845	850.266
306.964	18.430	1121.105	849.901
307.979	18.395	1120.345	849.080
308.993	18.347	1119.572	848.179
310.008	18.336	1119.040	847.647
311.022	18.392	1118.491	847.434
312.037	18.437	1117.597	846.901
313.052	18.357	1116.363	845.499
314.066	18.184	1115.454	843.884
315.081	18.181	1114.948	843.411
316.095	18.145	1113.865	842.337
317.110	18.118	1113.429	841.800
318.125	18.038	1112.555	840.673
319.139	18.212	1111.655	840.770
320.154	18.206	1111.274	840.378
321.168	18.306	1109.864	839.732
322.183	18.217	1109.775	839.151
323.197	18.425	1109.033	839.536
324.212	18.265	1109.087	838.716
325.227	18.317	1108.254	838.267
326.241	18.339	1107.491	837.726
327.256	18.416	1106.536	837.305
328.270	18.372	1105.581	836.295
329.285	18.303	1104.893	835.365
330.300	18.345	1103.857	834.712
331.314	18.331	1103.000	833.922
332.329	18.391	1101.978	833.365
333.343	18.403	1101.068	832.663
334.358	18.434	1100.452	832.271
335.373	18.463	1099.906	831.927
336.387	18.505	1098.980	831.358
337.402	18.506	1098.205	830.704
338.416	18.557	1097.645	830.454
339.431	18.642	1096.905	830.231
340.446	18.661	1096.535	829.967
341.460	18.734	1096.014	829.854
342.475	18.775	1095.085	829.276
343.489	18.836	1094.184	828.812
344.504	18.835	1093.290	828.060
345.519	19.029	1092.231	828.115
346.533	19.000	1091.388	827.266
347.548	19.012	1090.662	826.700
348.562	18.967	1090.111	825.992
349.577	18.845	1089.173	824.624
350.592	18.771	1088.415	823.619
351.606	18.664	1088.067	822.771
352.621	18.661	1086.875	821.784
353.635	18.632	1086.638	821.394
354.650	18.668	1085.703	820.786
355.665	18.834	1085.006	820.978
356.679	18.793	1084.124	820.045
357.694	18.727	1083.936	819.511
358.708	18.890	1083.368	819.789
359.723	18.797	1082.566	818.668
360.738	19.004	1081.632	818.873
361.752	18.982	1081.236	818.398
362.767	18.938	1080.793	817.778
363.781	18.940	1080.335	817.369
364.796	19.047	1079.697	817.321
365.810	19.114	1078.943	817.000
366.825	19.226	1078.710	817.281
367.840	19.269	1078.177	817.006
368.854	19.330	1077.319	816.575
369.869	19.308	1076.222	815.567
370.883	19.290	1075.405	814.792
371.898	19.092	1075.010	813.485
372.913	19.217	1074.238	813.419
373.927	19.244	1073.854	813.182
374.942	19.410	1072.902	813.171
375.956	19.261	1072.941	812.425
376.971	19.164	1072.528	811.585
377.986	19.241	1071.364	810.995
379.000	19.314	1071.365	811.269
380.015	19.548	1070.366	811.537
381.029	19.506	1069.931	810.941
382.044	19.467	1068.990	809.972
383.059	19.454	1068.630	809.565
384.073	19.464	1067.669	808.813
385.088	19.356	1067.124	807.825
386.102	19.501	1065.911	807.512
387.117	19.534	1064.815	806.763
388.132	19.403	1063.576	805.145
389.146	19.368	1062.859	804.366
390.161	19.254	1062.353	803.381
391.175	19.398	1061.521	803.350
392.190	19.418	1060.873	802.881
393.205	19.546	1060.239	802.928
394.219	19.444	1059.867	802.101
395.234	19.411	1058.588	800.906
396.248	19.417	1057.484	800.030
397.263	19.415	1056.394	799.123
398.278	19.366	1056.117	798.619
399.292	19.297	1055.437	797.712
400.307	19.325	1054.386	796.980
401.321	19.329	1053.633	796.358
402.336	19.467	1053.002	796.444
403.350	19.417	1052.135	795.488
404.365	19.408	1051.907	795.205
405.380	19.380	1051.351	794.586
406.394	19.520	1050.357	794.410
407.409	19.586	1049.628	794.089
408.423	19.781	1048.858	794.334
409.438	19.822	1048.154	793.917
410.453	19.737	1047.906	793.270
411.467	19.837	1047.395	793.273
412.482	19.891	1046.766	792.971
413.496	19.931	1045.632	792.227
414.511	20.054	1044.969	792.218
415.526	20.064	1044.823	792.083
416.540	20.048	1044.421	791.632
417.555	20.076	1043.649	791.105
418.569	19.930	1043.566	790.307
419.584	19.925	1043.277	789.995
420.599	19.978	1042.351	789.464
421.613	150.822	1399.599	1787.209
422.628	138.056	1451.641	1787.359
