DTS Sentinel unit serial number:	SN413079Multiplexer serial number:	ORYXHardware model number:	OX4-SRSoftware version number:	ORYX F/W v4.00 Oryx Data Collector v3.7.2.0data status	okinstallation	princeton_trtdifferential loss correction	single-endedforward channel	channel 2reverse channel	N/Adate	2019/09/14time	05:59:35forward acquisition time	60.00reverse acquisition time	0.00gamma	496.2192k internal	0.2336k external	0.2336temperature offset calibration	1.0130default loss term (dB/km)	0.3790temperature slope calibration	1.0000multiplexer offset coefficient	1.0000multiplexer slope coefficient	1.0000fibre end	0.00T internal ref (°C)	26.83T ext. ref 1 (°C)	3.40T ext. ref 2 (°C)	21.02length (m)	temperature (°C)	Stokes	anti-Stokes-747.200	5.737	-0.186	-0.138
-746.185	21.776	-0.161	0.132
-745.171	53.567	-0.247	-0.238
-744.156	-200.000	-0.049	0.273
-743.142	110.819	-0.153	0.185
-742.127	-10.918	-0.151	-0.100
-741.112	214.661	-0.092	0.147
-740.098	-58.203	-0.126	-0.055
-739.083	-136.066	0.199	-0.023
-738.069	504.096	-0.045	0.105
-737.054	-61.632	0.201	0.085
-736.039	-200.000	-0.023	0.264
-735.025	193.650	-0.253	0.384
-734.010	-26.046	-0.220	-0.130
-732.996	-57.744	-0.188	0.082
-731.981	800.000	-0.093	0.303
-730.966	-22.161	-0.231	-0.141
-729.952	-200.000	-0.017	0.231
-728.937	-20.700	-0.199	-0.123
-727.923	-200.000	-0.004	-0.324
-726.908	800.000	-0.049	0.151
-725.894	-200.000	0.004	0.021
-724.879	399.171	-0.177	-0.371
-723.864	348.949	0.039	0.078
-722.850	800.000	-0.082	-0.246
-721.835	-152.044	-0.241	0.018
-720.821	119.577	-0.081	-0.101
-719.806	-152.089	-0.081	-0.006
-718.791	-35.206	-0.121	-0.066
-717.777	-40.078	0.284	-0.148
-716.762	-166.138	-0.076	-0.003
-715.748	-200.000	0.007	0.132
-714.733	-118.490	-0.232	0.041
-713.718	-200.000	-0.020	-0.105
-712.704	-200.000	-0.004	-0.061
-711.689	-131.693	0.525	0.069
-710.675	238.577	-0.057	0.095
-709.660	-200.000	0.044	-0.306
-708.645	800.000	-0.152	0.490
-707.631	-5.687	0.203	-0.139
-706.616	186.111	0.135	-0.201
-705.602	-200.000	-0.009	0.177
-704.587	20.471	0.115	0.093
-703.572	-112.848	0.283	0.056
-702.558	-73.833	-0.156	0.057
-701.543	30.800	-0.122	-0.105
-700.529	89.137	0.298	0.333
-699.514	71.851	-0.211	-0.220
-698.499	-200.000	-0.008	-0.517
-697.485	178.914	-0.169	-0.248
-696.470	-35.323	-0.090	0.049
-695.456	-72.272	0.221	-0.082
-694.441	-200.000	0.016	0.146
-693.426	39.547	0.211	0.190
-692.412	-23.334	0.180	0.108
-691.397	122.266	-0.118	-0.148
-690.383	-32.438	-0.142	-0.079
-689.368	-48.415	0.228	0.110
-688.354	-200.000	-0.064	0.295
-687.339	256.396	-0.071	0.122
-686.324	-24.310	-0.266	-0.159
-685.310	651.025	-0.153	-0.393
-684.295	-162.696	0.136	-0.007
-683.281	16.621	0.114	-0.091
-682.266	-200.000	0.005	-0.126
-681.251	-200.000	-0.019	-0.093
-680.237	-60.518	0.312	-0.133
-679.222	48.040	-0.278	0.260
-678.208	-200.000	-0.011	-0.084
-677.193	-171.989	0.149	-0.005
-676.178	-110.823	-0.269	0.056
-675.164	-158.891	0.131	0.007
-674.149	175.719	-0.132	0.191
-673.135	97.550	0.044	0.051
-672.120	-66.236	-0.178	-0.071
-671.105	800.000	-0.082	-0.252
-670.091	92.774	0.098	-0.111
-669.076	94.297	-0.383	-0.436
-668.062	-15.780	-0.504	-0.322
-667.047	-103.415	-0.223	0.052
-666.032	-43.085	-0.143	-0.072
-665.018	-23.508	-0.104	-0.062
-664.003	39.836	-0.063	0.057
-662.989	324.744	0.074	0.141
-661.974	800.000	0.029	-0.110
-660.959	-43.169	0.176	-0.089
-659.945	528.221	0.062	0.147
-658.930	230.155	0.045	0.074
-657.916	-200.000	-0.002	0.068
-656.901	592.993	-0.085	-0.211
-655.886	-91.748	-0.123	-0.035
-654.872	-32.611	-0.070	0.039
-653.857	98.807	-0.070	-0.080
-652.843	-119.695	-0.546	-0.094
-651.828	406.548	0.147	0.310
-650.814	162.924	-0.135	0.190
-649.799	19.377	-0.101	-0.081
-648.784	-60.430	-0.286	0.122
-647.770	216.055	-0.193	0.307
-646.755	-200.000	-0.041	0.430
-645.741	-193.517	0.071	0.001
-644.726	-200.000	-0.009	-0.138
-643.711	-200.000	0.045	-0.324
-642.697	-109.024	0.225	-0.048
-641.682	-104.715	-0.190	0.044
-640.668	111.756	0.052	-0.063
-639.653	-129.377	-0.249	-0.035
-638.638	4.369	0.078	-0.057
-637.624	800.000	0.038	-0.163
-636.609	-200.000	-0.132	0.000
-635.595	67.073	0.243	0.248
-634.580	446.302	-0.124	-0.272
-633.565	-31.838	0.134	0.075
-632.551	15.618	-0.163	-0.128
-631.536	1.308	-0.253	-0.182
-630.522	-53.138	0.077	-0.035
-629.507	480.380	-0.147	-0.334
-628.492	74.227	-0.134	0.141
-627.478	291.360	0.223	0.406
-626.463	329.631	-0.126	0.242
-625.449	166.204	-0.150	0.212
-624.434	-94.559	0.066	0.018
-623.419	-91.094	-0.280	-0.080
-622.405	800.000	0.059	-0.165
-621.390	-125.575	-0.192	0.029
-620.376	39.146	0.073	0.066
-619.361	103.801	0.149	-0.175
-618.346	-200.000	-0.087	-0.428
-617.332	108.107	0.256	-0.305
-616.317	194.302	-0.034	0.052
-615.303	-200.000	0.026	0.143
-614.288	145.284	0.146	-0.195
-613.273	-75.732	0.323	0.115
-612.259	-50.046	-0.145	-0.069
-611.244	-77.348	0.159	0.055
-610.230	-178.794	0.181	-0.004
-609.215	108.276	-0.081	0.097
-608.201	11.736	-0.097	0.075
-607.186	-200.000	-0.040	0.370
-606.171	-138.762	-0.103	-0.011
-605.157	800.000	-0.088	-0.266
-604.142	386.711	0.047	0.096
-603.128	-192.802	-0.096	-0.001
-602.113	63.372	0.141	0.141
-601.098	145.990	0.064	-0.085
-600.084	800.000	0.013	0.047
-599.069	-86.020	0.208	-0.064
-598.055	-118.342	-0.085	-0.015
-597.040	-200.000	0.035	-0.216
-596.025	-90.202	-0.326	-0.095
-595.011	-49.641	0.118	0.056
-593.996	44.571	0.069	0.064
-592.982	-97.646	-0.245	-0.063
-591.967	-136.369	0.172	-0.020
-590.952	296.749	-0.069	0.127
-589.938	-200.000	-0.018	0.422
-588.923	-123.829	-0.383	-0.060
-587.909	19.287	0.183	-0.146
-586.894	-49.847	0.145	-0.069
-585.879	-200.000	0.054	-0.255
-584.865	210.996	0.030	0.047
-583.850	123.460	-0.071	0.089
-582.836	-57.945	0.067	-0.029
-581.821	-200.000	0.009	0.122
-580.806	8.179	0.108	0.081
-579.792	-200.000	0.014	0.179
-578.777	68.191	-0.127	-0.130
-577.763	-161.865	-0.083	0.004
-576.748	-200.000	-0.010	0.249
-575.733	557.711	0.094	0.226
-574.719	800.000	0.058	0.191
-573.704	-200.000	0.011	0.325
-572.690	-26.854	-0.194	-0.113
-571.675	-200.000	-0.034	0.211
-570.661	267.416	-0.184	0.321
-569.646	-78.038	0.237	0.082
-568.631	-200.000	0.003	0.168
-567.617	355.175	0.081	-0.161
-566.602	723.230	0.098	0.261
-565.588	-200.000	-0.071	-0.339
-564.573	800.000	0.139	-0.408
-563.558	-9.516	-0.159	-0.106
-562.544	414.275	0.044	-0.094
-561.529	421.363	0.078	0.167
-560.515	3.905	0.136	0.099
-559.500	94.561	-0.234	-0.265
-558.485	-200.000	-0.012	-0.202
-557.471	99.248	0.156	0.180
-556.456	-178.861	-0.243	0.006
-555.442	-121.691	-0.178	-0.029
-554.427	-70.182	0.234	-0.089
-553.412	27.817	0.062	-0.052
-552.398	-50.152	0.156	-0.074
-551.383	-128.638	-0.213	-0.030
-550.369	-149.237	0.127	-0.010
-549.354	-118.402	0.181	-0.032
-548.339	7.224	-0.236	-0.175
-547.325	23.904	-0.117	-0.096
-546.310	-56.858	-0.177	-0.078
-545.296	-34.805	-0.202	-0.110
-544.281	501.697	-0.087	-0.201
-543.266	-64.157	0.102	0.042
-542.252	-122.742	0.253	0.041
-541.237	246.538	-0.122	0.205
-540.223	309.758	0.097	0.181
-539.208	800.000	-0.033	0.107
-538.193	800.000	0.087	-0.337
-537.179	800.000	-0.020	-0.059
-536.164	-120.416	-0.260	-0.044
-535.150	800.000	-0.018	-0.067
-534.135	549.691	-0.012	-0.030
-533.121	276.045	-0.135	0.239
-532.106	-33.962	0.171	-0.094
-531.091	206.439	-0.105	-0.162
-530.077	289.619	-0.145	-0.262
-529.062	253.580	-0.143	0.244
-528.048	-200.000	0.235	-0.001
-527.033	103.260	0.174	0.203
-526.018	-72.946	0.243	-0.089
-525.004	-200.000	0.071	-0.340
-523.989	-200.000	-0.002	-0.046
-522.975	473.655	0.114	-0.256
-521.960	-175.914	-0.152	0.004
-520.945	-167.105	0.443	-0.018
-519.931	800.000	0.032	-0.116
-518.916	76.054	-0.193	-0.204
-517.902	35.846	0.130	-0.114
-516.887	-73.137	-0.363	-0.133
-515.872	-112.836	-0.089	-0.018
-514.858	333.935	0.140	-0.269
-513.843	-137.381	0.101	-0.011
-512.829	-19.117	0.107	0.066
-511.814	-110.014	-0.253	0.053
-510.799	5.994	-0.161	-0.119
-509.785	166.892	0.166	-0.235
-508.770	696.505	-0.022	-0.056
-507.756	106.661	-0.106	0.125
-506.741	-200.000	0.052	0.300
-505.726	-200.000	0.045	-0.311
-504.712	-146.098	0.288	0.025
-503.697	120.310	-0.127	0.157
-502.683	94.268	0.154	-0.174
-501.668	150.198	0.293	-0.395
-500.653	-200.000	0.017	0.085
-499.639	87.138	-0.240	-0.263
-498.624	-151.981	0.383	0.028
-497.610	-80.268	0.031	0.010
-496.595	-118.666	-0.435	0.076
-495.581	-200.000	-0.004	0.034
-494.566	-19.832	-0.165	0.101
-493.551	-172.336	-0.075	0.002
-492.537	-200.000	-0.041	-0.343
-491.522	-145.249	-0.258	0.023
-490.508	-65.138	-0.228	0.091
-489.493	-200.000	-0.003	0.360
-488.478	223.415	-0.162	0.260
-487.464	-21.423	0.172	-0.104
-486.449	-132.971	-0.436	0.055
-485.435	124.436	0.293	-0.366
-484.420	-10.243	0.240	-0.158
-483.405	-200.000	0.024	0.111
-482.391	-127.116	-0.043	-0.006
-481.376	-200.000	0.007	0.127
-480.362	79.451	-0.218	0.232
-479.347	563.371	0.081	0.196
-478.332	-122.266	0.132	-0.021
-477.318	555.848	-0.013	0.032
-476.303	-200.000	0.001	0.267
-475.289	-28.696	-0.336	0.192
-474.274	-32.102	0.279	-0.155
-473.259	800.000	-0.059	0.175
-472.245	28.622	-0.100	-0.084
-471.230	104.213	0.080	-0.094
-470.216	28.465	0.158	-0.133
-469.201	-109.240	-0.104	-0.022
-468.186	95.308	-0.139	-0.157
-467.172	-200.000	-0.036	-0.252
-466.157	334.794	0.136	0.262
-465.143	-200.000	-0.045	-0.355
-464.128	-10.444	0.210	-0.138
-463.113	5.629	-0.394	0.289
-462.099	800.000	0.062	0.190
-461.084	800.000	0.030	-0.121
-460.070	15.833	0.176	-0.138
-459.055	41.650	0.019	0.017
-458.040	-200.000	-0.006	-0.121
-457.026	336.842	0.177	0.341
-456.011	-200.000	-0.019	0.175
-454.997	129.044	0.087	0.110
-453.982	-141.153	0.327	0.033
-452.968	-15.112	0.057	0.036
-451.953	488.674	-0.109	-0.248
-450.938	-93.650	-0.077	-0.021
-449.924	-41.185	0.095	-0.049
-448.909	75.758	-0.108	-0.113
-447.895	-68.995	-0.009	0.003
-446.880	-103.065	0.218	-0.051
-445.865	-47.593	0.038	-0.019
-444.851	68.520	0.201	-0.205
-443.836	105.392	-0.074	-0.086
-442.822	403.564	0.046	-0.096
-441.807	63.332	-0.173	-0.172
-440.792	151.431	0.093	-0.125
-439.778	-200.000	-0.023	-0.256
-438.763	-200.000	0.052	-0.386
-437.749	-137.478	-0.343	-0.038
-436.734	-200.000	0.000	-0.008
-435.719	26.397	-0.056	0.046
-434.705	-12.530	0.229	-0.148
-433.690	93.164	-0.311	-0.349
-432.676	800.000	0.066	0.186
-431.661	-200.000	-0.025	-0.348
-430.646	800.000	-0.050	-0.164
-429.632	-93.711	0.156	-0.043
-428.617	-145.084	-0.451	-0.041
-427.603	-125.718	0.393	0.059
-426.588	800.000	-0.007	0.026
-425.573	-190.152	-0.333	-0.004
-424.559	-97.289	-0.169	-0.044
-423.544	-72.388	0.177	-0.065
-422.530	323.120	-0.055	-0.105
-421.515	-200.000	-0.004	-0.069
-420.500	-64.816	-0.292	0.117
-419.486	800.000	-0.020	0.060
-418.471	87.327	0.113	0.123
-417.457	-28.006	-0.159	-0.091
-416.442	-125.716	-0.162	-0.024
-415.428	-84.748	0.164	0.051
-414.413	-152.160	-0.093	0.007
-413.398	-41.958	0.252	-0.128
-412.384	-200.000	-0.023	-0.209
-411.369	-28.581	0.359	0.205
-410.355	441.783	0.113	-0.246
-409.340	-200.000	-0.055	-0.476
-408.325	-200.000	-0.031	0.309
-407.311	253.112	-0.172	0.291
-406.296	72.605	-0.042	-0.044
-405.282	1.792	0.088	0.063
-404.267	-105.136	0.275	0.062
-403.252	-165.310	0.011	0.000
-402.238	-144.993	-0.161	0.015
-401.223	-124.244	-0.244	0.038
-400.209	-200.000	0.045	-0.221
-399.194	607.724	-0.042	-0.104
-398.179	39.831	-0.124	0.110
-397.165	-24.436	0.120	-0.071
-396.150	146.200	0.263	-0.349
-395.136	800.000	0.028	0.097
-394.121	630.142	0.076	-0.192
-393.106	-163.976	-0.249	0.011
-392.092	100.009	0.217	-0.249
-391.077	48.452	-0.209	-0.194
-390.063	-105.983	-0.297	0.066
-389.048	42.694	0.073	-0.066
-388.033	87.568	0.133	0.146
-387.019	-1.666	-0.025	0.017
-386.004	-62.738	-0.154	-0.063
-384.990	444.032	-0.095	-0.206
-383.975	-200.000	0.026	-0.157
-382.960	62.672	0.239	-0.237
-381.946	800.000	0.101	0.345
-380.931	-124.356	-0.110	-0.017
-379.917	243.744	0.136	0.227
-378.902	-75.974	-0.199	-0.070
-377.888	159.407	0.038	0.052
-376.873	-200.000	0.058	-0.468
-375.858	-200.000	0.008	0.157
-374.844	-179.502	-0.162	-0.004
-373.829	34.943	0.125	-0.109
-372.815	67.140	0.141	0.142
-371.800	243.442	0.073	0.120
-370.785	-131.855	0.202	-0.026
-369.771	22.868	0.028	-0.023
-368.756	-200.000	0.001	-0.145
-367.742	286.171	-0.088	-0.157
-366.727	199.462	-0.046	0.070
-365.712	800.000	-0.063	0.248
-364.698	800.000	0.069	0.209
-363.683	800.000	0.068	-0.227
-362.669	202.893	-0.066	-0.101
-361.654	48.427	0.151	0.140
-360.639	-200.000	-0.002	0.074
-359.625	-16.095	0.142	0.089
-358.610	107.976	0.262	0.309
-357.596	-200.000	-0.016	0.255
-356.581	-200.000	0.040	0.262
-355.566	-40.129	0.218	-0.113
-354.552	-65.357	-0.057	0.023
-353.537	755.519	0.051	-0.137
-352.523	800.000	0.095	0.307
-351.508	27.320	0.131	-0.109
-350.493	315.940	-0.035	-0.066
-349.479	60.603	-0.155	0.152
-348.464	800.000	0.027	0.075
-347.450	-146.871	-0.176	0.015
-346.435	330.788	-0.133	-0.253
-345.420	138.970	-0.073	-0.094
-344.406	-200.000	-0.036	-0.299
-343.391	-200.000	0.005	0.483
-342.377	9.036	-0.298	0.222
-341.362	45.543	0.111	-0.101
-340.348	160.413	0.322	0.444
-339.333	421.881	0.112	0.238
-338.318	139.180	0.094	-0.122
-337.304	-200.000	-0.019	0.286
-336.289	-142.883	-0.175	0.017
-335.275	142.564	-0.056	-0.074
-334.260	800.000	0.042	-0.149
-333.245	55.487	-0.309	0.296
-332.231	-15.062	-0.228	-0.144
-331.216	-43.794	-0.264	-0.131
-330.202	-33.443	-0.042	0.023
-329.187	-191.262	0.222	0.002
-328.172	800.000	-0.005	-0.018
-327.158	800.000	-0.105	-0.298
-326.143	-200.000	0.044	0.207
-325.129	117.087	0.198	0.241
-324.114	-174.502	0.082	-0.002
-323.099	-200.000	0.002	-0.165
-322.085	260.130	-0.050	0.085
-321.070	-115.777	0.063	-0.012
-320.056	140.372	-0.067	0.087
-319.041	-200.000	-0.018	0.314
-318.026	-93.004	0.141	0.039
-317.012	37.546	0.129	0.113
-315.997	70.509	0.139	-0.142
-314.983	800.000	-0.071	-0.248
-313.968	-27.603	-0.010	0.006
-312.953	-55.012	0.229	-0.102
-311.939	-15.773	-0.324	0.204
-310.924	-98.456	0.233	0.059
-309.910	124.276	0.152	0.188
-308.895	667.374	0.098	0.251
-307.880	-81.818	0.088	-0.028
-306.866	-86.013	-0.223	0.068
-305.851	147.169	0.161	-0.214
-304.837	-10.236	-0.333	0.219
-303.822	800.000	0.072	-0.263
-302.807	-200.000	0.030	0.189
-301.793	-200.000	0.037	-0.371
-300.778	105.097	0.044	0.051
-299.764	800.000	-0.087	-0.265
-298.749	-50.928	-0.403	-0.187
-297.735	512.798	0.094	-0.215
-296.720	-14.147	0.301	-0.191
-295.705	-68.238	0.230	0.088
-294.691	-55.029	-0.290	-0.129
-293.676	-86.880	0.094	0.028
-292.662	-0.514	0.126	0.088
-291.647	74.133	-0.151	-0.157
-290.632	280.303	-0.096	0.169
-289.618	44.132	0.140	0.126
-288.603	-99.819	0.203	-0.050
-287.589	800.000	0.099	0.365
-286.574	800.000	-0.034	0.096
-285.559	-66.143	-0.264	-0.104
-284.545	60.910	-0.078	0.076
-283.530	104.344	-0.229	0.266
-282.516	800.000	0.092	0.334
-281.501	17.326	-0.265	-0.207
-280.486	642.922	-0.051	0.129
-279.472	-141.906	-0.206	-0.020
-278.457	-107.573	0.073	-0.016
-277.443	-174.686	-0.158	-0.004
-276.428	97.972	0.104	0.118
-275.413	-52.923	0.316	0.144
-274.399	-200.000	0.000	0.208
-273.384	97.643	0.178	-0.202
-272.370	388.080	0.047	0.097
-271.355	-85.712	-0.035	0.011
-270.340	-96.738	-0.195	0.051
-269.326	-128.124	-0.360	0.051
-268.311	-64.802	-0.299	0.119
-267.297	119.145	-0.204	-0.249
-266.282	800.000	0.071	-0.238
-265.267	-103.613	0.176	0.041
-264.253	-200.000	-0.036	-0.401
-263.238	164.694	0.092	0.128
-262.224	339.067	0.099	-0.191
-261.209	468.973	-0.235	-0.521
-260.195	-35.465	0.129	0.069
-259.180	142.089	-0.094	-0.123
-258.165	354.026	0.074	0.145
-257.151	-200.000	0.041	0.366
-256.136	-65.459	0.450	0.178
-255.122	-90.983	-0.056	0.016
-254.107	-44.823	-0.180	0.088
-253.092	68.454	-0.105	0.106
-252.078	-200.000	-0.080	-0.482
-251.063	-2.939	0.233	0.160
-250.049	227.936	-0.115	0.185
-249.034	390.802	-0.110	0.225
-248.019	-163.153	0.329	0.016
-247.005	302.842	-0.131	-0.239
-245.990	800.000	0.012	-0.045
-244.976	-141.761	0.248	-0.024
-243.961	-200.000	0.021	-0.153
-242.946	124.770	0.150	0.186
-241.932	3.646	0.137	0.099
-240.917	-129.201	0.069	-0.009
-239.903	-61.253	0.116	-0.048
-238.888	-139.911	0.120	0.013
-237.873	800.000	0.090	0.361
-236.859	-185.590	0.216	-0.003
-235.844	-200.000	-0.030	-0.299
-234.830	664.901	0.028	-0.071
-233.815	413.819	-0.091	-0.191
-232.800	321.281	0.153	-0.286
-231.786	366.891	0.070	0.139
-230.771	-108.105	0.249	-0.053
-229.757	-200.000	0.072	-0.328
-228.742	124.223	0.234	-0.290
-227.727	575.122	0.168	-0.405
-226.713	-62.501	0.249	-0.102
-225.698	-58.670	-0.146	0.062
-224.684	-3.906	-0.094	-0.064
-223.669	41.888	0.025	-0.022
-222.655	-200.000	0.031	0.291
-221.640	337.324	0.116	0.222
-220.625	136.711	-0.205	0.263
-219.611	-25.587	0.174	-0.101
-218.596	44.267	-0.252	-0.227
-217.582	21.578	0.211	-0.169
-216.567	-155.952	-0.200	0.013
-215.552	190.361	-0.066	0.097
-214.538	-128.356	-0.338	-0.047
-213.523	-39.662	0.261	0.134
-212.509	49.703	0.204	0.189
-211.494	111.822	-0.199	0.237
-210.479	-149.843	0.488	0.038
-209.465	-89.401	-0.207	-0.060
-208.450	-200.000	-0.012	0.224
-207.436	140.678	-0.221	0.287
-206.421	110.507	0.078	0.092
-205.406	92.086	-0.108	0.119
-204.392	450.908	0.094	0.203
-203.377	-90.275	0.130	-0.037
-202.363	-200.000	0.008	-0.109
-201.348	-165.538	-0.312	-0.013
-200.333	59.679	-0.104	0.101
-199.319	-129.445	0.260	0.036
-198.304	288.510	0.136	-0.242
-197.290	56.924	-0.163	0.156
-196.275	-143.066	0.250	-0.024
-195.260	232.103	-0.112	-0.180
-194.246	800.000	0.063	-0.260
-193.231	-0.459	-0.172	-0.120
-192.217	-4.015	-0.250	0.170
-191.202	-138.945	0.316	-0.034
-190.187	-35.850	-0.366	-0.195
-189.173	-117.713	-0.486	0.086
-188.158	252.740	-0.162	0.271
-187.144	5.860	-0.087	-0.063
-186.129	-50.224	0.075	-0.035
-185.114	-143.437	0.138	0.013
-184.100	563.370	0.079	-0.189
-183.085	-62.203	0.303	-0.124
-182.071	-39.818	-0.108	0.055
-181.056	83.085	0.134	-0.143
-180.042	17.893	0.160	0.125
-179.027	-23.570	0.258	0.152
-178.012	221.381	0.045	0.071
-176.998	-40.416	0.196	0.100
-175.983	484.040	0.098	-0.218
-174.969	29.131	-0.022	0.019
-173.954	-200.000	-0.019	0.357
-172.939	277.035	-0.246	0.429
-171.925	101.284	0.169	0.194
-170.910	-144.018	-0.100	0.009
-169.896	-200.000	-0.055	0.346
-168.881	800.000	-0.032	0.130
-167.866	-200.000	0.063	0.300
-166.852	376.238	-0.021	0.041
-165.837	-25.429	0.244	0.141
-164.823	800.000	0.052	-0.146
-163.808	800.000	0.072	0.255
-162.793	327.482	-0.095	0.178
-161.779	-200.000	0.073	0.352
-160.764	-13.594	-0.499	0.317
-159.750	34.750	-0.185	0.158
-158.735	800.000	0.044	0.130
-157.720	-200.000	-0.050	0.215
-156.706	51.043	0.124	-0.115
-155.691	62.200	-0.083	-0.081
-154.677	-72.090	-0.425	0.155
-153.662	-145.031	-0.072	0.006
-152.647	322.855	-0.077	-0.145
-151.633	-200.000	-0.028	0.256
-150.618	-158.088	0.219	-0.013
-149.604	392.761	-0.063	-0.128
-148.589	-134.981	-0.386	0.046
-147.574	-200.000	-0.001	-0.027
-146.560	-200.000	-0.008	0.059
-145.545	111.625	0.305	0.361
-144.531	-98.324	-0.122	0.031
-143.516	-193.761	-0.131	0.001
-142.502	-69.411	0.100	-0.038
-141.487	11.237	-0.122	0.091
-140.472	119.031	-0.257	0.311
-139.458	-65.547	0.222	-0.087
-138.443	96.612	0.164	-0.185
-137.429	211.558	0.084	0.129
-136.414	-200.000	0.015	0.093
-135.399	-29.601	-0.240	-0.134
-134.385	-80.657	0.169	-0.055
-133.370	-173.630	-0.353	-0.010
-132.356	-62.239	-0.072	-0.029
-131.341	-200.000	0.011	-0.128
-130.326	-200.000	0.037	-0.189
-129.312	-21.122	-0.293	0.176
-128.297	-43.201	0.352	-0.175
-127.283	800.000	0.110	-0.360
-126.268	-145.462	0.205	-0.018
-125.253	111.202	-0.162	0.192
-124.239	191.899	-0.024	-0.035
-123.224	-71.791	-0.214	0.078
-122.210	-121.903	0.249	-0.040
-121.195	267.668	-0.057	0.098
-120.180	279.369	-0.079	-0.138
-119.166	724.615	0.084	0.221
-118.151	49.060	0.046	0.042
-117.137	-157.060	0.342	-0.020
-116.122	-151.079	0.191	-0.014
-115.107	-18.768	0.194	-0.118
-114.093	13.492	0.142	0.108
-113.078	279.384	0.097	0.170
-112.064	-121.843	0.286	-0.046
-111.049	800.000	0.021	-0.073
-110.034	83.271	-0.157	-0.167
-109.020	-49.841	-0.230	-0.107
-108.005	-200.000	-0.001	0.148
-106.991	292.414	-0.053	0.095
-105.976	255.141	-0.088	0.148
-104.962	800.000	-0.080	0.317
-103.947	-200.000	0.092	0.434
-102.932	800.000	0.081	0.295
-101.918	-142.995	0.288	-0.027
-100.903	-200.000	0.008	0.050
-99.889	-200.000	-0.033	0.153
-98.874	-200.000	0.001	-0.032
-97.859	-200.000	0.003	-0.298
-96.845	-131.415	0.330	0.043
-95.830	-23.012	-0.052	-0.031
-94.816	-192.592	-0.372	-0.003
-93.801	452.755	-0.057	-0.123
-92.786	370.778	0.067	-0.133
-91.772	-200.000	0.012	-0.172
-90.757	-53.830	0.278	-0.124
-89.743	126.110	0.300	-0.371
-88.728	-48.292	-0.228	-0.108
-87.713	-175.574	-0.106	-0.003
-86.699	-28.604	-0.153	-0.086
-85.684	-181.384	0.318	0.006
-84.670	-121.860	-0.272	-0.044
-83.655	-121.873	0.034	-0.005
-82.640	-28.584	0.301	0.170
-81.626	-24.635	0.275	0.160
-80.611	-104.634	0.185	0.042
-79.597	-140.443	0.072	0.007
-78.582	-111.745	-0.158	-0.031
-77.567	-109.741	0.287	-0.059
-76.553	-170.999	-0.222	-0.007
-75.538	313.717	-0.059	-0.109
-74.524	-12.918	-0.074	0.047
-73.509	-17.945	0.193	-0.118
-72.494	-84.694	-0.173	0.053
-71.480	-200.000	0.027	0.467
-70.465	52.514	0.052	-0.048
-69.451	363.822	0.131	-0.258
-68.436	2.487	0.129	-0.092
-67.422	-200.000	0.010	-0.115
-66.407	-66.170	-0.447	-0.174
-65.392	-200.000	-0.024	-0.229
-64.378	535.302	0.148	0.343
-63.363	91.238	-0.083	-0.091
-62.349	94.884	-0.185	-0.206
-61.334	151.292	-0.769	-1.024
-60.319	163.408	0.396	0.545
-59.305	-200.000	-0.246	-1.201
-58.290	414.775	0.905	1.885
-57.276	282.181	0.778	1.364
-56.261	-200.000	116.477	655.255
-55.246	521.180	1536.411	3523.803
-54.232	174.208	2719.898	3842.507
-53.217	101.036	2303.148	2619.176
-52.203	36.129	1908.074	1642.678
-51.188	29.910	1698.069	1414.477
-50.173	27.453	1656.219	1361.226
-49.159	48.834	1712.772	1570.723
-48.144	47.288	1727.134	1572.100
-47.130	29.524	1684.643	1400.146
-46.115	26.847	1669.915	1367.694
-45.100	26.689	1665.069	1362.487
-44.086	26.635	1662.637	1360.032
-43.071	26.671	1659.588	1357.755
-42.057	26.654	1657.214	1355.633
-41.042	26.727	1654.896	1354.229
-40.027	26.786	1652.895	1352.976
-39.013	26.639	1651.235	1350.473
-37.998	26.697	1649.490	1349.420
-36.984	26.624	1648.434	1347.961
-35.969	26.839	1646.533	1347.953
-34.954	26.919	1644.877	1347.132
-33.940	26.800	1643.224	1344.844
-32.925	26.776	1641.727	1343.388
-31.911	26.842	1639.850	1342.289
-30.896	26.753	1638.498	1340.471
-29.881	26.810	1636.568	1339.257
-28.867	26.778	1635.398	1338.013
-27.852	26.792	1633.596	1336.586
-26.838	26.781	1631.961	1335.115
-25.823	26.720	1631.375	1334.132
-24.809	26.844	1629.661	1333.589
-23.794	26.821	1628.156	1332.136
-22.779	26.837	1626.825	1331.113
-21.765	26.816	1624.971	1329.392
-20.750	26.862	1622.867	1327.952
-19.736	26.954	1621.765	1327.673
-18.721	26.842	1621.066	1326.226
-17.706	26.939	1619.035	1325.222
-16.692	26.957	1617.364	1323.935
-15.677	26.816	1616.715	1322.322
-14.663	26.855	1615.229	1321.336
-13.648	26.979	1613.322	1320.626
-12.633	26.902	1611.563	1318.577
-11.619	26.832	1609.784	1316.556
-10.604	26.796	1609.057	1315.648
-9.590	26.942	1607.514	1315.397
-8.575	26.894	1605.970	1313.732
-7.560	26.971	1604.993	1313.436
-6.546	26.892	1604.067	1312.055
-5.531	26.875	1602.888	1310.918
-4.517	26.917	1601.698	1310.199
-3.502	26.824	1600.712	1308.666
-2.487	26.932	1598.689	1307.736
-1.473	26.627	1586.452	1295.493
-0.458	23.491	1567.562	1257.817
0.556	20.873	1568.829	1226.134
1.571	18.496	1592.667	1227.652
2.586	17.978	1604.861	1233.205
3.600	15.827	1549.277	1175.383
4.615	9.351	1442.760	1052.225
5.629	4.241	1384.519	977.513
6.644	3.416	1377.448	967.260
7.659	3.302	1376.108	965.522
8.673	3.418	1374.712	965.180
9.688	3.474	1373.103	964.315
10.702	3.334	1371.061	961.925
11.717	5.752	1375.046	979.760
12.731	12.762	1387.414	1032.559
13.746	18.781	1397.734	1078.041
14.761	20.265	1398.898	1088.161
15.775	19.752	1396.784	1083.202
16.790	18.733	1394.469	1074.938
17.804	17.802	1392.374	1067.405
18.819	17.437	1391.054	1064.019
19.834	17.323	1389.521	1062.038
20.848	17.196	1388.604	1060.453
21.863	16.972	1387.005	1057.739
22.877	16.734	1386.408	1055.707
23.892	16.724	1385.304	1054.712
24.907	16.642	1384.794	1053.718
25.921	16.783	1383.462	1053.486
26.936	16.873	1382.568	1053.272
27.950	16.777	1382.139	1052.254
28.965	16.939	1380.965	1052.278
29.980	17.037	1379.241	1051.476
30.994	17.121	1378.128	1051.055
32.009	17.134	1377.317	1050.422
33.023	17.164	1375.906	1049.442
34.038	17.086	1375.132	1048.276
35.053	16.951	1373.425	1046.046
36.067	16.950	1372.710	1045.406
37.082	16.946	1371.831	1044.620
38.096	17.032	1370.486	1044.028
39.111	16.981	1370.223	1043.426
40.126	16.918	1369.197	1042.163
41.140	16.780	1367.819	1040.177
42.155	16.635	1366.798	1038.415
43.169	16.628	1366.600	1038.132
44.184	16.681	1366.948	1038.627
45.199	16.580	1366.632	1037.676
46.213	16.716	1365.541	1037.593
47.228	16.891	1364.774	1037.989
48.242	16.930	1363.839	1037.423
49.257	16.950	1362.210	1036.213
50.271	16.887	1360.907	1034.745
51.286	16.930	1359.649	1033.962
52.301	16.896	1357.996	1032.408
53.315	16.763	1357.309	1030.983
54.330	16.721	1356.049	1029.679
55.344	16.668	1354.900	1028.396
56.359	16.682	1354.151	1027.818
57.374	16.757	1352.771	1027.134
58.388	16.578	1352.651	1025.870
59.403	16.594	1351.896	1025.302
60.417	16.514	1351.206	1024.202
61.432	16.533	1350.240	1023.498
62.447	16.539	1349.018	1022.512
63.461	16.495	1347.875	1021.295
64.476	16.387	1346.597	1019.580
65.490	16.455	1345.405	1018.997
66.505	16.489	1344.266	1018.253
67.520	16.550	1342.795	1017.416
68.534	16.535	1341.674	1016.385
69.549	16.529	1340.859	1015.644
70.563	16.498	1339.723	1014.504
71.578	16.436	1338.460	1013.089
72.593	16.414	1337.284	1011.973
73.607	16.239	1337.166	1010.748
74.622	16.226	1336.768	1010.280
75.636	16.339	1335.603	1009.985
76.651	16.369	1334.823	1009.486
77.666	16.348	1334.723	1009.197
78.680	16.327	1334.109	1008.514
79.695	16.421	1333.421	1008.468
80.709	16.516	1332.322	1008.113
81.724	16.617	1331.677	1008.140
82.739	16.726	1330.891	1008.104
83.753	16.857	1329.962	1008.092
84.768	16.811	1329.218	1007.165
85.782	17.014	1328.041	1007.386
86.797	16.999	1326.431	1005.991
87.812	16.854	1325.109	1004.041
88.826	16.788	1324.344	1002.978
89.841	16.888	1323.372	1002.748
90.855	16.939	1322.461	1002.270
91.870	16.985	1321.436	1001.673
92.884	16.931	1320.936	1000.891
93.899	17.044	1320.048	1000.795
94.914	17.065	1319.394	1000.332
95.928	17.102	1317.670	999.153
96.943	17.017	1316.895	997.976
97.957	17.012	1316.028	997.205
98.972	16.980	1315.129	996.246
99.987	17.040	1314.004	995.656
101.001	17.019	1313.500	995.066
102.016	16.877	1312.445	993.343
103.030	16.971	1311.288	992.935
104.045	16.898	1310.323	991.688
105.060	16.939	1308.793	990.682
106.074	16.674	1307.732	988.243
107.089	16.502	1306.178	985.980
108.103	16.520	1304.590	984.800
109.118	16.506	1303.642	983.914
110.133	16.528	1301.920	982.652
111.147	16.582	1300.501	981.807
112.162	16.611	1299.653	981.253
113.176	16.630	1298.362	980.300
114.191	16.761	1296.925	979.884
115.206	16.643	1296.086	978.483
116.220	16.660	1294.941	977.631
117.235	16.701	1293.843	976.952
118.249	16.599	1293.121	975.729
119.264	16.506	1292.213	974.422
120.279	16.529	1290.889	973.470
121.293	16.449	1289.783	972.092
122.308	16.488	1288.607	971.341
123.322	16.487	1287.282	970.251
124.337	16.439	1286.501	969.305
125.352	16.430	1285.559	968.455
126.366	16.417	1284.304	967.348
127.381	16.504	1283.315	967.016
128.395	16.510	1282.077	966.034
129.410	16.493	1281.123	965.134
130.424	16.490	1280.749	964.749
131.439	16.615	1279.334	964.311
132.454	16.644	1278.689	963.903
133.468	16.657	1278.044	963.403
134.483	16.521	1277.514	962.146
135.497	16.707	1276.106	962.058
136.512	16.729	1274.592	960.957
137.527	16.712	1273.255	959.765
138.541	16.654	1272.107	958.491
139.556	16.743	1270.951	958.039
140.570	16.876	1270.386	958.277
141.585	17.058	1268.739	957.976
142.600	16.851	1268.155	956.284
143.614	17.013	1267.166	956.368
144.629	17.020	1265.719	955.229
145.643	16.933	1265.089	954.180
146.658	16.969	1263.737	953.278
147.673	16.806	1262.069	951.022
148.687	16.752	1261.080	949.887
149.702	16.713	1259.443	948.353
150.716	16.665	1258.404	947.216
151.731	16.734	1257.454	946.806
152.746	16.807	1256.072	946.091
153.760	16.801	1254.796	945.011
154.775	16.841	1254.119	944.638
155.789	16.898	1253.395	944.329
156.804	16.902	1252.403	943.517
157.819	16.996	1250.597	942.599
158.833	17.062	1250.237	942.611
159.848	17.155	1249.248	942.295
160.862	17.260	1247.696	941.626
161.877	17.089	1246.666	939.817
162.892	16.818	1245.730	937.530
163.906	16.829	1245.076	937.017
164.921	16.878	1243.949	936.352
165.935	16.862	1243.716	936.007
166.950	17.033	1242.645	936.061
167.964	16.936	1241.648	934.695
168.979	16.923	1241.161	934.173
169.994	16.927	1240.296	933.464
171.008	16.974	1239.511	933.048
172.023	17.146	1238.580	933.210
173.037	17.121	1238.248	932.737
174.052	17.180	1236.728	931.834
175.067	17.038	1235.441	930.003
176.081	16.884	1234.567	928.419
177.096	16.896	1233.861	927.875
178.110	16.950	1232.661	927.183
179.125	16.977	1232.087	926.817
180.140	16.992	1230.349	925.513
181.154	17.110	1229.261	925.253
182.169	17.181	1227.888	924.527
183.183	17.228	1227.398	924.330
184.198	17.233	1225.804	923.076
185.213	17.198	1224.754	922.011
186.227	17.193	1223.555	921.001
187.242	17.312	1222.304	920.623
188.256	17.505	1221.528	920.999
189.271	17.388	1220.625	919.606
190.286	17.131	1219.692	917.434
191.300	16.928	1218.470	915.336
192.315	16.766	1217.928	913.976
193.329	16.905	1217.090	914.013
194.344	16.891	1216.771	913.618
195.359	17.006	1216.402	913.877
196.373	17.189	1215.676	914.238
197.388	17.214	1215.243	913.966
198.402	17.378	1214.925	914.531
199.417	17.433	1214.476	914.407
200.432	17.545	1213.767	914.394
201.446	17.568	1212.956	913.820
202.461	17.661	1211.797	913.369
203.475	17.610	1210.866	912.314
204.490	17.513	1209.451	910.647
205.504	17.372	1208.219	908.883
206.519	17.266	1206.909	907.255
207.534	17.356	1206.079	907.028
208.548	17.410	1204.540	906.079
209.563	17.356	1203.701	905.078
210.577	17.381	1203.232	904.780
211.592	17.450	1202.455	904.481
212.607	17.588	1201.575	904.476
213.621	17.602	1200.684	903.798
214.636	17.561	1199.479	902.595
215.650	17.584	1198.888	902.189
216.665	17.705	1197.990	902.073
217.680	17.666	1197.572	901.474
218.694	17.758	1196.139	900.803
219.709	17.772	1195.243	900.124
220.723	17.733	1194.823	899.517
221.738	17.711	1194.042	898.736
222.753	17.706	1193.538	898.248
223.767	17.838	1192.121	897.799
224.782	17.874	1191.724	897.610
225.796	17.978	1191.274	897.737
226.811	17.941	1190.288	896.723
227.826	17.787	1189.742	895.422
228.840	17.798	1188.480	894.453
229.855	17.760	1188.241	893.991
230.869	17.799	1187.328	893.432
231.884	17.693	1186.350	892.062
232.899	17.618	1185.547	890.988
233.913	17.686	1185.075	890.911
234.928	17.496	1184.467	889.379
235.942	17.584	1183.428	888.980
236.957	17.496	1182.755	887.939
237.972	17.615	1181.941	887.866
238.986	17.611	1181.247	887.249
240.001	17.606	1180.411	886.514
241.015	17.675	1179.410	886.043
242.030	17.706	1178.954	885.782
243.045	17.803	1178.114	885.575
244.059	17.748	1177.425	884.694
245.074	17.845	1176.507	884.428
246.088	17.899	1175.589	883.941
247.103	17.964	1175.162	883.878
248.117	18.089	1174.420	883.892
249.132	18.203	1173.755	883.900
250.147	18.321	1173.443	884.195
251.161	18.457	1172.434	884.060
252.176	18.424	1172.121	883.576
253.190	18.437	1171.536	883.122
254.205	18.433	1171.110	882.702
255.220	18.453	1169.974	881.868
256.234	18.496	1169.470	881.634
257.249	18.429	1168.795	880.701
258.263	18.539	1168.105	880.670
259.278	18.523	1167.294	879.900
260.293	18.535	1167.097	879.732
261.307	18.542	1166.611	879.327
262.322	18.570	1165.982	878.915
263.336	18.667	1164.659	878.336
264.351	18.576	1164.254	877.488
265.366	18.676	1163.579	877.417
266.380	18.491	1163.111	876.038
267.395	18.573	1161.864	875.441
268.409	18.515	1161.216	874.580
269.424	18.437	1160.601	873.642
270.439	18.500	1159.722	873.224
271.453	18.545	1158.926	872.777
272.468	18.507	1157.822	871.673
273.482	18.331	1157.485	870.450
274.497	18.447	1156.719	870.384
275.512	18.428	1156.294	869.891
276.526	18.551	1155.190	869.609
277.541	18.611	1154.305	869.169
278.555	18.496	1153.755	868.096
279.570	18.710	1153.427	868.855
280.585	18.712	1152.896	868.386
281.599	18.763	1151.510	867.523
282.614	18.691	1150.242	866.128
283.628	18.526	1149.569	864.714
284.643	18.650	1148.258	864.276
285.657	18.578	1147.905	863.573
286.672	18.649	1146.861	863.066
287.687	18.653	1145.859	862.257
288.701	18.716	1145.095	861.922
289.716	18.739	1144.512	861.519
290.730	18.727	1143.748	860.810
291.745	18.728	1142.741	859.981
292.760	18.801	1142.647	860.199
293.774	18.820	1142.154	859.848
294.789	18.788	1141.601	859.195
295.803	18.832	1140.522	858.526
296.818	18.779	1139.677	857.549
297.833	18.708	1139.016	856.622
298.847	18.668	1138.277	855.792
299.862	18.791	1137.233	855.545
300.876	18.777	1136.619	854.935
301.891	18.793	1136.108	854.556
302.906	19.007	1135.209	854.868
303.920	18.989	1134.892	854.462
304.935	19.045	1134.377	854.277
305.949	19.287	1133.266	854.568
306.964	19.195	1132.752	853.648
307.979	19.012	1132.118	852.186
308.993	19.098	1131.199	851.846
310.008	19.127	1130.290	851.227
311.022	19.078	1129.770	850.518
312.037	19.068	1128.804	849.669
313.052	19.189	1127.273	849.036
314.066	18.952	1126.279	847.045
315.081	19.020	1125.714	846.880
316.095	18.902	1125.149	845.802
317.110	18.875	1124.454	845.070
318.125	18.929	1123.645	844.654
319.139	18.850	1122.691	843.475
320.154	18.907	1122.624	843.627
321.168	18.945	1121.837	843.148
322.183	18.955	1121.403	842.795
323.197	19.008	1120.436	842.255
324.212	19.075	1119.942	842.139
325.227	19.202	1119.274	842.179
326.241	19.120	1118.688	841.267
327.256	19.023	1117.932	840.146
328.270	18.981	1116.973	839.147
329.285	18.985	1116.155	838.478
330.300	18.991	1115.420	837.880
331.314	19.041	1114.280	837.197
332.329	19.133	1113.364	836.879
333.343	19.136	1112.493	836.167
334.358	19.290	1111.306	835.944
335.373	19.162	1110.792	834.866
336.387	19.286	1110.122	834.890
337.402	19.374	1109.369	834.673
338.416	19.395	1108.492	834.041
339.431	19.549	1108.030	834.364
340.446	19.441	1107.702	833.523
341.460	19.509	1107.335	833.498
342.475	19.609	1106.146	833.012
343.489	19.658	1105.649	832.800
344.504	19.674	1104.377	831.848
345.519	19.776	1103.833	831.855
346.533	19.782	1103.068	831.233
347.548	19.799	1102.289	830.654
348.562	19.752	1101.373	829.668
349.577	19.695	1100.454	828.627
350.592	19.536	1099.644	827.184
351.606	19.470	1098.937	826.260
352.621	19.317	1098.600	825.203
353.635	19.447	1097.789	825.142
354.650	19.501	1096.399	824.280
355.665	19.468	1096.384	824.040
356.679	19.516	1095.542	823.565
357.694	19.593	1094.851	823.339
358.708	19.713	1094.447	823.532
359.723	19.549	1094.015	822.355
360.738	19.644	1093.085	822.036
361.752	19.681	1092.279	821.532
362.767	19.653	1091.977	821.098
363.781	19.711	1091.588	821.007
364.796	19.840	1090.678	820.866
365.810	19.806	1090.485	820.483
366.825	19.948	1090.038	820.748
367.840	20.001	1089.701	820.673
368.854	20.136	1088.801	820.560
369.869	19.938	1088.396	819.248
370.883	19.994	1087.093	818.459
371.898	19.957	1086.281	817.599
372.913	19.941	1085.823	817.106
373.927	19.925	1085.666	816.842
374.942	20.061	1084.626	816.628
375.956	20.074	1084.140	816.253
376.971	19.988	1083.727	815.464
377.986	20.220	1082.708	815.718
379.000	20.260	1082.429	815.620
380.015	20.278	1081.894	815.231
381.029	20.316	1081.420	814.978
382.044	20.263	1080.637	814.069
383.059	20.130	1080.015	812.904
384.073	20.194	1079.051	812.405
385.088	20.321	1078.037	812.166
386.102	20.241	1077.578	811.374
387.117	20.159	1075.872	809.634
388.132	20.057	1075.031	808.456
389.146	20.148	1074.438	808.361
390.161	19.992	1073.950	807.195
391.175	20.130	1073.069	807.102
392.190	20.168	1072.742	806.964
393.205	20.167	1072.028	806.352
394.219	20.205	1070.922	805.622
395.234	20.173	1070.078	804.771
396.248	20.181	1068.866	803.824
397.263	20.154	1068.041	803.009
398.278	20.049	1067.162	801.790
399.292	20.099	1066.342	801.333
400.307	20.094	1065.856	800.874
401.321	20.064	1065.249	800.210
402.336	20.045	1064.617	799.577
403.350	20.083	1064.159	799.335
404.365	20.225	1063.046	799.083
405.380	20.274	1062.284	798.666
406.394	20.286	1061.933	798.388
407.409	20.419	1061.419	798.539
408.423	20.378	1060.725	797.759
409.438	20.447	1060.064	797.509
410.453	20.489	1059.127	796.925
411.467	20.594	1058.398	796.788
412.482	20.621	1057.963	796.514
413.496	20.689	1056.982	796.016
414.511	20.638	1056.714	795.509
415.526	20.791	1056.219	795.767
416.540	20.830	1055.905	795.636
417.555	20.653	1055.801	794.680
418.569	20.737	1054.747	794.200
419.584	20.721	1053.847	793.379
420.599	20.797	1053.399	793.318
421.613	155.031	1405.255	1796.428
422.628	142.243	1456.502	1796.523
