DTS Sentinel unit serial number:	SN413079Multiplexer serial number:	ORYXHardware model number:	OX4-SRSoftware version number:	ORYX F/W v4.00 Oryx Data Collector v3.7.2.0data status	okinstallation	princeton_trtdifferential loss correction	single-endedforward channel	channel 2reverse channel	N/Adate	2019/09/17time	05:15:35forward acquisition time	60.00reverse acquisition time	0.00gamma	496.2192k internal	0.2329k external	0.2329temperature offset calibration	0.9980default loss term (dB/km)	0.3790temperature slope calibration	1.0000multiplexer offset coefficient	1.0000multiplexer slope coefficient	1.0000fibre end	0.00T internal ref (°C)	29.37T ext. ref 1 (°C)	0.14T ext. ref 2 (°C)	23.78length (m)	temperature (°C)	Stokes	anti-Stokes-747.200	-200.000	-0.002	0.265
-746.185	-15.087	0.365	0.236
-745.171	0.773	-0.286	0.207
-744.156	185.887	-0.168	0.252
-743.142	70.483	-0.017	-0.017
-742.127	-200.000	-0.015	0.388
-741.112	-80.391	-0.088	-0.030
-740.098	82.229	-0.208	0.228
-739.083	-200.000	0.053	-0.241
-738.069	800.000	0.076	-0.221
-737.054	-3.024	-0.309	0.217
-736.039	65.032	-0.256	-0.260
-735.025	-53.004	0.377	0.174
-734.010	-178.532	0.184	0.004
-732.996	142.979	-0.220	0.295
-731.981	-97.185	-0.256	0.067
-730.966	-74.592	-0.206	0.075
-729.952	-200.000	0.013	-0.174
-728.937	-200.000	-0.078	0.362
-727.923	-130.679	0.127	0.017
-726.908	-200.000	-0.024	-0.298
-725.894	268.169	-0.007	0.012
-724.879	-43.381	0.062	-0.032
-723.864	-51.864	-0.097	0.045
-722.850	800.000	0.062	0.180
-721.835	-127.834	-0.200	0.029
-720.821	49.500	-0.125	-0.118
-719.806	800.000	0.010	0.030
-718.791	227.605	-0.109	-0.179
-717.777	41.834	-0.078	0.071
-716.762	-200.000	0.030	0.141
-715.748	528.976	-0.072	-0.171
-714.733	800.000	-0.077	-0.339
-713.718	-41.523	0.323	-0.167
-712.704	182.956	0.116	-0.173
-711.689	342.472	0.160	-0.315
-710.675	-200.000	0.008	-0.268
-709.660	113.847	-0.179	-0.219
-708.645	107.512	0.144	0.172
-707.631	470.223	-0.147	0.333
-706.616	-70.447	-0.090	-0.034
-705.602	97.890	-0.220	-0.254
-704.587	800.000	-0.158	-0.443
-703.572	-121.442	-0.364	-0.061
-702.558	709.333	-0.188	-0.500
-701.543	-94.508	-0.115	0.032
-700.529	-75.334	0.160	-0.057
-699.514	-80.849	-0.232	-0.077
-698.499	-200.000	0.024	0.107
-697.485	1.680	0.156	0.113
-696.470	800.000	0.033	-0.141
-695.456	-200.000	-0.067	0.303
-694.441	-89.611	-0.160	0.047
-693.426	31.794	0.219	-0.190
-692.412	-200.000	0.028	-0.129
-691.397	-135.470	0.142	-0.017
-690.383	-23.160	0.339	-0.205
-689.368	19.229	-0.150	0.121
-688.354	2.169	-0.112	-0.082
-687.339	-200.000	0.008	-0.069
-686.324	-75.144	-0.689	0.248
-685.310	8.197	-0.241	-0.182
-684.295	-78.482	-0.124	0.043
-683.281	-58.430	0.110	-0.048
-682.266	-43.268	-0.187	0.095
-681.251	60.333	-0.162	-0.161
-680.237	-200.000	0.015	-0.080
-679.222	-200.000	0.035	-0.203
-678.208	-96.514	-0.255	-0.068
-677.193	85.586	-0.147	0.162
-676.178	8.259	0.241	-0.182
-675.164	781.513	-0.083	-0.228
-674.149	84.257	0.170	0.186
-673.135	-200.000	-0.033	0.199
-672.120	66.439	-0.160	-0.164
-671.105	441.263	-0.073	-0.161
-670.091	-200.000	-0.043	-0.251
-669.076	360.917	0.126	-0.254
-668.062	649.359	-0.068	0.176
-667.047	-200.000	0.028	-0.207
-666.032	-152.413	0.255	-0.018
-665.018	-23.613	-0.045	-0.027
-664.003	65.991	0.058	0.060
-662.989	-71.751	0.234	0.088
-661.974	-200.000	0.013	0.071
-660.959	27.378	0.164	0.139
-659.945	268.881	-0.189	-0.334
-658.930	135.539	-0.053	0.069
-657.916	800.000	0.018	-0.061
-656.901	-59.598	0.097	-0.042
-655.886	-200.000	0.028	0.177
-654.872	153.213	-0.210	0.288
-653.857	-125.699	-0.241	-0.037
-652.843	163.009	0.086	-0.121
-651.828	130.327	-0.164	-0.211
-650.814	-142.217	-0.136	0.013
-649.799	753.808	-0.079	0.213
-648.784	-78.746	-0.289	0.099
-647.770	-200.000	0.022	-0.182
-646.755	-96.402	-0.331	0.088
-645.741	800.000	0.095	-0.370
-644.726	-173.925	-0.080	0.002
-643.711	-200.000	0.005	-0.111
-642.697	51.469	-0.106	0.101
-641.682	800.000	0.033	0.125
-640.668	-28.479	-0.236	-0.137
-639.653	-127.118	0.287	0.042
-638.638	-200.000	-0.013	-0.145
-637.624	-200.000	-0.004	0.110
-636.609	247.910	0.143	0.243
-635.595	-200.000	-0.009	-0.183
-634.580	800.000	-0.104	-0.386
-633.565	195.555	0.280	-0.426
-632.551	-140.871	-0.236	-0.024
-631.536	77.647	-0.157	0.167
-630.522	-200.000	-0.040	-0.486
-629.507	44.783	-0.071	0.066
-628.492	-200.000	0.010	0.153
-627.478	88.951	0.205	0.229
-626.463	-120.277	0.467	0.080
-625.449	-28.052	-0.377	0.219
-624.434	62.360	0.156	0.157
-623.419	-200.000	0.026	-0.147
-622.405	22.792	0.147	-0.121
-621.390	114.023	0.126	-0.153
-620.376	486.608	-0.166	0.379
-619.361	507.154	-0.121	-0.282
-618.346	-200.000	-0.004	-0.370
-617.332	-200.000	0.010	-0.381
-616.317	409.720	-0.122	-0.259
-615.303	-200.000	-0.003	-0.067
-614.288	36.758	-0.248	-0.219
-613.273	-130.326	-0.446	-0.061
-612.259	43.198	0.085	-0.078
-611.244	-200.000	-0.007	-0.290
-610.230	-134.865	-0.255	-0.031
-609.215	800.000	0.060	0.184
-608.201	-162.556	0.072	0.004
-607.186	800.000	-0.122	-0.338
-606.171	88.296	0.082	-0.091
-605.157	591.391	0.192	0.474
-604.142	-8.053	0.406	0.274
-603.128	800.000	0.027	0.111
-602.113	-2.790	0.203	-0.142
-601.098	-200.000	0.008	0.037
-600.084	-103.739	0.228	-0.053
-599.069	-80.135	-0.181	-0.061
-598.055	-96.173	0.339	0.090
-597.040	-121.072	-0.216	-0.036
-596.025	-200.000	0.013	-0.139
-595.011	-41.586	-0.215	-0.111
-593.996	-90.440	-0.121	-0.035
-592.982	91.981	0.203	0.229
-591.967	175.477	0.154	-0.224
-590.952	-140.822	0.130	0.013
-589.938	559.761	0.148	-0.359
-588.923	264.647	0.233	-0.407
-587.909	33.372	0.460	-0.400
-586.894	160.057	-0.098	-0.137
-585.879	22.526	-0.028	0.023
-584.865	18.609	0.232	-0.186
-583.850	175.008	-0.160	-0.231
-582.836	800.000	0.168	-0.594
-581.821	357.744	-0.146	0.291
-580.806	-200.000	0.014	0.138
-579.792	52.379	0.072	0.069
-578.777	19.407	0.165	-0.133
-577.763	-130.889	0.334	-0.045
-576.748	49.679	-0.169	0.159
-575.733	2.442	0.161	-0.117
-574.719	-184.437	-0.133	0.002
-573.704	134.424	-0.125	0.162
-572.690	80.771	-0.051	0.055
-571.675	-163.077	0.224	-0.011
-570.661	144.118	-0.308	-0.411
-569.646	800.000	-0.088	0.271
-568.631	-113.148	-0.138	-0.027
-567.617	237.790	0.058	0.097
-566.602	-34.080	0.075	-0.041
-565.588	114.951	0.075	0.092
-564.573	800.000	0.054	0.161
-563.558	37.096	0.150	0.133
-562.544	-133.073	0.187	-0.024
-561.529	-98.007	0.235	-0.061
-560.515	-53.763	0.328	-0.150
-559.500	118.539	-0.155	-0.192
-558.485	64.565	0.056	-0.056
-557.471	323.479	0.094	-0.179
-556.456	-200.000	0.027	-0.149
-555.442	-164.851	0.317	0.014
-554.427	-78.429	0.115	0.039
-553.412	109.131	-0.133	0.160
-552.398	800.000	-0.085	-0.240
-551.383	672.436	0.043	0.113
-550.369	-7.055	-0.315	0.214
-549.354	-18.104	-0.108	0.067
-548.339	391.544	0.068	-0.140
-547.325	177.425	0.109	0.159
-546.310	-18.146	0.200	-0.125
-545.296	-113.001	-0.124	-0.024
-544.281	-33.083	0.345	-0.191
-543.266	-200.000	-0.063	0.449
-542.252	92.671	0.060	0.067
-541.237	148.616	0.145	0.196
-540.223	-200.000	0.031	-0.349
-539.208	-66.661	-0.160	0.063
-538.193	498.244	-0.048	-0.110
-537.179	10.350	0.048	-0.037
-536.164	-46.271	0.147	0.072
-535.150	687.203	0.106	-0.276
-534.135	-200.000	-0.008	-0.117
-533.121	-200.000	-0.022	-0.241
-532.106	-113.100	-0.192	0.038
-531.091	-200.000	0.025	0.134
-530.077	66.987	0.095	0.097
-529.062	-200.000	-0.026	0.144
-528.048	-200.000	0.005	-0.122
-527.033	134.223	0.077	-0.099
-526.018	588.402	0.179	-0.440
-525.004	-9.386	-0.140	-0.094
-523.989	-200.000	-0.015	0.120
-522.975	385.966	0.214	-0.442
-521.960	137.621	0.113	0.148
-520.945	140.655	0.032	0.042
-519.931	-200.000	0.015	-0.188
-518.916	800.000	0.045	0.154
-517.902	221.193	-0.096	-0.154
-516.887	-200.000	0.012	-0.289
-515.872	800.000	-0.101	0.348
-514.858	800.000	-0.076	0.223
-513.843	-21.511	0.224	-0.137
-512.829	-200.000	-0.028	-0.317
-511.814	3.587	0.210	0.153
-510.799	-150.293	-0.123	-0.009
-509.785	800.000	-0.043	-0.160
-508.770	-73.036	-0.176	0.065
-507.756	-136.122	0.245	0.029
-506.741	-200.000	-0.029	0.137
-505.726	800.000	0.094	0.316
-504.712	-116.367	-0.092	-0.017
-503.697	20.213	-0.038	0.031
-502.683	-113.889	-0.294	0.057
-501.668	194.589	0.099	-0.149
-500.653	-31.118	0.061	-0.034
-499.639	125.146	0.129	0.162
-498.624	349.179	0.120	0.237
-497.610	188.147	0.017	-0.026
-496.595	800.000	0.049	-0.199
-495.581	100.290	-0.290	0.336
-494.566	-200.000	0.023	0.458
-493.551	54.303	-0.143	0.137
-492.537	-35.400	-0.081	-0.044
-491.522	371.615	-0.177	0.359
-490.508	-157.005	0.073	-0.004
-489.493	34.763	-0.179	0.156
-488.478	-200.000	-0.038	0.166
-487.464	-200.000	0.017	-0.137
-486.449	235.816	0.140	0.231
-485.435	-47.080	-0.277	-0.135
-484.420	72.325	0.267	0.277
-483.405	147.129	-0.107	0.144
-482.391	-87.433	0.201	-0.061
-481.376	-11.169	-0.219	0.144
-480.362	-51.458	0.358	0.167
-479.347	309.802	0.046	0.086
-478.332	170.537	-0.114	0.163
-477.318	-200.000	0.026	-0.227
-476.303	83.199	-0.135	-0.147
-475.289	-105.235	-0.232	0.053
-474.274	-200.000	0.004	-0.189
-473.259	-200.000	0.000	-0.046
-472.245	-94.076	-0.245	0.067
-471.230	566.163	0.117	-0.283
-470.216	-155.040	-0.612	-0.040
-469.201	-10.267	0.309	0.204
-468.186	-30.836	0.437	0.246
-467.172	-74.280	-0.258	0.093
-466.157	-70.692	-0.272	-0.102
-465.143	172.049	-0.075	0.108
-464.128	-200.000	-0.025	0.332
-463.113	1.261	-0.209	0.150
-462.099	228.792	-0.042	-0.068
-461.084	14.429	0.142	0.110
-460.070	277.803	-0.109	0.193
-459.055	45.552	-0.117	0.108
-458.040	381.690	-0.099	0.202
-457.026	155.150	-0.209	0.286
-456.011	141.665	-0.207	0.274
-454.997	-128.248	-0.501	0.071
-453.982	24.156	0.076	-0.062
-452.968	800.000	0.027	-0.078
-451.953	800.000	-0.076	0.245
-450.938	-60.218	0.331	0.141
-449.924	752.770	0.075	-0.203
-448.909	120.457	-0.138	-0.171
-447.895	-1.917	-0.180	0.126
-446.880	-200.000	0.063	0.277
-445.865	-14.061	-0.131	0.084
-444.851	800.000	0.022	0.081
-443.836	800.000	0.043	0.123
-442.822	-200.000	-0.017	-0.221
-441.807	-99.055	0.302	-0.076
-440.792	-34.421	-0.410	0.224
-439.778	-143.229	0.126	-0.012
-438.763	360.329	-0.139	0.277
-437.749	800.000	-0.045	0.141
-436.734	-200.000	0.183	0.000
-435.719	511.284	-0.042	-0.098
-434.705	-52.732	0.447	0.205
-433.690	78.099	-0.172	0.183
-432.676	-200.000	-0.029	-0.189
-431.661	421.124	0.193	0.413
-430.646	-200.000	-0.004	0.197
-429.632	150.183	-0.155	0.209
-428.617	-129.740	0.126	0.017
-427.603	-18.347	-0.051	-0.032
-426.588	-0.424	0.182	0.129
-425.573	104.296	0.249	0.292
-424.559	-153.512	-0.111	-0.008
-423.544	-200.000	0.056	0.452
-422.530	-123.324	-0.202	0.032
-421.515	-200.000	0.009	0.071
-420.500	-200.000	0.013	0.219
-419.486	-200.000	-0.026	-0.345
-418.471	-81.480	-0.243	-0.079
-417.457	80.447	-0.073	-0.078
-416.442	159.920	0.112	-0.155
-415.428	-200.000	-0.003	0.169
-414.413	187.128	-0.055	0.082
-413.398	-70.694	0.156	0.058
-412.384	-200.000	0.017	0.104
-411.369	800.000	0.034	-0.100
-410.355	800.000	0.010	-0.036
-409.340	-127.461	-0.236	0.034
-408.325	45.138	0.133	-0.122
-407.311	21.152	0.301	0.243
-406.296	699.799	-0.020	0.053
-405.282	28.200	0.135	0.113
-404.267	40.696	-0.300	0.269
-403.252	-200.000	-0.009	-0.117
-402.238	28.522	0.093	-0.078
-401.223	74.432	0.157	-0.164
-400.209	644.895	-0.037	-0.093
-399.194	195.234	-0.104	-0.157
-398.179	-184.775	-0.501	0.008
-397.165	-200.000	0.014	0.115
-396.150	137.329	0.143	-0.186
-395.136	800.000	0.053	-0.198
-394.121	-20.975	0.195	0.119
-393.106	358.140	0.015	0.030
-392.092	-57.881	-0.120	0.052
-391.077	-200.000	0.013	-0.077
-390.063	-125.775	0.323	-0.049
-389.048	126.155	-0.140	0.176
-388.033	-56.579	0.253	0.111
-387.019	-174.167	-0.241	-0.007
-386.004	145.429	-0.309	0.412
-384.990	-200.000	-0.033	-0.524
-383.975	-3.914	-0.127	-0.088
-382.960	-41.682	-0.153	-0.078
-381.946	-21.977	0.152	-0.092
-380.931	174.934	0.250	-0.359
-379.917	17.265	0.035	0.027
-378.902	-200.000	-0.055	-0.290
-377.888	320.143	0.157	-0.295
-376.873	20.708	-0.093	-0.075
-375.858	464.803	0.143	0.318
-374.844	800.000	0.048	-0.144
-373.829	-200.000	0.009	-0.114
-372.815	-200.000	0.023	0.298
-371.800	302.534	-0.095	0.174
-370.785	12.282	-0.224	-0.171
-369.771	58.549	-0.025	-0.025
-368.756	227.476	-0.050	0.081
-367.742	117.525	-0.151	-0.185
-366.727	-155.537	0.134	0.009
-365.712	800.000	-0.066	0.180
-364.698	800.000	0.059	-0.181
-363.683	678.304	0.094	-0.243
-362.669	47.454	-0.157	-0.145
-361.654	-36.534	0.048	0.026
-360.639	800.000	-0.052	-0.173
-359.625	-200.000	0.062	-0.443
-358.610	-26.008	-0.224	0.130
-357.596	601.358	-0.084	0.206
-356.581	340.218	0.136	0.263
-355.566	185.098	-0.026	0.039
-354.552	196.476	-0.075	0.113
-353.537	-81.485	-0.162	-0.053
-352.523	-200.000	0.012	-0.232
-351.508	800.000	0.043	-0.153
-350.493	381.559	-0.075	-0.152
-349.479	229.156	0.123	-0.200
-348.464	345.200	-0.033	0.064
-347.450	-200.000	-0.043	0.477
-346.435	-71.070	-0.134	0.050
-345.420	-72.296	0.090	-0.033
-344.406	-29.129	-0.255	-0.145
-343.391	217.383	0.130	0.205
-342.377	-200.000	0.007	-0.067
-341.362	800.000	-0.040	-0.162
-340.348	-200.000	0.005	-0.026
-339.333	52.665	-0.164	0.155
-338.318	-70.384	0.237	-0.089
-337.304	56.413	0.249	0.240
-336.289	380.420	0.136	-0.277
-335.275	1.340	0.268	-0.191
-334.260	34.545	0.291	-0.252
-333.245	76.424	0.116	0.122
-332.231	-200.000	-0.007	-0.118
-331.216	159.761	-0.123	-0.170
-330.202	-24.328	0.471	0.278
-329.187	684.283	-0.036	-0.093
-328.172	319.412	0.025	-0.048
-327.158	-200.000	-0.017	0.181
-326.143	-38.780	-0.304	-0.159
-325.129	20.179	0.233	0.187
-324.114	-22.660	-0.131	0.078
-323.099	-33.998	0.356	0.194
-322.085	-89.763	0.068	0.020
-321.070	214.847	-0.165	-0.259
-320.056	-69.326	0.095	-0.036
-319.041	800.000	-0.122	-0.357
-318.026	-92.894	-0.216	0.060
-317.012	69.663	0.072	-0.073
-315.997	-200.000	0.014	0.281
-314.983	-200.000	0.001	0.109
-313.968	-111.721	0.146	-0.029
-312.953	-200.000	-0.015	-0.118
-311.939	-135.863	0.261	-0.031
-310.924	-45.414	0.183	0.090
-309.910	524.177	-0.075	0.174
-308.895	343.548	-0.191	-0.370
-307.880	225.956	0.174	-0.279
-306.866	-200.000	-0.049	-0.350
-305.851	-12.573	0.084	0.054
-304.837	-200.000	-0.012	-0.470
-303.822	-86.733	0.011	0.003
-302.807	-9.030	0.201	0.133
-301.793	-200.000	-0.023	-0.175
-300.778	800.000	-0.042	-0.160
-299.764	-200.000	-0.038	-0.273
-298.749	11.045	0.217	-0.164
-297.735	-200.000	-0.003	0.072
-296.720	-166.193	0.349	0.015
-295.705	-107.074	-0.094	0.020
-294.691	-200.000	0.044	0.262
-293.676	56.173	-0.089	0.085
-292.662	-200.000	-0.013	0.102
-291.647	274.132	-0.076	-0.133
-290.632	-200.000	-0.010	0.043
-289.618	297.054	-0.051	0.093
-288.603	-200.000	-0.011	-0.071
-287.589	-106.578	-0.044	0.010
-286.574	-19.482	-0.218	0.134
-285.559	102.600	0.122	-0.141
-284.545	-127.865	0.252	-0.036
-283.530	39.648	0.231	-0.205
-282.516	501.644	-0.026	0.059
-281.501	317.335	-0.124	-0.233
-280.486	-200.000	0.010	-0.211
-279.472	-79.931	0.347	0.115
-278.457	800.000	-0.039	0.156
-277.443	90.350	0.160	-0.177
-276.428	-74.658	-0.289	-0.103
-275.413	-117.125	0.398	-0.072
-274.399	98.165	0.120	-0.136
-273.384	150.009	-0.026	-0.035
-272.370	-39.919	-0.282	0.145
-271.355	-119.112	-0.117	0.020
-270.340	-200.000	0.013	0.102
-269.326	-128.074	0.073	0.010
-268.311	784.019	-0.050	-0.135
-267.297	-75.716	-0.247	-0.087
-266.282	-200.000	0.005	0.024
-265.267	-200.000	-0.009	0.125
-264.253	531.272	-0.102	0.237
-263.238	21.849	0.142	-0.115
-262.224	17.531	-0.182	0.143
-261.209	526.643	0.074	-0.173
-260.195	-174.257	-0.148	0.004
-259.180	-176.222	-0.137	0.004
-258.165	-200.000	0.012	0.131
-257.151	-62.885	-0.076	-0.031
-256.136	449.116	-0.067	0.147
-255.122	572.542	0.056	-0.136
-254.107	800.000	0.068	-0.283
-253.092	32.613	0.051	-0.043
-252.078	-86.522	-0.150	-0.046
-251.063	-161.647	-0.431	0.022
-250.049	-200.000	0.026	0.343
-249.034	800.000	0.117	0.343
-248.019	55.802	0.048	0.046
-247.005	100.739	-0.295	-0.339
-245.990	-43.612	-0.044	-0.022
-244.976	-170.602	0.342	-0.012
-243.961	90.751	0.298	-0.330
-242.946	124.052	0.156	0.194
-241.932	-200.000	-0.002	0.023
-240.917	-138.835	-0.026	0.003
-239.903	-200.000	0.017	-0.211
-238.888	57.972	-0.185	-0.179
-237.873	-44.533	0.163	-0.080
-236.859	-200.000	-0.016	0.106
-235.844	-14.634	-0.106	-0.067
-234.830	-200.000	-0.000	-0.341
-233.815	182.222	-0.231	-0.335
-232.800	-200.000	-0.003	-0.078
-231.786	800.000	-0.067	-0.222
-230.771	-20.717	0.070	-0.042
-229.757	-200.000	0.000	0.398
-228.742	-72.924	-0.361	0.131
-227.727	-60.412	0.202	0.085
-226.713	392.460	0.072	0.147
-225.698	49.610	-0.169	0.157
-224.684	-39.546	-0.125	0.065
-223.669	602.709	0.106	0.260
-222.655	18.756	-0.233	-0.184
-221.640	-35.418	-0.107	0.057
-220.625	2.596	-0.090	0.065
-219.611	496.648	-0.058	0.133
-218.596	-179.624	0.345	0.007
-217.582	97.648	0.134	-0.152
-216.567	-99.042	-0.391	-0.098
-215.552	800.000	0.063	-0.176
-214.538	601.680	0.035	-0.086
-213.523	72.574	0.189	-0.194
-212.509	-200.000	0.019	0.102
-211.494	800.000	-0.072	0.250
-210.479	445.434	0.029	0.062
-209.465	-200.000	-0.211	0.001
-208.450	-101.579	-0.511	-0.122
-207.436	800.000	0.039	-0.158
-206.421	18.661	0.020	0.016
-205.406	70.773	-0.302	0.308
-204.392	-133.568	-0.311	-0.038
-203.377	226.054	-0.183	-0.292
-202.363	-90.178	0.148	-0.042
-201.348	1.600	0.200	-0.142
-200.333	36.195	-0.062	0.054
-199.319	-140.434	-0.225	0.023
-198.304	59.431	-0.233	0.226
-197.290	-65.401	-0.223	-0.089
-196.275	45.382	-0.190	0.172
-195.260	-49.888	0.219	-0.103
-194.246	79.542	-0.307	0.324
-193.231	-102.826	-0.173	0.041
-192.217	-14.628	-0.164	-0.104
-191.202	170.729	-0.229	0.324
-190.187	800.000	0.087	0.310
-189.173	130.795	-0.410	0.519
-188.158	-200.000	-0.031	0.167
-187.144	-74.052	-0.387	-0.138
-186.129	-5.307	0.235	0.159
-185.114	639.967	0.101	0.254
-184.100	48.554	-0.088	-0.081
-183.085	142.309	0.177	0.232
-182.071	-200.000	-0.002	0.209
-181.056	505.262	0.065	-0.148
-180.042	800.000	0.055	-0.163
-179.027	-34.222	0.030	-0.016
-178.012	36.336	-0.275	-0.239
-176.998	-200.000	-0.014	0.129
-175.983	-134.581	0.155	0.019
-174.969	194.977	-0.199	0.297
-173.954	261.976	0.050	-0.085
-172.939	196.684	0.055	-0.083
-171.925	673.421	0.041	0.106
-170.910	391.069	-0.189	0.387
-169.896	-200.000	0.002	0.067
-168.881	-123.833	-0.135	0.021
-167.866	-176.292	-0.133	-0.003
-166.852	-73.636	0.327	-0.118
-165.837	-122.191	0.164	0.026
-164.823	-84.957	0.292	-0.090
-163.808	-170.719	0.288	0.010
-162.793	-52.719	0.062	-0.028
-161.779	298.855	0.056	-0.102
-160.764	22.911	0.342	-0.276
-159.750	57.953	0.237	-0.229
-158.735	67.977	0.247	-0.249
-157.720	-14.858	-0.220	0.139
-156.706	800.000	0.128	0.449
-155.691	76.458	-0.218	0.228
-154.677	-200.000	-0.000	0.355
-153.662	169.636	0.216	0.303
-152.647	-58.595	0.198	0.084
-151.633	-200.000	-0.004	0.102
-150.618	-83.895	0.159	0.050
-149.604	800.000	-0.038	-0.141
-148.589	-174.923	-0.261	0.007
-147.574	233.567	-0.192	-0.311
-146.560	-56.718	0.026	0.012
-145.545	-200.000	0.022	-0.187
-144.531	208.293	-0.034	-0.052
-143.516	95.506	0.167	0.187
-142.502	-200.000	-0.010	-0.105
-141.487	-200.000	0.021	0.108
-140.472	49.057	0.097	0.090
-139.458	-92.216	0.198	-0.055
-138.443	-200.000	0.008	-0.113
-137.429	88.290	-0.230	0.251
-136.414	-67.102	-0.305	-0.118
-135.399	800.000	-0.086	-0.346
-134.385	-88.946	-0.426	0.124
-133.370	442.900	-0.174	0.376
-132.356	485.338	-0.153	0.343
-131.341	-200.000	-0.019	-0.213
-130.326	-123.341	0.326	0.051
-129.312	-162.639	0.196	-0.009
-128.297	62.905	-0.351	-0.345
-127.283	-10.203	0.295	0.192
-126.268	87.826	-0.146	-0.160
-125.253	-92.192	0.097	-0.027
-124.239	377.073	0.049	-0.099
-123.224	-31.755	-0.148	-0.082
-122.210	-37.137	-0.157	0.083
-121.195	135.778	0.141	0.181
-120.180	-88.163	0.138	-0.041
-119.166	-147.681	0.128	0.011
-118.151	-200.000	0.020	0.172
-117.137	342.670	0.062	0.119
-116.122	-200.000	-0.007	-0.047
-115.107	-77.236	0.260	0.089
-114.093	122.041	-0.133	0.164
-113.078	260.460	0.114	-0.194
-112.064	425.131	-0.115	-0.244
-111.049	-128.627	-0.433	0.060
-110.034	70.352	0.154	-0.156
-109.020	123.593	-0.067	0.082
-108.005	-200.000	-0.014	-0.363
-106.991	-64.590	0.280	0.112
-105.976	800.000	0.018	0.065
-104.962	-175.392	-0.188	-0.005
-103.947	-200.000	0.013	0.162
-102.932	-117.587	-0.041	0.007
-101.918	116.527	-0.156	0.188
-100.903	324.294	-0.144	-0.270
-99.889	-18.294	0.168	0.103
-98.874	213.056	0.214	0.332
-97.859	800.000	-0.046	-0.156
-96.845	800.000	-0.052	0.153
-95.830	123.088	-0.106	0.131
-94.816	800.000	-0.090	-0.256
-93.801	800.000	-0.059	0.175
-92.786	-21.463	-0.150	-0.090
-91.772	208.463	-0.117	0.179
-90.757	189.368	0.084	-0.124
-89.743	43.943	0.127	-0.114
-88.728	114.713	-0.198	0.237
-87.713	-7.697	0.178	-0.118
-86.699	-200.000	-0.007	0.173
-85.684	-6.660	-0.258	0.173
-84.670	636.111	0.087	-0.216
-83.655	-121.402	-0.061	0.010
-82.640	-200.000	0.005	0.163
-81.626	-26.425	0.160	-0.092
-80.611	98.079	0.069	-0.078
-79.597	26.556	-0.396	-0.325
-78.582	290.752	0.081	-0.144
-77.567	-105.071	-0.414	-0.093
-76.553	37.168	0.216	0.188
-75.538	-200.000	0.026	0.131
-74.524	-200.000	0.017	-0.279
-73.509	6.194	-0.218	-0.158
-72.494	-164.207	0.305	-0.014
-71.480	185.704	0.094	-0.136
-70.465	-117.757	-0.317	-0.056
-69.451	-62.679	-0.189	0.077
-68.436	193.020	0.062	0.092
-67.422	-14.494	-0.214	-0.135
-66.407	267.758	0.024	-0.042
-65.392	639.738	0.138	-0.345
-64.378	-34.889	-0.035	0.019
-63.363	-200.000	-0.084	-0.414
-62.349	-200.000	0.065	0.285
-61.334	55.771	-1.264	-1.202
-60.319	159.818	0.303	0.414
-59.305	432.325	-0.428	-0.910
-58.290	40.832	1.015	0.898
-57.276	373.714	0.752	1.501
-56.261	-200.000	108.815	599.542
-55.246	447.627	1492.585	3221.613
-54.232	144.946	2684.800	3520.258
-53.217	99.802	2293.831	2605.043
-52.203	38.518	1903.820	1664.334
-51.188	32.639	1691.893	1434.424
-50.173	30.072	1648.726	1378.697
-49.159	49.259	1703.328	1569.988
-48.144	49.297	1718.596	1584.290
-47.130	32.144	1675.658	1416.696
-46.115	29.471	1660.261	1383.620
-45.100	29.232	1656.067	1378.284
-44.086	29.227	1653.469	1376.027
-43.071	29.251	1650.277	1373.494
-42.057	29.214	1647.962	1371.239
-41.042	29.236	1646.437	1370.076
-40.027	29.236	1644.034	1368.022
-39.013	29.251	1642.088	1366.464
-37.998	29.178	1640.898	1364.878
-36.984	29.281	1639.455	1364.382
-35.969	29.368	1637.611	1363.440
-34.954	29.498	1635.705	1362.755
-33.940	29.316	1634.628	1360.468
-32.925	29.349	1632.879	1359.201
-31.911	29.372	1630.992	1357.739
-30.896	29.352	1629.330	1356.160
-29.881	29.316	1627.810	1354.571
-28.867	29.436	1626.153	1354.024
-27.852	29.408	1624.947	1352.763
-26.838	29.384	1623.384	1351.225
-25.823	29.403	1622.158	1350.295
-24.809	29.460	1620.518	1349.292
-23.794	29.371	1620.117	1348.254
-22.779	29.458	1617.698	1346.826
-21.765	29.434	1615.927	1345.118
-20.750	29.294	1614.491	1342.854
-19.736	29.317	1613.487	1342.129
-18.721	29.376	1611.740	1341.055
-17.706	29.373	1610.347	1339.816
-16.692	29.403	1608.868	1338.749
-15.677	29.375	1607.150	1337.064
-14.663	29.397	1606.099	1336.298
-13.648	29.425	1604.115	1334.800
-12.633	29.370	1603.250	1333.630
-11.619	29.347	1601.589	1332.025
-10.604	29.453	1600.259	1331.635
-9.590	29.478	1598.713	1330.470
-8.575	29.496	1597.418	1329.469
-7.560	29.493	1596.146	1328.343
-6.546	29.373	1595.197	1326.631
-5.531	29.395	1593.904	1325.662
-4.517	29.372	1592.702	1324.447
-3.502	29.392	1591.763	1323.757
-2.487	29.623	1589.127	1323.168
-1.473	29.062	1578.383	1310.176
-0.458	26.191	1559.046	1273.853
0.556	20.894	1559.992	1241.435
1.571	18.562	1583.001	1242.755
2.586	18.218	1595.741	1250.127
3.600	16.745	1543.470	1198.653
4.615	9.518	1434.759	1066.422
5.629	1.853	1370.591	969.995
6.644	0.316	1362.338	954.342
7.659	0.134	1361.051	952.207
8.673	0.090	1360.362	951.365
9.688	0.020	1358.440	949.493
10.702	-0.037	1355.316	946.868
11.717	3.573	1361.057	973.599
12.731	11.973	1374.025	1036.103
13.746	17.137	1381.134	1074.118
14.761	17.384	1379.875	1074.606
15.775	16.318	1377.197	1065.696
16.790	15.267	1374.807	1057.128
17.804	14.559	1372.071	1050.477
18.819	14.268	1371.193	1047.876
19.834	13.968	1369.277	1044.433
20.848	13.647	1368.394	1041.653
21.863	13.371	1367.145	1038.876
22.877	13.202	1366.017	1036.872
23.892	13.259	1364.973	1036.344
24.907	13.241	1364.038	1035.427
25.921	13.177	1363.403	1034.453
26.936	13.228	1362.984	1034.366
27.950	13.188	1362.147	1033.385
28.965	13.335	1360.470	1032.939
29.980	13.472	1359.464	1032.942
30.994	13.363	1358.617	1031.528
32.009	13.444	1357.442	1031.047
33.023	13.484	1356.467	1030.467
34.038	13.395	1355.325	1028.951
35.053	13.397	1354.270	1028.075
36.067	13.332	1353.661	1027.114
37.082	13.371	1352.399	1026.309
38.096	13.423	1351.825	1026.102
39.111	13.371	1350.685	1024.827
40.126	13.240	1350.283	1023.620
41.140	13.253	1348.556	1022.303
42.155	13.305	1348.307	1022.342
43.169	13.238	1348.268	1021.807
44.184	13.228	1347.824	1021.320
45.199	13.210	1347.539	1020.903
46.213	13.257	1346.888	1020.609
47.228	13.376	1345.958	1020.547
48.242	13.228	1345.153	1018.936
49.257	13.409	1343.077	1018.385
50.271	13.302	1341.848	1016.705
51.286	13.389	1340.354	1016.018
52.301	13.383	1339.294	1015.088
53.315	13.197	1339.147	1013.748
54.330	13.319	1337.283	1012.995
55.344	13.216	1336.313	1011.536
56.359	13.211	1335.342	1010.684
57.374	13.238	1334.601	1010.199
58.388	13.215	1333.537	1009.164
59.403	13.215	1332.906	1008.595
60.417	13.139	1332.208	1007.513
61.432	13.201	1331.113	1006.972
62.447	13.097	1330.628	1005.883
63.461	13.160	1328.562	1004.618
64.476	13.061	1328.214	1003.667
65.490	13.099	1326.634	1002.614
66.505	13.101	1325.285	1001.513
67.520	13.090	1324.167	1000.516
68.534	13.111	1323.283	999.885
69.549	13.210	1321.969	999.405
70.563	13.140	1320.940	998.113
71.578	13.217	1319.252	997.214
72.593	13.110	1319.247	996.477
73.607	13.043	1318.150	995.155
74.622	12.921	1317.901	994.149
75.636	13.065	1316.841	994.125
76.651	12.991	1316.154	993.076
77.666	13.064	1315.347	992.814
78.680	12.976	1315.363	992.208
79.695	13.037	1313.746	991.269
80.709	13.113	1313.084	991.137
81.724	13.151	1312.441	990.796
82.739	13.231	1311.115	990.185
83.753	13.178	1310.468	989.290
84.768	13.185	1309.585	988.580
85.782	13.368	1308.091	988.454
86.797	13.287	1306.710	986.843
87.812	13.215	1305.559	985.455
88.826	13.273	1304.522	984.933
89.841	13.211	1303.790	983.921
90.855	13.251	1302.667	983.224
91.870	13.425	1301.336	983.166
92.884	13.434	1300.745	982.685
93.899	13.365	1300.264	981.831
94.914	13.437	1299.423	981.535
95.928	13.286	1299.365	980.508
96.943	13.337	1297.696	979.463
97.957	13.366	1296.608	978.724
98.972	13.390	1295.740	978.129
99.987	13.404	1294.565	977.238
101.001	13.380	1293.406	976.132
102.016	13.346	1292.639	975.267
103.030	13.412	1292.024	975.105
104.045	13.483	1290.810	974.522
105.060	13.384	1289.609	972.944
106.074	13.320	1288.229	971.446
107.089	13.266	1287.066	970.164
108.103	13.185	1285.914	968.736
109.118	13.221	1284.856	968.061
110.133	13.276	1283.563	967.322
111.147	13.292	1281.843	966.035
112.162	13.261	1280.912	965.066
113.176	13.208	1280.142	964.095
114.191	13.236	1279.094	963.380
115.206	13.246	1277.893	962.448
116.220	13.224	1277.005	961.566
117.235	13.320	1275.657	961.027
118.249	13.204	1274.866	959.673
119.264	13.088	1273.451	957.848
120.279	13.209	1272.486	957.741
121.293	13.199	1271.057	956.518
122.308	13.260	1270.401	956.297
123.322	13.128	1269.648	954.882
124.337	13.197	1268.410	954.264
125.352	13.202	1266.939	953.101
126.366	13.105	1266.222	951.917
127.381	13.179	1264.939	951.295
128.395	13.129	1264.260	950.417
129.410	13.198	1263.356	950.045
130.424	13.186	1262.446	949.210
131.439	13.350	1261.196	949.125
132.454	13.376	1260.361	948.563
133.468	13.253	1260.056	947.546
134.483	13.301	1259.369	947.222
135.497	13.263	1258.068	945.940
136.512	13.380	1256.208	945.126
137.527	13.315	1255.233	943.940
138.541	13.354	1253.993	943.146
139.556	13.337	1252.600	941.917
140.570	13.404	1251.564	941.433
141.585	13.327	1250.289	939.956
142.600	13.432	1249.093	939.571
143.614	13.442	1248.284	938.932
144.629	13.462	1247.534	938.400
145.643	13.483	1246.427	937.603
146.658	13.481	1244.508	936.068
147.673	13.439	1243.519	935.001
148.687	13.429	1242.449	934.057
149.702	13.325	1241.349	932.560
150.716	13.348	1240.144	931.705
151.731	13.298	1238.897	930.404
152.746	13.413	1237.654	930.033
153.760	13.383	1236.326	928.787
154.775	13.429	1235.132	928.066
155.789	13.462	1234.613	927.777
156.804	13.449	1233.103	926.489
157.819	13.389	1232.657	925.734
158.833	13.638	1231.350	926.064
159.848	13.659	1230.552	925.497
160.862	13.651	1229.309	924.439
161.877	13.586	1228.120	923.098
162.892	13.637	1227.013	922.471
163.906	13.525	1226.655	921.494
164.921	13.518	1225.301	920.360
165.935	13.513	1224.653	919.762
166.950	13.604	1223.686	919.459
167.964	13.566	1223.317	918.888
168.979	13.558	1222.333	918.025
169.994	13.672	1221.585	918.014
171.008	13.708	1220.874	917.597
172.023	13.571	1220.055	916.142
173.037	13.662	1219.391	916.068
174.052	13.550	1218.890	914.992
175.067	13.689	1216.882	914.168
176.081	13.705	1216.151	913.624
177.096	13.556	1215.428	912.183
178.110	13.557	1214.528	911.428
179.125	13.620	1212.981	910.537
180.140	13.640	1211.853	909.716
181.154	13.733	1211.020	909.524
182.169	13.675	1209.714	908.143
183.183	13.756	1208.146	907.330
184.198	13.876	1206.813	906.902
185.213	13.742	1206.166	905.604
186.227	13.916	1204.891	905.515
187.242	13.851	1204.019	904.428
188.256	13.904	1203.098	903.943
189.271	13.942	1201.859	903.137
190.286	13.857	1201.049	901.987
191.300	13.766	1200.063	900.675
192.315	13.581	1200.033	899.566
193.329	13.686	1198.529	898.930
194.344	13.726	1197.974	898.650
195.359	13.837	1197.668	898.942
196.373	13.867	1196.989	898.515
197.388	13.884	1196.479	898.148
198.402	13.901	1195.767	897.622
199.417	14.009	1195.315	897.790
200.432	14.046	1194.568	897.349
201.446	14.158	1193.587	897.135
202.461	14.177	1192.298	896.189
203.475	14.175	1191.289	895.341
204.490	14.019	1190.445	893.790
205.504	14.047	1189.098	892.847
206.519	14.069	1187.687	891.827
207.534	14.094	1186.457	890.958
208.548	14.014	1185.397	889.658
209.563	14.109	1184.735	889.588
210.577	14.076	1184.071	888.838
211.592	14.080	1183.540	888.380
212.607	14.209	1182.224	888.001
213.621	14.117	1181.253	886.706
214.636	14.215	1180.653	886.695
215.650	14.152	1179.862	885.689
216.665	14.183	1178.694	884.897
217.680	14.293	1177.809	884.740
218.694	14.354	1176.875	884.284
219.709	14.279	1176.389	883.440
220.723	14.314	1175.471	882.862
221.738	14.303	1174.880	882.278
222.753	14.326	1173.926	881.609
223.767	14.421	1173.081	881.397
224.782	14.393	1172.651	880.852
225.796	14.481	1172.192	880.892
226.811	14.492	1171.333	880.226
227.826	14.373	1171.137	879.372
228.840	14.417	1169.939	878.627
229.855	14.398	1169.281	877.956
230.869	14.370	1168.500	877.143
231.884	14.387	1167.324	876.273
232.899	14.332	1166.770	875.488
233.913	14.414	1166.102	875.340
234.928	14.399	1165.230	874.532
235.942	14.394	1164.724	874.046
236.957	14.430	1163.568	873.290
237.972	14.445	1162.848	872.754
238.986	14.442	1162.489	872.390
240.001	14.489	1161.572	871.872
241.015	14.423	1160.869	870.920
242.030	14.635	1159.586	870.987
243.045	14.501	1159.204	869.926
244.059	14.475	1158.912	869.496
245.074	14.641	1157.716	869.382
246.088	14.548	1157.086	868.347
247.103	14.552	1156.145	867.586
248.117	14.711	1155.480	867.837
249.132	14.682	1155.114	867.336
250.147	14.708	1154.431	866.883
251.161	14.769	1153.546	866.456
252.176	14.694	1153.245	865.766
253.190	14.810	1151.983	865.341
254.205	14.946	1151.643	865.713
255.220	15.008	1151.061	865.521
256.234	14.803	1150.474	863.943
257.249	15.025	1149.227	864.076
258.263	14.957	1148.920	863.419
259.278	14.977	1148.035	862.777
260.293	15.003	1147.513	862.443
261.307	15.048	1147.394	862.510
262.322	14.955	1146.675	861.414
263.336	15.050	1145.708	861.100
264.351	15.186	1144.933	861.139
265.366	15.095	1144.399	860.193
266.380	15.203	1143.738	860.176
267.395	15.245	1142.976	859.744
268.409	15.110	1141.855	858.134
269.424	15.167	1141.492	858.075
270.439	15.095	1140.827	857.132
271.453	15.190	1139.689	856.687
272.468	15.068	1139.404	855.772
273.482	15.061	1138.826	855.226
274.497	15.119	1138.068	854.877
275.512	15.153	1137.234	854.352
276.526	15.129	1136.478	853.585
277.541	15.200	1135.724	853.305
278.555	15.131	1135.673	852.837
279.570	15.207	1134.419	852.208
280.585	15.243	1133.600	851.698
281.599	15.269	1132.895	851.227
282.614	15.405	1131.663	850.914
283.628	15.310	1130.672	849.614
284.643	15.243	1130.048	848.733
285.657	15.353	1128.733	848.226
286.672	15.262	1128.229	847.308
287.687	15.457	1126.792	847.139
288.701	15.354	1126.441	846.280
289.716	15.329	1125.801	845.602
290.730	15.343	1124.963	844.968
291.745	15.385	1124.385	844.667
292.760	15.477	1123.232	844.188
293.774	15.395	1123.187	843.670
294.789	15.388	1122.852	843.310
295.803	15.459	1121.895	842.871
296.818	15.504	1120.938	842.303
297.833	15.396	1120.170	841.109
298.847	15.485	1119.677	841.113
299.862	15.440	1118.934	840.254
300.876	15.524	1118.153	840.012
301.891	15.678	1117.181	839.980
302.906	15.671	1116.134	839.083
303.920	15.630	1116.157	838.818
304.935	15.658	1115.176	838.146
305.949	15.803	1114.564	838.336
306.964	15.832	1113.717	837.767
307.979	15.730	1113.053	836.687
308.993	15.662	1112.371	835.764
310.008	15.813	1111.611	835.871
311.022	15.824	1110.377	834.923
312.037	15.833	1109.985	834.596
313.052	15.862	1108.866	833.824
314.066	15.640	1108.402	832.305
315.081	15.779	1107.252	832.055
316.095	15.667	1107.012	831.248
317.110	15.735	1106.147	830.862
318.125	15.743	1105.297	830.188
319.139	15.777	1104.454	829.646
320.154	15.809	1103.920	829.333
321.168	15.682	1103.497	828.314
322.183	15.675	1102.490	827.453
323.197	15.725	1102.342	827.511
324.212	15.715	1101.549	826.796
325.227	15.857	1100.886	826.921
326.241	15.795	1100.356	826.147
327.256	15.793	1099.373	825.325
328.270	15.736	1098.546	824.350
329.285	15.844	1097.832	824.274
330.300	15.874	1096.763	823.542
331.314	15.893	1095.608	822.694
332.329	15.897	1094.730	821.986
333.343	15.896	1094.310	821.591
334.358	15.958	1093.155	820.954
335.373	15.986	1092.489	820.515
336.387	16.032	1091.952	820.263
337.402	16.034	1090.931	819.438
338.416	16.090	1090.524	819.328
339.431	16.110	1090.012	818.971
340.446	16.123	1089.047	818.237
341.460	16.165	1088.629	818.053
342.475	16.083	1087.806	816.964
343.489	16.276	1086.654	816.963
344.504	16.238	1085.969	816.189
345.519	16.238	1084.973	815.368
346.533	16.349	1084.047	815.133
347.548	16.272	1083.460	814.250
348.562	16.264	1082.750	813.608
349.577	16.176	1082.473	812.905
350.592	16.284	1081.208	812.400
351.606	16.231	1080.630	811.641
352.621	16.248	1079.763	810.998
353.635	16.228	1079.385	810.547
354.650	16.219	1078.517	809.779
355.665	16.238	1077.890	809.328
356.679	16.293	1077.203	809.004
357.694	16.354	1076.625	808.790
358.708	16.322	1075.889	808.014
359.723	16.444	1074.996	807.853
360.738	16.401	1074.906	807.511
361.752	16.390	1074.170	806.831
362.767	16.382	1073.859	806.491
363.781	16.479	1072.972	806.215
364.796	16.547	1072.051	805.776
365.810	16.619	1071.738	805.811
366.825	16.563	1071.120	805.007
367.840	16.645	1070.614	804.950
368.854	16.700	1069.971	804.657
369.869	16.527	1069.440	803.365
370.883	16.649	1068.269	802.991
371.898	16.603	1067.768	802.324
372.913	16.650	1067.202	802.052
373.927	16.615	1066.639	801.393
374.942	16.626	1066.096	800.964
375.956	16.650	1065.990	800.927
376.971	16.674	1065.116	800.315
377.986	16.714	1064.558	800.012
379.000	16.844	1063.964	800.109
380.015	16.868	1063.391	799.719
381.029	16.868	1062.819	799.220
382.044	17.024	1061.757	799.083
383.059	16.997	1061.252	798.505
384.073	16.918	1060.450	797.459
385.088	16.872	1059.744	796.641
386.102	16.926	1058.499	795.889
387.117	16.744	1058.111	794.674
388.132	16.756	1056.787	793.667
389.146	16.947	1055.911	793.832
390.161	17.007	1055.257	793.551
391.175	16.871	1054.813	792.510
392.190	16.846	1054.218	791.878
393.205	16.946	1053.468	791.712
394.219	16.906	1052.632	790.825
395.234	16.930	1051.492	790.010
396.248	16.949	1050.433	789.234
397.263	17.041	1049.515	788.903
398.278	16.863	1049.070	787.673
399.292	16.958	1048.365	787.513
400.307	16.986	1047.480	786.909
401.321	16.899	1047.206	786.229
402.336	16.899	1046.520	785.645
403.350	17.041	1045.463	785.438
404.365	16.917	1045.149	784.558
405.380	17.037	1044.748	784.744
406.394	16.939	1043.904	783.586
407.409	17.065	1043.290	783.637
408.423	17.233	1042.025	783.395
409.438	17.219	1041.622	782.957
410.453	17.203	1041.140	782.454
411.467	17.183	1040.722	781.975
412.482	17.267	1039.582	781.438
413.496	17.210	1039.255	780.860
414.511	17.305	1038.351	780.548
415.526	17.345	1037.907	780.328
416.540	17.440	1037.389	780.306
417.555	17.351	1036.827	779.407
418.569	17.349	1036.562	779.131
419.584	17.429	1035.842	778.887
420.599	17.302	1035.653	778.096
421.613	104.008	1323.271	1472.313
422.628	95.336	1365.127	1472.447
