DTS Sentinel unit serial number:	SN413079Multiplexer serial number:	ORYXHardware model number:	OX4-SRSoftware version number:	ORYX F/W v4.00 Oryx Data Collector v3.7.2.0data status	okinstallation	princeton_trtdifferential loss correction	single-endedforward channel	channel 2reverse channel	N/Adate	2019/09/16time	16:07:35forward acquisition time	60.00reverse acquisition time	0.00gamma	496.2192k internal	0.2300k external	0.2300temperature offset calibration	0.9943default loss term (dB/km)	0.3790temperature slope calibration	1.0000multiplexer offset coefficient	1.0000multiplexer slope coefficient	1.0000fibre end	0.00T internal ref (°C)	40.83T ext. ref 1 (°C)	14.94T ext. ref 2 (°C)	35.01length (m)	temperature (°C)	Stokes	anti-Stokes-747.200	-200.000	-0.027	0.505
-746.185	-200.000	-0.019	0.211
-745.171	-164.207	-0.389	0.018
-744.156	276.497	-0.124	0.226
-743.142	-135.572	0.091	0.011
-742.127	395.753	-0.110	0.235
-741.112	-49.771	-0.222	0.108
-740.098	482.526	-0.070	0.163
-739.083	190.886	0.128	0.196
-738.069	800.000	0.093	0.310
-737.054	-112.741	0.202	0.041
-736.039	-7.201	-0.209	-0.145
-735.025	-162.155	0.185	-0.009
-734.010	800.000	0.055	0.181
-732.996	-54.694	-0.224	-0.103
-731.981	-200.000	0.033	-0.154
-730.966	-49.602	-0.181	0.088
-729.952	-200.000	0.007	0.196
-728.937	4.917	-0.213	-0.160
-727.923	-141.120	0.037	0.004
-726.908	-60.258	-0.067	-0.029
-725.894	-116.378	-0.234	0.044
-724.879	256.128	-0.160	0.281
-723.864	120.889	-0.258	0.327
-722.850	-6.505	-0.176	0.122
-721.835	-114.471	-0.187	0.037
-720.821	-200.000	0.027	0.417
-719.806	360.060	0.125	-0.255
-718.791	-200.000	0.053	0.291
-717.777	714.607	0.151	-0.409
-716.762	49.101	-0.063	0.060
-715.748	-10.311	-0.373	0.252
-714.733	-79.210	-0.027	0.009
-713.718	257.973	-0.137	-0.240
-712.704	-137.250	0.236	-0.027
-711.689	38.006	-0.356	-0.322
-710.675	537.344	0.053	-0.128
-709.660	-79.357	0.133	-0.046
-708.645	675.683	0.044	0.117
-707.631	45.236	0.109	-0.102
-706.616	-147.821	-0.224	-0.019
-705.602	70.156	-0.119	0.125
-704.587	24.355	-0.120	-0.101
-703.572	-18.284	0.155	0.099
-702.558	-200.000	-0.016	-0.191
-701.543	-95.873	-0.187	-0.051
-700.529	800.000	0.088	-0.328
-699.514	-2.546	-0.058	-0.041
-698.499	54.183	0.066	-0.065
-697.485	339.439	-0.010	-0.019
-696.470	-76.567	-0.063	-0.023
-695.456	-117.557	0.239	-0.044
-694.441	800.000	-0.034	-0.102
-693.426	46.723	0.211	-0.200
-692.412	67.337	-0.116	-0.121
-691.397	-130.829	0.235	0.032
-690.383	-58.010	0.257	0.114
-689.368	-178.442	-0.048	-0.001
-688.354	-24.228	0.205	0.125
-687.339	-41.956	0.098	0.051
-686.324	-126.727	0.097	-0.015
-685.310	-141.805	-0.125	0.013
-684.295	-200.000	-0.004	-0.050
-683.281	-200.000	0.027	0.281
-682.266	-53.546	-0.170	-0.079
-681.251	122.997	-0.165	-0.210
-680.237	11.105	-0.229	0.179
-679.222	-200.000	-0.015	0.095
-678.208	352.394	0.090	-0.182
-677.193	194.675	-0.223	-0.344
-676.178	76.755	-0.209	0.225
-675.164	800.000	0.071	0.279
-674.149	-125.249	0.178	-0.028
-673.135	-52.999	0.069	-0.032
-672.120	-200.000	-0.021	0.461
-671.105	128.457	-0.093	-0.121
-670.091	-49.021	-0.114	-0.055
-669.076	427.168	0.091	0.199
-668.062	-200.000	-0.012	0.402
-667.047	-200.000	0.096	0.457
-666.032	142.168	0.119	-0.160
-665.018	146.889	-0.199	0.272
-664.003	323.744	-0.142	-0.275
-662.989	338.164	0.014	0.028
-661.974	800.000	-0.033	0.129
-660.959	146.897	-0.101	0.138
-659.945	60.840	-0.053	0.054
-658.930	504.791	-0.099	0.233
-657.916	800.000	-0.012	0.040
-656.901	800.000	0.059	-0.177
-655.886	-179.963	0.118	0.003
-654.872	-40.785	-0.083	-0.044
-653.857	164.148	0.153	0.220
-652.843	11.477	-0.249	0.194
-651.828	-117.572	-0.303	0.056
-650.814	419.983	-0.207	0.450
-649.799	57.873	-0.111	0.110
-648.784	-103.261	-0.162	0.039
-647.770	14.663	0.143	0.114
-646.755	-174.434	-0.131	-0.004
-645.741	133.071	0.293	0.384
-644.726	-47.403	-0.017	0.008
-643.711	-38.238	0.354	0.191
-642.697	800.000	0.012	-0.052
-641.682	-50.132	-0.345	0.166
-640.668	-200.000	-0.000	0.227
-639.653	318.312	-0.175	-0.337
-638.638	14.274	0.241	-0.191
-637.624	28.246	0.129	0.111
-636.609	45.006	-0.240	-0.225
-635.595	335.182	-0.149	0.293
-634.580	-41.529	-0.158	0.082
-633.565	34.047	-0.064	-0.057
-632.551	800.000	0.039	0.173
-631.536	-16.633	-0.339	0.218
-630.522	-57.991	0.123	-0.054
-629.507	-45.009	0.183	-0.093
-628.492	-96.746	-0.102	0.027
-627.478	343.902	-0.065	-0.130
-626.463	-113.029	-0.253	0.051
-625.449	59.699	0.153	-0.153
-624.434	-179.454	0.401	0.009
-623.419	158.472	-0.027	-0.037
-622.405	90.469	-0.166	-0.189
-621.390	-200.000	-0.035	0.290
-620.376	-30.132	-0.458	0.265
-619.361	252.558	0.104	0.179
-618.346	46.376	-0.301	-0.283
-617.332	-200.000	0.021	0.099
-616.317	315.881	-0.118	0.227
-615.303	-76.282	-0.063	-0.022
-614.288	-200.000	0.011	-0.092
-613.273	800.000	0.056	-0.242
-612.259	297.792	-0.087	-0.162
-611.244	-20.260	-0.130	0.081
-610.230	129.641	0.265	0.344
-609.215	128.928	0.105	-0.136
-608.201	-126.212	-0.097	-0.015
-607.186	800.000	-0.050	0.181
-606.171	-200.000	-0.007	0.111
-605.157	346.311	-0.076	0.152
-604.142	87.301	0.094	-0.106
-603.128	31.485	-0.119	0.104
-602.113	15.381	0.302	0.240
-601.098	-48.357	-0.264	0.129
-600.084	-34.495	-0.407	-0.226
-599.069	-78.435	-0.329	-0.114
-598.055	109.569	0.239	0.291
-597.040	-74.310	0.148	0.054
-596.025	134.123	0.071	-0.093
-595.011	352.289	-0.143	0.288
-593.996	385.423	0.068	0.142
-592.982	800.000	-0.062	-0.185
-591.967	-200.000	0.005	0.234
-590.952	111.176	-0.247	0.302
-589.938	-200.000	0.047	-0.222
-588.923	-108.892	-0.217	0.047
-587.909	-200.000	0.021	0.514
-586.894	-119.290	0.240	0.042
-585.879	368.927	0.113	0.232
-584.865	800.000	0.070	-0.246
-583.850	161.026	-0.188	-0.266
-582.836	238.615	-0.176	0.296
-581.821	800.000	0.053	0.154
-580.806	-200.000	-0.017	0.254
-579.792	-200.000	-0.003	0.033
-578.777	432.704	0.105	-0.232
-577.763	6.565	0.157	-0.118
-576.748	-140.175	0.124	-0.013
-575.733	83.697	-0.041	-0.045
-574.719	155.047	-0.069	-0.096
-573.704	132.292	-0.037	0.048
-572.690	8.496	-0.203	0.155
-571.675	-200.000	0.005	-0.154
-570.661	-6.877	0.446	-0.307
-569.646	32.400	0.226	-0.198
-568.631	-173.040	0.125	0.004
-567.617	800.000	-0.011	0.048
-566.602	-30.917	-0.061	-0.035
-565.588	548.469	-0.090	0.217
-564.573	-196.724	-0.250	0.002
-563.558	-58.284	-0.100	-0.044
-562.544	211.080	0.158	-0.252
-561.529	800.000	-0.119	-0.516
-560.515	141.176	0.086	-0.115
-559.500	-53.182	-0.149	0.069
-558.485	2.989	-0.030	0.022
-557.471	-17.943	-0.240	0.152
-556.456	-117.234	-0.217	0.040
-555.442	-72.230	0.392	0.147
-554.427	3.836	0.206	-0.153
-553.412	-200.000	-0.002	0.110
-552.398	-200.000	0.035	-0.157
-551.383	-28.543	0.181	-0.105
-550.369	-97.475	-0.060	-0.016
-549.354	-138.002	0.416	0.047
-548.339	-165.350	0.106	-0.005
-547.325	800.000	0.107	-0.313
-546.310	-200.000	0.011	0.057
-545.296	-136.109	-0.311	-0.037
-544.281	219.594	-0.097	0.158
-543.266	-200.000	-0.048	0.296
-542.252	282.539	0.164	0.298
-541.237	-148.882	-0.312	-0.025
-540.223	448.562	0.107	-0.238
-539.208	-200.000	0.006	-0.227
-538.193	510.615	0.067	0.157
-537.179	155.722	-0.135	0.188
-536.164	-102.609	-0.100	-0.024
-535.150	-39.276	0.067	-0.036
-534.135	-149.199	-0.188	0.015
-533.121	28.181	-0.401	0.343
-532.106	127.309	-0.086	-0.111
-531.091	-179.627	-0.308	-0.007
-530.077	43.492	-0.253	0.234
-529.062	-200.000	0.013	-0.187
-528.048	-200.000	-0.008	0.078
-527.033	-171.517	-0.178	0.006
-526.018	231.169	0.093	-0.154
-525.004	327.600	0.078	-0.152
-523.989	353.230	-0.066	-0.133
-522.975	18.981	0.074	0.060
-521.960	-101.458	0.059	-0.014
-520.945	-200.000	0.050	-0.355
-519.931	-121.291	-0.125	-0.021
-518.916	-152.040	0.075	0.006
-517.902	647.177	0.159	0.411
-516.887	43.035	-0.114	0.105
-515.872	-200.000	0.042	-0.516
-514.858	-200.000	-0.009	0.243
-513.843	115.819	-0.231	0.286
-512.829	-88.116	0.233	-0.071
-511.814	-67.942	0.247	0.098
-510.799	54.718	-0.182	0.178
-509.785	634.509	-0.023	0.060
-508.770	-162.707	0.173	-0.009
-507.756	-200.000	0.031	-0.172
-506.741	112.665	0.062	0.076
-505.726	800.000	0.132	0.442
-504.712	-200.000	0.019	-0.268
-503.697	-200.000	-0.044	0.376
-502.683	-200.000	0.001	-0.330
-501.668	661.713	-0.131	-0.341
-500.653	-78.193	-0.092	0.032
-499.639	245.024	-0.030	-0.050
-498.624	12.459	0.105	0.082
-497.610	83.934	-0.105	0.116
-496.595	-173.723	-0.220	-0.007
-495.581	-200.000	0.010	0.069
-494.566	-123.859	0.105	-0.017
-493.551	275.333	0.026	0.046
-492.537	-200.000	0.078	-0.493
-491.522	13.132	0.189	-0.148
-490.508	-123.839	-0.668	-0.106
-489.493	107.160	-0.189	-0.227
-488.478	-94.577	0.153	0.042
-487.464	531.848	0.037	0.089
-486.449	302.897	0.076	0.143
-485.435	-133.451	0.148	-0.019
-484.420	-52.558	0.172	0.080
-483.405	800.000	-0.031	0.135
-482.391	-145.344	-0.314	-0.029
-481.376	-15.449	0.294	0.189
-480.362	115.163	0.145	-0.179
-479.347	184.374	-0.125	-0.186
-478.332	137.222	-0.107	-0.141
-477.318	-76.271	0.177	-0.063
-476.303	387.869	0.072	-0.149
-475.289	-83.072	-0.067	-0.022
-474.274	800.000	0.051	0.191
-473.259	39.280	-0.204	0.185
-472.245	119.858	0.036	-0.046
-471.230	-44.009	-0.196	-0.100
-470.216	800.000	-0.100	0.342
-469.201	131.937	0.085	-0.110
-468.186	20.989	-0.157	-0.128
-467.172	46.653	-0.064	0.060
-466.157	447.459	0.079	0.176
-465.143	-200.000	0.011	-0.058
-464.128	-86.488	0.247	-0.077
-463.113	-53.161	0.142	-0.066
-462.099	-200.000	0.044	0.237
-461.084	82.141	0.136	-0.149
-460.070	-35.257	-0.189	-0.104
-459.055	-162.069	-0.362	-0.018
-458.040	165.553	0.125	-0.178
-457.026	37.010	0.261	0.233
-456.011	-1.644	0.127	-0.090
-454.997	-85.828	-0.225	0.070
-453.982	418.657	-0.051	-0.110
-452.968	676.605	-0.069	-0.180
-451.953	233.149	-0.075	0.124
-450.938	800.000	-0.165	-0.511
-449.924	800.000	0.080	-0.232
-448.909	3.994	0.105	0.078
-447.895	131.372	0.258	0.334
-446.880	-32.706	-0.137	-0.077
-445.865	-36.411	-0.207	0.113
-444.851	-200.000	-0.032	-0.187
-443.836	-23.502	0.057	-0.035
-442.822	48.423	-0.182	-0.172
-441.807	-200.000	0.016	0.103
-440.792	800.000	-0.073	0.268
-439.778	-22.957	0.163	0.099
-438.763	-62.886	-0.083	-0.035
-437.749	-105.896	-0.320	0.073
-436.734	173.774	-0.114	0.167
-435.719	74.287	0.153	-0.162
-434.705	-95.959	-0.296	0.079
-433.690	-200.000	-0.013	0.315
-432.676	-98.811	-0.529	0.136
-431.661	-200.000	-0.024	-0.297
-430.646	161.416	-0.210	0.296
-429.632	55.446	0.203	0.198
-428.617	-177.161	0.209	0.005
-427.603	-200.000	0.012	0.353
-426.588	4.194	-0.261	0.193
-425.573	158.343	0.128	-0.179
-424.559	800.000	-0.046	0.166
-423.544	800.000	0.105	0.364
-422.530	-27.316	-0.196	-0.115
-421.515	-200.000	0.039	-0.467
-420.500	-200.000	0.050	-0.247
-419.486	-124.279	0.083	-0.013
-418.471	-87.022	-0.440	0.135
-417.457	-80.146	0.056	0.019
-416.442	-78.203	0.055	0.019
-415.428	-68.230	-0.277	0.108
-414.413	437.368	0.064	-0.141
-413.398	712.069	-0.025	0.067
-412.384	800.000	-0.128	-0.504
-411.369	209.493	-0.056	-0.088
-410.355	-125.409	-0.416	0.064
-409.340	77.729	-0.173	0.185
-408.325	-200.000	0.040	0.266
-407.311	131.653	0.187	0.242
-406.296	-143.522	-0.134	-0.013
-405.282	-145.416	-0.212	0.019
-404.267	-200.000	-0.008	-0.170
-403.252	272.856	0.063	0.113
-402.238	-67.033	0.247	0.098
-401.223	800.000	0.073	-0.317
-400.209	51.273	-0.112	-0.107
-399.194	32.209	-0.109	-0.095
-398.179	101.225	0.116	-0.136
-397.165	-36.820	0.204	0.110
-396.150	150.937	-0.167	-0.229
-395.136	-86.795	-0.192	0.059
-394.121	24.951	0.055	-0.046
-393.106	492.493	-0.122	0.281
-392.092	-157.448	0.286	-0.017
-391.077	-108.985	-0.099	-0.021
-390.063	14.374	-0.165	0.130
-389.048	-200.000	-0.026	0.303
-388.033	110.235	-0.227	0.274
-387.019	101.024	0.208	-0.243
-386.004	109.617	0.160	-0.193
-384.990	40.654	-0.211	0.191
-383.975	800.000	0.085	0.335
-382.960	-16.616	-0.275	-0.175
-381.946	-101.826	-0.246	0.060
-380.931	800.000	-0.114	-0.319
-379.917	-200.000	-0.030	-0.228
-378.902	133.810	-0.142	0.185
-377.888	-200.000	0.040	0.473
-376.873	-200.000	0.010	0.133
-375.858	245.590	0.133	0.226
-374.844	110.461	-0.119	0.144
-373.829	-61.299	0.147	0.062
-372.815	-135.539	0.274	0.033
-371.800	-31.716	0.051	0.029
-370.785	-57.522	0.231	-0.102
-369.771	-168.161	-0.075	-0.003
-368.756	-200.000	0.037	0.293
-367.742	-17.507	0.107	0.068
-366.727	204.112	-0.154	-0.240
-365.712	-146.260	0.351	-0.031
-364.698	800.000	0.050	-0.178
-363.683	113.036	0.050	-0.061
-362.669	-200.000	0.000	0.307
-361.654	37.277	-0.159	-0.142
-360.639	-40.768	0.150	-0.078
-359.625	-103.519	0.192	0.045
-358.610	-200.000	-0.008	0.243
-357.596	128.269	-0.018	0.022
-356.581	4.098	-0.212	0.156
-355.566	-160.199	-0.366	0.020
-354.552	800.000	-0.036	-0.156
-353.537	-130.983	-0.207	-0.028
-352.523	81.321	0.210	0.228
-351.508	366.617	-0.084	-0.170
-350.493	-200.000	0.016	0.146
-349.479	-89.202	0.146	-0.043
-348.464	443.556	0.108	0.239
-347.450	800.000	-0.099	-0.306
-346.435	-106.064	0.258	-0.058
-345.420	113.121	0.063	-0.077
-344.406	248.997	-0.165	-0.281
-343.391	431.259	0.146	-0.317
-342.377	-200.000	0.050	-0.253
-341.362	-200.000	0.035	0.194
-340.348	-183.756	-0.072	0.001
-339.333	-200.000	0.000	-0.137
-338.318	800.000	0.060	-0.213
-337.304	-56.107	-0.216	-0.097
-336.289	136.607	-0.076	-0.100
-335.275	193.882	0.141	0.214
-334.260	-200.000	0.010	-0.307
-333.245	354.371	0.020	-0.040
-332.231	-200.000	-0.072	-0.369
-331.216	-25.454	0.294	-0.174
-330.202	-31.769	-0.114	0.064
-329.187	-200.000	-0.033	0.149
-328.172	613.128	-0.079	-0.199
-327.158	-56.900	0.093	-0.041
-326.143	-61.710	-0.242	0.102
-325.129	-200.000	-0.022	-0.164
-324.114	-41.349	0.329	-0.170
-323.099	-139.388	0.175	-0.019
-322.085	99.640	-0.089	0.104
-321.070	-200.000	-0.008	0.129
-320.056	-87.849	0.229	-0.069
-319.041	800.000	-0.080	-0.278
-318.026	-98.224	0.207	-0.053
-317.012	277.857	-0.016	-0.028
-315.997	21.066	0.114	-0.092
-314.983	-200.000	-0.002	0.119
-313.968	-5.258	0.241	0.166
-312.953	-44.279	0.231	-0.116
-311.939	-149.133	-0.038	-0.003
-310.924	95.495	0.027	-0.031
-309.910	-200.000	-0.005	0.122
-308.895	-200.000	0.040	-0.224
-307.880	121.027	0.066	-0.083
-306.866	-112.800	0.344	-0.068
-305.851	800.000	-0.119	-0.486
-304.837	-200.000	-0.024	0.294
-303.822	-178.328	0.223	0.005
-302.807	-98.443	0.104	0.027
-301.793	-34.978	-0.266	-0.146
-300.778	60.546	-0.149	0.148
-299.764	-200.000	0.023	0.127
-298.749	172.205	0.075	-0.108
-297.735	-200.000	-0.058	-0.305
-296.720	-101.232	0.278	0.068
-295.705	-11.752	-0.286	0.188
-294.691	-200.000	-0.015	0.313
-293.676	800.000	0.046	0.163
-292.662	-163.035	0.206	0.010
-291.647	97.538	-0.295	0.340
-290.632	-200.000	0.031	-0.360
-289.618	-128.186	0.361	-0.052
-288.603	3.491	-0.285	0.208
-287.589	-79.155	0.262	-0.089
-286.574	45.412	-0.010	0.009
-285.559	-175.851	-0.137	-0.004
-284.545	-66.347	0.078	-0.031
-283.530	-135.830	0.357	-0.042
-282.516	42.291	0.314	0.286
-281.501	189.266	-0.135	0.202
-280.486	665.943	-0.055	0.142
-279.472	-141.054	0.047	-0.005
-278.457	322.016	-0.094	-0.179
-277.443	800.000	-0.046	-0.195
-276.428	-141.093	0.186	0.019
-275.413	-66.211	-0.060	-0.024
-274.399	-53.738	0.061	0.028
-273.384	-200.000	-0.001	-0.124
-272.370	62.965	-0.229	0.230
-271.355	-50.100	0.288	-0.137
-270.340	298.979	0.093	-0.172
-269.326	-62.916	-0.286	0.119
-268.311	53.826	0.082	-0.079
-267.297	-5.371	-0.115	0.079
-266.282	-69.271	-0.411	-0.158
-265.267	306.361	-0.147	-0.273
-264.253	16.897	-0.086	-0.068
-263.238	137.255	-0.107	-0.141
-262.224	800.000	-0.096	-0.333
-261.209	71.222	-0.211	0.219
-260.195	142.264	-0.261	0.346
-259.180	-200.000	-0.078	0.466
-258.165	-118.818	0.012	-0.002
-257.151	-200.000	-0.008	-0.077
-256.136	-200.000	-0.041	-0.234
-255.122	-125.797	0.264	0.040
-254.107	-60.178	0.065	0.028
-253.092	153.977	0.263	-0.361
-252.078	-39.624	0.181	0.095
-251.063	232.220	-0.193	0.317
-250.049	-105.315	-0.072	0.017
-249.034	8.077	0.142	-0.107
-248.019	-33.721	-0.143	-0.079
-247.005	-126.053	-0.175	0.026
-245.990	44.954	-0.304	-0.281
-244.976	131.361	0.113	-0.145
-243.961	208.056	0.051	0.080
-242.946	-68.443	-0.601	0.233
-241.932	73.023	0.241	0.252
-240.917	337.402	0.040	0.078
-239.903	-15.177	0.089	0.057
-238.888	124.026	0.152	-0.191
-237.873	147.904	-0.110	-0.148
-236.859	24.890	0.135	0.112
-235.844	-63.863	0.299	-0.122
-234.830	-127.653	0.135	0.019
-233.815	49.382	0.070	-0.066
-232.800	11.186	0.238	-0.182
-231.786	-83.232	0.142	-0.046
-230.771	-111.719	0.094	0.019
-229.757	-200.000	-0.054	0.239
-228.742	-99.711	0.358	0.090
-227.727	-62.431	0.217	-0.090
-226.713	800.000	-0.030	0.124
-225.698	275.553	0.050	0.089
-224.684	179.014	-0.012	-0.017
-223.669	800.000	0.017	0.062
-222.655	-86.872	0.331	0.101
-221.640	307.884	-0.049	-0.092
-220.625	-64.650	0.356	0.144
-219.611	11.810	0.047	0.036
-218.596	-200.000	-0.033	-0.277
-217.582	2.119	0.228	0.165
-216.567	-200.000	-0.003	-0.050
-215.552	-108.015	-0.235	0.051
-214.538	800.000	0.061	-0.217
-213.523	-200.000	-0.019	-0.182
-212.509	6.033	-0.215	-0.159
-211.494	-105.164	0.172	-0.039
-210.479	323.209	-0.071	0.135
-209.465	-90.207	-0.189	-0.055
-208.450	262.160	0.036	-0.062
-207.436	-200.000	0.024	0.238
-206.421	261.277	0.116	0.200
-205.406	-8.309	0.260	0.175
-204.392	-200.000	0.003	-0.567
-203.377	114.173	-0.068	-0.083
-202.363	-80.829	0.054	-0.018
-201.348	-200.000	0.040	0.292
-200.333	38.069	0.161	0.143
-199.319	185.997	-0.080	0.119
-198.304	-56.436	0.069	0.030
-197.290	800.000	-0.099	-0.388
-196.275	-66.079	0.197	0.078
-195.260	-108.992	0.158	-0.034
-194.246	-200.000	0.008	-0.214
-193.231	-200.000	0.055	-0.352
-192.217	111.947	-0.287	0.346
-191.202	-33.871	0.187	-0.103
-190.187	61.024	0.225	0.223
-189.173	-113.472	0.062	-0.012
-188.158	214.206	0.178	0.281
-187.144	69.350	-0.221	-0.227
-186.129	37.149	0.085	-0.075
-185.114	-124.684	0.243	-0.038
-184.100	-124.431	-0.317	-0.049
-183.085	494.634	0.155	0.356
-182.071	233.641	0.286	-0.470
-181.056	-80.017	0.072	0.024
-180.042	-61.784	-0.085	0.036
-179.027	152.239	0.242	-0.330
-178.012	-200.000	-0.005	-0.162
-176.998	7.278	0.310	-0.231
-175.983	0.270	0.127	0.091
-174.969	-137.331	-0.255	0.029
-173.954	411.829	0.052	-0.110
-172.939	435.024	0.180	-0.391
-171.925	-182.391	0.199	-0.004
-170.910	-200.000	-0.060	-0.440
-169.896	-14.490	-0.216	0.139
-168.881	-200.000	0.016	-0.104
-167.866	382.298	0.077	0.158
-166.852	103.271	0.222	0.260
-165.837	-17.819	-0.079	-0.050
-164.823	-137.782	0.550	0.061
-163.808	-170.724	0.243	0.008
-162.793	-61.317	-0.106	0.045
-161.779	-130.266	0.225	0.030
-160.764	-181.944	0.115	-0.002
-159.750	296.457	-0.140	0.257
-158.735	-92.993	-0.133	-0.037
-157.720	-55.879	-0.301	-0.134
-156.706	-145.899	0.283	-0.025
-155.691	-46.575	-0.381	-0.186
-154.677	-188.060	-0.077	-0.001
-153.662	130.919	-0.123	0.157
-152.647	664.474	0.042	0.108
-151.633	800.000	-0.066	-0.253
-150.618	-17.955	-0.205	-0.128
-149.604	8.770	0.104	-0.078
-148.589	82.701	0.270	-0.293
-147.574	800.000	0.091	0.255
-146.560	28.559	-0.311	-0.262
-145.545	91.196	-0.042	0.047
-144.531	-200.000	-0.052	-0.237
-143.516	-148.444	0.191	0.016
-142.502	-144.896	-0.172	-0.016
-141.487	16.317	0.191	0.150
-140.472	-98.312	0.332	0.085
-139.458	31.541	-0.112	0.096
-138.443	-96.817	0.299	0.078
-137.429	-200.000	-0.000	-0.116
-136.414	18.144	-0.196	0.156
-135.399	299.565	-0.164	0.301
-134.385	-94.072	-0.418	0.114
-133.370	-200.000	0.002	-0.150
-132.356	135.898	-0.069	-0.090
-131.341	800.000	0.020	-0.086
-130.326	-200.000	0.000	0.011
-129.312	-38.772	0.107	0.056
-128.297	800.000	-0.053	-0.221
-127.283	-200.000	0.014	0.075
-126.268	-200.000	0.011	0.176
-125.253	-146.377	0.088	-0.008
-124.239	206.022	0.034	0.053
-123.224	106.744	0.055	-0.065
-122.210	7.504	-0.258	-0.192
-121.195	600.702	0.078	0.193
-120.180	180.145	0.254	-0.371
-119.166	800.000	-0.059	0.250
-118.151	65.148	-0.155	-0.156
-117.137	-29.755	0.098	-0.055
-116.122	-46.276	0.122	-0.060
-115.107	229.590	0.207	0.337
-114.093	-105.611	0.102	-0.023
-113.078	-8.792	0.266	-0.178
-112.064	93.814	0.082	-0.093
-111.049	-14.747	-0.371	0.237
-110.034	800.000	0.054	-0.212
-109.020	-172.927	0.148	-0.005
-108.005	102.362	0.082	0.095
-106.991	289.928	0.161	-0.291
-105.976	-200.000	-0.004	-0.114
-104.962	-170.274	-0.027	0.001
-103.947	-200.000	0.017	-0.240
-102.932	-91.427	-0.395	-0.112
-101.918	-90.689	-0.192	-0.055
-100.903	12.464	0.175	0.134
-99.889	772.168	0.066	0.178
-98.874	526.851	0.135	-0.317
-97.859	394.933	-0.058	0.120
-96.845	-88.838	0.365	0.108
-95.830	800.000	-0.026	0.103
-94.816	-200.000	0.056	-0.290
-93.801	-119.524	-0.099	-0.017
-92.786	44.191	0.116	-0.106
-91.772	800.000	-0.025	0.078
-90.757	-81.967	0.236	0.077
-89.743	800.000	0.069	-0.217
-88.728	-200.000	-0.018	-0.209
-87.713	52.078	-0.219	-0.207
-86.699	-53.038	-0.210	0.096
-85.684	800.000	0.073	0.246
-84.670	390.346	-0.102	0.210
-83.655	-155.036	-0.239	0.016
-82.640	-0.832	0.224	-0.158
-81.626	305.546	0.144	0.267
-80.611	99.238	0.034	-0.040
-79.597	39.642	-0.111	0.099
-78.582	9.403	0.305	-0.230
-77.567	-99.124	-0.153	-0.039
-76.553	-52.273	0.097	0.045
-75.538	-44.461	0.110	0.055
-74.524	98.654	-0.067	0.077
-73.509	-84.100	0.157	-0.050
-72.494	-200.000	0.014	-0.290
-71.480	800.000	-0.077	-0.285
-70.465	132.362	0.156	0.199
-69.451	137.221	0.135	0.175
-68.436	-200.000	-0.029	-0.454
-67.422	248.894	-0.029	0.049
-66.407	-3.759	-0.122	-0.084
-65.392	-55.337	0.426	0.190
-64.378	183.045	0.205	-0.301
-63.363	0.759	0.366	0.261
-62.349	13.164	0.488	0.376
-61.334	14.539	-0.808	-0.627
-60.319	800.000	0.119	0.362
-59.305	-200.000	-0.092	-0.672
-58.290	190.487	0.429	0.640
-57.276	501.026	0.653	1.496
-56.261	-200.000	77.081	524.970
-55.246	544.372	1304.705	3093.889
-54.232	150.801	2536.919	3424.236
-53.217	111.279	2343.279	2804.174
-52.203	50.092	1962.267	1839.110
-51.188	44.144	1751.312	1594.765
-50.173	41.193	1706.044	1530.845
-49.159	55.791	1741.547	1676.038
-48.144	61.021	1760.077	1734.265
-47.130	44.016	1724.036	1568.689
-46.115	40.887	1709.581	1531.412
-45.100	40.657	1705.294	1525.746
-44.086	40.655	1702.660	1523.314
-43.071	40.839	1699.093	1521.468
-42.057	40.598	1697.627	1518.257
-41.042	40.685	1694.801	1516.330
-40.027	40.813	1692.860	1515.512
-39.013	40.738	1691.564	1513.722
-37.998	40.615	1690.546	1511.814
-36.984	40.679	1688.651	1510.541
-35.969	40.881	1686.871	1510.430
-34.954	40.905	1685.289	1509.136
-33.940	40.784	1683.814	1506.836
-32.925	40.815	1681.341	1504.798
-31.911	40.852	1679.824	1503.660
-30.896	40.811	1678.123	1501.765
-29.881	40.790	1676.473	1500.075
-28.867	40.821	1675.098	1499.013
-27.852	40.817	1673.572	1497.557
-26.838	40.794	1672.008	1495.931
-25.823	40.846	1670.928	1495.296
-24.809	40.872	1669.336	1494.001
-23.794	40.891	1668.070	1492.956
-22.779	40.933	1666.057	1491.408
-21.765	40.885	1664.549	1489.639
-20.750	40.806	1663.135	1487.722
-19.736	40.903	1661.707	1487.116
-18.721	40.890	1660.095	1485.512
-17.706	40.904	1658.770	1484.371
-16.692	40.874	1657.076	1482.577
-15.677	40.862	1655.833	1481.315
-14.663	40.868	1654.408	1480.024
-13.648	40.867	1653.076	1478.769
-12.633	40.815	1651.516	1476.929
-11.619	40.823	1649.657	1475.266
-10.604	40.854	1648.146	1474.089
-9.590	40.865	1646.659	1472.778
-8.575	40.767	1645.657	1471.102
-7.560	40.892	1644.141	1470.609
-6.546	40.877	1643.046	1469.461
-5.531	40.814	1641.957	1467.967
-4.517	40.826	1640.454	1466.649
-3.502	40.779	1639.906	1465.759
-2.487	40.892	1638.051	1464.873
-1.473	40.531	1626.454	1451.805
-0.458	37.357	1605.076	1409.685
0.556	30.533	1602.547	1367.596
1.571	27.506	1625.594	1364.510
2.586	26.432	1639.805	1368.199
3.600	24.705	1590.635	1314.372
4.615	20.310	1487.366	1198.645
5.629	15.973	1423.669	1118.480
6.644	15.090	1414.572	1105.409
7.659	14.920	1413.446	1103.304
8.673	14.938	1412.466	1102.566
9.688	14.802	1410.464	1100.006
10.702	14.695	1407.832	1097.156
11.717	16.628	1410.913	1112.176
12.731	20.049	1416.438	1138.962
13.746	20.047	1414.169	1137.026
14.761	17.692	1409.238	1117.541
15.775	16.358	1405.674	1105.886
16.790	15.178	1402.887	1095.884
17.804	14.320	1400.821	1088.563
18.819	13.769	1399.225	1083.629
19.834	13.430	1397.178	1079.739
20.848	13.199	1396.339	1077.489
21.863	12.973	1394.779	1074.718
22.877	12.797	1393.797	1072.715
23.892	12.789	1392.649	1071.689
24.907	12.811	1391.883	1071.148
25.921	12.862	1390.993	1070.701
26.936	12.847	1390.130	1069.840
27.950	12.810	1389.058	1068.681
28.965	12.972	1387.745	1068.624
29.980	13.066	1386.592	1068.254
30.994	13.056	1385.729	1067.429
32.009	12.951	1384.792	1065.931
33.023	13.060	1383.245	1065.354
34.038	13.048	1381.545	1063.874
35.053	12.961	1380.989	1062.790
36.067	12.892	1380.035	1061.514
37.082	12.912	1378.882	1060.661
38.096	13.040	1377.462	1060.299
39.111	12.962	1377.097	1059.425
40.126	12.936	1375.842	1058.199
41.140	12.807	1375.051	1056.669
42.155	12.724	1374.884	1055.916
43.169	12.810	1374.462	1056.050
44.184	12.696	1374.077	1054.928
45.199	12.700	1373.607	1054.500
46.213	12.861	1372.365	1054.483
47.228	12.798	1371.923	1053.645
48.242	12.915	1370.648	1053.323
49.257	12.908	1369.440	1052.255
50.271	12.857	1367.887	1050.646
51.286	12.908	1366.154	1049.544
52.301	12.928	1365.032	1048.716
53.315	12.899	1364.214	1047.816
54.330	12.866	1363.015	1046.589
55.344	12.749	1361.686	1044.733
56.359	12.767	1360.864	1044.128
57.374	12.799	1359.888	1043.486
58.388	12.682	1359.141	1042.079
59.403	12.825	1358.326	1042.269
60.417	12.691	1358.061	1041.127
61.432	12.625	1357.207	1039.962
62.447	12.726	1355.802	1039.431
63.461	12.630	1354.635	1037.842
64.476	12.651	1353.471	1036.990
65.490	12.651	1352.513	1036.160
66.505	12.597	1351.378	1034.861
67.520	12.671	1350.007	1034.186
68.534	12.677	1348.813	1033.213
69.549	12.737	1347.872	1032.778
70.563	12.614	1346.624	1030.963
71.578	12.688	1345.262	1030.293
72.593	12.624	1344.493	1029.208
73.607	12.535	1343.849	1028.071
74.622	12.592	1342.983	1027.671
75.636	12.662	1341.830	1027.133
76.651	12.602	1341.317	1026.278
77.666	12.563	1341.152	1025.820
78.680	12.642	1340.450	1025.683
79.695	12.616	1339.792	1024.928
80.709	12.743	1338.774	1024.848
81.724	12.681	1338.259	1023.976
82.739	12.812	1337.127	1023.833
83.753	12.816	1336.623	1023.381
84.768	12.872	1335.326	1022.648
85.782	12.924	1334.201	1022.015
86.797	12.918	1332.934	1020.920
87.812	12.799	1331.863	1019.269
88.826	12.847	1330.449	1018.394
89.841	12.907	1329.212	1017.731
90.855	12.886	1328.266	1016.784
91.870	12.957	1327.409	1016.477
92.884	12.839	1327.112	1015.434
93.899	12.923	1326.075	1015.067
94.914	12.906	1325.228	1014.224
95.928	13.012	1324.198	1013.997
96.943	13.022	1323.138	1013.158
97.957	12.993	1321.956	1011.984
98.972	12.966	1320.762	1010.816
99.987	12.978	1319.987	1010.205
101.001	12.889	1319.507	1009.205
102.016	13.004	1318.292	1008.890
103.030	12.918	1317.465	1007.644
104.045	12.953	1316.359	1006.923
105.060	12.876	1315.016	1005.332
106.074	12.869	1313.423	1003.986
107.089	12.714	1312.239	1002.045
108.103	12.741	1311.038	1001.205
109.118	12.741	1309.555	999.983
110.133	12.766	1308.106	998.944
111.147	12.734	1306.808	997.671
112.162	12.768	1305.453	996.752
113.176	12.788	1304.275	995.884
114.191	12.776	1303.558	995.174
115.206	12.827	1302.280	994.421
116.220	12.822	1301.165	993.448
117.235	12.837	1299.593	992.252
118.249	12.751	1298.962	991.170
119.264	12.808	1297.425	990.246
120.279	12.785	1296.298	989.160
121.293	12.735	1295.600	988.240
122.308	12.727	1294.164	987.010
123.322	12.758	1292.987	986.213
124.337	12.744	1292.406	985.600
125.352	12.771	1291.107	984.680
126.366	12.722	1289.894	983.379
127.381	12.722	1288.866	982.504
128.395	12.755	1288.225	982.129
129.410	12.792	1287.030	981.352
130.424	12.870	1285.823	980.810
131.439	12.917	1284.698	980.140
132.454	12.831	1284.435	979.342
133.468	12.918	1283.264	978.882
134.483	12.928	1282.817	978.510
135.497	12.902	1281.659	977.385
136.512	12.897	1279.820	975.870
137.527	12.898	1279.054	975.203
138.541	12.840	1277.311	973.445
139.556	12.946	1276.110	973.071
140.570	13.017	1275.128	972.653
141.585	12.993	1273.648	971.301
142.600	13.022	1272.659	970.626
143.614	12.965	1271.542	969.356
144.629	13.076	1270.255	968.940
145.643	13.133	1269.004	968.236
146.658	12.974	1267.977	966.436
147.673	12.999	1266.378	965.277
148.687	12.775	1265.896	963.514
149.702	12.854	1263.704	962.219
150.716	12.991	1262.191	961.782
151.731	12.905	1261.350	960.556
152.746	12.917	1260.080	959.573
153.760	12.863	1259.354	958.622
154.775	12.938	1257.978	957.924
155.789	13.003	1256.742	957.276
156.804	13.025	1255.606	956.457
157.819	13.077	1254.769	956.033
158.833	13.060	1253.814	955.123
159.848	13.143	1252.288	954.355
160.862	13.144	1251.786	953.896
161.877	13.008	1250.659	952.165
162.892	12.937	1249.827	951.039
163.906	12.921	1249.087	950.299
164.921	13.052	1247.536	949.787
165.935	13.187	1246.943	950.029
166.950	13.135	1246.154	949.043
167.964	13.044	1245.790	948.160
168.979	13.080	1244.986	947.671
169.994	13.133	1243.634	946.865
171.008	13.079	1243.253	946.179
172.023	13.190	1242.020	945.792
173.037	13.252	1241.050	945.324
174.052	13.175	1240.251	944.194
175.067	13.094	1239.568	943.125
176.081	13.113	1238.552	942.377
177.096	13.156	1237.945	942.081
178.110	13.240	1235.818	940.855
179.125	13.135	1235.295	939.779
180.140	13.170	1234.144	939.017
181.154	13.260	1232.430	938.138
182.169	13.224	1231.819	937.386
183.183	13.231	1230.516	936.352
184.198	13.313	1229.067	935.632
185.213	13.308	1227.986	934.695
186.227	13.372	1226.996	934.224
187.242	13.323	1226.438	933.441
188.256	13.356	1225.175	932.584
189.271	13.349	1224.262	931.766
190.286	13.295	1222.959	930.388
191.300	13.126	1222.597	929.077
192.315	13.049	1221.950	928.074
193.329	13.154	1220.631	927.577
194.344	13.179	1220.201	927.306
195.359	13.300	1219.905	927.683
196.373	13.309	1219.265	927.162
197.388	13.442	1218.201	927.014
198.402	13.558	1217.625	927.145
199.417	13.477	1217.431	926.462
200.432	13.627	1215.923	926.072
201.446	13.681	1215.265	925.788
202.461	13.552	1214.977	924.768
203.475	13.635	1213.655	924.141
204.490	13.596	1212.550	923.003
205.504	13.568	1211.358	921.858
206.519	13.557	1210.079	920.739
207.534	13.516	1209.245	919.799
208.548	13.508	1207.685	918.485
209.563	13.523	1207.433	918.298
210.577	13.633	1206.034	917.757
211.592	13.652	1205.437	917.328
212.607	13.773	1204.345	917.086
213.621	13.797	1203.488	916.482
214.636	13.788	1202.886	915.898
215.650	13.664	1202.017	914.467
216.665	13.777	1200.992	914.233
217.680	13.732	1200.297	913.373
218.694	13.747	1199.091	912.457
219.709	13.690	1198.591	911.682
220.723	13.859	1197.686	911.844
221.738	13.713	1197.073	910.493
222.753	13.775	1196.170	910.064
223.767	13.845	1195.481	909.844
224.782	13.907	1194.515	909.368
225.796	13.918	1193.988	908.945
226.811	14.048	1192.985	908.815
227.826	13.948	1192.424	907.756
228.840	13.819	1191.916	906.588
229.855	13.914	1191.088	906.394
230.869	13.801	1190.424	905.196
231.884	13.907	1189.087	904.676
232.899	13.893	1188.467	904.046
233.913	13.873	1187.468	903.100
234.928	13.873	1187.123	902.758
235.942	13.914	1185.971	902.025
236.957	13.873	1185.221	901.152
237.972	13.849	1184.752	900.581
238.986	13.893	1183.808	900.024
240.001	13.879	1183.317	899.497
241.015	13.887	1182.400	898.763
242.030	13.919	1181.745	898.360
243.045	14.000	1180.682	897.908
244.059	14.016	1179.943	897.351
245.074	14.053	1179.112	896.840
246.088	14.055	1178.590	896.378
247.103	14.104	1177.441	895.687
248.117	14.034	1177.191	895.042
249.132	14.113	1176.248	894.668
250.147	14.305	1175.498	895.050
251.161	14.307	1174.798	894.448
252.176	14.385	1173.897	894.106
253.190	14.304	1173.265	893.110
254.205	14.273	1173.171	892.791
255.220	14.421	1171.932	892.563
256.234	14.522	1170.894	892.232
257.249	14.402	1170.655	891.330
258.263	14.476	1170.049	891.186
259.278	14.515	1169.456	890.865
260.293	14.501	1168.665	890.106
261.307	14.524	1168.236	889.823
262.322	14.487	1167.871	889.273
263.336	14.509	1167.021	888.660
264.351	14.506	1166.429	888.114
265.366	14.527	1165.827	887.691
266.380	14.617	1165.090	887.531
267.395	14.561	1164.338	886.580
268.409	14.606	1163.176	885.857
269.424	14.550	1162.839	885.222
270.439	14.628	1162.043	884.957
271.453	14.547	1161.518	884.046
272.468	14.577	1160.027	882.995
273.482	14.473	1159.648	882.078
274.497	14.511	1159.428	882.029
275.512	14.535	1158.285	881.211
276.526	14.603	1157.391	880.812
277.541	14.554	1156.907	880.105
278.555	14.613	1155.836	879.524
279.570	14.664	1155.406	879.389
280.585	14.716	1154.780	879.109
281.599	14.787	1153.403	878.355
282.614	14.735	1152.397	877.236
283.628	14.783	1151.313	876.589
284.643	14.671	1150.864	875.582
285.657	14.669	1149.922	874.775
286.672	14.785	1148.599	874.301
287.687	14.814	1147.578	873.599
288.701	14.768	1147.017	872.850
289.716	14.775	1146.240	872.221
290.730	14.888	1145.482	872.153
291.745	14.803	1145.011	871.277
292.760	14.888	1143.908	870.800
293.774	14.826	1143.451	870.056
294.789	14.893	1143.057	870.028
295.803	15.064	1142.215	870.196
296.818	14.852	1141.933	868.806
297.833	15.039	1140.255	868.421
298.847	14.898	1139.836	867.295
299.862	14.883	1139.206	866.659
300.876	14.962	1138.322	866.320
301.891	15.039	1137.720	866.184
302.906	14.982	1137.152	865.378
303.920	15.065	1136.466	865.210
304.935	15.089	1135.707	864.679
305.949	15.125	1135.522	864.650
306.964	15.177	1134.654	864.178
307.979	15.272	1133.447	863.674
308.993	15.223	1133.117	863.090
310.008	15.188	1132.013	861.996
311.022	15.172	1131.467	861.418
312.037	15.250	1130.386	860.923
313.052	15.284	1129.303	860.197
314.066	15.157	1128.749	859.045
315.081	15.072	1127.865	857.861
316.095	15.196	1127.071	857.818
317.110	15.081	1126.053	856.377
318.125	15.255	1125.476	856.754
319.139	15.115	1125.025	855.620
320.154	15.185	1124.110	855.204
321.168	15.239	1123.353	854.826
322.183	15.244	1122.699	854.279
323.197	15.198	1122.496	853.815
324.212	15.247	1121.464	853.207
325.227	15.204	1121.147	852.668
326.241	15.252	1120.152	852.082
327.256	15.223	1119.387	851.274
328.270	15.277	1118.581	850.862
329.285	15.255	1117.928	850.178
330.300	15.233	1116.868	849.185
331.314	15.260	1115.844	848.467
332.329	15.199	1115.283	847.660
333.343	15.270	1114.370	847.247
334.358	15.408	1113.012	846.836
335.373	15.359	1112.908	846.438
336.387	15.381	1111.568	845.453
337.402	15.441	1110.973	845.226
338.416	15.419	1110.508	844.690
339.431	15.493	1110.001	844.600
340.446	15.557	1108.909	844.018
341.460	15.551	1108.728	843.775
342.475	15.638	1107.231	842.997
343.489	15.567	1106.885	842.301
344.504	15.649	1105.527	841.607
345.519	15.775	1104.895	841.682
346.533	15.732	1103.607	840.410
347.548	15.760	1102.972	839.993
348.562	15.821	1102.488	839.852
349.577	15.768	1101.311	838.617
350.592	15.613	1100.953	837.498
351.606	15.703	1100.321	837.391
352.621	15.780	1099.186	836.838
353.635	15.653	1099.011	835.999
354.650	15.703	1097.794	835.247
355.665	15.718	1097.489	835.018
356.679	15.674	1096.988	834.344
357.694	15.731	1096.211	833.957
358.708	15.762	1095.626	833.594
359.723	15.799	1095.229	833.400
360.738	15.842	1094.181	832.742
361.752	15.885	1093.643	832.472
362.767	15.879	1093.119	831.971
363.781	15.968	1092.317	831.725
364.796	15.977	1091.732	831.251
365.810	16.039	1091.157	831.047
366.825	15.921	1090.913	830.205
367.840	16.021	1090.281	830.144
368.854	16.001	1089.932	829.703
369.869	15.945	1089.229	828.821
370.883	16.102	1087.901	828.507
371.898	16.002	1087.316	827.498
372.913	16.091	1086.765	827.445
373.927	16.072	1086.081	826.757
374.942	16.180	1085.506	826.776
375.956	16.148	1085.098	826.232
376.971	16.203	1084.082	825.654
377.986	16.178	1084.012	825.408
379.000	16.208	1083.110	824.796
380.015	16.242	1082.696	824.572
381.029	16.255	1081.892	823.948
382.044	16.215	1081.615	823.473
383.059	16.233	1080.378	822.543
384.073	16.338	1079.870	822.598
385.088	16.372	1078.969	822.002
386.102	16.390	1078.118	821.371
387.117	16.318	1077.233	820.270
388.132	16.302	1075.917	819.121
389.146	16.294	1075.405	818.620
390.161	16.314	1074.618	818.045
391.175	16.352	1073.944	817.643
392.190	16.387	1072.873	816.923
393.205	16.406	1072.358	816.552
394.219	16.469	1071.620	816.221
395.234	16.379	1070.765	815.063
396.248	16.317	1069.819	813.974
397.263	16.293	1068.552	812.822
398.278	16.285	1067.861	812.186
399.292	16.294	1067.336	811.756
400.307	16.365	1066.602	811.472
401.321	16.332	1065.849	810.666
402.336	16.336	1065.228	810.143
403.350	16.412	1064.581	809.940
404.365	16.329	1064.246	809.217
405.380	16.316	1063.224	808.305
406.394	16.439	1062.544	808.307
407.409	16.567	1061.886	808.344
408.423	16.645	1060.989	807.967
409.438	16.721	1060.101	807.578
410.453	16.741	1059.514	807.156
411.467	16.655	1058.958	806.253
412.482	16.651	1058.263	805.631
413.496	16.770	1057.167	805.293
414.511	16.795	1056.885	805.122
415.526	16.883	1056.405	805.106
416.540	16.728	1055.983	803.976
417.555	16.781	1055.265	803.610
418.569	16.752	1054.860	803.092
419.584	16.776	1054.447	802.819
420.599	16.903	1053.688	802.773
421.613	86.443	1297.639	1376.195
422.628	79.573	1333.227	1376.316
