DTS Sentinel unit serial number:	SN413079Multiplexer serial number:	ORYXHardware model number:	OX4-SRSoftware version number:	ORYX F/W v4.00 Oryx Data Collector v3.7.2.0data status	okinstallation	princeton_trtdifferential loss correction	single-endedforward channel	channel 2reverse channel	N/Adate	2019/09/12time	05:49:11forward acquisition time	60.00reverse acquisition time	0.00gamma	496.2192k internal	0.2325k external	0.2325temperature offset calibration	1.0061default loss term (dB/km)	0.3790temperature slope calibration	1.0000multiplexer offset coefficient	1.0000multiplexer slope coefficient	1.0000fibre end	0.00T internal ref (°C)	32.05T ext. ref 1 (°C)	1.58T ext. ref 2 (°C)	27.50length (m)	temperature (°C)	Stokes	anti-Stokes-747.200	-200.000	-0.085	0.407
-746.185	-200.000	-0.333	-0.001
-745.171	-113.052	0.211	0.042
-744.156	-2.408	-0.366	0.259
-743.142	800.000	-0.126	0.359
-742.127	-200.000	0.059	0.399
-741.112	276.833	-0.041	0.074
-740.098	5.106	-0.590	0.438
-739.083	35.302	-0.174	-0.154
-738.069	67.409	-0.097	0.100
-737.054	-98.203	-0.247	0.064
-736.039	-27.302	-0.077	0.045
-735.025	249.084	0.154	0.264
-734.010	452.942	-0.104	-0.232
-732.996	-200.000	0.004	-0.279
-731.981	345.481	-0.110	-0.217
-730.966	-85.285	-0.263	0.083
-729.952	-198.624	-0.136	-0.001
-728.937	-170.680	-0.456	-0.016
-727.923	56.933	0.083	0.082
-726.908	800.000	0.090	0.288
-725.894	-123.048	-0.241	0.039
-724.879	-23.571	0.267	0.162
-723.864	104.788	-0.035	0.041
-722.850	286.111	-0.028	-0.051
-721.835	1.007	0.236	-0.170
-720.821	-200.000	0.039	-0.385
-719.806	545.778	0.073	-0.175
-718.791	-64.735	0.248	0.101
-717.777	-59.711	-0.333	-0.144
-716.762	480.169	-0.022	0.050
-715.748	442.683	0.094	-0.208
-714.733	-6.464	0.069	-0.047
-713.718	778.673	0.018	-0.049
-712.704	24.231	0.084	0.070
-711.689	800.000	-0.076	-0.272
-710.675	35.133	0.213	-0.188
-709.660	-105.054	-0.245	0.057
-708.645	68.460	-0.123	0.127
-707.631	-200.000	-0.027	0.306
-706.616	800.000	-0.076	0.235
-705.602	65.496	0.114	0.116
-704.587	128.921	0.305	-0.392
-703.572	-172.215	0.134	-0.004
-702.558	-200.000	0.027	-0.311
-701.543	-27.601	0.285	-0.167
-700.529	-200.000	0.005	-0.105
-699.514	-13.922	0.305	0.198
-698.499	-3.154	0.298	-0.209
-697.485	-200.000	0.013	0.317
-696.470	-32.496	0.308	-0.173
-695.456	-200.000	0.041	0.377
-694.441	184.224	-0.104	-0.155
-693.426	-200.000	-0.044	-0.233
-692.412	-156.932	0.132	0.008
-691.397	-6.472	-0.233	-0.160
-690.383	-142.619	-0.188	-0.019
-689.368	-44.199	-0.163	0.083
-688.354	279.281	0.027	0.049
-687.339	-4.558	-0.139	0.096
-686.324	-88.420	0.341	-0.103
-685.310	758.549	-0.039	0.107
-684.295	525.320	0.144	-0.341
-683.281	-19.577	-0.175	0.109
-682.266	-200.000	0.040	-0.181
-681.251	800.000	0.025	-0.106
-680.237	368.436	-0.115	-0.233
-679.222	-1.255	0.199	0.141
-678.208	-200.000	0.020	0.129
-677.193	-104.162	-0.154	-0.036
-676.178	-20.593	0.080	-0.050
-675.164	112.302	0.069	0.084
-674.149	-100.438	0.333	0.083
-673.135	9.934	-0.151	0.115
-672.120	-125.302	0.133	-0.020
-671.105	66.546	-0.253	0.259
-670.091	-90.669	-0.225	0.066
-669.076	301.303	-0.099	-0.184
-668.062	382.156	-0.042	-0.087
-667.047	206.057	-0.084	0.131
-666.032	800.000	0.027	0.084
-665.018	-101.321	0.118	0.029
-664.003	-124.685	0.130	-0.020
-662.989	547.912	0.126	0.304
-661.974	334.707	0.031	-0.061
-660.959	191.867	0.171	0.259
-659.945	-200.000	0.080	0.371
-658.930	-155.229	-0.111	-0.007
-657.916	-200.000	0.005	0.054
-656.901	800.000	0.085	0.283
-655.886	-200.000	0.010	-0.042
-654.872	34.260	0.134	-0.118
-653.857	-200.000	0.021	0.113
-652.843	292.397	0.208	0.381
-651.828	-137.853	-0.148	-0.017
-650.814	-200.000	-0.072	-0.333
-649.799	800.000	-0.033	0.120
-648.784	13.538	0.250	0.195
-647.770	-21.975	-0.238	-0.145
-646.755	-80.534	-0.092	-0.031
-645.741	773.301	-0.077	-0.211
-644.726	410.145	0.138	0.295
-643.711	134.909	-0.103	0.135
-642.697	80.806	-0.261	-0.283
-641.682	125.138	0.204	-0.259
-640.668	-113.489	-0.255	-0.050
-639.653	-200.000	0.004	-0.062
-638.638	170.306	0.223	-0.321
-637.624	-48.522	0.424	0.205
-636.609	275.498	0.181	-0.323
-635.595	-142.708	-0.336	-0.033
-634.580	591.541	-0.077	-0.192
-633.565	-98.126	-0.162	-0.042
-632.551	-69.664	-0.286	0.110
-631.536	157.439	-0.075	0.104
-630.522	800.000	-0.099	0.283
-629.507	-200.000	0.053	-0.376
-628.492	330.863	0.163	-0.316
-627.478	-52.136	0.268	-0.125
-626.463	-200.000	-0.068	0.341
-625.449	474.953	0.143	-0.325
-624.434	18.449	-0.513	-0.412
-623.419	-70.420	-0.354	-0.135
-622.405	-59.293	-0.230	0.099
-621.390	-200.000	-0.042	0.242
-620.376	-30.359	0.138	0.079
-619.361	-138.858	0.252	0.028
-618.346	151.621	0.244	0.334
-617.332	103.729	0.059	0.070
-616.317	-136.419	-0.132	-0.015
-615.303	300.367	0.248	0.460
-614.288	449.483	-0.078	0.173
-613.273	101.800	-0.123	0.144
-612.259	800.000	-0.097	-0.330
-611.244	-53.839	-0.078	-0.036
-610.230	337.852	0.141	0.276
-609.215	-16.366	-0.375	-0.239
-608.201	-94.700	-0.227	0.062
-607.186	-132.962	-0.115	-0.015
-606.171	167.948	0.126	0.180
-605.157	-32.357	0.267	0.150
-604.142	-29.790	0.097	-0.056
-603.128	800.000	0.015	0.057
-602.113	-8.070	0.176	-0.119
-601.098	800.000	-0.019	-0.074
-600.084	-200.000	-0.050	0.232
-599.069	-17.919	0.403	0.254
-598.055	-200.000	-0.015	-0.106
-597.040	-101.499	0.176	-0.043
-596.025	-126.171	0.103	0.016
-595.011	-61.877	0.101	0.043
-593.996	520.793	-0.073	-0.171
-592.982	33.534	0.217	-0.190
-591.967	-2.453	0.240	-0.168
-590.952	312.674	0.018	-0.033
-589.938	-78.309	-0.222	0.076
-588.923	-200.000	-0.004	0.078
-587.909	-89.043	0.270	0.080
-586.894	-75.267	-0.235	-0.084
-585.879	-115.970	0.281	0.053
-584.865	194.650	-0.125	-0.190
-583.850	-200.000	0.017	-0.097
-582.836	-143.532	0.054	-0.005
-581.821	81.081	0.083	0.090
-580.806	83.365	-0.073	-0.080
-579.792	81.946	0.067	-0.072
-578.777	-163.804	0.262	0.012
-577.763	-95.062	-0.348	-0.094
-576.748	800.000	0.136	0.512
-575.733	-18.986	0.361	0.225
-574.719	-55.872	-0.186	-0.083
-573.704	32.495	-0.116	0.100
-572.690	128.264	-0.082	0.105
-571.675	800.000	-0.107	-0.320
-570.661	-90.174	0.155	0.045
-569.646	430.228	0.066	0.142
-568.631	-104.951	0.207	0.048
-567.617	18.311	0.158	-0.127
-566.602	212.673	-0.208	0.329
-565.588	33.461	-0.261	0.227
-564.573	61.283	-0.253	-0.252
-563.558	-0.741	-0.087	-0.062
-562.544	-142.689	0.371	0.036
-561.529	-39.274	0.140	0.074
-560.515	165.407	-0.024	-0.034
-559.500	-136.490	0.317	-0.037
-558.485	-84.743	0.168	0.053
-557.471	49.442	-0.140	-0.132
-556.456	-100.438	0.134	0.033
-555.442	-200.000	0.041	-0.194
-554.427	403.224	0.031	-0.065
-553.412	-200.000	0.006	-0.163
-552.398	381.747	-0.110	-0.225
-551.383	108.723	0.073	0.087
-550.369	-101.187	-0.088	-0.022
-549.354	-164.141	-0.395	-0.018
-548.339	-56.736	0.243	0.108
-547.325	9.582	-0.227	-0.172
-546.310	308.782	-0.063	0.118
-545.296	-24.040	0.215	-0.129
-544.281	250.935	-0.070	-0.119
-543.266	103.562	-0.135	-0.159
-542.252	-117.810	0.182	0.033
-541.237	410.048	-0.065	-0.138
-540.223	-53.611	0.220	0.101
-539.208	-128.202	-0.315	-0.045
-538.193	243.165	-0.140	-0.235
-537.179	800.000	-0.050	0.162
-536.164	215.654	0.193	0.307
-535.150	-200.000	0.006	-0.071
-534.135	-137.117	0.082	-0.009
-533.121	87.846	0.220	-0.244
-532.106	134.058	0.099	0.129
-531.091	299.996	0.160	-0.296
-530.077	250.536	0.089	-0.152
-529.062	-67.716	-0.113	0.044
-528.048	-200.000	-0.022	0.372
-527.033	-200.000	0.016	-0.202
-526.018	-45.615	-0.240	0.119
-525.004	-200.000	-0.099	-0.443
-523.989	121.712	0.116	0.145
-522.975	-8.543	0.300	0.202
-521.960	800.000	-0.046	-0.197
-520.945	242.048	0.036	0.061
-519.931	224.619	-0.103	0.167
-518.916	87.458	-0.136	-0.150
-517.902	11.075	0.200	0.153
-516.887	-96.928	-0.123	0.032
-515.872	17.965	-0.339	-0.270
-514.858	-8.435	0.083	-0.056
-513.843	800.000	0.068	-0.214
-512.829	55.441	-0.125	-0.121
-511.814	-39.637	0.117	-0.061
-510.799	424.208	0.096	0.207
-509.785	542.990	-0.175	-0.418
-508.770	-200.000	-0.052	-0.245
-507.756	-88.820	-0.291	-0.086
-506.741	418.800	-0.074	0.158
-505.726	90.406	-0.177	0.198
-504.712	118.867	-0.218	0.270
-503.697	-83.191	0.306	-0.098
-502.683	-29.833	-0.152	-0.086
-501.668	-200.000	0.009	0.196
-500.653	176.324	0.142	0.206
-499.639	-50.796	-0.037	0.017
-498.624	-17.761	0.174	-0.109
-497.610	-36.761	0.076	-0.041
-496.595	-200.000	0.012	0.373
-495.581	-113.443	0.194	0.038
-494.566	168.539	-0.150	-0.214
-493.551	662.070	-0.119	0.307
-492.537	800.000	-0.078	0.288
-491.522	-151.009	-0.120	0.009
-490.508	-200.000	0.014	-0.077
-489.493	-200.000	-0.003	0.053
-488.478	195.962	0.029	0.045
-487.464	77.010	0.113	-0.120
-486.449	120.323	0.100	0.124
-485.435	420.464	0.036	-0.077
-484.420	305.453	-0.100	-0.185
-483.405	-200.000	0.002	-0.012
-482.391	267.759	-0.194	-0.339
-481.376	-60.353	-0.155	0.066
-480.362	-179.194	0.405	0.009
-479.347	-73.910	0.105	0.038
-478.332	94.937	0.110	-0.125
-477.318	-68.849	0.102	0.039
-476.303	-39.907	-0.317	-0.165
-475.289	-200.000	0.004	-0.101
-474.274	-147.993	-0.415	-0.034
-473.259	-70.364	0.231	-0.088
-472.245	468.887	0.087	-0.196
-471.230	-108.215	0.123	-0.027
-470.216	-28.976	-0.249	0.143
-469.201	280.272	0.066	-0.118
-468.186	-200.000	0.026	-0.262
-467.172	-11.438	0.058	-0.038
-466.157	64.841	0.144	0.145
-465.143	39.995	0.253	0.227
-464.128	42.932	-0.126	0.115
-463.113	15.286	-0.051	0.040
-462.099	-145.001	-0.225	-0.020
-461.084	-200.000	0.081	0.396
-460.070	-41.309	0.373	-0.192
-459.055	239.154	-0.100	0.166
-458.040	-200.000	0.016	0.199
-457.026	-17.759	0.085	-0.054
-456.011	-128.415	-0.015	0.002
-454.997	294.952	0.253	-0.461
-453.982	747.989	-0.114	-0.305
-452.968	-200.000	-0.002	0.084
-451.953	-90.022	0.307	0.089
-450.938	-200.000	-0.010	-0.091
-449.924	-200.000	-0.044	-0.221
-448.909	-85.302	0.072	-0.023
-447.895	268.304	0.117	0.205
-446.880	-110.629	-0.288	-0.059
-445.865	338.827	-0.071	-0.138
-444.851	224.701	0.094	-0.151
-443.836	307.067	0.061	0.113
-442.822	-79.238	-0.125	0.042
-441.807	121.040	0.168	0.209
-440.792	800.000	0.024	0.105
-439.778	231.127	-0.079	0.129
-438.763	800.000	-0.079	-0.243
-437.749	-200.000	-0.073	0.469
-436.734	-200.000	-0.059	0.284
-435.719	800.000	0.064	-0.197
-434.705	11.809	0.154	-0.118
-433.690	-172.785	0.196	-0.006
-432.676	-104.015	-0.424	-0.098
-431.661	-200.000	0.035	-0.169
-430.646	-181.820	0.193	0.004
-429.632	-200.000	-0.037	0.200
-428.617	-76.833	-0.062	0.021
-427.603	800.000	0.034	0.138
-426.588	-62.567	-0.087	-0.036
-425.573	101.959	0.243	-0.283
-424.559	-24.643	0.103	0.061
-423.544	-124.473	-0.251	0.039
-422.530	-88.456	-0.109	-0.032
-421.515	-200.000	0.049	-0.319
-420.500	800.000	0.060	-0.191
-419.486	-44.052	0.169	0.084
-418.471	-67.483	-0.134	-0.052
-417.457	-200.000	-0.014	-0.304
-416.442	-100.470	0.567	-0.140
-415.428	-200.000	-0.057	0.260
-414.413	115.370	-0.170	0.207
-413.398	-27.456	0.146	0.085
-412.384	737.069	0.075	0.200
-411.369	-92.234	-0.259	-0.073
-410.355	-112.990	0.125	-0.025
-409.340	111.484	0.177	-0.212
-408.325	-100.539	-0.139	-0.034
-407.311	800.000	0.114	0.461
-406.296	-27.137	0.172	-0.100
-405.282	159.773	-0.067	-0.093
-404.267	40.153	-0.083	0.074
-403.252	201.629	0.125	-0.192
-402.238	-106.488	-0.309	-0.069
-401.223	-40.266	0.235	0.122
-400.209	751.719	-0.036	0.097
-399.194	100.706	0.128	0.148
-398.179	-200.000	0.002	-0.036
-397.165	79.813	-0.298	0.319
-396.150	-200.000	0.018	-0.170
-395.136	800.000	-0.035	-0.099
-394.121	115.630	-0.302	-0.368
-393.106	220.411	-0.135	-0.215
-392.092	-55.888	-0.110	-0.049
-391.077	-159.962	0.207	0.011
-390.063	289.234	-0.053	-0.096
-389.048	800.000	0.084	0.330
-388.033	162.922	-0.181	0.253
-387.019	-14.036	0.312	-0.201
-386.004	-164.693	-0.062	0.003
-384.990	800.000	0.048	0.164
-383.975	-48.551	0.210	0.100
-382.960	-130.628	-0.564	-0.076
-381.946	191.010	0.071	-0.106
-380.931	-69.574	0.328	-0.125
-379.917	-200.000	0.013	-0.296
-378.902	-1.549	-0.269	0.189
-377.888	-90.286	0.234	-0.068
-376.873	-200.000	0.014	0.129
-375.858	215.326	0.098	-0.154
-374.844	-126.889	0.128	0.019
-373.829	-58.733	0.092	-0.040
-372.815	-64.106	-0.235	0.095
-371.800	-84.616	0.159	-0.050
-370.785	-200.000	0.016	-0.150
-369.771	-125.769	0.033	0.005
-368.756	-40.144	0.087	0.045
-367.742	-69.211	0.239	0.091
-366.727	-200.000	0.053	0.237
-365.712	-200.000	0.033	0.304
-364.698	165.848	-0.137	0.193
-363.683	-200.000	-0.110	0.487
-362.669	-200.000	-0.036	0.314
-361.654	-183.976	0.354	0.006
-360.639	120.475	0.168	0.208
-359.625	46.898	-0.192	0.178
-358.610	-158.844	0.292	0.017
-357.596	509.344	0.006	0.013
-356.581	-0.910	0.262	-0.185
-355.566	-200.000	-0.037	-0.201
-354.552	800.000	0.032	0.108
-353.537	-200.000	-0.071	-0.327
-352.523	800.000	-0.102	0.313
-351.508	-54.785	-0.254	0.114
-350.493	272.146	0.227	0.397
-349.479	-200.000	-0.030	0.262
-348.464	-128.489	-0.377	0.053
-347.450	-200.000	0.036	0.218
-346.435	800.000	0.041	-0.168
-345.420	-200.000	0.024	0.115
-344.406	116.702	-0.002	0.003
-343.391	-5.778	0.146	-0.099
-342.377	465.818	-0.011	-0.026
-341.362	-73.489	0.389	-0.141
-340.348	-126.733	0.144	0.021
-339.333	-2.150	0.147	-0.103
-338.318	-82.762	0.252	0.081
-337.304	-200.000	0.026	-0.120
-336.289	-63.230	-0.301	-0.123
-335.275	800.000	0.011	-0.036
-334.260	800.000	-0.028	0.117
-333.245	-127.708	-0.090	0.013
-332.231	-200.000	0.008	-0.123
-331.216	-31.154	0.077	-0.043
-330.202	-200.000	0.014	-0.127
-329.187	62.776	-0.287	-0.285
-328.172	-200.000	0.023	0.261
-327.158	100.961	-0.201	0.232
-326.143	468.601	-0.066	-0.147
-325.129	27.592	0.545	0.456
-324.114	181.681	-0.060	-0.088
-323.099	8.363	-0.149	-0.111
-322.085	238.429	-0.180	0.297
-321.070	-200.000	-0.032	-0.296
-320.056	800.000	-0.081	-0.233
-319.041	800.000	-0.101	-0.340
-318.026	286.826	-0.123	-0.220
-317.012	271.788	-0.008	-0.013
-315.997	17.260	0.152	-0.119
-314.983	-51.122	-0.222	-0.103
-313.968	-147.969	0.359	0.030
-312.953	-81.753	-0.153	0.050
-311.939	-200.000	0.009	0.182
-310.924	340.138	-0.053	-0.102
-309.910	58.085	-0.075	-0.073
-308.895	-200.000	-0.012	0.061
-307.880	-200.000	-0.012	0.267
-306.866	676.945	-0.076	0.196
-305.851	800.000	-0.022	-0.071
-304.837	43.616	0.228	0.207
-303.822	-48.284	-0.475	-0.227
-302.807	-200.000	-0.005	0.143
-301.793	-60.272	-0.159	0.067
-300.778	-200.000	-0.011	0.153
-299.764	7.302	-0.207	-0.153
-298.749	-71.352	-0.149	0.055
-297.735	291.522	-0.041	-0.075
-296.720	-63.484	0.133	-0.054
-295.705	-141.413	0.167	-0.017
-294.691	774.593	-0.118	0.320
-293.676	-95.626	0.347	-0.092
-292.662	-147.873	-0.140	0.012
-291.647	-60.152	-0.390	-0.165
-290.632	125.227	-0.012	0.015
-289.618	10.955	-0.083	-0.063
-288.603	-200.000	-0.003	0.278
-287.589	-109.602	0.282	0.059
-286.574	-152.944	-0.197	-0.014
-285.559	298.617	-0.168	-0.307
-284.545	158.350	-0.160	-0.221
-283.530	457.223	-0.032	0.070
-282.516	-61.718	-0.358	-0.149
-281.501	-61.838	0.316	-0.131
-280.486	119.128	0.145	-0.178
-279.472	-78.497	-0.151	-0.051
-278.457	66.506	0.114	-0.115
-277.443	146.960	-0.239	0.319
-276.428	-200.000	0.005	-0.466
-275.413	154.889	0.160	0.218
-274.399	195.630	-0.057	-0.085
-273.384	14.645	0.067	-0.051
-272.370	800.000	0.024	0.069
-271.355	230.135	-0.133	-0.216
-270.340	-49.605	-0.049	0.023
-269.326	514.012	-0.047	0.108
-268.311	-20.541	0.028	0.017
-267.297	800.000	0.081	0.347
-266.282	-200.000	-0.014	0.230
-265.267	415.275	0.126	-0.267
-264.253	-173.252	0.089	-0.003
-263.238	-139.385	-0.300	-0.032
-262.224	-40.427	-0.248	0.127
-261.209	-180.132	0.349	-0.007
-260.195	374.754	0.174	0.350
-259.180	-200.000	-0.028	0.400
-258.165	564.209	-0.091	0.219
-257.151	230.496	0.054	0.087
-256.136	-200.000	0.045	-0.241
-255.122	-15.301	0.091	0.058
-254.107	42.009	-0.057	-0.052
-253.092	103.661	0.162	0.188
-252.078	115.004	0.292	-0.353
-251.063	-58.490	-0.166	0.071
-250.049	153.907	-0.081	0.110
-249.034	105.782	0.132	-0.154
-248.019	-100.612	-0.377	0.092
-247.005	417.335	0.118	-0.249
-245.990	800.000	0.055	-0.167
-244.976	800.000	-0.116	-0.323
-243.961	-190.970	0.360	-0.004
-242.946	-200.000	0.015	-0.129
-241.932	-53.921	-0.132	-0.059
-240.917	32.692	-0.188	0.161
-239.903	-200.000	-0.001	-0.102
-238.888	-95.531	0.304	-0.081
-237.873	-14.742	0.197	0.125
-236.859	-200.000	-0.009	0.037
-235.844	-103.424	0.293	-0.068
-234.830	263.078	-0.096	0.164
-233.815	42.952	-0.116	0.104
-232.800	-200.000	0.042	0.238
-231.786	272.650	0.195	-0.341
-230.771	800.000	-0.061	-0.196
-229.757	-200.000	-0.010	0.066
-228.742	48.705	-0.049	-0.046
-227.727	289.245	-0.065	0.116
-226.713	203.497	0.079	-0.121
-225.698	-200.000	-0.188	-0.000
-224.684	-200.000	-0.006	0.140
-223.669	-103.249	-0.150	0.035
-222.655	-9.494	-0.257	0.169
-221.640	-37.067	0.085	-0.045
-220.625	77.858	0.092	0.097
-219.611	-5.731	-0.290	-0.197
-218.596	-2.176	-0.123	-0.085
-217.582	419.296	-0.188	0.397
-216.567	237.583	0.298	-0.488
-215.552	800.000	-0.013	-0.053
-214.538	122.424	-0.100	0.124
-213.523	216.335	0.116	-0.183
-212.509	15.209	-0.182	-0.141
-211.494	-126.367	0.108	0.016
-210.479	-25.189	-0.061	0.036
-209.465	-109.107	-0.237	0.050
-208.450	179.912	0.079	-0.114
-207.436	158.734	-0.215	0.295
-206.421	-102.892	0.355	-0.083
-205.406	24.413	0.162	0.133
-204.392	158.877	-0.065	0.089
-203.377	56.197	-0.174	0.167
-202.363	-200.000	-0.026	-0.126
-201.348	-76.000	0.210	-0.073
-200.333	800.000	0.073	-0.254
-199.319	790.479	0.076	-0.206
-198.304	800.000	0.047	0.163
-197.290	800.000	-0.071	-0.289
-196.275	-133.678	-0.244	-0.030
-195.260	263.287	-0.034	-0.058
-194.246	-200.000	-0.025	-0.197
-193.231	-128.415	-0.133	-0.019
-192.217	-129.697	-0.217	-0.030
-191.202	206.958	0.028	-0.043
-190.187	-44.546	0.292	0.144
-189.173	-200.000	-0.017	-0.459
-188.158	304.838	-0.073	0.134
-187.144	49.579	-0.162	0.150
-186.129	-132.224	-0.058	-0.007
-185.114	376.337	-0.111	-0.223
-184.100	264.979	0.013	-0.022
-183.085	-200.000	-0.026	0.391
-182.071	-51.890	0.171	0.078
-181.056	-116.413	-0.142	-0.026
-180.042	-21.338	-0.437	0.263
-179.027	-139.216	-0.208	-0.022
-178.012	267.771	-0.055	0.095
-176.998	-56.981	0.447	-0.195
-175.983	-65.998	0.031	-0.012
-174.969	58.060	-0.167	0.161
-173.954	-200.000	0.067	0.313
-172.939	-64.339	-0.214	-0.086
-171.925	-114.699	-0.193	-0.036
-170.910	-200.000	0.009	-0.229
-169.896	138.027	0.106	0.137
-168.881	156.759	0.086	-0.117
-167.866	-127.890	0.140	0.020
-166.852	-174.316	0.063	-0.002
-165.837	-109.570	0.320	0.067
-164.823	-69.446	0.118	0.045
-163.808	-10.325	-0.260	0.170
-162.793	360.248	-0.157	0.311
-161.779	-99.348	-0.135	-0.034
-160.764	232.452	-0.238	0.386
-159.750	184.762	0.104	0.152
-158.735	-200.000	0.005	0.100
-157.720	756.039	-0.040	-0.107
-156.706	115.780	-0.104	0.126
-155.691	-26.119	0.354	0.205
-154.677	69.787	-0.176	-0.179
-153.662	-74.337	-0.146	-0.052
-152.647	-200.000	-0.047	0.238
-151.633	298.931	0.118	-0.213
-150.618	-125.790	0.194	0.029
-149.604	-200.000	-0.022	0.219
-148.589	-200.000	0.008	0.076
-147.574	800.000	0.032	-0.096
-146.560	495.611	0.094	-0.213
-145.545	-26.678	-0.196	-0.113
-144.531	-101.269	-0.165	-0.040
-143.516	184.353	0.115	-0.168
-142.502	-200.000	-0.060	-0.276
-141.487	-86.585	0.280	-0.085
-140.472	-200.000	-0.045	0.225
-139.458	-14.370	0.412	-0.262
-138.443	800.000	0.019	0.061
-137.429	107.512	0.144	0.169
-136.414	-182.759	-0.292	-0.005
-135.399	628.855	-0.059	0.147
-134.385	-18.755	-0.139	-0.085
-133.370	-200.000	-0.024	-0.260
-132.356	193.892	-0.249	-0.372
-131.341	-200.000	-0.067	-0.378
-130.326	800.000	0.097	-0.284
-129.312	-200.000	0.010	0.189
-128.297	270.721	0.143	0.248
-127.283	36.426	0.149	0.129
-126.268	800.000	-0.116	-0.353
-125.253	-76.326	0.201	0.070
-124.239	-168.239	0.284	0.011
-123.224	-121.216	-0.410	-0.068
-122.210	-117.228	0.319	-0.057
-121.195	11.945	0.088	0.067
-120.180	-128.040	0.067	0.009
-119.166	110.276	-0.113	-0.133
-118.151	679.393	-0.106	-0.272
-117.137	800.000	-0.092	-0.291
-116.122	198.640	-0.231	-0.349
-115.107	800.000	-0.028	-0.114
-114.093	-126.973	-0.262	-0.038
-113.078	15.874	-0.060	0.046
-112.064	-200.000	-0.017	-0.098
-111.049	-188.282	0.450	0.006
-110.034	711.824	-0.018	0.048
-109.020	-200.000	0.041	0.240
-108.005	151.594	-0.180	-0.242
-106.991	-200.000	0.067	0.318
-105.976	-200.000	0.039	0.353
-104.962	-24.573	-0.165	0.097
-103.947	-88.186	0.093	-0.027
-102.932	-138.295	-0.101	0.011
-101.918	252.549	-0.104	0.175
-100.903	-43.375	0.286	0.142
-99.889	372.690	0.023	0.046
-98.874	85.883	0.128	0.139
-97.859	800.000	-0.059	-0.187
-96.845	-27.583	0.119	-0.068
-95.830	-200.000	0.084	-0.428
-94.816	182.283	-0.040	-0.058
-93.801	246.892	-0.036	0.060
-92.786	197.266	0.227	0.340
-91.772	16.594	0.077	-0.060
-90.757	394.689	-0.051	-0.105
-89.743	-69.203	0.129	-0.049
-88.728	800.000	-0.050	0.164
-87.713	158.502	-0.063	-0.086
-86.699	68.877	0.257	0.260
-85.684	-92.414	0.101	-0.028
-84.670	389.820	-0.197	0.401
-83.655	-173.968	-0.409	0.012
-82.640	-42.089	0.212	-0.107
-81.626	238.745	0.141	0.231
-80.611	800.000	-0.110	0.302
-79.597	-200.000	0.010	0.342
-78.582	-70.401	0.296	0.110
-77.567	-125.928	0.507	-0.075
-76.553	-147.021	0.082	0.007
-75.538	-83.442	-0.054	-0.017
-74.524	-24.815	-0.095	0.055
-73.509	800.000	0.057	-0.207
-72.494	298.319	-0.135	0.243
-71.480	800.000	-0.051	0.162
-70.465	-200.000	-0.027	0.352
-69.451	32.032	0.208	0.176
-68.436	-49.828	0.167	0.078
-67.422	800.000	0.018	0.059
-66.407	-48.767	0.283	-0.133
-65.392	-152.380	0.105	-0.007
-64.378	-24.708	0.080	0.047
-63.363	-162.571	0.272	0.013
-62.349	-71.512	0.346	-0.127
-61.334	111.624	-0.928	-1.099
-60.319	-150.605	0.341	0.026
-59.305	800.000	-0.275	-1.016
-58.290	422.439	0.421	0.888
-57.276	244.014	0.814	1.342
-56.261	-200.000	95.742	595.732
-55.246	568.651	1370.457	3271.189
-54.232	160.682	2557.600	3506.809
-53.217	106.564	2270.456	2644.710
-52.203	41.459	1896.532	1685.620
-51.188	35.357	1686.279	1452.656
-50.173	32.646	1642.125	1394.539
-49.159	49.888	1688.596	1563.677
-48.144	51.641	1704.465	1591.447
-47.130	34.869	1665.958	1431.274
-46.115	32.262	1651.388	1399.320
-45.100	32.042	1646.246	1393.277
-44.086	32.035	1643.413	1390.768
-43.071	31.983	1640.879	1388.187
-42.057	31.965	1638.618	1386.087
-41.042	31.970	1636.888	1384.606
-40.027	31.919	1635.194	1382.741
-39.013	31.933	1633.128	1381.043
-37.998	31.849	1631.845	1379.286
-36.984	32.013	1630.131	1378.988
-35.969	32.035	1628.828	1377.991
-34.954	32.080	1626.779	1376.536
-33.940	32.045	1625.044	1374.755
-32.925	32.015	1623.585	1373.242
-31.911	32.106	1621.336	1371.956
-30.896	32.049	1620.251	1370.566
-29.881	31.984	1618.400	1368.472
-28.867	32.016	1616.700	1367.211
-27.852	32.069	1615.095	1366.186
-26.838	32.014	1613.863	1364.691
-25.823	31.980	1612.426	1363.173
-24.809	32.045	1611.216	1362.566
-23.794	32.038	1609.620	1361.115
-22.779	32.108	1607.780	1360.008
-21.765	32.100	1606.376	1358.715
-20.750	32.068	1604.908	1357.184
-19.736	32.096	1603.539	1356.174
-18.721	32.108	1601.960	1354.873
-17.706	32.092	1600.649	1353.598
-16.692	32.166	1598.642	1352.380
-15.677	32.135	1597.262	1350.936
-14.663	32.062	1596.770	1349.937
-13.648	32.094	1595.184	1348.773
-12.633	32.104	1593.142	1347.066
-11.619	32.005	1592.234	1345.536
-10.604	32.098	1590.346	1344.549
-9.590	32.109	1589.076	1343.502
-8.575	32.110	1588.170	1342.692
-7.560	32.050	1586.816	1341.065
-6.546	32.047	1586.002	1340.302
-5.531	32.009	1584.547	1338.747
-4.517	32.110	1582.951	1338.064
-3.502	32.080	1581.856	1336.870
-2.487	32.169	1579.897	1335.801
-1.473	31.915	1568.972	1324.715
-0.458	29.339	1549.877	1290.542
0.556	25.865	1550.876	1261.189
1.571	23.661	1574.540	1264.640
2.586	23.266	1588.405	1272.824
3.600	20.334	1533.510	1208.346
4.615	10.969	1421.314	1059.143
5.629	2.942	1357.075	961.120
6.644	1.707	1348.960	947.600
7.659	1.583	1347.128	945.464
8.673	1.539	1346.824	944.890
9.688	1.471	1344.567	942.803
10.702	1.264	1341.250	939.115
11.717	4.726	1348.176	965.382
12.731	14.789	1367.642	1042.297
13.746	23.427	1382.080	1107.421
14.761	25.716	1385.288	1124.204
15.775	26.216	1385.079	1127.056
16.790	26.231	1384.983	1126.972
17.804	26.395	1384.026	1127.118
18.819	26.555	1383.707	1127.759
19.834	26.584	1383.433	1127.613
20.848	26.644	1382.794	1127.366
21.863	26.696	1381.601	1126.616
22.877	26.675	1380.367	1125.383
23.892	26.745	1380.006	1125.419
24.907	26.591	1379.798	1124.194
25.921	26.775	1378.047	1123.813
26.936	26.634	1377.009	1121.992
27.950	26.740	1376.229	1121.912
28.965	26.652	1375.088	1120.338
29.980	26.654	1373.329	1118.823
30.994	26.741	1372.463	1118.550
32.009	26.754	1371.379	1117.651
33.023	26.675	1370.687	1116.499
34.038	26.769	1368.754	1115.403
35.053	26.732	1368.203	1114.628
36.067	26.645	1367.489	1113.416
37.082	26.656	1366.593	1112.657
38.096	26.639	1366.019	1111.986
39.111	26.617	1364.886	1110.827
40.126	26.731	1364.098	1110.791
41.140	26.580	1363.727	1109.463
42.155	26.677	1362.895	1109.280
43.169	26.699	1363.339	1109.680
44.184	26.747	1362.839	1109.464
45.199	26.718	1362.865	1109.214
46.213	26.788	1361.601	1108.516
47.228	26.738	1360.967	1107.596
48.242	26.705	1359.949	1106.465
49.257	26.674	1358.291	1104.833
50.271	26.617	1357.394	1103.657
51.286	26.671	1355.776	1102.570
52.301	26.580	1354.374	1100.782
53.315	26.721	1353.388	1100.737
54.330	26.734	1353.326	1100.668
55.344	26.606	1352.394	1099.035
56.359	26.680	1350.579	1097.911
57.374	26.568	1350.140	1096.781
58.388	26.732	1349.176	1096.893
59.403	26.638	1349.570	1096.547
60.417	26.712	1348.305	1095.871
61.432	26.688	1347.749	1095.178
62.447	26.717	1346.745	1094.436
63.461	26.626	1345.748	1092.985
64.476	26.662	1345.039	1092.527
65.490	26.774	1343.279	1091.673
66.505	26.754	1341.975	1090.399
67.520	26.756	1340.718	1089.296
68.534	26.695	1339.815	1088.096
69.549	26.876	1338.478	1088.002
70.563	26.876	1337.463	1087.078
71.578	26.749	1337.204	1086.009
72.593	26.762	1336.418	1085.353
73.607	26.767	1335.413	1084.472
74.622	26.739	1334.852	1083.755
75.636	26.756	1334.446	1083.428
76.651	26.714	1333.739	1082.506
77.666	26.661	1333.379	1081.805
78.680	26.756	1332.551	1081.605
79.695	26.733	1331.475	1080.499
80.709	26.695	1331.115	1079.883
81.724	26.614	1330.414	1078.735
82.739	26.758	1329.042	1078.382
83.753	26.689	1328.562	1077.489
84.768	26.716	1327.135	1076.399
85.782	26.751	1325.974	1075.568
86.797	26.773	1324.810	1074.660
87.812	26.724	1323.903	1073.538
88.826	26.741	1323.021	1072.828
89.841	26.745	1321.947	1071.888
90.855	26.789	1320.825	1071.144
91.870	26.773	1319.959	1070.249
92.884	26.824	1319.357	1069.969
93.899	26.786	1318.166	1068.682
94.914	26.730	1317.933	1068.071
95.928	26.711	1317.365	1067.405
96.943	26.750	1316.735	1067.030
97.957	26.706	1315.693	1065.833
98.972	26.790	1314.919	1065.601
99.987	26.729	1314.122	1064.505
101.001	26.770	1312.707	1063.507
102.016	26.920	1311.692	1063.470
103.030	26.811	1311.685	1062.729
104.045	26.751	1310.490	1061.313
105.060	26.748	1309.691	1060.557
106.074	26.880	1308.336	1060.137
107.089	26.843	1307.711	1059.321
108.103	26.788	1306.605	1058.012
109.118	26.813	1305.278	1056.986
110.133	26.826	1304.196	1056.095
111.147	26.793	1303.199	1054.999
112.162	26.885	1302.080	1054.536
113.176	26.895	1301.290	1053.862
114.191	26.840	1300.425	1052.749
115.206	26.790	1299.420	1051.555
116.220	26.889	1298.235	1051.075
117.235	26.878	1297.326	1050.183
118.249	26.837	1296.316	1049.036
119.264	26.831	1295.986	1048.638
120.279	26.833	1295.403	1048.087
121.293	26.955	1294.302	1047.806
122.308	26.855	1293.427	1046.428
123.322	26.884	1292.921	1046.092
124.337	26.806	1292.102	1044.888
125.352	26.869	1291.037	1044.298
126.366	26.972	1289.972	1043.939
127.381	26.939	1289.037	1042.896
128.395	26.919	1287.935	1041.799
129.410	26.877	1287.432	1041.060
130.424	26.812	1286.993	1040.241
131.439	26.888	1285.890	1039.692
132.454	26.810	1285.257	1038.643
133.468	26.865	1284.435	1038.199
134.483	26.943	1284.128	1038.304
135.497	26.844	1283.046	1036.775
136.512	26.956	1281.946	1036.435
137.527	26.880	1281.045	1035.180
138.541	26.873	1279.630	1033.901
139.556	26.929	1278.601	1033.301
140.570	26.832	1277.650	1031.890
141.585	26.729	1277.034	1030.714
142.600	26.849	1275.381	1029.970
143.614	26.810	1274.852	1029.232
144.629	26.841	1273.606	1028.310
145.643	26.784	1272.727	1027.184
146.658	26.709	1272.107	1026.168
147.673	26.775	1271.050	1025.601
148.687	26.765	1270.142	1024.719
149.702	26.867	1268.787	1024.113
150.716	26.826	1267.407	1022.675
151.731	26.832	1266.757	1022.096
152.746	26.872	1265.800	1021.459
153.760	26.878	1264.760	1020.558
154.775	26.909	1263.860	1019.921
155.789	26.876	1262.853	1018.832
156.804	26.914	1261.982	1018.253
157.819	26.819	1261.326	1017.099
158.833	26.960	1260.537	1017.164
159.848	26.924	1259.561	1016.084
160.862	26.888	1259.011	1015.349
161.877	26.995	1257.731	1014.827
162.892	26.955	1257.326	1014.182
163.906	26.914	1256.445	1013.155
164.921	26.908	1256.294	1012.912
165.935	26.929	1255.249	1012.093
166.950	26.935	1254.507	1011.439
167.964	27.056	1253.736	1011.405
168.979	26.880	1253.692	1010.301
169.994	27.063	1252.477	1010.248
171.008	27.021	1251.815	1009.390
172.023	27.029	1251.292	1008.921
173.037	27.036	1250.546	1008.274
174.052	26.952	1249.951	1007.236
175.067	27.058	1248.766	1006.780
176.081	27.034	1248.524	1006.365
177.096	27.012	1247.806	1005.573
178.110	26.960	1246.624	1004.244
179.125	27.074	1245.686	1004.032
180.140	26.994	1244.708	1002.713
181.154	27.061	1243.509	1002.029
182.169	27.041	1242.559	1001.062
183.183	27.090	1241.437	1000.340
184.198	27.124	1240.315	999.535
185.213	27.096	1239.507	998.643
186.227	27.073	1239.059	998.067
187.242	27.066	1238.028	997.108
188.256	27.117	1237.090	996.542
189.271	27.161	1236.330	996.082
190.286	26.976	1235.702	994.479
191.300	27.043	1235.187	994.342
192.315	26.996	1235.079	993.909
193.329	27.063	1234.220	993.498
194.344	27.064	1233.982	993.220
195.359	27.039	1233.428	992.553
196.373	27.091	1232.704	992.165
197.388	27.031	1232.199	991.342
198.402	27.096	1232.241	991.645
199.417	27.051	1231.746	990.912
200.432	27.051	1230.928	990.167
201.446	27.133	1230.213	989.949
202.461	27.145	1229.436	989.306
203.475	27.037	1229.484	988.664
204.490	27.096	1228.011	987.717
205.504	27.144	1226.690	986.825
206.519	27.230	1225.690	986.400
207.534	27.092	1225.218	985.187
208.548	27.122	1224.350	984.562
209.563	27.163	1223.539	984.048
210.577	27.058	1222.814	982.808
211.592	27.209	1222.007	982.888
212.607	27.230	1221.138	982.214
213.621	27.287	1220.269	981.736
214.636	27.278	1219.545	981.020
215.650	27.135	1219.234	979.910
216.665	27.076	1218.161	978.646
217.680	27.194	1217.165	978.394
218.694	27.202	1216.311	977.662
219.709	27.182	1215.477	976.801
220.723	27.181	1215.012	976.332
221.738	27.215	1214.080	975.683
222.753	27.138	1213.223	974.495
223.767	27.225	1212.823	974.551
224.782	27.265	1212.811	974.671
225.796	27.283	1212.074	974.088
226.811	27.376	1211.230	973.820
227.826	27.428	1210.385	973.332
228.840	27.330	1209.757	972.217
229.855	27.315	1209.445	971.802
230.869	27.346	1208.559	971.167
231.884	27.322	1207.523	970.125
232.899	27.348	1207.334	970.026
233.913	27.302	1206.769	969.237
234.928	27.372	1206.181	969.051
235.942	27.291	1205.537	968.020
236.957	27.467	1204.527	968.057
237.972	27.359	1204.168	967.111
238.986	27.338	1203.526	966.399
240.001	27.452	1202.864	966.384
241.015	27.437	1202.236	965.713
242.030	27.414	1201.361	964.808
243.045	27.532	1200.728	964.836
244.059	27.535	1199.862	964.070
245.074	27.597	1199.221	963.797
246.088	27.549	1198.490	962.873
247.103	27.539	1197.344	961.815
248.117	27.490	1196.494	960.790
249.132	27.530	1196.044	960.550
250.147	27.594	1195.420	960.302
251.161	27.491	1194.857	959.223
252.176	27.567	1194.219	959.026
253.190	27.563	1193.413	958.274
254.205	27.580	1192.902	957.868
255.220	27.530	1191.947	956.756
256.234	27.601	1191.617	956.776
257.249	27.660	1190.762	956.312
258.263	27.664	1190.074	955.700
259.278	27.700	1189.854	955.624
260.293	27.608	1189.045	954.412
261.307	27.707	1188.762	954.616
262.322	27.637	1188.120	953.652
263.336	27.597	1187.182	952.605
264.351	27.572	1186.937	952.193
265.366	27.643	1186.281	951.953
266.380	27.748	1185.538	951.818
267.395	27.654	1184.964	950.785
268.409	27.682	1184.595	950.548
269.424	27.652	1184.110	949.923
270.439	27.604	1183.564	949.149
271.453	27.656	1182.715	948.655
272.468	27.598	1181.934	947.641
273.482	27.637	1181.230	947.198
274.497	27.736	1180.732	947.227
275.512	27.735	1180.010	946.558
276.526	27.740	1179.451	946.055
277.541	27.743	1178.843	945.495
278.555	27.830	1177.903	945.109
279.570	27.862	1177.337	944.740
280.585	27.815	1176.323	943.596
281.599	27.751	1175.657	942.650
282.614	27.734	1175.193	942.105
283.628	27.741	1174.258	941.308
284.643	27.860	1173.220	941.008
285.657	27.762	1172.668	939.974
286.672	27.746	1171.710	939.042
287.687	27.849	1171.151	939.041
288.701	27.798	1170.532	938.200
289.716	27.988	1169.608	938.354
290.730	27.927	1168.703	937.229
291.745	27.836	1168.663	936.647
292.760	27.814	1167.892	935.837
293.774	27.828	1167.499	935.509
294.789	27.971	1166.525	935.377
295.803	27.910	1165.899	934.482
296.818	27.917	1165.563	934.167
297.833	28.015	1164.861	934.022
298.847	27.894	1164.418	932.964
299.862	27.987	1163.073	932.279
300.876	27.808	1163.120	931.319
301.891	28.034	1161.952	931.454
302.906	28.023	1161.332	930.821
303.920	28.102	1160.607	930.558
304.935	28.045	1160.523	930.118
305.949	28.011	1159.676	929.183
306.964	27.997	1158.835	928.357
307.979	28.074	1158.450	928.358
308.993	27.981	1157.729	927.224
310.008	28.050	1156.864	926.800
311.022	28.063	1155.921	926.027
312.037	28.040	1155.547	925.532
313.052	28.258	1154.377	925.616
314.066	28.142	1153.738	924.434
315.081	28.011	1153.085	923.166
316.095	28.074	1152.726	923.116
317.110	28.064	1151.955	922.366
318.125	28.180	1151.418	922.442
319.139	28.203	1150.850	922.016
320.154	28.172	1150.117	921.196
321.168	28.127	1149.637	920.503
322.183	28.136	1149.152	920.075
323.197	28.036	1148.392	918.885
324.212	28.145	1147.542	918.673
325.227	28.273	1147.177	918.938
326.241	28.234	1146.680	918.267
327.256	28.289	1145.978	917.898
328.270	28.197	1145.371	916.870
329.285	28.268	1144.319	916.299
330.300	28.299	1143.318	915.574
331.314	28.109	1143.172	914.424
332.329	28.263	1141.932	914.119
333.343	28.331	1141.157	913.761
334.358	28.266	1140.242	912.620
335.373	28.415	1139.639	912.802
336.387	28.356	1139.231	912.097
337.402	28.317	1138.807	911.485
338.416	28.295	1137.889	910.561
339.431	28.418	1137.157	910.506
340.446	28.400	1136.778	910.030
341.460	28.458	1136.445	909.973
342.475	28.461	1135.412	909.081
343.489	28.491	1134.517	908.429
344.504	28.397	1133.384	906.980
345.519	28.378	1132.720	906.274
346.533	28.506	1132.096	906.325
347.548	28.524	1131.223	905.637
348.562	28.522	1131.053	905.409
349.577	28.470	1129.842	904.105
350.592	28.459	1129.080	903.359
351.606	28.325	1128.831	902.421
352.621	28.524	1128.119	902.752
353.635	28.573	1127.472	902.394
354.650	28.522	1126.942	901.640
355.665	28.504	1126.248	900.917
356.679	28.552	1125.660	900.600
357.694	28.517	1125.343	900.098
358.708	28.601	1124.085	899.422
359.723	28.471	1123.774	898.457
360.738	28.644	1122.931	898.552
361.752	28.517	1122.813	897.757
362.767	28.698	1121.668	897.646
363.781	28.611	1121.484	896.991
364.796	28.758	1120.848	897.125
365.810	28.669	1120.266	896.143
366.825	28.757	1119.560	895.927
367.840	28.813	1119.090	895.747
368.854	28.772	1118.730	895.180
369.869	28.800	1118.198	894.809
370.883	28.784	1116.944	893.648
371.898	28.840	1116.034	893.116
372.913	28.720	1115.873	892.322
373.927	28.947	1114.667	892.381
374.942	28.922	1114.785	892.278
375.956	28.836	1114.183	891.298
376.971	28.720	1113.667	890.242
377.986	28.793	1113.104	890.071
379.000	28.843	1112.831	890.016
380.015	28.855	1112.306	889.572
381.029	28.936	1111.354	889.125
382.044	28.859	1110.949	888.350
383.059	28.954	1110.481	888.358
384.073	28.974	1110.137	888.099
385.088	28.940	1108.473	886.527
386.102	28.952	1107.555	885.770
387.117	28.895	1107.118	885.068
388.132	28.963	1105.993	884.417
389.146	28.981	1105.565	884.085
390.161	28.902	1105.315	883.428
391.175	29.012	1104.233	883.013
392.190	29.083	1103.348	882.564
393.205	28.983	1102.891	881.645
394.219	28.932	1102.833	881.276
395.234	29.032	1101.679	880.754
396.248	29.029	1100.796	879.954
397.263	29.132	1099.819	879.590
398.278	29.199	1099.339	879.445
399.292	29.172	1098.902	878.888
400.307	29.191	1098.045	878.215
401.321	29.083	1097.635	877.298
402.336	29.165	1097.032	877.128
403.350	29.253	1096.339	876.913
404.365	29.147	1095.552	875.703
405.380	29.139	1095.202	875.310
406.394	29.186	1094.225	874.673
407.409	29.279	1093.699	874.618
408.423	29.217	1093.090	873.757
409.438	29.307	1091.962	873.205
410.453	29.344	1091.630	873.037
411.467	29.316	1090.931	872.268
412.482	29.296	1090.116	871.447
413.496	29.264	1089.620	870.822
414.511	29.389	1088.815	870.692
415.526	29.260	1088.795	869.991
416.540	29.335	1088.466	870.002
417.555	29.363	1087.530	869.308
418.569	29.276	1087.169	868.533
419.584	29.426	1086.995	869.026
420.599	29.380	1086.346	868.215
421.613	103.203	1323.278	1458.811
422.628	96.042	1357.773	1458.918
