DTS Sentinel unit serial number:	SN413079Multiplexer serial number:	ORYXHardware model number:	OX4-SRSoftware version number:	ORYX F/W v4.00 Oryx Data Collector v3.7.2.0data status	okinstallation	princeton_trtdifferential loss correction	single-endedforward channel	channel 2reverse channel	N/Adate	2019/09/14time	08:19:35forward acquisition time	60.00reverse acquisition time	0.00gamma	496.2192k internal	0.2332k external	0.2332temperature offset calibration	1.0127default loss term (dB/km)	0.3790temperature slope calibration	1.0000multiplexer offset coefficient	1.0000multiplexer slope coefficient	1.0000fibre end	0.00T internal ref (°C)	27.89T ext. ref 1 (°C)	3.61T ext. ref 2 (°C)	26.09length (m)	temperature (°C)	Stokes	anti-Stokes-747.200	314.000	-0.136	-0.258
-746.185	800.000	-0.050	-0.166
-745.171	-190.468	-0.132	0.001
-744.156	-67.054	-0.481	0.191
-743.142	437.043	-0.066	-0.144
-742.127	-200.000	-0.011	-0.171
-741.112	-200.000	0.040	-0.177
-740.098	260.981	0.061	0.107
-739.083	14.289	0.157	0.123
-738.069	262.367	-0.150	0.262
-737.054	-16.554	0.064	0.041
-736.039	-108.728	-0.199	0.043
-735.025	241.385	0.278	0.466
-734.010	-142.705	-0.307	-0.030
-732.996	-26.772	-0.214	-0.126
-731.981	188.111	-0.193	-0.290
-730.966	-12.499	-0.383	-0.251
-729.952	193.389	-0.159	-0.241
-728.937	-78.419	-0.066	0.023
-727.923	-2.635	-0.191	-0.134
-726.908	-17.137	-0.219	0.139
-725.894	703.261	0.063	-0.168
-724.879	228.070	0.105	-0.171
-723.864	-113.127	0.227	-0.045
-722.850	66.778	-0.304	-0.311
-721.835	-158.995	-0.026	-0.001
-720.821	67.004	-0.215	0.220
-719.806	73.213	-0.093	0.098
-718.791	199.440	0.031	-0.048
-717.777	800.000	0.073	0.286
-716.762	800.000	-0.049	0.142
-715.748	-90.701	-0.205	-0.060
-714.733	-174.121	-0.443	0.013
-713.718	181.858	-0.143	-0.211
-712.704	-127.365	0.389	0.057
-711.689	-200.000	-0.011	0.236
-710.675	800.000	0.074	0.219
-709.660	461.854	0.050	0.113
-708.645	-34.033	-0.159	-0.088
-707.631	48.789	0.090	-0.085
-706.616	-5.732	-0.382	0.263
-705.602	63.142	-0.190	0.191
-704.587	-200.000	-0.016	0.318
-703.572	-69.919	0.272	0.104
-702.558	-151.913	0.318	-0.023
-701.543	-99.205	-0.170	0.043
-700.529	1.214	-0.034	-0.025
-699.514	39.225	0.115	0.103
-698.499	-200.000	0.037	-0.455
-697.485	83.336	-0.124	0.135
-696.470	-31.580	-0.108	0.061
-695.456	-96.676	-0.318	-0.084
-694.441	-200.000	-0.054	-0.360
-693.426	-146.187	0.133	0.012
-692.412	-4.660	0.296	0.205
-691.397	148.241	-0.149	-0.202
-690.383	-19.346	-0.413	-0.257
-689.368	270.971	-0.051	-0.089
-688.354	-132.906	-0.264	-0.034
-687.339	-48.119	-0.277	0.134
-686.324	26.540	-0.176	0.148
-685.310	-200.000	-0.055	-0.426
-684.295	-200.000	0.000	-0.181
-683.281	568.598	-0.061	-0.148
-682.266	-45.184	-0.145	-0.072
-681.251	-27.350	-0.121	0.071
-680.237	-77.535	-0.128	-0.045
-679.222	46.874	0.191	-0.178
-678.208	-48.737	-0.193	-0.093
-677.193	-200.000	-0.001	0.192
-676.178	-200.000	0.044	0.276
-675.164	-91.001	-0.368	-0.106
-674.149	-200.000	0.040	0.267
-673.135	-79.152	-0.195	-0.066
-672.120	-143.849	-0.272	-0.026
-671.105	-163.291	0.220	0.011
-670.091	-45.939	0.260	-0.129
-669.076	-63.737	0.171	0.070
-668.062	17.707	-0.106	-0.085
-667.047	-200.000	0.003	0.103
-666.032	-69.829	-0.258	0.099
-665.018	63.124	-0.053	-0.053
-664.003	-80.752	-0.146	-0.049
-662.989	-200.000	-0.009	-0.058
-661.974	-108.207	-0.367	-0.080
-660.959	-76.622	0.099	0.035
-659.945	-200.000	0.009	-0.073
-658.930	-200.000	0.000	-0.058
-657.916	70.155	0.182	0.188
-656.901	-73.187	-0.187	0.069
-655.886	-82.612	-0.072	-0.023
-654.872	257.209	-0.077	-0.133
-653.857	-200.000	-0.038	-0.203
-652.843	-71.167	0.494	0.186
-651.828	-48.331	-0.196	-0.095
-650.814	122.728	-0.145	0.182
-649.799	-5.160	0.092	-0.064
-648.784	-200.000	0.024	-0.160
-647.770	-184.194	-0.333	-0.006
-646.755	145.182	0.147	-0.197
-645.741	-147.898	-0.302	-0.025
-644.726	99.750	0.002	0.003
-643.711	-6.366	-0.288	0.197
-642.697	-47.506	0.070	0.034
-641.682	-45.184	-0.195	-0.097
-640.668	-4.430	-0.031	0.021
-639.653	160.575	-0.282	-0.394
-638.638	437.689	0.031	-0.067
-637.624	161.744	-0.116	0.163
-636.609	-103.802	-0.112	0.026
-635.595	145.910	-0.184	-0.247
-634.580	-103.706	-0.169	-0.040
-633.565	10.875	-0.103	0.079
-632.551	800.000	-0.037	-0.126
-631.536	-200.000	0.066	-0.395
-630.522	-75.579	-0.033	-0.012
-629.507	97.543	0.161	-0.185
-628.492	-2.001	-0.125	-0.088
-627.478	-110.608	0.193	-0.040
-626.463	-200.000	0.008	-0.184
-625.449	-121.340	-0.216	-0.036
-624.434	-138.903	-0.291	-0.032
-623.419	-200.000	-0.072	-0.412
-622.405	55.916	0.105	0.102
-621.390	-200.000	0.023	-0.571
-620.376	-27.923	0.199	-0.115
-619.361	-39.251	0.167	0.088
-618.346	800.000	0.061	-0.186
-617.332	446.235	0.174	-0.383
-616.317	-129.279	-0.130	-0.018
-615.303	316.722	0.082	-0.155
-614.288	-136.405	0.124	0.014
-613.273	-200.000	0.396	0.001
-612.259	-103.453	-0.468	-0.110
-611.244	-64.257	0.334	0.136
-610.230	-103.093	-0.201	-0.048
-609.215	-36.373	-0.300	0.162
-608.201	-40.294	0.130	-0.068
-607.186	-188.743	-0.088	-0.001
-606.171	186.500	-0.064	0.095
-605.157	-20.493	0.335	0.206
-604.142	123.777	0.057	0.072
-603.128	800.000	0.090	-0.257
-602.113	139.761	-0.116	-0.152
-601.098	-16.028	-0.255	0.163
-600.084	-109.427	-0.312	0.066
-599.069	-57.060	-0.431	0.190
-598.055	-66.341	-0.194	0.077
-597.040	-62.210	-0.326	-0.136
-596.025	11.418	0.146	-0.112
-595.011	-189.287	-0.059	0.001
-593.996	-60.955	0.242	0.102
-592.982	800.000	-0.002	-0.008
-591.967	-120.878	0.347	0.058
-590.952	352.481	0.093	-0.184
-589.938	800.000	-0.033	0.102
-588.923	-70.351	0.171	-0.065
-587.909	-200.000	0.001	0.035
-586.894	46.049	-0.181	-0.168
-585.879	-200.000	-0.012	0.212
-584.865	-20.316	-0.025	-0.015
-583.850	-122.639	-0.113	0.018
-582.836	175.941	-0.083	0.121
-581.821	-106.351	0.046	-0.010
-580.806	-58.786	-0.370	-0.160
-579.792	275.128	-0.161	-0.285
-578.777	-90.873	0.117	0.034
-577.763	-164.179	0.023	0.001
-576.748	718.142	0.099	0.264
-575.733	-31.676	0.172	0.097
-574.719	90.658	0.210	-0.235
-573.704	218.878	0.178	-0.285
-572.690	43.198	-0.035	-0.032
-571.675	-6.271	-0.285	-0.194
-570.661	287.919	0.202	0.365
-569.646	800.000	0.021	-0.082
-568.631	-200.000	-0.040	-0.270
-567.617	-200.000	-0.043	-0.216
-566.602	79.223	0.141	0.151
-565.588	-173.133	-0.088	0.003
-564.573	38.091	-0.397	-0.353
-563.558	109.037	-0.277	-0.331
-562.544	800.000	0.098	0.291
-561.529	25.500	-0.222	-0.185
-560.515	225.433	0.253	0.409
-559.500	460.303	-0.096	0.213
-558.485	19.226	-0.370	0.297
-557.471	-166.870	0.344	0.014
-556.456	-7.623	0.125	-0.084
-555.442	311.228	0.041	0.077
-554.427	-91.777	-0.076	-0.022
-553.412	314.680	-0.086	0.162
-552.398	-67.387	-0.031	-0.012
-551.383	-64.901	-0.229	0.092
-550.369	-200.000	-0.002	-0.047
-549.354	-200.000	0.015	0.304
-548.339	800.000	0.052	-0.179
-547.325	-48.312	-0.219	-0.106
-546.310	-37.404	-0.435	-0.232
-545.296	15.635	-0.178	-0.140
-544.281	-79.357	-0.195	0.066
-543.266	800.000	-0.047	-0.157
-542.252	-143.451	0.139	-0.013
-541.237	276.866	0.202	0.359
-540.223	274.780	0.014	-0.025
-539.208	10.762	-0.250	0.190
-538.193	153.400	0.192	-0.262
-537.179	71.329	0.122	-0.126
-536.164	87.700	-0.202	-0.223
-535.150	-118.314	0.297	-0.053
-534.135	103.867	-0.106	0.124
-533.121	-200.000	0.004	0.046
-532.106	-200.000	-0.009	-0.090
-531.091	-93.294	-0.491	-0.136
-530.077	-60.924	-0.243	0.102
-529.062	-133.114	0.405	0.051
-528.048	62.122	-0.283	-0.281
-527.033	-49.519	0.236	-0.112
-526.018	53.475	-0.252	-0.241
-525.004	-39.937	-0.131	0.068
-523.989	-1.492	-0.209	0.147
-522.975	-112.826	-0.166	0.033
-521.960	-21.004	-0.084	0.051
-520.945	334.479	0.033	0.064
-519.931	134.667	-0.146	0.188
-518.916	-57.472	-0.239	0.105
-517.902	-29.038	-0.088	0.050
-516.887	-152.836	0.181	0.013
-515.872	-49.569	0.212	0.101
-514.858	263.227	0.129	-0.224
-513.843	276.381	0.168	-0.297
-512.829	-110.213	-0.083	-0.017
-511.814	-200.000	0.070	-0.344
-510.799	-44.480	-0.193	-0.096
-509.785	-65.926	0.373	-0.149
-508.770	-49.376	0.158	-0.075
-507.756	-84.789	0.220	0.069
-506.741	13.916	0.370	-0.287
-505.726	115.992	0.243	-0.296
-504.712	76.668	0.181	0.191
-503.697	180.664	-0.099	0.144
-502.683	46.709	0.074	-0.068
-501.668	-200.000	-0.001	0.148
-500.653	-10.000	0.208	0.138
-499.639	-200.000	0.032	0.143
-498.624	-36.251	0.176	-0.095
-497.610	-200.000	0.013	-0.099
-496.595	-126.666	0.290	0.043
-495.581	289.482	0.093	-0.168
-494.566	141.818	-0.132	0.174
-493.551	800.000	0.043	0.137
-492.537	16.038	0.128	-0.101
-491.522	182.467	0.219	0.322
-490.508	147.394	-0.244	0.327
-489.493	83.570	0.214	0.233
-488.478	-46.653	0.173	-0.085
-487.464	-42.928	-0.110	0.056
-486.449	219.753	-0.187	0.298
-485.435	-200.000	-0.020	0.215
-484.420	-200.000	0.032	0.374
-483.405	800.000	-0.085	0.290
-482.391	-194.642	-0.174	0.001
-481.376	-96.596	-0.157	-0.041
-480.362	-18.275	0.155	0.096
-479.347	-169.424	-0.511	0.019
-478.332	-200.000	0.041	0.279
-477.318	5.988	0.114	-0.084
-476.303	-19.124	0.080	-0.050
-475.289	-40.338	0.371	0.192
-474.274	-180.223	-0.148	-0.003
-473.259	164.984	-0.069	-0.097
-472.245	46.408	0.192	0.177
-471.230	-18.818	0.352	0.218
-470.216	105.878	0.060	0.071
-469.201	28.718	-0.099	0.084
-468.186	-200.000	-0.018	-0.240
-467.172	-200.000	0.001	-0.098
-466.157	800.000	0.020	0.068
-465.143	22.503	-0.158	0.129
-464.128	169.872	0.160	0.228
-463.113	43.419	0.170	0.155
-462.099	254.341	-0.181	0.308
-461.084	-42.390	-0.257	0.131
-460.070	-30.528	-0.053	-0.030
-459.055	-43.588	0.154	-0.077
-458.040	23.323	-0.062	-0.051
-457.026	-200.000	-0.012	0.078
-456.011	-60.639	0.132	-0.056
-454.997	800.000	-0.050	0.164
-453.982	288.868	0.117	0.211
-452.968	-200.000	0.024	0.480
-451.953	617.788	-0.118	0.294
-450.938	-48.904	0.039	-0.018
-449.924	-67.933	0.212	-0.082
-448.909	-130.900	0.052	-0.007
-447.895	259.271	0.101	0.173
-446.880	-133.669	0.298	0.037
-445.865	-66.221	0.402	-0.159
-444.851	114.622	-0.170	-0.206
-443.836	800.000	-0.089	-0.302
-442.822	187.685	0.040	-0.060
-441.807	214.462	0.070	0.110
-440.792	-200.000	0.048	-0.310
-439.778	-188.782	0.034	-0.000
-438.763	0.704	-0.115	-0.081
-437.749	-130.916	-0.119	-0.016
-436.734	-96.062	-0.124	0.033
-435.719	611.306	-0.061	0.152
-434.705	-101.672	-0.139	0.033
-433.690	-200.000	-0.021	-0.096
-432.676	800.000	0.034	0.130
-431.661	31.463	0.085	-0.073
-430.646	-88.336	-0.147	0.044
-429.632	4.736	-0.295	-0.216
-428.617	760.644	0.118	-0.318
-427.603	616.131	0.023	0.058
-426.588	-124.623	-0.273	-0.042
-425.573	-37.718	-0.085	0.045
-424.559	-151.335	-0.248	0.018
-423.544	317.927	-0.086	-0.162
-422.530	-200.000	0.003	-0.175
-421.515	213.852	0.113	-0.178
-420.500	135.157	-0.078	-0.101
-419.486	139.225	0.124	0.162
-418.471	-140.188	0.387	0.040
-417.457	392.770	0.062	-0.127
-416.442	800.000	0.025	-0.082
-415.428	-96.892	0.186	0.048
-414.413	-1.280	-0.083	-0.058
-413.398	2.415	0.113	0.081
-412.384	-200.000	-0.028	0.273
-411.369	92.386	0.091	0.102
-410.355	-10.414	-0.049	-0.033
-409.340	-48.212	0.107	-0.051
-408.325	105.517	-0.136	0.159
-407.311	8.568	-0.318	-0.238
-406.296	162.533	0.091	-0.127
-405.282	-172.832	0.316	-0.010
-404.267	15.048	-0.342	0.265
-403.252	-200.000	0.030	0.311
-402.238	-65.292	-0.194	0.078
-401.223	-60.495	-0.119	-0.050
-400.209	-88.969	0.097	-0.028
-399.194	-152.098	-0.251	0.018
-398.179	-87.455	0.352	-0.106
-397.165	800.000	-0.050	-0.170
-396.150	56.361	0.185	-0.179
-395.136	90.483	-0.148	-0.165
-394.121	44.361	0.372	-0.339
-393.106	-152.618	0.222	-0.016
-392.092	87.126	0.066	0.072
-391.077	87.229	-0.151	0.166
-390.063	99.011	0.116	-0.132
-389.048	79.629	-0.242	-0.257
-388.033	800.000	0.055	0.183
-387.019	522.793	0.061	0.142
-386.004	-93.554	-0.040	-0.011
-384.990	228.925	-0.116	-0.188
-383.975	-149.479	0.155	-0.012
-382.960	-200.000	-0.047	0.241
-381.946	513.377	-0.063	-0.145
-380.931	413.250	0.123	-0.259
-379.917	435.418	0.077	-0.167
-378.902	-200.000	0.039	-0.405
-377.888	125.555	0.153	-0.192
-376.873	-147.433	-0.212	-0.018
-375.858	-200.000	0.018	0.122
-374.844	-200.000	-0.002	0.340
-373.829	162.211	-0.168	0.234
-372.815	97.581	0.114	0.130
-371.800	-15.577	-0.220	-0.139
-370.785	-200.000	-0.021	0.381
-369.771	-136.581	-0.177	-0.020
-368.756	-112.685	-0.282	-0.056
-367.742	-14.537	-0.247	-0.157
-366.727	558.876	-0.023	-0.055
-365.712	74.076	0.336	0.349
-364.698	-82.324	-0.089	0.029
-363.683	558.293	-0.064	0.154
-362.669	258.753	-0.063	0.107
-361.654	800.000	0.023	0.077
-360.639	-83.880	0.257	-0.081
-359.625	-164.839	0.321	-0.014
-358.610	-19.272	0.153	0.094
-357.596	-165.939	0.160	0.007
-356.581	-112.451	-0.365	0.072
-355.566	12.452	-0.114	-0.087
-354.552	94.211	0.213	-0.240
-353.537	-61.422	0.045	0.019
-352.523	-96.471	-0.224	0.059
-351.508	118.444	-0.225	-0.275
-350.493	189.368	0.056	-0.083
-349.479	-96.486	-0.325	0.085
-348.464	191.653	-0.056	-0.083
-347.450	152.975	0.253	0.342
-346.435	146.176	0.152	0.202
-345.420	379.394	-0.163	0.331
-344.406	-128.941	0.094	-0.013
-343.391	-63.974	0.133	0.054
-342.377	34.794	0.143	-0.124
-341.362	-200.000	-0.001	-0.242
-340.348	489.153	-0.054	-0.123
-339.333	-200.000	0.222	0.000
-338.318	800.000	0.061	0.230
-337.304	800.000	-0.043	-0.170
-336.289	106.730	-0.096	-0.113
-335.275	-145.258	0.299	-0.027
-334.260	-200.000	-0.010	-0.058
-333.245	49.258	-0.290	0.270
-332.231	719.203	-0.089	-0.233
-331.216	-162.595	-0.194	0.009
-330.202	684.974	0.039	-0.100
-329.187	-68.068	-0.137	-0.053
-328.172	-172.171	0.176	-0.006
-327.158	-200.000	-0.021	0.109
-326.143	-64.851	0.176	0.070
-325.129	-200.000	0.008	-0.149
-324.114	258.621	0.126	-0.215
-323.099	-172.157	0.292	0.009
-322.085	86.749	0.296	0.323
-321.070	-37.861	0.119	-0.062
-320.056	530.468	-0.047	0.110
-319.041	-34.168	-0.333	0.181
-318.026	-200.000	0.002	0.176
-317.012	-81.479	0.543	-0.177
-315.997	109.718	-0.122	0.145
-314.983	-21.628	-0.187	0.113
-313.968	-117.866	0.159	0.028
-312.953	391.472	-0.118	-0.242
-311.939	378.100	-0.258	-0.522
-310.924	-200.000	0.012	-0.247
-309.910	-200.000	0.001	-0.148
-308.895	-200.000	-0.004	0.399
-307.880	-98.399	0.268	-0.068
-306.866	99.088	0.176	-0.201
-305.851	-200.000	-0.016	0.181
-304.837	38.056	-0.102	-0.090
-303.822	82.370	-0.081	-0.087
-302.807	-130.373	0.084	0.011
-301.793	510.778	-0.043	0.099
-300.778	744.661	-0.013	0.035
-299.764	-73.318	0.080	-0.029
-298.749	716.472	-0.049	-0.129
-297.735	800.000	0.025	-0.100
-296.720	-200.000	-0.033	0.329
-295.705	-6.653	0.087	-0.059
-294.691	800.000	0.034	-0.114
-293.676	-200.000	-0.006	0.118
-292.662	182.789	-0.141	0.206
-291.647	100.720	-0.173	0.199
-290.632	-121.178	-0.244	0.040
-289.618	45.312	0.158	-0.144
-288.603	-200.000	-0.049	-0.235
-287.589	288.145	-0.251	-0.448
-286.574	563.984	-0.010	-0.024
-285.559	-200.000	0.001	0.110
-284.545	-53.608	-0.066	0.030
-283.530	800.000	0.140	0.455
-282.516	86.522	0.069	-0.075
-281.501	128.672	0.117	-0.148
-280.486	273.499	0.186	0.324
-279.472	-200.000	-0.053	0.249
-278.457	-200.000	0.001	0.090
-277.443	-121.460	0.226	-0.037
-276.428	-200.000	0.035	0.241
-275.413	800.000	0.060	0.256
-274.399	334.835	-0.055	-0.105
-273.384	-26.786	0.124	-0.071
-272.370	415.203	0.148	0.312
-271.355	800.000	-0.140	-0.394
-270.340	-200.000	-0.006	0.218
-269.326	-63.940	-0.070	-0.028
-268.311	-172.881	0.032	0.001
-267.297	139.772	0.101	-0.132
-266.282	-82.658	0.147	0.047
-265.267	243.193	0.153	0.253
-264.253	-123.930	0.422	-0.066
-263.238	-94.296	-0.124	-0.033
-262.224	-4.799	-0.307	0.209
-261.209	362.856	0.053	0.106
-260.195	551.188	0.171	-0.405
-259.180	771.583	0.030	-0.082
-258.165	-139.525	0.291	0.031
-257.151	-83.355	0.110	-0.035
-256.136	-24.845	-0.084	-0.049
-255.122	-200.000	0.001	-0.117
-254.107	800.000	0.105	0.421
-253.092	518.036	-0.094	-0.217
-252.078	344.523	0.142	-0.275
-251.063	-73.635	-0.180	-0.065
-250.049	-168.958	-0.164	0.006
-249.034	-54.067	-0.246	-0.110
-248.019	290.938	-0.057	0.103
-247.005	-79.700	0.187	-0.062
-245.990	237.528	-0.072	0.118
-244.976	45.355	0.013	0.011
-243.961	-200.000	-0.048	0.226
-242.946	154.361	0.141	0.190
-241.932	-121.510	0.300	-0.049
-240.917	-200.000	-0.007	-0.116
-239.903	-200.000	0.062	0.296
-238.888	800.000	-0.124	-0.368
-237.873	-0.784	-0.276	-0.193
-236.859	508.347	0.129	-0.294
-235.844	185.089	-0.207	0.303
-234.830	-57.019	0.301	-0.131
-233.815	22.564	-0.112	-0.090
-232.800	800.000	-0.048	-0.133
-231.786	392.513	-0.126	0.258
-230.771	668.133	0.057	0.146
-229.757	-200.000	0.070	0.302
-228.742	312.597	0.182	0.337
-227.727	-140.792	0.074	0.008
-226.713	-106.151	0.434	0.096
-225.698	-79.808	-0.395	0.131
-224.684	800.000	0.072	-0.257
-223.669	-200.000	-0.015	-0.219
-222.655	-21.809	-0.139	0.083
-221.640	-9.212	0.421	0.277
-220.625	800.000	-0.022	0.089
-219.611	53.648	0.426	-0.403
-218.596	-81.043	0.388	0.127
-217.582	-121.037	-0.125	-0.021
-216.567	362.499	0.063	0.125
-215.552	-200.000	0.007	0.133
-214.538	-200.000	-0.023	0.262
-213.523	2.009	-0.062	-0.044
-212.509	205.124	-0.251	-0.385
-211.494	-64.658	-0.170	-0.068
-210.479	399.621	0.061	0.126
-209.465	-52.204	-0.238	0.109
-208.450	625.418	0.018	0.044
-207.436	152.059	0.059	0.079
-206.421	-109.729	0.220	-0.046
-205.406	-74.745	0.410	-0.145
-204.392	49.253	-0.447	0.413
-203.377	-200.000	0.008	-0.133
-202.363	-110.266	0.177	-0.036
-201.348	-63.798	0.202	0.081
-200.333	214.267	-0.060	0.094
-199.319	279.562	0.100	0.175
-198.304	-200.000	-0.001	0.089
-197.290	202.281	0.093	0.142
-196.275	-104.350	0.182	0.041
-195.260	59.569	-0.096	-0.093
-194.246	800.000	-0.076	0.280
-193.231	118.859	-0.031	-0.038
-192.217	-55.818	0.175	-0.077
-191.202	126.556	-0.183	0.229
-190.187	-93.872	0.166	-0.045
-189.173	-200.000	-0.002	-0.102
-188.158	77.267	-0.174	-0.182
-187.144	800.000	0.042	-0.124
-186.129	-200.000	0.024	0.157
-185.114	-87.929	0.267	-0.079
-184.100	-113.520	-0.373	-0.072
-183.085	217.740	0.137	-0.215
-182.071	-200.000	-0.453	0.000
-181.056	6.438	0.194	-0.142
-180.042	-65.958	-0.476	-0.187
-179.027	-8.928	-0.292	-0.192
-178.012	-40.214	-0.099	0.051
-176.998	-200.000	0.044	-0.234
-175.983	76.569	-0.034	0.036
-174.969	393.390	0.073	0.149
-173.954	570.873	0.039	-0.093
-172.939	642.733	-0.109	-0.273
-171.925	-92.240	-0.155	0.043
-170.910	-66.503	0.308	0.120
-169.896	-117.305	0.383	-0.068
-168.881	-153.378	-0.267	-0.018
-167.866	76.762	-0.033	-0.034
-166.852	557.183	-0.039	0.093
-165.837	427.160	-0.040	-0.084
-164.823	800.000	-0.131	0.428
-163.808	237.215	-0.209	0.341
-162.793	17.930	0.174	-0.136
-161.779	-200.000	-0.022	0.163
-160.764	136.498	-0.053	-0.068
-159.750	-94.044	0.227	0.061
-158.735	218.051	0.114	0.178
-157.720	-91.307	-0.233	0.066
-156.706	-170.402	0.326	0.011
-155.691	-34.816	0.070	-0.038
-154.677	200.795	0.154	-0.233
-153.662	-66.306	-0.221	0.087
-152.647	-200.000	-0.025	0.145
-151.633	-96.836	-0.418	0.108
-150.618	-107.922	-0.085	0.018
-149.604	-200.000	-0.006	-0.145
-148.589	800.000	-0.080	-0.334
-147.574	-19.043	0.250	-0.153
-146.560	800.000	-0.063	-0.189
-145.545	-157.399	0.268	-0.016
-144.531	-200.000	0.013	-0.057
-143.516	-200.000	0.016	0.150
-142.502	800.000	-0.028	-0.121
-141.487	-200.000	0.037	0.200
-140.472	1.250	-0.108	0.076
-139.458	0.435	-0.226	-0.158
-138.443	-130.052	-0.119	-0.016
-137.429	272.531	0.100	-0.174
-136.414	6.503	0.205	-0.149
-135.399	-200.000	-0.006	0.036
-134.385	-27.632	-0.177	-0.101
-133.370	-28.816	0.153	0.087
-132.356	-149.828	0.288	-0.022
-131.341	158.839	-0.134	0.183
-130.326	84.204	-0.211	-0.226
-129.312	800.000	-0.120	-0.386
-128.297	-119.523	0.196	-0.033
-127.283	-78.193	-0.251	-0.085
-126.268	-28.339	0.086	0.049
-125.253	-9.018	0.222	-0.146
-124.239	-200.000	0.019	-0.139
-123.224	-123.726	-0.248	-0.039
-122.210	700.418	0.079	0.205
-121.195	-200.000	-0.026	-0.132
-120.180	-44.573	-0.379	0.186
-119.166	800.000	0.049	-0.206
-118.151	195.036	0.172	-0.256
-117.137	53.183	-0.158	0.149
-116.122	-112.512	0.332	-0.065
-115.107	800.000	-0.084	0.239
-114.093	5.994	0.417	-0.303
-113.078	6.806	-0.104	-0.076
-112.064	177.140	-0.147	0.210
-111.049	59.282	0.193	0.186
-110.034	74.622	0.053	-0.055
-109.020	-200.000	-0.049	0.260
-108.005	-175.008	0.589	0.016
-106.991	800.000	-0.079	-0.280
-105.976	403.012	0.089	0.184
-104.962	-200.000	-0.030	0.145
-103.947	10.628	0.203	-0.152
-102.932	800.000	0.157	-0.438
-101.918	250.595	-0.067	-0.112
-100.903	-38.995	0.072	-0.037
-99.889	532.305	0.153	0.355
-98.874	11.797	0.091	-0.068
-97.859	315.839	-0.029	-0.054
-96.845	32.136	-0.213	0.180
-95.830	-200.000	-0.029	0.135
-94.816	304.539	0.097	-0.177
-93.801	-72.837	0.257	-0.093
-92.786	-179.159	-0.263	-0.006
-91.772	8.027	0.339	0.249
-90.757	800.000	-0.186	-0.541
-89.743	721.235	-0.078	0.204
-88.728	-53.421	0.195	-0.088
-87.713	112.421	-0.100	-0.118
-86.699	-110.582	0.295	-0.060
-85.684	346.098	0.126	0.244
-84.670	232.251	0.290	0.467
-83.655	-200.000	-0.025	0.529
-82.640	-200.000	-0.002	-0.026
-81.626	-65.961	-0.224	0.088
-80.611	-200.000	0.004	0.210
-79.597	-101.900	0.207	-0.049
-78.582	-72.272	0.137	-0.050
-77.567	-141.390	0.115	-0.011
-76.553	252.744	-0.199	-0.333
-75.538	-200.000	-0.039	-0.347
-74.524	800.000	0.030	0.090
-73.509	800.000	0.125	0.343
-72.494	-200.000	-0.039	-0.224
-71.480	-11.147	0.109	-0.071
-70.465	-130.617	-0.377	0.050
-69.451	800.000	0.091	0.309
-68.436	-200.000	0.013	0.072
-67.422	-14.850	-0.073	-0.046
-66.407	-200.000	-0.012	-0.312
-65.392	-200.000	0.043	0.635
-64.378	-143.113	-0.143	-0.013
-63.363	-137.453	0.168	0.019
-62.349	291.418	0.120	0.214
-61.334	65.455	-1.150	-1.140
-60.319	149.795	0.368	0.488
-59.305	800.000	-0.394	-1.201
-58.290	250.796	0.696	1.158
-57.276	800.000	0.467	1.686
-56.261	-200.000	110.068	603.656
-55.246	497.821	1525.401	3438.181
-54.232	173.221	2721.729	3841.524
-53.217	101.494	2309.776	2634.985
-52.203	37.061	1911.647	1656.230
-51.188	31.098	1697.202	1424.993
-50.173	28.422	1654.726	1369.316
-49.159	47.583	1710.808	1561.894
-48.144	47.235	1725.714	1572.799
-47.130	30.519	1681.598	1407.286
-46.115	27.937	1666.882	1375.501
-45.100	27.833	1661.636	1370.340
-44.086	27.691	1659.592	1367.532
-43.071	27.756	1656.363	1365.309
-42.057	27.741	1654.116	1363.284
-41.042	27.752	1651.905	1361.491
-40.027	27.772	1650.231	1360.212
-39.013	27.719	1648.407	1358.255
-37.998	27.772	1646.478	1357.010
-36.984	27.740	1645.312	1355.757
-35.969	27.926	1643.384	1355.491
-34.954	27.970	1642.173	1354.767
-33.940	27.881	1640.805	1352.926
-32.925	27.943	1638.951	1351.804
-31.911	27.967	1636.883	1350.215
-30.896	27.877	1635.352	1348.235
-29.881	27.946	1633.609	1347.256
-28.867	27.787	1632.284	1344.939
-27.852	27.815	1630.877	1343.933
-26.838	27.801	1629.537	1342.671
-25.823	27.821	1628.228	1341.684
-24.809	27.960	1626.584	1341.298
-23.794	27.861	1625.744	1339.824
-22.779	27.896	1624.035	1338.623
-21.765	27.871	1622.569	1337.177
-20.750	27.923	1620.918	1336.141
-19.736	27.894	1620.000	1335.124
-18.721	27.892	1618.618	1333.918
-17.706	27.991	1616.617	1332.939
-16.692	28.000	1614.921	1331.547
-15.677	27.880	1613.959	1329.833
-14.663	28.049	1612.336	1329.668
-13.648	27.967	1610.834	1327.781
-12.633	27.927	1609.533	1326.370
-11.619	27.864	1607.719	1324.364
-10.604	27.922	1606.428	1323.669
-9.590	27.925	1604.894	1322.371
-8.575	27.931	1604.151	1321.752
-7.560	27.969	1602.767	1320.834
-6.546	27.931	1601.750	1319.671
-5.531	27.905	1601.007	1318.816
-4.517	27.929	1599.117	1317.381
-3.502	27.883	1598.581	1316.551
-2.487	27.993	1596.692	1315.741
-1.473	27.957	1585.994	1306.611
-0.458	26.128	1568.338	1279.066
0.556	24.276	1571.609	1254.483
1.571	22.437	1597.042	1261.513
2.586	21.962	1610.007	1268.205
3.600	19.103	1553.660	1203.748
4.615	11.010	1442.685	1064.910
5.629	4.611	1382.005	979.806
6.644	3.639	1373.958	967.921
7.659	3.571	1372.957	966.707
8.673	3.597	1371.883	966.028
9.688	3.623	1369.981	964.767
10.702	3.614	1367.477	962.858
11.717	6.648	1372.862	985.543
12.731	14.517	1386.896	1045.017
13.746	19.930	1395.219	1085.223
14.761	20.396	1395.227	1088.052
15.775	19.729	1392.604	1081.740
16.790	18.607	1390.759	1073.199
17.804	17.873	1388.420	1066.709
18.819	17.466	1387.126	1063.080
19.834	17.394	1385.394	1061.208
20.848	17.103	1384.724	1058.787
21.863	16.860	1383.875	1056.531
22.877	16.759	1382.060	1054.425
23.892	16.666	1381.415	1053.258
24.907	16.694	1380.737	1052.821
25.921	16.808	1379.628	1052.594
26.936	16.798	1378.613	1051.660
27.950	16.733	1377.816	1050.558
28.965	16.805	1377.486	1050.660
29.980	16.997	1375.728	1050.412
30.994	17.116	1374.233	1049.915
32.009	17.104	1373.307	1049.041
33.023	17.168	1372.212	1048.509
34.038	17.110	1370.644	1046.860
35.053	17.003	1369.712	1045.396
36.067	16.989	1368.334	1044.167
37.082	16.892	1367.731	1043.014
38.096	16.984	1366.652	1042.667
39.111	17.067	1365.814	1042.448
40.126	16.937	1364.991	1040.924
41.140	16.714	1364.047	1038.747
42.155	16.627	1363.277	1037.535
43.169	16.590	1363.089	1037.073
44.184	16.630	1362.741	1036.963
45.199	16.680	1362.042	1036.641
46.213	16.695	1362.158	1036.734
47.228	16.836	1361.102	1036.699
48.242	16.904	1360.016	1036.195
49.257	16.819	1358.388	1034.344
50.271	16.849	1357.157	1033.497
51.286	16.850	1355.535	1032.180
52.301	16.931	1354.115	1031.500
53.315	16.744	1353.482	1029.789
54.330	16.630	1352.396	1028.179
55.344	16.664	1350.777	1027.061
56.359	16.738	1349.797	1026.675
57.374	16.710	1348.737	1025.611
58.388	16.564	1348.288	1024.293
59.403	16.524	1347.567	1023.410
60.417	16.606	1347.021	1023.401
61.432	16.460	1346.088	1021.724
62.447	16.491	1345.010	1021.001
63.461	16.541	1343.464	1020.038
64.476	16.383	1343.063	1018.694
65.490	16.372	1341.899	1017.653
66.505	16.485	1340.050	1016.839
67.520	16.440	1338.866	1015.581
68.534	16.429	1338.010	1014.777
69.549	16.513	1336.703	1014.196
70.563	16.479	1335.078	1012.670
71.578	16.354	1334.482	1011.380
72.593	16.266	1333.727	1010.192
73.607	16.274	1332.936	1009.552
74.622	16.415	1331.958	1009.563
75.636	16.286	1331.701	1008.512
76.651	16.289	1330.808	1007.765
77.666	16.382	1330.394	1007.912
78.680	16.376	1330.178	1007.628
79.695	16.376	1329.150	1006.756
80.709	16.531	1328.414	1007.033
81.724	16.729	1327.208	1007.208
82.739	16.747	1326.282	1006.526
83.753	16.698	1326.274	1006.136
84.768	16.838	1325.046	1005.948
85.782	16.982	1323.529	1005.563
86.797	16.982	1322.429	1004.634
87.812	16.869	1321.313	1003.029
88.826	16.856	1320.461	1002.219
89.841	16.916	1319.109	1001.458
90.855	17.048	1318.207	1001.465
91.870	17.044	1317.485	1000.801
92.884	17.137	1316.531	1000.536
93.899	16.995	1315.498	998.830
94.914	17.049	1314.761	998.500
95.928	17.005	1314.404	997.880
96.943	16.974	1313.076	996.602
97.957	16.993	1312.018	995.823
98.972	17.064	1311.215	995.543
99.987	17.025	1310.037	994.332
101.001	16.997	1309.081	993.353
102.016	16.989	1308.215	992.561
103.030	16.993	1307.761	992.153
104.045	17.059	1306.680	991.628
105.060	16.798	1305.581	989.185
106.074	16.778	1303.526	987.422
107.089	16.566	1302.266	985.144
108.103	16.499	1301.268	983.915
109.118	16.544	1299.653	982.865
110.133	16.571	1298.320	981.927
111.147	16.558	1297.080	980.830
112.162	16.532	1296.060	979.819
113.176	16.664	1295.001	979.700
114.191	16.717	1293.964	979.134
115.206	16.643	1293.016	977.900
116.220	16.670	1291.788	977.039
117.235	16.651	1290.482	975.858
118.249	16.711	1289.275	975.202
119.264	16.617	1287.976	973.595
120.279	16.690	1287.050	973.228
121.293	16.568	1286.289	971.864
122.308	16.427	1285.276	970.204
123.322	16.445	1283.822	969.123
124.337	16.390	1282.899	968.025
125.352	16.458	1281.613	967.359
126.366	16.443	1280.916	966.663
127.381	16.422	1279.943	965.726
128.395	16.376	1278.800	964.516
129.410	16.481	1278.019	964.436
130.424	16.579	1277.106	964.221
131.439	16.673	1276.308	964.070
132.454	16.570	1275.585	962.854
133.468	16.729	1274.037	962.504
134.483	16.593	1274.343	961.873
135.497	16.610	1273.024	960.888
136.512	16.702	1271.616	960.263
137.527	16.704	1270.331	959.219
138.541	16.698	1269.038	958.124
139.556	16.870	1267.328	957.723
140.570	16.821	1266.473	956.711
141.585	16.909	1265.121	956.105
142.600	17.045	1264.455	956.284
143.614	16.970	1263.917	955.371
144.629	17.032	1262.351	954.452
145.643	17.003	1261.171	953.308
146.658	16.989	1259.930	952.211
147.673	16.915	1258.207	950.405
148.687	16.788	1257.294	948.923
149.702	16.729	1255.762	947.354
150.716	16.702	1254.825	946.409
151.731	16.673	1253.300	945.017
152.746	16.751	1252.507	944.767
153.760	16.878	1251.063	944.302
154.775	17.018	1249.659	943.937
155.789	16.848	1249.295	942.635
156.804	16.941	1248.391	942.387
157.819	16.991	1246.590	941.219
158.833	17.082	1246.058	941.238
159.848	17.159	1245.551	941.200
160.862	17.065	1244.615	939.889
161.877	17.000	1242.794	938.072
162.892	16.805	1241.626	936.031
163.906	16.843	1240.906	935.615
164.921	16.852	1240.005	934.904
165.935	16.915	1239.197	934.555
166.950	16.995	1238.296	934.234
167.964	16.905	1237.704	933.213
168.979	16.930	1237.255	932.930
169.994	16.865	1236.596	931.990
171.008	17.015	1235.207	931.687
172.023	16.958	1235.058	931.176
173.037	17.085	1234.197	931.142
174.052	17.147	1232.713	930.280
175.067	17.005	1231.696	928.655
176.081	17.018	1230.717	927.906
177.096	16.908	1229.668	926.431
178.110	16.879	1228.673	925.438
179.125	16.925	1227.279	924.558
180.140	16.941	1226.462	923.951
181.154	17.031	1225.284	923.469
182.169	17.048	1223.929	922.458
183.183	17.174	1222.968	922.340
184.198	17.232	1221.964	921.814
185.213	17.257	1220.977	921.124
186.227	17.198	1219.863	919.883
187.242	17.297	1218.485	919.297
188.256	17.246	1217.766	918.398
189.271	17.282	1217.075	917.990
190.286	17.177	1215.785	916.369
191.300	16.981	1214.735	914.439
192.315	16.863	1214.115	913.258
193.329	16.863	1213.137	912.442
194.344	16.900	1212.913	912.387
195.359	17.088	1212.508	913.013
196.373	17.167	1211.810	912.834
197.388	17.202	1211.626	912.801
198.402	17.352	1210.850	912.943
199.417	17.446	1210.462	913.073
200.432	17.564	1209.615	912.988
201.446	17.454	1209.085	911.913
202.461	17.624	1207.988	911.916
203.475	17.637	1206.578	910.844
204.490	17.528	1205.643	909.474
205.504	17.478	1204.320	908.128
206.519	17.386	1203.007	906.569
207.534	17.320	1202.711	905.913
208.548	17.414	1200.723	904.834
209.563	17.445	1200.575	904.808
210.577	17.415	1199.323	903.627
211.592	17.513	1198.544	903.480
212.607	17.673	1197.798	903.684
213.621	17.625	1196.961	902.719
214.636	17.620	1196.067	901.938
215.650	17.566	1195.157	900.886
216.665	17.582	1194.268	900.224
217.680	17.760	1193.418	900.441
218.694	17.653	1192.680	899.240
219.709	17.685	1192.166	898.939
220.723	17.624	1191.151	897.774
221.738	17.672	1190.417	897.397
222.753	17.799	1189.422	897.234
223.767	17.796	1188.410	896.376
224.782	17.859	1188.278	896.529
225.796	17.904	1187.544	896.131
226.811	17.818	1186.955	895.156
227.826	17.885	1185.691	894.473
228.840	17.809	1185.177	893.612
229.855	17.789	1184.524	892.934
230.869	17.820	1183.671	892.375
231.884	17.720	1182.623	890.984
232.899	17.570	1182.133	889.752
233.913	17.643	1181.554	889.618
234.928	17.631	1180.309	888.535
235.942	17.617	1179.826	888.022
236.957	17.629	1178.831	887.255
237.972	17.672	1178.176	886.912
238.986	17.711	1177.478	886.511
240.001	17.642	1176.702	885.488
241.015	17.676	1175.718	884.845
242.030	17.694	1174.963	884.292
243.045	17.823	1174.137	884.262
244.059	17.891	1173.422	883.998
245.074	17.854	1172.534	883.056
246.088	17.968	1171.608	882.874
247.103	17.941	1170.824	882.064
248.117	18.182	1170.045	882.640
249.132	18.114	1169.880	882.087
250.147	18.345	1169.102	882.615
251.161	18.348	1168.667	882.225
252.176	18.385	1167.886	881.749
253.190	18.455	1167.107	881.441
254.205	18.524	1166.737	881.437
255.220	18.538	1166.180	881.010
256.234	18.385	1165.752	879.822
257.249	18.423	1164.772	879.200
258.263	18.520	1164.150	879.154
259.278	18.449	1163.382	878.132
260.293	18.553	1162.467	877.892
261.307	18.664	1162.598	878.483
262.322	18.576	1161.622	877.219
263.336	18.645	1160.846	876.910
264.351	18.581	1160.319	876.106
265.366	18.568	1160.000	875.718
266.380	18.596	1159.316	875.267
267.395	18.505	1158.173	873.867
268.409	18.589	1157.003	873.331
269.424	18.434	1156.802	872.313
270.439	18.474	1156.384	872.126
271.453	18.473	1155.128	871.097
272.468	18.443	1153.815	869.877
273.482	18.587	1153.355	870.181
274.497	18.467	1153.118	869.318
275.512	18.398	1152.493	868.423
276.526	18.435	1151.393	867.703
277.541	18.451	1150.659	867.156
278.555	18.528	1149.910	866.903
279.570	18.680	1149.310	867.140
280.585	18.875	1148.539	867.467
281.599	18.802	1147.562	866.282
282.614	18.603	1146.402	864.329
283.628	18.679	1144.984	863.565
284.643	18.715	1144.169	863.058
285.657	18.727	1143.394	862.457
286.672	18.648	1142.809	861.543
287.687	18.792	1141.574	861.255
288.701	18.638	1141.254	860.166
289.716	18.779	1140.273	860.057
290.730	18.780	1139.143	859.133
291.745	18.776	1139.138	859.035
292.760	18.700	1138.616	858.184
293.774	18.808	1137.778	858.016
294.789	18.948	1137.189	858.193
295.803	18.965	1136.703	857.837
296.818	18.750	1135.976	856.141
297.833	18.845	1134.930	855.751
298.847	18.752	1134.550	854.923
299.862	18.817	1133.405	854.308
300.876	18.954	1132.666	854.357
301.891	19.002	1132.135	854.121
302.906	18.960	1131.544	853.387
303.920	19.143	1130.900	853.735
304.935	19.080	1130.330	852.915
305.949	19.195	1129.658	852.906
306.964	19.230	1128.669	852.255
307.979	19.155	1127.786	851.141
308.993	19.069	1127.589	850.494
310.008	19.163	1126.611	850.146
311.022	19.229	1126.000	849.936
312.037	19.165	1125.396	849.089
313.052	19.136	1123.938	847.770
314.066	19.053	1122.850	846.467
315.081	18.864	1122.325	845.065
316.095	18.862	1121.656	844.476
317.110	18.854	1120.765	843.691
318.125	18.942	1120.048	843.511
319.139	18.933	1119.667	843.106
320.154	19.044	1118.748	842.883
321.168	18.903	1118.401	841.857
322.183	19.047	1117.483	841.795
323.197	19.098	1116.879	841.516
324.212	18.980	1116.679	840.712
325.227	19.077	1115.829	840.472
326.241	19.087	1115.269	840.026
327.256	19.084	1114.416	839.291
328.270	18.958	1113.612	837.999
329.285	19.066	1112.233	837.412
330.300	19.090	1111.615	836.992
331.314	19.061	1110.125	835.653
332.329	19.081	1109.729	835.377
333.343	19.088	1108.707	834.570
334.358	19.138	1108.141	834.309
335.373	19.139	1107.499	833.761
336.387	19.254	1107.036	833.892
337.402	19.168	1106.311	832.856
338.416	19.402	1105.534	833.328
339.431	19.354	1104.793	832.466
340.446	19.534	1104.404	832.966
341.460	19.576	1103.574	832.470
342.475	19.600	1103.019	832.092
343.489	19.621	1101.699	831.125
344.504	19.768	1100.886	831.147
345.519	19.680	1100.095	830.052
346.533	19.801	1099.662	830.234
347.548	19.798	1098.866	829.541
348.562	19.848	1097.515	828.690
349.577	19.739	1096.921	827.645
350.592	19.592	1096.169	826.300
351.606	19.602	1095.540	825.801
352.621	19.487	1094.844	824.655
353.635	19.441	1094.091	823.795
354.650	19.569	1093.513	823.898
355.665	19.522	1092.508	822.846
356.679	19.588	1091.770	822.530
357.694	19.666	1091.344	822.506
358.708	19.636	1090.941	821.987
359.723	19.735	1089.799	821.525
360.738	19.765	1089.278	821.204
361.752	19.706	1088.950	820.603
362.767	19.779	1088.490	820.528
363.781	19.791	1087.664	819.890
364.796	19.738	1087.691	819.587
365.810	19.887	1086.967	819.677
366.825	20.077	1085.911	819.706
367.840	20.015	1085.728	819.201
368.854	20.203	1084.854	819.360
369.869	20.136	1084.622	818.794
370.883	20.031	1083.298	817.228
371.898	20.017	1082.581	816.549
372.913	20.073	1082.105	816.382
373.927	19.993	1081.574	815.531
374.942	20.066	1081.336	815.621
375.956	20.030	1080.939	815.080
376.971	20.047	1079.811	814.239
377.986	20.066	1079.663	814.145
379.000	20.265	1078.746	814.313
380.015	20.137	1078.677	813.590
381.029	20.294	1077.749	813.553
382.044	20.205	1077.107	812.582
383.059	20.314	1075.846	812.065
384.073	20.257	1075.418	811.408
385.088	20.250	1074.758	810.802
386.102	20.231	1073.630	809.790
387.117	20.184	1073.006	809.031
388.132	20.081	1071.847	807.607
389.146	19.939	1071.111	806.317
390.161	20.117	1070.146	806.350
391.175	20.028	1069.581	805.437
392.190	20.129	1068.797	805.243
393.205	20.338	1067.983	805.532
394.219	20.267	1067.232	804.562
395.234	20.253	1066.365	803.774
396.248	20.200	1065.129	802.527
397.263	20.173	1064.006	801.484
398.278	20.103	1063.547	800.743
399.292	20.080	1062.928	800.102
400.307	20.052	1062.264	799.402
401.321	20.141	1061.536	799.194
402.336	20.131	1060.678	798.429
403.350	20.033	1060.080	797.459
404.365	20.185	1059.684	797.787
405.380	20.252	1058.677	797.268
406.394	20.245	1057.965	796.630
407.409	20.434	1057.369	796.979
408.423	20.480	1056.712	796.620
409.438	20.477	1056.375	796.282
410.453	20.546	1055.475	795.849
411.467	20.597	1054.837	795.533
412.482	20.673	1054.183	795.317
413.496	20.775	1053.440	795.154
414.511	20.706	1052.798	794.283
415.526	20.705	1052.511	793.991
416.540	20.799	1051.913	793.896
417.555	20.791	1051.476	793.459
418.569	20.859	1050.931	793.290
419.584	20.745	1050.214	792.161
420.599	20.746	1049.737	791.735
421.613	154.639	1403.503	1795.473
422.628	141.791	1455.013	1795.541
