DTS Sentinel unit serial number:	SN413079Multiplexer serial number:	ORYXHardware model number:	OX4-SRSoftware version number:	ORYX F/W v4.00 Oryx Data Collector v3.7.2.0data status	okinstallation	princeton_trtdifferential loss correction	single-endedforward channel	channel 2reverse channel	N/Adate	2019/09/17time	13:59:35forward acquisition time	60.00reverse acquisition time	0.00gamma	496.2192k internal	0.2316k external	0.2316temperature offset calibration	0.9983default loss term (dB/km)	0.3790temperature slope calibration	1.0000multiplexer offset coefficient	1.0000multiplexer slope coefficient	1.0000fibre end	0.00T internal ref (°C)	35.56T ext. ref 1 (°C)	0.41T ext. ref 2 (°C)	32.47length (m)	temperature (°C)	Stokes	anti-Stokes-747.200	-31.855	-0.148	-0.084
-746.185	243.033	-0.061	0.104
-745.171	-157.681	0.399	0.024
-744.156	339.696	-0.246	0.487
-743.142	-159.244	-0.081	0.005
-742.127	-24.195	-0.083	0.050
-741.112	429.237	0.097	0.213
-740.098	-200.000	-0.021	0.136
-739.083	15.968	-0.251	0.200
-738.069	800.000	-0.032	0.133
-737.054	800.000	0.057	0.200
-736.039	120.052	-0.280	0.352
-735.025	-13.766	0.163	0.106
-734.010	157.558	-0.262	-0.367
-732.996	-156.351	-0.032	-0.002
-731.981	-160.334	0.111	0.006
-730.966	-56.301	0.255	-0.115
-729.952	203.664	-0.018	0.029
-728.937	-200.000	-0.026	0.188
-727.923	-29.448	-0.241	0.140
-726.908	-200.000	0.052	0.339
-725.894	49.382	0.227	0.216
-724.879	-90.669	-0.273	0.080
-723.864	15.768	0.085	-0.068
-722.850	18.677	-0.230	0.186
-721.835	-200.000	-0.058	0.277
-720.821	2.860	-0.176	-0.129
-719.806	-81.172	-0.332	-0.111
-718.791	-119.751	-0.224	-0.039
-717.777	-109.888	-0.312	0.066
-716.762	-102.478	0.326	0.079
-715.748	-112.745	0.133	-0.027
-714.733	-200.000	-0.049	-0.234
-713.718	695.112	0.128	-0.339
-712.704	-143.488	-0.109	-0.011
-711.689	152.367	-0.158	0.218
-710.675	-37.128	-0.275	-0.149
-709.660	290.102	0.123	-0.227
-708.645	157.237	0.165	0.231
-707.631	34.731	-0.143	0.126
-706.616	108.024	-0.089	-0.107
-705.602	300.450	0.052	-0.096
-704.587	49.930	-0.126	-0.121
-703.572	46.377	-0.268	0.251
-702.558	-2.385	0.166	-0.118
-701.543	265.901	0.078	0.138
-700.529	-102.842	-0.219	0.053
-699.514	-200.000	-0.044	-0.255
-698.499	-55.111	-0.138	-0.063
-697.485	800.000	0.057	-0.231
-696.470	-200.000	0.037	-0.166
-695.456	614.996	-0.027	0.068
-694.441	-68.296	0.065	-0.025
-693.426	800.000	0.048	-0.172
-692.412	119.944	-0.096	-0.121
-691.397	-200.000	0.005	-0.056
-690.383	-133.000	0.195	-0.025
-689.368	-56.725	-0.086	0.039
-688.354	130.789	-0.235	0.305
-687.339	-200.000	-0.006	0.062
-686.324	-40.102	0.330	0.174
-685.310	-200.000	0.010	-0.179
-684.295	800.000	-0.058	0.193
-683.281	-200.000	-0.235	-0.000
-682.266	165.632	-0.210	-0.299
-681.251	479.667	0.044	-0.100
-680.237	309.917	-0.103	-0.195
-679.222	0.177	0.335	-0.241
-678.208	231.777	0.162	-0.269
-677.193	-133.703	-0.071	0.009
-676.178	49.195	0.026	0.025
-675.164	800.000	-0.077	0.294
-674.149	-200.000	-0.050	-0.312
-673.135	800.000	-0.167	-0.469
-672.120	-2.310	0.351	0.249
-671.105	-200.000	0.045	-0.292
-670.091	321.097	0.092	-0.176
-669.076	800.000	-0.050	0.197
-668.062	99.462	-0.083	-0.097
-667.047	-200.000	-0.068	-0.475
-666.032	-88.233	-0.175	-0.053
-665.018	304.419	-0.092	-0.172
-664.003	46.353	-0.033	-0.031
-662.989	-87.031	0.187	0.057
-661.974	577.027	-0.096	0.237
-660.959	-200.000	0.208	0.000
-659.945	227.581	0.176	-0.288
-658.930	-41.172	0.355	-0.185
-657.916	-200.000	0.024	-0.163
-656.901	261.586	-0.045	-0.079
-655.886	669.792	-0.145	-0.379
-654.872	2.949	-0.095	-0.069
-653.857	91.527	0.099	0.112
-652.843	-167.478	-0.099	0.004
-651.828	800.000	-0.076	-0.248
-650.814	31.393	-0.118	-0.103
-649.799	-36.672	0.141	-0.076
-648.784	-200.000	0.029	0.176
-647.770	241.371	-0.099	0.167
-646.755	612.959	0.031	-0.079
-645.741	-128.665	-0.199	-0.028
-644.726	285.775	0.155	0.283
-643.711	164.884	-0.112	-0.159
-642.697	779.327	-0.092	0.254
-641.682	-200.000	-0.035	0.235
-640.668	800.000	0.035	-0.120
-639.653	117.449	0.131	0.162
-638.638	-38.892	-0.077	0.041
-637.624	-50.357	0.018	0.008
-636.609	270.310	0.153	-0.271
-635.595	-200.000	-0.034	0.212
-634.580	173.686	0.147	-0.213
-633.565	800.000	-0.040	-0.144
-632.551	71.199	-0.129	0.134
-631.536	761.253	0.101	0.276
-630.522	800.000	0.135	-0.485
-629.507	-133.715	-0.160	0.020
-628.492	385.810	0.109	0.226
-627.478	594.384	0.066	-0.165
-626.463	-200.000	-0.003	-0.350
-625.449	133.985	-0.030	-0.039
-624.434	-30.774	-0.254	0.145
-623.419	-200.000	-0.025	-0.272
-622.405	186.440	0.149	0.223
-621.390	68.057	0.219	-0.226
-620.376	-148.350	-0.208	-0.017
-619.361	-131.623	-0.130	0.017
-618.346	-93.852	0.162	-0.045
-617.332	-200.000	-0.005	0.075
-616.317	37.117	-0.063	-0.057
-615.303	-151.928	-0.036	-0.003
-614.288	-137.803	-0.282	0.032
-613.273	151.058	-0.214	-0.293
-612.259	148.369	-0.093	0.126
-611.244	45.631	0.197	0.184
-610.230	251.755	-0.118	0.202
-609.215	673.586	0.060	-0.157
-608.201	800.000	-0.131	-0.528
-607.186	481.461	-0.089	-0.203
-606.171	-200.000	-0.002	0.110
-605.157	-118.869	0.137	-0.024
-604.142	-131.741	0.154	-0.020
-603.128	-144.926	0.158	0.015
-602.113	-66.158	0.073	-0.029
-601.098	548.086	-0.052	-0.125
-600.084	-191.126	-0.255	0.003
-599.069	-200.000	0.013	0.223
-598.055	-200.000	0.079	-0.381
-597.040	-200.000	0.024	0.141
-596.025	116.357	-0.046	-0.056
-595.011	-86.956	0.333	-0.102
-593.996	213.699	-0.033	0.052
-592.982	-71.265	-0.298	-0.112
-591.967	439.704	-0.056	-0.124
-590.952	-82.971	0.296	-0.096
-589.938	800.000	-0.028	0.121
-588.923	800.000	-0.119	-0.432
-587.909	237.999	0.079	-0.132
-586.894	99.367	-0.117	0.136
-585.879	-77.632	-0.137	-0.048
-584.865	-200.000	0.024	0.398
-583.850	-107.171	-0.391	0.087
-582.836	-57.429	0.079	-0.035
-581.821	49.623	0.103	0.097
-580.806	800.000	0.048	0.190
-579.792	175.717	0.032	-0.047
-578.777	72.788	0.072	-0.076
-577.763	183.619	-0.109	0.161
-576.748	32.912	-0.179	-0.156
-575.733	95.955	0.037	-0.042
-574.719	149.178	-0.152	0.206
-573.704	-56.572	0.225	0.100
-572.690	-62.670	-0.296	0.123
-571.675	-107.237	0.293	0.065
-570.661	-200.000	0.043	0.292
-569.646	800.000	0.074	-0.227
-568.631	-200.000	-0.006	-0.038
-567.617	-114.449	-0.256	0.050
-566.602	-34.081	-0.210	0.116
-565.588	25.170	-0.169	-0.141
-564.573	84.123	0.127	-0.140
-563.558	-200.000	-0.043	-0.316
-562.544	800.000	0.031	-0.104
-561.529	-59.492	0.165	0.071
-560.515	140.833	0.103	-0.137
-559.500	-142.360	-0.253	-0.025
-558.485	-14.150	0.156	-0.101
-557.471	45.034	-0.264	0.245
-556.456	35.246	0.178	0.157
-555.442	-200.000	-0.026	0.257
-554.427	56.512	0.133	0.130
-553.412	378.996	-0.246	0.505
-552.398	-41.441	-0.185	-0.096
-551.383	-99.188	-0.162	-0.041
-550.369	-131.029	-0.331	-0.044
-549.354	-4.467	0.436	-0.303
-548.339	277.099	0.104	-0.185
-547.325	30.742	-0.152	-0.131
-546.310	-123.082	-0.381	-0.061
-545.296	215.271	0.073	0.117
-544.281	17.421	0.157	0.125
-543.266	-162.315	-0.238	-0.012
-542.252	-200.000	-0.023	0.334
-541.237	551.177	-0.058	-0.139
-540.223	34.512	-0.277	-0.243
-539.208	-25.192	0.136	0.081
-538.193	86.231	0.146	0.162
-537.179	50.830	0.031	0.029
-536.164	-138.416	-0.468	-0.052
-535.150	166.866	-0.150	0.213
-534.135	-139.485	0.302	-0.032
-533.121	-89.407	-0.391	0.115
-532.106	402.931	0.100	0.212
-531.091	648.910	-0.006	-0.015
-530.077	-200.000	-0.049	-0.249
-529.062	451.760	-0.027	0.061
-528.048	-90.836	0.217	0.063
-527.033	-123.018	0.116	-0.019
-526.018	-200.000	-0.008	-0.177
-525.004	-200.000	-0.001	0.057
-523.989	-30.732	-0.189	-0.107
-522.975	799.181	0.061	0.168
-521.960	198.958	-0.182	-0.280
-520.945	-200.000	0.004	-0.201
-519.931	-74.219	0.356	0.129
-518.916	346.498	0.196	-0.387
-517.902	730.795	0.029	-0.078
-516.887	266.923	0.010	0.018
-515.872	-200.000	-0.028	0.148
-514.858	-200.000	-0.031	0.221
-513.843	-60.374	0.279	-0.119
-512.829	-45.914	-0.229	0.114
-511.814	800.000	-0.018	-0.077
-510.799	676.630	0.035	-0.092
-509.785	-121.637	0.239	0.040
-508.770	88.342	0.026	0.029
-507.756	146.577	-0.147	-0.198
-506.741	-101.486	-0.191	-0.047
-505.726	-200.000	0.010	-0.339
-504.712	775.010	-0.026	-0.072
-503.697	77.147	-0.156	-0.166
-502.683	800.000	-0.094	-0.364
-501.668	-200.000	-0.012	0.133
-500.653	-111.874	0.338	0.068
-499.639	-111.929	-0.099	0.020
-498.624	367.363	0.070	0.141
-497.610	208.067	-0.133	-0.208
-496.595	-136.618	-0.210	-0.024
-495.581	-31.013	0.114	-0.064
-494.566	158.727	-0.088	0.122
-493.551	382.767	-0.132	-0.273
-492.537	244.705	0.029	0.049
-491.522	800.000	0.026	0.099
-490.508	147.276	0.250	0.337
-489.493	88.393	0.221	0.246
-488.478	548.421	-0.044	-0.106
-487.464	-121.043	-0.327	-0.055
-486.449	-107.928	0.220	-0.048
-485.435	135.139	0.130	0.170
-484.420	273.628	-0.090	0.160
-483.405	-174.962	-0.316	-0.009
-482.391	620.642	0.180	0.454
-481.376	68.754	0.149	0.153
-480.362	83.803	0.115	0.126
-479.347	181.590	0.052	-0.077
-478.332	-110.370	0.194	-0.040
-477.318	-200.000	0.010	-0.191
-476.303	800.000	-0.076	-0.248
-475.289	9.770	0.286	-0.218
-474.274	11.980	-0.096	0.074
-473.259	203.976	-0.049	-0.076
-472.245	166.483	0.089	-0.126
-471.230	-63.194	0.140	0.058
-470.216	-98.474	-0.101	-0.026
-469.201	48.592	-0.024	0.022
-468.186	-200.000	-0.027	0.218
-467.172	-26.589	-0.169	-0.099
-466.157	-200.000	0.045	0.244
-465.143	-22.505	-0.079	-0.048
-464.128	27.653	0.221	0.186
-463.113	11.609	-0.122	0.094
-462.099	97.840	-0.040	-0.046
-461.084	-38.100	0.408	-0.217
-460.070	-148.156	0.381	0.032
-459.055	-200.000	0.039	0.182
-458.040	-200.000	-0.012	0.087
-457.026	800.000	0.039	-0.120
-456.011	254.165	0.053	0.091
-454.997	-56.382	-0.553	0.246
-453.982	181.270	-0.071	-0.104
-452.968	-200.000	-0.024	-0.208
-451.953	181.628	-0.044	0.065
-450.938	106.603	-0.141	0.167
-449.924	37.823	0.128	0.114
-448.909	-6.957	-0.109	0.074
-447.895	148.612	0.125	0.169
-446.880	-200.000	-0.015	-0.362
-445.865	-41.792	0.244	0.125
-444.851	-200.000	0.088	0.477
-443.836	-79.204	-0.167	-0.057
-442.822	7.448	-0.110	0.082
-441.807	-94.123	0.298	0.082
-440.792	66.475	0.121	0.123
-439.778	81.123	-0.136	-0.147
-438.763	-36.747	0.064	0.034
-437.749	49.594	0.085	0.080
-436.734	112.430	-0.252	0.305
-435.719	-52.479	-0.126	0.058
-434.705	257.022	0.214	0.369
-433.690	-121.085	-0.230	-0.039
-432.676	-200.000	-0.073	-0.341
-431.661	800.000	-0.121	-0.361
-430.646	81.137	0.141	-0.153
-429.632	169.437	0.051	0.073
-428.617	-72.935	0.339	-0.124
-427.603	-109.434	-0.129	0.027
-426.588	-15.672	-0.208	0.133
-425.573	111.393	-0.081	0.098
-424.559	79.189	0.176	0.189
-423.544	475.864	-0.066	-0.148
-422.530	-161.497	0.185	0.010
-421.515	-200.000	0.003	-0.093
-420.500	-100.339	0.239	0.059
-419.486	-101.595	-0.440	0.107
-418.471	74.170	-0.247	0.259
-417.457	800.000	-0.044	-0.162
-416.442	-76.598	0.447	-0.157
-415.428	-20.856	0.155	0.095
-414.413	-45.889	-0.179	-0.088
-413.398	-63.382	0.307	0.126
-412.384	47.547	0.086	-0.080
-411.369	800.000	0.021	0.067
-410.355	-200.000	-0.016	0.179
-409.340	37.079	0.164	0.145
-408.325	-108.454	-0.186	-0.040
-407.311	-38.331	0.279	-0.148
-406.296	-129.646	-0.163	-0.023
-405.282	298.506	-0.085	0.156
-404.267	-9.309	-0.206	0.137
-403.252	-108.719	-0.262	-0.056
-402.238	381.996	0.235	-0.483
-401.223	-28.598	0.109	0.063
-400.209	800.000	0.063	0.190
-399.194	800.000	0.098	-0.274
-398.179	238.096	-0.259	-0.430
-397.165	800.000	0.028	0.079
-396.150	-39.339	-0.166	0.087
-395.136	-55.163	-0.126	-0.057
-394.121	-83.446	0.100	-0.032
-393.106	767.106	0.027	0.074
-392.092	474.998	-0.058	0.130
-391.077	-173.299	-0.171	-0.005
-390.063	-78.734	0.234	-0.080
-389.048	-200.000	0.003	-0.215
-388.033	8.030	-0.065	0.049
-387.019	-100.263	0.325	-0.081
-386.004	-170.332	0.306	0.011
-384.990	-52.903	-0.382	0.176
-383.975	800.000	-0.056	0.207
-382.960	-119.168	0.220	-0.038
-381.946	-40.467	0.109	0.057
-380.931	-43.861	0.446	-0.224
-379.917	615.855	-0.067	-0.169
-378.902	552.955	0.012	-0.029
-377.888	-92.140	-0.193	-0.054
-376.873	-200.000	0.026	-0.238
-375.858	-171.748	-0.223	0.007
-374.844	-75.577	-0.128	-0.046
-373.829	83.247	0.207	0.225
-372.815	106.760	0.082	-0.097
-371.800	-16.414	-0.135	0.085
-370.785	76.312	-0.251	0.265
-369.771	-15.959	0.305	-0.194
-368.756	102.834	-0.272	0.318
-367.742	5.635	-0.320	0.236
-366.727	72.636	-0.158	-0.164
-365.712	-20.873	0.069	0.042
-364.698	496.646	-0.053	-0.121
-363.683	-200.000	0.040	0.197
-362.669	250.703	-0.014	0.023
-361.654	42.578	-0.154	-0.140
-360.639	-47.629	-0.260	-0.126
-359.625	-87.063	0.223	0.068
-358.610	-115.656	0.463	-0.087
-357.596	-93.742	-0.096	0.026
-356.581	3.359	-0.245	0.178
-355.566	45.782	0.239	0.220
-354.552	-47.060	-0.113	-0.055
-353.537	36.639	-0.357	-0.314
-352.523	-200.000	-0.039	0.187
-351.508	389.655	0.215	-0.445
-350.493	-30.586	0.111	0.062
-349.479	-200.000	-0.001	0.139
-348.464	-93.276	0.250	-0.069
-347.450	-18.672	0.179	-0.112
-346.435	-106.140	0.146	-0.033
-345.420	-6.681	0.130	0.088
-344.406	-117.374	0.329	-0.059
-343.391	668.453	-0.177	0.456
-342.377	169.552	0.022	0.032
-341.362	-200.000	-0.050	0.363
-340.348	-84.843	-0.236	-0.074
-339.333	-200.000	0.014	-0.226
-338.318	-200.000	-0.052	0.350
-337.304	170.962	-0.076	0.108
-336.289	82.886	-0.051	-0.056
-335.275	-200.000	0.023	-0.106
-334.260	181.720	-0.090	0.131
-333.245	143.207	-0.040	-0.053
-332.231	-14.283	-0.148	-0.095
-331.216	662.493	-0.104	-0.267
-330.202	-98.181	0.364	-0.093
-329.187	182.855	-0.249	-0.366
-328.172	41.183	0.197	-0.177
-327.158	196.731	-0.396	0.602
-326.143	69.962	-0.148	-0.152
-325.129	-200.000	-0.000	0.070
-324.114	-200.000	0.043	0.359
-323.099	-81.456	0.392	0.128
-322.085	-80.494	-0.155	0.051
-321.070	-200.000	0.035	-0.314
-320.056	292.394	-0.065	0.117
-319.041	268.866	-0.115	0.201
-318.026	263.324	-0.131	0.227
-317.012	-200.000	0.252	-0.001
-315.997	16.059	-0.300	0.236
-314.983	-6.002	-0.167	0.113
-313.968	-200.000	-0.008	-0.290
-312.953	67.654	-0.180	0.183
-311.939	323.164	0.048	0.092
-310.924	252.824	0.086	-0.147
-309.910	-48.838	-0.463	0.221
-308.895	-142.300	0.141	-0.014
-307.880	276.260	-0.165	-0.291
-306.866	129.437	0.032	0.040
-305.851	-116.119	-0.143	0.026
-304.837	229.014	-0.119	0.193
-303.822	-5.589	0.159	0.109
-302.807	-50.981	-0.318	0.149
-301.793	800.000	0.026	-0.075
-300.778	307.936	-0.173	-0.321
-299.764	702.344	-0.107	-0.280
-298.749	203.332	0.080	-0.123
-297.735	409.520	0.206	-0.434
-296.720	-200.000	-0.000	-0.077
-295.705	644.609	-0.077	0.195
-294.691	-109.880	-0.314	-0.066
-293.676	-200.000	0.034	0.187
-292.662	-59.957	0.273	-0.116
-291.647	-114.319	0.181	0.035
-290.632	39.858	-0.133	-0.118
-289.618	-152.716	-0.134	-0.010
-288.603	355.724	0.179	-0.354
-287.589	676.378	0.142	-0.366
-286.574	199.862	-0.067	0.103
-285.559	24.659	0.155	-0.128
-284.545	119.478	0.157	-0.194
-283.530	-19.650	0.125	-0.077
-282.516	-90.208	0.019	-0.005
-281.501	148.161	0.160	0.215
-280.486	16.618	0.459	-0.361
-279.472	563.657	-0.105	-0.252
-278.457	-90.651	-0.073	0.021
-277.443	-200.000	0.062	0.360
-276.428	544.567	0.111	0.264
-275.413	-148.499	0.201	0.016
-274.399	-200.000	0.041	-0.194
-273.384	328.112	-0.096	-0.184
-272.370	-140.938	-0.356	0.036
-271.355	169.113	0.163	-0.231
-270.340	-30.439	-0.331	0.187
-269.326	-200.000	0.006	-0.152
-268.311	135.150	0.160	-0.207
-267.297	646.836	-0.102	-0.260
-266.282	-8.982	0.127	0.085
-265.267	-30.634	-0.213	0.120
-264.253	219.198	-0.071	-0.112
-263.238	476.630	0.070	0.157
-262.224	-200.000	0.009	0.329
-261.209	-7.973	-0.257	0.172
-260.195	-139.850	0.179	-0.019
-259.180	-106.702	0.102	-0.022
-258.165	-138.866	0.308	0.033
-257.151	-24.605	-0.100	0.059
-256.136	60.293	0.316	0.311
-255.122	-200.000	0.012	-0.068
-254.107	-52.274	-0.018	0.008
-253.092	800.000	0.033	-0.107
-252.078	34.658	0.122	-0.106
-251.063	-155.560	0.313	-0.020
-250.049	448.097	-0.075	0.165
-249.034	-22.963	-0.298	0.179
-248.019	800.000	-0.020	0.056
-247.005	-115.722	-0.130	0.024
-245.990	-47.339	0.160	-0.077
-244.976	45.368	-0.173	0.159
-243.961	-200.000	-0.016	-0.144
-242.946	273.880	-0.195	-0.342
-241.932	-47.418	0.217	0.105
-240.917	800.000	-0.058	-0.165
-239.903	-129.860	-0.518	-0.071
-238.888	177.527	-0.250	0.362
-237.873	121.899	-0.122	0.152
-236.859	-200.000	0.001	-0.106
-235.844	-26.148	0.085	0.049
-234.830	-64.190	0.147	0.059
-233.815	4.903	-0.175	-0.128
-232.800	-200.000	-0.005	0.055
-231.786	261.194	-0.083	-0.143
-230.771	181.282	0.204	0.298
-229.757	546.028	0.075	-0.178
-228.742	-8.474	0.331	-0.221
-227.727	-200.000	-0.030	0.178
-226.713	152.826	-0.069	-0.094
-225.698	-37.435	0.302	-0.160
-224.684	-104.595	0.045	0.010
-223.669	546.199	0.040	-0.094
-222.655	8.749	-0.110	-0.082
-221.640	201.891	-0.098	0.150
-220.625	-83.347	0.067	0.021
-219.611	29.120	0.213	-0.179
-218.596	-88.090	-0.100	-0.030
-217.582	155.436	-0.142	0.194
-216.567	-113.169	0.016	-0.003
-215.552	-73.906	0.184	-0.066
-214.538	87.157	-0.217	0.239
-213.523	-91.937	-0.052	0.015
-212.509	135.012	0.166	-0.214
-211.494	471.388	0.048	-0.108
-210.479	122.932	0.246	-0.306
-209.465	182.833	0.147	-0.216
-208.450	-200.000	0.004	-0.139
-207.436	-107.328	0.458	0.100
-206.421	-149.057	0.285	-0.023
-205.406	180.951	0.134	-0.196
-204.392	-76.699	0.225	0.078
-203.377	-10.313	-0.307	-0.202
-202.363	563.754	-0.071	0.170
-201.348	-142.893	0.154	-0.015
-200.333	-9.109	0.239	-0.158
-199.319	-200.000	0.013	0.231
-198.304	-13.195	-0.117	0.076
-197.290	-73.060	-0.377	-0.137
-196.275	437.676	-0.085	-0.185
-195.260	-23.315	0.333	0.199
-194.246	-200.000	-0.035	0.230
-193.231	-64.928	-0.282	0.113
-192.217	-200.000	0.003	-0.019
-191.202	41.676	-0.157	0.141
-190.187	57.705	-0.145	-0.141
-189.173	582.334	0.149	0.363
-188.158	-200.000	0.001	-0.157
-187.144	800.000	0.081	0.233
-186.129	87.669	-0.067	-0.073
-185.114	62.858	-0.102	0.101
-184.100	217.334	0.234	-0.369
-183.085	-86.164	0.398	-0.122
-182.071	-200.000	-0.010	-0.049
-181.056	-121.448	0.388	-0.064
-180.042	218.405	0.158	0.251
-179.027	-40.281	-0.243	0.125
-178.012	185.348	0.275	0.405
-176.998	-76.136	0.256	0.089
-175.983	-49.954	0.113	-0.053
-174.969	187.024	0.087	0.129
-173.954	736.659	-0.100	-0.265
-172.939	-80.382	-0.553	0.183
-171.925	172.593	0.187	-0.267
-170.910	10.529	-0.281	-0.212
-169.896	592.649	-0.080	0.197
-168.881	800.000	0.076	0.324
-167.866	-200.000	-0.094	0.424
-166.852	-135.329	-0.154	0.018
-165.837	22.041	-0.229	-0.185
-164.823	-100.901	0.258	0.063
-163.808	800.000	0.058	-0.235
-162.793	104.215	0.174	-0.202
-161.779	-71.052	0.209	0.078
-160.764	-107.123	0.190	0.042
-159.750	-24.962	-0.066	0.039
-158.735	37.993	-0.354	-0.312
-157.720	97.101	0.222	-0.253
-156.706	800.000	-0.016	0.061
-155.691	11.151	0.122	-0.092
-154.677	-81.537	-0.386	0.126
-153.662	800.000	-0.070	0.196
-152.647	-26.678	-0.095	0.055
-151.633	-200.000	-0.004	0.288
-150.618	248.504	0.021	0.036
-149.604	-86.892	0.153	-0.046
-148.589	84.322	0.285	-0.309
-147.574	-200.000	-0.012	0.061
-146.560	-80.638	-0.145	-0.048
-145.545	-200.000	0.004	-0.041
-144.531	-68.166	-0.073	-0.028
-143.516	26.118	0.175	-0.145
-142.502	184.179	0.151	-0.221
-141.487	-141.140	-0.228	0.023
-140.472	152.269	0.083	-0.111
-139.458	91.046	0.142	0.158
-138.443	-140.690	-0.182	0.019
-137.429	-86.448	0.051	-0.016
-136.414	-122.559	-0.031	0.005
-135.399	-2.708	-0.164	0.113
-134.385	-200.000	-0.016	-0.102
-133.370	-200.000	-0.049	0.331
-132.356	-80.383	0.085	0.028
-131.341	73.582	0.133	0.137
-130.326	-28.294	0.325	-0.186
-129.312	-100.580	-0.214	-0.052
-128.297	340.087	0.128	-0.247
-127.283	-58.381	0.326	0.140
-126.268	35.370	-0.473	0.410
-125.253	-200.000	-0.016	-0.145
-124.239	-67.687	0.460	0.178
-123.224	-20.766	0.059	0.036
-122.210	70.880	-0.070	0.072
-121.195	800.000	0.046	0.185
-120.180	0.163	-0.126	-0.089
-119.166	-200.000	-0.053	0.415
-118.151	-108.230	-0.219	0.047
-117.137	85.925	-0.146	-0.159
-116.122	-50.702	-0.168	-0.078
-115.107	-200.000	-0.010	-0.102
-114.093	639.991	0.052	0.130
-113.078	-125.234	0.106	-0.016
-112.064	31.749	0.326	-0.277
-111.049	-149.718	-0.397	0.031
-110.034	-120.289	-0.287	0.048
-109.020	-31.154	-0.144	-0.080
-108.005	800.000	0.076	-0.230
-106.991	-151.157	-0.210	-0.016
-105.976	-68.047	-0.208	0.080
-104.962	-87.427	0.283	0.085
-103.947	-93.232	0.130	-0.036
-102.932	28.960	-0.135	-0.113
-101.918	-56.878	0.208	0.091
-100.903	-36.144	0.145	-0.077
-99.889	-70.710	-0.329	-0.123
-98.874	-134.050	0.076	0.009
-97.859	-200.000	0.035	0.173
-96.845	800.000	-0.070	0.223
-95.830	-124.012	0.149	0.023
-94.816	-81.488	0.243	0.079
-93.801	16.737	-0.168	-0.131
-92.786	-200.000	-0.028	0.240
-91.772	-200.000	0.048	0.395
-90.757	-150.292	-0.191	-0.015
-89.743	746.685	-0.059	-0.157
-88.728	207.099	-0.076	0.117
-87.713	-200.000	0.012	0.103
-86.699	142.122	0.202	-0.265
-85.684	-154.431	0.367	-0.024
-84.670	379.158	-0.082	-0.166
-83.655	128.922	0.206	0.259
-82.640	-200.000	-0.002	0.018
-81.626	-200.000	0.066	0.346
-80.611	165.773	0.109	0.152
-79.597	800.000	-0.057	0.181
-78.582	800.000	0.124	-0.367
-77.567	79.066	-0.113	0.119
-76.553	-124.820	-0.048	-0.007
-75.538	800.000	0.029	0.114
-74.524	-32.281	0.240	0.132
-73.509	-200.000	-0.028	0.153
-72.494	-19.105	-0.327	-0.200
-71.480	-200.000	-0.014	-0.076
-70.465	-22.528	-0.200	-0.119
-69.451	349.173	0.088	-0.172
-68.436	178.159	-0.124	0.178
-67.422	800.000	0.132	-0.388
-66.407	4.511	0.319	0.231
-65.392	485.137	-0.134	0.301
-64.378	759.545	0.122	0.327
-63.363	-141.596	-0.194	0.019
-62.349	-0.022	0.187	0.131
-61.334	66.039	-1.120	-1.121
-60.319	-120.976	0.463	-0.077
-59.305	-200.000	0.147	-0.906
-58.290	127.519	0.597	0.747
-57.276	495.197	0.625	1.416
-56.261	-200.000	92.135	534.359
-55.246	478.587	1419.413	3169.259
-54.232	145.894	2634.024	3482.171
-53.217	105.937	2353.396	2745.999
-52.203	44.996	1958.131	1778.022
-51.188	38.856	1741.037	1533.049
-50.173	36.031	1695.474	1471.331
-49.159	51.825	1741.314	1633.632
-48.144	54.842	1759.216	1673.707
-47.130	38.538	1717.314	1509.465
-46.115	35.695	1702.432	1474.558
-45.100	35.450	1697.567	1468.408
-44.086	35.420	1695.023	1465.925
-43.071	35.473	1691.937	1463.598
-42.057	35.404	1690.238	1461.545
-41.042	35.539	1688.007	1460.589
-40.027	35.454	1686.098	1458.232
-39.013	35.500	1684.274	1456.948
-37.998	35.453	1682.255	1454.788
-36.984	35.431	1681.472	1453.886
-35.969	35.489	1680.212	1453.176
-34.954	35.606	1678.187	1452.251
-33.940	35.551	1677.029	1450.778
-32.925	35.537	1674.708	1448.607
-31.911	35.495	1672.824	1446.602
-30.896	35.498	1670.689	1444.723
-29.881	35.509	1668.396	1442.761
-28.867	35.461	1667.327	1441.421
-27.852	35.557	1665.890	1440.839
-26.838	35.495	1664.705	1439.292
-25.823	35.613	1662.903	1438.565
-24.809	35.665	1661.792	1437.935
-23.794	35.635	1660.452	1436.494
-22.779	35.607	1658.734	1434.739
-21.765	35.583	1657.286	1433.250
-20.750	35.533	1655.082	1430.919
-19.736	35.676	1653.918	1430.914
-18.721	35.692	1652.380	1429.652
-17.706	35.597	1651.190	1427.859
-16.692	35.574	1649.229	1425.931
-15.677	35.539	1647.914	1424.477
-14.663	35.566	1646.782	1423.647
-13.648	35.672	1644.913	1422.761
-12.633	35.575	1643.308	1420.600
-11.619	35.660	1641.670	1419.754
-10.604	35.624	1640.151	1418.117
-9.590	35.642	1638.573	1416.825
-8.575	35.572	1637.941	1415.712
-7.560	35.635	1636.507	1414.877
-6.546	35.575	1635.351	1413.384
-5.531	35.549	1634.555	1412.443
-4.517	35.475	1633.543	1410.972
-3.502	35.604	1632.420	1410.896
-2.487	35.669	1630.752	1409.869
-1.473	35.576	1620.172	1399.993
-0.458	33.433	1600.261	1367.286
0.556	28.063	1599.990	1332.449
1.571	25.150	1623.188	1330.076
2.586	24.131	1636.006	1332.841
3.600	21.643	1581.994	1270.696
4.615	12.039	1465.401	1112.079
5.629	2.635	1393.737	996.677
6.644	0.580	1384.268	976.540
7.659	0.430	1382.946	974.553
8.673	0.346	1381.583	972.965
9.688	0.264	1380.420	971.527
10.702	0.123	1376.970	968.107
11.717	4.133	1384.243	999.030
12.731	13.378	1398.945	1069.558
13.746	18.200	1404.745	1105.123
14.761	17.505	1402.469	1098.750
15.775	16.515	1399.297	1089.791
16.790	15.461	1396.604	1080.814
17.804	14.643	1394.477	1073.813
18.819	14.276	1393.213	1070.386
19.834	13.991	1391.697	1067.298
20.848	13.654	1390.847	1064.387
21.863	13.465	1389.118	1061.757
22.877	13.282	1388.198	1059.788
23.892	13.285	1386.716	1058.580
24.907	13.294	1386.184	1058.142
25.921	13.260	1385.291	1057.148
26.936	13.335	1384.618	1057.019
27.950	13.292	1383.743	1055.984
28.965	13.460	1382.085	1055.696
29.980	13.416	1381.629	1054.974
30.994	13.404	1381.497	1054.704
32.009	13.455	1379.787	1053.628
33.023	13.484	1378.783	1052.953
34.038	13.483	1377.400	1051.800
35.053	13.437	1376.300	1050.575
36.067	13.441	1375.046	1049.548
37.082	13.436	1374.272	1048.834
38.096	13.483	1373.145	1048.180
39.111	13.417	1372.396	1047.097
40.126	13.420	1371.800	1046.567
41.140	13.231	1370.979	1044.654
42.155	13.342	1370.178	1044.650
43.169	13.296	1369.884	1044.041
44.184	13.335	1369.367	1043.805
45.199	13.150	1369.511	1042.654
46.213	13.299	1368.606	1042.813
47.228	13.278	1367.771	1041.950
48.242	13.328	1366.319	1041.071
49.257	13.223	1365.611	1039.778
50.271	13.284	1363.797	1038.687
51.286	13.436	1361.746	1037.986
52.301	13.332	1361.195	1036.820
53.315	13.399	1359.574	1035.912
54.330	13.274	1359.197	1034.753
55.344	13.252	1357.467	1033.208
56.359	13.343	1356.274	1032.777
57.374	13.309	1355.568	1031.935
58.388	13.272	1354.817	1031.043
59.403	13.218	1354.649	1030.482
60.417	13.311	1353.279	1029.931
61.432	13.098	1352.736	1028.098
62.447	13.175	1351.569	1027.599
63.461	13.089	1350.730	1026.336
64.476	13.099	1349.675	1025.507
65.490	13.172	1348.294	1024.821
66.505	13.205	1346.392	1023.487
67.520	13.300	1345.280	1023.138
68.534	13.304	1344.050	1022.139
69.549	13.236	1342.965	1020.803
70.563	13.194	1342.011	1019.732
71.578	13.079	1341.254	1018.354
72.593	13.091	1340.070	1017.442
73.607	13.178	1339.354	1017.343
74.622	13.008	1338.340	1015.436
75.636	13.107	1337.791	1015.541
76.651	13.217	1336.735	1015.321
77.666	13.198	1336.327	1014.806
78.680	13.230	1335.949	1014.623
79.695	13.142	1335.108	1013.355
80.709	13.212	1334.402	1013.159
81.724	13.211	1333.406	1012.309
82.739	13.290	1332.006	1011.637
83.753	13.201	1331.701	1010.771
84.768	13.369	1330.675	1010.935
85.782	13.480	1328.682	1010.007
86.797	13.385	1327.521	1008.455
87.812	13.307	1326.701	1007.268
88.826	13.291	1325.558	1006.214
89.841	13.391	1324.778	1006.142
90.855	13.338	1323.292	1004.602
91.870	13.367	1322.503	1004.087
92.884	13.398	1321.471	1003.406
93.899	13.411	1320.933	1002.987
94.914	13.494	1319.583	1002.376
95.928	13.508	1319.191	1002.071
96.943	13.430	1318.338	1000.866
97.957	13.423	1317.215	999.881
98.972	13.450	1316.355	999.306
99.987	13.430	1314.998	998.066
101.001	13.445	1314.168	997.437
102.016	13.384	1313.039	996.122
103.030	13.362	1312.131	995.215
104.045	13.375	1311.629	994.825
105.060	13.406	1309.838	993.561
106.074	13.393	1308.647	992.497
107.089	13.318	1307.360	990.980
108.103	13.213	1306.054	989.273
109.118	13.206	1305.036	988.376
110.133	13.277	1303.716	987.714
111.147	13.338	1302.278	986.901
112.162	13.304	1301.249	985.829
113.176	13.311	1300.082	984.901
114.191	13.341	1299.103	984.248
115.206	13.406	1297.647	983.445
116.220	13.379	1296.611	982.411
117.235	13.371	1296.209	981.972
118.249	13.309	1294.709	980.382
119.264	13.267	1293.822	979.376
120.279	13.275	1292.260	978.152
121.293	13.355	1291.516	977.975
122.308	13.259	1290.609	976.640
123.322	13.285	1289.289	975.703
124.337	13.241	1288.791	974.980
125.352	13.360	1286.935	974.193
126.366	13.195	1286.110	972.509
127.381	13.156	1285.132	971.454
128.395	13.320	1283.540	971.129
129.410	13.363	1282.931	970.836
130.424	13.426	1281.779	970.247
131.439	13.462	1280.879	969.690
132.454	13.450	1279.966	968.845
133.468	13.373	1279.414	967.891
134.483	13.390	1278.615	967.298
135.497	13.403	1277.248	966.253
136.512	13.361	1275.986	964.967
137.527	13.381	1274.752	964.070
138.541	13.267	1273.471	962.351
139.556	13.373	1271.841	961.649
140.570	13.457	1270.736	961.217
141.585	13.541	1269.516	960.699
142.600	13.431	1268.435	959.155
143.614	13.499	1267.707	958.915
144.629	13.525	1266.354	957.954
145.643	13.583	1265.037	957.211
146.658	13.577	1263.870	956.210
147.673	13.441	1262.485	954.295
148.687	13.336	1261.328	952.730
149.702	13.463	1259.884	952.282
150.716	13.342	1258.884	950.751
151.731	13.328	1257.820	949.778
152.746	13.528	1256.130	949.565
153.760	13.510	1254.969	948.501
154.775	13.477	1254.184	947.635
155.789	13.505	1252.787	946.655
156.804	13.516	1251.815	945.903
157.819	13.603	1250.704	945.473
158.833	13.649	1249.677	944.878
159.848	13.657	1248.805	944.177
160.862	13.647	1247.571	943.107
161.877	13.569	1246.360	941.662
162.892	13.466	1246.092	940.795
163.906	13.552	1244.914	940.306
164.921	13.586	1243.570	939.401
165.935	13.512	1243.025	938.490
166.950	13.659	1242.180	938.601
167.964	13.573	1241.401	937.444
168.979	13.655	1240.237	936.945
169.994	13.667	1239.710	936.532
171.008	13.595	1239.269	935.707
172.023	13.735	1238.012	935.465
173.037	13.817	1237.198	935.231
174.052	13.670	1236.192	933.561
175.067	13.659	1235.719	933.056
176.081	13.659	1234.246	931.860
177.096	13.617	1233.324	930.848
178.110	13.665	1232.254	930.229
179.125	13.746	1230.717	929.438
180.140	13.626	1230.106	928.220
181.154	13.683	1228.892	927.546
182.169	13.740	1227.602	926.805
183.183	13.764	1226.233	925.825
184.198	13.844	1225.012	925.265
185.213	13.841	1223.831	924.276
186.227	13.939	1222.367	923.634
187.242	13.903	1221.908	923.004
188.256	13.933	1220.923	922.346
189.271	13.896	1220.048	921.397
190.286	13.900	1218.576	920.224
191.300	13.845	1217.638	919.134
192.315	13.695	1217.501	918.118
193.329	13.758	1216.462	917.603
194.344	13.792	1215.557	917.025
195.359	13.747	1215.517	916.666
196.373	13.844	1214.890	916.648
197.388	14.031	1213.813	916.783
198.402	13.983	1213.938	916.535
199.417	14.055	1213.048	916.177
200.432	13.916	1212.572	914.969
201.446	14.021	1211.287	914.496
202.461	14.131	1210.290	914.271
203.475	14.157	1209.165	913.484
204.490	14.069	1208.230	912.209
205.504	14.104	1206.997	911.394
206.519	14.019	1205.763	909.913
207.534	14.064	1204.569	909.180
208.548	14.182	1203.277	908.765
209.563	14.127	1202.818	908.037
210.577	14.185	1201.882	907.570
211.592	14.166	1201.155	906.836
212.607	14.231	1200.293	906.460
213.621	14.199	1199.452	905.570
214.636	14.249	1198.673	905.176
215.650	14.211	1197.505	904.005
216.665	14.291	1196.806	903.833
217.680	14.255	1196.085	903.014
218.694	14.306	1195.192	902.535
219.709	14.291	1194.362	901.747
220.723	14.405	1193.478	901.616
221.738	14.309	1192.562	900.324
222.753	14.312	1192.104	899.914
223.767	14.363	1191.482	899.640
224.782	14.357	1190.622	898.882
225.796	14.504	1189.521	898.762
226.811	14.422	1189.354	898.114
227.826	14.444	1188.691	897.652
228.840	14.576	1187.555	897.424
229.855	14.349	1187.196	895.852
230.869	14.383	1186.403	895.358
231.884	14.348	1185.472	894.387
232.899	14.438	1184.440	894.014
233.913	14.435	1184.020	893.603
234.928	14.357	1183.030	892.357
235.942	14.403	1182.122	891.840
236.957	14.383	1181.818	891.424
237.972	14.308	1181.302	890.554
238.986	14.334	1180.485	890.001
240.001	14.446	1179.597	889.849
241.015	14.491	1178.900	889.484
242.030	14.423	1177.696	888.138
243.045	14.548	1177.157	888.319
244.059	14.419	1176.764	887.257
245.074	14.529	1175.465	886.783
246.088	14.597	1174.710	886.497
247.103	14.729	1173.525	886.222
248.117	14.699	1173.060	885.635
249.132	14.744	1172.509	885.380
250.147	14.779	1171.657	884.843
251.161	14.817	1170.753	884.284
252.176	14.786	1170.788	884.069
253.190	14.965	1169.293	883.805
254.205	14.810	1168.977	882.670
255.220	14.863	1168.299	882.358
256.234	14.943	1167.213	881.884
257.249	14.916	1167.203	881.655
258.263	15.064	1166.045	881.480
259.278	15.006	1165.546	880.720
260.293	15.010	1165.335	880.504
261.307	14.993	1164.781	879.918
262.322	15.031	1163.938	879.407
263.336	15.071	1163.085	878.892
264.351	14.990	1162.631	878.045
265.366	15.081	1162.157	878.090
266.380	15.168	1161.193	877.739
267.395	15.138	1160.202	876.751
268.409	15.094	1159.620	876.008
269.424	15.132	1158.876	875.566
270.439	15.093	1158.371	874.905
271.453	15.080	1157.243	873.903
272.468	15.028	1156.500	872.997
273.482	15.051	1155.881	872.570
274.497	15.137	1155.554	872.696
275.512	15.169	1154.780	872.201
276.526	15.101	1154.059	871.226
277.541	15.122	1153.350	870.719
278.555	15.263	1152.313	870.593
279.570	15.262	1151.693	870.042
280.585	15.216	1150.746	869.010
281.599	15.299	1149.713	868.583
282.614	15.252	1148.829	867.595
283.628	15.212	1147.925	866.633
284.643	15.303	1146.841	866.208
285.657	15.347	1146.050	865.760
286.672	15.375	1145.131	865.132
287.687	15.331	1144.397	864.273
288.701	15.348	1143.850	863.872
289.716	15.352	1142.665	862.921
290.730	15.407	1141.650	862.363
291.745	15.396	1141.539	862.143
292.760	15.421	1140.984	861.776
293.774	15.476	1140.227	861.411
294.789	15.416	1139.914	860.793
295.803	15.553	1138.717	860.511
296.818	15.485	1138.460	859.897
297.833	15.451	1137.365	858.817
298.847	15.374	1136.836	857.946
299.862	15.578	1135.640	858.010
300.876	15.592	1135.184	857.664
301.891	15.533	1135.007	857.150
302.906	15.709	1133.376	856.742
303.920	15.578	1133.264	855.911
304.935	15.609	1132.543	855.450
305.949	15.725	1131.937	855.508
306.964	15.865	1131.051	855.472
307.979	15.781	1130.156	854.295
308.993	15.776	1129.114	853.408
310.008	15.704	1129.007	852.887
311.022	15.684	1128.471	852.304
312.037	15.780	1127.040	851.631
313.052	15.718	1126.538	850.867
314.066	15.778	1125.124	850.024
315.081	15.662	1124.736	849.070
316.095	15.735	1123.857	848.698
317.110	15.820	1123.111	848.491
318.125	15.824	1122.376	847.881
319.139	15.644	1122.041	846.647
320.154	15.703	1121.283	846.296
321.168	15.762	1120.365	845.824
322.183	15.830	1119.866	845.712
323.197	15.823	1119.186	845.091
324.212	15.643	1118.911	843.907
325.227	15.742	1118.286	843.854
326.241	15.838	1117.598	843.743
327.256	15.780	1116.620	842.638
328.270	15.842	1115.272	841.855
329.285	15.882	1114.582	841.462
330.300	15.963	1113.655	841.091
331.314	15.886	1112.895	840.061
332.329	15.810	1112.249	839.121
333.343	15.795	1111.069	838.079
334.358	15.873	1110.478	837.948
335.373	15.944	1109.321	837.352
336.387	15.976	1108.663	836.944
337.402	16.068	1107.770	836.651
338.416	15.949	1107.647	835.891
339.431	16.065	1106.596	835.599
340.446	16.165	1105.790	835.413
341.460	16.182	1105.547	835.239
342.475	16.158	1104.743	834.439
343.489	16.140	1104.031	833.742
344.504	16.281	1102.512	833.214
345.519	16.276	1102.168	832.855
346.533	16.255	1100.895	831.717
347.548	16.328	1100.292	831.548
348.562	16.259	1099.891	830.832
349.577	16.301	1098.968	830.266
350.592	16.255	1098.443	829.573
351.606	16.316	1097.279	828.918
352.621	16.304	1096.535	828.226
353.635	16.206	1096.083	827.330
354.650	16.321	1095.285	827.214
355.665	16.297	1094.754	826.625
356.679	16.333	1093.657	825.898
357.694	16.347	1093.253	825.587
358.708	16.388	1092.532	825.170
359.723	16.374	1092.018	824.643
360.738	16.458	1091.062	824.255
361.752	16.354	1090.779	823.463
362.767	16.466	1090.329	823.595
363.781	16.376	1089.809	822.695
364.796	16.438	1089.275	822.517
365.810	16.499	1088.377	822.063
366.825	16.503	1088.343	821.985
367.840	16.622	1087.438	821.809
368.854	16.659	1086.623	821.299
369.869	16.617	1085.990	820.545
370.883	16.750	1084.571	820.042
371.898	16.564	1084.458	818.985
372.913	16.603	1083.655	818.492
373.927	16.691	1083.362	818.625
374.942	16.617	1082.806	817.776
375.956	16.635	1082.430	817.506
376.971	16.757	1081.788	817.538
377.986	16.695	1081.229	816.746
379.000	16.748	1080.378	816.286
380.015	16.790	1079.710	815.910
381.029	16.798	1079.288	815.556
382.044	16.849	1078.816	815.374
383.059	16.871	1077.755	814.607
384.073	16.864	1076.958	813.898
385.088	16.989	1075.913	813.633
386.102	16.934	1075.162	812.731
387.117	16.963	1074.094	811.990
388.132	16.965	1072.884	811.015
389.146	16.905	1072.032	810.014
390.161	16.889	1071.952	809.802
391.175	16.839	1071.020	808.791
392.190	16.779	1070.698	808.188
393.205	16.831	1070.017	807.851
394.219	17.014	1068.652	807.620
395.234	16.895	1068.248	806.677
396.248	16.962	1067.083	806.045
397.263	16.923	1065.889	804.883
398.278	16.874	1065.545	804.322
399.292	16.868	1065.013	803.821
400.307	16.916	1063.952	803.177
401.321	16.980	1063.550	803.105
402.336	16.965	1062.403	802.098
403.350	17.031	1061.518	801.671
404.365	17.067	1060.955	801.345
405.380	17.044	1060.504	800.823
406.394	16.965	1059.883	799.911
407.409	17.129	1059.018	799.959
408.423	17.166	1058.229	799.466
409.438	17.181	1057.698	799.066
410.453	17.207	1057.161	798.711
411.467	17.191	1056.448	798.028
412.482	17.129	1056.098	797.400
413.496	17.343	1054.810	797.364
414.511	17.337	1054.153	796.767
415.526	17.258	1054.065	796.260
416.540	17.314	1053.538	796.051
417.555	17.243	1052.980	795.230
418.569	17.361	1052.421	795.289
419.584	17.396	1051.573	794.738
420.599	17.419	1051.384	794.635
421.613	97.164	1313.745	1434.139
422.628	89.448	1351.952	1434.235
