DTS Sentinel unit serial number:	SN413079Multiplexer serial number:	ORYXHardware model number:	OX4-SRSoftware version number:	ORYX F/W v4.00 Oryx Data Collector v3.7.2.0data status	okinstallation	princeton_trtdifferential loss correction	single-endedforward channel	channel 2reverse channel	N/Adate	2019/09/15time	04:39:34forward acquisition time	60.00reverse acquisition time	0.00gamma	496.2192k internal	0.2326k external	0.2326temperature offset calibration	1.0030default loss term (dB/km)	0.3790temperature slope calibration	1.0000multiplexer offset coefficient	1.0000multiplexer slope coefficient	1.0000fibre end	0.00T internal ref (°C)	30.81T ext. ref 1 (°C)	4.72T ext. ref 2 (°C)	25.41length (m)	temperature (°C)	Stokes	anti-Stokes-747.200	-71.105	0.112	0.043
-746.185	-22.624	0.290	0.177
-745.171	20.580	0.259	0.212
-744.156	-113.348	-0.182	0.036
-743.142	-53.737	0.223	-0.103
-742.127	800.000	0.027	-0.085
-741.112	694.514	-0.059	0.157
-740.098	71.857	0.043	-0.045
-739.083	92.488	-0.046	0.052
-738.069	53.716	-0.249	0.241
-737.054	-96.059	0.303	-0.081
-736.039	800.000	-0.043	-0.120
-735.025	327.514	0.118	0.229
-734.010	-5.396	-0.080	-0.055
-732.996	-34.011	-0.410	0.228
-731.981	18.590	0.159	-0.128
-730.966	-200.000	0.034	-0.513
-729.952	-29.687	0.226	0.130
-728.937	363.188	-0.125	-0.254
-727.923	-90.326	0.073	-0.021
-726.908	199.002	-0.160	0.248
-725.894	-63.973	0.133	0.055
-724.879	-200.000	-0.004	-0.236
-723.864	800.000	-0.045	0.157
-722.850	25.923	-0.293	-0.246
-721.835	-144.759	-0.513	-0.047
-720.821	-5.508	0.190	-0.131
-719.806	800.000	0.054	0.156
-718.791	63.631	0.444	0.449
-717.777	117.928	0.113	-0.140
-716.762	-200.000	0.074	0.399
-715.748	-61.896	-0.063	0.026
-714.733	-76.482	0.273	-0.097
-713.718	-134.761	-0.128	0.016
-712.704	137.800	-0.168	0.221
-711.689	-30.593	-0.078	0.045
-710.675	-15.654	-0.324	0.208
-709.660	-29.501	0.135	-0.078
-708.645	-200.000	-0.032	0.271
-707.631	59.546	-0.133	0.132
-706.616	-20.709	-0.119	-0.073
-705.602	129.117	0.191	0.246
-704.587	119.290	0.091	0.114
-703.572	-84.944	0.321	0.102
-702.558	-33.804	0.151	-0.084
-701.543	-56.923	-0.132	-0.059
-700.529	-22.723	0.346	0.210
-699.514	40.371	0.092	-0.083
-698.499	800.000	0.061	-0.175
-697.485	-15.342	-0.234	-0.151
-696.470	291.637	-0.135	-0.248
-695.456	112.110	0.153	-0.186
-694.441	-59.513	0.169	-0.073
-693.426	721.938	-0.084	-0.226
-692.412	-126.952	0.122	0.018
-691.397	-103.027	-0.174	-0.042
-690.383	-70.161	-0.299	0.114
-689.368	-133.217	0.416	-0.053
-688.354	-200.000	0.217	0.001
-687.339	800.000	0.072	0.204
-686.324	-200.000	0.014	-0.181
-685.310	-200.000	-0.245	0.001
-684.295	-61.753	0.079	-0.033
-683.281	-55.355	-0.438	0.198
-682.266	-64.616	0.415	-0.170
-681.251	167.919	0.198	-0.283
-680.237	-200.000	0.017	-0.175
-679.222	240.936	0.081	-0.137
-678.208	800.000	0.077	0.332
-677.193	-75.246	0.253	-0.091
-676.178	-44.795	-0.490	-0.246
-675.164	-200.000	0.019	-0.091
-674.149	-200.000	-0.013	0.103
-673.135	-127.111	-0.205	-0.030
-672.120	-200.000	0.008	-0.158
-671.105	800.000	0.026	-0.098
-670.091	800.000	0.129	0.434
-669.076	342.813	-0.027	-0.053
-668.062	-200.000	-0.039	-0.279
-667.047	-200.000	0.047	-0.236
-666.032	-18.653	0.334	0.210
-665.018	293.965	0.059	0.109
-664.003	168.470	-0.111	-0.159
-662.989	292.600	-0.161	-0.295
-661.974	-34.617	-0.205	0.113
-660.959	-200.000	0.034	-0.153
-659.945	165.696	0.192	-0.273
-658.930	8.704	-0.201	0.152
-657.916	36.950	0.212	-0.189
-656.901	195.322	0.078	-0.120
-655.886	144.488	0.083	0.111
-654.872	-70.668	0.023	-0.009
-653.857	-200.000	0.009	-0.355
-652.843	284.597	-0.115	-0.208
-651.828	485.157	0.047	0.109
-650.814	-128.413	0.069	-0.010
-649.799	657.319	0.109	-0.283
-648.784	-50.560	-0.089	0.042
-647.770	-99.214	-0.303	0.077
-646.755	800.000	-0.080	-0.261
-645.741	-2.372	0.125	-0.088
-644.726	220.553	0.174	-0.281
-643.711	-71.780	-0.122	0.046
-642.697	252.529	0.072	-0.124
-641.682	63.613	-0.196	-0.198
-640.668	800.000	0.128	-0.485
-639.653	-79.502	0.200	-0.068
-638.638	88.650	-0.128	0.143
-637.624	196.017	-0.144	0.221
-636.609	-178.477	0.158	0.004
-635.595	60.999	0.170	0.169
-634.580	190.749	-0.129	-0.195
-633.565	19.625	-0.087	0.070
-632.551	-200.000	-0.007	0.064
-631.536	498.638	0.164	0.380
-630.522	123.511	-0.145	-0.182
-629.507	-40.603	-0.159	0.083
-628.492	-3.553	-0.045	0.031
-627.478	113.286	-0.199	-0.243
-626.463	800.000	-0.085	-0.272
-625.449	-55.987	-0.223	-0.100
-624.434	-10.396	-0.059	0.039
-623.419	-98.731	0.279	-0.071
-622.405	-200.000	-0.001	-0.080
-621.390	-200.000	-0.007	0.091
-620.376	-125.228	-0.250	0.038
-619.361	-62.020	0.179	-0.075
-618.346	174.501	0.126	-0.183
-617.332	-200.000	-0.025	-0.191
-616.317	800.000	-0.064	0.261
-615.303	-67.413	0.412	0.162
-614.288	-86.069	-0.542	-0.168
-613.273	-63.440	-0.450	0.186
-612.259	304.532	0.145	0.270
-611.244	112.380	-0.063	0.077
-610.230	61.851	0.140	0.140
-609.215	5.052	0.289	-0.214
-608.201	-152.845	-0.113	-0.008
-607.186	-112.707	0.178	-0.036
-606.171	-107.659	0.108	0.024
-605.157	-200.000	-0.013	0.409
-604.142	-200.000	0.006	-0.249
-603.128	102.888	0.204	0.240
-602.113	-65.847	-0.230	-0.092
-601.098	-69.063	0.194	-0.075
-600.084	32.085	-0.240	-0.208
-599.069	127.744	-0.180	-0.229
-598.055	19.876	-0.182	-0.147
-597.040	-101.999	0.271	-0.066
-596.025	110.692	-0.128	-0.155
-595.011	65.545	-0.208	-0.211
-593.996	800.000	-0.089	0.258
-592.982	-44.343	-0.151	0.076
-591.967	-200.000	-0.013	0.141
-590.952	147.217	-0.136	-0.184
-589.938	6.313	-0.134	-0.100
-588.923	-17.852	-0.149	-0.094
-587.909	-10.545	-0.078	-0.052
-586.894	97.058	0.083	0.095
-585.879	-200.000	-0.050	0.241
-584.865	-95.187	0.303	-0.082
-583.850	-200.000	-0.046	-0.273
-582.836	-200.000	-0.001	0.094
-581.821	-101.754	0.102	0.025
-580.806	-39.578	-0.029	0.015
-579.792	800.000	0.077	-0.239
-578.777	800.000	-0.005	-0.019
-577.763	253.466	-0.127	-0.217
-576.748	-125.267	-0.176	-0.027
-575.733	23.070	0.123	0.101
-574.719	800.000	0.046	0.134
-573.704	800.000	-0.024	0.082
-572.690	144.248	0.250	-0.334
-571.675	22.602	-0.064	-0.053
-570.661	-200.000	0.013	-0.207
-569.646	-22.313	0.138	-0.084
-568.631	106.982	-0.128	-0.153
-567.617	-52.995	0.060	-0.028
-566.602	196.137	0.084	0.128
-565.588	-180.249	0.142	-0.003
-564.573	109.850	-0.092	-0.111
-563.558	-80.885	-0.157	0.052
-562.544	12.476	0.140	-0.108
-561.529	373.660	0.219	-0.447
-560.515	345.243	0.052	0.102
-559.500	110.911	-0.096	0.116
-558.485	62.552	-0.071	0.071
-557.471	35.387	-0.201	-0.177
-556.456	800.000	-0.062	-0.194
-555.442	332.652	-0.047	0.091
-554.427	-200.000	0.032	0.226
-553.412	-22.581	-0.189	-0.114
-552.398	-31.489	0.212	-0.120
-551.383	87.306	-0.271	0.300
-550.369	501.754	-0.030	-0.069
-549.354	32.230	0.196	0.170
-548.339	140.696	0.098	0.129
-547.325	60.029	-0.051	-0.050
-546.310	34.725	-0.317	-0.277
-545.296	104.982	-0.190	-0.224
-544.281	-200.000	-0.004	0.057
-543.266	-21.282	0.117	-0.072
-542.252	237.220	-0.121	-0.200
-541.237	108.722	0.204	-0.244
-540.223	-200.000	-0.004	-0.042
-539.208	-109.797	0.170	-0.036
-538.193	255.336	0.038	0.065
-537.179	-68.147	-0.040	-0.016
-536.164	363.181	-0.121	0.243
-535.150	-70.781	0.290	-0.109
-534.135	183.364	-0.132	0.195
-533.121	800.000	0.098	0.347
-532.106	-138.205	0.154	0.017
-531.091	-62.647	0.333	-0.138
-530.077	284.954	0.047	0.084
-529.062	-86.593	0.251	-0.077
-528.048	-116.253	0.228	-0.042
-527.033	-77.392	-0.254	-0.088
-526.018	-103.458	-0.323	0.076
-525.004	800.000	-0.101	0.304
-523.989	-176.028	0.227	-0.006
-522.975	-101.783	-0.343	0.083
-521.960	-100.097	0.229	-0.057
-520.945	-188.911	-0.198	-0.002
-519.931	-48.044	0.241	0.117
-518.916	-102.382	0.222	0.053
-517.902	375.738	-0.164	-0.334
-516.887	-113.080	-0.109	0.021
-515.872	6.185	0.139	0.103
-514.858	-200.000	-0.052	0.242
-513.843	107.422	-0.171	0.204
-512.829	-80.416	0.185	0.062
-511.814	-101.537	-0.186	-0.045
-510.799	-20.133	0.067	0.041
-509.785	-200.000	-0.004	-0.117
-508.770	348.365	-0.107	0.211
-507.756	6.090	-0.447	0.331
-506.741	-200.000	0.008	-0.141
-505.726	-59.840	-0.095	-0.041
-504.712	-111.233	0.168	-0.034
-503.697	-74.905	0.392	0.140
-502.683	-92.805	0.246	-0.069
-501.668	-200.000	0.046	-0.444
-500.653	693.751	0.147	0.385
-499.639	-178.544	-0.369	0.009
-498.624	621.846	0.051	0.128
-497.610	-200.000	-0.040	0.235
-496.595	-200.000	-0.013	0.159
-495.581	265.669	0.046	0.081
-494.566	776.711	-0.073	0.199
-493.551	57.618	-0.124	0.121
-492.537	800.000	0.012	-0.038
-491.522	-199.968	-0.281	0.001
-490.508	-90.490	0.023	-0.007
-489.493	-80.367	0.312	-0.104
-488.478	-156.496	-0.460	0.029
-487.464	800.000	-0.041	-0.161
-486.449	800.000	-0.099	-0.319
-485.435	75.759	0.167	0.177
-484.420	-81.960	-0.370	0.121
-483.405	66.187	0.091	0.093
-482.391	-200.000	0.009	0.277
-481.376	21.290	-0.182	0.147
-480.362	-51.104	-0.139	-0.065
-479.347	87.798	-0.151	0.167
-478.332	107.118	0.204	-0.242
-477.318	602.056	-0.057	0.142
-476.303	278.828	0.113	-0.201
-475.289	-30.564	0.086	-0.049
-474.274	-200.000	-0.017	-0.221
-473.259	-53.225	-0.039	-0.018
-472.245	136.407	0.114	0.148
-471.230	-174.664	-0.243	0.007
-470.216	29.575	-0.078	-0.066
-469.201	22.779	-0.070	-0.057
-468.186	800.000	0.028	0.101
-467.172	-144.346	0.471	-0.044
-466.157	54.303	-0.067	-0.064
-465.143	727.551	-0.028	0.075
-464.128	-126.790	0.357	-0.053
-463.113	21.320	0.204	-0.165
-462.099	288.441	0.044	0.080
-461.084	-105.161	0.209	-0.048
-460.070	492.132	0.036	0.081
-459.055	-200.000	-0.043	0.467
-458.040	-85.036	-0.330	0.103
-457.026	-200.000	0.019	-0.088
-456.011	-200.000	0.038	0.214
-454.997	-200.000	0.041	0.188
-453.982	126.374	0.174	-0.220
-452.968	-111.949	0.222	-0.045
-451.953	0.852	0.440	0.314
-450.938	316.753	0.069	0.129
-449.924	-200.000	0.001	0.497
-448.909	19.727	0.054	-0.044
-447.895	-86.155	-0.129	-0.040
-446.880	-122.193	-0.234	0.038
-445.865	741.575	0.145	-0.388
-444.851	101.811	-0.186	-0.216
-443.836	-111.067	-0.236	-0.048
-442.822	-136.555	0.192	-0.022
-441.807	35.894	-0.135	-0.118
-440.792	-114.730	0.063	-0.012
-439.778	40.855	-0.089	0.080
-438.763	-200.000	0.004	0.083
-437.749	-100.409	0.018	-0.004
-436.734	83.140	0.055	-0.060
-435.719	290.349	0.061	0.110
-434.705	800.000	-0.160	0.469
-433.690	-200.000	0.037	-0.340
-432.676	-200.000	0.011	0.092
-431.661	800.000	0.027	-0.082
-430.646	797.625	0.050	-0.137
-429.632	-81.647	0.221	0.072
-428.617	2.973	-0.178	-0.129
-427.603	17.320	0.358	0.283
-426.588	-108.923	-0.184	0.039
-425.573	-35.145	0.181	-0.098
-424.559	330.494	0.081	-0.155
-423.544	-200.000	0.006	0.304
-422.530	251.592	0.053	-0.090
-421.515	-68.473	-0.423	-0.164
-420.500	-67.764	0.129	-0.050
-419.486	-56.796	-0.094	0.041
-418.471	111.567	-0.145	-0.175
-417.457	-29.350	-0.153	0.087
-416.442	270.086	0.075	0.132
-415.428	-94.618	-0.289	-0.078
-414.413	-144.708	0.145	0.013
-413.398	-200.000	0.014	-0.166
-412.384	-72.928	0.153	0.056
-411.369	-31.968	0.135	0.075
-410.355	78.477	-0.131	-0.140
-409.340	-200.000	-0.017	-0.076
-408.325	71.443	0.082	-0.085
-407.311	-200.000	0.035	-0.285
-406.296	-23.447	-0.190	-0.114
-405.282	-160.816	-0.205	0.011
-404.267	-200.000	-0.025	-0.181
-403.252	-200.000	0.012	-0.431
-402.238	41.815	0.057	-0.051
-401.223	-158.807	-0.188	-0.011
-400.209	284.118	0.134	-0.239
-399.194	456.250	0.075	0.166
-398.179	-76.441	-0.319	0.112
-397.165	93.213	-0.192	-0.216
-396.150	224.036	-0.212	0.341
-395.136	327.895	0.061	0.117
-394.121	-112.686	0.214	-0.042
-393.106	-79.964	-0.279	-0.093
-392.092	-42.586	0.223	-0.113
-391.077	4.043	0.106	-0.077
-390.063	273.833	-0.281	0.494
-389.048	-139.947	0.278	0.029
-388.033	800.000	-0.079	-0.283
-387.019	12.888	-0.058	0.044
-386.004	129.584	-0.202	-0.257
-384.990	-144.376	0.271	-0.025
-383.975	36.856	-0.060	0.053
-382.960	800.000	0.021	-0.058
-381.946	52.053	0.241	-0.229
-380.931	-200.000	0.014	-0.466
-379.917	-134.380	0.059	0.007
-378.902	-114.347	0.063	0.012
-377.888	-200.000	-0.017	0.183
-376.873	-200.000	0.029	0.140
-375.858	-196.359	-0.271	0.002
-374.844	-99.471	-0.238	0.060
-373.829	241.906	-0.029	-0.049
-372.815	-55.067	-0.394	0.176
-371.800	195.212	-0.044	-0.067
-370.785	-101.139	0.289	0.070
-369.771	44.044	0.382	-0.348
-368.756	-109.508	-0.475	0.100
-367.742	353.601	-0.086	-0.170
-366.727	31.054	0.112	-0.096
-365.712	1.876	0.059	0.043
-364.698	-66.096	-0.130	0.051
-363.683	309.486	0.015	-0.028
-362.669	87.915	-0.089	0.098
-361.654	-31.343	-0.137	-0.077
-360.639	653.047	-0.017	0.044
-359.625	-28.931	0.429	0.245
-358.610	-103.618	-0.078	-0.018
-357.596	800.000	-0.090	0.329
-356.581	-52.813	-0.070	-0.032
-355.566	479.238	0.036	0.082
-354.552	-95.415	0.140	-0.037
-353.537	800.000	-0.106	0.321
-352.523	-44.387	0.158	0.078
-351.508	24.068	-0.093	-0.076
-350.493	800.000	-0.060	0.170
-349.479	800.000	0.041	0.167
-348.464	-58.640	0.300	-0.129
-347.450	-200.000	0.024	0.117
-346.435	-200.000	0.001	0.144
-345.420	389.912	-0.062	-0.127
-344.406	209.272	-0.024	0.037
-343.391	424.042	-0.043	-0.092
-342.377	460.269	0.125	-0.277
-341.362	470.934	-0.055	0.124
-340.348	-40.671	0.107	-0.055
-339.333	-105.850	-0.191	0.043
-338.318	73.314	0.084	-0.088
-337.304	-200.000	-0.047	0.245
-336.289	142.166	0.179	0.236
-335.275	59.247	0.148	-0.145
-334.260	-200.000	-0.061	0.270
-333.245	68.704	-0.234	-0.238
-332.231	186.758	0.235	0.347
-331.216	800.000	0.046	-0.128
-330.202	475.408	0.071	-0.158
-329.187	-69.137	-0.382	0.146
-328.172	104.476	0.039	-0.045
-327.158	459.608	-0.304	-0.672
-326.143	-160.573	0.064	0.003
-325.129	-200.000	-0.173	-0.001
-324.114	-7.934	-0.066	0.044
-323.099	-86.997	0.137	0.041
-322.085	45.416	0.250	0.229
-321.070	15.017	-0.155	0.120
-320.056	-46.904	-0.131	-0.063
-319.041	-132.878	0.164	-0.021
-318.026	395.762	-0.171	0.354
-317.012	-134.362	-0.237	0.029
-315.997	7.753	0.226	-0.168
-314.983	-124.994	-0.171	0.026
-313.968	-200.000	-0.001	-0.059
-312.953	-64.864	-0.295	-0.118
-311.939	104.989	-0.044	0.051
-310.924	265.899	-0.103	-0.179
-309.910	10.791	0.230	-0.174
-308.895	136.886	-0.160	0.207
-307.880	-126.959	0.083	0.012
-306.866	-113.215	0.217	0.042
-305.851	-6.817	0.151	0.102
-304.837	39.586	0.163	-0.145
-303.822	800.000	0.051	0.199
-302.807	-116.187	-0.201	0.037
-301.793	-162.189	-0.093	-0.005
-300.778	605.864	0.167	0.412
-299.764	800.000	0.157	0.605
-298.749	413.006	0.063	0.132
-297.735	800.000	-0.101	0.281
-296.720	-88.573	-0.071	-0.021
-295.705	-3.294	-0.020	0.014
-294.691	800.000	-0.034	-0.094
-293.676	-200.000	0.008	0.330
-292.662	48.404	0.090	0.083
-291.647	242.984	-0.125	0.208
-290.632	-200.000	0.020	0.294
-289.618	-75.858	-0.049	-0.017
-288.603	-16.228	0.237	-0.149
-287.589	151.416	-0.059	0.080
-286.574	-62.663	-0.170	0.070
-285.559	70.217	-0.122	-0.125
-284.545	315.001	0.178	0.333
-283.530	-117.566	0.347	-0.062
-282.516	-26.116	0.248	-0.144
-281.501	-200.000	0.031	-0.245
-280.486	-15.884	-0.116	0.073
-279.472	-88.735	0.138	0.041
-278.457	-121.464	-0.276	0.045
-277.443	-200.000	0.038	-0.173
-276.428	-200.000	0.015	-0.171
-275.413	-200.000	0.003	-0.193
-274.399	56.028	0.146	-0.141
-273.384	-90.410	-0.103	0.030
-272.370	-29.700	-0.351	-0.199
-271.355	-83.735	0.047	0.015
-270.340	38.354	0.061	0.054
-269.326	675.989	0.091	0.235
-268.311	-146.734	-0.436	-0.037
-267.297	-200.000	0.008	-0.118
-266.282	74.848	-0.103	0.107
-265.267	364.000	0.023	0.046
-264.253	26.417	-0.224	0.186
-263.238	-46.633	0.094	-0.046
-262.224	800.000	0.103	-0.353
-261.209	10.745	-0.244	-0.184
-260.195	166.444	0.102	0.143
-259.180	-143.981	-0.112	-0.010
-258.165	778.326	0.012	-0.032
-257.151	-17.335	0.372	0.232
-256.136	-200.000	-0.010	0.309
-255.122	-151.064	0.316	0.024
-254.107	450.038	0.104	-0.227
-253.092	-38.191	-0.219	0.115
-252.078	-29.403	-0.190	0.108
-251.063	-40.273	0.091	-0.047
-250.049	800.000	0.059	-0.245
-249.034	-40.499	0.171	0.088
-248.019	-65.643	-0.146	-0.058
-247.005	-69.860	0.233	0.088
-245.990	800.000	-0.057	0.218
-244.976	173.191	0.195	0.278
-243.961	-200.000	-0.025	-0.182
-242.946	21.192	-0.102	0.082
-241.932	800.000	-0.061	0.204
-240.917	-200.000	0.043	-0.212
-239.903	-200.000	-0.057	0.279
-238.888	49.971	-0.095	0.089
-237.873	677.418	0.080	0.207
-236.859	205.979	-0.212	-0.327
-235.844	-66.442	0.195	0.076
-234.830	-200.000	-0.033	0.327
-233.815	-134.020	0.248	0.030
-232.800	85.075	0.167	-0.181
-231.786	274.477	0.057	0.099
-230.771	-102.425	0.222	0.052
-229.757	-131.935	0.364	-0.047
-228.742	62.542	0.220	-0.217
-227.727	-82.834	0.288	-0.092
-226.713	-102.630	-0.089	0.021
-225.698	-116.668	-0.278	-0.051
-224.684	-200.000	-0.036	-0.206
-223.669	43.524	-0.140	0.126
-222.655	38.534	0.292	-0.258
-221.640	-200.000	-0.005	-0.269
-220.625	85.421	-0.139	0.151
-219.611	-120.822	0.412	-0.069
-218.596	-51.828	-0.140	0.064
-217.582	-24.831	-0.228	0.134
-216.567	-200.000	-0.002	0.026
-215.552	524.273	-0.066	-0.153
-214.538	-76.207	-0.110	0.038
-213.523	-119.865	0.505	-0.086
-212.509	-6.279	-0.153	0.103
-211.494	74.010	-0.123	0.127
-210.479	-122.064	0.303	0.049
-209.465	-56.518	0.321	0.141
-208.450	-52.984	-0.108	-0.049
-207.436	-145.697	0.122	-0.011
-206.421	-100.864	0.431	-0.105
-205.406	119.661	0.107	0.131
-204.392	800.000	-0.051	0.152
-203.377	-95.450	0.197	-0.052
-202.363	127.213	0.172	-0.216
-201.348	-127.029	0.306	0.044
-200.333	94.558	0.019	-0.022
-199.319	-29.865	-0.170	-0.096
-198.304	-167.058	0.159	-0.006
-197.290	793.741	-0.075	-0.205
-196.275	-98.953	0.154	-0.039
-195.260	-200.000	-0.047	0.213
-194.246	266.665	-0.153	-0.263
-193.231	-59.267	-0.196	-0.083
-192.217	-137.768	-0.186	-0.021
-191.202	69.657	-0.203	-0.207
-190.187	-200.000	0.000	-0.105
-189.173	-16.172	0.313	-0.196
-188.158	121.523	0.034	-0.041
-187.144	120.774	-0.156	-0.191
-186.129	16.054	0.044	0.034
-185.114	465.916	-0.043	-0.096
-184.100	-38.542	-0.190	-0.099
-183.085	-102.420	-0.092	-0.022
-182.071	-69.523	-0.116	0.044
-181.056	-147.745	-0.266	-0.022
-180.042	-200.000	-0.014	-0.158
-179.027	464.259	0.023	0.052
-178.012	-200.000	-0.055	-0.271
-176.998	67.170	-0.114	-0.114
-175.983	32.134	-0.167	0.142
-174.969	-30.148	-0.049	-0.027
-173.954	70.172	-0.230	0.234
-172.939	800.000	-0.118	-0.478
-171.925	323.395	0.151	-0.285
-170.910	23.624	0.028	0.023
-169.896	34.680	0.227	0.196
-168.881	726.384	0.011	0.030
-167.866	-89.541	-0.278	0.080
-166.852	-133.626	0.206	0.025
-165.837	329.408	0.150	0.284
-164.823	-83.973	0.266	-0.084
-163.808	-193.079	0.087	-0.001
-162.793	-43.150	0.349	0.174
-161.779	62.235	-0.222	0.219
-160.764	-200.000	-0.011	0.106
-159.750	-200.000	-0.019	0.257
-158.735	567.528	-0.043	0.103
-157.720	559.447	-0.040	-0.096
-156.706	263.159	0.146	0.250
-155.691	-123.193	-0.295	-0.047
-154.677	-61.825	0.411	-0.170
-153.662	-46.244	-0.232	0.112
-152.647	-50.865	-0.077	0.036
-151.633	-89.941	-0.123	0.035
-150.618	-103.654	0.227	-0.053
-149.604	58.543	0.215	0.208
-148.589	800.000	0.071	-0.207
-147.574	-73.437	0.296	0.107
-146.560	-200.000	0.034	-0.276
-145.545	555.148	-0.067	-0.159
-144.531	-106.485	0.301	-0.066
-143.516	260.316	-0.198	0.337
-142.502	-68.623	-0.203	-0.077
-141.487	-36.973	0.073	0.038
-140.472	239.433	-0.113	-0.185
-139.458	-200.000	-0.006	-0.087
-138.443	50.751	0.158	0.147
-137.429	-57.401	0.154	0.067
-136.414	-112.141	-0.280	0.055
-135.399	304.209	0.077	-0.140
-134.385	-129.980	-0.080	0.011
-133.370	253.459	0.067	0.113
-132.356	42.786	0.058	-0.052
-131.341	-161.486	0.090	0.005
-130.326	-28.490	-0.106	0.060
-129.312	7.695	-0.064	-0.047
-128.297	-200.000	-0.001	-0.154
-127.283	-80.033	0.279	-0.092
-126.268	182.431	-0.174	-0.252
-125.253	34.258	0.277	-0.238
-124.239	-200.000	-0.047	-0.225
-123.224	-77.183	0.208	0.071
-122.210	545.306	-0.135	0.318
-121.195	-125.454	0.308	-0.046
-120.180	-200.000	-0.004	0.044
-119.166	55.823	-0.191	-0.182
-118.151	-5.526	0.206	0.139
-117.137	202.156	0.064	-0.098
-116.122	106.497	-0.219	-0.255
-115.107	92.276	0.058	-0.065
-114.093	93.583	-0.092	0.103
-113.078	-53.408	-0.085	-0.038
-112.064	-200.000	-0.036	0.182
-111.049	-51.774	0.192	-0.088
-110.034	92.599	0.047	-0.052
-109.020	-140.044	-0.076	-0.008
-108.005	-131.949	0.104	-0.013
-106.991	284.985	-0.144	0.256
-105.976	-114.649	-0.094	0.018
-104.962	24.491	0.119	-0.097
-103.947	-36.019	0.151	0.080
-102.932	45.675	0.077	0.070
-101.918	-33.222	0.099	0.054
-100.903	800.000	0.023	0.093
-99.889	-75.733	0.154	-0.054
-98.874	428.480	-0.025	0.053
-97.859	-200.000	0.006	-0.036
-96.845	-43.260	0.245	0.122
-95.830	68.303	-0.046	0.047
-94.816	-95.354	0.186	0.049
-93.801	93.324	0.181	0.201
-92.786	23.737	-0.245	0.199
-91.772	-14.638	0.217	-0.137
-90.757	301.448	-0.139	0.253
-89.743	-12.664	0.242	0.155
-88.728	800.000	0.029	-0.123
-87.713	41.081	-0.237	-0.210
-86.699	800.000	-0.095	0.268
-85.684	-84.307	-0.098	0.030
-84.670	-63.823	0.072	0.029
-83.655	800.000	0.081	0.222
-82.640	30.524	0.219	0.184
-81.626	-200.000	-0.066	0.340
-80.611	36.087	0.069	-0.060
-79.597	349.379	-0.099	-0.192
-78.582	371.037	-0.058	-0.116
-77.567	800.000	-0.038	-0.143
-76.553	180.961	0.177	-0.256
-75.538	800.000	-0.063	0.199
-74.524	151.108	0.138	-0.185
-73.509	322.359	0.110	-0.206
-72.494	-140.446	-0.454	-0.046
-71.480	-6.812	0.314	0.210
-70.465	-110.433	0.456	0.093
-69.451	-160.564	0.273	0.014
-68.436	13.483	0.091	0.069
-67.422	70.856	0.168	-0.170
-66.407	50.871	0.366	-0.341
-65.392	-44.211	0.326	0.161
-64.378	-200.000	-0.029	0.141
-63.363	88.583	0.137	0.149
-62.349	69.887	0.114	-0.116
-61.334	54.940	-1.044	-0.991
-60.319	239.631	0.304	0.497
-59.305	-200.000	-0.198	-1.046
-58.290	105.335	0.646	0.750
-57.276	800.000	0.488	1.378
-56.261	-200.000	102.409	593.129
-55.246	561.398	1425.918	3385.295
-54.232	187.900	2620.968	3843.734
-53.217	110.256	2279.088	2687.678
-52.203	40.077	1896.519	1673.480
-51.188	34.007	1685.339	1441.246
-50.173	31.454	1641.755	1385.033
-49.159	49.302	1692.091	1562.136
-48.144	50.809	1708.730	1588.768
-47.130	33.601	1667.427	1422.652
-46.115	31.047	1652.308	1390.682
-45.100	30.816	1647.737	1385.060
-44.086	30.648	1645.723	1382.063
-43.071	30.721	1642.699	1380.014
-42.057	30.648	1640.747	1377.776
-41.042	30.723	1638.781	1376.629
-40.027	30.765	1636.364	1374.856
-39.013	30.664	1634.635	1372.597
-37.998	30.686	1633.019	1371.352
-36.984	30.678	1632.165	1370.519
-35.969	30.869	1630.426	1370.410
-34.954	30.874	1628.748	1368.982
-33.940	30.761	1626.967	1366.604
-32.925	30.750	1626.148	1365.776
-31.911	30.864	1623.379	1364.236
-30.896	30.888	1621.791	1363.024
-29.881	30.717	1620.710	1360.807
-28.867	30.748	1619.065	1359.601
-27.852	30.679	1617.700	1357.898
-26.838	30.763	1615.994	1357.025
-25.823	30.869	1614.300	1356.316
-24.809	30.865	1613.068	1355.200
-23.794	30.857	1611.648	1353.898
-22.779	30.794	1610.338	1352.285
-21.765	30.851	1608.311	1350.940
-20.750	30.830	1606.658	1349.348
-19.736	30.917	1605.341	1348.816
-18.721	30.805	1603.965	1346.796
-17.706	30.814	1602.490	1345.571
-16.692	30.792	1601.140	1344.222
-15.677	30.847	1599.645	1343.315
-14.663	30.941	1598.288	1342.794
-13.648	30.775	1597.020	1340.481
-12.633	30.842	1595.805	1339.890
-11.619	30.828	1594.131	1338.334
-10.604	30.840	1592.446	1336.952
-9.590	30.827	1591.714	1336.193
-8.575	30.919	1590.159	1335.491
-7.560	30.898	1588.965	1334.283
-6.546	30.940	1587.417	1333.233
-5.531	30.870	1586.470	1331.882
-4.517	30.876	1585.930	1331.424
-3.502	30.883	1584.190	1329.959
-2.487	30.852	1582.704	1328.439
-1.473	30.621	1570.714	1316.685
-0.458	27.769	1551.699	1280.713
0.556	23.559	1551.974	1249.416
1.571	21.144	1576.362	1251.640
2.586	20.690	1589.146	1258.396
3.600	18.385	1536.392	1200.379
4.615	11.375	1428.991	1070.524
5.629	5.613	1368.647	988.929
6.644	4.796	1361.731	978.707
7.659	4.664	1360.068	976.598
8.673	4.726	1358.893	976.058
9.688	4.674	1357.265	974.473
10.702	4.595	1354.343	971.799
11.717	7.313	1359.631	992.544
12.731	14.094	1372.298	1044.425
13.746	18.765	1378.769	1078.668
14.761	18.764	1377.470	1077.550
15.775	17.766	1374.871	1069.164
16.790	16.769	1372.407	1060.916
17.804	15.777	1370.450	1053.100
18.819	15.483	1368.309	1049.527
19.834	15.180	1367.407	1046.850
20.848	14.940	1366.490	1044.550
21.863	14.646	1365.778	1042.085
22.877	14.603	1364.000	1040.368
23.892	14.585	1362.795	1039.242
24.907	14.593	1362.076	1038.649
25.921	14.642	1361.054	1038.086
26.936	14.547	1360.807	1037.216
27.950	14.627	1359.907	1036.932
28.965	14.662	1358.679	1036.123
29.980	14.795	1357.410	1035.886
30.994	14.877	1356.262	1035.428
32.009	14.834	1355.520	1034.501
33.023	14.845	1354.320	1033.567
34.038	14.788	1352.976	1032.097
35.053	14.704	1351.564	1030.411
36.067	14.737	1350.328	1029.578
37.082	14.829	1349.065	1029.089
38.096	14.847	1348.670	1028.810
39.111	14.745	1347.508	1027.202
40.126	14.764	1346.911	1026.773
41.140	14.503	1346.353	1024.654
42.155	14.494	1345.439	1023.817
43.169	14.535	1345.325	1023.887
44.184	14.550	1344.730	1023.439
45.199	14.554	1344.112	1022.900
46.213	14.554	1343.728	1022.517
47.228	14.623	1342.910	1022.226
48.242	14.716	1341.733	1021.807
49.257	14.633	1340.750	1020.462
50.271	14.703	1339.132	1019.572
51.286	14.746	1337.674	1018.632
52.301	14.590	1337.048	1017.112
53.315	14.590	1335.523	1015.863
54.330	14.532	1334.306	1014.494
55.344	14.447	1333.659	1013.400
56.359	14.552	1332.015	1012.695
57.374	14.527	1331.196	1011.834
58.388	14.586	1330.219	1011.355
59.403	14.420	1329.928	1010.042
60.417	14.512	1328.831	1009.678
61.432	14.396	1328.311	1008.490
62.447	14.393	1327.292	1007.606
63.461	14.319	1325.944	1006.047
64.476	14.307	1325.409	1005.479
65.490	14.368	1324.246	1004.880
66.505	14.266	1322.207	1002.624
67.520	14.435	1320.997	1002.635
68.534	14.369	1320.398	1001.697
69.549	14.392	1319.027	1000.706
70.563	14.410	1318.014	999.955
71.578	14.324	1317.063	998.634
72.593	14.267	1316.092	997.465
73.607	14.295	1314.938	996.671
74.622	14.245	1314.547	995.988
75.636	14.303	1313.615	995.541
76.651	14.363	1312.848	995.228
77.666	14.288	1312.719	994.592
78.680	14.357	1312.440	994.705
79.695	14.309	1311.817	993.861
80.709	14.354	1310.913	993.357
81.724	14.480	1310.156	993.446
82.739	14.642	1308.936	993.395
83.753	14.559	1308.424	992.429
84.768	14.659	1307.448	992.193
85.782	14.822	1305.900	991.900
86.797	14.783	1305.055	990.936
87.812	14.621	1303.771	988.915
88.826	14.633	1302.824	988.179
89.841	14.591	1302.201	987.371
90.855	14.675	1300.891	986.784
91.870	14.707	1300.347	986.474
92.884	14.843	1299.014	986.180
93.899	14.780	1298.229	985.125
94.914	14.754	1297.443	984.287
95.928	14.782	1296.874	983.935
96.943	14.781	1295.825	983.045
97.957	14.703	1294.808	981.731
98.972	14.780	1293.642	981.209
99.987	14.716	1293.015	980.270
101.001	14.803	1291.769	979.752
102.016	14.819	1290.612	978.879
103.030	14.818	1290.152	978.438
104.045	14.809	1288.998	977.422
105.060	14.794	1287.224	975.908
106.074	14.560	1286.195	973.672
107.089	14.497	1284.854	972.205
108.103	14.478	1283.523	971.001
109.118	14.498	1282.377	970.166
110.133	14.438	1281.140	968.792
111.147	14.385	1280.306	967.771
112.162	14.458	1278.684	966.880
113.176	14.495	1277.579	966.174
114.191	14.531	1276.664	965.603
115.206	14.535	1275.663	964.788
116.220	14.538	1274.278	963.669
117.235	14.487	1273.386	962.619
118.249	14.569	1271.981	961.942
119.264	14.464	1271.135	960.610
120.279	14.491	1270.243	960.006
121.293	14.532	1268.475	958.822
122.308	14.449	1268.108	957.986
123.322	14.428	1266.989	956.931
124.337	14.382	1265.837	955.714
125.352	14.382	1264.824	954.867
126.366	14.416	1263.689	954.119
127.381	14.482	1262.696	953.665
128.395	14.553	1261.805	953.310
129.410	14.400	1261.133	951.843
130.424	14.490	1259.826	951.288
131.439	14.588	1258.807	950.991
132.454	14.557	1257.891	950.037
133.468	14.542	1257.179	949.332
134.483	14.578	1256.575	948.996
135.497	14.601	1255.728	948.406
136.512	14.485	1254.340	946.615
137.527	14.719	1252.468	946.444
138.541	14.711	1250.958	945.175
139.556	14.571	1250.969	944.304
140.570	14.700	1249.448	943.803
141.585	14.803	1248.376	943.493
142.600	14.818	1246.693	942.221
143.614	14.831	1246.203	941.840
144.629	14.888	1244.862	941.063
145.643	14.904	1243.861	940.314
146.658	14.865	1242.324	938.853
147.673	14.785	1240.951	937.278
148.687	14.598	1240.447	935.770
149.702	14.709	1238.811	935.075
150.716	14.688	1237.602	933.958
151.731	14.616	1236.823	932.885
152.746	14.682	1235.306	932.030
153.760	14.800	1233.967	931.597
154.775	14.800	1233.441	931.113
155.789	14.730	1232.643	930.039
156.804	14.775	1231.473	929.324
157.819	14.904	1230.457	929.195
158.833	14.911	1229.577	928.486
159.848	15.013	1228.250	927.968
160.862	14.949	1227.712	927.126
161.877	14.858	1226.546	925.659
162.892	14.752	1225.227	923.992
163.906	14.749	1224.611	923.431
164.921	14.658	1223.878	922.293
165.935	14.677	1222.832	921.527
166.950	14.765	1221.588	920.992
167.964	14.906	1220.974	921.225
168.979	14.847	1219.993	920.081
169.994	14.797	1219.666	919.480
171.008	14.793	1218.968	918.849
172.023	14.866	1217.903	918.367
173.037	14.998	1217.501	918.707
174.052	14.907	1216.605	917.448
175.067	14.924	1215.316	916.489
176.081	14.833	1214.230	915.091
177.096	14.678	1213.418	913.550
178.110	14.809	1212.586	913.558
179.125	14.925	1211.175	913.050
180.140	14.900	1209.934	911.897
181.154	14.906	1208.725	910.936
182.169	14.996	1207.532	910.448
183.183	15.053	1206.684	910.035
184.198	15.086	1205.249	909.050
185.213	15.146	1204.245	908.538
186.227	15.019	1203.538	907.239
187.242	15.138	1202.412	906.951
188.256	15.176	1201.439	906.343
189.271	15.227	1200.530	905.857
190.286	15.138	1199.197	904.289
191.300	14.769	1198.836	901.946
192.315	14.713	1198.498	901.308
193.329	14.741	1197.685	900.767
194.344	14.845	1196.828	900.603
195.359	14.985	1195.988	900.644
196.373	15.058	1195.796	900.815
197.388	15.164	1195.303	900.933
198.402	15.362	1194.638	901.417
199.417	15.323	1194.421	900.965
200.432	15.288	1193.651	900.116
201.446	15.412	1192.392	899.750
202.461	15.386	1191.884	899.151
203.475	15.498	1190.539	898.653
204.490	15.483	1188.952	897.295
205.504	15.343	1187.837	895.626
206.519	15.313	1186.836	894.635
207.534	15.388	1185.637	894.052
208.548	15.364	1185.050	893.403
209.563	15.220	1184.806	892.369
210.577	15.325	1183.250	891.681
211.592	15.485	1182.291	891.727
212.607	15.434	1181.962	891.131
213.621	15.461	1180.847	890.352
214.636	15.442	1179.866	889.432
215.650	15.579	1178.925	889.372
216.665	15.569	1177.944	888.499
217.680	15.614	1177.448	888.286
218.694	15.523	1176.630	887.108
219.709	15.597	1175.754	886.760
220.723	15.524	1175.343	885.987
221.738	15.622	1173.981	885.397
222.753	15.631	1173.647	885.117
223.767	15.608	1173.238	884.605
224.782	15.663	1172.595	884.335
225.796	15.647	1171.904	883.651
226.811	15.757	1171.204	883.619
227.826	15.658	1170.126	882.208
228.840	15.638	1169.683	881.696
229.855	15.644	1169.051	881.170
230.869	15.692	1168.025	880.571
231.884	15.717	1167.080	879.909
232.899	15.627	1166.121	878.641
233.913	15.637	1165.505	878.152
234.928	15.609	1164.836	877.420
235.942	15.528	1164.314	876.529
236.957	15.581	1163.555	876.157
237.972	15.528	1162.695	875.156
238.986	15.582	1161.986	874.825
240.001	15.608	1161.274	874.345
241.015	15.673	1160.176	873.778
242.030	15.767	1159.536	873.711
243.045	15.776	1159.081	873.337
244.059	15.873	1158.113	873.032
245.074	15.787	1157.306	871.904
246.088	15.828	1156.810	871.663
247.103	15.842	1155.723	870.837
248.117	15.900	1155.081	870.579
249.132	15.987	1154.596	870.586
250.147	16.180	1153.962	871.027
251.161	16.154	1153.711	870.628
252.176	16.139	1152.724	869.724
253.190	16.339	1151.622	869.851
254.205	16.363	1151.193	869.574
255.220	16.241	1150.896	868.640
256.234	16.295	1150.210	868.326
257.249	16.342	1149.233	867.754
258.263	16.292	1148.765	867.067
259.278	16.282	1148.449	866.699
260.293	16.370	1147.486	866.344
261.307	16.290	1147.372	865.772
262.322	16.495	1145.822	865.575
263.336	16.486	1145.029	864.854
264.351	16.444	1145.015	864.551
265.366	16.340	1144.635	863.656
266.380	16.386	1143.831	863.208
267.395	16.417	1142.704	862.441
268.409	16.438	1141.593	861.635
269.424	16.405	1140.902	860.866
270.439	16.377	1141.042	860.756
271.453	16.394	1139.992	859.975
272.468	16.194	1139.430	858.453
273.482	16.253	1138.512	857.987
274.497	16.400	1137.529	857.918
275.512	16.411	1137.075	857.555
276.526	16.429	1136.012	856.767
277.541	16.335	1135.535	855.858
278.555	16.423	1134.485	855.436
279.570	16.538	1134.122	855.668
280.585	16.658	1133.197	855.501
281.599	16.561	1132.335	854.284
282.614	16.558	1131.446	853.525
283.628	16.492	1129.909	851.954
284.643	16.555	1129.239	851.693
285.657	16.515	1128.981	851.219
286.672	16.451	1127.613	849.794
287.687	16.504	1126.941	849.478
288.701	16.663	1126.092	849.558
289.716	16.645	1125.303	848.800
290.730	16.654	1124.651	848.279
291.745	16.600	1123.787	847.282
292.760	16.535	1123.300	846.514
293.774	16.736	1122.934	847.169
294.789	16.852	1122.304	847.198
295.803	16.850	1121.394	846.423
296.818	16.746	1120.737	845.337
297.833	16.789	1120.258	845.112
298.847	16.699	1119.663	844.142
299.862	16.662	1118.697	843.157
300.876	16.773	1117.475	842.710
301.891	16.791	1117.119	842.457
302.906	16.914	1116.284	842.362
303.920	16.898	1115.999	841.997
304.935	16.916	1115.247	841.441
305.949	17.023	1114.609	841.419
306.964	17.023	1114.043	840.917
307.979	16.920	1113.102	839.623
308.993	16.908	1112.592	839.104
310.008	16.957	1111.828	838.692
311.022	17.127	1110.608	838.538
312.037	17.036	1109.876	837.462
313.052	16.998	1109.142	836.649
314.066	16.920	1107.977	835.312
315.081	16.876	1107.294	834.505
316.095	16.921	1106.590	834.121
317.110	16.975	1105.750	833.680
318.125	16.984	1105.218	833.250
319.139	16.818	1104.940	832.153
320.154	16.958	1103.992	832.050
321.168	16.898	1103.308	831.170
322.183	16.987	1102.755	831.115
323.197	17.017	1102.425	830.937
324.212	16.945	1101.705	829.972
325.227	17.016	1101.068	829.762
326.241	17.044	1100.683	829.539
327.256	17.030	1099.459	828.475
328.270	16.963	1098.565	827.398
329.285	17.004	1097.692	826.870
330.300	17.057	1096.903	826.457
331.314	16.969	1095.766	825.099
332.329	17.054	1094.907	824.796
333.343	16.990	1094.281	823.942
334.358	17.188	1093.400	824.162
335.373	17.141	1092.486	823.173
336.387	17.177	1091.765	822.731
337.402	17.256	1091.128	822.562
338.416	17.344	1090.384	822.352
339.431	17.365	1089.941	822.048
340.446	17.395	1089.712	821.949
341.460	17.524	1088.484	821.570
342.475	17.521	1087.589	820.808
343.489	17.552	1087.061	820.487
344.504	17.493	1086.040	819.360
345.519	17.436	1085.501	818.605
346.533	17.559	1084.701	818.524
347.548	17.594	1084.011	818.098
348.562	17.517	1083.246	817.079
349.577	17.474	1082.610	816.319
350.592	17.423	1081.570	815.216
351.606	17.400	1080.925	814.552
352.621	17.230	1080.618	813.435
353.635	17.342	1079.992	813.426
354.650	17.333	1079.130	812.659
355.665	17.479	1077.644	812.166
356.679	17.454	1077.142	811.596
357.694	17.485	1077.146	811.678
358.708	17.575	1076.269	811.373
359.723	17.595	1075.413	810.752
360.738	17.657	1074.733	810.460
361.752	17.633	1074.449	810.062
362.767	17.638	1073.392	809.217
363.781	17.707	1073.262	809.372
364.796	17.642	1072.256	808.235
365.810	17.834	1071.881	808.790
366.825	17.754	1071.603	808.130
367.840	17.889	1070.833	808.116
368.854	18.009	1070.553	808.402
369.869	17.902	1069.870	807.311
370.883	18.016	1068.486	806.731
371.898	17.735	1067.830	804.842
372.913	17.911	1067.519	805.364
373.927	17.946	1066.770	804.895
374.942	17.859	1066.463	804.180
375.956	17.955	1065.775	804.042
376.971	17.909	1065.221	803.337
377.986	17.965	1065.076	803.421
379.000	18.144	1064.026	803.397
380.015	18.135	1064.058	803.308
381.029	18.100	1063.133	802.372
382.044	18.229	1061.928	802.000
383.059	17.988	1061.834	800.726
384.073	18.131	1060.841	800.578
385.088	18.141	1059.652	799.655
386.102	18.169	1058.793	799.068
387.117	18.015	1057.739	797.482
388.132	18.042	1056.657	796.723
389.146	18.051	1056.081	796.260
390.161	17.953	1055.820	795.535
391.175	18.217	1054.557	795.742
392.190	18.060	1054.396	794.821
393.205	18.069	1053.985	794.482
394.219	18.233	1052.597	794.126
395.234	18.240	1051.588	793.326
396.248	18.162	1050.649	792.187
397.263	18.071	1049.556	790.872
398.278	18.157	1048.976	790.761
399.292	18.157	1048.278	790.166
400.307	17.995	1047.917	789.076
401.321	18.167	1046.939	789.066
402.336	18.184	1046.123	788.459
403.350	18.026	1045.895	787.490
404.365	18.121	1045.020	787.198
405.380	18.170	1044.326	786.829
406.394	18.168	1043.852	786.392
407.409	18.291	1042.976	786.229
408.423	18.364	1042.197	785.909
409.438	18.429	1041.770	785.814
410.453	18.451	1040.631	784.987
411.467	18.470	1040.101	784.605
412.482	18.410	1039.725	783.975
413.496	18.557	1039.192	784.179
414.511	18.464	1038.554	783.203
415.526	18.677	1037.672	783.439
416.540	18.689	1037.256	783.110
417.555	18.678	1036.778	782.631
418.569	18.651	1036.332	782.100
419.584	18.653	1035.971	781.770
420.599	18.614	1035.250	780.979
421.613	150.603	1402.255	1796.585
422.628	137.527	1455.709	1796.654
