DTS Sentinel unit serial number:	SN413079Multiplexer serial number:	ORYXHardware model number:	OX4-SRSoftware version number:	ORYX F/W v4.00 Oryx Data Collector v3.7.2.0data status	okinstallation	princeton_trtdifferential loss correction	single-endedforward channel	channel 2reverse channel	N/Adate	2019/09/15time	17:15:35forward acquisition time	60.00reverse acquisition time	0.00gamma	496.2192k internal	0.2284k external	0.2284temperature offset calibration	0.9928default loss term (dB/km)	0.3790temperature slope calibration	1.0000multiplexer offset coefficient	1.0000multiplexer slope coefficient	1.0000fibre end	0.00T internal ref (°C)	44.69T ext. ref 1 (°C)	6.02T ext. ref 2 (°C)	40.24length (m)	temperature (°C)	Stokes	anti-Stokes-747.200	240.297	-0.040	0.068
-746.185	-200.000	-0.055	0.466
-745.171	-129.723	-0.142	-0.020
-744.156	227.924	0.207	0.346
-743.142	243.675	-0.036	-0.063
-742.127	-44.057	-0.299	0.154
-741.112	-92.404	-0.190	-0.055
-740.098	-200.000	-0.013	0.094
-739.083	36.798	0.166	0.151
-738.069	800.000	0.089	0.263
-737.054	633.100	-0.064	-0.166
-736.039	-200.000	0.018	0.122
-735.025	-19.437	0.118	0.075
-734.010	-45.651	-0.257	-0.131
-732.996	-32.951	-0.297	-0.169
-731.981	112.304	0.051	-0.063
-730.966	-200.000	-0.059	0.294
-729.952	-200.000	0.042	0.255
-728.937	162.355	0.143	-0.206
-727.923	663.758	-0.045	-0.119
-726.908	-200.000	0.043	0.275
-725.894	-200.000	0.037	0.291
-724.879	106.769	-0.140	0.171
-723.864	33.522	0.124	-0.111
-722.850	800.000	-0.041	-0.141
-721.835	-51.381	0.159	0.076
-720.821	31.697	0.228	-0.201
-719.806	-14.084	0.048	-0.032
-718.791	-51.387	-0.085	0.041
-717.777	-77.670	-0.212	-0.075
-716.762	65.533	-0.228	-0.237
-715.748	17.637	0.195	-0.159
-714.733	-200.000	0.031	0.216
-713.718	-200.000	-0.000	-0.108
-712.704	-130.201	0.341	0.048
-711.689	-192.399	-0.490	-0.005
-710.675	-200.000	0.071	0.348
-709.660	97.294	-0.315	0.371
-708.645	331.415	-0.111	-0.220
-707.631	-65.991	-0.339	-0.139
-706.616	33.911	-0.147	0.131
-705.602	250.261	0.131	0.228
-704.587	-149.639	0.244	-0.020
-703.572	538.305	0.057	0.139
-702.558	800.000	-0.064	0.263
-701.543	-85.739	0.227	-0.072
-700.529	-200.000	-0.015	-0.143
-699.514	1.454	0.167	0.123
-698.499	-59.242	-0.143	-0.063
-697.485	439.067	0.136	-0.303
-696.470	-200.000	0.005	-0.071
-695.456	-70.344	0.179	0.070
-694.441	197.532	0.166	-0.260
-693.426	85.289	0.202	0.227
-692.412	55.754	-0.215	-0.214
-691.397	-100.808	0.322	0.081
-690.383	-135.560	0.310	-0.038
-689.368	695.756	0.067	-0.179
-688.354	77.180	-0.172	-0.187
-687.339	-200.000	0.047	0.221
-686.324	800.000	0.017	-0.074
-685.310	-96.094	0.136	0.037
-684.295	-200.000	0.029	-0.184
-683.281	-93.735	-0.151	0.043
-682.266	436.881	0.092	0.205
-681.251	96.309	0.159	-0.187
-680.237	-200.000	0.005	0.247
-679.222	-200.000	-0.011	-0.144
-678.208	493.891	-0.109	-0.257
-677.193	58.411	-0.273	-0.274
-676.178	102.579	0.133	0.160
-675.164	-8.453	0.178	0.122
-674.149	329.071	-0.055	-0.108
-673.135	800.000	0.012	-0.040
-672.120	-122.632	-0.279	-0.046
-671.105	38.974	-0.096	-0.088
-670.091	340.834	0.133	-0.265
-669.076	27.047	-0.362	-0.311
-668.062	-102.808	-0.339	-0.083
-667.047	-66.184	0.050	-0.020
-666.032	22.951	-0.070	0.059
-665.018	-56.816	-0.279	-0.126
-664.003	120.677	0.065	0.082
-662.989	-73.112	0.267	0.100
-661.974	-124.340	-0.178	0.028
-660.959	87.867	0.209	-0.237
-659.945	-152.346	0.039	0.003
-658.930	290.387	0.021	-0.039
-657.916	-200.000	-0.004	0.083
-656.901	-17.022	-0.316	0.204
-655.886	800.000	0.011	-0.048
-654.872	-64.490	-0.196	0.082
-653.857	728.760	0.083	0.228
-652.843	-200.000	-0.010	-0.173
-651.828	-118.653	0.085	-0.015
-650.814	-200.000	-0.029	0.188
-649.799	-162.901	-0.276	0.014
-648.784	-192.870	-0.230	-0.002
-647.770	-117.730	0.335	-0.062
-646.755	539.945	0.104	-0.253
-645.741	-200.000	-0.011	-0.163
-644.726	-143.863	0.321	-0.031
-643.711	79.921	0.128	-0.141
-642.697	98.658	-0.302	-0.357
-641.682	800.000	-0.128	-0.438
-640.668	-200.000	0.268	-0.000
-639.653	87.015	0.052	-0.059
-638.638	800.000	-0.027	0.111
-637.624	-111.942	0.270	0.056
-636.609	375.616	-0.150	-0.313
-635.595	27.422	0.130	0.111
-634.580	-200.000	0.014	-0.089
-633.565	194.702	0.174	0.270
-632.551	-65.329	-0.251	-0.103
-631.536	150.393	-0.127	-0.176
-630.522	49.729	-0.227	-0.219
-629.507	492.433	0.056	0.130
-628.492	-49.436	-0.105	0.051
-627.478	-34.757	-0.094	-0.053
-626.463	237.922	0.049	0.084
-625.449	298.356	0.181	0.341
-624.434	-50.318	-0.231	-0.112
-623.419	-55.422	0.086	0.039
-622.405	-93.713	0.222	-0.062
-621.390	800.000	0.023	-0.074
-620.376	26.602	-0.015	-0.013
-619.361	134.364	0.029	-0.038
-618.346	-8.448	0.209	0.143
-617.332	-200.000	0.012	0.230
-616.317	-60.417	0.263	0.114
-615.303	-155.937	-0.390	-0.025
-614.288	-10.331	-0.063	-0.043
-613.273	313.799	-0.085	0.164
-612.259	174.747	-0.036	0.054
-611.244	99.990	0.052	-0.062
-610.230	-124.918	0.226	-0.036
-609.215	49.926	-0.200	-0.193
-608.201	-52.204	-0.246	0.116
-607.186	-25.464	0.017	0.010
-606.171	-176.653	0.186	-0.005
-605.157	-130.182	-0.268	-0.037
-604.142	-6.187	-0.098	0.068
-603.128	-134.634	-0.429	0.053
-602.113	638.586	-0.115	0.298
-601.098	-200.000	-0.008	0.208
-600.084	318.624	0.083	-0.161
-599.069	612.477	-0.068	0.174
-598.055	-72.264	-0.086	-0.033
-597.040	-200.000	-0.041	-0.253
-596.025	-160.941	-0.096	-0.005
-595.011	-54.034	-0.384	0.178
-593.996	332.202	0.072	-0.143
-592.982	20.050	0.127	-0.105
-591.967	168.762	-0.162	-0.236
-590.952	421.211	-0.109	0.238
-589.938	-200.000	-0.040	0.465
-588.923	181.901	-0.138	0.207
-587.909	-108.159	-0.163	-0.036
-586.894	154.336	0.073	-0.102
-585.879	-105.541	0.054	-0.013
-584.865	800.000	-0.032	-0.136
-583.850	115.794	0.185	-0.231
-582.836	119.611	-0.208	-0.263
-581.821	85.167	0.245	-0.274
-580.806	264.232	-0.066	0.118
-579.792	395.955	-0.113	-0.241
-578.777	-200.000	-0.013	-0.169
-577.763	-200.000	0.023	0.116
-576.748	800.000	0.087	-0.269
-575.733	120.437	-0.208	0.264
-574.719	419.720	0.155	-0.340
-573.704	-200.000	0.022	0.235
-572.690	-18.475	0.261	0.166
-571.675	32.829	0.136	-0.120
-570.661	22.500	-0.127	0.106
-569.646	-19.606	-0.220	-0.139
-568.631	390.644	0.119	-0.252
-567.617	-93.609	-0.182	-0.051
-566.602	183.067	-0.074	-0.112
-565.588	-14.728	-0.162	-0.106
-564.573	-179.620	-0.163	-0.004
-563.558	-56.724	-0.434	0.196
-562.544	115.889	0.270	-0.337
-561.529	211.399	0.195	-0.313
-560.515	253.598	0.189	0.330
-559.500	-200.000	-0.010	-0.085
-558.485	467.439	0.082	-0.188
-557.471	1.071	-0.200	-0.146
-556.456	678.285	-0.106	-0.280
-555.442	130.804	-0.110	0.144
-554.427	-107.391	0.181	0.041
-553.412	38.611	0.095	-0.086
-552.398	-200.000	0.010	-0.126
-551.383	147.252	-0.114	-0.156
-550.369	-59.102	0.463	-0.204
-549.354	1.614	-0.297	0.218
-548.339	-130.139	0.214	-0.030
-547.325	-174.029	0.230	-0.007
-546.310	800.000	-0.101	-0.396
-545.296	800.000	0.053	0.226
-544.281	110.113	-0.164	0.201
-543.266	-15.684	0.167	0.109
-542.252	110.989	0.202	0.247
-541.237	-32.494	0.241	0.137
-540.223	800.000	-0.038	-0.160
-539.208	-27.080	-0.158	0.094
-538.193	800.000	-0.086	0.251
-537.179	356.474	0.065	0.133
-536.164	-86.637	0.334	0.104
-535.150	228.247	-0.273	0.453
-534.135	-200.000	0.014	-0.205
-533.121	-200.000	0.020	-0.138
-532.106	116.323	-0.155	-0.193
-531.091	-63.887	0.205	-0.086
-530.077	-35.671	0.146	-0.081
-529.062	97.000	-0.066	0.077
-528.048	-92.815	0.348	0.099
-527.033	719.891	0.064	0.174
-526.018	-200.000	0.023	-0.214
-525.004	-117.496	-0.049	-0.009
-523.989	33.718	-0.135	0.119
-522.975	-102.348	0.160	-0.039
-521.960	-41.128	-0.273	-0.144
-520.945	800.000	-0.129	-0.396
-519.931	721.383	0.117	0.316
-518.916	-130.682	-0.253	-0.035
-517.902	560.885	-0.112	0.275
-516.887	-200.000	0.012	-0.092
-515.872	197.300	0.179	0.278
-514.858	-200.000	0.004	0.181
-513.843	342.754	-0.221	0.440
-512.829	-38.999	0.237	-0.127
-511.814	-87.886	-0.162	-0.050
-510.799	-43.156	0.173	-0.089
-509.785	-22.551	-0.325	0.200
-508.770	114.381	0.078	0.097
-507.756	259.688	0.225	0.396
-506.741	167.855	0.058	-0.083
-505.726	46.173	-0.167	0.158
-504.712	-200.000	0.033	0.224
-503.697	282.308	-0.063	-0.114
-502.683	-200.000	0.002	-0.144
-501.668	376.824	-0.194	-0.403
-500.653	-200.000	0.015	-0.105
-499.639	544.506	-0.038	0.092
-498.624	795.927	0.092	0.258
-497.610	-200.000	-0.001	-0.062
-496.595	800.000	-0.034	0.129
-495.581	-46.484	0.293	0.146
-494.566	501.432	0.052	0.122
-493.551	-30.542	-0.301	-0.174
-492.537	-170.571	0.215	0.008
-491.522	-80.989	0.120	0.040
-490.508	11.358	-0.125	0.097
-489.493	-200.000	-0.003	0.318
-488.478	133.319	-0.113	0.148
-487.464	800.000	0.126	0.413
-486.449	368.270	0.131	0.270
-485.435	800.000	-0.206	0.595
-484.420	148.841	-0.150	-0.206
-483.405	68.842	-0.065	0.068
-482.391	800.000	-0.020	0.087
-481.376	-18.491	-0.176	-0.112
-480.362	-40.446	0.298	0.157
-479.347	743.493	0.023	-0.062
-478.332	57.823	-0.077	0.076
-477.318	800.000	0.044	-0.124
-476.303	-45.218	-0.160	-0.081
-475.289	-87.027	0.153	0.047
-474.274	-65.726	-0.223	0.091
-473.259	-52.504	-0.373	-0.175
-472.245	800.000	0.071	0.219
-471.230	800.000	-0.067	-0.248
-470.216	-149.667	-0.137	0.011
-469.201	548.614	0.019	-0.045
-468.186	102.874	0.184	-0.218
-467.172	-147.852	0.183	-0.016
-466.157	-200.000	0.014	-0.324
-465.143	800.000	0.077	-0.227
-464.128	-200.000	-0.057	-0.366
-463.113	117.306	-0.122	0.152
-462.099	452.719	-0.017	-0.039
-461.084	-148.989	-0.038	-0.003
-460.070	91.175	-0.227	0.258
-459.055	800.000	0.144	0.460
-458.040	800.000	-0.066	0.203
-457.026	65.920	0.109	0.113
-456.011	-200.000	-0.019	0.266
-454.997	-148.556	0.231	0.019
-453.982	-50.930	0.157	-0.075
-452.968	-78.541	0.243	0.084
-451.953	552.508	0.092	0.224
-450.938	-153.110	-0.143	-0.010
-449.924	-200.000	0.040	-0.283
-448.909	715.004	0.092	-0.248
-447.895	-200.000	0.034	-0.359
-446.880	123.592	-0.123	-0.157
-445.865	800.000	0.029	0.117
-444.851	-69.578	-0.211	0.082
-443.836	4.757	0.075	-0.056
-442.822	9.053	-0.093	0.071
-441.807	-88.905	-0.183	-0.055
-440.792	-76.203	0.176	0.063
-439.778	49.452	-0.467	0.446
-438.763	-200.000	-0.026	-0.276
-437.749	-124.656	-0.051	0.008
-436.734	-200.000	0.022	0.107
-435.719	109.074	0.234	-0.284
-434.705	-162.156	-0.153	-0.008
-433.690	-116.230	0.254	-0.048
-432.676	800.000	0.053	-0.202
-431.661	11.744	-0.116	-0.090
-430.646	-23.204	-0.291	-0.178
-429.632	115.072	-0.350	0.434
-428.617	-46.660	-0.183	0.091
-427.603	17.718	0.241	-0.195
-426.588	-200.000	0.000	0.082
-425.573	-200.000	-0.036	-0.207
-424.559	-171.448	0.210	-0.007
-423.544	-200.000	-0.009	0.119
-422.530	46.831	-0.306	0.288
-421.515	-68.694	-0.164	0.064
-420.500	-101.590	-0.221	-0.055
-419.486	-18.722	0.328	0.208
-418.471	667.880	0.039	-0.102
-417.457	406.270	0.046	0.099
-416.442	-118.226	0.113	-0.020
-415.428	-159.358	0.064	0.004
-414.413	-9.683	-0.192	0.130
-413.398	174.651	0.081	-0.118
-412.384	-86.074	-0.239	-0.075
-411.369	-153.980	0.293	0.020
-410.355	800.000	0.074	-0.252
-409.340	-116.348	0.289	0.054
-408.325	107.551	0.059	-0.072
-407.311	276.904	0.116	-0.209
-406.296	98.554	0.129	0.150
-405.282	33.611	-0.303	0.267
-404.267	800.000	0.030	-0.102
-403.252	-200.000	0.006	-0.285
-402.238	139.265	-0.085	-0.113
-401.223	-62.351	0.158	-0.067
-400.209	800.000	-0.029	0.116
-399.194	-200.000	0.033	0.162
-398.179	4.741	0.485	-0.361
-397.165	-33.419	-0.144	0.081
-396.150	-88.973	0.311	-0.093
-395.136	167.125	0.085	0.122
-394.121	-43.858	0.240	0.123
-393.106	-70.176	0.074	0.029
-392.092	-74.044	-0.118	0.043
-391.077	-84.189	-0.131	0.042
-390.063	-200.000	0.007	-0.105
-389.048	-200.000	-0.042	-0.239
-388.033	800.000	-0.137	-0.455
-387.019	1.217	0.238	-0.173
-386.004	-200.000	-0.078	0.500
-384.990	-49.769	0.378	0.182
-383.975	-200.000	-0.019	-0.306
-382.960	800.000	-0.026	-0.074
-381.946	389.335	0.041	0.086
-380.931	-16.067	0.153	-0.099
-379.917	800.000	0.081	0.318
-378.902	800.000	-0.037	0.137
-377.888	-116.583	-0.350	0.065
-376.873	198.333	0.182	-0.283
-375.858	800.000	0.050	-0.156
-374.844	-200.000	-0.036	0.361
-373.829	-104.029	0.389	0.092
-372.815	-200.000	-0.015	-0.171
-371.800	-200.000	-0.003	-0.080
-370.785	-82.423	0.081	0.027
-369.771	531.761	-0.106	0.254
-368.756	-200.000	0.051	0.284
-367.742	680.198	0.053	-0.141
-366.727	50.377	0.138	-0.132
-365.712	331.774	0.033	0.065
-364.698	-169.797	0.047	0.002
-363.683	143.530	-0.293	-0.395
-362.669	197.986	0.093	0.144
-361.654	718.587	0.070	0.189
-360.639	-17.518	-0.053	-0.033
-359.625	-118.101	0.303	0.055
-358.610	-200.000	-0.047	-0.305
-357.596	-11.465	0.076	0.051
-356.581	400.547	0.019	-0.041
-355.566	114.453	-0.212	-0.262
-354.552	800.000	0.041	-0.131
-353.537	800.000	0.064	0.190
-352.523	-102.932	-0.153	-0.037
-351.508	-138.508	-0.142	0.016
-350.493	591.989	-0.086	-0.214
-349.479	800.000	-0.051	0.180
-348.464	406.039	-0.180	0.384
-347.450	-69.218	-0.230	0.090
-346.435	177.786	-0.176	0.260
-345.420	192.252	-0.182	0.278
-344.406	223.565	-0.123	-0.201
-343.391	215.313	0.112	-0.179
-342.377	-24.733	-0.233	-0.140
-341.362	92.446	0.118	0.135
-340.348	800.000	0.098	-0.290
-339.333	800.000	-0.027	-0.083
-338.318	-54.264	0.342	0.157
-337.304	800.000	-0.080	-0.235
-336.289	-96.202	0.066	0.018
-335.275	-200.000	-0.006	0.128
-334.260	317.288	-0.066	0.125
-333.245	15.216	-0.231	0.183
-332.231	-145.153	-0.334	-0.031
-331.216	164.513	0.124	0.176
-330.202	-200.000	0.000	0.181
-329.187	-126.795	0.475	-0.071
-328.172	-85.382	-0.097	0.030
-327.158	-200.000	-0.006	-0.127
-326.143	-200.000	-0.027	-0.261
-325.129	-200.000	-0.016	0.109
-324.114	-200.000	0.031	0.454
-323.099	-81.656	-0.055	-0.018
-322.085	800.000	-0.031	0.129
-321.070	-200.000	-0.034	0.300
-320.056	-52.527	-0.281	-0.131
-319.041	-200.000	-0.024	0.204
-318.026	139.378	-0.137	0.182
-317.012	83.048	-0.110	-0.121
-315.997	-166.387	0.220	-0.009
-314.983	-200.000	0.036	-0.293
-313.968	560.084	0.074	-0.181
-312.953	-200.000	0.006	-0.583
-311.939	800.000	0.046	-0.143
-310.924	3.836	0.241	0.178
-309.910	-197.674	0.045	-0.000
-308.895	-61.158	0.230	-0.098
-307.880	185.635	0.167	0.251
-306.866	271.321	0.124	-0.220
-305.851	45.950	-0.177	-0.166
-304.837	-133.717	0.180	0.023
-303.822	387.161	0.046	0.096
-302.807	15.470	-0.169	0.134
-301.793	619.713	-0.046	-0.117
-300.778	39.364	-0.076	0.069
-299.764	481.702	0.059	0.135
-298.749	174.337	0.047	0.068
-297.735	32.459	-0.066	-0.057
-296.720	716.208	0.068	-0.183
-295.705	486.516	-0.143	-0.330
-294.691	800.000	0.022	0.069
-293.676	183.538	0.227	0.339
-292.662	760.153	0.081	-0.221
-291.647	599.951	0.087	-0.219
-290.632	-175.527	-0.227	0.006
-289.618	-108.382	-0.120	-0.026
-288.603	-39.762	0.189	-0.100
-287.589	800.000	0.015	-0.063
-286.574	46.917	-0.107	-0.100
-285.559	-200.000	0.031	0.244
-284.545	-79.377	-0.150	-0.051
-283.530	-14.714	-0.126	0.082
-282.516	800.000	0.061	-0.174
-281.501	8.101	-0.132	-0.100
-280.486	-114.953	-0.226	-0.043
-279.472	-19.108	0.095	0.060
-278.457	309.385	-0.054	0.101
-277.443	9.245	0.086	0.065
-276.428	-100.900	-0.300	0.074
-275.413	-115.670	0.389	-0.074
-274.399	800.000	-0.067	0.239
-273.384	800.000	0.072	0.222
-272.370	-200.000	0.046	-0.219
-271.355	35.229	0.119	0.105
-270.340	5.713	-0.237	0.177
-269.326	-71.611	-0.413	0.156
-268.311	641.598	0.029	-0.074
-267.297	119.924	0.144	0.180
-266.282	-80.983	0.288	-0.096
-265.267	311.151	-0.177	0.335
-264.253	59.066	-0.316	0.313
-263.238	-138.317	-0.229	-0.025
-262.224	800.000	-0.021	0.071
-261.209	-8.182	-0.324	0.220
-260.195	-200.000	-0.061	-0.322
-259.180	-200.000	0.007	0.069
-258.165	-151.754	0.074	0.005
-257.151	-200.000	-0.028	-0.426
-256.136	32.626	-0.078	0.068
-255.122	-200.000	-0.007	0.000
-254.107	34.843	0.102	-0.090
-253.092	-44.909	0.196	-0.099
-252.078	800.000	-0.045	-0.145
-251.063	-64.842	0.103	-0.042
-250.049	-50.190	-0.151	-0.072
-249.034	-200.000	0.042	0.260
-248.019	-200.000	0.050	-0.514
-247.005	-200.000	0.011	-0.337
-245.990	-200.000	-0.015	-0.194
-244.976	133.039	-0.239	-0.311
-243.961	229.252	0.172	0.283
-242.946	-83.622	0.164	0.053
-241.932	92.189	0.120	0.136
-240.917	-5.860	0.136	-0.094
-239.903	-118.461	-0.241	0.043
-238.888	718.945	0.112	0.299
-237.873	-17.679	-0.203	-0.128
-236.859	-77.796	-0.080	-0.028
-235.844	68.553	0.116	0.120
-234.830	379.922	0.071	-0.146
-233.815	330.340	0.172	0.333
-232.800	-200.000	-0.037	0.264
-231.786	-43.762	-0.142	-0.072
-230.771	800.000	0.077	0.287
-229.757	-40.337	-0.091	-0.047
-228.742	-116.208	-0.184	0.034
-227.727	-85.682	0.086	-0.027
-226.713	-200.000	-0.010	0.089
-225.698	252.091	0.071	-0.122
-224.684	86.447	0.229	-0.254
-223.669	301.099	-0.063	-0.118
-222.655	27.388	0.058	0.049
-221.640	472.300	0.026	0.058
-220.625	-200.000	0.044	-0.391
-219.611	-53.390	0.286	-0.132
-218.596	-200.000	0.040	-0.207
-217.582	-200.000	-0.043	0.312
-216.567	-12.685	-0.147	0.096
-215.552	125.873	0.195	-0.248
-214.538	-44.584	0.245	-0.123
-213.523	-200.000	0.006	-0.137
-212.509	-68.321	-0.243	0.095
-211.494	-62.256	0.410	0.172
-210.479	-200.000	0.050	-0.264
-209.465	-96.938	-0.066	-0.017
-208.450	-18.373	-0.163	-0.102
-207.436	576.519	0.085	0.209
-206.421	-149.306	0.175	-0.014
-205.406	197.483	0.149	-0.228
-204.392	-200.000	0.011	-0.100
-203.377	-44.808	-0.173	-0.087
-202.363	-200.000	-0.081	0.396
-201.348	-176.651	0.066	-0.002
-200.333	355.342	-0.075	0.151
-199.319	-145.045	-0.117	-0.011
-198.304	407.541	-0.115	-0.244
-197.290	39.517	-0.142	0.128
-196.275	-127.360	-0.343	0.050
-195.260	331.128	0.191	-0.370
-194.246	-168.382	0.237	-0.009
-193.231	-142.305	-0.097	-0.010
-192.217	-14.658	-0.251	-0.162
-191.202	23.284	0.151	0.124
-190.187	-200.000	-0.025	0.334
-189.173	-79.267	0.153	0.052
-188.158	-58.046	-0.209	-0.092
-187.144	64.196	0.153	-0.155
-186.129	-79.210	0.129	0.044
-185.114	39.792	0.125	0.113
-184.100	251.181	0.219	-0.374
-183.085	-200.000	0.009	-0.315
-182.071	-84.872	0.235	0.074
-181.056	707.144	-0.149	0.396
-180.042	-63.016	-0.046	0.019
-179.027	92.644	0.146	0.166
-178.012	-200.000	-0.029	-0.197
-176.998	-200.000	0.043	0.257
-175.983	113.671	-0.073	0.089
-174.969	800.000	-0.083	0.322
-173.954	15.784	0.065	0.052
-172.939	-112.818	0.045	-0.009
-171.925	87.574	0.129	0.144
-170.910	263.629	-0.143	-0.250
-169.896	-98.536	0.141	0.036
-168.881	10.777	-0.263	0.202
-167.866	-32.682	-0.244	-0.136
-166.852	73.579	0.134	-0.141
-165.837	32.327	0.133	-0.115
-164.823	14.839	-0.157	0.123
-163.808	273.905	0.121	0.216
-162.793	3.356	0.134	-0.098
-161.779	-56.568	0.259	0.115
-160.764	127.190	-0.076	-0.097
-159.750	-46.988	-0.147	-0.072
-158.735	-200.000	0.034	0.170
-157.720	366.235	-0.152	-0.308
-156.706	519.059	0.064	-0.151
-155.691	-200.000	0.001	-0.164
-154.677	315.824	-0.103	0.196
-153.662	-73.139	0.266	0.098
-152.647	290.534	0.213	0.388
-151.633	-200.000	-0.110	-0.000
-150.618	-70.521	-0.237	-0.090
-149.604	800.000	0.066	0.195
-148.589	-59.942	-0.190	-0.082
-147.574	95.031	0.114	-0.130
-146.560	474.675	-0.062	-0.140
-145.545	182.189	0.039	0.057
-144.531	559.691	0.137	0.333
-143.516	64.497	-0.115	0.117
-142.502	167.211	0.087	-0.124
-141.487	-15.995	0.203	-0.130
-140.472	492.293	0.089	-0.206
-139.458	109.310	-0.156	0.188
-138.443	-33.904	0.303	0.167
-137.429	-200.000	-0.010	-0.356
-136.414	242.768	-0.207	-0.347
-135.399	800.000	-0.083	-0.264
-134.385	688.043	-0.030	-0.079
-133.370	-200.000	-0.005	0.056
-132.356	134.870	0.211	0.275
-131.341	-88.065	-0.120	-0.036
-130.326	-25.545	0.254	-0.150
-129.312	-200.000	-0.000	-0.040
-128.297	-186.913	-0.303	-0.004
-127.283	-53.148	-0.247	0.114
-126.268	-200.000	-0.031	-0.272
-125.253	-65.466	-0.149	0.060
-124.239	644.467	0.090	-0.230
-123.224	419.588	-0.171	0.366
-122.210	800.000	-0.117	0.384
-121.195	-87.692	-0.182	0.055
-120.180	-58.348	-0.151	-0.066
-119.166	552.628	-0.075	-0.181
-118.151	79.684	-0.099	-0.106
-117.137	150.881	-0.114	0.155
-116.122	35.099	-0.133	0.117
-115.107	-134.346	-0.265	-0.033
-114.093	202.312	-0.146	-0.225
-113.078	-16.933	-0.152	0.096
-112.064	-200.000	-0.031	0.146
-111.049	-168.184	0.077	0.003
-110.034	-46.910	0.043	-0.021
-109.020	-127.992	0.083	-0.012
-108.005	800.000	-0.014	-0.039
-106.991	-142.704	-0.090	-0.009
-105.976	-108.073	0.492	0.107
-104.962	276.254	0.131	0.234
-103.947	333.583	0.088	0.171
-102.932	-147.178	0.044	0.004
-101.918	-96.709	0.096	0.025
-100.903	134.443	-0.092	0.120
-99.889	-200.000	0.050	0.275
-98.874	121.209	0.118	0.147
-97.859	160.328	0.062	0.087
-96.845	800.000	-0.048	0.150
-95.830	6.197	0.214	-0.159
-94.816	60.686	0.105	-0.105
-93.801	-200.000	-0.006	-0.108
-92.786	-11.881	0.234	-0.154
-91.772	-200.000	-0.015	0.284
-90.757	-18.935	0.271	-0.169
-89.743	344.601	0.094	-0.185
-88.728	-200.000	-0.037	-0.336
-87.713	-21.539	-0.168	-0.102
-86.699	585.196	-0.069	-0.171
-85.684	-104.665	-0.106	-0.025
-84.670	-155.492	-0.234	-0.015
-83.655	283.427	0.241	-0.434
-82.640	253.209	0.144	0.246
-81.626	-200.000	0.022	-0.106
-80.611	90.772	-0.146	0.164
-79.597	-24.807	0.174	-0.103
-78.582	59.950	-0.062	0.061
-77.567	-172.734	0.355	-0.011
-76.553	-113.799	0.333	-0.065
-75.538	5.703	0.225	0.166
-74.524	-200.000	-0.006	0.204
-73.509	-38.352	0.339	-0.179
-72.494	-96.276	-0.197	0.052
-71.480	-200.000	0.058	0.531
-70.465	-2.486	0.272	0.191
-69.451	-105.660	0.109	0.025
-68.436	137.730	0.149	0.196
-67.422	-84.833	0.147	-0.046
-66.407	-57.175	0.207	0.091
-65.392	-151.938	0.253	0.018
-64.378	277.565	0.071	0.126
-63.363	800.000	-0.021	0.065
-62.349	-42.441	-0.175	-0.089
-61.334	-65.716	-0.902	-0.362
-60.319	800.000	0.170	0.570
-59.305	-200.000	0.072	-0.426
-58.290	167.721	0.291	0.413
-57.276	578.400	0.611	1.494
-56.261	-200.000	69.995	519.282
-55.246	573.905	1260.501	3074.406
-54.232	135.517	2525.521	3285.730
-53.217	111.434	2368.581	2855.811
-52.203	54.537	1987.504	1915.292
-51.188	48.129	1773.582	1658.229
-50.173	45.192	1725.099	1590.014
-49.159	58.234	1755.337	1720.177
-48.144	65.515	1773.357	1794.623
-47.130	48.113	1738.719	1625.250
-46.115	44.853	1724.859	1586.903
-45.100	44.596	1720.035	1580.403
-44.086	44.467	1717.777	1577.269
-43.071	44.500	1715.408	1575.287
-42.057	44.454	1712.911	1572.574
-41.042	44.434	1710.899	1570.507
-40.027	44.541	1708.365	1568.951
-39.013	44.554	1706.796	1567.546
-37.998	44.561	1704.654	1565.572
-36.984	44.589	1703.563	1564.723
-35.969	44.720	1701.203	1563.497
-34.954	44.725	1699.966	1562.338
-33.940	44.730	1698.079	1560.578
-32.925	44.687	1696.401	1558.642
-31.911	44.702	1694.707	1557.146
-30.896	44.627	1692.979	1554.919
-29.881	44.706	1690.774	1553.439
-28.867	44.626	1689.072	1551.200
-27.852	44.652	1687.995	1550.347
-26.838	44.698	1686.242	1549.023
-25.823	44.680	1684.749	1547.455
-24.809	44.770	1682.961	1546.432
-23.794	44.793	1681.061	1544.801
-22.779	44.842	1679.568	1543.741
-21.765	44.689	1678.601	1541.628
-20.750	44.670	1676.828	1539.802
-19.736	44.725	1675.472	1538.909
-18.721	44.804	1673.418	1537.559
-17.706	44.738	1671.913	1535.619
-16.692	44.737	1669.985	1533.772
-15.677	44.645	1668.817	1531.953
-14.663	44.701	1667.853	1531.427
-13.648	44.724	1666.224	1530.041
-12.633	44.756	1664.266	1528.423
-11.619	44.616	1663.109	1526.247
-10.604	44.702	1661.253	1525.129
-9.590	44.688	1660.145	1523.949
-8.575	44.709	1658.547	1522.575
-7.560	44.652	1657.945	1521.542
-6.546	44.708	1656.436	1520.510
-5.531	44.703	1655.331	1519.399
-4.517	44.682	1653.846	1517.820
-3.502	44.614	1653.236	1516.689
-2.487	44.821	1651.140	1516.251
-1.473	44.723	1640.665	1505.848
-0.458	42.191	1620.158	1468.445
0.556	34.784	1614.605	1421.331
1.571	30.691	1635.502	1408.683
2.586	29.012	1648.687	1407.087
3.600	25.610	1596.259	1336.983
4.615	16.454	1481.372	1177.183
5.629	7.965	1409.154	1063.234
6.644	6.256	1398.792	1043.987
7.659	5.993	1397.366	1041.087
8.673	5.969	1396.218	1039.980
9.688	5.854	1393.958	1037.444
10.702	5.655	1391.695	1034.360
11.717	9.184	1399.462	1063.431
12.731	16.676	1413.256	1123.731
13.746	19.372	1416.470	1144.099
14.761	17.451	1411.517	1127.285
15.775	16.183	1407.392	1115.512
16.790	15.012	1404.865	1105.681
17.804	14.166	1402.309	1097.985
18.819	13.646	1401.116	1093.531
19.834	13.439	1399.405	1090.732
20.848	13.085	1398.416	1087.536
21.863	12.937	1397.151	1085.481
22.877	12.783	1395.946	1083.433
23.892	12.711	1395.328	1082.383
24.907	12.669	1394.184	1081.128
25.921	12.721	1393.268	1080.660
26.936	12.736	1392.471	1080.049
27.950	12.861	1391.270	1079.837
28.965	12.900	1390.085	1079.081
29.980	12.931	1389.075	1078.402
30.994	12.924	1388.106	1077.506
32.009	13.052	1386.809	1077.240
33.023	13.006	1385.555	1075.870
34.038	12.957	1384.024	1074.270
35.053	12.909	1382.753	1072.872
36.067	12.872	1381.569	1071.623
37.082	12.842	1380.648	1070.615
38.096	12.851	1379.712	1069.852
39.111	12.991	1378.695	1069.880
40.126	12.827	1378.047	1068.219
41.140	12.789	1376.807	1066.918
42.155	12.680	1376.282	1065.711
43.169	12.745	1376.170	1065.952
44.184	12.702	1375.763	1065.263
45.199	12.581	1375.557	1064.226
46.213	12.658	1374.846	1064.080
47.228	12.860	1373.796	1064.479
48.242	12.878	1372.021	1063.125
49.257	12.801	1371.160	1061.869
50.271	12.772	1369.814	1060.541
51.286	12.847	1368.411	1059.843
52.301	12.805	1366.878	1058.298
53.315	12.794	1365.679	1057.204
54.330	12.727	1364.776	1055.982
55.344	12.821	1363.209	1055.276
56.359	12.705	1362.215	1053.673
57.374	12.615	1361.974	1052.813
58.388	12.626	1360.955	1052.004
59.403	12.649	1360.116	1051.410
60.417	12.542	1359.566	1050.210
61.432	12.506	1358.640	1049.169
62.447	12.512	1357.616	1048.326
63.461	12.579	1356.490	1047.787
64.476	12.525	1355.459	1046.556
65.490	12.535	1354.340	1045.667
66.505	12.561	1352.669	1044.446
67.520	12.610	1351.435	1043.711
68.534	12.638	1350.534	1043.102
69.549	12.554	1349.630	1041.780
70.563	12.623	1348.221	1041.035
71.578	12.498	1347.676	1039.733
72.593	12.483	1346.327	1038.506
73.607	12.433	1345.584	1037.525
74.622	12.447	1344.782	1036.900
75.636	12.529	1344.037	1036.752
76.651	12.490	1343.615	1036.094
77.666	12.510	1342.873	1035.553
78.680	12.451	1343.004	1035.191
79.695	12.511	1341.536	1034.346
80.709	12.631	1340.151	1033.937
81.724	12.665	1339.262	1033.378
82.739	12.717	1338.775	1033.236
83.753	12.726	1338.127	1032.697
84.768	12.813	1337.162	1032.408
85.782	12.858	1336.395	1032.009
86.797	12.896	1334.807	1030.927
87.812	12.712	1333.348	1028.557
88.826	12.700	1332.655	1027.859
89.841	12.795	1331.369	1027.369
90.855	12.849	1330.514	1026.955
91.870	12.885	1329.862	1026.584
92.884	12.953	1328.229	1025.658
93.899	12.929	1327.574	1024.909
94.914	12.895	1327.064	1024.216
95.928	12.880	1326.389	1023.508
96.943	12.926	1325.445	1022.974
97.957	12.925	1324.041	1021.797
98.972	12.883	1323.109	1020.724
99.987	12.851	1322.325	1019.835
101.001	12.896	1321.556	1019.426
102.016	12.795	1320.198	1017.663
103.030	12.922	1319.273	1017.645
104.045	12.831	1318.395	1016.320
105.060	12.876	1316.946	1015.391
106.074	12.849	1315.046	1013.669
107.089	12.639	1314.228	1011.658
108.103	12.453	1313.096	1009.555
109.118	12.667	1312.044	1009.969
110.133	12.618	1310.219	1008.174
111.147	12.582	1309.160	1007.050
112.162	12.735	1307.392	1006.539
113.176	12.634	1306.952	1005.493
114.191	12.724	1305.397	1004.758
115.206	12.821	1304.271	1004.389
116.220	12.682	1303.148	1002.590
117.235	12.692	1302.158	1001.800
118.249	12.702	1301.034	1000.909
119.264	12.725	1299.749	999.970
120.279	12.596	1298.647	998.251
121.293	12.605	1297.811	997.577
122.308	12.611	1296.722	996.686
123.322	12.493	1296.268	995.536
124.337	12.572	1294.767	994.772
125.352	12.602	1293.504	993.895
126.366	12.638	1292.441	993.208
127.381	12.540	1291.744	991.993
128.395	12.641	1290.282	991.394
129.410	12.638	1289.590	990.752
130.424	12.678	1288.916	990.392
131.439	12.784	1287.654	989.968
132.454	12.792	1286.489	989.034
133.468	12.818	1285.544	988.377
134.483	12.868	1284.771	987.992
135.497	12.837	1284.261	987.325
136.512	12.741	1283.120	985.788
137.527	12.771	1281.910	984.952
138.541	12.773	1279.901	983.334
139.556	12.780	1279.229	982.773
140.570	12.896	1277.782	982.262
141.585	12.954	1276.380	981.444
142.600	13.011	1275.314	980.876
143.614	13.040	1274.802	980.569
144.629	12.972	1273.110	978.776
145.643	13.017	1271.755	977.916
146.658	12.922	1270.773	976.510
147.673	12.864	1269.907	975.416
148.687	12.828	1268.396	973.958
149.702	12.815	1266.754	972.534
150.716	12.843	1265.503	971.650
151.731	12.805	1264.187	970.333
152.746	12.890	1262.887	969.748
153.760	12.844	1261.811	968.564
154.775	12.835	1260.993	967.800
155.789	12.939	1259.862	967.457
156.804	13.039	1258.349	966.790
157.819	12.941	1257.833	965.737
158.833	12.974	1256.643	964.929
159.848	13.023	1255.868	964.539
160.862	13.123	1254.778	964.197
161.877	12.986	1253.480	962.320
162.892	12.912	1252.460	961.015
163.906	12.902	1251.502	960.139
164.921	12.968	1250.655	959.786
165.935	12.991	1249.658	959.074
166.950	12.942	1249.081	958.257
167.964	12.961	1248.256	957.651
168.979	12.983	1247.360	957.005
169.994	13.018	1246.585	956.532
171.008	12.992	1245.884	955.757
172.023	13.056	1245.057	955.407
173.037	13.121	1244.330	955.141
174.052	13.074	1243.580	954.210
175.067	12.976	1242.315	952.590
176.081	12.945	1241.205	951.477
177.096	12.995	1239.966	950.733
178.110	13.116	1238.814	950.457
179.125	13.020	1238.024	949.216
180.140	13.005	1237.101	948.338
181.154	13.012	1235.802	947.299
182.169	13.098	1234.430	946.656
183.183	13.136	1233.265	945.899
184.198	13.211	1231.710	945.050
185.213	13.148	1230.879	943.968
186.227	13.182	1229.689	943.167
187.242	13.300	1228.742	943.030
188.256	13.371	1227.551	942.436
189.271	13.213	1226.985	941.020
190.286	13.242	1225.653	940.079
191.300	13.132	1224.930	938.815
192.315	12.987	1224.313	937.437
193.329	13.043	1223.481	937.032
194.344	13.011	1222.789	936.243
195.359	13.099	1222.229	936.230
196.373	13.248	1221.637	936.536
197.388	13.324	1221.024	936.412
198.402	13.352	1220.810	936.324
199.417	13.498	1220.171	936.575
200.432	13.592	1218.817	935.986
201.446	13.460	1218.737	935.097
202.461	13.529	1217.725	934.629
203.475	13.523	1216.396	933.492
204.490	13.519	1215.015	932.325
205.504	13.466	1213.764	930.988
206.519	13.461	1212.588	929.973
207.534	13.497	1211.679	929.394
208.548	13.460	1210.769	928.407
209.563	13.564	1209.944	928.274
210.577	13.424	1209.364	926.966
211.592	13.459	1208.191	926.181
212.607	13.674	1207.135	926.490
213.621	13.538	1206.389	925.076
214.636	13.597	1205.605	924.724
215.650	13.655	1204.393	924.031
216.665	13.674	1203.701	923.524
217.680	13.645	1202.894	922.665
218.694	13.659	1202.288	922.196
219.709	13.743	1201.118	921.683
220.723	13.665	1200.655	920.815
221.738	13.708	1199.288	919.920
222.753	13.707	1198.761	919.430
223.767	13.662	1198.398	918.822
224.782	13.785	1197.766	918.936
225.796	13.854	1197.143	918.759
226.811	13.894	1196.093	918.092
227.826	13.801	1195.190	916.805
228.840	13.756	1194.533	915.970
229.855	13.854	1193.572	915.692
230.869	13.720	1192.769	914.258
231.884	13.784	1192.062	913.989
232.899	13.784	1191.102	913.171
233.913	13.634	1190.476	911.785
234.928	13.723	1189.779	911.660
235.942	13.740	1188.876	910.983
236.957	13.776	1187.959	910.394
237.972	13.727	1187.531	909.719
238.986	13.678	1187.039	908.991
240.001	13.825	1186.053	908.961
241.015	13.783	1185.331	908.099
242.030	13.851	1184.210	907.531
243.045	13.902	1183.487	907.178
244.059	13.900	1182.933	906.659
245.074	13.874	1182.267	905.927
246.088	13.972	1181.373	905.698
247.103	13.883	1180.930	904.790
248.117	14.046	1180.067	904.937
249.132	14.160	1179.364	904.938
250.147	14.106	1179.023	904.300
251.161	14.246	1177.821	904.062
252.176	14.238	1177.357	903.583
253.190	14.322	1176.735	903.479
254.205	14.385	1175.966	903.149
255.220	14.352	1175.385	902.448
256.234	14.383	1174.509	901.864
257.249	14.356	1173.721	901.030
258.263	14.431	1173.196	900.952
259.278	14.442	1172.630	900.500
260.293	14.347	1172.257	899.618
261.307	14.333	1171.778	899.094
262.322	14.495	1170.921	899.233
263.336	14.438	1170.074	898.194
264.351	14.567	1169.627	898.466
265.366	14.496	1169.214	897.687
266.380	14.574	1168.576	897.538
267.395	14.571	1167.255	896.427
268.409	14.500	1166.677	895.526
269.424	14.476	1165.656	894.531
270.439	14.473	1165.393	894.236
271.453	14.510	1164.620	893.765
272.468	14.521	1162.937	892.449
273.482	14.438	1162.811	891.833
274.497	14.406	1162.430	891.287
275.512	14.438	1161.907	890.979
276.526	14.586	1160.757	890.812
277.541	14.583	1160.014	890.145
278.555	14.573	1159.195	889.383
279.570	14.601	1158.725	889.095
280.585	14.572	1158.076	888.364
281.599	14.603	1156.893	887.541
282.614	14.718	1155.886	887.299
283.628	14.627	1154.761	885.876
284.643	14.606	1154.161	885.225
285.657	14.755	1152.788	884.884
286.672	14.712	1151.792	883.814
287.687	14.640	1151.015	882.760
288.701	14.693	1150.402	882.490
289.716	14.799	1149.311	882.134
290.730	14.697	1148.586	880.963
291.745	14.737	1148.172	880.778
292.760	14.804	1147.760	880.736
293.774	14.947	1146.483	880.433
294.789	14.980	1145.996	880.154
295.803	14.874	1145.745	879.326
296.818	14.828	1144.833	878.304
297.833	14.734	1143.920	877.032
298.847	14.768	1143.539	876.845
299.862	14.835	1142.427	876.263
300.876	14.809	1141.979	875.709
301.891	14.940	1141.160	875.686
302.906	14.939	1140.609	875.183
303.920	14.979	1139.797	874.688
304.935	15.101	1139.087	874.705
305.949	14.987	1138.643	873.690
306.964	15.110	1137.656	873.498
307.979	15.053	1136.823	872.483
308.993	15.064	1136.205	871.993
310.008	15.161	1135.315	871.734
311.022	15.160	1134.445	870.987
312.037	15.190	1133.289	870.175
313.052	15.130	1132.425	869.122
314.066	15.006	1131.361	867.589
315.081	14.940	1130.815	866.749
316.095	14.930	1130.159	866.117
317.110	15.108	1129.033	866.100
318.125	14.959	1128.651	864.962
319.139	15.043	1127.816	864.679
320.154	14.999	1127.117	863.836
321.168	15.072	1126.489	863.658
322.183	15.130	1125.776	863.332
323.197	15.144	1125.118	862.825
324.212	15.098	1124.864	862.315
325.227	15.121	1124.397	862.000
326.241	15.119	1123.629	861.324
327.256	15.126	1122.966	860.776
328.270	15.089	1122.024	859.788
329.285	15.042	1121.068	858.737
330.300	15.088	1120.240	858.264
331.314	15.061	1119.502	857.486
332.329	15.149	1118.159	856.828
333.343	15.248	1117.130	856.473
334.358	15.270	1116.014	855.652
335.373	15.297	1115.634	855.425
336.387	15.226	1114.866	854.399
337.402	15.361	1113.709	854.120
338.416	15.396	1113.358	853.957
339.431	15.373	1112.890	853.402
340.446	15.422	1112.193	853.043
341.460	15.612	1111.441	853.353
342.475	15.433	1110.808	851.884
343.489	15.488	1109.462	851.059
344.504	15.603	1108.678	850.961
345.519	15.595	1107.747	850.133
346.533	15.603	1106.951	849.486
347.548	15.742	1106.181	849.520
348.562	15.686	1105.504	848.645
349.577	15.627	1104.567	847.555
350.592	15.471	1103.630	845.972
351.606	15.448	1103.334	845.555
352.621	15.437	1102.738	844.967
353.635	15.474	1101.730	844.308
354.650	15.657	1101.025	844.614
355.665	15.612	1100.191	843.674
356.679	15.525	1099.785	842.847
357.694	15.578	1099.141	842.549
358.708	15.728	1098.757	842.929
359.723	15.651	1097.756	841.699
360.738	15.593	1097.355	841.029
361.752	15.654	1096.674	840.737
362.767	15.629	1096.031	840.045
363.781	15.684	1095.624	839.932
364.796	15.754	1094.905	839.658
365.810	15.842	1094.579	839.772
366.825	15.865	1093.819	839.229
367.840	15.954	1093.221	839.139
368.854	15.980	1092.972	839.004
369.869	15.987	1091.941	838.173
370.883	16.106	1090.826	837.835
371.898	15.854	1090.397	836.177
372.913	15.895	1089.600	835.700
373.927	16.005	1088.958	835.679
374.942	15.995	1088.736	835.384
375.956	16.049	1088.173	835.145
376.971	16.121	1087.307	834.761
377.986	16.072	1086.962	834.183
379.000	16.087	1086.231	833.624
380.015	16.174	1085.823	833.665
381.029	16.179	1085.083	833.048
382.044	16.145	1084.594	832.432
383.059	16.119	1083.849	831.655
384.073	16.199	1082.782	831.158
385.088	16.203	1081.911	830.436
386.102	16.238	1081.120	829.926
387.117	16.198	1080.163	828.921
388.132	16.093	1079.160	827.563
389.146	16.129	1078.697	827.314
390.161	16.072	1077.762	826.241
391.175	16.191	1076.645	825.895
392.190	16.298	1075.972	825.830
393.205	16.262	1075.621	825.314
394.219	16.203	1074.957	824.440
395.234	16.239	1074.130	823.910
396.248	16.302	1072.714	823.059
397.263	16.279	1071.686	822.082
398.278	16.239	1070.962	821.260
399.292	16.172	1070.565	820.557
400.307	16.127	1069.869	819.732
401.321	16.166	1068.922	819.124
402.336	16.194	1068.569	818.920
403.350	16.383	1067.424	818.883
404.365	16.308	1066.632	817.843
405.380	16.374	1066.116	817.694
406.394	16.273	1065.435	816.608
407.409	16.332	1064.885	816.399
408.423	16.410	1064.177	816.164
409.438	16.516	1063.535	816.109
410.453	16.561	1062.887	815.757
411.467	16.560	1062.235	815.181
412.482	16.610	1061.493	814.781
413.496	16.629	1060.704	814.190
414.511	16.604	1060.199	813.610
415.526	16.716	1059.536	813.568
416.540	16.667	1059.098	812.927
417.555	16.644	1058.776	812.498
418.569	16.705	1058.280	812.334
419.584	16.776	1057.469	811.984
420.599	16.745	1056.960	811.372
421.613	65.387	1260.821	1237.625
422.628	60.138	1290.530	1237.767
