DTS Sentinel unit serial number:	SN413079Multiplexer serial number:	ORYXHardware model number:	OX4-SRSoftware version number:	ORYX F/W v4.00 Oryx Data Collector v3.7.2.0data status	okinstallation	princeton_trtdifferential loss correction	single-endedforward channel	channel 2reverse channel	N/Adate	2019/09/14time	12:03:35forward acquisition time	60.00reverse acquisition time	0.00gamma	496.2192k internal	0.2308k external	0.2308temperature offset calibration	1.0155default loss term (dB/km)	0.3790temperature slope calibration	1.0000multiplexer offset coefficient	1.0000multiplexer slope coefficient	1.0000fibre end	0.00T internal ref (°C)	37.50T ext. ref 1 (°C)	4.68T ext. ref 2 (°C)	34.38length (m)	temperature (°C)	Stokes	anti-Stokes-747.200	433.137	0.017	-0.036
-746.185	133.131	-0.010	-0.014
-745.171	800.000	0.133	0.379
-744.156	-61.620	-0.094	0.040
-743.142	229.153	-0.168	0.279
-742.127	-200.000	-0.013	0.245
-741.112	35.170	0.048	0.042
-740.098	58.295	-0.120	-0.119
-739.083	426.522	-0.120	0.262
-738.069	99.612	-0.434	0.510
-737.054	-11.113	0.103	0.069
-736.039	287.525	-0.210	-0.387
-735.025	-34.609	-0.115	0.064
-734.010	-200.000	-0.036	-0.195
-732.996	125.722	-0.234	-0.300
-731.981	800.000	-0.022	-0.092
-730.966	14.869	-0.114	0.091
-729.952	721.216	-0.049	0.133
-728.937	-62.019	-0.089	0.038
-727.923	800.000	-0.044	-0.172
-726.908	52.510	-0.147	-0.143
-725.894	-159.354	-0.268	-0.015
-724.879	718.734	-0.090	-0.242
-723.864	52.900	-0.233	-0.226
-722.850	360.336	0.061	0.124
-721.835	-200.000	0.029	-0.129
-720.821	-116.414	0.101	-0.019
-719.806	-200.000	0.023	-0.389
-718.791	800.000	0.089	-0.253
-717.777	-66.056	-0.122	0.049
-716.762	-16.055	-0.107	-0.069
-715.748	52.546	-0.253	-0.245
-714.733	-34.126	0.123	0.069
-713.718	-155.622	-0.034	-0.002
-712.704	571.686	0.098	-0.241
-711.689	-127.751	0.239	-0.035
-710.675	-112.113	-0.134	-0.027
-709.660	-163.496	0.098	-0.005
-708.645	-200.000	0.011	-0.117
-707.631	111.902	0.158	-0.194
-706.616	-44.244	-0.397	-0.202
-705.602	-13.449	-0.178	0.117
-704.587	-3.784	-0.136	-0.096
-703.572	606.489	0.115	0.291
-702.558	-200.000	0.037	0.375
-701.543	-57.617	-0.250	-0.111
-700.529	-34.064	-0.202	0.113
-699.514	-200.000	0.030	-0.196
-698.499	-160.720	-0.219	-0.012
-697.485	800.000	0.043	-0.139
-696.470	54.903	-0.217	-0.212
-695.456	-133.827	0.269	-0.034
-694.441	-200.000	-0.005	-0.406
-693.426	-147.233	0.098	-0.008
-692.412	-68.441	-0.414	0.163
-691.397	-92.168	-0.185	0.053
-690.383	-9.394	0.183	0.124
-689.368	607.982	-0.097	-0.246
-688.354	8.158	-0.259	-0.198
-687.339	-97.995	0.260	0.068
-686.324	-127.599	-0.538	0.079
-685.310	118.196	-0.172	-0.215
-684.295	138.403	0.083	0.110
-683.281	-200.000	0.003	0.030
-682.266	199.589	-0.069	0.108
-681.251	91.450	-0.119	0.135
-680.237	-78.805	-0.244	0.084
-679.222	-200.000	-0.001	0.056
-678.208	33.441	-0.197	-0.174
-677.193	-2.903	0.148	-0.105
-676.178	200.667	0.113	-0.176
-675.164	-200.000	0.079	-0.399
-674.149	-118.617	-0.252	0.045
-673.135	22.180	0.104	-0.086
-672.120	800.000	-0.075	-0.254
-671.105	-28.278	-0.382	-0.224
-670.091	209.312	0.079	-0.125
-669.076	-64.960	0.105	-0.043
-668.062	-64.670	-0.385	0.158
-667.047	-112.016	-0.306	0.062
-666.032	800.000	0.048	-0.151
-665.018	44.068	0.078	0.072
-664.003	90.286	-0.190	-0.215
-662.989	-145.857	0.135	-0.012
-661.974	-143.792	-0.132	0.013
-660.959	83.999	-0.178	0.197
-659.945	42.422	-0.214	0.197
-658.930	800.000	0.024	0.081
-657.916	-99.124	0.208	0.053
-656.901	-55.942	-0.125	-0.056
-655.886	-29.998	-0.164	0.095
-654.872	-136.813	-0.142	-0.017
-653.857	-57.470	-0.115	0.051
-652.843	800.000	-0.020	0.059
-651.828	-138.462	0.261	0.029
-650.814	-152.756	0.289	0.021
-649.799	-133.429	0.319	-0.041
-648.784	-96.658	-0.183	-0.049
-647.770	-130.425	0.173	-0.024
-646.755	-5.146	-0.321	-0.224
-645.741	-156.483	-0.131	-0.008
-644.726	-31.010	0.190	-0.109
-643.711	-90.198	0.132	0.039
-642.697	43.268	0.302	-0.279
-641.682	-45.644	0.025	0.013
-640.668	10.086	-0.152	-0.117
-639.653	292.518	-0.104	0.192
-638.638	6.674	0.207	0.156
-637.624	56.371	0.211	0.208
-636.609	177.674	-0.070	-0.104
-635.595	461.880	-0.047	-0.106
-634.580	-5.154	-0.201	0.140
-633.565	54.509	0.318	0.310
-632.551	-30.844	0.197	-0.113
-631.536	380.124	0.125	-0.260
-630.522	-73.233	-0.340	0.126
-629.507	-106.588	-0.295	-0.067
-628.492	-101.446	0.185	-0.046
-627.478	-36.799	-0.067	0.036
-626.463	197.540	-0.269	-0.416
-625.449	-79.345	-0.232	-0.080
-624.434	-200.000	0.015	0.226
-623.419	-200.000	-0.001	-0.481
-622.405	-200.000	0.038	-0.259
-621.390	-112.433	0.109	-0.022
-620.376	-200.000	-0.007	0.074
-619.361	13.194	-0.276	0.216
-618.346	163.853	0.128	0.182
-617.332	-93.166	-0.150	0.042
-616.317	800.000	0.102	-0.346
-615.303	129.403	-0.108	-0.139
-614.288	-12.865	-0.176	0.116
-613.273	-200.000	0.019	-0.162
-612.259	-124.827	-0.380	-0.059
-611.244	-113.598	-0.460	-0.091
-610.230	193.386	-0.236	-0.361
-609.215	800.000	0.045	0.197
-608.201	-136.477	0.201	-0.024
-607.186	78.266	-0.260	-0.281
-606.171	439.361	0.145	-0.319
-605.157	80.144	-0.161	0.175
-604.142	-36.279	0.580	-0.316
-603.128	800.000	-0.022	-0.066
-602.113	33.916	-0.240	-0.211
-601.098	16.671	-0.084	0.068
-600.084	255.226	0.119	0.206
-599.069	392.282	0.146	0.308
-598.055	-200.000	0.033	0.221
-597.040	-200.000	0.015	0.341
-596.025	186.115	-0.150	0.225
-595.011	-54.103	-0.330	0.152
-593.996	-82.206	0.108	0.035
-592.982	-200.000	-0.005	-0.075
-591.967	800.000	-0.080	-0.341
-590.952	-200.000	0.019	-0.293
-589.938	-200.000	-0.005	0.036
-588.923	-128.987	-0.287	0.041
-587.909	-200.000	-0.012	-0.118
-586.894	119.345	-0.075	-0.094
-585.879	208.774	0.013	0.021
-584.865	-50.315	-0.129	-0.062
-583.850	800.000	0.065	-0.190
-582.836	-200.000	0.027	-0.583
-581.821	800.000	0.095	-0.303
-580.806	-98.261	-0.133	-0.034
-579.792	-118.813	0.260	-0.046
-578.777	-200.000	0.001	0.116
-577.763	-200.000	-0.027	0.328
-576.748	479.973	0.162	0.370
-575.733	-51.216	0.359	0.170
-574.719	187.590	0.077	-0.117
-573.704	522.922	-0.091	-0.217
-572.690	27.414	-0.327	0.278
-571.675	170.388	-0.092	0.133
-570.661	48.806	0.076	0.072
-569.646	800.000	0.027	0.111
-568.631	-133.923	0.083	0.010
-567.617	54.647	-0.165	0.161
-566.602	-100.891	-0.176	-0.044
-565.588	-43.428	-0.245	-0.125
-564.573	-200.000	-0.102	-0.556
-563.558	149.342	0.113	-0.154
-562.544	-76.229	0.133	0.047
-561.529	-31.748	0.192	0.109
-560.515	45.593	-0.112	0.105
-559.500	71.525	-0.068	-0.072
-558.485	-146.761	0.159	0.014
-557.471	-132.536	-0.304	-0.039
-556.456	-200.000	-0.017	0.119
-555.442	337.124	-0.065	0.128
-554.427	-200.000	0.023	0.332
-553.412	-200.000	-0.022	-0.162
-552.398	704.663	0.052	-0.139
-551.383	-200.000	-0.003	0.187
-550.369	-17.937	0.241	-0.152
-549.354	-200.000	0.027	-0.222
-548.339	115.417	-0.066	0.081
-547.325	114.738	-0.172	-0.211
-546.310	-200.000	-0.033	0.315
-545.296	-153.264	0.173	0.012
-544.281	-200.000	-0.025	-0.197
-543.266	19.189	-0.331	-0.268
-542.252	-40.069	0.229	0.120
-541.237	-110.135	0.283	0.060
-540.223	-104.910	0.314	-0.073
-539.208	21.793	-0.232	-0.190
-538.193	122.772	-0.152	-0.192
-537.179	-108.653	-0.036	-0.008
-536.164	557.145	0.232	-0.564
-535.150	-200.000	-0.043	-0.271
-534.135	-200.000	-0.042	-0.322
-533.121	-128.204	-0.322	-0.046
-532.106	-119.877	-0.276	0.048
-531.091	142.637	-0.040	0.053
-530.077	-200.000	-0.016	-0.187
-529.062	-200.000	-0.001	-0.265
-528.048	-39.245	-0.215	0.114
-527.033	800.000	0.088	-0.268
-526.018	231.123	-0.155	-0.256
-525.004	-200.000	-0.023	-0.136
-523.989	-41.449	0.144	0.075
-522.975	169.167	-0.106	-0.152
-521.960	96.873	0.152	0.176
-520.945	-200.000	-0.064	0.365
-519.931	-3.949	0.131	0.092
-518.916	-200.000	-0.026	-0.181
-517.902	-27.412	-0.342	0.201
-516.887	-172.416	-0.106	-0.003
-515.872	81.126	-0.170	0.185
-514.858	68.228	0.126	0.130
-513.843	-74.804	0.135	0.049
-512.829	800.000	0.053	0.157
-511.814	800.000	0.060	0.219
-510.799	-131.331	0.333	0.044
-509.785	-200.000	-0.003	0.445
-508.770	247.688	-0.196	-0.333
-507.756	-52.150	0.206	-0.096
-506.741	125.650	0.102	0.130
-505.726	-115.748	-0.126	-0.024
-504.712	-200.000	0.024	0.227
-503.697	35.037	-0.226	0.200
-502.683	-200.000	-0.065	-0.324
-501.668	-200.000	-0.023	-0.306
-500.653	18.011	-0.197	-0.158
-499.639	-57.308	0.205	0.091
-498.624	76.121	-0.021	-0.022
-497.610	41.208	-0.052	0.047
-496.595	-9.842	-0.060	0.040
-495.581	-95.707	0.500	-0.135
-494.566	-200.000	0.003	-0.040
-493.551	424.374	0.098	-0.212
-492.537	800.000	-0.025	0.082
-491.522	-139.080	-0.250	-0.027
-490.508	-3.098	0.130	0.091
-489.493	389.818	0.134	0.279
-488.478	800.000	0.031	-0.118
-487.464	26.432	0.108	0.091
-486.449	100.605	-0.025	-0.029
-485.435	800.000	-0.041	-0.117
-484.420	-134.205	0.146	0.018
-483.405	-200.000	0.013	-0.075
-482.391	-175.528	0.272	0.007
-481.376	-45.736	0.083	-0.041
-480.362	118.817	0.120	0.149
-479.347	-200.000	0.008	0.379
-478.332	32.201	-0.166	0.144
-477.318	-19.268	0.199	0.124
-476.303	506.859	-0.058	0.136
-475.289	78.569	0.093	-0.101
-474.274	-200.000	-0.010	-0.190
-473.259	132.106	0.279	-0.362
-472.245	-18.199	0.229	-0.144
-471.230	157.069	0.118	0.164
-470.216	66.706	0.061	-0.063
-469.201	-118.976	-0.529	0.093
-468.186	33.104	-0.211	0.184
-467.172	466.074	-0.127	0.287
-466.157	-75.811	0.093	-0.033
-465.143	125.622	0.159	-0.202
-464.128	800.000	-0.034	0.134
-463.113	624.869	0.142	0.360
-462.099	62.387	0.110	0.111
-461.084	-100.656	0.166	-0.041
-460.070	-90.969	0.136	-0.039
-459.055	-51.399	-0.104	0.049
-458.040	-200.000	0.041	0.378
-457.026	-55.456	-0.090	0.041
-456.011	-50.715	0.168	0.080
-454.997	462.561	-0.020	0.044
-453.982	800.000	-0.047	0.138
-452.968	-200.000	0.051	0.299
-451.953	-62.345	0.263	0.110
-450.938	-200.000	-0.058	0.267
-449.924	553.193	-0.187	0.452
-448.909	5.309	-0.194	-0.143
-447.895	-128.544	-0.202	-0.029
-446.880	-91.559	0.150	0.043
-445.865	60.355	-0.270	0.269
-444.851	-200.000	-0.007	-0.309
-443.836	-200.000	-0.077	-0.405
-442.822	-200.000	-0.012	0.281
-441.807	-200.000	-0.041	0.372
-440.792	-29.584	-0.192	0.110
-439.778	800.000	-0.095	-0.316
-438.763	131.686	0.254	-0.328
-437.749	31.553	-0.109	0.094
-436.734	-200.000	-0.036	0.196
-435.719	416.534	0.130	-0.279
-434.705	-101.259	0.386	-0.095
-433.690	150.448	0.180	-0.246
-432.676	-190.809	-0.102	0.001
-431.661	-200.000	-0.059	0.289
-430.646	45.493	-0.335	-0.311
-429.632	27.932	-0.181	0.153
-428.617	401.042	0.170	0.357
-427.603	-75.545	-0.253	0.090
-426.588	31.372	-0.105	0.090
-425.573	-107.395	0.240	-0.053
-424.559	27.083	-0.194	-0.163
-423.544	144.669	0.091	-0.122
-422.530	-50.581	-0.321	-0.152
-421.515	-200.000	0.019	-0.209
-420.500	151.112	-0.110	-0.150
-419.486	142.227	0.198	0.263
-418.471	194.379	-0.120	0.183
-417.457	-200.000	0.014	-0.218
-416.442	224.762	0.156	-0.254
-415.428	-34.932	0.192	0.105
-414.413	45.909	-0.147	-0.136
-413.398	30.384	0.045	-0.039
-412.384	-6.728	0.353	0.241
-411.369	324.510	-0.052	-0.101
-410.355	134.651	0.130	-0.169
-409.340	223.580	-0.085	-0.137
-408.325	741.634	0.144	-0.388
-407.311	-114.725	-0.208	0.040
-406.296	-61.236	0.189	-0.080
-405.282	-200.000	-0.034	-0.151
-404.267	-171.394	0.317	-0.011
-403.252	800.000	0.141	-0.437
-402.238	85.649	-0.083	-0.091
-401.223	81.324	0.210	-0.228
-400.209	377.919	-0.113	-0.231
-399.194	-42.064	-0.132	0.068
-398.179	72.963	-0.212	-0.222
-397.165	-91.094	0.095	0.027
-396.150	-200.000	0.016	-0.448
-395.136	-70.166	-0.078	0.030
-394.121	355.793	0.193	0.385
-393.106	-102.501	-0.063	-0.015
-392.092	-92.060	0.100	-0.028
-391.077	166.089	-0.090	0.128
-390.063	14.771	-0.110	-0.087
-389.048	-67.414	-0.259	0.102
-388.033	-3.621	0.150	0.104
-387.019	66.838	0.214	-0.219
-386.004	-81.922	-0.241	0.079
-384.990	157.499	0.204	-0.283
-383.975	713.273	-0.097	-0.259
-382.960	39.439	-0.119	-0.107
-381.946	663.754	-0.117	0.301
-380.931	67.530	0.165	0.169
-379.917	-79.105	0.195	-0.066
-378.902	341.713	-0.059	0.115
-377.888	-145.437	0.054	-0.005
-376.873	187.363	0.240	0.359
-375.858	21.277	-0.241	0.196
-374.844	-140.651	0.239	-0.025
-373.829	59.112	-0.389	-0.383
-372.815	-2.801	0.129	-0.091
-371.800	-44.644	0.199	-0.100
-370.785	-200.000	0.019	-0.287
-369.771	-41.028	-0.211	0.109
-368.756	-37.020	0.190	0.102
-367.742	7.987	0.156	0.117
-366.727	26.191	0.234	0.196
-365.712	-200.000	-0.056	-0.261
-364.698	-150.556	-0.333	-0.025
-363.683	-100.308	-0.292	0.073
-362.669	80.617	-0.140	0.151
-361.654	-19.066	-0.288	0.180
-360.639	-200.000	0.029	0.337
-359.625	-10.848	0.153	-0.101
-358.610	356.250	0.044	-0.088
-357.596	420.128	-0.022	0.046
-356.581	73.947	0.090	-0.095
-355.566	800.000	0.052	0.186
-354.552	-200.000	-0.032	0.150
-353.537	-200.000	-0.002	0.014
-352.523	-104.497	0.262	-0.061
-351.508	-4.739	0.081	0.056
-350.493	-200.000	0.018	-0.329
-349.479	6.348	-0.304	0.226
-348.464	-79.611	0.275	0.093
-347.450	-200.000	0.002	-0.190
-346.435	579.370	0.061	0.150
-345.420	-24.106	0.301	0.180
-344.406	102.941	0.078	0.092
-343.391	155.093	-0.100	0.137
-342.377	-200.000	-0.027	0.289
-341.362	-57.822	0.083	0.036
-340.348	12.047	0.187	0.144
-339.333	-115.887	-0.102	-0.019
-338.318	359.834	-0.068	0.136
-337.304	259.111	0.072	-0.125
-336.289	-200.000	0.048	-0.366
-335.275	-75.899	-0.214	-0.076
-334.260	554.284	-0.091	-0.220
-333.245	-84.601	0.212	-0.067
-332.231	245.562	0.105	-0.177
-331.216	-60.860	0.189	0.080
-330.202	-200.000	0.031	-0.188
-329.187	-159.894	-0.020	0.001
-328.172	167.657	-0.152	-0.216
-327.158	-123.159	0.434	0.070
-326.143	339.545	0.107	0.208
-325.129	-31.326	-0.481	0.271
-324.114	-146.309	-0.303	0.027
-323.099	48.159	-0.112	-0.105
-322.085	115.948	0.216	0.264
-321.070	-159.268	0.223	0.013
-320.056	56.575	0.261	0.253
-319.041	-200.000	0.011	0.171
-318.026	-28.968	0.105	0.060
-317.012	-55.398	0.144	-0.065
-315.997	-68.949	0.093	-0.036
-314.983	133.828	0.187	-0.242
-313.968	18.100	0.179	-0.143
-312.953	182.811	-0.167	-0.246
-311.939	179.897	-0.100	0.147
-310.924	-97.936	0.148	-0.038
-309.910	20.290	0.232	0.187
-308.895	-50.696	0.251	0.118
-307.880	-31.009	0.127	-0.071
-306.866	366.756	0.116	0.234
-305.851	362.069	-0.210	-0.421
-304.837	-176.980	0.228	-0.006
-303.822	-43.399	0.096	-0.049
-302.807	-200.000	-0.023	-0.218
-301.793	459.523	-0.039	-0.088
-300.778	-172.363	-0.155	0.005
-299.764	47.369	0.240	0.223
-298.749	800.000	-0.085	-0.278
-297.735	169.018	-0.074	0.105
-296.720	-11.926	0.174	-0.114
-295.705	703.963	-0.045	-0.119
-294.691	311.661	-0.250	-0.468
-293.676	10.527	0.130	-0.099
-292.662	56.248	0.208	0.202
-291.647	-67.003	0.257	0.101
-290.632	-163.203	0.193	0.009
-289.618	800.000	0.058	-0.230
-288.603	332.778	0.055	0.106
-287.589	-200.000	-0.014	0.151
-286.574	800.000	0.049	-0.145
-285.559	-123.556	-0.322	0.051
-284.545	30.388	-0.382	-0.326
-283.530	800.000	0.054	0.215
-282.516	12.975	-0.250	0.193
-281.501	68.693	0.219	0.224
-280.486	115.436	0.210	0.256
-279.472	65.370	0.282	-0.285
-278.457	-108.050	-0.258	0.056
-277.443	577.896	-0.024	-0.058
-276.428	192.556	0.247	-0.372
-275.413	800.000	-0.090	0.343
-274.399	422.946	-0.179	0.383
-273.384	367.355	-0.146	0.294
-272.370	68.035	-0.134	-0.137
-271.355	-100.760	-0.285	-0.070
-270.340	-200.000	-0.028	-0.376
-269.326	240.183	-0.078	0.130
-268.311	-200.000	-0.019	0.097
-267.297	224.987	0.191	0.308
-266.282	-200.000	-0.026	0.143
-265.267	499.455	0.040	-0.093
-264.253	-200.000	0.043	0.243
-263.238	43.057	-0.085	0.077
-262.224	-54.448	0.241	0.109
-261.209	-200.000	0.081	0.000
-260.195	175.869	-0.137	-0.199
-259.180	21.487	-0.201	0.163
-258.165	197.416	-0.081	-0.124
-257.151	95.277	0.308	0.350
-256.136	800.000	-0.037	-0.120
-255.122	-200.000	-0.052	-0.246
-254.107	3.072	-0.149	0.108
-253.092	-200.000	-0.006	0.143
-252.078	-200.000	-0.006	0.126
-251.063	-24.341	0.137	0.082
-250.049	52.464	0.248	-0.236
-249.034	-200.000	-0.005	0.176
-248.019	62.245	-0.085	-0.085
-247.005	-133.976	0.286	-0.035
-245.990	-200.000	0.058	-0.416
-244.976	116.734	-0.158	0.193
-243.961	483.474	-0.134	0.304
-242.946	-200.000	-0.020	0.350
-241.932	-86.744	0.258	0.079
-240.917	159.986	-0.086	-0.120
-239.903	306.056	0.067	0.125
-238.888	187.818	-0.005	0.008
-237.873	-200.000	0.021	0.133
-236.859	95.096	-0.020	-0.023
-235.844	8.902	0.205	0.154
-234.830	491.031	-0.044	-0.099
-233.815	-200.000	-0.014	0.089
-232.800	-200.000	0.016	-0.339
-231.786	597.856	0.086	-0.212
-230.771	400.908	-0.047	0.098
-229.757	116.940	-0.045	-0.055
-228.742	271.093	0.073	0.127
-227.727	124.535	0.067	-0.084
-226.713	-87.760	0.158	-0.047
-225.698	-125.836	-0.083	-0.012
-224.684	-200.000	-0.012	-0.222
-223.669	-166.737	-0.138	0.006
-222.655	-38.781	-0.060	0.032
-221.640	269.189	-0.136	0.238
-220.625	81.551	-0.299	0.322
-219.611	-112.082	0.022	0.004
-218.596	-200.000	-0.036	0.224
-217.582	62.201	0.220	-0.218
-216.567	-82.494	0.227	-0.073
-215.552	-200.000	0.011	0.101
-214.538	-200.000	-0.046	0.240
-213.523	0.845	-0.047	-0.033
-212.509	283.551	-0.128	-0.229
-211.494	196.769	0.083	-0.125
-210.479	126.505	-0.186	0.235
-209.465	-25.819	0.136	0.080
-208.450	800.000	-0.077	0.236
-207.436	10.409	0.274	0.208
-206.421	-40.387	0.306	-0.159
-205.406	-145.304	-0.072	-0.006
-204.392	-153.814	-0.322	0.022
-203.377	-98.135	0.317	0.081
-202.363	194.767	-0.158	0.239
-201.348	310.491	0.142	0.265
-200.333	4.952	0.218	-0.160
-199.319	46.681	0.180	0.166
-198.304	48.964	-0.229	-0.214
-197.290	23.109	-0.387	-0.316
-196.275	-16.222	0.031	0.020
-195.260	-81.841	0.107	0.035
-194.246	-31.344	-0.157	0.088
-193.231	-132.889	0.214	-0.027
-192.217	-200.000	-0.252	0.001
-191.202	-121.150	-0.122	-0.020
-190.187	34.976	-0.267	0.232
-189.173	316.574	0.126	0.238
-188.158	-17.295	-0.252	0.158
-187.144	-67.108	-0.190	-0.074
-186.129	800.000	-0.080	0.259
-185.114	-83.332	0.168	-0.053
-184.100	-50.303	-0.236	0.111
-183.085	-43.543	-0.224	-0.112
-182.071	800.000	0.088	0.363
-181.056	-131.626	-0.203	-0.027
-180.042	-200.000	-0.004	-0.262
-179.027	-79.017	0.194	0.065
-178.012	-200.000	0.008	-0.121
-176.998	73.051	-0.124	0.129
-175.983	167.181	0.062	0.087
-174.969	55.864	-0.284	-0.273
-173.954	377.172	-0.070	-0.141
-172.939	800.000	-0.021	0.061
-171.925	36.858	-0.165	-0.145
-170.910	-68.414	-0.190	0.073
-169.896	-120.623	-0.280	-0.047
-168.881	-200.000	0.043	0.194
-167.866	274.601	-0.144	0.254
-166.852	-89.423	0.262	0.077
-165.837	310.478	-0.097	-0.181
-164.823	87.625	-0.065	-0.072
-163.808	37.693	0.103	-0.090
-162.793	-115.584	-0.399	0.075
-161.779	144.795	-0.115	0.153
-160.764	-151.801	0.249	0.018
-159.750	-163.182	-0.063	0.003
-158.735	-28.233	0.193	0.111
-157.720	-126.637	0.116	0.017
-156.706	217.011	-0.147	0.233
-155.691	312.769	-0.104	0.195
-154.677	-200.000	-0.008	0.170
-153.662	105.601	0.144	-0.169
-152.647	67.407	0.178	-0.180
-151.633	800.000	-0.038	-0.106
-150.618	113.064	-0.189	0.227
-149.604	225.363	-0.047	0.076
-148.589	552.505	0.057	-0.137
-147.574	-164.166	0.278	-0.013
-146.560	110.176	0.286	-0.342
-145.545	24.632	-0.136	-0.112
-144.531	-200.000	0.012	-0.118
-143.516	800.000	-0.070	-0.239
-142.502	-170.932	0.121	-0.004
-141.487	271.766	-0.132	-0.231
-140.472	98.112	-0.110	0.125
-139.458	-200.000	0.013	-0.067
-138.443	-124.169	0.110	0.017
-137.429	-87.407	-0.087	0.026
-136.414	800.000	-0.102	0.300
-135.399	-200.000	0.009	0.092
-134.385	-27.950	-0.222	0.128
-133.370	800.000	0.045	-0.138
-132.356	-78.580	0.184	-0.063
-131.341	34.289	0.329	-0.285
-130.326	800.000	0.052	0.149
-129.312	-6.020	0.246	0.167
-128.297	-137.568	0.185	-0.021
-127.283	90.935	0.105	0.117
-126.268	303.113	-0.196	-0.360
-125.253	-134.618	0.206	0.025
-124.239	165.615	-0.155	0.217
-123.224	-200.000	0.035	0.184
-122.210	325.451	0.160	-0.304
-121.195	444.778	-0.093	0.201
-120.180	800.000	0.060	0.171
-119.166	524.058	-0.072	0.168
-118.151	331.667	-0.126	0.242
-117.137	-72.076	-0.345	-0.127
-116.122	-200.000	0.018	-0.152
-115.107	376.761	-0.182	0.368
-114.093	-31.078	0.347	0.194
-113.078	-16.754	-0.221	0.139
-112.064	25.298	0.265	0.219
-111.049	171.279	0.108	-0.154
-110.034	-200.000	0.005	-0.107
-109.020	-130.980	-0.291	-0.039
-108.005	-144.252	-0.267	0.025
-106.991	141.733	-0.151	-0.198
-105.976	-89.908	-0.400	-0.116
-104.962	321.607	0.064	0.121
-103.947	-69.702	0.217	-0.082
-102.932	-91.928	-0.533	0.150
-101.918	-117.868	-0.353	0.063
-100.903	-118.569	-0.113	0.020
-99.889	-67.991	-0.188	0.073
-98.874	-83.475	0.226	0.072
-97.859	-175.595	-0.096	0.003
-96.845	-200.000	-0.019	0.232
-95.830	351.278	0.144	0.282
-94.816	-50.434	0.270	0.126
-93.801	52.043	-0.220	-0.207
-92.786	-200.000	-0.006	-0.113
-91.772	111.867	-0.129	0.154
-90.757	-200.000	-0.001	-0.011
-89.743	7.630	-0.274	-0.203
-88.728	-34.793	-0.123	0.067
-87.713	49.784	0.098	-0.091
-86.699	-85.424	-0.059	-0.018
-85.684	485.104	-0.154	0.347
-84.670	94.970	-0.074	0.083
-83.655	74.567	0.555	0.578
-82.640	-200.000	0.003	-0.252
-81.626	-200.000	-0.040	-0.367
-80.611	360.107	-0.002	0.005
-79.597	-89.805	-0.131	0.038
-78.582	-120.560	-0.167	-0.028
-77.567	-200.000	-0.015	0.244
-76.553	-12.447	-0.186	-0.120
-75.538	-113.084	-0.104	0.020
-74.524	-22.144	-0.156	0.094
-73.509	389.365	-0.070	-0.144
-72.494	-24.570	-0.225	-0.133
-71.480	-140.252	-0.381	0.040
-70.465	-50.502	0.029	0.014
-69.451	169.601	0.107	0.151
-68.436	220.975	-0.177	0.281
-67.422	-163.003	-0.209	-0.010
-66.407	-73.915	0.397	-0.143
-65.392	-114.177	0.220	-0.042
-64.378	-32.614	-0.168	0.092
-63.363	800.000	0.083	-0.298
-62.349	-200.000	-0.055	0.581
-61.334	-41.109	-0.803	-0.411
-60.319	249.494	0.282	0.472
-59.305	-200.000	0.024	-1.058
-58.290	55.044	0.714	0.683
-57.276	-200.000	0.206	1.315
-56.261	-200.000	85.425	495.436
-55.246	516.460	1404.466	3247.896
-54.232	179.226	2643.280	3826.116
-53.217	112.207	2375.658	2841.388
-52.203	46.197	1980.777	1815.389
-51.188	40.478	1766.164	1573.409
-50.173	37.906	1720.340	1512.612
-49.159	52.392	1761.387	1662.565
-48.144	56.006	1780.172	1708.590
-47.130	40.458	1740.312	1549.982
-46.115	37.516	1725.934	1514.248
-45.100	37.385	1720.740	1508.619
-44.086	37.371	1717.488	1505.598
-43.071	37.294	1715.174	1502.917
-42.057	37.310	1712.639	1500.756
-41.042	37.360	1710.630	1499.326
-40.027	37.355	1708.664	1497.505
-39.013	37.290	1706.744	1495.257
-37.998	37.297	1704.929	1493.662
-36.984	37.265	1703.614	1492.208
-35.969	37.462	1701.892	1492.153
-34.954	37.545	1700.043	1491.105
-33.940	37.563	1698.356	1489.703
-32.925	37.562	1696.007	1487.577
-31.911	37.525	1694.980	1486.335
-30.896	37.533	1693.061	1484.657
-29.881	37.559	1691.246	1483.206
-28.867	37.598	1689.463	1481.880
-27.852	37.508	1688.696	1480.460
-26.838	37.467	1687.177	1478.758
-25.823	37.608	1685.292	1478.117
-24.809	37.514	1684.104	1476.304
-23.794	37.546	1682.633	1475.195
-22.779	37.536	1681.075	1473.700
-21.765	37.539	1679.556	1472.335
-20.750	37.523	1677.849	1470.652
-19.736	37.379	1676.844	1468.632
-18.721	37.546	1674.714	1467.961
-17.706	37.478	1673.410	1466.254
-16.692	37.498	1671.863	1464.985
-15.677	37.530	1670.702	1464.154
-14.663	37.526	1669.462	1462.975
-13.648	37.537	1667.730	1461.482
-12.633	37.585	1666.169	1460.422
-11.619	37.517	1664.522	1458.410
-10.604	37.581	1662.827	1457.343
-9.590	37.517	1661.683	1455.809
-8.575	37.531	1660.109	1454.476
-7.560	37.517	1658.896	1453.245
-6.546	37.588	1657.430	1452.437
-5.531	37.494	1656.635	1450.980
-4.517	37.476	1655.318	1449.632
-3.502	37.405	1654.446	1448.283
-2.487	37.546	1653.079	1448.080
-1.473	37.412	1641.740	1437.099
-0.458	35.026	1621.470	1401.852
0.556	32.747	1620.841	1365.514
1.571	30.049	1645.011	1365.894
2.586	28.904	1658.105	1368.124
3.600	24.873	1601.211	1292.035
4.615	14.570	1483.969	1128.025
5.629	6.301	1413.705	1021.060
6.644	4.787	1405.125	1005.004
7.659	4.667	1403.643	1003.079
8.673	4.570	1402.726	1001.709
9.688	4.676	1401.544	1001.463
10.702	4.671	1398.403	999.097
11.717	8.210	1405.049	1026.560
12.731	17.229	1421.651	1097.075
13.746	22.079	1429.349	1134.320
14.761	21.163	1426.922	1126.388
15.775	20.185	1424.029	1117.705
16.790	19.115	1420.967	1108.317
17.804	18.306	1418.546	1101.125
18.819	17.894	1417.304	1097.420
19.834	17.637	1416.108	1094.741
20.848	17.506	1414.267	1092.383
21.863	17.185	1413.482	1089.622
22.877	17.028	1412.577	1087.821
23.892	17.052	1411.232	1086.841
24.907	17.036	1410.601	1086.157
25.921	17.077	1409.670	1085.609
26.936	17.087	1408.920	1084.997
27.950	17.077	1407.666	1083.873
28.965	17.218	1406.784	1083.999
29.980	17.347	1405.492	1083.727
30.994	17.447	1404.259	1083.319
32.009	17.434	1403.024	1082.185
33.023	17.389	1401.947	1080.971
34.038	17.336	1400.508	1079.433
35.053	17.161	1399.345	1077.329
36.067	17.287	1398.244	1077.187
37.082	17.220	1397.715	1076.256
38.096	17.249	1396.695	1075.562
39.111	17.453	1395.111	1075.539
40.126	17.309	1394.565	1074.108
41.140	16.998	1393.722	1071.401
42.155	16.930	1393.234	1070.504
43.169	16.929	1393.042	1070.258
44.184	16.999	1392.336	1070.061
45.199	17.001	1391.998	1069.716
46.213	17.120	1391.734	1070.170
47.228	17.159	1390.862	1069.651
48.242	17.231	1389.616	1069.051
49.257	17.101	1388.145	1067.008
50.271	17.201	1386.277	1066.107
51.286	17.249	1384.855	1065.218
52.301	17.173	1383.636	1063.712
53.315	17.145	1382.598	1062.641
54.330	17.006	1381.746	1061.026
55.344	16.934	1380.608	1059.608
56.359	17.073	1378.700	1058.918
57.374	16.909	1378.545	1057.679
58.388	16.877	1376.977	1056.184
59.403	16.907	1377.202	1056.449
60.417	16.881	1376.220	1055.444
61.432	16.769	1375.877	1054.389
62.447	16.884	1374.392	1053.871
63.461	16.794	1372.975	1052.133
64.476	16.695	1372.196	1050.826
65.490	16.753	1370.684	1049.940
66.505	16.782	1369.496	1049.114
67.520	16.784	1368.399	1048.193
68.534	16.814	1367.062	1047.260
69.549	16.871	1366.139	1046.814
70.563	16.783	1365.371	1045.588
71.578	16.735	1363.894	1044.068
72.593	16.761	1362.493	1043.068
73.607	16.635	1362.131	1041.921
74.622	16.636	1361.234	1041.149
75.636	16.699	1360.401	1040.804
76.651	16.673	1359.715	1040.027
77.666	16.614	1360.023	1039.812
78.680	16.714	1359.233	1039.730
79.695	16.748	1358.285	1039.119
80.709	16.771	1357.453	1038.531
81.724	16.863	1356.940	1038.610
82.739	16.980	1355.817	1038.376
83.753	17.080	1355.049	1038.311
84.768	17.295	1353.514	1038.356
85.782	17.312	1352.794	1037.814
86.797	17.225	1351.570	1036.253
87.812	17.183	1350.158	1034.820
88.826	17.316	1348.578	1034.331
89.841	17.226	1348.104	1033.328
90.855	17.260	1347.514	1032.990
91.870	17.262	1346.559	1032.178
92.884	17.295	1345.164	1031.219
93.899	17.349	1344.758	1031.142
94.914	17.344	1343.754	1030.250
95.928	17.325	1342.645	1029.196
96.943	17.246	1341.916	1028.066
97.957	17.273	1341.160	1027.558
98.972	17.163	1340.101	1025.991
99.987	17.212	1339.040	1025.389
101.001	17.309	1337.306	1024.550
102.016	17.279	1336.634	1023.765
103.030	17.221	1335.879	1022.750
104.045	17.228	1334.748	1021.832
105.060	17.195	1333.361	1020.480
106.074	17.029	1332.054	1018.395
107.089	16.793	1330.638	1015.807
108.103	16.844	1329.366	1015.053
109.118	16.793	1327.945	1013.574
110.133	16.817	1326.752	1012.715
111.147	16.933	1325.078	1012.042
112.162	16.958	1324.126	1011.377
113.176	16.878	1323.358	1010.224
114.191	16.939	1322.263	1009.659
115.206	16.967	1321.112	1008.859
116.220	17.001	1319.790	1007.959
117.235	16.851	1318.684	1006.137
118.249	16.957	1317.789	1005.994
119.264	16.926	1316.481	1004.722
120.279	16.908	1315.248	1003.586
121.293	16.923	1314.021	1002.651
122.308	16.786	1313.423	1001.296
123.322	16.802	1312.068	1000.267
124.337	16.781	1311.140	999.345
125.352	16.776	1309.663	998.107
126.366	16.753	1308.590	997.063
127.381	16.782	1307.827	996.566
128.395	16.733	1306.725	995.345
129.410	16.778	1305.871	994.873
130.424	16.858	1305.070	994.647
131.439	16.921	1304.137	994.218
132.454	16.967	1303.214	993.690
133.468	17.035	1302.476	993.443
134.483	17.007	1301.890	992.743
135.497	16.954	1300.887	991.579
136.512	17.088	1299.418	991.156
137.527	16.992	1298.472	989.783
138.541	17.132	1296.673	989.144
139.556	17.139	1295.433	988.147
140.570	17.145	1295.027	987.789
141.585	17.290	1293.350	987.260
142.600	17.297	1292.247	986.374
143.614	17.467	1291.042	986.351
144.629	17.460	1290.035	985.453
145.643	17.406	1288.909	984.198
146.658	17.160	1287.776	981.823
147.673	17.221	1285.945	980.691
148.687	17.122	1284.608	979.014
149.702	17.110	1283.358	977.903
150.716	16.997	1282.577	976.572
151.731	17.025	1281.429	975.771
152.746	17.106	1279.812	974.920
153.760	17.149	1278.632	974.181
154.775	17.164	1277.620	973.409
155.789	17.252	1276.777	973.188
156.804	17.204	1275.534	971.878
157.819	17.292	1274.475	971.487
158.833	17.266	1274.028	970.912
159.848	17.363	1272.751	970.406
160.862	17.370	1272.010	969.799
161.877	17.308	1270.564	968.255
162.892	17.104	1269.715	966.364
163.906	17.095	1268.698	965.451
164.921	17.099	1267.710	964.635
165.935	17.187	1266.491	964.124
166.950	17.269	1266.183	964.267
167.964	17.288	1265.352	963.657
168.979	17.150	1264.741	962.328
169.994	17.225	1263.702	961.874
171.008	17.181	1262.840	960.885
172.023	17.327	1262.065	961.036
173.037	17.418	1261.595	961.108
174.052	17.409	1260.540	960.168
175.067	17.261	1259.219	958.241
176.081	17.225	1258.036	957.054
177.096	17.186	1257.283	956.173
178.110	17.227	1256.062	955.394
179.125	17.227	1255.116	954.589
180.140	17.260	1253.896	953.760
181.154	17.339	1252.649	953.172
182.169	17.351	1251.173	952.030
183.183	17.460	1250.344	951.926
184.198	17.432	1249.384	950.955
185.213	17.445	1248.368	950.172
186.227	17.473	1247.162	949.326
187.242	17.433	1246.315	948.372
188.256	17.641	1244.979	948.430
189.271	17.638	1244.148	947.695
190.286	17.557	1242.812	946.146
191.300	17.231	1242.299	943.859
192.315	17.187	1240.820	942.407
193.329	17.115	1240.448	941.646
194.344	17.250	1239.971	941.949
195.359	17.396	1238.987	941.925
196.373	17.475	1238.604	941.985
197.388	17.626	1238.315	942.521
198.402	17.665	1237.765	942.234
199.417	17.734	1237.466	942.301
200.432	17.738	1236.412	941.437
201.446	17.820	1235.586	941.177
202.461	17.849	1234.400	940.355
203.475	17.851	1233.625	939.690
204.490	17.759	1232.433	938.191
205.504	17.698	1231.212	936.844
206.519	17.785	1229.747	936.127
207.534	17.672	1228.670	934.605
208.548	17.701	1227.687	933.932
209.563	17.714	1227.103	933.476
210.577	17.708	1226.262	932.721
211.592	17.845	1225.170	932.557
212.607	17.770	1225.033	931.957
213.621	17.903	1223.545	931.472
214.636	17.859	1222.654	930.471
215.650	17.848	1221.799	929.674
216.665	17.884	1221.017	929.194
217.680	17.990	1220.083	928.979
218.694	18.094	1219.350	928.904
219.709	18.007	1218.512	927.711
220.723	18.030	1217.532	927.005
221.738	17.912	1217.028	925.901
222.753	17.888	1216.256	925.104
223.767	17.987	1215.791	925.201
224.782	18.180	1214.574	925.240
225.796	18.142	1214.043	924.547
226.811	18.133	1213.391	923.920
227.826	17.998	1212.783	922.644
228.840	18.060	1211.476	921.907
229.855	18.026	1210.809	921.134
230.869	17.991	1209.971	920.225
231.884	17.944	1209.430	919.481
232.899	18.018	1208.311	918.947
233.913	17.838	1207.531	917.302
234.928	17.882	1207.014	917.064
235.942	17.856	1206.326	916.320
236.957	17.877	1205.520	915.743
237.972	17.844	1204.570	914.761
238.986	17.851	1204.151	914.402
240.001	17.994	1202.713	913.995
241.015	17.997	1202.140	913.492
242.030	17.996	1201.525	912.941
243.045	18.085	1201.031	912.957
244.059	18.077	1200.065	912.099
245.074	18.096	1199.306	911.546
246.088	18.268	1197.981	911.373
247.103	18.358	1197.348	911.287
248.117	18.421	1196.647	911.009
249.132	18.375	1196.058	910.237
250.147	18.540	1195.697	910.758
251.161	18.659	1195.093	910.848
252.176	18.575	1194.338	909.748
253.190	18.660	1193.774	909.690
254.205	18.736	1193.048	909.456
255.220	18.764	1192.520	909.122
256.234	18.667	1191.783	907.965
257.249	18.690	1191.027	907.429
258.263	18.775	1189.749	906.828
259.278	18.788	1189.631	906.724
260.293	18.755	1188.917	905.926
261.307	18.751	1188.630	905.606
262.322	18.927	1187.903	905.898
263.336	18.866	1187.147	904.922
264.351	18.947	1186.354	904.664
265.366	18.876	1185.687	903.699
266.380	18.880	1184.842	903.000
267.395	18.827	1184.374	902.283
268.409	18.848	1183.260	901.467
269.424	18.771	1182.542	900.434
270.439	18.824	1182.404	900.526
271.453	18.810	1181.239	899.487
272.468	18.673	1180.517	898.143
273.482	18.682	1179.745	897.522
274.497	18.712	1179.456	897.381
275.512	18.804	1178.324	896.918
276.526	18.823	1177.503	896.316
277.541	18.777	1176.965	895.587
278.555	18.841	1176.446	895.444
279.570	18.924	1175.695	895.227
280.585	18.965	1174.938	894.785
281.599	18.969	1173.630	893.728
282.614	18.876	1172.701	892.461
283.628	18.924	1171.339	891.591
284.643	18.857	1170.659	890.648
285.657	18.928	1170.006	890.441
286.672	18.876	1168.913	889.264
287.687	18.946	1167.626	888.566
288.701	18.926	1167.168	888.038
289.716	18.908	1166.139	887.081
290.730	18.957	1165.661	886.890
291.745	19.074	1164.731	886.706
292.760	19.029	1164.250	886.034
293.774	18.975	1164.015	885.498
294.789	19.025	1163.507	885.292
295.803	19.131	1162.533	885.017
296.818	19.112	1161.208	883.829
297.833	19.068	1160.516	883.001
298.847	19.148	1159.912	882.873
299.862	19.176	1158.744	882.049
300.876	19.131	1158.524	881.574
301.891	19.192	1157.640	881.131
302.906	19.254	1156.894	880.806
303.920	19.307	1156.257	880.515
304.935	19.411	1155.738	880.571
305.949	19.490	1154.951	880.297
306.964	19.453	1154.161	879.427
307.979	19.426	1153.326	878.575
308.993	19.279	1153.025	877.520
310.008	19.482	1151.958	877.664
311.022	19.491	1150.837	876.775
312.037	19.419	1150.079	875.759
313.052	19.356	1149.079	874.600
314.066	19.242	1148.195	873.270
315.081	19.178	1147.326	872.207
316.095	19.251	1146.564	871.921
317.110	19.287	1145.792	871.441
318.125	19.327	1145.082	871.023
319.139	19.213	1144.436	869.879
320.154	19.214	1143.553	869.139
321.168	19.223	1143.393	868.982
322.183	19.315	1142.390	868.607
323.197	19.293	1141.865	868.022
324.212	19.337	1141.049	867.547
325.227	19.263	1140.811	866.917
326.241	19.333	1140.056	866.619
327.256	19.285	1139.453	865.838
328.270	19.302	1138.049	864.784
329.285	19.318	1137.134	864.092
330.300	19.274	1136.300	863.161
331.314	19.430	1134.695	862.644
332.329	19.293	1134.393	861.655
333.343	19.521	1133.094	861.729
334.358	19.492	1132.329	860.925
335.373	19.562	1131.765	860.773
336.387	19.628	1131.369	860.722
337.402	19.515	1130.888	859.715
338.416	19.590	1130.124	859.433
339.431	19.575	1129.334	858.685
340.446	19.866	1128.716	859.584
341.460	19.838	1128.078	858.883
342.475	19.792	1127.187	857.896
343.489	19.894	1126.025	857.446
344.504	19.987	1125.123	857.143
345.519	20.025	1124.370	856.679
346.533	20.027	1123.295	855.797
347.548	19.987	1123.065	855.348
348.562	20.104	1122.074	855.093
349.577	20.016	1120.790	853.607
350.592	19.839	1120.307	852.292
351.606	19.712	1119.521	850.989
352.621	19.738	1118.704	850.423
353.635	19.669	1117.972	849.453
354.650	19.835	1117.701	849.988
355.665	19.801	1116.775	849.039
356.679	19.891	1116.069	848.871
357.694	19.797	1115.955	848.246
358.708	19.833	1115.045	847.658
359.723	19.850	1114.440	847.207
360.738	19.969	1113.927	847.324
361.752	19.986	1113.246	846.812
362.767	19.862	1112.669	845.691
363.781	19.887	1112.014	845.245
364.796	20.085	1111.415	845.677
365.810	20.118	1110.824	845.316
366.825	20.213	1110.457	845.426
367.840	20.304	1110.103	845.524
368.854	20.332	1109.484	845.112
369.869	20.317	1108.554	844.258
370.883	20.311	1107.296	843.193
371.898	20.243	1106.674	842.316
372.913	20.338	1105.690	841.955
373.927	20.271	1105.219	841.196
374.942	20.316	1104.992	841.168
375.956	20.397	1104.398	841.035
376.971	20.295	1103.889	840.078
377.986	20.393	1103.232	839.978
379.000	20.485	1102.687	839.932
380.015	20.547	1102.012	839.645
381.029	20.518	1101.740	839.220
382.044	20.513	1100.758	838.375
383.059	20.520	1099.758	837.574
384.073	20.509	1098.951	836.833
385.088	20.534	1098.208	836.314
386.102	20.595	1097.023	835.630
387.117	20.534	1095.768	834.305
388.132	20.414	1095.321	833.318
389.146	20.455	1094.228	832.606
390.161	20.384	1093.562	831.687
391.175	20.383	1092.857	831.070
392.190	20.564	1092.170	831.343
393.205	20.591	1091.342	830.768
394.219	20.602	1090.455	830.073
395.234	20.458	1089.736	828.762
396.248	20.504	1088.415	827.905
397.263	20.504	1087.441	827.089
398.278	20.489	1086.863	826.506
399.292	20.405	1086.054	825.418
400.307	20.425	1085.076	824.698
401.321	20.388	1084.832	824.263
402.336	20.332	1084.266	823.497
403.350	20.452	1083.374	823.311
404.365	20.523	1082.776	823.124
405.380	20.461	1082.083	822.227
406.394	20.557	1081.627	822.264
407.409	20.621	1080.526	821.655
408.423	20.800	1079.622	821.741
409.438	20.826	1079.518	821.714
410.453	20.722	1078.868	820.652
411.467	20.892	1077.702	820.495
412.482	20.993	1077.097	820.437
413.496	20.908	1076.827	819.758
414.511	20.911	1076.456	819.417
415.526	20.973	1075.713	819.072
416.540	20.862	1075.672	818.447
417.555	21.023	1074.862	818.515
418.569	20.986	1074.111	817.698
419.584	20.992	1073.486	817.175
420.599	21.058	1072.746	816.851
421.613	148.779	1402.030	1778.666
422.628	137.092	1450.022	1778.784
