DTS Sentinel unit serial number:	SN413079Multiplexer serial number:	ORYXHardware model number:	OX4-SRSoftware version number:	ORYX F/W v4.00 Oryx Data Collector v3.7.2.0data status	okinstallation	princeton_trtdifferential loss correction	single-endedforward channel	channel 2reverse channel	N/Adate	2019/09/11time	12:37:11forward acquisition time	60.00reverse acquisition time	0.00gamma	496.2192k internal	0.2296k external	0.2296temperature offset calibration	0.9963default loss term (dB/km)	0.3790temperature slope calibration	1.0000multiplexer offset coefficient	1.0000multiplexer slope coefficient	1.0000fibre end	0.00T internal ref (°C)	40.75T ext. ref 1 (°C)	0.21T ext. ref 2 (°C)	38.29length (m)	temperature (°C)	Stokes	anti-Stokes-747.200	89.481	-0.140	0.160
-746.185	199.379	0.173	0.271
-745.171	-106.226	-0.246	-0.056
-744.156	800.000	-0.017	-0.065
-743.142	-200.000	-0.038	0.340
-742.127	-181.278	-0.226	0.005
-741.112	-200.000	0.026	0.187
-740.098	-10.247	-0.188	0.128
-739.083	27.134	-0.093	-0.080
-738.069	31.518	-0.291	0.255
-737.054	-200.000	0.004	0.113
-736.039	-200.000	0.018	0.122
-735.025	49.375	0.104	-0.100
-734.010	-200.000	0.043	0.329
-732.996	-89.196	-0.230	0.069
-731.981	42.891	-0.226	-0.210
-730.966	-200.000	-0.011	0.296
-729.952	-123.471	0.552	-0.090
-728.937	-0.177	0.063	0.046
-727.923	-184.684	-0.269	0.004
-726.908	-200.000	-0.043	-0.213
-725.894	446.051	-0.085	0.190
-724.879	679.009	-0.051	-0.136
-723.864	800.000	0.053	-0.202
-722.850	-86.214	-0.204	0.064
-721.835	-70.383	0.222	-0.086
-720.821	-200.000	0.025	-0.216
-719.806	192.723	0.012	0.019
-718.791	-0.035	0.088	0.064
-717.777	-55.638	0.233	0.106
-716.762	-200.000	0.002	0.144
-715.748	-200.000	0.029	-0.322
-714.733	-97.669	-0.229	-0.060
-713.718	202.597	-0.129	-0.203
-712.704	-59.683	-0.135	0.059
-711.689	230.158	-0.177	-0.295
-710.675	-6.857	-0.242	-0.168
-709.660	-38.428	0.335	-0.181
-708.645	-50.494	0.068	-0.033
-707.631	92.674	0.396	-0.456
-706.616	420.782	0.093	-0.202
-705.602	-161.186	-0.066	0.004
-704.587	-134.299	0.444	-0.056
-703.572	-130.345	-0.626	0.087
-702.558	633.998	-0.159	-0.411
-701.543	-27.713	-0.332	-0.196
-700.529	149.275	0.112	-0.155
-699.514	-73.046	0.269	-0.101
-698.499	-142.642	0.242	-0.024
-697.485	-124.329	-0.078	-0.012
-696.470	-102.134	0.155	0.038
-695.456	-101.067	-0.295	0.074
-694.441	-200.000	0.024	0.197
-693.426	800.000	-0.008	0.031
-692.412	800.000	-0.055	-0.165
-691.397	-115.108	-0.081	0.016
-690.383	-123.558	0.352	-0.057
-689.368	-55.780	0.148	0.067
-688.354	-200.000	0.025	-0.175
-687.339	-87.182	0.281	-0.087
-686.324	-58.913	0.228	0.101
-685.310	800.000	0.053	0.166
-684.295	-43.172	0.146	-0.075
-683.281	400.716	-0.139	-0.297
-682.266	184.817	-0.108	-0.164
-681.251	800.000	-0.032	0.091
-680.237	-200.000	0.035	-0.455
-679.222	39.957	-0.225	-0.206
-678.208	-119.737	0.219	0.038
-677.193	-124.556	-0.255	-0.040
-676.178	76.297	-0.174	0.187
-675.164	-9.475	0.153	0.104
-674.149	791.075	0.022	0.062
-673.135	-200.000	-0.020	-0.342
-672.120	29.181	-0.095	-0.082
-671.105	800.000	0.074	-0.213
-670.091	4.378	0.026	-0.020
-669.076	160.953	0.135	0.192
-668.062	-8.514	-0.077	-0.053
-667.047	-200.000	-0.036	-0.200
-666.032	-200.000	0.000	0.027
-665.018	-39.431	0.350	0.187
-664.003	-116.416	-0.217	-0.041
-662.989	-200.000	0.034	0.214
-661.974	-200.000	0.112	0.000
-660.959	-200.000	-0.034	0.163
-659.945	800.000	0.036	-0.139
-658.930	140.832	0.053	-0.071
-657.916	-82.896	0.259	0.085
-656.901	101.908	0.241	-0.286
-655.886	800.000	0.061	0.206
-654.872	29.625	-0.088	-0.076
-653.857	45.412	0.171	-0.160
-652.843	-89.439	-0.052	0.016
-651.828	16.595	0.136	-0.110
-650.814	-83.981	-0.162	0.052
-649.799	800.000	0.045	0.130
-648.784	800.000	0.073	-0.228
-647.770	-169.146	-0.135	-0.005
-646.755	690.525	0.159	-0.423
-645.741	-70.481	0.071	-0.027
-644.726	110.921	-0.179	0.220
-643.711	-200.000	0.077	-0.349
-642.697	-200.000	-0.022	-0.245
-641.682	-30.821	0.243	-0.140
-640.668	-74.430	0.273	0.100
-639.653	59.412	0.251	-0.252
-638.638	438.015	-0.087	0.193
-637.624	32.095	-0.021	-0.018
-636.609	800.000	0.088	-0.309
-635.595	6.583	-0.215	0.163
-634.580	-200.000	-0.013	0.291
-633.565	222.523	0.072	-0.118
-632.551	61.532	0.064	-0.064
-631.536	-132.219	-0.351	0.046
-630.522	350.997	0.155	-0.312
-629.507	-63.459	0.237	0.099
-628.492	215.673	0.063	0.102
-627.478	41.075	0.045	-0.041
-626.463	440.638	-0.012	-0.026
-625.449	-84.995	-0.032	0.010
-624.434	-15.235	0.379	0.247
-623.419	800.000	0.033	-0.132
-622.405	120.223	0.113	0.143
-621.390	-85.600	0.245	-0.078
-620.376	-166.982	-0.299	0.012
-619.361	800.000	0.046	-0.148
-618.346	800.000	-0.066	-0.287
-617.332	-42.201	-0.224	0.117
-616.317	-85.722	0.380	-0.120
-615.303	124.600	-0.173	0.221
-614.288	-9.824	-0.070	-0.048
-613.273	-90.284	0.205	-0.060
-612.259	-200.000	0.007	-0.101
-611.244	-200.000	-0.001	0.038
-610.230	800.000	-0.036	-0.103
-609.215	178.788	-0.189	-0.280
-608.201	44.424	-0.119	-0.111
-607.186	-21.778	-0.446	-0.276
-606.171	-170.676	-0.240	0.008
-605.157	52.220	-0.168	-0.163
-604.142	-71.963	0.305	-0.115
-603.128	229.607	0.097	0.161
-602.113	-114.521	0.132	0.026
-601.098	-58.414	-0.395	-0.175
-600.084	800.000	0.161	0.574
-599.069	150.729	0.122	0.168
-598.055	-200.000	0.011	-0.137
-597.040	-47.180	-0.136	-0.068
-596.025	394.120	-0.032	-0.067
-595.011	152.474	0.163	0.227
-593.996	-200.000	0.023	0.209
-592.982	114.454	-0.135	0.167
-591.967	-151.750	0.289	-0.022
-590.952	344.856	0.128	0.255
-589.938	-200.000	0.022	0.139
-588.923	481.267	-0.100	-0.231
-587.909	-134.659	0.235	0.029
-586.894	86.141	0.169	-0.189
-585.879	800.000	-0.014	0.060
-584.865	-200.000	0.037	0.262
-583.850	-72.152	-0.135	0.051
-582.836	455.517	-0.086	0.194
-581.821	-1.899	0.231	0.165
-580.806	-125.279	0.307	-0.048
-579.792	-82.201	-0.127	0.042
-578.777	-34.689	-0.213	0.118
-577.763	-188.210	-0.187	-0.002
-576.748	27.559	-0.176	0.150
-575.733	-64.863	-0.082	0.033
-574.719	-8.160	-0.277	0.190
-573.704	-200.000	0.017	0.097
-572.690	800.000	-0.030	-0.103
-571.675	-200.000	-0.042	-0.287
-570.661	170.766	-0.112	-0.163
-569.646	-145.753	-0.188	0.017
-568.631	-88.679	-0.109	-0.033
-567.617	234.526	0.040	-0.067
-566.602	-111.697	0.112	-0.023
-565.588	491.851	0.084	-0.196
-564.573	726.859	-0.092	-0.248
-563.558	68.354	-0.212	-0.221
-562.544	10.363	-0.178	0.137
-561.529	369.238	-0.170	-0.350
-560.515	-200.000	0.032	0.296
-559.500	-200.000	-0.021	0.107
-558.485	-200.000	-0.008	-0.145
-557.471	-183.391	-0.284	0.005
-556.456	112.571	-0.024	0.029
-555.442	142.657	0.186	-0.250
-554.427	-127.361	0.246	0.036
-553.412	-88.466	0.041	-0.012
-552.398	-138.129	0.312	-0.035
-551.383	8.825	-0.214	-0.164
-550.369	197.548	-0.010	-0.015
-549.354	-86.346	0.158	-0.049
-548.339	-168.681	-0.106	0.004
-547.325	-122.031	0.130	0.022
-546.310	-117.621	0.227	-0.041
-545.296	673.964	-0.094	0.248
-544.281	-182.886	-0.289	-0.005
-543.266	800.000	-0.024	0.085
-542.252	-200.000	0.020	-0.158
-541.237	15.958	0.030	0.024
-540.223	-200.000	0.015	-0.257
-539.208	204.045	-0.190	-0.299
-538.193	-200.000	-0.019	-0.202
-537.179	-159.167	0.336	-0.019
-536.164	276.196	-0.183	-0.330
-535.150	176.018	0.059	-0.086
-534.135	91.778	0.048	0.055
-533.121	-200.000	-0.000	-0.090
-532.106	800.000	0.141	-0.512
-531.091	-200.000	-0.011	-0.139
-530.077	-151.565	0.054	0.004
-529.062	-35.129	-0.285	0.158
-528.048	-128.346	-0.462	-0.067
-527.033	-74.257	-0.108	-0.040
-526.018	169.327	-0.155	-0.224
-525.004	-110.154	0.051	0.011
-523.989	-200.000	0.004	0.106
-522.975	-86.201	0.229	0.071
-521.960	-56.157	-0.142	-0.064
-520.945	-99.680	0.203	-0.052
-519.931	-147.616	0.165	-0.014
-518.916	12.277	0.111	0.086
-517.902	46.979	-0.227	0.214
-516.887	74.375	-0.037	0.039
-515.872	800.000	-0.158	0.456
-514.858	-200.000	-0.149	0.663
-513.843	1.663	-0.195	-0.142
-512.829	-109.579	0.241	-0.052
-511.814	12.384	-0.069	0.054
-510.799	800.000	0.039	-0.131
-509.785	723.284	-0.072	0.195
-508.770	166.153	-0.020	-0.029
-507.756	107.110	0.075	-0.090
-506.741	-99.912	0.386	-0.098
-505.726	522.098	-0.095	0.226
-504.712	-126.831	0.098	-0.015
-503.697	-85.855	0.305	-0.096
-502.683	-75.824	0.088	0.032
-501.668	-200.000	0.023	-0.229
-500.653	53.596	-0.095	-0.092
-499.639	545.116	-0.227	0.548
-498.624	247.224	0.127	0.217
-497.610	39.542	0.195	-0.177
-496.595	67.800	-0.099	0.103
-495.581	-71.864	-0.238	0.090
-494.566	8.849	-0.280	0.214
-493.551	71.334	0.165	0.174
-492.537	87.394	-0.098	-0.109
-491.522	-200.000	0.031	-0.269
-490.508	4.637	-0.068	-0.051
-489.493	-185.076	-0.305	0.005
-488.478	-140.817	0.165	-0.017
-487.464	-200.000	-0.009	0.081
-486.449	-125.153	0.188	0.029
-485.435	-61.204	-0.114	0.048
-484.420	-139.147	-0.083	-0.009
-483.405	-144.033	-0.316	-0.030
-482.391	-200.000	-0.011	0.124
-481.376	-69.878	-0.267	-0.103
-480.362	-36.181	-0.098	0.054
-479.347	-106.357	-0.331	-0.075
-478.332	800.000	0.125	0.372
-477.318	800.000	0.027	0.119
-476.303	113.332	-0.074	-0.090
-475.289	16.204	0.061	0.049
-474.274	-200.000	-0.048	-0.298
-473.259	-200.000	0.007	-0.064
-472.245	12.626	0.307	0.239
-471.230	-65.930	0.359	0.145
-470.216	-200.000	-0.003	-0.048
-469.201	166.984	-0.227	-0.326
-468.186	28.844	0.302	-0.259
-467.172	-43.692	-0.168	0.085
-466.157	420.951	0.045	-0.098
-465.143	60.999	-0.342	-0.343
-464.128	-55.108	-0.189	0.086
-463.113	-200.000	0.035	0.198
-462.099	175.583	-0.047	-0.068
-461.084	425.937	-0.073	-0.158
-460.070	-12.263	-0.237	0.157
-459.055	-200.000	-0.054	0.407
-458.040	-122.177	0.054	0.009
-457.026	703.057	-0.090	0.240
-456.011	209.529	-0.076	0.120
-454.997	-104.275	0.048	-0.011
-453.982	-102.577	-0.170	-0.041
-452.968	-200.000	-0.010	-0.355
-451.953	90.187	0.242	0.273
-450.938	-141.515	-0.166	-0.017
-449.924	30.714	0.232	0.201
-448.909	101.149	-0.088	-0.103
-447.895	-86.575	-0.258	0.080
-446.880	-109.156	-0.098	0.021
-445.865	-30.277	0.426	0.244
-444.851	-200.000	-0.096	-0.427
-443.836	-200.000	-0.007	0.134
-442.822	-200.000	0.012	0.082
-441.807	489.940	0.069	-0.160
-440.792	295.433	0.263	-0.487
-439.778	800.000	-0.011	-0.032
-438.763	30.365	-0.106	0.091
-437.749	129.601	-0.062	0.080
-436.734	-200.000	-0.015	-0.072
-435.719	110.490	-0.015	0.019
-434.705	-200.000	-0.012	0.065
-433.690	447.991	0.066	0.147
-432.676	-17.619	0.140	0.089
-431.661	800.000	-0.025	-0.093
-430.646	1.284	-0.179	0.130
-429.632	-200.000	-0.008	-0.255
-428.617	217.953	-0.010	-0.016
-427.603	131.948	-0.180	-0.234
-426.588	28.348	0.233	-0.199
-425.573	345.250	0.025	-0.049
-424.559	233.999	0.218	-0.363
-423.544	800.000	0.080	0.247
-422.530	-109.542	0.168	-0.036
-421.515	-132.834	0.430	-0.055
-420.500	-55.765	0.139	0.063
-419.486	-200.000	0.084	-0.402
-418.471	73.991	0.108	-0.114
-417.457	-106.634	0.087	-0.020
-416.442	-200.000	0.045	-0.209
-415.428	8.003	-0.333	0.252
-414.413	241.607	0.080	-0.135
-413.398	-200.000	0.002	-0.240
-412.384	-57.132	-0.222	-0.099
-411.369	90.767	-0.121	0.137
-410.355	80.433	-0.212	0.230
-409.340	-97.962	0.268	-0.070
-408.325	196.036	-0.180	-0.277
-407.311	786.374	-0.047	0.131
-406.296	128.027	0.206	0.264
-405.282	49.131	-0.142	-0.135
-404.267	-86.492	0.376	-0.116
-403.252	-200.000	0.011	0.095
-402.238	-200.000	0.068	0.393
-401.223	-136.515	0.131	-0.015
-400.209	199.710	-0.184	-0.285
-399.194	-19.972	0.006	0.004
-398.179	252.834	0.063	0.109
-397.165	581.797	0.056	0.137
-396.150	157.354	-0.101	0.141
-395.136	-126.903	-0.214	-0.032
-394.121	-123.947	0.323	0.051
-393.106	-164.063	-0.234	0.011
-392.092	-65.265	0.120	0.049
-391.077	88.280	-0.289	0.323
-390.063	-17.441	-0.237	0.150
-389.048	-82.318	0.311	0.102
-388.033	34.567	-0.140	-0.123
-387.019	-108.908	-0.235	0.051
-386.004	241.523	-0.117	-0.197
-384.990	-52.381	-0.040	0.019
-383.975	112.194	-0.013	-0.016
-382.960	80.958	0.065	-0.071
-381.946	-43.991	-0.108	-0.055
-380.931	58.810	-0.299	-0.296
-379.917	-200.000	-0.012	0.117
-378.902	800.000	-0.012	0.035
-377.888	-53.517	0.382	0.176
-376.873	19.998	-0.266	-0.216
-375.858	370.475	0.146	-0.298
-374.844	-71.121	-0.090	0.034
-373.829	-95.343	0.225	0.061
-372.815	27.257	0.163	0.138
-371.800	-200.000	0.024	-0.148
-370.785	-93.758	-0.105	-0.029
-369.771	53.205	0.061	-0.059
-368.756	0.573	0.160	-0.115
-367.742	-22.130	0.128	0.078
-366.727	-200.000	-0.001	-0.025
-365.712	3.067	0.142	-0.104
-364.698	-114.288	0.294	-0.057
-363.683	112.082	-0.212	0.257
-362.669	-81.054	-0.429	-0.143
-361.654	-106.349	0.230	0.052
-360.639	370.888	-0.144	-0.295
-359.625	800.000	-0.071	-0.227
-358.610	-200.000	-0.040	0.273
-357.596	195.602	-0.226	0.345
-356.581	-50.505	0.025	-0.012
-355.566	484.411	0.129	0.296
-354.552	-200.000	-0.020	0.162
-353.537	-33.966	0.291	0.161
-352.523	74.998	0.084	-0.089
-351.508	-152.699	-0.123	0.009
-350.493	34.538	-0.310	-0.272
-349.479	-68.433	0.197	-0.077
-348.464	-200.000	0.025	0.413
-347.450	-84.189	-0.224	0.072
-346.435	-77.114	0.093	-0.033
-345.420	147.031	-0.119	0.161
-344.406	-36.161	0.265	0.144
-343.391	191.632	0.087	-0.132
-342.377	800.000	0.011	-0.033
-341.362	409.328	-0.082	-0.175
-340.348	-200.000	-0.009	-0.268
-339.333	-63.799	-0.148	-0.061
-338.318	188.932	-0.070	0.105
-337.304	-148.718	0.141	0.011
-336.289	118.245	0.076	0.095
-335.275	51.205	-0.111	0.106
-334.260	-200.000	-0.007	0.234
-333.245	393.023	-0.068	-0.141
-332.231	-80.470	0.251	0.084
-331.216	-133.684	-0.044	0.006
-330.202	79.659	-0.083	-0.090
-329.187	800.000	-0.091	-0.303
-328.172	488.820	-0.105	0.240
-327.158	30.128	0.233	0.200
-326.143	45.207	-0.309	0.287
-325.129	-200.000	0.030	0.150
-324.114	-89.710	0.154	-0.045
-323.099	-81.511	0.153	-0.051
-322.085	51.363	0.005	0.004
-321.070	-200.000	-0.005	0.133
-320.056	-2.813	0.123	0.087
-319.041	72.430	-0.152	0.160
-318.026	365.932	-0.089	0.180
-317.012	-39.937	0.284	0.149
-315.997	109.819	-0.252	0.304
-314.983	800.000	-0.018	-0.065
-313.968	-170.400	0.090	-0.003
-312.953	30.267	0.192	-0.165
-311.939	800.000	-0.109	-0.377
-310.924	800.000	0.044	-0.173
-309.910	87.804	-0.220	-0.245
-308.895	60.089	-0.171	0.169
-307.880	800.000	0.050	-0.188
-306.866	5.469	0.078	-0.058
-305.851	274.248	0.042	0.074
-304.837	256.573	-0.092	-0.158
-303.822	800.000	-0.039	0.152
-302.807	-92.453	-0.196	0.055
-301.793	-148.318	-0.100	0.008
-300.778	-178.445	0.378	-0.009
-299.764	-2.698	0.182	0.128
-298.749	22.030	-0.366	-0.300
-297.735	-109.383	0.084	0.018
-296.720	-136.868	0.399	0.046
-295.705	78.155	0.351	0.376
-294.691	120.544	-0.320	0.399
-293.676	-141.809	0.087	0.009
-292.662	492.904	0.040	-0.092
-291.647	85.920	-0.213	0.236
-290.632	-135.718	-0.264	-0.031
-289.618	-91.933	-0.543	-0.154
-288.603	-129.457	0.191	-0.027
-287.589	76.152	0.026	-0.028
-286.574	-63.676	0.417	0.172
-285.559	-61.524	-0.117	0.050
-284.545	-200.000	-0.005	0.181
-283.530	302.647	-0.146	-0.270
-282.516	56.844	0.043	0.042
-281.501	-89.730	0.200	0.059
-280.486	-200.000	-0.060	0.355
-279.472	-200.000	0.036	-0.381
-278.457	-149.493	-0.236	0.019
-277.443	800.000	0.067	0.240
-276.428	-88.351	-0.129	-0.039
-275.413	-10.194	0.070	0.047
-274.399	-124.642	0.089	-0.014
-273.384	-200.000	-0.573	-0.002
-272.370	171.203	0.099	-0.143
-271.355	-117.586	-0.372	-0.067
-270.340	220.830	0.151	-0.244
-269.326	-84.897	-0.214	-0.067
-268.311	-200.000	-0.004	-0.170
-267.297	-152.663	-0.343	-0.025
-266.282	-66.241	-0.049	0.020
-265.267	-200.000	-0.016	0.097
-264.253	-90.205	0.177	-0.052
-263.238	-123.105	-0.283	0.046
-262.224	275.009	-0.071	-0.125
-261.209	46.926	0.112	0.105
-260.195	462.527	0.070	0.157
-259.180	41.707	0.149	-0.135
-258.165	-200.000	0.002	0.013
-257.151	759.750	-0.065	0.177
-256.136	3.999	0.263	-0.193
-255.122	28.599	0.162	0.138
-254.107	-109.361	0.270	0.057
-253.092	-112.315	-0.334	-0.067
-252.078	-153.846	-0.250	-0.017
-251.063	-163.204	0.139	-0.007
-250.049	-200.000	-0.023	0.150
-249.034	-146.567	0.065	-0.006
-248.019	278.998	0.208	-0.371
-247.005	-200.000	-0.020	0.444
-245.990	14.890	0.131	-0.103
-244.976	800.000	0.037	-0.125
-243.961	496.965	0.016	-0.036
-242.946	462.589	0.052	-0.116
-241.932	16.342	0.129	0.102
-240.917	-116.918	0.168	-0.031
-239.903	800.000	-0.036	-0.150
-238.888	571.586	0.150	-0.366
-237.873	91.964	0.266	-0.300
-236.859	20.539	0.212	-0.171
-235.844	20.822	-0.186	0.151
-234.830	211.860	-0.078	-0.123
-233.815	19.439	0.100	0.080
-232.800	-55.566	-0.077	-0.034
-231.786	-200.000	-0.031	0.240
-230.771	-200.000	-0.003	-0.224
-229.757	9.126	0.356	0.269
-228.742	-42.185	0.109	-0.056
-227.727	800.000	0.086	-0.306
-226.713	-124.427	-0.443	0.069
-225.698	124.920	-0.105	-0.133
-224.684	-86.554	-0.127	0.039
-223.669	15.427	-0.069	0.054
-222.655	-200.000	-0.018	0.182
-221.640	386.724	-0.041	0.085
-220.625	-32.105	0.185	0.104
-219.611	-75.327	-0.359	0.128
-218.596	-95.112	0.035	-0.009
-217.582	144.710	-0.148	0.199
-216.567	-14.060	0.156	-0.101
-215.552	116.959	0.173	0.212
-214.538	-58.289	-0.120	0.052
-213.523	201.323	0.135	-0.207
-212.509	-126.392	-0.321	0.048
-211.494	177.290	-0.299	0.435
-210.479	15.404	0.010	0.008
-209.465	135.094	-0.023	-0.029
-208.450	296.411	0.196	-0.359
-207.436	119.078	-0.098	0.121
-206.421	-22.968	0.103	-0.062
-205.406	-200.000	0.014	0.239
-204.392	482.493	0.219	0.499
-203.377	-81.219	-0.120	0.040
-202.363	529.853	-0.007	-0.016
-201.348	-200.000	0.037	-0.397
-200.333	-200.000	0.014	0.252
-199.319	340.397	-0.096	0.188
-198.304	-200.000	0.007	-0.253
-197.290	800.000	-0.020	0.076
-196.275	-166.134	-0.113	-0.005
-195.260	-60.669	0.022	0.009
-194.246	31.932	-0.122	0.105
-193.231	-77.203	0.349	0.122
-192.217	240.684	0.180	-0.300
-191.202	-28.318	0.436	-0.252
-190.187	-120.321	-0.372	0.063
-189.173	800.000	-0.073	0.298
-188.158	-200.000	-0.010	0.234
-187.144	-23.048	-0.130	0.078
-186.129	61.185	0.306	-0.304
-185.114	-200.000	0.039	0.194
-184.100	-26.642	-0.076	-0.044
-183.085	-146.362	0.269	0.024
-182.071	800.000	0.058	0.208
-181.056	598.213	0.018	-0.045
-180.042	800.000	0.081	0.324
-179.027	291.118	0.157	0.286
-178.012	800.000	0.027	-0.116
-176.998	236.866	0.120	-0.199
-175.983	-90.451	-0.178	-0.052
-174.969	-200.000	-0.022	0.114
-173.954	-63.369	0.162	0.066
-172.939	4.047	-0.136	-0.100
-171.925	-162.750	-0.178	0.009
-170.910	-200.000	0.061	0.330
-169.896	-152.270	0.463	-0.033
-168.881	-200.000	0.023	-0.127
-167.866	568.342	0.071	-0.173
-166.852	-15.697	0.159	-0.101
-165.837	491.509	0.052	-0.118
-164.823	-200.000	0.009	0.138
-163.808	-88.111	0.150	0.045
-162.793	-67.405	-0.178	-0.070
-161.779	-90.455	-0.111	-0.032
-160.764	-200.000	0.023	0.151
-159.750	200.921	-0.165	-0.253
-158.735	-200.000	-0.017	0.431
-157.720	-74.480	-0.204	0.073
-156.706	-47.144	0.440	0.214
-155.691	800.000	0.105	-0.310
-154.677	-126.215	-0.097	0.014
-153.662	-29.828	-0.298	-0.170
-152.647	716.981	0.065	-0.173
-151.633	-117.510	0.491	0.089
-150.618	128.751	-0.152	0.193
-149.604	-200.000	0.025	0.126
-148.589	-129.139	-0.453	0.063
-147.574	356.204	0.086	-0.170
-146.560	800.000	0.074	0.234
-145.545	-101.694	0.126	0.031
-144.531	181.018	0.018	-0.027
-143.516	-12.383	-0.157	0.102
-142.502	242.617	-0.063	-0.105
-141.487	-200.000	-0.029	0.217
-140.472	-200.000	-0.099	0.446
-139.458	408.827	0.066	0.139
-138.443	0.901	0.142	0.101
-137.429	34.148	0.107	-0.093
-136.414	-200.000	-0.064	0.375
-135.399	-100.760	-0.190	-0.047
-134.385	481.639	0.100	-0.227
-133.370	800.000	-0.029	-0.107
-132.356	-200.000	0.004	0.028
-131.341	-200.000	-0.012	-0.058
-130.326	-86.386	0.138	-0.042
-129.312	-200.000	-0.016	-0.271
-128.297	288.460	0.236	0.426
-127.283	-200.000	0.001	-0.092
-126.268	488.628	0.022	-0.049
-125.253	-85.455	-0.370	-0.115
-124.239	526.192	0.055	0.130
-123.224	220.696	0.122	-0.196
-122.210	271.778	0.052	0.092
-121.195	-81.243	0.087	-0.029
-120.180	-200.000	-0.008	0.105
-119.166	800.000	-0.096	-0.335
-118.151	263.531	-0.100	-0.172
-117.137	11.154	0.150	0.114
-116.122	10.510	-0.193	0.147
-115.107	216.839	0.080	0.127
-114.093	-171.299	-0.384	0.013
-113.078	800.000	-0.122	0.338
-112.064	-37.655	0.295	0.156
-111.049	-55.116	-0.257	-0.115
-110.034	-128.268	0.108	-0.015
-109.020	493.289	-0.072	-0.165
-108.005	65.809	-0.187	-0.189
-106.991	-111.448	-0.181	0.037
-105.976	2.275	0.168	-0.121
-104.962	55.697	0.109	0.105
-103.947	-99.314	-0.380	0.096
-102.932	21.039	0.159	-0.129
-101.918	800.000	0.004	0.016
-100.903	800.000	-0.026	0.073
-99.889	800.000	0.070	0.246
-98.874	-61.880	0.126	0.053
-97.859	346.520	0.043	-0.084
-96.845	216.266	-0.150	-0.238
-95.830	-109.259	-0.224	0.047
-94.816	343.527	0.079	0.154
-93.801	42.982	-0.211	0.191
-92.786	-64.265	0.257	-0.104
-91.772	84.823	0.063	-0.068
-90.757	581.823	-0.172	0.421
-89.743	755.736	-0.065	-0.174
-88.728	201.570	-0.149	0.228
-87.713	-200.000	0.008	-0.137
-86.699	-200.000	0.011	0.229
-85.684	550.776	-0.177	0.423
-84.670	434.992	0.142	0.307
-83.655	-14.237	-0.106	-0.068
-82.640	800.000	0.052	0.219
-81.626	-97.129	-0.284	0.074
-80.611	-129.580	0.171	-0.023
-79.597	-25.422	-0.257	0.151
-78.582	-182.708	-0.450	0.008
-77.567	-6.976	-0.380	0.257
-76.553	46.055	-0.265	-0.244
-75.538	-199.902	-0.402	0.002
-74.524	-127.392	-0.282	-0.041
-73.509	30.355	-0.018	-0.016
-72.494	164.946	-0.075	0.106
-71.480	-92.344	0.236	-0.066
-70.465	85.848	-0.112	-0.123
-69.451	-129.314	-0.269	0.037
-68.436	409.243	0.155	0.326
-67.422	-120.558	-0.231	-0.039
-66.407	-200.000	-0.199	-0.000
-65.392	-200.000	-0.027	-0.296
-64.378	-109.138	0.147	-0.031
-63.363	149.895	-0.202	0.272
-62.349	-200.000	-0.038	0.237
-61.334	349.499	-0.445	-0.875
-60.319	-57.977	0.327	0.142
-59.305	800.000	0.159	-0.537
-58.290	800.000	0.287	0.793
-57.276	418.218	0.762	1.620
-56.261	-200.000	75.603	512.845
-55.246	537.473	1324.393	3128.747
-54.232	143.279	2585.384	3421.406
-53.217	109.509	2371.665	2825.179
-52.203	50.106	1984.992	1863.120
-51.188	44.056	1771.581	1614.769
-50.173	41.198	1725.700	1550.675
-49.159	55.217	1759.826	1691.521
-48.144	60.667	1778.616	1752.215
-47.130	43.976	1742.661	1587.535
-46.115	40.877	1728.287	1550.253
-45.100	40.594	1724.035	1544.177
-44.086	40.619	1721.413	1541.961
-43.071	40.694	1718.539	1539.901
-42.057	40.622	1716.229	1537.214
-41.042	40.565	1714.456	1535.128
-40.027	40.596	1712.428	1533.488
-39.013	40.598	1710.158	1531.408
-37.998	40.480	1709.370	1529.734
-36.984	40.585	1707.659	1528.947
-35.969	40.710	1706.238	1528.578
-34.954	40.853	1703.730	1527.370
-33.940	40.743	1702.005	1524.921
-32.925	40.827	1700.161	1523.855
-31.911	40.739	1698.781	1521.878
-30.896	40.775	1696.596	1520.136
-29.881	40.773	1694.540	1518.218
-28.867	40.732	1693.410	1516.835
-27.852	40.698	1691.757	1515.033
-26.838	40.822	1690.172	1514.503
-25.823	40.825	1688.723	1513.164
-24.809	40.830	1687.003	1511.599
-23.794	40.802	1685.892	1510.332
-22.779	40.847	1684.184	1509.080
-21.765	40.857	1682.509	1507.602
-20.750	40.775	1681.088	1505.646
-19.736	40.800	1679.458	1504.317
-18.721	40.830	1678.123	1503.283
-17.706	40.724	1677.109	1501.517
-16.692	40.792	1674.978	1500.063
-15.677	40.740	1673.390	1498.186
-14.663	40.834	1671.799	1497.415
-13.648	40.783	1671.035	1496.286
-12.633	40.751	1669.472	1494.588
-11.619	40.722	1667.556	1492.590
-10.604	40.750	1665.995	1491.342
-9.590	40.706	1664.874	1489.956
-8.575	40.702	1663.417	1488.564
-7.560	40.800	1662.273	1488.212
-6.546	40.776	1661.068	1486.896
-5.531	40.785	1659.612	1485.603
-4.517	40.833	1658.444	1484.851
-3.502	40.742	1656.873	1482.710
-2.487	40.703	1656.277	1481.822
-1.473	40.825	1644.746	1472.357
-0.458	38.770	1625.490	1439.988
0.556	33.243	1624.290	1405.501
1.571	30.440	1648.573	1405.216
2.586	29.475	1662.536	1409.624
3.600	25.559	1607.086	1333.516
4.615	13.390	1484.484	1147.772
5.629	2.410	1408.246	1016.135
6.644	0.379	1397.944	995.221
7.659	0.204	1396.308	992.812
8.673	0.136	1395.174	991.468
9.688	0.121	1393.196	989.878
10.702	-0.203	1390.968	986.082
11.717	3.508	1399.068	1016.215
12.731	14.787	1421.240	1107.360
13.746	22.655	1434.996	1170.420
14.761	23.493	1434.739	1175.661
15.775	23.562	1433.850	1175.292
16.790	23.567	1433.554	1174.975
17.804	23.592	1433.068	1174.636
18.819	23.772	1432.721	1175.442
19.834	23.835	1431.641	1174.868
20.848	23.819	1431.376	1174.439
21.863	23.844	1430.716	1173.961
22.877	23.858	1429.656	1173.077
23.892	23.865	1428.651	1172.198
24.907	23.898	1427.419	1171.303
25.921	23.905	1426.491	1170.480
26.936	23.881	1425.465	1169.375
27.950	23.945	1424.459	1168.871
28.965	23.881	1422.920	1167.080
29.980	24.011	1421.455	1166.630
30.994	23.945	1420.398	1165.227
32.009	23.904	1419.974	1164.507
33.023	23.858	1418.289	1162.724
34.038	23.881	1417.355	1162.006
35.053	23.818	1416.391	1160.698
36.067	23.881	1415.250	1160.076
37.082	23.917	1414.289	1159.419
38.096	23.871	1413.373	1158.263
39.111	23.769	1412.852	1157.072
40.126	23.954	1411.682	1157.213
41.140	23.850	1411.334	1156.148
42.155	23.906	1411.004	1156.139
43.169	23.882	1410.743	1155.671
44.184	23.928	1410.457	1155.632
45.199	23.875	1409.459	1154.365
46.213	23.813	1409.568	1153.949
47.228	23.852	1408.726	1153.414
48.242	23.941	1407.016	1152.489
49.257	23.953	1406.051	1151.670
50.271	23.937	1404.298	1150.032
51.286	23.833	1403.326	1148.463
52.301	23.948	1401.694	1147.766
53.315	23.840	1401.096	1146.480
54.330	23.959	1399.593	1145.916
55.344	23.803	1399.423	1144.668
56.359	23.919	1397.811	1143.994
57.374	23.857	1396.783	1142.653
58.388	23.910	1396.321	1142.514
59.403	23.837	1396.144	1141.798
60.417	23.894	1395.249	1141.337
61.432	23.782	1394.676	1140.045
62.447	24.023	1392.950	1140.080
63.461	23.842	1392.348	1138.325
64.476	23.873	1391.588	1137.802
65.490	23.908	1390.140	1136.740
66.505	23.917	1388.434	1135.303
67.520	23.885	1387.503	1134.235
68.534	23.916	1386.491	1133.505
69.549	23.974	1385.151	1132.680
70.563	23.975	1384.044	1131.683
71.578	23.901	1383.172	1130.396
72.593	23.962	1382.565	1130.187
73.607	23.760	1382.433	1128.698
74.622	23.866	1381.042	1128.137
75.636	23.960	1379.988	1127.772
76.651	23.931	1379.501	1127.089
77.666	23.784	1379.051	1125.688
78.680	23.918	1378.505	1125.994
79.695	23.920	1377.245	1124.874
80.709	23.894	1376.796	1124.247
81.724	23.798	1376.220	1123.067
82.739	23.934	1374.867	1122.726
83.753	23.824	1373.803	1121.063
84.768	23.924	1372.834	1120.806
85.782	23.901	1371.849	1119.752
86.797	23.844	1370.601	1118.277
87.812	23.882	1369.471	1117.500
88.826	23.912	1368.277	1116.614
89.841	23.880	1367.405	1115.599
90.855	23.957	1366.109	1114.928
91.870	23.912	1365.187	1113.792
92.884	23.916	1364.930	1113.513
93.899	23.905	1363.685	1112.331
94.914	24.018	1362.842	1112.251
95.928	23.968	1361.953	1111.112
96.943	23.901	1361.381	1110.126
97.957	23.970	1360.609	1109.834
98.972	23.943	1359.801	1108.904
99.987	23.982	1358.170	1107.720
101.001	23.897	1357.744	1106.745
102.016	23.940	1356.636	1106.016
103.030	23.954	1355.757	1105.287
104.045	23.923	1355.014	1104.386
105.060	23.983	1354.150	1103.960
106.074	24.019	1352.856	1103.029
107.089	24.085	1351.617	1102.331
108.103	24.077	1350.693	1101.429
109.118	23.986	1349.920	1100.140
110.133	24.041	1348.826	1099.493
111.147	24.050	1347.166	1098.097
112.162	23.956	1346.381	1096.781
113.176	23.962	1345.372	1095.899
114.191	24.010	1344.626	1095.491
115.206	23.951	1343.357	1093.992
116.220	23.927	1342.245	1092.844
117.235	23.960	1341.528	1092.366
118.249	24.115	1339.899	1091.895
119.264	23.962	1339.654	1090.657
120.279	24.043	1338.209	1089.886
121.293	24.054	1337.942	1089.635
122.308	24.081	1336.428	1088.474
123.322	24.044	1335.792	1087.630
124.337	24.147	1334.526	1087.136
125.352	24.039	1334.143	1086.064
126.366	24.082	1333.123	1085.399
127.381	24.124	1332.025	1084.669
128.395	24.110	1331.061	1083.702
129.410	24.056	1330.795	1083.058
130.424	24.066	1330.061	1082.428
131.439	24.210	1328.350	1081.815
132.454	23.967	1328.284	1080.191
133.468	24.076	1327.596	1080.194
134.483	23.986	1327.233	1079.256
135.497	24.020	1326.206	1078.535
136.512	24.071	1324.527	1077.384
137.527	24.138	1323.371	1076.751
138.541	24.026	1322.470	1075.246
139.556	24.080	1321.215	1074.455
140.570	24.035	1320.132	1073.210
141.585	24.134	1318.885	1072.696
142.600	23.952	1318.622	1071.293
143.614	24.026	1317.479	1070.717
144.629	24.091	1316.575	1070.276
145.643	24.106	1314.852	1068.870
146.658	23.899	1314.234	1067.033
147.673	24.048	1312.939	1066.777
148.687	23.883	1312.623	1065.437
149.702	24.000	1310.812	1064.576
150.716	24.015	1309.653	1063.629
151.731	24.018	1308.817	1062.874
152.746	24.055	1307.388	1061.841
153.760	24.075	1306.229	1060.923
154.775	24.149	1305.272	1060.496
155.789	24.052	1304.451	1059.156
156.804	23.911	1303.941	1057.809
157.819	24.050	1302.820	1057.629
158.833	24.068	1302.060	1057.029
159.848	24.091	1301.534	1056.646
160.862	24.107	1300.313	1055.651
161.877	24.135	1299.683	1055.216
162.892	24.099	1298.818	1054.209
163.906	24.195	1297.717	1053.785
164.921	24.121	1297.422	1053.019
165.935	24.148	1296.394	1052.251
166.950	24.029	1295.736	1050.919
167.964	24.046	1295.310	1050.582
168.979	24.190	1294.727	1050.866
169.994	24.164	1293.795	1049.864
171.008	24.135	1293.033	1048.981
172.023	24.107	1292.521	1048.306
173.037	24.147	1291.643	1047.740
174.052	24.149	1290.751	1046.933
175.067	24.217	1290.002	1046.633
176.081	24.185	1289.605	1046.027
177.096	24.128	1288.761	1044.918
178.110	24.208	1287.569	1044.329
179.125	24.220	1286.323	1043.296
180.140	24.213	1284.958	1042.057
181.154	24.123	1284.432	1041.012
182.169	24.252	1282.926	1040.449
183.183	24.163	1282.407	1039.416
184.198	24.112	1281.166	1038.026
185.213	24.234	1280.073	1037.755
186.227	24.216	1279.257	1036.898
187.242	24.235	1278.552	1036.345
188.256	24.266	1277.581	1035.648
189.271	24.252	1276.486	1034.589
190.286	24.279	1276.147	1034.378
191.300	24.194	1275.442	1033.220
192.315	24.184	1274.965	1032.686
193.329	24.268	1274.228	1032.481
194.344	24.307	1273.442	1031.981
195.359	24.314	1273.259	1031.779
196.373	24.279	1272.761	1031.084
197.388	24.139	1272.348	1029.849
198.402	24.152	1271.957	1029.514
199.417	24.115	1272.131	1029.354
200.432	24.252	1270.859	1029.024
201.446	24.310	1270.108	1028.656
202.461	24.298	1269.589	1028.077
203.475	24.182	1268.597	1026.514
204.490	24.214	1268.005	1026.127
205.504	24.197	1266.756	1024.933
206.519	24.322	1265.701	1024.704
207.534	24.278	1264.738	1023.584
208.548	24.379	1263.211	1022.835
209.563	24.303	1263.198	1022.296
210.577	24.281	1262.340	1021.387
211.592	24.266	1261.528	1020.555
212.607	24.281	1260.881	1020.024
213.621	24.383	1259.782	1019.631
214.636	24.384	1259.430	1019.261
215.650	24.357	1258.213	1018.032
216.665	24.389	1256.957	1017.105
217.680	24.425	1255.903	1016.369
218.694	24.352	1255.214	1015.304
219.709	24.403	1254.688	1015.078
220.723	24.303	1254.305	1014.112
221.738	24.365	1253.170	1013.458
222.753	24.361	1252.381	1012.709
223.767	24.355	1252.080	1012.338
224.782	24.442	1251.733	1012.464
225.796	24.505	1250.704	1011.901
226.811	24.442	1250.245	1011.078
227.826	24.412	1249.895	1010.536
228.840	24.477	1249.253	1010.299
229.855	24.491	1248.390	1009.587
230.869	24.535	1247.581	1009.097
231.884	24.602	1246.653	1008.633
232.899	24.412	1246.404	1007.268
233.913	24.477	1246.016	1007.236
234.928	24.567	1245.229	1007.013
235.942	24.562	1244.350	1006.187
236.957	24.592	1243.376	1005.480
237.972	24.473	1242.685	1004.164
238.986	24.493	1242.110	1003.719
240.001	24.478	1242.266	1003.675
241.015	24.618	1240.783	1003.172
242.030	24.627	1239.720	1002.276
243.045	24.605	1239.243	1001.677
244.059	24.669	1238.212	1001.113
245.074	24.591	1237.601	1000.097
246.088	24.627	1237.144	999.840
247.103	24.679	1236.012	999.124
248.117	24.643	1234.921	997.954
249.132	24.650	1234.713	997.737
250.147	24.669	1234.107	997.267
251.161	24.606	1233.455	996.299
252.176	24.586	1232.595	995.403
253.190	24.733	1231.695	995.409
254.205	24.673	1230.969	994.398
255.220	24.640	1230.734	993.938
256.234	24.774	1230.273	994.222
257.249	24.861	1229.155	993.713
258.263	24.789	1228.509	992.705
259.278	24.796	1227.962	992.215
260.293	24.803	1227.837	992.062
261.307	24.745	1227.014	990.987
262.322	24.716	1226.712	990.496
263.336	24.769	1225.927	990.068
264.351	24.811	1225.216	989.641
265.366	24.799	1224.604	988.991
266.380	24.740	1223.734	987.877
267.395	24.795	1222.789	987.331
268.409	24.790	1222.527	987.002
269.424	24.669	1222.027	985.846
270.439	24.765	1221.632	985.968
271.453	24.716	1220.918	985.034
272.468	24.769	1219.776	984.316
273.482	24.761	1219.463	983.936
274.497	24.779	1219.129	983.673
275.512	24.910	1218.136	983.505
276.526	24.854	1217.823	982.858
277.541	24.836	1216.556	981.652
278.555	24.939	1215.889	981.592
279.570	24.861	1215.336	980.629
280.585	24.866	1214.244	979.688
281.599	24.912	1213.532	979.282
282.614	24.907	1212.683	978.480
283.628	24.821	1212.014	977.383
284.643	24.783	1211.148	976.393
285.657	25.002	1209.713	976.341
286.672	24.884	1209.063	975.089
287.687	24.944	1208.131	974.577
288.701	24.990	1208.110	974.725
289.716	24.968	1207.321	973.881
290.730	25.024	1206.547	973.479
291.745	24.933	1205.891	972.367
292.760	24.963	1205.341	972.002
293.774	25.008	1204.683	971.626
294.789	24.995	1204.144	971.039
295.803	25.047	1203.754	970.918
296.818	24.963	1202.780	969.590
297.833	25.062	1202.318	969.670
298.847	25.062	1201.468	968.900
299.862	25.100	1200.651	968.360
300.876	25.082	1199.655	967.372
301.891	25.071	1199.128	966.801
302.906	25.145	1198.271	966.425
303.920	25.143	1197.738	965.899
304.935	25.103	1197.676	965.549
305.949	25.102	1196.999	964.909
306.964	25.153	1195.941	964.247
307.979	25.161	1195.444	963.804
308.993	25.127	1194.911	963.104
310.008	25.229	1193.892	962.750
311.022	25.227	1193.190	962.085
312.037	25.268	1192.409	961.592
313.052	25.208	1191.307	960.297
314.066	25.280	1190.115	959.637
315.081	25.254	1189.865	959.207
316.095	25.298	1189.210	958.833
317.110	25.296	1188.819	958.418
318.125	25.236	1188.131	957.462
319.139	25.344	1187.270	957.260
320.154	25.264	1186.998	956.528
321.168	25.208	1186.449	955.702
322.183	25.249	1185.973	955.455
323.197	25.202	1185.141	954.445
324.212	25.257	1184.713	954.312
325.227	25.264	1184.147	953.806
326.241	25.390	1183.369	953.766
327.256	25.444	1182.231	953.053
328.270	25.387	1181.619	952.171
329.285	25.341	1180.891	951.258
330.300	25.433	1180.157	951.071
331.314	25.412	1178.984	949.930
332.329	25.373	1178.246	949.043
333.343	25.472	1177.633	948.988
334.358	25.421	1176.907	948.052
335.373	25.530	1175.893	947.726
336.387	25.520	1175.726	947.454
337.402	25.390	1174.831	945.962
338.416	25.375	1174.369	945.430
339.431	25.468	1173.723	945.315
340.446	25.455	1173.063	944.631
341.460	25.551	1172.384	944.505
342.475	25.600	1171.376	943.865
343.489	25.638	1170.378	943.177
344.504	25.689	1169.225	942.431
345.519	25.590	1168.527	941.266
346.533	25.674	1168.117	941.291
347.548	25.645	1167.465	940.535
348.562	25.590	1166.306	939.230
349.577	25.646	1165.666	938.924
350.592	25.619	1164.929	938.104
351.606	25.426	1164.582	936.735
352.621	25.695	1163.631	937.291
353.635	25.680	1163.388	936.932
354.650	25.582	1162.618	935.719
355.665	25.630	1162.100	935.469
356.679	25.696	1160.933	934.792
357.694	25.688	1160.709	934.487
358.708	25.524	1160.241	933.173
359.723	25.608	1159.162	932.661
360.738	25.731	1158.178	932.424
361.752	25.678	1158.088	931.993
362.767	25.657	1157.976	931.713
363.781	25.724	1157.136	931.298
364.796	25.705	1156.768	930.826
365.810	25.934	1155.813	931.157
366.825	25.734	1155.319	929.643
367.840	25.823	1154.529	929.384
368.854	25.832	1153.935	928.871
369.869	25.795	1153.498	928.247
370.883	25.763	1152.674	927.335
371.898	25.789	1151.936	926.795
372.913	25.871	1151.502	926.784
373.927	25.885	1150.638	926.080
374.942	25.886	1150.400	925.812
375.956	25.897	1149.915	925.393
376.971	25.839	1149.184	924.425
377.986	25.890	1148.848	924.334
379.000	25.950	1147.851	923.762
380.015	25.937	1147.551	923.372
381.029	25.973	1146.695	922.784
382.044	25.879	1146.400	921.982
383.059	25.932	1145.823	921.709
384.073	25.953	1144.967	921.046
385.088	25.961	1144.191	920.379
386.102	25.954	1143.097	919.384
387.117	25.996	1142.139	918.749
388.132	26.008	1141.033	917.839
389.146	26.087	1140.607	917.815
390.161	26.086	1139.885	917.149
391.175	25.989	1139.597	916.343
392.190	26.138	1138.475	916.113
393.205	26.145	1137.754	915.489
394.219	26.008	1137.523	914.529
395.234	26.220	1136.261	914.507
396.248	26.277	1135.418	914.033
397.263	26.070	1135.117	912.666
398.278	26.311	1134.290	913.137
399.292	26.128	1133.616	911.589
400.307	26.238	1132.837	911.436
401.321	26.160	1132.478	910.674
402.336	26.108	1131.742	909.741
403.350	26.201	1131.018	909.548
404.365	26.255	1130.300	909.161
405.380	26.362	1129.352	908.856
406.394	26.285	1128.892	908.016
407.409	26.314	1127.910	907.293
408.423	26.206	1127.240	906.131
409.438	26.305	1126.613	906.042
410.453	26.420	1125.689	905.795
411.467	26.394	1125.331	905.296
412.482	26.344	1124.472	904.276
413.496	26.354	1123.679	903.609
414.511	26.279	1123.192	902.762
415.526	26.305	1122.758	902.465
416.540	26.434	1122.354	902.704
417.555	26.573	1120.895	902.143
418.569	26.419	1120.877	901.279
419.584	26.454	1120.784	901.300
420.599	26.465	1120.371	900.943
421.613	85.629	1299.782	1373.339
422.628	80.581	1325.911	1373.449
