DTS Sentinel unit serial number:	SN413079Multiplexer serial number:	ORYXHardware model number:	OX4-SRSoftware version number:	ORYX F/W v4.00 Oryx Data Collector v3.7.2.0data status	okinstallation	princeton_trtdifferential loss correction	single-endedforward channel	channel 2reverse channel	N/Adate	2019/09/14time	21:35:34forward acquisition time	60.00reverse acquisition time	0.00gamma	496.2192k internal	0.2323k external	0.2323temperature offset calibration	1.0074default loss term (dB/km)	0.3790temperature slope calibration	1.0000multiplexer offset coefficient	1.0000multiplexer slope coefficient	1.0000fibre end	0.00T internal ref (°C)	32.81T ext. ref 1 (°C)	4.76T ext. ref 2 (°C)	27.72length (m)	temperature (°C)	Stokes	anti-Stokes-747.200	-200.000	-0.050	-0.247
-746.185	-85.901	-0.255	-0.080
-745.171	-63.392	-0.270	-0.112
-744.156	479.116	0.142	0.326
-743.142	-62.230	0.090	-0.038
-742.127	-200.000	0.041	-0.184
-741.112	-200.000	0.008	0.087
-740.098	186.369	-0.166	0.249
-739.083	-116.377	0.229	0.043
-738.069	359.531	-0.048	0.096
-737.054	204.948	0.090	0.140
-736.039	64.185	-0.155	0.157
-735.025	166.248	0.096	0.138
-734.010	242.351	-0.222	-0.374
-732.996	-168.118	-0.371	-0.015
-731.981	-119.774	-0.277	-0.048
-730.966	-200.000	-0.037	-0.190
-729.952	56.343	-0.263	-0.258
-728.937	703.196	0.027	0.072
-727.923	157.065	-0.197	0.275
-726.908	-13.381	-0.105	0.069
-725.894	800.000	0.141	-0.449
-724.879	380.966	-0.104	-0.216
-723.864	157.041	-0.193	-0.269
-722.850	-85.222	0.210	-0.066
-721.835	-200.000	0.000	-0.004
-720.821	426.504	-0.071	-0.154
-719.806	311.456	-0.203	-0.385
-718.791	-167.700	-0.368	-0.015
-717.777	-72.896	-0.196	0.073
-716.762	-200.000	-0.010	-0.248
-715.748	32.837	-0.144	-0.126
-714.733	-142.557	0.489	-0.048
-713.718	-4.503	-0.076	0.053
-712.704	-200.000	0.010	-0.062
-711.689	62.674	-0.019	-0.019
-710.675	-11.896	-0.341	0.226
-709.660	-116.286	0.241	0.045
-708.645	-123.024	-0.071	-0.011
-707.631	-6.040	0.068	-0.047
-706.616	260.227	0.090	0.156
-705.602	-106.311	-0.226	-0.051
-704.587	-118.741	-0.213	0.038
-703.572	300.994	0.207	0.386
-702.558	-40.823	0.045	-0.024
-701.543	-72.908	0.196	-0.072
-700.529	515.834	0.144	-0.338
-699.514	108.315	-0.260	-0.312
-698.499	-58.035	-0.106	-0.047
-697.485	-118.733	0.182	-0.032
-696.470	23.270	-0.025	-0.020
-695.456	180.935	-0.140	-0.208
-694.441	-131.011	-0.089	0.012
-693.426	219.163	-0.065	-0.104
-692.412	29.449	-0.143	-0.123
-691.397	271.462	0.069	0.123
-690.383	-107.611	0.303	0.067
-689.368	-172.442	0.068	-0.002
-688.354	-41.998	0.229	-0.118
-687.339	-91.305	-0.242	-0.070
-686.324	71.413	0.155	-0.163
-685.310	800.000	0.046	-0.140
-684.295	45.974	-0.203	-0.189
-683.281	101.409	-0.118	0.138
-682.266	303.086	0.096	-0.180
-681.251	265.335	0.077	0.135
-680.237	32.024	0.135	-0.117
-679.222	42.311	0.315	-0.289
-678.208	36.240	-0.115	-0.103
-677.193	-139.283	-0.166	0.018
-676.178	40.509	0.121	0.109
-675.164	7.491	-0.181	-0.136
-674.149	202.572	0.165	-0.256
-673.135	-56.749	0.178	0.079
-672.120	-124.307	-0.246	-0.039
-671.105	103.579	0.081	0.095
-670.091	-200.000	-0.005	0.037
-669.076	-200.000	-0.007	-0.084
-668.062	40.402	-0.195	0.177
-667.047	-89.425	0.254	-0.075
-666.032	241.425	0.159	-0.268
-665.018	60.003	0.161	-0.161
-664.003	-200.000	0.027	0.149
-662.989	800.000	-0.123	-0.343
-661.974	-135.585	0.068	0.008
-660.959	800.000	-0.073	-0.226
-659.945	-6.437	-0.147	-0.101
-658.930	-4.802	0.165	-0.114
-657.916	-200.000	0.014	0.202
-656.901	54.486	0.162	0.157
-655.886	-200.000	0.019	0.085
-654.872	13.914	-0.271	0.212
-653.857	210.194	-0.203	0.321
-652.843	-120.311	0.171	0.029
-651.828	800.000	-0.030	-0.120
-650.814	-200.000	-0.014	0.089
-649.799	-116.736	0.271	0.050
-648.784	253.456	-0.098	-0.169
-647.770	800.000	-0.091	-0.306
-646.755	310.239	0.065	-0.122
-645.741	110.902	0.132	-0.159
-644.726	-74.936	-0.380	0.137
-643.711	-87.662	0.270	0.082
-642.697	-200.000	-0.085	0.455
-641.682	-64.309	-0.153	-0.062
-640.668	-2.419	-0.077	-0.055
-639.653	-200.000	-0.022	-0.168
-638.638	167.951	-0.098	-0.140
-637.624	26.401	0.097	0.082
-636.609	148.961	0.236	0.321
-635.595	78.245	0.121	-0.130
-634.580	-51.237	0.056	-0.026
-633.565	168.966	-0.050	0.071
-632.551	216.402	-0.108	-0.173
-631.536	-120.989	0.077	0.013
-630.522	800.000	0.032	-0.093
-629.507	204.591	-0.067	0.104
-628.492	-24.404	-0.388	-0.232
-627.478	160.349	-0.205	-0.288
-626.463	-83.598	-0.213	0.068
-625.449	-90.734	-0.153	0.044
-624.434	650.255	0.136	-0.349
-623.419	193.355	-0.165	0.251
-622.405	149.428	-0.135	-0.184
-621.390	-127.940	0.131	-0.019
-620.376	800.000	0.047	-0.192
-619.361	-200.000	0.056	-0.349
-618.346	-136.706	-0.212	-0.025
-617.332	-136.875	0.318	-0.037
-616.317	-200.000	0.053	0.436
-615.303	-93.399	-0.304	-0.085
-614.288	-200.000	0.055	-0.297
-613.273	-44.773	-0.097	0.049
-612.259	-110.722	0.077	0.016
-611.244	148.214	0.022	-0.030
-610.230	322.698	0.084	0.160
-609.215	472.916	-0.044	-0.100
-608.201	147.506	-0.107	0.145
-607.186	75.765	-0.060	0.064
-606.171	136.124	-0.142	-0.186
-605.157	-4.847	-0.234	0.162
-604.142	-200.000	-0.296	-0.000
-603.128	163.606	0.322	0.454
-602.113	476.998	0.093	-0.212
-601.098	512.500	0.042	-0.098
-600.084	-200.000	0.001	-0.129
-599.069	167.212	0.077	0.110
-598.055	-200.000	0.046	-0.246
-597.040	27.656	0.068	-0.057
-596.025	-16.551	-0.130	0.083
-595.011	280.936	0.182	0.327
-593.996	-109.880	0.131	-0.028
-592.982	-200.000	0.035	0.206
-591.967	-9.389	-0.378	0.253
-590.952	-200.000	0.032	-0.168
-589.938	-200.000	0.036	-0.251
-588.923	74.494	-0.397	0.419
-587.909	800.000	-0.019	0.065
-586.894	44.438	0.134	0.123
-585.879	264.485	0.092	0.162
-584.865	-200.000	0.088	-0.440
-583.850	-197.746	-0.203	0.001
-582.836	-93.888	0.437	-0.121
-581.821	197.310	-0.091	-0.140
-580.806	-14.231	0.051	0.033
-579.792	656.665	-0.087	-0.223
-578.777	-20.869	-0.046	-0.028
-577.763	31.180	0.287	0.247
-576.748	-75.612	-0.403	0.144
-575.733	-200.000	0.008	-0.052
-574.719	800.000	-0.029	-0.107
-573.704	-133.695	0.105	0.013
-572.690	156.952	0.148	-0.205
-571.675	-200.000	0.015	0.138
-570.661	112.559	0.068	0.083
-569.646	-111.445	-0.174	0.035
-568.631	47.076	-0.139	-0.129
-567.617	800.000	0.070	-0.295
-566.602	-200.000	0.001	-0.255
-565.588	-56.146	-0.341	-0.152
-564.573	-170.198	0.219	-0.008
-563.558	108.501	0.116	0.139
-562.544	-100.863	-0.159	-0.039
-561.529	800.000	-0.050	-0.146
-560.515	57.112	-0.148	0.144
-559.500	21.113	-0.153	-0.124
-558.485	671.550	0.104	-0.271
-557.471	-200.000	-0.018	-0.183
-556.456	-54.629	-0.075	0.034
-555.442	62.047	-0.071	0.071
-554.427	800.000	0.030	0.122
-553.412	800.000	0.091	-0.296
-552.398	-30.255	0.134	0.076
-551.383	-83.480	0.141	-0.045
-550.369	85.317	0.113	-0.124
-549.354	-128.344	-0.228	-0.033
-548.339	344.902	-0.152	-0.298
-547.325	-61.254	-0.328	0.138
-546.310	800.000	-0.108	-0.344
-545.296	129.811	0.192	-0.247
-544.281	192.175	-0.085	0.128
-543.266	-104.441	0.126	-0.029
-542.252	531.687	0.097	0.230
-541.237	-120.534	0.169	0.029
-540.223	-200.000	0.027	-0.194
-539.208	-45.144	-0.122	-0.061
-538.193	-200.000	0.002	0.233
-537.179	-200.000	-0.085	-0.481
-536.164	211.781	-0.238	-0.376
-535.150	59.461	-0.096	0.095
-534.135	-131.064	-0.277	-0.037
-533.121	800.000	-0.011	-0.044
-532.106	-49.379	0.193	0.092
-531.091	411.949	-0.129	-0.275
-530.077	457.021	-0.176	0.390
-529.062	321.200	-0.091	0.173
-528.048	-76.613	0.224	-0.079
-527.033	-199.078	0.238	-0.001
-526.018	-15.919	-0.055	0.035
-525.004	-50.135	-0.127	-0.060
-523.989	-34.769	-0.125	0.068
-522.975	-200.000	-0.082	0.437
-521.960	459.447	-0.086	0.191
-520.945	-66.344	-0.088	0.035
-519.931	84.041	-0.328	-0.359
-518.916	-140.707	-0.174	-0.018
-517.902	-200.000	-0.017	0.153
-516.887	-60.419	0.083	-0.035
-515.872	125.766	-0.090	-0.113
-514.858	-200.000	-0.011	0.116
-513.843	5.776	0.078	-0.057
-512.829	34.219	0.248	0.217
-511.814	65.186	-0.160	-0.162
-510.799	-8.915	-0.247	-0.166
-509.785	-150.688	-0.159	0.012
-508.770	-200.000	-0.010	0.225
-507.756	-200.000	0.019	0.084
-506.741	-200.000	-0.007	0.068
-505.726	-200.000	-0.065	0.450
-504.712	-200.000	0.014	0.157
-503.697	-165.294	0.235	0.010
-502.683	800.000	-0.069	0.263
-501.668	136.818	0.046	-0.060
-500.653	393.365	0.061	0.126
-499.639	35.919	-0.229	-0.202
-498.624	637.958	-0.171	-0.436
-497.610	-89.713	0.167	0.049
-496.595	-46.335	0.173	0.085
-495.581	175.626	-0.042	0.061
-494.566	604.733	-0.063	-0.156
-493.551	-102.015	-0.257	0.062
-492.537	48.110	-0.123	-0.115
-491.522	-85.407	-0.178	-0.056
-490.508	133.757	0.235	0.305
-489.493	-85.349	-0.320	0.100
-488.478	101.609	-0.149	-0.173
-487.464	261.879	0.090	0.156
-486.449	80.642	-0.121	-0.130
-485.435	-114.660	0.136	-0.026
-484.420	-6.588	-0.296	-0.202
-483.405	-200.000	-0.002	0.089
-482.391	74.398	0.138	0.145
-481.376	800.000	0.046	-0.171
-480.362	800.000	0.120	0.385
-479.347	800.000	-0.052	-0.148
-478.332	51.593	0.116	0.110
-477.318	800.000	-0.129	-0.409
-476.303	-200.000	-0.007	-0.396
-475.289	800.000	0.076	-0.283
-474.274	-200.000	-0.013	-0.193
-473.259	42.026	0.132	-0.120
-472.245	-114.000	0.223	-0.043
-471.230	800.000	0.070	-0.253
-470.216	-48.319	-0.247	-0.119
-469.201	-37.039	0.271	-0.145
-468.186	115.358	0.173	0.211
-467.172	-12.631	-0.150	-0.098
-466.157	-6.358	0.255	0.174
-465.143	-159.723	-0.267	-0.015
-464.128	116.024	-0.110	0.135
-463.113	84.684	-0.126	-0.138
-462.099	-200.000	-0.005	-0.051
-461.084	800.000	-0.072	-0.278
-460.070	27.649	-0.225	0.190
-459.055	-200.000	-0.004	-0.056
-458.040	30.090	0.209	0.178
-457.026	-200.000	0.007	0.154
-456.011	800.000	0.061	0.245
-454.997	-102.940	-0.235	0.056
-453.982	800.000	-0.072	0.303
-452.968	39.500	-0.190	0.170
-451.953	-200.000	0.040	-0.226
-450.938	376.005	0.116	-0.237
-449.924	46.878	-0.409	-0.380
-448.909	292.170	0.087	-0.158
-447.895	446.443	-0.055	0.121
-446.880	88.908	0.341	0.378
-445.865	6.251	0.374	0.277
-444.851	203.625	-0.043	0.067
-443.836	-148.069	-0.210	0.017
-442.822	-200.000	-0.055	0.436
-441.807	-54.315	0.282	-0.128
-440.792	-200.000	-0.011	0.083
-439.778	-146.200	0.319	-0.028
-438.763	-200.000	0.009	-0.106
-437.749	13.793	-0.155	-0.120
-436.734	57.376	-0.262	-0.255
-435.719	107.122	0.188	0.222
-434.705	278.320	-0.121	0.215
-433.690	419.308	-0.083	0.176
-432.676	-119.777	-0.139	-0.024
-431.661	292.653	0.124	-0.226
-430.646	-158.754	0.220	0.013
-429.632	-200.000	0.004	0.226
-428.617	-200.000	-0.006	-0.129
-427.603	-107.434	0.193	0.042
-426.588	-96.523	-0.188	-0.050
-425.573	-168.076	0.113	-0.004
-424.559	-84.134	-0.134	0.042
-423.544	-200.000	-0.042	0.266
-422.530	-111.127	-0.244	0.050
-421.515	-176.398	-0.180	0.005
-420.500	-200.000	0.016	0.384
-419.486	-2.302	0.355	0.248
-418.471	-77.823	-0.247	0.085
-417.457	550.642	-0.078	0.187
-416.442	-93.461	0.098	0.027
-415.428	-120.273	-0.387	0.066
-414.413	-39.144	0.152	-0.080
-413.398	-126.976	-0.242	-0.035
-412.384	254.716	-0.142	0.242
-411.369	-81.086	0.213	-0.070
-410.355	-80.523	0.197	-0.065
-409.340	-120.198	0.445	-0.076
-408.325	-16.131	-0.183	-0.116
-407.311	800.000	-0.071	0.206
-406.296	-200.000	0.024	0.390
-405.282	-114.797	0.124	-0.024
-404.267	77.860	-0.216	-0.229
-403.252	800.000	0.052	-0.182
-402.238	-200.000	-0.031	0.262
-401.223	-75.243	0.052	-0.018
-400.209	-184.252	0.354	-0.006
-399.194	333.312	0.176	0.339
-398.179	-200.000	0.008	-0.365
-397.165	-94.554	0.334	-0.091
-396.150	-113.136	-0.168	0.033
-395.136	-100.503	0.081	-0.020
-394.121	-200.000	-0.055	-0.381
-393.106	800.000	-0.020	-0.074
-392.092	-200.000	-0.008	0.309
-391.077	286.117	0.138	-0.247
-390.063	-4.961	0.377	-0.259
-389.048	-200.000	0.001	0.093
-388.033	9.575	0.229	0.172
-387.019	86.585	0.244	-0.269
-386.004	-70.911	0.195	-0.073
-384.990	-21.047	-0.303	0.185
-383.975	800.000	0.026	0.108
-382.960	399.255	-0.033	0.069
-381.946	-200.000	0.014	0.154
-380.931	800.000	0.036	-0.139
-379.917	800.000	0.060	0.191
-378.902	-200.000	0.118	0.548
-377.888	416.754	-0.071	0.152
-376.873	385.550	0.232	-0.477
-375.858	-200.000	0.020	-0.419
-374.844	124.630	-0.200	-0.251
-373.829	-91.459	0.151	-0.043
-372.815	-200.000	0.000	-0.080
-371.800	48.975	-0.218	-0.204
-370.785	74.876	0.188	0.197
-369.771	-35.594	-0.078	-0.042
-368.756	43.992	0.228	0.208
-367.742	563.062	-0.074	0.179
-366.727	-7.352	0.148	0.100
-365.712	109.092	-0.272	0.324
-364.698	165.617	-0.096	0.135
-363.683	-200.000	-0.020	-0.136
-362.669	-117.895	-0.296	0.053
-361.654	53.184	-0.049	-0.046
-360.639	-200.000	0.061	-0.432
-359.625	-200.000	-0.041	0.254
-358.610	12.295	0.345	0.264
-357.596	794.689	-0.141	-0.387
-356.581	-100.849	0.186	-0.045
-355.566	372.061	0.070	0.141
-354.552	-200.000	-0.009	-0.183
-353.537	63.266	0.170	0.170
-352.523	349.467	-0.234	0.459
-351.508	110.230	-0.226	-0.269
-350.493	-60.687	0.215	0.091
-349.479	122.398	-0.072	0.090
-348.464	800.000	-0.056	-0.153
-347.450	17.365	-0.098	0.077
-346.435	800.000	0.142	-0.481
-345.420	-107.955	0.229	-0.050
-344.406	139.464	-0.115	0.150
-343.391	518.275	0.067	-0.155
-342.377	443.232	0.037	-0.081
-341.362	13.926	0.123	0.095
-340.348	-85.989	-0.020	-0.006
-339.333	-53.394	-0.110	0.050
-338.318	-40.166	0.245	0.127
-337.304	332.075	0.037	-0.070
-336.289	-26.567	0.314	0.183
-335.275	62.761	0.261	0.259
-334.260	512.261	-0.051	0.119
-333.245	-80.276	0.016	-0.005
-332.231	-155.700	-0.314	-0.020
-331.216	267.371	0.072	-0.125
-330.202	-45.337	-0.031	0.015
-329.187	-9.291	-0.282	-0.187
-328.172	6.737	0.110	-0.082
-327.158	16.066	-0.140	-0.109
-326.143	-200.000	0.014	-0.096
-325.129	-148.341	0.035	-0.003
-324.114	-18.060	0.206	-0.128
-323.099	770.517	0.041	-0.111
-322.085	-200.000	0.084	-0.473
-321.070	800.000	-0.032	0.101
-320.056	-68.389	0.349	-0.135
-319.041	-72.487	0.259	-0.095
-318.026	69.659	-0.126	0.128
-317.012	192.938	0.093	0.140
-315.997	-60.253	-0.153	-0.065
-314.983	148.487	0.088	-0.118
-313.968	87.037	0.132	-0.144
-312.953	122.221	0.058	0.072
-311.939	800.000	0.111	-0.384
-310.924	-200.000	0.019	-0.190
-309.910	442.352	-0.098	0.213
-308.895	752.242	0.031	-0.084
-307.880	-47.856	0.058	-0.028
-306.866	-141.199	0.216	-0.022
-305.851	-110.900	0.244	0.050
-304.837	195.682	0.142	0.214
-303.822	4.046	0.301	-0.219
-302.807	371.914	-0.046	-0.092
-301.793	181.523	-0.096	-0.140
-300.778	108.681	0.223	0.265
-299.764	-200.000	0.008	-0.143
-298.749	-200.000	0.029	0.277
-297.735	91.893	0.183	0.204
-296.720	-71.606	0.294	0.109
-295.705	-140.769	-0.111	-0.011
-294.691	61.307	0.229	0.226
-293.676	-41.852	-0.119	0.061
-292.662	33.372	0.313	0.269
-291.647	-200.000	-0.032	-0.180
-290.632	-161.300	0.237	-0.012
-289.618	-200.000	0.034	0.166
-288.603	-124.232	-0.298	0.046
-287.589	800.000	0.056	0.170
-286.574	-136.847	-0.127	0.014
-285.559	-8.684	0.234	-0.156
-284.545	-73.000	-0.160	-0.058
-283.530	34.310	-0.125	0.108
-282.516	-46.447	0.281	-0.137
-281.501	-194.260	-0.301	0.002
-280.486	72.531	0.100	-0.104
-279.472	-112.676	0.143	-0.028
-278.457	798.665	-0.072	-0.197
-277.443	179.538	-0.072	0.105
-276.428	-200.000	0.003	0.357
-275.413	-77.871	-0.434	-0.149
-274.399	-111.745	0.276	0.055
-273.384	106.128	0.166	-0.195
-272.370	301.501	0.149	-0.273
-271.355	-200.000	0.021	0.186
-270.340	800.000	-0.127	0.429
-269.326	-200.000	-0.035	-0.186
-268.311	800.000	0.095	0.375
-267.297	-200.000	-0.005	0.446
-266.282	177.793	0.161	-0.232
-265.267	181.796	0.095	0.139
-264.253	-24.391	0.120	-0.071
-263.238	-127.181	-0.325	0.047
-262.224	787.267	0.041	-0.113
-261.209	-38.434	-0.137	-0.072
-260.195	-109.860	0.349	0.073
-259.180	117.550	-0.390	0.475
-258.165	315.377	-0.110	0.206
-257.151	-32.619	0.034	-0.019
-256.136	800.000	-0.041	-0.166
-255.122	190.631	-0.082	0.122
-254.107	56.454	-0.170	0.164
-253.092	-143.405	0.243	0.023
-252.078	-200.000	0.009	-0.260
-251.063	287.055	-0.035	-0.063
-250.049	37.228	-0.155	-0.136
-249.034	-16.475	0.219	-0.138
-248.019	-94.628	0.099	0.027
-247.005	-160.384	0.249	0.013
-245.990	-25.494	0.158	-0.092
-244.976	139.916	-0.016	0.021
-243.961	105.922	-0.027	0.031
-242.946	31.440	-0.141	-0.120
-241.932	-200.000	0.023	0.137
-240.917	800.000	0.017	0.060
-239.903	278.005	-0.194	-0.342
-238.888	-193.759	0.272	0.002
-237.873	-200.000	0.036	-0.169
-236.859	-76.217	-0.048	-0.017
-235.844	-200.000	-0.087	-0.451
-234.830	-46.453	0.168	0.082
-233.815	159.458	0.101	0.139
-232.800	485.075	-0.134	0.301
-231.786	-64.890	-0.458	0.184
-230.771	-2.487	0.241	0.167
-229.757	38.097	0.252	-0.222
-228.742	800.000	0.051	-0.181
-227.727	54.558	-0.100	0.095
-226.713	-58.345	-0.406	0.175
-225.698	71.418	-0.123	-0.126
-224.684	800.000	0.083	0.350
-223.669	164.441	-0.013	-0.018
-222.655	-48.392	-0.124	0.059
-221.640	382.538	-0.105	0.214
-220.625	-2.369	0.118	-0.082
-219.611	159.447	0.061	0.084
-218.596	537.130	0.178	-0.419
-217.582	-90.250	-0.179	0.051
-216.567	-65.695	0.169	-0.067
-215.552	74.693	-0.181	0.189
-214.538	-42.606	-0.238	-0.120
-213.523	-78.343	-0.149	-0.050
-212.509	-200.000	-0.082	-0.418
-211.494	51.029	0.168	0.157
-210.479	16.128	-0.182	0.142
-209.465	-18.151	0.307	0.190
-208.450	42.455	-0.224	-0.201
-207.436	-67.790	-0.241	0.093
-206.421	8.155	0.123	0.091
-205.406	96.169	0.147	0.166
-204.392	-32.916	-0.481	-0.264
-203.377	-64.025	-0.177	-0.071
-202.363	339.863	0.137	-0.263
-201.348	-142.440	0.337	-0.033
-200.333	800.000	0.041	-0.132
-199.319	800.000	-0.041	-0.157
-198.304	31.856	0.102	0.087
-197.290	104.459	-0.082	0.096
-196.275	-129.719	0.105	0.014
-195.260	62.006	0.110	-0.109
-194.246	-19.971	0.214	0.130
-193.231	70.767	-0.035	-0.036
-192.217	-150.348	-0.164	0.013
-191.202	-97.044	-0.149	0.039
-190.187	1.098	-0.018	0.013
-189.173	633.002	0.083	-0.208
-188.158	-138.321	-0.030	0.003
-187.144	40.245	0.185	0.164
-186.129	-183.808	0.254	-0.004
-185.114	160.928	0.148	0.204
-184.100	-3.124	0.055	0.038
-183.085	108.024	-0.232	0.273
-182.071	-103.418	-0.134	-0.031
-181.056	119.920	-0.050	-0.061
-180.042	-35.767	-0.430	0.230
-179.027	-200.000	0.024	-0.110
-178.012	800.000	0.086	0.314
-176.998	88.923	0.093	0.103
-175.983	-176.969	0.366	0.009
-174.969	143.158	0.171	-0.224
-173.954	-166.083	-0.309	-0.013
-172.939	486.069	0.102	-0.230
-171.925	-32.657	-0.147	-0.081
-170.910	237.610	0.229	-0.375
-169.896	184.508	0.148	-0.217
-168.881	4.971	0.064	-0.046
-167.866	29.118	-0.127	0.107
-166.852	-200.000	0.003	-0.177
-165.837	-154.065	0.195	0.013
-164.823	-93.498	-0.435	0.119
-163.808	-38.430	-0.187	0.097
-162.793	800.000	-0.183	0.566
-161.779	-200.000	-0.089	0.391
-160.764	800.000	-0.015	0.053
-159.750	-18.716	-0.200	0.123
-158.735	-158.391	-0.180	0.010
-157.720	117.502	0.188	-0.228
-156.706	-200.000	0.020	-0.126
-155.691	-31.497	-0.164	0.091
-154.677	800.000	0.057	0.212
-153.662	-200.000	0.020	0.157
-152.647	-200.000	0.030	0.302
-151.633	-43.219	0.123	0.062
-150.618	80.607	-0.217	-0.231
-149.604	148.629	0.136	0.182
-148.589	199.703	-0.061	-0.092
-147.574	-46.916	0.198	0.096
-146.560	550.644	0.063	0.150
-145.545	-200.000	0.043	-0.216
-144.531	181.584	-0.050	-0.073
-143.516	16.260	0.136	-0.106
-142.502	302.406	-0.106	-0.194
-141.487	-200.000	-0.006	0.155
-140.472	159.824	0.219	0.301
-139.458	-63.654	0.285	-0.115
-138.443	-200.000	0.043	-0.218
-137.429	-114.635	0.329	0.062
-136.414	106.724	-0.123	0.144
-135.399	-138.130	0.519	0.057
-134.385	123.425	0.136	0.168
-133.370	800.000	0.057	-0.212
-132.356	-38.801	0.407	0.212
-131.341	-38.775	-0.390	0.203
-130.326	222.508	-0.089	0.141
-129.312	239.039	-0.071	0.116
-128.297	-51.812	-0.069	0.032
-127.283	-200.000	0.028	0.299
-126.268	543.675	-0.118	-0.278
-125.253	43.492	0.207	-0.186
-124.239	800.000	0.125	0.352
-123.224	332.337	0.161	0.307
-122.210	-200.000	0.005	-0.171
-121.195	183.015	0.047	0.069
-120.180	-122.046	-0.251	-0.041
-119.166	509.723	0.035	0.080
-118.151	31.350	-0.074	-0.062
-117.137	-200.000	-0.014	0.301
-116.122	29.794	0.206	-0.173
-115.107	-145.060	-0.302	-0.027
-114.093	756.665	-0.107	-0.286
-113.078	-200.000	0.015	-0.270
-112.064	78.943	0.171	-0.181
-111.049	-189.794	-0.326	-0.004
-110.034	-185.327	0.403	-0.006
-109.020	-137.497	-0.223	0.025
-108.005	128.969	0.154	-0.194
-106.991	-200.000	-0.050	0.458
-105.976	-200.000	-0.069	0.350
-104.962	361.413	-0.124	-0.246
-103.947	800.000	-0.049	-0.197
-102.932	-116.581	0.077	-0.014
-101.918	-9.722	0.309	-0.202
-100.903	119.450	0.116	-0.141
-99.889	-98.533	0.374	0.094
-98.874	14.605	-0.195	-0.150
-97.859	471.417	-0.167	0.371
-96.845	498.982	-0.103	0.233
-95.830	-54.150	-0.204	-0.091
-94.816	-23.728	0.139	-0.082
-93.801	-186.067	-0.229	-0.003
-92.786	443.295	0.078	-0.168
-91.772	10.645	0.198	-0.149
-90.757	-200.000	-0.062	-0.354
-89.743	628.090	-0.087	-0.217
-88.728	-139.663	-0.114	0.012
-87.713	-22.154	-0.353	0.211
-86.699	-40.445	0.160	0.082
-85.684	278.908	0.132	-0.231
-84.670	800.000	0.086	0.264
-83.655	800.000	-0.103	0.401
-82.640	-119.970	0.071	-0.012
-81.626	-125.781	-0.200	0.030
-80.611	-28.288	0.291	-0.165
-79.597	-111.971	-0.321	0.064
-78.582	-200.000	0.021	0.134
-77.567	-27.212	0.098	-0.056
-76.553	-200.000	-0.013	-0.203
-75.538	-200.000	0.006	0.347
-74.524	-165.383	-0.036	0.002
-73.509	-200.000	0.008	0.207
-72.494	70.895	0.267	0.272
-71.480	-31.890	0.120	-0.066
-70.465	-35.778	-0.203	-0.108
-69.451	-104.717	0.175	0.040
-68.436	76.871	-0.379	0.396
-67.422	210.814	-0.046	-0.071
-66.407	-200.000	-0.017	-0.528
-65.392	-73.441	0.147	0.053
-64.378	113.776	0.211	-0.252
-63.363	-96.588	-0.368	0.095
-62.349	286.264	-0.037	0.065
-61.334	-11.073	-1.121	-0.727
-60.319	-100.158	0.222	0.054
-59.305	800.000	-0.415	-1.201
-58.290	185.178	0.677	0.988
-57.276	292.152	0.569	1.018
-56.261	-200.000	95.418	571.754
-55.246	653.061	1375.873	3468.178
-54.232	198.061	2556.202	3840.887
-53.217	113.363	2269.657	2707.448
-52.203	42.121	1895.616	1691.765
-51.188	36.138	1685.766	1459.305
-50.173	33.462	1640.852	1400.621
-49.159	50.715	1686.526	1569.172
-48.144	52.598	1702.982	1598.515
-47.130	35.732	1664.471	1437.611
-46.115	32.935	1650.214	1404.471
-45.100	32.780	1645.072	1398.888
-44.086	32.716	1642.503	1396.173
-43.071	32.720	1639.679	1393.748
-42.057	32.649	1637.620	1391.419
-41.042	32.674	1635.642	1389.869
-40.027	32.736	1633.445	1388.404
-39.013	32.642	1631.657	1386.137
-37.998	32.590	1630.820	1384.983
-36.984	32.669	1629.546	1384.426
-35.969	32.709	1627.583	1383.000
-34.954	32.855	1625.923	1382.607
-33.940	32.848	1623.934	1380.809
-32.925	32.705	1623.216	1379.095
-31.911	32.806	1620.666	1377.611
-30.896	32.858	1619.149	1376.651
-29.881	32.820	1617.163	1374.631
-28.867	32.752	1615.768	1372.894
-27.852	32.777	1614.512	1371.950
-26.838	32.817	1612.689	1370.642
-25.823	32.859	1611.363	1369.763
-24.809	32.811	1610.358	1368.505
-23.794	32.844	1608.350	1366.982
-22.779	32.870	1606.585	1365.619
-21.765	32.827	1605.247	1364.113
-20.750	32.754	1603.644	1362.175
-19.736	32.914	1601.768	1361.676
-18.721	32.880	1600.662	1360.436
-17.706	32.811	1599.262	1358.701
-16.692	32.748	1597.895	1357.032
-15.677	32.836	1596.510	1356.432
-14.663	32.862	1594.971	1355.259
-13.648	32.966	1593.320	1354.544
-12.633	32.921	1592.101	1353.136
-11.619	32.861	1590.672	1351.438
-10.604	32.918	1589.299	1350.625
-9.590	32.889	1587.952	1349.222
-8.575	32.861	1586.634	1347.844
-7.560	32.911	1585.173	1346.908
-6.546	32.832	1584.169	1345.438
-5.531	32.844	1583.259	1344.693
-4.517	32.799	1582.144	1343.379
-3.502	32.807	1580.976	1342.391
-2.487	32.916	1579.107	1341.526
-1.473	32.646	1567.218	1329.465
-0.458	29.801	1548.401	1293.584
0.556	26.388	1548.007	1261.883
1.571	23.915	1571.652	1263.503
2.586	23.386	1584.793	1270.164
3.600	20.847	1531.344	1209.608
4.615	12.676	1422.993	1070.980
5.629	5.929	1360.004	981.416
6.644	4.854	1352.726	969.389
7.659	4.681	1351.476	967.333
8.673	4.734	1349.636	966.253
9.688	4.781	1348.176	965.415
10.702	4.658	1345.240	962.468
11.717	7.713	1351.311	985.692
12.731	15.436	1364.661	1043.535
13.746	20.097	1371.790	1077.952
14.761	19.645	1369.165	1072.987
15.775	18.641	1367.157	1065.094
16.790	17.514	1364.237	1055.741
17.804	16.687	1362.370	1049.077
18.819	16.386	1360.753	1045.875
19.834	16.095	1359.627	1043.116
20.848	15.829	1357.937	1040.085
21.863	15.588	1357.116	1037.874
22.877	15.455	1356.071	1036.167
23.892	15.461	1355.503	1035.678
24.907	15.364	1354.663	1034.345
25.921	15.485	1353.119	1033.821
26.936	15.530	1352.308	1033.387
27.950	15.528	1351.321	1032.528
28.965	15.562	1350.732	1032.194
29.980	15.739	1349.158	1031.989
30.994	15.842	1348.057	1031.686
32.009	15.795	1347.047	1030.530
33.023	15.700	1346.421	1029.380
34.038	15.795	1344.381	1028.309
35.053	15.604	1343.514	1026.389
36.067	15.587	1342.353	1025.307
37.082	15.715	1341.411	1025.276
38.096	15.723	1340.152	1024.277
39.111	15.646	1339.962	1023.570
40.126	15.645	1338.870	1022.641
41.140	15.452	1338.060	1020.753
42.155	15.461	1337.154	1020.028
43.169	15.410	1337.183	1019.651
44.184	15.447	1337.077	1019.702
45.199	15.459	1336.166	1018.995
46.213	15.453	1336.070	1018.794
47.228	15.534	1334.944	1018.337
48.242	15.568	1333.952	1017.696
49.257	15.474	1332.950	1016.273
50.271	15.419	1331.610	1014.824
51.286	15.549	1329.761	1014.111
52.301	15.569	1328.364	1013.080
53.315	15.390	1327.421	1011.188
54.330	15.464	1326.163	1010.590
55.344	15.398	1325.187	1009.355
56.359	15.338	1323.916	1007.940
57.374	15.403	1323.184	1007.685
58.388	15.347	1322.554	1006.778
59.403	15.275	1322.556	1006.261
60.417	15.345	1321.460	1005.756
61.432	15.251	1320.633	1004.475
62.447	15.152	1319.642	1003.036
63.461	15.136	1318.377	1001.891
64.476	15.190	1317.113	1001.164
65.490	15.132	1316.552	1000.306
66.505	15.125	1314.844	998.874
67.520	15.196	1313.674	998.324
68.534	15.284	1311.943	997.442
69.549	15.213	1311.344	996.478
70.563	15.279	1310.209	995.920
71.578	15.130	1309.351	994.294
72.593	15.057	1308.571	993.179
73.607	15.079	1307.230	992.207
74.622	15.153	1306.546	992.037
75.636	15.060	1305.869	990.883
76.651	15.103	1305.484	990.756
77.666	15.154	1305.208	990.764
78.680	15.206	1304.134	990.167
79.695	15.251	1303.734	990.039
80.709	15.244	1302.741	989.156
81.724	15.411	1301.679	989.251
82.739	15.410	1301.207	988.797
83.753	15.434	1300.581	988.376
84.768	15.548	1299.660	988.261
85.782	15.609	1298.446	987.606
86.797	15.586	1296.807	986.137
87.812	15.471	1295.956	984.731
88.826	15.513	1294.730	983.958
89.841	15.509	1293.906	983.222
90.855	15.658	1293.183	983.455
91.870	15.586	1292.414	982.364
92.884	15.608	1291.325	981.578
93.899	15.599	1290.485	980.800
94.914	15.705	1289.794	980.803
95.928	15.692	1289.072	980.091
96.943	15.709	1287.973	979.267
97.957	15.714	1287.095	978.543
98.972	15.640	1285.913	977.131
99.987	15.585	1285.207	976.185
101.001	15.659	1284.198	975.765
102.016	15.703	1282.694	974.792
103.030	15.763	1281.613	974.230
104.045	15.607	1281.210	972.933
105.060	15.572	1279.766	971.549
106.074	15.373	1278.777	969.564
107.089	15.352	1276.862	967.906
108.103	15.325	1275.753	966.823
109.118	15.306	1274.524	965.693
110.133	15.243	1273.833	964.721
111.147	15.330	1271.819	963.611
112.162	15.336	1271.121	963.031
113.176	15.340	1269.844	962.000
114.191	15.360	1269.280	961.606
115.206	15.372	1268.043	960.650
116.220	15.375	1266.574	959.469
117.235	15.430	1265.420	958.823
118.249	15.376	1264.856	958.006
119.264	15.288	1263.487	956.383
120.279	15.255	1262.823	955.605
121.293	15.317	1261.440	954.829
122.308	15.314	1260.123	953.732
123.322	15.284	1259.147	952.735
124.337	15.219	1258.306	951.647
125.352	15.246	1257.257	950.922
126.366	15.295	1255.682	949.925
127.381	15.284	1254.919	949.199
128.395	15.226	1253.958	948.062
129.410	15.342	1253.185	948.050
130.424	15.392	1252.131	947.448
131.439	15.377	1251.495	946.801
132.454	15.406	1250.316	945.987
133.468	15.490	1249.318	945.625
134.483	15.468	1248.798	945.022
135.497	15.491	1247.397	944.009
136.512	15.447	1246.440	942.955
137.527	15.422	1245.180	941.777
138.541	15.456	1243.605	940.690
139.556	15.485	1242.563	939.981
140.570	15.492	1241.642	939.240
141.585	15.629	1240.558	939.105
142.600	15.705	1239.100	938.344
143.614	15.673	1238.707	937.784
144.629	15.713	1237.356	936.902
145.643	15.688	1236.138	935.755
146.658	15.672	1234.863	934.618
147.673	15.613	1233.298	933.023
148.687	15.475	1232.646	931.682
149.702	15.465	1231.261	930.498
150.716	15.403	1230.323	929.363
151.731	15.535	1228.528	928.657
152.746	15.561	1227.453	927.904
153.760	15.526	1226.535	926.933
154.775	15.563	1225.793	926.495
155.789	15.608	1224.508	925.690
156.804	15.654	1223.601	925.175
157.819	15.668	1222.466	924.313
158.833	15.652	1222.045	923.824
159.848	15.789	1221.177	923.841
160.862	15.754	1219.718	922.460
161.877	15.723	1218.670	921.419
162.892	15.499	1217.756	919.419
163.906	15.520	1217.158	919.003
164.921	15.432	1216.140	917.668
165.935	15.585	1215.196	917.715
166.950	15.703	1214.158	917.494
167.964	15.726	1213.752	917.227
168.979	15.633	1212.880	915.982
169.994	15.618	1212.242	915.337
171.008	15.732	1211.178	915.074
172.023	15.808	1210.718	915.058
173.037	15.912	1209.807	914.854
174.052	15.805	1209.226	913.750
175.067	15.731	1207.631	912.068
176.081	15.626	1206.888	910.853
177.096	15.724	1206.294	910.858
178.110	15.691	1204.922	909.562
179.125	15.692	1203.770	908.616
180.140	15.780	1202.682	908.190
181.154	15.750	1201.379	906.966
182.169	15.822	1200.032	906.253
183.183	15.843	1199.281	905.718
184.198	15.843	1197.842	904.550
185.213	15.872	1197.101	904.070
186.227	16.004	1195.872	903.770
187.242	16.032	1194.888	903.093
188.256	15.982	1193.712	901.857
189.271	16.163	1192.730	902.005
190.286	15.928	1191.720	899.909
191.300	15.618	1191.407	897.933
192.315	15.595	1190.281	896.884
193.329	15.596	1190.183	896.737
194.344	15.733	1189.070	896.548
195.359	15.821	1188.619	896.599
196.373	15.872	1188.152	896.439
197.388	16.069	1187.517	896.929
198.402	16.104	1187.237	896.822
199.417	16.188	1186.725	896.803
200.432	16.186	1186.096	896.239
201.446	16.270	1185.190	895.921
202.461	16.320	1184.121	895.295
203.475	16.318	1183.224	894.527
204.490	16.318	1181.862	893.420
205.504	16.104	1180.797	891.406
206.519	16.191	1179.614	890.893
207.534	16.190	1178.299	889.815
208.548	16.145	1177.369	888.800
209.563	16.186	1176.490	888.273
210.577	16.166	1175.893	887.638
211.592	16.173	1175.166	887.047
212.607	16.300	1174.376	887.037
213.621	16.316	1173.342	886.261
214.636	16.317	1172.506	885.556
215.650	16.315	1171.709	884.865
216.665	16.414	1170.477	884.378
217.680	16.492	1170.008	884.351
218.694	16.407	1169.430	883.391
219.709	16.466	1168.388	882.838
220.723	16.475	1167.430	882.079
221.738	16.411	1166.958	881.313
222.753	16.425	1166.043	880.614
223.767	16.381	1165.530	879.920
224.782	16.561	1164.476	879.983
225.796	16.644	1164.045	880.013
226.811	16.575	1163.377	879.069
227.826	16.552	1162.521	878.226
228.840	16.536	1161.662	877.419
229.855	16.518	1161.187	876.889
230.869	16.538	1160.213	876.180
231.884	16.491	1159.525	875.339
232.899	16.481	1158.584	874.498
233.913	16.416	1158.159	873.763
234.928	16.480	1157.227	873.315
235.942	16.335	1156.748	872.127
236.957	16.406	1156.137	871.957
237.972	16.372	1155.083	870.908
238.986	16.426	1154.777	870.881
240.001	16.450	1154.084	870.404
241.015	16.473	1153.023	869.646
242.030	16.468	1152.231	868.944
243.045	16.579	1151.526	868.906
244.059	16.547	1150.947	868.229
245.074	16.563	1150.064	867.568
246.088	16.735	1148.904	867.496
247.103	16.700	1148.552	866.973
248.117	16.745	1147.765	866.535
249.132	16.833	1146.997	866.327
250.147	16.928	1146.555	866.402
251.161	17.072	1145.669	866.392
252.176	17.038	1145.009	865.641
253.190	17.131	1144.365	865.550
254.205	17.103	1143.822	864.921
255.220	17.141	1143.561	864.840
256.234	17.109	1142.585	863.864
257.249	17.123	1142.108	863.500
258.263	17.147	1141.381	862.994
259.278	17.143	1140.831	862.480
260.293	17.109	1140.458	861.949
261.307	17.244	1139.647	861.948
262.322	17.125	1139.455	861.120
263.336	17.339	1138.035	861.053
264.351	17.306	1137.699	860.556
265.366	17.275	1137.109	859.879
266.380	17.258	1136.275	859.086
267.395	17.285	1135.243	858.366
268.409	17.311	1134.334	857.733
269.424	17.318	1134.027	857.463
270.439	17.311	1133.509	856.960
271.453	17.253	1132.485	855.815
272.468	17.224	1131.745	855.036
273.482	17.058	1131.425	853.885
274.497	17.209	1130.039	853.520
275.512	17.229	1129.682	853.277
276.526	17.209	1129.186	852.722
277.541	17.243	1128.136	852.028
278.555	17.213	1127.578	851.380
279.570	17.325	1127.111	851.515
280.585	17.443	1126.243	851.372
281.599	17.528	1125.040	850.813
282.614	17.371	1124.368	849.443
283.628	17.272	1123.401	848.143
284.643	17.415	1121.925	847.667
285.657	17.473	1121.102	847.262
286.672	17.386	1120.604	846.377
287.687	17.530	1119.262	846.004
288.701	17.479	1118.841	845.355
289.716	17.431	1118.407	844.718
290.730	17.370	1117.614	843.741
291.745	17.550	1116.616	843.805
292.760	17.581	1116.159	843.535
293.774	17.528	1115.655	842.817
294.789	17.539	1115.258	842.499
295.803	17.490	1114.452	841.575
296.818	17.553	1113.327	840.961
297.833	17.481	1112.572	839.958
298.847	17.471	1112.008	839.410
299.862	17.501	1111.021	838.740
300.876	17.519	1110.509	838.369
301.891	17.612	1109.797	838.214
302.906	17.853	1109.004	838.723
303.920	17.666	1108.764	837.552
304.935	17.828	1107.953	837.660
305.949	17.908	1107.380	837.546
306.964	17.816	1106.506	836.359
307.979	17.898	1105.640	836.029
308.993	17.815	1105.027	835.088
310.008	17.823	1104.403	834.578
311.022	17.905	1103.491	834.219
312.037	17.981	1102.729	833.940
313.052	17.738	1101.949	832.091
314.066	17.706	1101.029	831.165
315.081	17.643	1100.109	830.090
316.095	17.653	1099.421	829.550
317.110	17.730	1098.516	829.166
318.125	17.748	1097.992	828.782
319.139	17.621	1097.102	827.425
320.154	17.741	1096.434	827.428
321.168	17.643	1095.942	826.506
322.183	17.770	1095.589	826.784
323.197	17.901	1094.441	826.477
324.212	17.878	1093.974	825.943
325.227	17.736	1093.991	825.194
326.241	17.840	1093.009	824.882
327.256	17.818	1092.053	823.981
328.270	17.821	1090.973	823.111
329.285	17.772	1090.254	822.258
330.300	17.778	1089.374	821.549
331.314	17.793	1088.353	820.778
332.329	17.934	1087.400	820.668
333.343	17.913	1086.680	819.950
334.358	17.874	1086.005	819.181
335.373	17.980	1085.300	819.085
336.387	17.963	1084.555	818.368
337.402	18.001	1084.028	818.082
338.416	18.053	1083.221	817.649
339.431	18.088	1082.607	817.279
340.446	18.133	1081.863	816.860
341.460	18.182	1081.724	816.919
342.475	18.356	1080.479	816.736
343.489	18.322	1079.477	815.740
344.504	18.318	1078.521	814.927
345.519	18.338	1077.846	814.443
346.533	18.501	1076.886	814.420
347.548	18.441	1076.460	813.738
348.562	18.421	1075.533	812.870
349.577	18.465	1074.715	812.390
350.592	18.257	1074.124	810.887
351.606	18.196	1073.226	809.846
352.621	18.307	1072.157	809.493
353.635	18.189	1071.932	808.693
354.650	18.219	1071.406	808.371
355.665	18.187	1070.774	807.668
356.679	18.248	1070.158	807.420
357.694	18.320	1069.639	807.300
358.708	18.480	1068.372	807.025
359.723	18.469	1067.904	806.546
360.738	18.404	1067.407	805.794
361.752	18.440	1066.712	805.370
362.767	18.463	1066.383	805.155
363.781	18.438	1065.725	804.470
364.796	18.451	1065.263	804.109
365.810	18.563	1064.696	804.136
366.825	18.607	1064.572	804.179
367.840	18.755	1063.840	804.250
368.854	18.741	1063.337	803.730
369.869	18.813	1062.234	803.161
370.883	18.748	1061.077	801.913
371.898	18.763	1060.365	801.373
372.913	18.585	1060.487	800.564
373.927	18.696	1059.629	800.366
374.942	18.784	1059.406	800.536
375.956	18.809	1058.519	799.909
376.971	18.806	1057.896	799.357
377.986	18.864	1057.409	799.184
379.000	18.934	1057.366	799.407
380.015	19.028	1056.116	798.828
381.029	19.011	1055.628	798.312
382.044	19.063	1054.916	797.941
383.059	18.937	1054.343	796.855
384.073	18.937	1053.511	796.154
385.088	19.022	1052.896	796.012
386.102	18.907	1051.795	794.577
387.117	18.963	1050.831	794.039
388.132	18.764	1049.784	792.261
389.146	18.870	1049.114	792.172
390.161	18.729	1048.358	790.880
391.175	18.820	1047.884	790.871
392.190	19.024	1046.964	791.049
393.205	19.021	1046.510	790.623
394.219	19.113	1045.220	789.997
395.234	18.927	1045.000	788.907
396.248	19.004	1043.446	788.019
397.263	18.921	1042.509	786.859
398.278	18.909	1042.045	786.388
399.292	18.864	1041.338	785.577
400.307	18.833	1040.381	784.644
401.321	18.846	1040.085	784.410
402.336	18.826	1039.352	783.698
403.350	18.812	1038.879	783.208
404.365	18.871	1037.757	782.560
405.380	19.015	1036.818	782.437
406.394	18.946	1036.433	781.766
407.409	19.088	1036.153	782.129
408.423	19.302	1034.904	782.090
409.438	19.132	1034.870	781.224
410.453	19.155	1034.390	780.895
411.467	19.256	1033.378	780.520
412.482	19.241	1032.916	780.033
413.496	19.381	1032.108	779.988
414.511	19.339	1031.429	779.218
415.526	19.403	1030.815	778.971
416.540	19.376	1030.624	778.636
417.555	19.539	1029.960	778.802
418.569	19.567	1029.190	778.277
419.584	19.525	1028.563	777.545
420.599	19.480	1028.073	776.903
421.613	151.510	1401.198	1793.783
422.628	138.164	1455.551	1793.881
