DTS Sentinel unit serial number:	SN413079Multiplexer serial number:	ORYXHardware model number:	OX4-SRSoftware version number:	ORYX F/W v4.00 Oryx Data Collector v3.7.2.0data status	okinstallation	princeton_trtdifferential loss correction	single-endedforward channel	channel 2reverse channel	N/Adate	2019/09/12time	18:52:49forward acquisition time	15.00reverse acquisition time	0.00gamma	496.2192k internal	0.2325k external	0.2325temperature offset calibration	1.0125default loss term (dB/km)	0.3790temperature slope calibration	1.0000multiplexer offset coefficient	1.0000multiplexer slope coefficient	1.0000fibre end	0.00T internal ref (°C)	32.87T ext. ref 1 (°C)	2.96T ext. ref 2 (°C)	27.40length (m)	temperature (°C)	Stokes	anti-Stokes-747.200	87.984	-0.465	-0.521
-746.185	11.991	-0.134	-0.104
-745.171	164.913	0.398	0.567
-744.156	-79.624	-0.065	-0.022
-743.142	2.980	0.489	-0.359
-742.127	800.000	0.057	0.247
-741.112	286.971	0.238	0.434
-740.098	-200.000	0.027	-0.221
-739.083	11.769	0.249	0.193
-738.069	-172.971	0.287	0.009
-737.054	-77.319	-0.971	0.340
-736.039	-200.000	0.231	-1.137
-735.025	-146.427	0.306	0.027
-734.010	308.857	-0.359	-0.676
-732.996	318.498	-0.325	-0.620
-731.981	33.854	0.265	-0.233
-730.966	1.221	0.633	-0.458
-729.952	603.666	-0.039	-0.099
-728.937	177.114	0.205	-0.301
-727.923	637.068	-0.300	-0.769
-726.908	641.303	-0.189	-0.486
-725.894	-87.031	0.403	-0.124
-724.879	800.000	0.112	0.455
-723.864	136.704	0.222	-0.292
-722.850	35.872	-0.420	-0.372
-721.835	555.505	-0.117	0.284
-720.821	148.273	-0.279	0.380
-719.806	98.124	0.672	-0.780
-718.791	-84.900	0.580	0.184
-717.777	-149.255	-0.321	-0.026
-716.762	337.144	0.251	-0.492
-715.748	-54.484	-0.627	0.286
-714.733	189.071	0.273	-0.412
-713.718	263.900	-0.507	0.889
-712.704	-87.042	-0.686	-0.211
-711.689	54.450	0.460	0.446
-710.675	72.246	0.123	-0.129
-709.660	46.438	0.423	0.395
-708.645	800.000	-0.098	-0.418
-707.631	501.732	-0.050	-0.116
-706.616	53.499	0.805	0.778
-705.602	-200.000	-0.197	1.071
-704.587	-105.199	-0.698	0.161
-703.572	88.813	0.556	-0.623
-702.558	-122.301	-0.465	0.077
-701.543	170.259	0.183	0.264
-700.529	500.901	0.255	-0.592
-699.514	-149.951	0.159	0.013
-698.499	126.185	-0.361	0.460
-697.485	-200.000	0.079	0.859
-696.470	463.888	0.261	0.588
-695.456	-52.492	-1.074	0.500
-694.441	800.000	-0.103	0.430
-693.426	-198.892	-0.734	-0.004
-692.412	-172.243	-0.358	0.012
-691.397	-2.120	0.279	-0.197
-690.383	91.554	0.127	-0.144
-689.368	-125.844	-0.422	-0.064
-688.354	-150.902	0.376	-0.029
-687.339	15.040	0.532	-0.420
-686.324	-53.410	0.845	0.390
-685.310	-122.205	0.334	0.055
-684.295	-45.846	0.493	-0.245
-683.281	-71.642	0.673	0.253
-682.266	-21.991	0.469	0.287
-681.251	-17.817	0.274	-0.173
-680.237	-200.000	-0.006	-0.250
-679.222	-50.183	-0.109	0.052
-678.208	-200.000	0.056	-0.482
-677.193	-200.000	-0.079	-1.227
-676.178	-200.000	0.003	0.182
-675.164	-200.000	0.133	0.597
-674.149	215.875	0.201	0.321
-673.135	-200.000	-0.015	0.189
-672.120	-200.000	0.018	-0.363
-671.105	-91.919	0.316	-0.090
-670.091	-200.000	-0.108	0.623
-669.076	420.336	-0.269	0.580
-668.062	-200.000	0.100	0.922
-667.047	226.937	-0.478	0.782
-666.032	-200.000	0.004	0.667
-665.018	-54.383	-0.137	-0.063
-664.003	-56.181	-0.509	0.228
-662.989	-200.000	-0.004	0.445
-661.974	-200.000	0.121	-0.556
-660.959	236.391	-0.182	-0.303
-659.945	-96.895	-0.384	0.101
-658.930	51.979	-0.224	-0.215
-657.916	-63.229	-0.390	-0.162
-656.901	20.042	0.560	-0.455
-655.886	-200.000	0.038	0.313
-654.872	-167.175	0.618	-0.025
-653.857	13.551	-0.371	-0.289
-652.843	-106.403	0.595	0.134
-651.828	280.294	0.244	0.439
-650.814	55.890	0.815	-0.795
-649.799	462.789	0.027	0.062
-648.784	47.383	0.498	0.467
-647.770	800.000	0.189	-0.744
-646.755	45.281	-0.206	-0.191
-645.741	548.199	-0.258	0.622
-644.726	-93.719	0.681	-0.189
-643.711	-200.000	0.039	0.647
-642.697	7.110	0.131	0.098
-641.682	-189.685	-0.784	-0.009
-640.668	800.000	-0.074	-0.212
-639.653	-181.031	-0.755	0.015
-638.638	-99.312	-0.542	0.137
-637.624	-26.467	0.622	-0.366
-636.609	372.104	0.135	-0.275
-635.595	-85.101	-0.304	-0.096
-634.580	-124.525	0.395	-0.062
-633.565	-117.089	0.312	-0.057
-632.551	61.481	0.446	-0.446
-631.536	300.261	-0.523	-0.969
-630.522	17.252	0.346	0.276
-629.507	-91.551	0.975	0.279
-628.492	800.000	0.049	-0.192
-627.478	-145.240	-0.296	-0.027
-626.463	40.442	0.318	-0.287
-625.449	135.350	-0.375	0.490
-624.434	-17.263	-0.742	0.470
-623.419	-200.000	0.061	-0.434
-622.405	-143.112	0.559	0.054
-621.390	-43.056	0.421	-0.214
-620.376	-38.824	-0.776	0.411
-619.361	110.557	-0.172	0.207
-618.346	800.000	0.135	-0.427
-617.332	-21.351	0.863	-0.529
-616.317	303.305	0.240	-0.446
-615.303	-169.971	-0.840	0.030
-614.288	-145.074	0.393	0.036
-613.273	-63.765	0.528	0.217
-612.259	751.363	-0.150	-0.407
-611.244	-87.512	0.359	0.109
-610.230	-193.341	0.615	-0.005
-609.215	-108.436	0.282	-0.061
-608.201	-96.318	-0.882	-0.234
-607.186	-60.245	0.262	0.112
-606.171	-200.000	-0.048	-0.595
-605.157	800.000	-0.141	-0.451
-604.142	206.432	0.321	0.502
-603.128	82.301	0.187	-0.203
-602.113	-0.721	0.515	-0.367
-601.098	83.910	-0.313	0.343
-600.084	-87.120	0.398	-0.121
-599.069	177.366	0.414	0.605
-598.055	432.240	-0.362	0.787
-597.040	107.526	0.323	-0.386
-596.025	282.696	-0.441	-0.793
-595.011	-200.000	0.077	-0.603
-593.996	-200.000	-0.043	-0.205
-592.982	-102.951	-0.917	-0.218
-591.967	45.255	0.206	0.190
-590.952	78.934	0.156	0.168
-589.938	1.332	-0.416	-0.300
-588.923	-200.000	-0.039	-0.369
-587.909	-200.000	0.018	-0.377
-586.894	-200.000	0.086	0.763
-585.879	-200.000	-0.038	0.623
-584.865	205.330	-0.234	0.365
-583.850	174.256	-0.282	0.409
-582.836	-104.618	-0.100	0.023
-581.821	-90.634	0.187	-0.054
-580.806	-140.076	-0.376	0.040
-579.792	-169.720	0.567	0.021
-578.777	-22.075	0.414	0.252
-577.763	41.076	0.540	0.489
-576.748	252.623	0.220	0.377
-575.733	-163.814	0.120	0.006
-574.719	-200.000	0.072	0.326
-573.704	-61.978	-0.934	0.392
-572.690	-108.472	0.730	-0.158
-571.675	74.979	0.420	0.444
-570.661	-29.695	-0.237	-0.136
-569.646	146.993	-0.219	-0.295
-568.631	216.835	-0.136	-0.217
-567.617	737.844	-0.354	-0.953
-566.602	121.280	0.160	0.200
-565.588	-200.000	-0.008	-0.160
-564.573	-200.000	0.193	0.897
-563.558	90.805	0.353	0.396
-562.544	87.993	0.605	-0.673
-561.529	800.000	-0.262	0.885
-560.515	154.436	0.294	0.405
-559.500	-122.484	-0.699	0.114
-558.485	261.879	0.154	0.268
-557.471	-53.169	0.334	0.154
-556.456	170.610	0.089	0.128
-555.442	-200.000	0.013	0.358
-554.427	174.752	0.370	0.537
-553.412	800.000	-0.076	-0.279
-552.398	-25.737	-0.544	-0.321
-551.383	-69.269	-0.146	0.056
-550.369	4.124	-0.631	-0.463
-549.354	85.875	0.336	-0.371
-548.339	216.857	-0.483	-0.771
-547.325	-140.235	0.443	0.046
-546.310	800.000	0.077	0.295
-545.296	23.075	-0.350	-0.288
-544.281	-21.103	0.641	0.393
-543.266	800.000	-0.140	0.411
-542.252	800.000	0.018	0.076
-541.237	61.345	-0.129	-0.128
-540.223	10.754	0.216	0.165
-539.208	-91.650	-0.410	0.117
-538.193	179.801	-0.274	0.402
-537.179	81.295	-0.259	-0.281
-536.164	800.000	-0.193	-0.550
-535.150	260.032	0.151	-0.261
-534.135	-108.554	-0.200	0.043
-533.121	64.417	0.126	-0.127
-532.106	800.000	0.238	-0.970
-531.091	634.220	0.137	-0.349
-530.077	-142.811	-0.736	0.072
-529.062	406.544	0.178	0.376
-528.048	800.000	-0.205	-0.610
-527.033	17.021	-0.326	-0.258
-526.018	-200.000	0.007	0.768
-525.004	-106.263	0.763	-0.171
-523.989	-200.000	-0.023	0.554
-522.975	-11.305	-0.617	0.407
-521.960	382.868	-0.117	0.240
-520.945	-200.000	-0.017	-0.409
-519.931	132.216	-0.326	-0.420
-518.916	800.000	0.137	-0.593
-517.902	437.809	0.229	0.499
-516.887	-200.000	-0.099	-0.581
-515.872	-60.511	0.325	-0.138
-514.858	-200.000	-0.010	-0.151
-513.843	-58.430	-0.504	-0.219
-512.829	-200.000	-0.109	0.678
-511.814	-100.227	-1.044	-0.259
-510.799	-135.874	0.416	0.049
-509.785	-173.354	-0.604	0.018
-508.770	600.820	-0.131	0.326
-507.756	-37.322	-0.525	-0.281
-506.741	174.360	0.175	-0.253
-505.726	40.308	-0.497	-0.448
-504.712	800.000	0.310	-0.861
-503.697	306.769	-0.384	-0.716
-502.683	-200.000	-0.122	-0.649
-501.668	-180.011	0.509	-0.011
-500.653	800.000	-0.122	-0.481
-499.639	-134.290	0.572	0.070
-498.624	-56.354	0.573	0.254
-497.610	-112.236	-0.385	-0.077
-496.595	744.264	0.228	-0.612
-495.581	-100.823	0.766	-0.188
-494.566	67.675	-0.461	0.470
-493.551	119.823	0.432	0.535
-492.537	-135.402	-0.821	0.098
-491.522	-60.825	0.199	-0.084
-490.508	-46.664	0.235	-0.115
-489.493	-200.000	0.157	-0.872
-488.478	-83.431	-0.224	0.072
-487.464	240.789	0.113	0.188
-486.449	758.136	-0.094	0.255
-485.435	-130.211	-0.884	0.120
-484.420	-200.000	0.010	1.031
-483.405	-67.132	0.559	0.220
-482.391	-200.000	-0.011	-0.054
-481.376	-64.052	-0.502	0.205
-480.362	800.000	-0.222	-0.662
-479.347	-157.853	-0.345	-0.020
-478.332	-2.164	0.392	-0.275
-477.318	-40.556	-0.410	-0.212
-476.303	-141.767	0.319	0.032
-475.289	-200.000	0.059	0.296
-474.274	-200.000	0.021	0.913
-473.259	568.621	-0.240	-0.583
-472.245	-72.861	0.407	0.149
-471.230	-63.216	1.227	0.505
-470.216	212.563	-0.793	1.249
-469.201	86.899	0.366	0.404
-468.186	800.000	-0.239	0.856
-467.172	-28.043	0.130	-0.075
-466.157	800.000	0.248	0.701
-465.143	-46.103	0.737	0.363
-464.128	66.991	0.516	-0.524
-463.113	123.130	0.505	-0.631
-462.099	-86.003	-0.638	-0.197
-461.084	-15.421	0.132	0.084
-460.070	-56.330	-0.132	0.058
-459.055	-200.000	-0.161	-0.868
-458.040	-5.747	0.381	-0.260
-457.026	-161.843	-1.156	-0.059
-456.011	-62.850	-0.154	-0.064
-454.997	800.000	-0.049	-0.179
-453.982	-200.000	0.098	-0.000
-452.968	3.827	-0.476	0.347
-451.953	-16.516	-0.231	0.146
-450.938	-200.000	0.061	0.418
-449.924	234.971	-0.551	0.907
-448.909	-175.272	0.623	0.017
-447.895	800.000	0.129	0.494
-446.880	800.000	0.144	0.414
-445.865	-34.299	1.111	-0.608
-444.851	-15.947	-0.302	0.192
-443.836	-133.811	-0.471	-0.058
-442.822	-99.206	0.158	0.040
-441.807	-61.980	-0.614	0.256
-440.792	-41.634	-0.545	-0.279
-439.778	-77.534	0.216	-0.075
-438.763	-36.203	-0.432	-0.233
-437.749	-87.495	0.496	-0.150
-436.734	-200.000	0.072	0.390
-435.719	-168.410	0.185	0.007
-434.705	68.295	0.122	0.125
-433.690	57.767	-0.164	0.160
-432.676	150.908	0.489	-0.662
-431.661	17.242	-0.118	0.093
-430.646	-152.921	-0.254	0.018
-429.632	-200.000	0.135	0.837
-428.617	23.275	-0.825	-0.675
-427.603	-33.449	0.528	0.291
-426.588	281.793	-0.215	0.384
-425.573	-200.000	0.035	-0.241
-424.559	51.018	0.795	0.752
-423.544	800.000	0.105	0.304
-422.530	800.000	0.107	-0.382
-421.515	-48.558	-1.027	0.492
-420.500	360.081	-0.283	-0.564
-419.486	-38.063	0.306	-0.162
-418.471	-71.444	0.753	0.281
-417.457	189.414	0.186	-0.278
-416.442	-200.000	-0.001	-0.755
-415.428	2.005	-0.467	0.336
-414.413	257.470	-0.153	0.263
-413.398	627.328	0.092	0.231
-412.384	-112.098	0.155	-0.031
-411.369	-200.000	0.043	-0.444
-410.355	-14.736	-0.794	-0.508
-409.340	-43.842	-0.250	0.125
-408.325	37.174	0.083	-0.073
-407.311	16.557	-0.132	0.104
-406.296	305.961	-0.169	-0.314
-405.282	-200.000	-0.089	0.647
-404.267	-200.000	0.015	-0.321
-403.252	800.000	-0.088	0.302
-402.238	-118.000	0.402	-0.072
-401.223	-96.580	-0.433	-0.114
-400.209	-63.315	-0.895	-0.367
-399.194	-170.419	0.593	0.021
-398.179	232.877	0.182	-0.298
-397.165	-20.305	0.927	-0.568
-396.150	-10.839	-0.342	-0.225
-395.136	-33.369	-0.283	0.156
-394.121	161.356	0.136	0.190
-393.106	-149.738	0.428	0.033
-392.092	-121.061	-0.550	-0.092
-391.077	55.439	0.123	-0.118
-390.063	-139.789	0.739	-0.078
-389.048	-143.238	0.647	-0.062
-388.033	-81.177	0.884	0.291
-387.019	208.571	0.428	-0.667
-386.004	107.468	-0.159	0.188
-384.990	-200.000	0.049	-0.697
-383.975	469.496	-0.246	0.550
-382.960	780.254	0.222	0.606
-381.946	800.000	-0.334	1.081
-380.931	-68.627	-0.587	0.226
-379.917	-56.809	0.921	-0.405
-378.902	133.345	0.066	-0.084
-377.888	116.657	0.185	-0.225
-376.873	-87.351	-0.776	0.234
-375.858	-84.130	0.155	-0.049
-374.844	-200.000	0.021	0.273
-373.829	-142.042	-0.717	0.071
-372.815	58.098	-0.715	0.697
-371.800	66.502	0.648	-0.656
-370.785	34.621	0.469	0.408
-369.771	800.000	-0.231	0.731
-368.756	-88.015	0.567	-0.169
-367.742	-96.377	0.437	0.115
-366.727	404.061	0.082	-0.172
-365.712	20.409	0.205	0.165
-364.698	-95.043	0.436	0.117
-363.683	-149.252	-0.695	0.055
-362.669	-200.000	-0.004	-0.479
-361.654	173.892	0.406	-0.583
-360.639	340.966	-0.534	-1.037
-359.625	-146.596	-0.529	-0.046
-358.610	29.929	-0.516	-0.437
-357.596	-200.000	-0.181	-1.089
-356.581	-200.000	0.017	-0.223
-355.566	-200.000	0.012	-0.368
-354.552	-84.976	0.325	0.101
-353.537	-123.678	-0.443	-0.070
-352.523	-144.672	0.245	-0.022
-351.508	-200.000	0.029	1.172
-350.493	1.802	-0.291	0.209
-349.479	-200.000	0.083	-0.616
-348.464	800.000	0.082	0.251
-347.450	-72.615	0.493	-0.181
-346.435	-101.423	0.701	0.170
-345.420	-56.220	-0.340	-0.150
-344.406	-200.000	-0.013	-0.174
-343.391	800.000	0.042	0.156
-342.377	-52.123	-0.465	0.214
-341.362	-200.000	-0.055	0.576
-340.348	679.989	-0.108	-0.280
-339.333	254.662	-0.248	0.421
-338.318	167.321	-0.381	-0.537
-337.304	-79.865	0.120	0.040
-336.289	800.000	-0.071	0.281
-335.275	-168.780	1.300	0.049
-334.260	-56.212	0.336	-0.148
-333.245	-133.312	-0.130	0.016
-332.231	423.124	-0.209	-0.445
-331.216	158.350	-0.231	0.318
-330.202	-200.000	0.037	-0.169
-329.187	-108.833	-0.633	0.134
-328.172	31.996	0.084	-0.072
-327.158	-51.514	0.752	0.348
-326.143	70.358	0.618	0.634
-325.129	4.728	0.219	-0.160
-324.114	-149.714	-0.843	-0.066
-323.099	-200.000	-0.035	0.522
-322.085	244.829	-0.509	0.849
-321.070	149.025	-0.125	-0.168
-320.056	531.790	-0.229	-0.537
-319.041	800.000	-0.235	0.646
-318.026	800.000	0.145	0.463
-317.012	-46.128	-0.794	-0.388
-315.997	-103.375	0.514	0.120
-314.983	229.110	0.142	-0.231
-313.968	-200.000	0.034	0.923
-312.953	-8.260	0.435	0.291
-311.939	-70.887	-0.682	-0.255
-310.924	-71.430	-0.137	-0.051
-309.910	-18.497	0.791	0.490
-308.895	-200.000	-0.095	1.446
-307.880	-200.000	0.160	1.265
-306.866	-14.306	-0.815	-0.521
-305.851	192.224	0.228	-0.342
-304.837	190.248	-0.477	-0.710
-303.822	-72.227	0.214	-0.079
-302.807	49.992	-0.338	0.317
-301.793	-99.216	-0.448	-0.112
-300.778	-56.877	0.677	-0.297
-299.764	-133.588	-0.670	-0.083
-298.749	800.000	-0.078	0.286
-297.735	-117.595	-0.174	-0.031
-296.720	-28.550	-0.599	0.342
-295.705	173.446	-0.078	-0.112
-294.691	-34.554	-0.351	-0.190
-293.676	149.709	0.481	0.646
-292.662	-79.824	1.142	-0.381
-291.647	307.801	0.160	0.297
-290.632	-200.000	-0.016	-0.388
-289.618	-63.750	0.655	0.266
-288.603	83.153	0.600	0.648
-287.589	521.332	-0.288	0.671
-286.574	279.958	0.548	-0.970
-285.559	-200.000	-0.091	0.407
-284.545	-116.362	-0.788	-0.144
-283.530	-164.120	0.361	-0.017
-282.516	-9.681	-0.672	-0.444
-281.501	25.230	0.396	-0.326
-280.486	202.019	-0.284	0.433
-279.472	528.589	0.199	0.466
-278.457	425.273	-0.154	0.329
-277.443	-86.713	-0.583	-0.177
-276.428	-181.979	0.351	-0.007
-275.413	43.843	-0.569	0.517
-274.399	69.371	-0.447	0.455
-273.384	-120.144	-0.530	-0.090
-272.370	-200.000	-0.108	0.915
-271.355	-144.462	0.186	0.017
-270.340	-200.000	0.048	0.435
-269.326	15.880	0.338	-0.263
-268.311	800.000	0.162	-0.558
-267.297	-6.917	0.357	0.240
-266.282	-42.146	-0.689	0.349
-265.267	-27.535	-0.273	0.157
-264.253	-114.633	0.155	0.029
-263.238	-200.000	-0.103	-0.781
-262.224	53.458	-0.531	-0.504
-261.209	-147.550	-0.263	0.022
-260.195	15.045	0.678	-0.525
-259.180	236.930	-0.275	0.452
-258.165	-73.918	0.354	-0.127
-257.151	205.495	0.141	-0.218
-256.136	-100.855	0.829	0.202
-255.122	91.914	-0.708	-0.789
-254.107	25.435	-0.767	-0.631
-253.092	800.000	-0.220	-0.926
-252.078	-44.736	-0.526	0.260
-251.063	-20.003	0.557	0.340
-250.049	50.260	-0.234	-0.219
-249.034	800.000	-0.198	-0.854
-248.019	-93.714	0.712	0.194
-247.005	-91.229	-0.638	0.181
-245.990	-94.245	0.627	0.170
-244.976	-132.803	0.477	-0.060
-243.961	800.000	0.078	-0.223
-242.946	304.191	-0.160	0.294
-241.932	-200.000	-0.067	0.370
-240.917	-200.000	-0.046	-0.290
-239.903	-127.292	-0.192	-0.028
-238.888	109.488	-0.341	-0.404
-237.873	72.702	-0.378	-0.390
-236.859	182.949	-0.422	-0.616
-235.844	-152.273	0.450	-0.032
-234.830	-200.000	-0.019	0.192
-233.815	-82.211	0.728	0.234
-232.800	800.000	0.126	-0.408
-231.786	-93.193	-0.438	-0.120
-230.771	210.074	-0.231	0.358
-229.757	289.012	0.252	-0.452
-228.742	7.108	0.844	-0.623
-227.727	-122.447	-0.946	-0.152
-226.713	-126.585	-0.588	0.086
-225.698	106.493	-0.244	0.286
-224.684	259.167	0.305	-0.520
-223.669	800.000	-0.122	0.433
-222.655	246.313	-0.246	0.410
-221.640	60.578	0.578	0.566
-220.625	191.984	0.241	0.359
-219.611	-161.061	0.828	-0.043
-218.596	-55.962	-0.358	0.158
-217.582	330.116	-0.444	0.845
-216.567	-106.734	-0.344	0.076
-215.552	57.792	-0.607	-0.587
-214.538	-75.471	-0.504	0.177
-213.523	-200.000	-0.039	-0.605
-212.509	-39.279	-0.611	0.317
-211.494	-101.405	-0.283	-0.068
-210.479	-66.260	0.227	-0.089
-209.465	404.667	0.281	0.585
-208.450	82.912	0.122	0.131
-207.436	432.586	0.076	-0.164
-206.421	-200.000	-0.043	0.458
-205.406	-26.855	0.099	-0.057
-204.392	-115.028	0.631	0.118
-203.377	-200.000	0.031	-0.446
-202.363	625.539	-0.184	0.459
-201.348	-200.000	0.042	-0.273
-200.333	31.200	0.458	-0.388
-199.319	26.982	-0.543	0.450
-198.304	-200.000	0.055	-0.644
-197.290	-200.000	-0.097	0.566
-196.275	191.603	-0.210	-0.313
-195.260	-14.649	0.370	-0.235
-194.246	-75.484	0.625	-0.220
-193.231	-94.310	0.912	0.246
-192.217	-109.795	-0.501	0.104
-191.202	138.009	0.313	-0.405
-190.187	-200.000	0.008	-0.674
-189.173	-69.068	0.542	0.206
-188.158	800.000	-0.105	-0.361
-187.144	173.378	0.422	0.602
-186.129	109.814	0.486	-0.576
-185.114	407.683	0.328	0.684
-184.100	-30.126	-0.372	0.209
-183.085	749.901	0.109	-0.289
-182.071	316.035	0.106	-0.197
-181.056	-142.967	0.228	0.022
-180.042	-39.611	0.306	-0.158
-179.027	-45.131	0.270	0.133
-178.012	-200.000	0.075	-0.559
-176.998	-200.000	-0.012	0.067
-175.983	-93.135	-0.639	-0.176
-174.969	627.597	0.052	0.130
-173.954	-142.957	-0.376	-0.036
-172.939	-200.000	0.042	0.732
-171.925	-56.966	0.327	0.143
-170.910	800.000	-0.127	0.437
-169.896	736.213	-0.052	0.136
-168.881	419.291	0.229	0.483
-167.866	-171.061	0.836	0.028
-166.852	652.886	0.311	-0.787
-165.837	-11.541	-0.083	0.054
-164.823	439.059	0.142	-0.307
-163.808	-200.000	-0.097	0.590
-162.793	-110.907	0.371	-0.075
-161.779	-98.287	0.449	0.114
-160.764	-143.348	-1.393	-0.132
-159.750	-33.199	-0.345	-0.188
-158.735	800.000	-0.113	-0.389
-157.720	-169.208	-0.447	0.016
-156.706	124.663	-0.201	-0.250
-155.691	800.000	0.282	-0.841
-154.677	210.270	0.197	-0.305
-153.662	-69.897	-0.222	-0.084
-152.647	-56.844	-0.197	0.086
-151.633	146.208	0.335	-0.444
-150.618	20.096	-0.710	0.565
-149.604	-200.000	0.038	0.450
-148.589	-129.126	-0.907	-0.125
-147.574	387.685	0.348	0.711
-146.560	33.982	-0.492	-0.422
-145.545	-98.157	-0.294	-0.075
-144.531	-102.019	-0.156	0.037
-143.516	-130.887	-0.491	0.065
-142.502	-46.776	-0.593	-0.286
-141.487	150.838	0.420	-0.563
-140.472	407.299	0.233	-0.486
-139.458	274.570	-0.274	-0.478
-138.443	-200.000	0.092	-0.655
-137.429	-65.293	-0.073	-0.029
-136.414	-37.054	0.985	-0.520
-135.399	-76.356	0.275	0.095
-134.385	155.413	-0.357	0.484
-133.370	-200.000	0.022	-0.611
-132.356	-200.000	-0.138	-0.627
-131.341	88.497	0.221	0.242
-130.326	562.980	-0.090	-0.214
-129.312	-130.681	-0.273	0.036
-128.297	-156.843	0.293	-0.018
-127.283	762.789	-0.223	0.595
-126.268	800.000	0.297	0.891
-125.253	-146.753	-0.466	-0.040
-124.239	-200.000	0.093	1.029
-123.224	745.691	0.400	1.061
-122.210	-200.000	0.128	-0.855
-121.195	-84.216	-0.273	-0.085
-120.180	-155.386	-0.581	-0.037
-119.166	-200.000	0.008	-0.585
-118.151	232.567	-0.226	-0.365
-117.137	-160.421	-0.454	0.024
-116.122	188.234	-0.171	0.252
-115.107	-200.000	-0.022	-0.287
-114.093	-100.083	-0.569	-0.140
-113.078	35.343	-0.586	-0.506
-112.064	-11.736	-0.300	-0.194
-111.049	-76.305	0.671	-0.233
-110.034	-152.048	0.250	-0.018
-109.020	644.538	-0.458	1.151
-108.005	-94.327	0.168	-0.045
-106.991	140.870	-0.245	-0.319
-105.976	-110.262	-0.121	-0.025
-104.962	-102.121	-0.244	-0.058
-103.947	-68.914	-1.145	-0.435
-102.932	533.345	-0.284	-0.662
-101.918	171.669	0.392	-0.554
-100.903	31.646	0.182	-0.154
-99.889	-27.216	0.436	-0.250
-98.874	-82.953	0.157	-0.050
-97.859	-61.835	-0.570	-0.235
-96.845	13.930	-0.960	-0.735
-95.830	-77.540	0.488	-0.166
-94.816	39.373	-0.206	-0.182
-93.801	136.153	0.089	-0.114
-92.786	103.912	0.315	-0.364
-91.772	-54.180	0.504	-0.226
-90.757	-52.935	0.321	0.145
-89.743	-48.504	0.767	-0.363
-88.728	646.478	-0.100	-0.250
-87.713	-105.066	-0.433	-0.098
-86.699	-200.000	0.180	-1.151
-85.684	24.370	0.239	-0.195
-84.670	91.769	-0.607	-0.671
-83.655	124.258	-0.302	0.373
-82.640	800.000	0.170	0.715
-81.626	183.911	0.239	-0.348
-80.611	83.440	-0.178	-0.191
-79.597	515.922	-0.243	0.558
-78.582	-200.000	-0.103	-0.595
-77.567	542.094	0.242	0.568
-76.553	84.493	0.531	-0.571
-75.538	-76.985	0.370	-0.127
-74.524	-103.907	1.177	0.270
-73.509	308.974	-0.284	-0.522
-72.494	800.000	0.002	-0.009
-71.480	-55.179	0.379	-0.168
-70.465	615.178	-0.029	-0.072
-69.451	-153.615	-0.714	-0.048
-68.436	800.000	0.031	-0.090
-67.422	92.454	0.748	-0.829
-66.407	-38.461	0.110	0.057
-65.392	-200.000	-0.076	0.661
-64.378	-86.569	0.452	0.136
-63.363	0.513	0.519	0.365
-62.349	-200.000	-0.069	0.660
-61.334	344.183	-0.491	-0.947
-60.319	-200.000	0.167	0.934
-59.305	800.000	-0.263	-1.111
-58.290	40.961	0.926	0.821
-57.276	81.790	1.486	1.580
-56.261	-200.000	95.572	579.933
-55.246	663.326	1361.771	3450.662
-54.232	202.603	2531.127	3839.208
-53.217	112.301	2250.760	2673.729
-52.203	42.400	1881.320	1680.284
-51.188	35.925	1673.930	1446.543
-50.173	33.416	1630.440	1390.515
-49.159	52.041	1679.134	1571.089
-48.144	52.971	1695.087	1592.867
-47.130	35.825	1654.732	1428.983
-46.115	32.765	1641.533	1394.936
-45.100	32.923	1635.629	1391.034
-44.086	32.832	1632.606	1387.733
-43.071	32.831	1629.306	1384.866
-42.057	32.847	1628.569	1384.306
-41.042	32.483	1626.914	1380.177
-40.027	32.805	1624.400	1380.342
-39.013	32.912	1621.968	1379.005
-37.998	32.784	1620.479	1376.749
-36.984	32.714	1619.660	1375.484
-35.969	32.653	1619.241	1374.635
-34.954	32.859	1616.627	1373.856
-33.940	33.047	1614.600	1373.452
-32.925	32.749	1614.110	1370.813
-31.911	32.461	1612.623	1367.400
-30.896	32.847	1609.215	1367.252
-29.881	32.830	1607.983	1366.029
-28.867	32.909	1605.617	1364.541
-27.852	32.920	1603.919	1363.117
-26.838	32.875	1603.253	1362.178
-25.823	32.881	1602.119	1361.199
-24.809	33.021	1599.792	1360.176
-23.794	32.860	1599.739	1358.917
-22.779	32.797	1597.648	1356.635
-21.765	33.172	1595.268	1357.252
-20.750	32.998	1593.376	1354.342
-19.736	32.850	1592.915	1352.836
-18.721	32.998	1590.543	1351.825
-17.706	32.853	1590.912	1351.048
-16.692	32.872	1588.782	1349.325
-15.677	32.830	1587.064	1347.513
-14.663	33.101	1584.876	1347.529
-13.648	33.124	1584.586	1347.396
-12.633	32.979	1583.303	1345.219
-11.619	32.784	1581.505	1342.250
-10.604	32.896	1580.655	1342.269
-9.590	32.900	1579.101	1340.930
-8.575	32.735	1576.604	1337.585
-7.560	33.076	1575.603	1339.100
-6.546	32.872	1575.404	1337.430
-5.531	32.853	1574.613	1336.569
-4.517	32.883	1572.292	1334.757
-3.502	32.957	1570.936	1334.079
-2.487	32.970	1569.710	1333.077
-1.473	32.543	1557.885	1319.990
-0.458	29.839	1537.675	1284.080
0.556	27.228	1538.165	1252.612
1.571	24.680	1561.138	1253.372
2.586	23.840	1573.848	1257.520
3.600	21.413	1520.285	1198.009
4.615	12.137	1413.242	1054.207
5.629	4.208	1348.091	956.742
6.644	3.123	1338.938	943.508
7.659	2.864	1337.600	940.896
8.673	2.948	1337.300	941.117
9.688	2.905	1335.274	939.346
10.702	2.720	1332.897	936.459
11.717	6.176	1338.548	961.509
12.731	15.448	1357.318	1032.166
13.746	23.096	1368.526	1087.826
14.761	24.607	1369.996	1098.195
15.775	24.913	1369.839	1099.852
16.790	24.820	1369.416	1098.842
17.804	24.867	1367.211	1097.269
18.819	24.871	1367.856	1097.714
19.834	25.057	1367.015	1098.076
20.848	24.820	1367.328	1096.781
21.863	25.211	1365.628	1097.713
22.877	25.385	1364.611	1097.860
23.892	25.226	1363.726	1096.083
24.907	24.992	1362.839	1093.845
25.921	25.079	1363.303	1094.651
26.936	24.969	1362.252	1093.040
27.950	25.257	1360.628	1093.396
28.965	24.953	1358.989	1090.132
29.980	25.247	1357.993	1091.022
30.994	25.140	1358.551	1090.720
32.009	25.410	1356.512	1090.626
33.023	25.066	1355.653	1087.754
34.038	25.254	1354.378	1087.776
35.053	25.144	1354.015	1086.721
36.067	25.155	1352.316	1085.327
37.082	25.157	1351.500	1084.586
38.096	25.359	1350.486	1084.899
39.111	25.275	1350.123	1084.005
40.126	25.004	1349.512	1081.781
41.140	25.173	1348.188	1081.644
42.155	25.188	1348.704	1082.051
43.169	24.963	1348.840	1080.705
44.184	24.979	1347.604	1079.716
45.199	25.085	1348.150	1080.701
46.213	25.099	1347.001	1079.765
47.228	25.132	1346.641	1079.580
48.242	25.029	1344.753	1077.352
49.257	25.165	1343.559	1077.116
50.271	25.440	1341.623	1077.123
51.286	25.223	1341.128	1075.325
52.301	25.345	1339.615	1074.750
53.315	25.264	1338.186	1073.020
54.330	25.262	1337.948	1072.725
55.344	25.169	1336.890	1071.229
56.359	25.435	1335.635	1071.711
57.374	25.423	1335.267	1071.251
58.388	25.402	1335.154	1070.941
59.403	25.189	1334.350	1068.930
60.417	25.130	1332.901	1067.323
61.432	25.073	1332.427	1066.513
62.447	25.368	1331.703	1067.596
63.461	25.201	1330.973	1065.922
64.476	24.856	1331.471	1064.174
65.490	24.994	1329.975	1063.705
66.505	24.995	1328.054	1062.081
67.520	25.061	1326.393	1061.049
68.534	25.020	1326.714	1060.969
69.549	25.183	1324.662	1060.195
70.563	25.187	1322.815	1058.646
71.578	25.272	1321.898	1058.320
72.593	25.151	1321.231	1056.980
73.607	24.979	1322.096	1056.566
74.622	24.969	1321.824	1056.198
75.636	25.305	1320.153	1056.745
76.651	25.275	1319.106	1055.635
77.666	25.157	1319.119	1054.857
78.680	25.272	1318.520	1054.965
79.695	25.269	1317.289	1053.866
80.709	25.278	1316.909	1053.523
81.724	25.332	1315.557	1052.667
82.739	25.526	1314.807	1053.107
83.753	25.497	1314.085	1052.269
84.768	25.217	1313.388	1049.980
85.782	25.207	1313.080	1049.578
86.797	25.402	1311.261	1049.171
87.812	25.396	1309.504	1047.637
88.826	25.183	1309.642	1046.414
89.841	25.118	1308.682	1045.174
90.855	25.234	1307.181	1044.560
91.870	25.535	1306.038	1045.305
92.884	25.500	1305.452	1044.538
93.899	25.250	1304.626	1042.336
94.914	25.342	1304.652	1042.797
95.928	25.431	1303.432	1042.243
96.943	25.427	1303.635	1042.290
97.957	25.351	1301.270	1039.870
98.972	25.438	1300.879	1039.967
99.987	25.507	1300.683	1040.116
101.001	25.093	1300.539	1037.517
102.016	25.185	1297.932	1035.873
103.030	25.054	1298.799	1035.718
104.045	25.511	1296.639	1036.539
105.060	25.241	1296.141	1034.494
106.074	25.143	1294.884	1032.834
107.089	25.355	1294.006	1033.264
108.103	25.197	1292.728	1031.240
109.118	25.226	1291.130	1030.042
110.133	25.237	1290.254	1029.315
111.147	25.038	1288.985	1027.075
112.162	25.334	1287.301	1027.333
113.176	25.354	1286.655	1026.840
114.191	25.285	1286.250	1026.033
115.206	24.929	1285.454	1023.274
116.220	25.178	1284.188	1023.598
117.235	24.922	1282.228	1020.483
118.249	24.868	1281.299	1019.347
119.264	24.979	1281.183	1019.797
120.279	25.358	1280.131	1021.026
121.293	25.123	1280.300	1019.736
122.308	25.188	1279.267	1019.187
123.322	25.221	1278.711	1018.846
124.337	25.136	1277.791	1017.538
125.352	25.258	1276.394	1017.027
126.366	25.320	1276.087	1017.045
127.381	25.049	1274.642	1014.271
128.395	25.208	1273.447	1014.127
129.410	25.034	1272.521	1012.317
130.424	25.077	1273.023	1012.872
131.439	25.210	1270.636	1011.630
132.454	24.957	1271.048	1010.445
133.468	25.215	1269.531	1010.601
134.483	24.940	1269.996	1009.330
135.497	25.200	1268.925	1009.852
136.512	25.273	1268.782	1010.063
137.527	25.093	1266.064	1006.799
138.541	25.342	1265.285	1007.489
139.556	25.262	1263.974	1005.908
140.570	25.206	1263.346	1005.002
141.585	25.162	1262.401	1003.915
142.600	25.252	1262.465	1004.382
143.614	25.450	1260.924	1004.172
144.629	24.936	1262.129	1002.169
145.643	25.115	1258.372	1000.099
146.658	25.251	1257.994	1000.464
147.673	25.189	1257.063	999.289
148.687	25.232	1255.909	998.523
149.702	25.160	1254.919	997.249
150.716	24.989	1252.103	993.976
151.731	24.694	1251.252	991.575
152.746	24.709	1250.815	991.226
153.760	25.181	1250.175	993.241
154.775	25.217	1250.262	993.426
155.789	25.632	1248.186	993.979
156.804	25.256	1247.538	991.299
157.819	25.169	1246.278	989.732
158.833	25.137	1245.729	989.031
159.848	25.254	1246.099	989.884
160.862	25.283	1244.818	988.935
161.877	25.136	1243.603	987.076
162.892	25.387	1242.203	987.256
163.906	25.314	1242.113	986.697
164.921	25.345	1240.565	985.548
165.935	25.178	1240.384	984.402
166.950	25.220	1239.893	984.156
167.964	25.038	1239.836	983.022
168.979	25.437	1239.178	984.602
169.994	25.267	1238.031	982.672
171.008	24.942	1237.813	980.633
172.023	25.246	1235.890	980.683
173.037	25.394	1235.594	981.171
174.052	25.165	1235.284	979.590
175.067	25.427	1234.862	980.596
176.081	25.303	1232.712	978.130
177.096	25.375	1231.727	977.653
178.110	25.186	1231.726	976.537
179.125	25.197	1230.302	975.379
180.140	25.327	1228.708	974.736
181.154	25.302	1228.619	974.446
182.169	25.556	1225.929	973.600
183.183	25.077	1226.396	971.288
184.198	25.226	1225.484	971.286
185.213	25.450	1224.808	971.879
186.227	25.478	1223.697	971.062
187.242	25.608	1222.206	970.497
188.256	25.246	1222.380	968.593
189.271	25.392	1221.518	968.612
190.286	25.406	1219.432	966.949
191.300	24.997	1219.626	964.813
192.315	25.177	1219.345	965.476
193.329	25.481	1218.717	966.525
194.344	25.501	1217.391	965.499
195.359	24.935	1217.325	962.317
196.373	24.911	1216.693	961.604
197.388	24.870	1216.326	961.011
198.402	25.272	1216.394	963.133
199.417	25.426	1216.532	963.984
200.432	25.201	1215.678	962.018
201.446	25.364	1214.963	962.242
202.461	25.019	1215.140	960.444
203.475	25.373	1212.997	960.560
204.490	25.323	1211.279	958.850
205.504	25.014	1209.992	956.097
206.519	25.258	1208.788	956.360
207.534	25.010	1208.790	954.954
208.548	24.950	1206.754	952.941
209.563	25.018	1206.692	953.171
210.577	25.000	1205.599	952.128
211.592	24.795	1205.051	950.522
212.607	25.247	1204.705	952.564
213.621	25.282	1204.397	952.422
214.636	25.145	1202.547	950.151
215.650	25.313	1201.180	949.877
216.665	25.185	1200.978	948.956
217.680	25.239	1200.684	948.925
218.694	25.593	1198.764	949.191
219.709	25.184	1199.251	947.336
220.723	25.252	1198.453	946.977
221.738	25.207	1198.276	946.518
222.753	24.907	1196.392	943.364
223.767	25.407	1195.749	945.405
224.782	25.499	1195.589	945.681
225.796	25.475	1196.062	945.844
226.811	25.367	1194.326	943.823
227.826	25.528	1193.751	944.128
228.840	25.315	1192.847	942.212
229.855	25.240	1191.968	941.040
230.869	25.194	1190.940	939.907
231.884	25.225	1190.135	939.347
232.899	25.109	1189.428	938.100
233.913	25.090	1188.523	937.202
234.928	25.381	1188.051	938.269
235.942	25.139	1188.879	937.576
236.957	25.177	1186.234	935.606
237.972	24.868	1185.888	933.639
238.986	25.154	1185.167	934.479
240.001	25.151	1185.749	934.839
241.015	25.036	1185.026	933.584
242.030	25.006	1184.389	932.844
243.045	25.164	1184.367	933.567
244.059	25.372	1183.156	933.616
245.074	25.394	1181.681	932.480
246.088	25.486	1180.311	931.794
247.103	25.665	1179.748	932.193
248.117	25.701	1178.546	931.348
249.132	25.581	1178.617	930.703
250.147	25.771	1178.290	931.341
251.161	25.753	1177.332	930.409
252.176	25.801	1176.599	929.995
253.190	25.708	1177.065	929.803
254.205	25.894	1176.097	929.917
255.220	25.961	1175.176	929.448
256.234	25.647	1175.417	927.941
257.249	26.007	1173.868	928.486
258.263	25.969	1173.289	927.752
259.278	25.684	1172.606	925.667
260.293	25.911	1172.619	926.759
261.307	25.780	1172.581	925.975
262.322	25.957	1170.594	925.233
263.336	25.570	1170.789	923.318
264.351	25.789	1169.622	923.439
265.366	25.836	1168.960	923.078
266.380	25.923	1169.242	923.665
267.395	25.772	1167.917	921.761
268.409	25.779	1166.947	920.949
269.424	25.918	1166.026	920.853
270.439	25.683	1166.553	919.983
271.453	25.725	1165.461	919.259
272.468	25.757	1165.075	919.034
273.482	25.600	1164.277	917.524
274.497	25.604	1163.378	916.755
275.512	25.789	1162.488	916.913
276.526	25.771	1161.303	915.803
277.541	25.719	1160.657	914.951
278.555	25.819	1160.214	915.031
279.570	25.754	1160.035	914.478
280.585	25.890	1159.787	914.889
281.599	25.801	1158.409	913.271
282.614	25.527	1157.684	911.228
283.628	25.699	1156.581	911.154
284.643	25.512	1155.899	909.587
285.657	25.840	1154.186	909.816
286.672	25.632	1154.368	908.831
287.687	25.750	1153.120	908.359
288.701	25.530	1152.710	906.847
289.716	25.521	1151.919	906.099
290.730	25.685	1151.131	906.225
291.745	26.117	1150.302	907.668
292.760	25.650	1149.848	904.882
293.774	25.964	1149.832	906.365
294.789	25.747	1149.611	905.023
295.803	25.876	1148.728	904.894
296.818	25.875	1147.529	903.865
297.833	26.085	1146.033	903.657
298.847	26.002	1145.055	902.390
299.862	25.605	1145.326	900.537
300.876	25.543	1144.585	899.566
301.891	26.044	1144.243	901.720
302.906	25.682	1144.199	899.798
303.920	26.123	1142.848	900.858
304.935	25.805	1142.902	899.231
305.949	26.012	1141.226	898.868
306.964	26.039	1140.803	898.590
307.979	25.946	1140.240	897.603
308.993	25.753	1139.646	896.094
310.008	25.887	1139.393	896.483
311.022	25.929	1138.462	895.880
312.037	26.312	1136.651	896.273
313.052	26.140	1135.633	894.540
314.066	25.801	1135.496	892.676
315.081	25.588	1135.488	891.535
316.095	25.560	1134.390	890.453
317.110	25.654	1133.714	890.307
318.125	25.784	1132.677	890.059
319.139	25.521	1131.948	888.109
320.154	25.954	1131.150	889.539
321.168	25.689	1131.744	888.619
322.183	25.562	1130.392	886.853
323.197	26.101	1129.085	888.402
324.212	25.612	1129.513	886.251
325.227	25.720	1129.297	886.535
326.241	25.979	1128.257	886.915
327.256	25.811	1126.491	884.624
328.270	25.966	1126.309	885.163
329.285	25.786	1125.865	883.853
330.300	25.956	1124.679	883.680
331.314	26.012	1123.709	883.111
332.329	25.716	1123.272	881.239
333.343	25.779	1122.777	881.082
334.358	25.631	1122.693	880.214
335.373	26.235	1121.078	881.820
336.387	26.074	1120.881	880.800
337.402	25.942	1120.111	879.476
338.416	26.218	1119.548	880.299
339.431	26.107	1118.993	879.249
340.446	26.539	1116.995	879.700
341.460	26.395	1117.174	879.062
342.475	26.265	1116.924	878.156
343.489	26.234	1115.843	877.079
344.504	26.395	1115.123	877.216
345.519	26.329	1114.495	876.323
346.533	26.249	1113.733	875.261
347.548	26.256	1113.513	875.045
348.562	26.342	1111.738	873.987
349.577	26.472	1109.795	873.009
350.592	26.237	1109.298	871.409
351.606	26.126	1108.926	870.504
352.621	26.097	1108.553	869.994
353.635	25.974	1107.764	868.703
354.650	25.915	1107.159	867.867
355.665	26.144	1106.220	868.157
356.679	26.041	1106.434	867.751
357.694	26.033	1106.173	867.434
358.708	26.238	1105.042	867.455
359.723	25.955	1105.349	866.258
360.738	26.176	1103.296	865.634
361.752	25.855	1103.724	864.354
362.767	26.034	1102.338	864.046
363.781	25.804	1102.474	862.975
364.796	26.186	1101.598	864.040
365.810	26.632	1101.287	865.853
366.825	26.528	1100.611	864.749
367.840	26.402	1100.867	864.272
368.854	26.411	1100.517	863.966
369.869	26.835	1098.605	864.407
370.883	26.407	1097.584	861.490
371.898	26.276	1096.934	860.278
372.913	26.589	1096.123	861.055
373.927	26.396	1095.907	859.891
374.942	26.537	1095.548	860.203
375.956	26.432	1095.767	859.802
376.971	26.052	1094.697	857.081
377.986	26.069	1093.812	856.392
379.000	26.507	1094.159	858.668
380.015	26.540	1092.516	857.460
381.029	26.715	1092.870	858.489
382.044	26.634	1091.720	857.128
383.059	26.589	1090.367	855.779
384.073	26.315	1090.379	854.416
385.088	26.561	1088.891	854.336
386.102	26.565	1088.293	853.807
387.117	26.489	1086.341	851.845
388.132	26.355	1085.674	850.614
389.146	26.370	1085.487	850.463
390.161	26.240	1084.711	849.169
391.175	26.155	1083.936	848.087
392.190	26.331	1083.019	848.122
393.205	26.749	1083.070	850.048
394.219	26.634	1082.795	849.219
395.234	26.473	1081.101	847.062
396.248	26.085	1080.754	844.896
397.263	26.532	1078.618	845.241
398.278	26.277	1078.951	844.235
399.292	26.240	1078.472	843.611
400.307	26.289	1077.728	843.186
401.321	26.493	1077.197	843.646
402.336	26.068	1076.557	841.092
403.350	26.135	1075.182	840.255
404.365	26.297	1075.719	841.354
405.380	26.457	1074.828	841.327
406.394	26.255	1073.564	839.323
407.409	26.323	1072.677	838.871
408.423	26.646	1072.583	840.223
409.438	26.699	1072.696	840.480
410.453	26.269	1072.263	838.075
411.467	26.575	1070.157	837.769
412.482	26.437	1070.057	836.981
413.496	26.740	1068.974	837.458
414.511	26.488	1069.482	836.617
415.526	26.473	1068.344	835.582
416.540	26.661	1068.139	836.217
417.555	26.606	1067.314	835.244
418.569	26.560	1067.068	834.765
419.584	26.820	1066.289	835.279
420.599	26.583	1065.835	833.760
421.613	152.497	1404.455	1792.710
422.628	140.291	1453.837	1792.803
