DTS Sentinel unit serial number:	SN413079Multiplexer serial number:	ORYXHardware model number:	OX4-SRSoftware version number:	ORYX F/W v4.00 Oryx Data Collector v3.7.2.0data status	okinstallation	princeton_trtdifferential loss correction	single-endedforward channel	channel 2reverse channel	N/Adate	2019/09/14time	01:43:34forward acquisition time	60.00reverse acquisition time	0.00gamma	496.2192k internal	0.2338k external	0.2338temperature offset calibration	1.0124default loss term (dB/km)	0.3790temperature slope calibration	1.0000multiplexer offset coefficient	1.0000multiplexer slope coefficient	1.0000fibre end	0.00T internal ref (°C)	26.44T ext. ref 1 (°C)	3.21T ext. ref 2 (°C)	21.49length (m)	temperature (°C)	Stokes	anti-Stokes-747.200	800.000	0.053	0.166
-746.185	60.845	-0.229	0.228
-745.171	-39.523	0.323	-0.170
-744.156	230.638	0.168	0.275
-743.142	-200.000	-0.033	-0.217
-742.127	-50.197	-0.222	-0.106
-741.112	-122.077	-0.323	0.053
-740.098	127.265	-0.084	0.106
-739.083	-74.866	-0.333	-0.120
-738.069	-156.626	0.267	-0.017
-737.054	-148.213	-0.398	-0.033
-736.039	-4.780	-0.186	0.129
-735.025	-200.000	0.013	0.106
-734.010	-126.155	-0.191	-0.029
-732.996	800.000	-0.123	-0.368
-731.981	-200.000	0.036	-0.161
-730.966	-135.685	0.222	-0.026
-729.952	40.647	-0.181	-0.164
-728.937	228.162	0.254	-0.415
-727.923	-3.310	0.110	-0.077
-726.908	-73.834	-0.197	-0.072
-725.894	-115.836	0.172	0.032
-724.879	562.216	0.122	-0.296
-723.864	-200.000	0.030	-0.187
-722.850	123.864	-0.129	-0.163
-721.835	-200.000	-0.004	0.044
-720.821	-112.679	-0.456	-0.091
-719.806	-1.007	-0.085	-0.060
-718.791	-150.733	-0.125	-0.010
-717.777	-200.000	-0.018	0.325
-716.762	444.014	-0.051	-0.113
-715.748	-95.688	-0.233	0.063
-714.733	-200.000	-0.052	-0.324
-713.718	800.000	-0.079	-0.273
-712.704	154.910	-0.088	-0.121
-711.689	800.000	-0.036	0.127
-710.675	800.000	-0.156	-0.604
-709.660	-180.045	0.174	-0.004
-708.645	-76.153	-0.219	-0.078
-707.631	38.741	0.294	-0.263
-706.616	800.000	0.010	0.035
-705.602	539.217	0.109	-0.259
-704.587	-46.319	-0.247	-0.121
-703.572	54.613	0.030	-0.029
-702.558	63.708	-0.096	-0.097
-701.543	684.355	-0.029	-0.076
-700.529	-140.939	0.329	-0.034
-699.514	800.000	0.044	0.173
-698.499	-52.948	-0.222	-0.102
-697.485	771.392	-0.110	0.300
-696.470	-176.259	0.209	0.005
-695.456	-24.143	-0.278	-0.166
-694.441	-200.000	0.012	-0.106
-693.426	45.851	-0.115	0.106
-692.412	-150.646	0.113	-0.009
-691.397	-110.325	-0.243	0.051
-690.383	-200.000	-0.022	0.192
-689.368	800.000	-0.055	-0.184
-688.354	-4.668	-0.231	-0.160
-687.339	-200.000	-0.025	-0.326
-686.324	-179.342	0.289	-0.006
-685.310	667.099	-0.095	-0.246
-684.295	546.339	-0.049	0.117
-683.281	800.000	0.020	0.086
-682.266	-200.000	-0.010	0.226
-681.251	-97.080	0.093	-0.024
-680.237	8.182	-0.110	0.083
-679.222	-200.000	-0.016	-0.169
-678.208	226.457	-0.188	0.306
-677.193	33.737	0.226	0.196
-676.178	-31.241	0.157	-0.089
-675.164	234.417	-0.180	-0.297
-674.149	800.000	0.030	-0.116
-673.135	-114.069	-0.280	0.054
-672.120	800.000	-0.030	0.110
-671.105	-88.453	-0.336	0.100
-670.091	-39.037	0.074	-0.039
-669.076	52.078	-0.140	0.134
-668.062	-24.850	-0.396	-0.235
-667.047	-99.726	0.322	0.081
-666.032	-54.381	0.239	0.109
-665.018	-90.899	0.555	0.160
-664.003	-200.000	0.024	0.214
-662.989	219.963	-0.074	-0.119
-661.974	800.000	0.092	-0.293
-660.959	-87.937	-0.083	0.025
-659.945	318.200	-0.116	-0.219
-658.930	48.650	0.183	-0.172
-657.916	-0.155	-0.143	-0.102
-656.901	800.000	0.133	-0.372
-655.886	-200.000	-0.038	-0.202
-654.872	600.284	-0.055	0.136
-653.857	-127.949	-0.048	0.007
-652.843	14.002	-0.122	-0.095
-651.828	240.987	0.176	-0.294
-650.814	-200.000	0.031	0.247
-649.799	800.000	0.031	0.091
-648.784	66.772	-0.193	0.196
-647.770	-159.404	-0.133	-0.007
-646.755	297.802	-0.072	-0.133
-645.741	71.741	0.196	0.204
-644.726	81.525	-0.226	-0.244
-643.711	-200.000	0.043	0.249
-642.697	-133.481	-0.181	0.023
-641.682	153.297	-0.092	-0.125
-640.668	113.825	-0.148	-0.180
-639.653	-51.118	-0.207	-0.097
-638.638	33.420	0.196	-0.170
-637.624	310.495	-0.138	-0.259
-636.609	-200.000	0.008	-0.338
-635.595	-200.000	0.042	-0.275
-634.580	-155.190	-0.291	-0.019
-633.565	-200.000	0.009	0.274
-632.551	93.526	0.209	0.237
-631.536	-116.847	0.007	-0.001
-630.522	-200.000	-0.350	0.001
-629.507	698.998	-0.043	0.112
-628.492	800.000	0.014	-0.041
-627.478	800.000	0.106	-0.415
-626.463	-23.166	-0.218	0.131
-625.449	-33.367	-0.134	-0.074
-624.434	-4.483	0.093	0.064
-623.419	-200.000	-0.011	0.081
-622.405	800.000	0.137	-0.438
-621.390	-134.549	-0.318	-0.039
-620.376	-186.578	-0.273	0.004
-619.361	779.299	0.088	0.241
-618.346	13.472	-0.196	0.152
-617.332	-56.397	-0.140	-0.062
-616.317	-200.000	-0.028	-0.141
-615.303	72.579	-0.165	-0.171
-614.288	-106.243	-0.131	0.029
-613.273	-131.988	0.091	-0.012
-612.259	256.783	0.136	-0.234
-611.244	-146.553	0.176	-0.015
-610.230	-18.100	0.156	-0.097
-609.215	485.977	-0.090	0.204
-608.201	-200.000	0.020	0.099
-607.186	800.000	0.035	-0.137
-606.171	-18.934	0.145	-0.090
-605.157	800.000	-0.089	0.323
-604.142	401.890	-0.050	-0.105
-603.128	10.328	0.087	-0.066
-602.113	211.775	0.237	0.373
-601.098	35.143	-0.281	-0.246
-600.084	-144.853	0.193	-0.018
-599.069	-58.026	-0.273	0.119
-598.055	6.523	-0.184	-0.137
-597.040	-200.000	-0.055	0.351
-596.025	-44.831	0.289	0.144
-595.011	-200.000	0.018	0.435
-593.996	-200.000	-0.184	-0.000
-592.982	-36.630	0.065	0.035
-591.967	-157.575	-0.311	0.019
-590.952	-23.733	-0.201	0.120
-589.938	734.440	-0.048	-0.128
-588.923	572.246	0.095	-0.231
-587.909	-200.000	0.002	-0.194
-586.894	-56.521	-0.111	0.049
-585.879	-51.284	-0.004	0.002
-584.865	669.200	0.069	-0.178
-583.850	124.624	-0.147	0.184
-582.836	-135.512	0.151	-0.018
-581.821	-97.637	-0.140	-0.036
-580.806	800.000	0.064	-0.207
-579.792	170.621	0.050	-0.072
-578.777	-20.860	-0.307	0.188
-577.763	83.345	0.153	-0.167
-576.748	-48.921	0.265	0.127
-575.733	-60.242	-0.173	-0.073
-574.719	-3.760	-0.120	0.083
-573.704	-158.052	-0.511	0.030
-572.690	-105.492	-0.230	0.052
-571.675	800.000	-0.038	-0.160
-570.661	-86.841	-0.181	0.055
-569.646	-200.000	-0.066	0.327
-568.631	30.375	0.265	-0.225
-567.617	-200.000	-0.068	-0.305
-566.602	-62.360	-0.160	-0.066
-565.588	309.994	0.089	-0.165
-564.573	4.733	-0.187	0.137
-563.558	268.027	0.070	0.122
-562.544	-139.489	-0.248	-0.026
-561.529	-10.663	-0.074	0.049
-560.515	-200.000	0.063	0.000
-559.500	-18.227	0.031	-0.019
-558.485	117.655	-0.022	0.026
-557.471	50.129	0.182	0.171
-556.456	-138.575	0.140	0.015
-555.442	800.000	-0.023	0.065
-554.427	-200.000	0.047	0.255
-553.412	176.730	0.012	0.017
-552.398	20.765	-0.069	-0.056
-551.383	59.066	0.118	-0.116
-550.369	-112.811	0.121	0.024
-549.354	-14.562	-0.114	-0.073
-548.339	800.000	-0.099	0.411
-547.325	-55.874	-0.263	0.117
-546.310	-22.097	0.109	-0.066
-545.296	19.225	-0.149	0.119
-544.281	-157.049	-0.344	-0.021
-543.266	-51.970	-0.336	-0.156
-542.252	40.032	-0.224	0.200
-541.237	-60.637	0.282	0.119
-540.223	-85.566	-0.120	-0.037
-539.208	538.709	-0.062	0.148
-538.193	800.000	-0.050	-0.158
-537.179	-200.000	-0.040	-0.176
-536.164	-80.369	0.203	0.067
-535.150	-163.332	0.461	-0.022
-534.135	-86.079	-0.209	-0.064
-533.121	42.020	-0.144	0.130
-532.106	-142.531	0.504	0.049
-531.091	800.000	0.061	-0.235
-530.077	15.447	0.281	-0.220
-529.062	272.714	-0.076	0.133
-528.048	-98.108	-0.144	-0.037
-527.033	800.000	0.028	0.080
-526.018	-45.077	-0.070	-0.035
-525.004	26.832	-0.127	-0.106
-523.989	-83.240	-0.103	0.033
-522.975	29.782	0.135	-0.114
-521.960	516.198	-0.046	-0.106
-520.945	-200.000	-0.013	0.259
-519.931	-94.832	0.280	-0.076
-518.916	-143.946	-0.168	-0.016
-517.902	-32.563	-0.310	-0.172
-516.887	-13.710	0.204	-0.132
-515.872	13.710	0.375	0.290
-514.858	-200.000	0.003	-0.164
-513.843	-73.564	0.117	-0.042
-512.829	69.343	0.097	0.099
-511.814	800.000	-0.086	-0.304
-510.799	-200.000	0.059	-0.278
-509.785	-126.017	0.109	-0.016
-508.770	-200.000	0.068	0.307
-507.756	-200.000	0.010	0.208
-506.741	-200.000	0.006	-0.245
-505.726	-146.644	-0.180	0.016
-504.712	-95.625	0.116	-0.031
-503.697	341.159	0.228	-0.443
-502.683	-7.237	-0.161	0.109
-501.668	200.272	0.068	0.103
-500.653	-12.872	0.304	0.197
-499.639	17.544	0.161	0.127
-498.624	-29.676	-0.148	0.084
-497.610	800.000	0.143	-0.443
-496.595	-200.000	-0.009	-0.134
-495.581	100.787	-0.137	-0.158
-494.566	-34.817	-0.229	-0.124
-493.551	-116.726	-0.231	-0.042
-492.537	-200.000	-0.030	-0.269
-491.522	-79.694	0.331	0.111
-490.508	-112.089	0.150	0.030
-489.493	565.039	0.117	-0.283
-488.478	84.741	-0.228	-0.248
-487.464	-11.137	-0.084	-0.055
-486.449	-200.000	-0.010	0.049
-485.435	18.986	0.218	0.173
-484.420	-125.062	0.369	0.056
-483.405	-95.814	0.346	0.092
-482.391	-200.000	-0.011	0.184
-481.376	-200.000	0.011	0.168
-480.362	-149.340	0.064	-0.005
-479.347	380.167	-0.085	0.173
-478.332	-138.322	-0.166	-0.018
-477.318	-80.131	0.139	-0.046
-476.303	-100.780	-0.183	0.045
-475.289	261.838	0.079	-0.135
-474.274	-112.101	-0.206	0.041
-473.259	29.845	0.093	0.078
-472.245	738.559	0.079	-0.210
-471.230	49.867	0.221	-0.207
-470.216	-145.809	0.437	0.039
-469.201	-113.692	-0.184	-0.036
-468.186	22.595	-0.154	0.125
-467.172	345.424	0.144	0.280
-466.157	161.868	0.135	0.187
-465.143	-11.720	0.095	-0.062
-464.128	-149.553	-0.319	0.025
-463.113	-54.346	0.176	-0.079
-462.099	-131.344	0.296	-0.039
-461.084	-141.307	-0.241	-0.024
-460.070	-58.049	0.125	0.054
-459.055	39.811	-0.181	0.161
-458.040	-50.296	-0.248	-0.117
-457.026	186.520	-0.042	-0.062
-456.011	-200.000	-0.007	0.088
-454.997	-104.212	0.280	-0.065
-453.982	-21.982	-0.121	0.073
-452.968	289.345	-0.027	-0.048
-451.953	-98.849	0.162	-0.041
-450.938	-181.221	-0.233	0.005
-449.924	800.000	0.028	-0.105
-448.909	792.688	0.069	-0.188
-447.895	-81.150	-0.418	0.137
-446.880	-19.193	-0.285	-0.176
-445.865	-86.285	-0.048	0.015
-444.851	132.485	-0.131	-0.168
-443.836	9.489	0.235	-0.177
-442.822	44.382	0.128	0.117
-441.807	-3.583	0.190	-0.131
-440.792	-159.348	0.233	-0.013
-439.778	-154.940	-0.163	-0.011
-438.763	-15.486	-0.248	0.157
-437.749	-56.908	0.249	0.109
-436.734	-96.808	0.111	-0.029
-435.719	800.000	0.049	-0.142
-434.705	-134.861	0.023	0.003
-433.690	9.150	0.238	-0.178
-432.676	-165.193	-0.311	0.014
-431.661	-200.000	-0.000	-0.091
-430.646	376.140	-0.051	0.102
-429.632	800.000	-0.099	0.409
-428.617	-152.564	0.102	0.007
-427.603	553.638	0.105	0.251
-426.588	122.881	0.077	0.095
-425.573	-106.049	0.376	-0.084
-424.559	-200.000	0.012	0.099
-423.544	800.000	0.135	-0.394
-422.530	94.491	-0.153	0.172
-421.515	-183.133	0.101	-0.002
-420.500	345.718	-0.068	0.133
-419.486	-114.039	-0.158	-0.030
-418.471	-145.552	-0.069	-0.006
-417.457	-144.533	0.241	0.022
-416.442	274.324	0.065	-0.114
-415.428	-81.606	0.177	-0.058
-414.413	-101.350	0.246	-0.059
-413.398	-151.954	-0.145	-0.011
-412.384	-23.258	-0.415	-0.247
-411.369	33.377	0.256	-0.220
-410.355	-15.786	-0.224	-0.141
-409.340	21.082	0.075	-0.060
-408.325	180.602	-0.189	0.275
-407.311	297.838	-0.089	0.162
-406.296	-52.803	-0.147	0.067
-405.282	176.954	0.074	-0.106
-404.267	234.314	0.108	-0.176
-403.252	-64.128	0.191	0.077
-402.238	136.854	-0.105	-0.136
-401.223	-55.077	-0.103	-0.046
-400.209	20.515	-0.176	-0.141
-399.194	-200.000	-0.040	0.221
-398.179	-200.000	-0.014	-0.084
-397.165	60.866	0.082	-0.080
-396.150	-89.340	0.093	0.027
-395.136	-200.000	0.004	-0.178
-394.121	800.000	-0.017	0.069
-393.106	-120.028	-0.259	-0.044
-392.092	40.703	-0.123	0.110
-391.077	-10.141	-0.142	-0.093
-390.063	-79.721	-0.152	-0.051
-389.048	-186.517	0.243	0.003
-388.033	-61.802	0.342	-0.142
-387.019	-200.000	-0.005	-0.046
-386.004	-105.593	-0.281	0.063
-384.990	-93.004	0.241	0.066
-383.975	98.955	-0.162	0.185
-382.960	800.000	0.085	-0.244
-381.946	122.991	0.085	0.105
-380.931	25.623	0.167	0.138
-379.917	-183.061	-0.373	-0.007
-378.902	691.985	0.087	0.227
-377.888	800.000	0.095	0.316
-376.873	-100.549	-0.142	0.035
-375.858	-86.532	-0.422	-0.128
-374.844	653.549	-0.097	-0.247
-373.829	-95.282	0.090	-0.024
-372.815	800.000	0.019	0.076
-371.800	800.000	0.003	-0.009
-370.785	-200.000	-0.009	0.181
-369.771	-12.818	0.151	-0.097
-368.756	593.393	0.027	0.065
-367.742	-81.581	-0.393	0.128
-366.727	-157.298	0.494	0.030
-365.712	-90.956	0.161	0.046
-364.698	415.691	0.128	0.270
-363.683	-84.270	-0.519	-0.162
-362.669	-82.891	0.070	-0.022
-361.654	92.454	-0.349	-0.389
-360.639	56.559	-0.280	-0.269
-359.625	69.906	0.235	-0.239
-358.610	234.505	0.121	-0.198
-357.596	177.554	-0.080	0.115
-356.581	-200.000	-0.022	0.495
-355.566	3.904	0.045	0.032
-354.552	78.892	0.272	0.288
-353.537	-62.174	0.530	-0.218
-352.523	800.000	-0.111	-0.370
-351.508	-112.952	-0.400	0.078
-350.493	-101.382	0.397	-0.096
-349.479	-30.604	-0.151	-0.084
-348.464	-7.515	-0.298	0.199
-347.450	-98.722	0.077	-0.019
-346.435	-200.000	0.010	-0.076
-345.420	-200.000	-0.019	-0.304
-344.406	-164.918	-0.108	0.005
-343.391	700.860	0.050	0.130
-342.377	205.286	-0.063	-0.097
-341.362	57.770	0.230	0.222
-340.348	-93.172	-0.303	-0.083
-339.333	-132.051	0.117	-0.015
-338.318	800.000	0.067	0.203
-337.304	-78.627	-0.270	-0.091
-336.289	-200.000	0.041	0.266
-335.275	-83.389	0.066	0.021
-334.260	-200.000	0.016	-0.207
-333.245	-200.000	-0.012	0.209
-332.231	-95.021	-0.201	-0.054
-331.216	-64.289	0.060	0.024
-330.202	-117.533	0.198	-0.035
-329.187	400.016	-0.025	0.052
-328.172	-106.825	0.120	-0.026
-327.158	14.760	-0.144	-0.111
-326.143	-63.663	0.186	-0.075
-325.129	-149.896	0.162	-0.012
-324.114	800.000	0.034	0.125
-323.099	-123.172	0.416	-0.066
-322.085	-170.074	-0.460	-0.016
-321.070	-127.163	0.288	-0.042
-320.056	75.325	-0.151	0.157
-319.041	-112.297	-0.145	0.029
-318.026	-102.723	0.091	0.022
-317.012	70.832	-0.026	0.026
-315.997	-58.962	0.307	-0.131
-314.983	-93.692	-0.265	-0.072
-313.968	800.000	-0.048	0.165
-312.953	-200.000	-0.005	0.111
-311.939	203.682	-0.108	0.165
-310.924	-147.385	0.143	0.012
-309.910	99.849	0.116	0.133
-308.895	67.166	0.080	-0.080
-307.880	800.000	0.023	0.082
-306.866	446.093	0.021	0.046
-305.851	166.968	0.076	-0.106
-304.837	305.672	-0.117	-0.215
-303.822	-200.000	0.064	0.342
-302.807	533.593	-0.036	0.085
-301.793	-32.778	0.095	-0.052
-300.778	28.875	-0.274	0.229
-299.764	19.675	-0.073	0.058
-298.749	184.663	0.194	-0.283
-297.735	-126.586	0.355	-0.052
-296.720	46.487	0.525	0.480
-295.705	-200.000	-0.047	-0.210
-294.691	-200.000	0.006	-0.250
-293.676	49.540	0.072	0.067
-292.662	-113.283	0.100	0.019
-291.647	-40.097	0.225	-0.116
-290.632	106.906	0.208	0.244
-289.618	150.313	0.142	-0.191
-288.603	-57.549	0.045	-0.019
-287.589	4.873	-0.200	0.145
-286.574	-123.341	0.127	0.020
-285.559	-200.000	-0.018	-0.131
-284.545	458.224	-0.005	-0.012
-283.530	-200.000	0.134	-0.001
-282.516	-200.000	-0.017	-0.366
-281.501	-200.000	0.016	0.159
-280.486	-200.000	0.018	0.147
-279.472	-171.722	0.050	-0.002
-278.457	59.492	0.113	-0.110
-277.443	-67.113	-0.302	0.117
-276.428	-124.265	-0.356	-0.055
-275.413	516.780	0.085	-0.196
-274.399	-200.000	-0.003	-0.048
-273.384	42.873	0.064	0.057
-272.370	393.774	-0.031	0.064
-271.355	-111.210	-0.294	-0.059
-270.340	120.469	0.054	-0.066
-269.326	-98.444	-0.446	-0.113
-268.311	316.412	-0.051	0.095
-267.297	-73.217	0.137	-0.049
-266.282	428.496	0.030	-0.065
-265.267	47.653	0.069	-0.064
-264.253	345.821	0.050	-0.098
-263.238	-92.330	0.463	-0.128
-262.224	-87.869	0.063	0.019
-261.209	37.545	-0.282	0.246
-260.195	-133.098	0.201	0.025
-259.180	-172.503	-0.143	0.004
-258.165	-123.773	-0.081	0.013
-257.151	595.650	-0.153	0.373
-256.136	-148.760	-0.178	0.014
-255.122	-129.220	-0.644	0.088
-254.107	-200.000	0.046	0.214
-253.092	18.725	-0.089	-0.070
-252.078	-200.000	-0.008	-0.067
-251.063	-72.189	0.115	-0.042
-250.049	148.191	-0.288	-0.382
-249.034	-82.360	-0.309	0.099
-248.019	256.823	0.158	-0.267
-247.005	-0.698	-0.097	-0.068
-245.990	800.000	-0.011	-0.043
-244.976	800.000	-0.060	0.260
-243.961	-181.317	0.167	0.003
-242.946	121.529	-0.164	-0.201
-241.932	-125.729	-0.074	-0.011
-240.917	81.807	0.198	0.211
-239.903	-166.596	-0.191	0.008
-238.888	800.000	-0.063	-0.230
-237.873	-71.779	-0.271	0.099
-236.859	-146.484	-0.189	0.016
-235.844	81.983	0.229	0.244
-234.830	221.776	-0.136	0.215
-233.815	-60.932	0.062	0.026
-232.800	-146.323	-0.043	-0.004
-231.786	-200.000	0.016	-0.101
-230.771	-200.000	-0.028	0.167
-229.757	800.000	-0.070	0.224
-228.742	395.697	-0.116	0.237
-227.727	-16.129	0.350	0.219
-226.713	-99.129	0.141	-0.035
-225.698	-24.705	0.304	-0.178
-224.684	-39.956	0.220	-0.113
-223.669	-17.756	-0.132	0.081
-222.655	177.301	0.102	-0.146
-221.640	800.000	-0.028	-0.100
-220.625	263.980	0.052	-0.088
-219.611	-71.363	-0.325	-0.120
-218.596	-200.000	0.017	0.141
-217.582	25.069	-0.161	0.132
-216.567	658.673	-0.210	0.531
-215.552	-30.660	0.363	0.202
-214.538	218.434	-0.091	-0.142
-213.523	-94.282	-0.053	-0.014
-212.509	-5.612	0.095	-0.064
-211.494	-200.000	0.007	-0.217
-210.479	800.000	0.024	-0.089
-209.465	51.743	-0.176	0.165
-208.450	63.538	-0.250	0.247
-207.436	-136.448	0.261	0.030
-206.421	-50.728	0.156	-0.072
-205.406	-195.975	0.189	0.001
-204.392	-88.411	-0.041	-0.012
-203.377	800.000	0.131	0.441
-202.363	-5.765	-0.194	0.131
-201.348	-151.676	0.160	-0.012
-200.333	40.371	0.335	0.297
-199.319	-200.000	0.023	0.237
-198.304	-55.651	-0.109	0.048
-197.290	631.214	0.056	0.140
-196.275	-57.232	0.283	0.123
-195.260	-200.000	-0.003	-0.031
-194.246	-13.386	-0.483	-0.308
-193.231	-200.000	0.052	0.249
-192.217	-42.119	-0.156	0.079
-191.202	-118.741	0.404	0.070
-190.187	-102.816	0.026	0.006
-189.173	-12.592	-0.331	0.212
-188.158	-200.000	-0.033	0.165
-187.144	-200.000	-0.006	-0.131
-186.129	32.137	-0.102	0.086
-185.114	-200.000	-0.013	0.080
-184.100	-200.000	-0.041	-0.208
-183.085	-88.520	0.170	0.050
-182.071	15.379	0.100	-0.077
-181.056	-163.422	0.238	-0.011
-180.042	22.907	0.358	0.288
-179.027	345.033	0.126	-0.244
-178.012	-2.074	0.315	-0.217
-176.998	51.329	-0.257	-0.240
-175.983	274.246	0.166	-0.288
-174.969	200.026	0.230	-0.346
-173.954	800.000	0.069	0.213
-172.939	-200.000	-0.059	-0.294
-171.925	-12.950	0.173	0.111
-170.910	800.000	-0.044	-0.131
-169.896	-49.364	0.067	0.031
-168.881	-200.000	0.046	-0.246
-167.866	-200.000	0.001	-0.149
-166.852	-200.000	0.013	0.064
-165.837	-200.000	0.002	-0.252
-164.823	399.370	-0.168	0.345
-163.808	-200.000	-0.041	0.227
-162.793	-159.988	0.351	0.019
-161.779	-200.000	-0.022	-0.119
-160.764	41.418	0.139	0.123
-159.750	-200.000	-0.014	-0.061
-158.735	-200.000	0.001	0.190
-157.720	-95.376	0.091	0.024
-156.706	-124.610	0.247	0.038
-155.691	186.340	-0.072	0.105
-154.677	18.515	0.133	0.104
-153.662	34.191	-0.124	0.106
-152.647	176.594	-0.065	-0.092
-151.633	-62.139	0.299	-0.122
-150.618	81.425	0.368	0.390
-149.604	800.000	0.060	-0.206
-148.589	-200.000	-0.030	-0.181
-147.574	-2.504	0.257	0.177
-146.560	160.160	-0.052	-0.071
-145.545	79.603	0.075	0.078
-144.531	-100.091	-0.132	0.032
-143.516	-90.560	0.152	0.043
-142.502	800.000	0.081	-0.230
-141.487	-200.000	-0.032	0.244
-140.472	-200.000	0.041	0.250
-139.458	-200.000	-0.011	-0.253
-138.443	177.838	0.094	0.135
-137.429	68.307	-0.107	0.107
-136.414	73.565	-0.134	0.137
-135.399	-200.000	-0.007	0.078
-134.385	-82.469	-0.178	0.056
-133.370	-200.000	0.011	0.083
-132.356	-62.390	0.185	-0.076
-131.341	-88.705	-0.042	-0.012
-130.326	800.000	-0.121	-0.494
-129.312	28.999	0.184	-0.153
-128.297	-200.000	-0.031	0.340
-127.283	417.188	0.118	0.248
-126.268	-4.334	0.079	-0.053
-125.253	-149.838	0.124	-0.009
-124.239	-90.633	0.331	0.094
-123.224	255.330	-0.063	-0.106
-122.210	436.272	-0.027	-0.058
-121.195	-167.068	0.342	-0.014
-120.180	800.000	0.063	-0.197
-119.166	-200.000	0.060	0.314
-118.151	800.000	-0.095	-0.313
-117.137	64.818	0.225	0.223
-116.122	-9.990	0.122	-0.079
-115.107	63.006	-0.099	0.097
-114.093	-78.087	0.207	0.070
-113.078	-31.106	-0.139	0.077
-112.064	-200.000	0.028	0.146
-111.049	800.000	-0.037	-0.112
-110.034	53.095	0.114	0.107
-109.020	-200.000	0.001	0.054
-108.005	-139.510	0.310	0.032
-106.991	800.000	-0.060	-0.225
-105.976	9.551	0.157	0.117
-104.962	-20.008	0.113	-0.068
-103.947	161.959	-0.307	0.420
-102.932	71.003	-0.238	-0.241
-101.918	-0.308	0.081	-0.056
-100.903	-99.343	-0.195	0.048
-99.889	160.498	0.015	-0.020
-98.874	162.999	-0.052	-0.071
-97.859	-139.075	-0.187	0.020
-96.845	33.304	-0.131	0.111
-95.830	-106.984	0.472	-0.102
-94.816	-44.483	0.085	-0.041
-93.801	-103.949	-0.230	0.052
-92.786	-85.571	0.147	0.045
-91.772	109.603	-0.069	0.081
-90.757	-1.476	-0.107	-0.074
-89.743	-26.086	-0.061	-0.035
-88.728	200.850	-0.070	-0.106
-87.713	800.000	-0.069	-0.221
-86.699	256.516	-0.153	0.257
-85.684	766.522	0.014	0.038
-84.670	-68.069	-0.398	0.152
-83.655	-103.599	-0.213	-0.049
-82.640	-34.620	0.290	0.155
-81.626	-88.890	-0.109	0.032
-80.611	-68.443	0.145	-0.055
-79.597	17.004	-0.104	-0.081
-78.582	-127.367	-0.383	0.055
-77.567	-135.606	0.220	-0.026
-76.553	-69.510	0.136	0.051
-75.538	-38.290	-0.200	-0.104
-74.524	-133.688	0.387	-0.047
-73.509	-82.541	0.209	-0.066
-72.494	44.145	0.137	0.123
-71.480	-118.927	0.329	0.056
-70.465	-118.546	0.280	-0.048
-69.451	-122.546	-0.182	-0.029
-68.436	-62.262	-0.161	0.065
-67.422	9.841	0.187	-0.139
-66.407	-200.000	-0.025	0.166
-65.392	-152.356	0.278	-0.020
-64.378	-23.369	-0.381	0.224
-63.363	-61.532	-0.211	0.086
-62.349	33.119	-0.228	0.193
-61.334	154.367	-0.788	-1.057
-60.319	-37.550	0.727	0.379
-59.305	-200.000	-0.278	-1.502
-58.290	189.161	0.810	1.185
-57.276	450.859	0.604	1.303
-56.261	-200.000	116.375	645.380
-55.246	502.430	1540.877	3478.551
-54.232	174.125	2720.922	3840.375
-53.217	98.568	2296.127	2586.427
-52.203	35.558	1902.961	1632.243
-51.188	29.558	1696.412	1409.388
-50.173	27.170	1655.556	1357.578
-49.159	47.425	1712.204	1558.473
-48.144	45.979	1725.982	1559.974
-47.130	29.114	1683.029	1394.688
-46.115	26.578	1668.988	1363.919
-45.100	26.380	1664.018	1358.318
-44.086	26.262	1661.651	1355.448
-43.071	26.262	1658.874	1353.127
-42.057	26.348	1656.145	1351.490
-41.042	26.253	1654.486	1349.376
-40.027	26.344	1652.313	1348.229
-39.013	26.243	1650.617	1346.034
-37.998	26.249	1648.946	1344.667
-36.984	26.336	1647.589	1344.153
-35.969	26.470	1646.121	1343.896
-34.954	26.377	1644.726	1342.015
-33.940	26.380	1642.980	1340.558
-32.925	26.385	1641.278	1339.155
-31.911	26.387	1639.689	1337.817
-30.896	26.473	1637.698	1336.776
-29.881	26.363	1636.469	1334.910
-28.867	26.400	1635.201	1334.090
-27.852	26.512	1632.909	1332.997
-26.838	26.512	1631.907	1332.121
-25.823	26.526	1630.377	1330.926
-24.809	26.498	1628.849	1329.419
-23.794	26.454	1627.434	1327.886
-22.779	26.503	1626.456	1327.400
-21.765	26.476	1624.445	1325.503
-20.750	26.403	1622.827	1323.602
-19.736	26.460	1621.330	1322.742
-18.721	26.536	1619.892	1322.071
-17.706	26.401	1618.366	1319.786
-16.692	26.426	1617.071	1318.860
-15.677	26.423	1615.685	1317.658
-14.663	26.466	1614.264	1316.758
-13.648	26.455	1613.041	1315.629
-12.633	26.532	1611.140	1314.590
-11.619	26.555	1609.464	1313.331
-10.604	26.428	1608.370	1311.469
-9.590	26.475	1606.886	1310.550
-8.575	26.571	1605.151	1309.772
-7.560	26.457	1604.200	1308.123
-6.546	26.475	1603.287	1307.457
-5.531	26.499	1602.059	1306.573
-4.517	26.434	1601.137	1305.302
-3.502	26.493	1599.894	1304.666
-2.487	26.441	1598.554	1303.140
-1.473	26.105	1586.436	1290.810
-0.458	23.414	1567.744	1256.502
0.556	20.935	1569.445	1226.878
1.571	18.735	1593.119	1229.538
2.586	18.314	1605.146	1235.668
3.600	16.126	1550.149	1177.958
4.615	9.449	1442.366	1052.428
5.629	4.098	1382.830	975.281
6.644	3.255	1375.704	964.885
7.659	3.187	1374.505	963.536
8.673	3.169	1374.074	963.033
9.688	3.239	1371.722	961.735
10.702	3.188	1368.866	959.332
11.717	5.660	1373.756	978.125
12.731	12.912	1386.696	1032.813
13.746	18.904	1396.571	1077.755
14.761	20.348	1397.168	1087.175
15.775	19.719	1395.940	1082.184
16.790	18.659	1393.679	1073.706
17.804	17.826	1391.359	1066.619
18.819	17.459	1390.056	1063.234
19.834	17.445	1388.803	1062.096
20.848	17.305	1387.741	1060.318
21.863	17.052	1386.148	1057.430
22.877	16.987	1385.051	1056.094
23.892	16.863	1384.961	1055.158
24.907	16.845	1383.766	1054.042
25.921	16.872	1382.461	1053.123
26.936	16.951	1381.915	1053.104
27.950	16.929	1380.727	1051.972
28.965	17.023	1380.074	1051.962
29.980	17.128	1378.677	1051.456
30.994	17.173	1377.563	1050.793
32.009	17.295	1376.085	1050.323
33.023	17.293	1374.873	1049.293
34.038	16.998	1373.861	1046.612
35.053	17.060	1372.831	1046.114
36.067	17.010	1371.538	1044.729
37.082	17.042	1370.753	1044.235
38.096	17.167	1369.843	1044.219
39.111	17.110	1368.962	1043.107
40.126	16.902	1368.485	1041.370
41.140	16.851	1366.757	1039.652
42.155	16.748	1366.620	1038.824
43.169	16.565	1366.634	1037.619
44.184	16.665	1365.647	1037.391
45.199	16.724	1365.684	1037.690
46.213	16.846	1364.620	1037.538
47.228	16.964	1364.056	1037.738
48.242	17.004	1362.964	1037.059
49.257	16.981	1361.416	1035.649
50.271	16.904	1360.143	1034.119
51.286	16.862	1358.892	1032.821
52.301	16.926	1357.471	1032.039
53.315	16.900	1356.359	1030.946
54.330	16.789	1355.242	1029.329
55.344	16.829	1353.577	1028.214
56.359	16.777	1353.025	1027.392
57.374	16.725	1352.213	1026.369
58.388	16.663	1351.096	1025.054
59.403	16.640	1350.948	1024.708
60.417	16.650	1349.685	1023.726
61.432	16.612	1348.641	1022.613
62.447	16.523	1348.016	1021.511
63.461	16.446	1346.872	1020.090
64.476	16.512	1345.447	1019.314
65.490	16.449	1344.830	1018.377
66.505	16.594	1342.264	1017.216
67.520	16.578	1341.546	1016.490
68.534	16.515	1341.198	1015.755
69.549	16.533	1339.861	1014.758
70.563	16.507	1338.699	1013.633
71.578	16.404	1337.684	1012.161
72.593	16.441	1336.663	1011.521
73.607	16.370	1335.769	1010.331
74.622	16.378	1335.427	1010.025
75.636	16.397	1334.537	1009.378
76.651	16.430	1333.596	1008.774
77.666	16.513	1333.081	1008.792
78.680	16.525	1332.809	1008.568
79.695	16.524	1332.073	1007.918
80.709	16.535	1331.648	1007.569
81.724	16.700	1330.655	1007.710
82.739	16.895	1329.151	1007.644
83.753	16.924	1328.489	1007.224
84.768	17.103	1327.719	1007.616
85.782	17.139	1326.596	1006.885
86.797	17.081	1325.351	1005.511
87.812	16.938	1324.203	1003.700
88.826	16.910	1323.576	1002.972
89.841	17.031	1322.407	1002.711
90.855	17.039	1321.583	1002.048
91.870	17.095	1320.397	1001.388
92.884	17.107	1319.773	1000.898
93.899	17.243	1318.826	1000.891
94.914	17.275	1317.580	1000.045
95.928	17.200	1316.921	999.017
96.943	17.084	1316.160	997.671
97.957	17.176	1314.927	997.186
98.972	17.112	1313.763	995.839
99.987	17.011	1313.620	995.053
101.001	17.025	1312.322	994.060
102.016	17.054	1311.208	993.302
103.030	17.005	1310.474	992.372
104.045	17.059	1309.227	991.651
105.060	16.899	1307.976	989.685
106.074	16.775	1306.490	987.750
107.089	16.713	1304.775	986.001
108.103	16.640	1303.576	984.586
109.118	16.606	1302.411	983.418
110.133	16.596	1300.747	982.021
111.147	16.630	1299.199	980.962
112.162	16.692	1298.072	980.385
113.176	16.671	1297.416	979.676
114.191	16.779	1296.470	979.505
115.206	16.699	1295.303	978.072
116.220	16.725	1294.389	977.447
117.235	16.650	1293.025	975.898
118.249	16.612	1291.925	974.764
119.264	16.557	1291.066	973.709
120.279	16.582	1289.541	972.616
121.293	16.541	1288.880	971.799
122.308	16.554	1287.906	971.053
123.322	16.511	1286.270	969.486
124.337	16.516	1285.539	968.875
125.352	16.477	1284.418	967.724
126.366	16.356	1283.279	966.090
127.381	16.407	1282.304	965.561
128.395	16.391	1281.177	964.532
129.410	16.490	1280.368	964.402
130.424	16.631	1279.755	964.660
131.439	16.654	1278.673	963.891
132.454	16.611	1278.275	963.260
133.468	16.640	1277.397	962.680
134.483	16.684	1276.382	962.082
135.497	16.708	1275.106	961.171
136.512	16.794	1273.775	960.569
137.527	16.666	1273.062	959.222
138.541	16.639	1271.752	957.994
139.556	16.826	1269.838	957.528
140.570	16.948	1269.200	957.649
141.585	16.947	1267.958	956.620
142.600	17.069	1266.892	956.423
143.614	17.129	1266.075	956.057
144.629	17.046	1265.502	955.074
145.643	17.106	1263.970	954.169
146.658	16.997	1262.730	952.535
147.673	16.893	1261.198	950.712
148.687	16.788	1260.336	949.391
149.702	16.779	1258.846	948.135
150.716	16.741	1257.632	946.926
151.731	16.685	1256.781	945.886
152.746	16.786	1255.068	945.078
153.760	16.872	1254.379	944.956
154.775	16.939	1253.407	944.510
155.789	17.090	1252.113	944.293
156.804	17.004	1250.982	942.876
157.819	17.031	1250.038	942.230
158.833	17.064	1249.361	941.825
159.848	17.295	1248.631	942.470
160.862	17.260	1247.365	941.235
161.877	16.988	1245.935	938.569
162.892	16.996	1244.807	937.682
163.906	16.880	1244.252	936.540
164.921	16.850	1243.241	935.528
165.935	16.924	1242.465	935.270
166.950	16.965	1241.716	934.851
167.964	17.011	1240.605	934.186
168.979	16.971	1240.270	933.629
169.994	16.900	1239.353	932.465
171.008	16.949	1239.024	932.408
172.023	17.088	1238.212	932.475
173.037	17.218	1237.015	932.204
174.052	17.122	1236.482	931.194
175.067	16.994	1234.948	929.253
176.081	16.832	1234.097	927.647
177.096	16.917	1233.463	927.555
178.110	16.994	1232.069	926.846
179.125	16.891	1230.900	925.322
180.140	16.905	1230.035	924.664
181.154	17.133	1228.328	924.541
182.169	17.107	1227.867	923.972
183.183	17.203	1226.264	923.203
184.198	17.187	1225.414	922.397
185.213	17.288	1224.088	921.864
186.227	17.353	1223.011	921.325
187.242	17.366	1222.045	920.585
188.256	17.485	1220.807	920.214
189.271	17.448	1220.522	919.715
190.286	17.169	1219.181	917.122
191.300	16.966	1217.961	915.028
192.315	16.867	1217.202	913.840
193.329	16.902	1216.708	913.580
194.344	16.990	1216.233	913.611
195.359	17.196	1215.257	913.910
196.373	17.237	1215.083	913.918
197.388	17.250	1214.781	913.681
198.402	17.390	1214.429	914.086
199.417	17.508	1213.778	914.151
200.432	17.622	1212.702	913.869
201.446	17.561	1212.379	913.215
202.461	17.716	1210.905	912.856
203.475	17.717	1210.198	912.248
204.490	17.653	1208.322	910.409
205.504	17.412	1207.561	908.471
206.519	17.481	1206.210	907.740
207.534	17.326	1205.523	906.316
208.548	17.384	1204.505	905.782
209.563	17.404	1203.469	905.028
210.577	17.505	1202.370	904.659
211.592	17.501	1201.989	904.273
212.607	17.577	1201.352	904.113
213.621	17.590	1200.460	903.435
214.636	17.535	1199.474	902.319
215.650	17.670	1198.232	902.018
216.665	17.713	1197.717	901.779
217.680	17.790	1196.898	901.490
218.694	17.779	1196.123	900.768
219.709	17.710	1195.419	899.796
220.723	17.793	1194.571	899.513
221.738	17.682	1193.854	898.311
222.753	17.703	1193.066	897.751
223.767	17.713	1192.359	897.190
224.782	17.748	1191.860	896.918
225.796	17.948	1191.082	897.305
226.811	17.956	1190.092	896.521
227.826	17.838	1189.659	895.495
228.840	17.792	1188.708	894.459
229.855	17.847	1187.636	893.863
230.869	17.783	1187.093	893.041
231.884	17.741	1186.222	892.087
232.899	17.702	1185.480	891.245
233.913	17.692	1184.739	890.555
234.928	17.624	1183.780	889.401
235.942	17.545	1183.252	888.512
236.957	17.617	1182.182	888.008
237.972	17.604	1181.681	887.488
238.986	17.670	1181.018	887.253
240.001	17.671	1180.183	886.550
241.015	17.794	1178.971	886.203
242.030	17.784	1178.531	885.741
243.045	17.753	1178.050	885.138
244.059	17.835	1177.354	884.964
245.074	17.910	1176.129	884.353
246.088	17.962	1175.282	883.908
247.103	17.947	1174.550	883.202
248.117	18.068	1174.232	883.511
249.132	18.261	1173.400	883.803
250.147	18.360	1173.033	883.961
251.161	18.501	1172.299	884.053
252.176	18.466	1171.543	883.227
253.190	18.522	1171.296	883.249
254.205	18.590	1170.371	882.825
255.220	18.601	1169.851	882.412
256.234	18.556	1169.286	881.672
257.249	18.493	1168.730	880.854
258.263	18.451	1168.155	880.129
259.278	18.492	1167.617	879.853
260.293	18.733	1166.126	879.890
261.307	18.768	1166.123	879.989
262.322	18.683	1165.546	879.040
263.336	18.638	1165.081	878.377
264.351	18.617	1164.405	877.686
265.366	18.723	1163.455	877.433
266.380	18.632	1162.573	876.227
267.395	18.627	1161.716	875.475
268.409	18.590	1161.239	874.851
269.424	18.581	1160.440	874.125
270.439	18.537	1159.885	873.407
271.453	18.574	1158.908	872.784
272.468	18.479	1158.348	871.801
273.482	18.473	1157.493	871.049
274.497	18.424	1157.059	870.394
275.512	18.513	1156.406	870.278
276.526	18.506	1155.427	869.427
277.541	18.506	1154.842	868.912
278.555	18.554	1154.194	868.591
279.570	18.810	1153.182	869.050
280.585	18.863	1152.449	868.686
281.599	18.955	1151.182	868.120
282.614	18.684	1150.485	866.151
283.628	18.630	1149.341	864.938
284.643	18.583	1148.412	863.929
285.657	18.638	1147.580	863.501
286.672	18.605	1146.989	862.814
287.687	18.695	1145.635	862.173
288.701	18.753	1144.741	861.715
289.716	18.726	1144.197	861.090
290.730	18.788	1143.566	860.850
291.745	18.752	1143.031	860.194
292.760	18.780	1142.739	860.039
293.774	18.926	1141.751	859.947
294.789	19.015	1141.183	859.888
295.803	18.942	1140.632	859.031
296.818	18.755	1140.099	857.620
297.833	18.835	1138.989	857.109
298.847	18.743	1138.429	856.154
299.862	18.771	1137.495	855.516
300.876	18.903	1136.854	855.617
301.891	18.973	1136.102	855.319
302.906	19.102	1135.356	855.327
303.920	19.099	1134.752	854.777
304.935	19.223	1134.481	855.116
305.949	19.278	1133.636	854.677
306.964	19.252	1133.122	854.082
307.979	19.144	1132.130	852.723
308.993	19.039	1131.764	851.854
310.008	19.165	1131.084	851.889
311.022	19.159	1129.980	850.956
312.037	19.232	1128.858	850.392
313.052	19.033	1128.127	848.786
314.066	18.987	1126.845	847.518
315.081	18.828	1126.683	846.540
316.095	18.885	1125.352	845.743
317.110	18.921	1124.373	845.113
318.125	18.989	1123.813	844.952
319.139	18.973	1123.182	844.320
320.154	18.890	1122.661	843.451
321.168	18.973	1122.115	843.368
322.183	18.949	1121.391	842.633
323.197	19.072	1120.619	842.583
324.212	18.992	1120.443	841.982
325.227	19.033	1119.917	841.715
326.241	19.215	1118.754	841.653
327.256	19.035	1118.110	840.217
328.270	19.027	1117.089	839.337
329.285	19.078	1116.295	838.915
330.300	18.991	1115.453	837.785
331.314	19.071	1114.455	837.348
332.329	19.082	1113.559	836.654
333.343	19.037	1112.819	835.805
334.358	19.131	1111.965	835.549
335.373	19.199	1111.418	835.392
336.387	19.235	1110.569	834.854
337.402	19.355	1109.524	834.577
338.416	19.301	1108.781	833.684
339.431	19.383	1108.486	833.785
340.446	19.586	1107.934	834.274
341.460	19.601	1107.284	833.787
342.475	19.606	1106.332	833.016
343.489	19.627	1105.572	832.475
344.504	19.787	1104.503	832.365
345.519	19.670	1103.971	831.326
346.533	19.703	1103.362	830.953
347.548	19.826	1102.592	830.893
348.562	19.774	1101.820	829.986
349.577	19.626	1100.662	828.333
350.592	19.453	1099.603	826.634
351.606	19.425	1098.890	825.890
352.621	19.451	1097.990	825.262
353.635	19.421	1097.394	824.599
354.650	19.339	1097.052	823.878
355.665	19.498	1096.110	823.858
356.679	19.437	1095.883	823.321
357.694	19.586	1095.224	823.467
358.708	19.719	1094.152	823.217
359.723	19.646	1093.536	822.336
360.738	19.679	1093.069	822.066
361.752	19.637	1092.963	821.717
362.767	19.763	1092.024	821.535
363.781	19.720	1091.700	821.017
364.796	19.846	1090.774	820.845
365.810	19.857	1090.897	820.914
366.825	19.883	1090.133	820.394
367.840	20.145	1089.510	821.091
368.854	20.134	1088.815	820.444
369.869	20.042	1088.414	819.631
370.883	20.163	1086.855	818.957
371.898	19.922	1085.949	817.063
372.913	20.099	1085.649	817.604
373.927	20.028	1085.249	816.893
374.942	20.171	1084.431	816.879
375.956	20.131	1084.217	816.459
376.971	20.193	1083.579	816.196
377.986	20.181	1083.121	815.723
379.000	20.327	1082.447	815.829
380.015	20.232	1082.348	815.236
381.029	20.293	1081.337	814.689
382.044	20.263	1080.569	813.897
383.059	20.251	1079.845	813.225
384.073	20.264	1079.208	812.734
385.088	20.294	1078.300	812.117
386.102	20.207	1077.298	810.884
387.117	20.193	1076.138	809.875
388.132	20.009	1075.264	808.285
389.146	20.115	1074.485	808.126
390.161	20.089	1073.847	807.452
391.175	19.972	1073.241	806.382
392.190	20.183	1072.292	806.578
393.205	20.269	1071.594	806.379
394.219	20.238	1071.186	805.856
395.234	20.242	1069.938	804.866
396.248	20.170	1068.967	803.732
397.263	20.218	1067.479	802.762
398.278	20.135	1067.269	802.148
399.292	20.091	1066.294	801.141
400.307	19.927	1065.738	799.895
401.321	20.020	1064.901	799.625
402.336	19.926	1064.686	798.961
403.350	20.147	1063.677	799.152
404.365	20.155	1062.874	798.516
405.380	20.186	1062.547	798.339
406.394	20.264	1061.624	797.935
407.409	20.415	1060.845	797.974
408.423	20.476	1060.134	797.646
409.438	20.487	1059.731	797.326
410.453	20.489	1059.116	796.798
411.467	20.545	1058.073	796.203
412.482	20.722	1057.300	796.359
413.496	20.708	1057.171	796.126
414.511	20.713	1056.462	795.545
415.526	20.843	1056.143	795.832
416.540	20.883	1055.816	795.698
417.555	20.780	1055.063	794.587
418.569	20.710	1054.804	794.005
419.584	20.610	1054.254	793.062
420.599	20.656	1053.362	792.529
421.613	154.891	1405.052	1795.226
422.628	142.113	1456.281	1795.316
