DTS Sentinel unit serial number:	SN413079Multiplexer serial number:	ORYXHardware model number:	OX4-SRSoftware version number:	ORYX F/W v4.00 Oryx Data Collector v3.7.2.0data status	okinstallation	princeton_trtdifferential loss correction	single-endedforward channel	channel 2reverse channel	N/Adate	2019/09/18time	19:39:34forward acquisition time	60.00reverse acquisition time	0.00gamma	496.2192k internal	0.2331k external	0.2331temperature offset calibration	1.0037default loss term (dB/km)	0.3790temperature slope calibration	1.0000multiplexer offset coefficient	1.0000multiplexer slope coefficient	1.0000fibre end	0.00T internal ref (°C)	32.03T ext. ref 1 (°C)	1.12T ext. ref 2 (°C)	22.32length (m)	temperature (°C)	Stokes	anti-Stokes-747.200	-92.758	0.285	0.080
-746.185	-200.000	-0.068	0.358
-745.171	-51.438	0.101	-0.047
-744.156	800.000	0.074	0.232
-743.142	-200.000	0.013	0.113
-742.127	191.068	-0.123	0.186
-741.112	-20.775	-0.228	0.141
-740.098	-200.000	0.035	0.229
-739.083	800.000	0.114	-0.333
-738.069	-200.000	0.013	0.237
-737.054	98.513	-0.141	0.163
-736.039	116.838	-0.091	0.112
-735.025	220.420	0.210	0.339
-734.010	-172.201	-0.329	-0.011
-732.996	800.000	-0.102	-0.294
-731.981	-132.738	-0.288	-0.037
-730.966	-200.000	0.010	-0.058
-729.952	800.000	-0.040	0.144
-728.937	416.207	0.055	0.118
-727.923	-115.582	-0.149	0.028
-726.908	84.508	0.159	0.175
-725.894	507.580	0.042	0.097
-724.879	-27.948	-0.280	-0.163
-723.864	-11.054	0.348	0.231
-722.850	242.243	-0.199	0.334
-721.835	-58.809	-0.231	-0.101
-720.821	6.920	-0.085	-0.064
-719.806	-100.913	-0.302	-0.075
-718.791	602.428	0.162	-0.404
-717.777	800.000	-0.066	-0.219
-716.762	-98.228	0.277	-0.072
-715.748	-200.000	-0.050	0.230
-714.733	175.160	0.313	-0.456
-713.718	39.165	-0.005	-0.004
-712.704	50.034	0.209	-0.199
-711.689	-21.300	-0.284	-0.174
-710.675	-27.424	-0.347	0.203
-709.660	-153.780	-0.380	-0.026
-708.645	-73.998	0.289	-0.105
-707.631	29.154	0.126	0.107
-706.616	-59.761	0.095	-0.041
-705.602	-200.000	0.018	-0.305
-704.587	59.341	0.186	-0.184
-703.572	1.587	-0.168	0.122
-702.558	-200.000	-0.040	-0.178
-701.543	-169.109	0.173	-0.006
-700.529	183.750	0.239	0.355
-699.514	-114.049	-0.375	-0.073
-698.499	720.295	-0.081	-0.216
-697.485	-140.921	0.101	0.010
-696.470	-150.977	-0.237	-0.018
-695.456	-200.000	-0.014	-0.283
-694.441	-93.404	-0.401	-0.112
-693.426	-130.450	0.119	0.016
-692.412	-124.985	0.289	0.045
-691.397	-200.000	-0.018	0.162
-690.383	-129.886	0.138	-0.019
-689.368	-200.000	-0.000	-0.163
-688.354	-60.880	0.237	-0.101
-687.339	-9.713	-0.140	0.093
-686.324	-28.490	0.239	-0.139
-685.310	-26.200	-0.215	0.127
-684.295	434.317	0.108	0.235
-683.281	90.919	0.035	-0.039
-682.266	-200.000	0.020	-0.557
-681.251	-21.430	0.040	0.024
-680.237	-200.000	-0.023	0.105
-679.222	292.121	-0.127	0.233
-678.208	800.000	0.006	-0.025
-677.193	136.406	0.165	-0.216
-676.178	60.685	0.272	-0.271
-675.164	78.349	-0.251	0.269
-674.149	-21.694	0.229	-0.140
-673.135	-35.567	-0.089	-0.048
-672.120	-12.615	-0.193	0.127
-671.105	-23.984	0.191	0.114
-670.091	-14.554	-0.118	0.076
-669.076	112.528	-0.113	-0.137
-668.062	105.875	-0.195	0.231
-667.047	800.000	-0.158	0.522
-666.032	-175.901	-0.348	0.009
-665.018	-118.227	0.063	0.011
-664.003	800.000	0.095	0.324
-662.989	-200.000	0.001	0.100
-661.974	19.479	0.169	-0.136
-660.959	60.311	-0.199	-0.198
-659.945	800.000	-0.009	0.040
-658.930	-200.000	0.032	-0.210
-657.916	-200.000	-0.017	0.102
-656.901	-77.632	0.222	0.077
-655.886	800.000	-0.059	0.218
-654.872	-101.685	0.104	0.025
-653.857	-200.000	0.003	0.059
-652.843	54.909	-0.319	0.309
-651.828	56.232	0.087	0.085
-650.814	-200.000	0.049	-0.428
-649.799	-178.398	-0.103	-0.002
-648.784	349.435	0.065	-0.128
-647.770	-107.171	-0.049	0.011
-646.755	696.100	0.093	0.245
-645.741	-10.237	0.265	-0.177
-644.726	-92.011	0.074	-0.021
-643.711	-42.534	0.259	-0.132
-642.697	-29.747	-0.124	-0.071
-641.682	-113.205	-0.164	0.032
-640.668	1.850	0.342	-0.247
-639.653	14.892	0.236	-0.185
-638.638	800.000	0.113	-0.413
-637.624	-13.020	-0.223	0.146
-636.609	-89.901	0.089	0.026
-635.595	775.381	-0.127	0.347
-634.580	144.989	-0.122	0.164
-633.565	-118.537	0.169	-0.030
-632.551	11.465	-0.257	-0.197
-631.536	800.000	-0.028	-0.080
-630.522	-77.050	-0.418	0.146
-629.507	-173.763	0.257	0.008
-628.492	172.140	0.060	-0.087
-627.478	31.949	-0.281	-0.243
-626.463	282.335	0.064	0.115
-625.449	-28.885	0.264	-0.152
-624.434	581.473	-0.126	0.311
-623.419	-58.959	0.286	-0.124
-622.405	-200.000	-0.014	-0.089
-621.390	3.142	-0.209	0.152
-620.376	-102.501	-0.148	0.035
-619.361	-200.000	0.040	0.246
-618.346	-200.000	0.043	0.256
-617.332	83.054	0.062	-0.067
-616.317	-20.525	0.307	-0.189
-615.303	222.469	0.054	0.087
-614.288	-13.582	-0.318	0.206
-613.273	621.270	0.174	0.438
-612.259	139.421	0.066	-0.087
-611.244	83.924	0.153	0.167
-610.230	-77.820	-0.128	0.044
-609.215	-150.997	-0.284	0.021
-608.201	42.543	0.024	-0.022
-607.186	-200.000	-0.018	0.233
-606.171	-145.844	0.298	-0.026
-605.157	78.310	0.048	-0.051
-604.142	-182.159	0.121	0.002
-603.128	-178.167	-0.337	0.008
-602.113	800.000	-0.102	0.286
-601.098	800.000	-0.100	-0.279
-600.084	-200.000	-0.003	0.057
-599.069	172.988	-0.131	-0.188
-598.055	-200.000	-0.045	-0.268
-597.040	-64.477	-0.124	0.050
-596.025	800.000	0.064	-0.224
-595.011	-200.000	0.021	-0.174
-593.996	800.000	-0.107	-0.295
-592.982	242.594	-0.118	-0.197
-591.967	-84.664	0.223	0.070
-590.952	365.285	0.034	-0.068
-589.938	-19.274	-0.041	-0.026
-588.923	83.131	0.056	0.062
-587.909	22.134	-0.073	0.060
-586.894	12.472	-0.221	-0.170
-585.879	-200.000	-0.027	0.317
-584.865	-126.106	-0.178	0.027
-583.850	-200.000	-0.032	-0.193
-582.836	-145.825	-0.089	-0.008
-581.821	-3.948	-0.331	-0.230
-580.806	84.588	-0.091	-0.100
-579.792	-104.730	-0.238	-0.055
-578.777	-114.433	0.066	0.013
-577.763	43.939	-0.188	0.172
-576.748	-200.000	0.022	0.231
-575.733	270.882	0.062	-0.109
-574.719	483.527	-0.156	-0.355
-573.704	-69.873	-0.099	-0.038
-572.690	-200.000	-0.021	-0.112
-571.675	-200.000	-0.020	-0.262
-570.661	-35.114	0.175	-0.096
-569.646	12.708	0.080	-0.061
-568.631	-62.314	0.254	0.106
-567.617	-200.000	0.007	0.035
-566.602	-150.186	-0.225	-0.017
-565.588	-27.881	-0.178	0.103
-564.573	-200.000	-0.016	-0.130
-563.558	-200.000	0.014	0.189
-562.544	-122.283	0.128	0.021
-561.529	-200.000	-0.018	-0.092
-560.515	628.674	-0.092	-0.231
-559.500	-179.552	-0.417	0.009
-558.485	66.658	-0.088	0.089
-557.471	63.516	0.121	0.121
-556.456	354.384	0.126	-0.251
-555.442	69.341	-0.111	-0.114
-554.427	-159.641	-0.337	0.019
-553.412	185.461	-0.137	0.203
-552.398	13.766	-0.122	-0.095
-551.383	440.752	-0.090	-0.196
-550.369	5.379	-0.203	-0.150
-549.354	-200.000	0.005	-0.135
-548.339	-200.000	0.023	0.130
-547.325	-155.153	-0.174	-0.011
-546.310	4.970	0.295	0.217
-545.296	-200.000	-0.027	-0.179
-544.281	418.516	0.009	0.018
-543.266	-49.567	0.069	-0.033
-542.252	-116.357	0.085	-0.016
-541.237	-27.316	0.136	-0.079
-540.223	-65.557	-0.315	0.126
-539.208	-142.387	-0.391	-0.039
-538.193	226.471	0.097	-0.157
-537.179	18.341	0.175	-0.140
-536.164	484.943	-0.082	-0.185
-535.150	73.407	-0.214	0.224
-534.135	-85.100	0.278	-0.087
-533.121	800.000	0.010	0.029
-532.106	88.683	-0.177	-0.197
-531.091	-200.000	-0.002	-0.332
-530.077	-66.274	0.231	-0.092
-529.062	-18.884	-0.184	0.114
-528.048	-129.304	-0.429	0.060
-527.033	102.806	-0.343	0.400
-526.018	67.123	0.168	-0.170
-525.004	-46.676	0.162	0.079
-523.989	800.000	0.054	0.172
-522.975	155.881	0.175	0.241
-521.960	-99.969	0.496	0.123
-520.945	-98.486	0.116	0.030
-519.931	682.610	-0.023	-0.060
-518.916	16.009	-0.170	-0.134
-517.902	136.656	0.278	0.362
-516.887	450.994	-0.124	0.274
-515.872	-170.941	0.080	-0.003
-514.858	200.581	0.172	0.264
-513.843	-200.000	0.006	-0.370
-512.829	43.446	0.242	-0.221
-511.814	800.000	-0.066	-0.229
-510.799	-200.000	0.016	-0.110
-509.785	85.521	-0.219	-0.240
-508.770	-150.145	-0.177	0.014
-507.756	19.363	0.052	0.042
-506.741	106.071	0.177	-0.209
-505.726	118.088	0.170	-0.209
-504.712	97.526	-0.126	0.144
-503.697	277.374	0.074	0.131
-502.683	-118.748	0.563	0.099
-501.668	-27.994	-0.217	0.125
-500.653	144.394	0.038	-0.050
-499.639	130.307	-0.266	-0.339
-498.624	739.970	0.157	-0.419
-497.610	-200.000	0.005	0.157
-496.595	65.187	0.180	0.181
-495.581	800.000	-0.087	-0.246
-494.566	471.897	-0.032	0.072
-493.551	-104.954	-0.069	0.016
-492.537	-200.000	-0.020	-0.232
-491.522	116.585	0.061	0.075
-490.508	-123.637	0.192	-0.030
-489.493	-148.823	0.276	-0.022
-488.478	-80.172	0.108	0.036
-487.464	305.194	-0.072	0.133
-486.449	37.762	-0.055	0.048
-485.435	42.042	-0.407	-0.368
-484.420	20.849	-0.113	0.092
-483.405	-76.480	0.322	0.113
-482.391	-68.536	0.073	-0.028
-481.376	268.247	0.030	0.052
-480.362	196.721	0.097	-0.148
-479.347	675.939	-0.066	0.170
-478.332	109.374	0.161	-0.192
-477.318	146.556	0.143	-0.192
-476.303	467.551	0.119	-0.266
-475.289	800.000	0.053	0.178
-474.274	16.241	-0.228	-0.179
-473.259	800.000	0.043	-0.185
-472.245	-10.055	-0.345	-0.228
-471.230	145.454	0.096	-0.128
-470.216	176.046	-0.084	-0.122
-469.201	-200.000	0.028	-0.130
-468.186	-1.989	-0.465	-0.325
-467.172	19.068	-0.086	0.068
-466.157	-200.000	-0.008	0.040
-465.143	596.257	-0.164	0.405
-464.128	-81.265	-0.059	-0.019
-463.113	-200.000	-0.050	-0.285
-462.099	265.822	-0.047	-0.082
-461.084	755.274	-0.015	0.041
-460.070	296.758	0.109	0.199
-459.055	510.164	0.109	-0.253
-458.040	-29.699	0.139	0.079
-457.026	-60.361	0.295	0.125
-456.011	800.000	0.047	0.146
-454.997	-122.807	0.101	-0.016
-453.982	800.000	-0.020	0.062
-452.968	9.166	-0.117	0.088
-451.953	-135.903	0.168	-0.020
-450.938	-167.311	-0.212	-0.008
-449.924	-92.627	-0.202	-0.056
-448.909	307.861	0.097	0.179
-447.895	319.621	0.017	-0.032
-446.880	800.000	0.042	0.168
-445.865	71.346	0.140	-0.145
-444.851	-40.431	0.277	-0.143
-443.836	800.000	-0.171	-0.504
-442.822	-153.836	0.117	0.008
-441.807	800.000	-0.080	-0.264
-440.792	181.114	0.068	-0.100
-439.778	-67.022	-0.230	0.090
-438.763	130.826	0.075	0.096
-437.749	800.000	-0.080	0.315
-436.734	19.919	-0.239	-0.191
-435.719	-55.891	0.414	0.184
-434.705	800.000	0.068	0.198
-433.690	137.676	-0.189	-0.246
-432.676	-119.433	0.210	-0.036
-431.661	-48.732	-0.096	-0.046
-430.646	154.449	0.173	0.236
-429.632	-113.689	0.076	0.015
-428.617	-106.742	-0.239	-0.053
-427.603	-102.335	-0.239	0.057
-426.588	104.663	0.144	-0.169
-425.573	-75.445	0.232	0.082
-424.559	-104.234	0.310	-0.072
-423.544	138.805	-0.090	0.117
-422.530	-93.486	-0.223	-0.061
-421.515	800.000	0.030	-0.130
-420.500	217.768	0.152	0.241
-419.486	285.219	-0.207	0.370
-418.471	-126.555	0.037	0.005
-417.457	-129.225	0.110	-0.015
-416.442	-66.984	0.342	-0.134
-415.428	-200.000	-0.002	0.275
-414.413	35.229	0.128	-0.112
-413.398	-103.400	0.289	-0.068
-412.384	321.957	0.013	-0.025
-411.369	9.786	0.160	-0.120
-410.355	-131.530	-0.137	0.018
-409.340	-81.524	-0.487	-0.159
-408.325	-2.121	0.056	0.039
-407.311	-200.000	0.007	0.212
-406.296	800.000	-0.121	0.356
-405.282	-51.328	-0.189	0.088
-404.267	29.129	-0.095	0.080
-403.252	291.642	-0.196	0.354
-402.238	689.774	0.133	-0.346
-401.223	-87.892	-0.197	-0.059
-400.209	-0.353	-0.067	-0.047
-399.194	-123.117	0.074	-0.012
-398.179	-88.272	0.140	0.042
-397.165	800.000	0.095	0.290
-396.150	-112.071	0.207	0.041
-395.136	156.786	-0.130	0.179
-394.121	-173.074	-0.319	0.010
-393.106	316.465	-0.155	-0.290
-392.092	-30.286	-0.331	0.187
-391.077	-200.000	0.054	0.263
-390.063	70.103	0.165	-0.169
-389.048	-18.797	0.078	-0.048
-388.033	-200.000	-0.001	0.198
-387.019	36.840	0.105	-0.092
-386.004	-200.000	0.005	0.022
-384.990	633.274	-0.142	0.356
-383.975	226.468	-0.157	0.252
-382.960	128.138	0.091	-0.114
-381.946	92.739	0.145	-0.162
-380.931	559.543	0.146	-0.350
-379.917	-12.373	0.353	0.229
-378.902	-32.847	-0.256	0.141
-377.888	-137.688	0.359	0.040
-376.873	106.063	-0.077	0.090
-375.858	-124.355	0.441	0.068
-374.844	-200.000	0.015	-0.109
-373.829	800.000	0.038	0.148
-372.815	-2.228	0.255	-0.177
-371.800	702.953	-0.044	0.116
-370.785	238.610	0.291	-0.480
-369.771	64.245	-0.166	-0.166
-368.756	-108.311	-0.249	-0.053
-367.742	530.002	-0.058	0.135
-366.727	296.909	-0.071	-0.128
-365.712	-200.000	0.035	-0.162
-364.698	26.799	-0.067	0.056
-363.683	-28.388	0.229	0.131
-362.669	145.136	0.130	0.172
-361.654	-172.464	-0.237	-0.007
-360.639	563.540	0.047	0.112
-359.625	-200.000	0.036	0.298
-358.610	194.457	0.263	0.396
-357.596	-200.000	0.070	0.338
-356.581	-80.487	-0.282	0.093
-355.566	-200.000	-0.003	0.108
-354.552	800.000	-0.030	0.099
-353.537	-52.020	-0.286	-0.132
-352.523	-200.000	0.036	-0.432
-351.508	-8.805	-0.135	0.090
-350.493	48.405	-0.176	0.163
-349.479	32.449	0.230	-0.197
-348.464	145.420	-0.100	0.133
-347.450	-14.843	0.208	0.132
-346.435	-100.871	-0.164	-0.040
-345.420	11.179	-0.286	-0.217
-344.406	29.478	0.098	-0.083
-343.391	-144.294	-0.194	0.018
-342.377	458.422	-0.120	-0.264
-341.362	381.635	-0.097	0.198
-340.348	-200.000	0.042	0.194
-339.333	179.526	0.181	-0.262
-338.318	404.979	0.098	-0.205
-337.304	-43.646	-0.082	0.041
-336.289	96.674	0.203	0.230
-335.275	-116.266	-0.122	0.022
-334.260	-200.000	-0.006	0.038
-333.245	-122.438	-0.079	-0.013
-332.231	593.252	0.120	-0.295
-331.216	-200.000	0.005	0.153
-330.202	-84.324	0.241	0.076
-329.187	209.782	-0.103	0.160
-328.172	181.247	0.176	0.256
-327.158	788.039	-0.063	-0.171
-326.143	-152.628	-0.253	0.018
-325.129	377.787	0.017	0.035
-324.114	463.102	0.134	0.297
-323.099	-75.230	-0.106	0.037
-322.085	474.790	-0.109	0.243
-321.070	-146.278	0.109	0.009
-320.056	58.536	0.123	-0.119
-319.041	-172.924	0.231	0.007
-318.026	-47.374	0.221	-0.106
-317.012	-126.375	-0.326	-0.048
-315.997	-66.598	0.150	-0.059
-314.983	113.114	-0.068	-0.082
-313.968	58.779	0.252	0.245
-312.953	800.000	0.052	-0.210
-311.939	619.192	0.037	-0.091
-310.924	155.389	-0.046	-0.063
-309.910	800.000	0.044	0.144
-308.895	800.000	0.093	0.306
-307.880	-114.773	-0.201	0.038
-306.866	-116.969	0.244	0.044
-305.851	-130.307	-0.160	-0.021
-304.837	-200.000	0.053	-0.273
-303.822	-138.198	0.353	0.039
-302.807	-125.663	-0.211	-0.032
-301.793	-128.373	-0.199	-0.028
-300.778	52.785	0.165	-0.156
-299.764	-200.000	0.027	-0.280
-298.749	-200.000	-0.022	0.129
-297.735	-161.744	-0.051	0.003
-296.720	609.281	-0.125	-0.309
-295.705	-200.000	-0.034	0.288
-294.691	-70.384	-0.331	0.124
-293.676	-200.000	-0.016	-0.132
-292.662	-200.000	-0.037	0.214
-291.647	-188.969	-0.195	-0.002
-290.632	467.792	0.138	-0.306
-289.618	-68.231	-0.164	-0.063
-288.603	-99.012	0.285	-0.071
-287.589	-75.214	0.370	0.131
-286.574	279.345	0.193	0.340
-285.559	101.503	-0.094	0.109
-284.545	-62.912	0.163	-0.067
-283.530	-200.000	0.005	0.047
-282.516	800.000	0.113	0.463
-281.501	36.933	-0.141	-0.124
-280.486	800.000	-0.055	-0.161
-279.472	-200.000	-0.002	-0.153
-278.457	16.620	-0.125	-0.097
-277.443	-80.410	0.189	-0.062
-276.428	43.540	-0.043	-0.039
-275.413	2.731	0.101	0.073
-274.399	-200.000	0.011	-0.097
-273.384	-200.000	-0.013	0.134
-272.370	20.493	0.245	0.196
-271.355	-80.404	-0.407	0.134
-270.340	-131.016	-0.330	-0.043
-269.326	800.000	-0.021	-0.085
-268.311	204.635	-0.107	-0.165
-267.297	105.657	0.171	0.200
-266.282	-34.719	-0.410	-0.221
-265.267	-13.213	-0.082	0.052
-264.253	-200.000	0.004	-0.019
-263.238	-161.674	-0.310	-0.016
-262.224	-75.322	0.223	0.078
-261.209	176.393	0.089	-0.128
-260.195	36.690	-0.082	-0.072
-259.180	359.589	0.046	-0.091
-258.165	-200.000	-0.006	0.108
-257.151	199.329	-0.024	0.036
-256.136	362.266	0.156	-0.308
-255.122	-78.965	0.145	0.049
-254.107	147.092	0.170	0.226
-253.092	800.000	0.060	0.197
-252.078	-68.980	-0.100	0.038
-251.063	-59.389	0.202	-0.086
-250.049	-200.000	-0.013	-0.249
-249.034	-73.948	0.200	-0.072
-248.019	2.352	-0.127	0.091
-247.005	74.053	0.114	-0.118
-245.990	-150.542	-0.198	0.015
-244.976	-138.220	0.196	-0.021
-243.961	67.629	-0.150	-0.151
-242.946	-149.326	0.322	-0.025
-241.932	-200.000	-0.051	0.417
-240.917	-37.769	0.098	-0.051
-239.903	-96.605	0.128	0.033
-238.888	-33.565	-0.080	-0.044
-237.873	-200.000	0.044	-0.193
-236.859	800.000	-0.045	0.170
-235.844	-100.424	0.191	-0.047
-234.830	130.464	0.105	0.133
-233.815	26.327	0.119	-0.098
-232.800	278.123	-0.080	-0.140
-231.786	-13.573	-0.080	0.051
-230.771	-82.806	0.334	0.106
-229.757	-90.264	0.095	-0.027
-228.742	-165.198	-0.104	-0.005
-227.727	-103.669	0.133	0.031
-226.713	377.820	-0.089	0.179
-225.698	-68.631	-0.205	0.078
-224.684	800.000	0.057	0.236
-223.669	800.000	-0.045	-0.129
-222.655	464.382	-0.051	0.113
-221.640	-54.023	-0.167	0.075
-220.625	-200.000	-0.051	-0.358
-219.611	76.165	-0.237	0.247
-218.596	295.258	-0.130	-0.235
-217.582	-150.134	-0.381	-0.029
-216.567	700.127	0.096	-0.249
-215.552	-57.496	-0.281	-0.122
-214.538	174.648	0.116	-0.165
-213.523	84.692	0.153	0.165
-212.509	766.637	-0.037	0.098
-211.494	800.000	0.054	-0.163
-210.479	63.109	0.139	0.137
-209.465	18.908	0.144	-0.114
-208.450	384.358	-0.156	0.317
-207.436	800.000	-0.058	0.170
-206.421	-200.000	0.060	0.371
-205.406	348.879	-0.078	0.153
-204.392	284.337	0.095	0.169
-203.377	-54.664	-0.221	-0.099
-202.363	-131.672	-0.318	-0.041
-201.348	-38.947	0.152	-0.079
-200.333	-122.401	0.122	0.020
-199.319	-200.000	-0.003	0.131
-198.304	47.338	0.173	0.159
-197.290	-100.961	-0.124	0.030
-196.275	-126.966	0.315	-0.046
-195.260	39.853	-0.252	0.222
-194.246	-48.472	0.068	-0.032
-193.231	316.163	-0.071	0.132
-192.217	800.000	-0.033	-0.125
-191.202	177.685	0.106	-0.152
-190.187	800.000	0.061	-0.215
-189.173	610.150	-0.119	0.294
-188.158	-58.577	0.128	0.055
-187.144	-89.533	-0.293	-0.085
-186.129	131.085	-0.164	-0.208
-185.114	-200.000	0.002	-0.151
-184.100	-154.195	0.128	0.009
-183.085	-200.000	0.021	0.143
-182.071	-200.000	-0.010	-0.219
-181.056	-101.616	0.268	0.064
-180.042	-107.814	0.105	0.023
-179.027	-200.000	-0.053	0.573
-178.012	-60.319	0.259	-0.109
-176.998	-123.900	0.177	-0.027
-175.983	143.305	-0.123	0.161
-174.969	-200.000	-0.046	-0.379
-173.954	106.141	-0.258	0.300
-172.939	800.000	0.075	0.295
-171.925	35.302	0.097	0.084
-170.910	32.275	0.313	0.266
-169.896	174.999	0.136	0.194
-168.881	800.000	0.031	0.129
-167.866	-5.124	-0.098	-0.067
-166.852	169.781	-0.072	-0.101
-165.837	198.218	-0.149	-0.225
-164.823	-102.640	-0.429	0.101
-163.808	125.244	0.136	0.169
-162.793	-128.365	0.427	-0.060
-161.779	166.652	-0.057	-0.080
-160.764	115.488	0.172	-0.207
-159.750	142.290	0.093	-0.122
-158.735	16.498	-0.280	-0.217
-157.720	-43.392	0.100	-0.050
-156.706	-88.501	0.048	0.014
-155.691	66.110	0.150	0.149
-154.677	774.254	-0.071	0.191
-153.662	-200.000	0.009	-0.099
-152.647	-142.852	-0.121	0.012
-151.633	-60.716	-0.294	0.123
-150.618	-0.104	0.302	0.211
-149.604	215.848	-0.143	-0.223
-148.589	403.194	0.131	-0.271
-147.574	-118.347	-0.314	0.055
-146.560	-65.294	-0.237	-0.094
-145.545	800.000	-0.037	0.158
-144.531	196.431	0.143	0.215
-143.516	-200.000	-0.042	0.308
-142.502	125.889	-0.200	-0.248
-141.487	800.000	-0.100	0.303
-140.472	53.229	0.212	-0.200
-139.458	5.689	0.100	-0.072
-138.443	-63.284	0.355	-0.144
-137.429	725.438	0.016	-0.041
-136.414	-200.000	0.006	-0.143
-135.399	-75.585	0.339	0.118
-134.385	101.336	-0.159	-0.182
-133.370	-80.078	0.144	-0.047
-132.356	-40.747	0.284	0.145
-131.341	-200.000	0.010	-0.092
-130.326	800.000	-0.067	-0.199
-129.312	800.000	-0.016	0.051
-128.297	-42.762	0.223	0.111
-127.283	-200.000	-0.028	-0.383
-126.268	-167.912	0.255	-0.010
-125.253	-200.000	-0.022	0.169
-124.239	244.396	0.082	-0.136
-123.224	55.077	-0.154	-0.147
-122.210	46.529	0.208	0.189
-121.195	18.960	-0.154	0.121
-120.180	727.163	-0.116	-0.304
-119.166	34.039	-0.125	0.107
-118.151	-19.103	0.112	-0.068
-117.137	-200.000	-0.034	-0.222
-116.122	-186.169	-0.070	0.001
-115.107	39.237	0.134	-0.118
-114.093	-139.251	0.106	-0.011
-113.078	800.000	-0.144	-0.404
-112.064	-59.407	0.334	-0.141
-111.049	-72.052	-0.090	0.033
-110.034	277.136	-0.056	-0.098
-109.020	129.915	-0.125	-0.157
-108.005	262.632	-0.120	0.205
-106.991	463.066	-0.068	-0.149
-105.976	-200.000	0.033	0.467
-104.962	369.350	0.090	0.179
-103.947	-22.753	0.291	0.173
-102.932	-66.903	-0.173	0.067
-101.918	9.322	0.235	0.174
-100.903	-21.770	0.055	0.033
-99.889	-122.487	0.383	-0.061
-98.874	800.000	-0.132	-0.391
-97.859	-200.000	0.008	0.211
-96.845	101.899	-0.160	0.183
-95.830	108.934	0.095	-0.112
-94.816	-200.000	-0.012	-0.196
-93.801	800.000	0.057	0.173
-92.786	-69.502	0.217	0.081
-91.772	-200.000	0.007	0.198
-90.757	19.472	-0.145	-0.114
-89.743	57.589	0.306	0.294
-88.728	-181.223	-0.338	0.007
-87.713	-98.443	0.366	-0.092
-86.699	-1.896	-0.080	-0.055
-85.684	-7.438	0.093	-0.062
-84.670	745.585	-0.126	-0.333
-83.655	14.478	0.245	-0.188
-82.640	-162.985	-0.307	0.015
-81.626	-200.000	0.010	-0.268
-80.611	787.918	0.076	-0.203
-79.597	-200.000	-0.015	0.264
-78.582	-70.794	0.282	-0.104
-77.567	398.943	-0.105	0.215
-76.553	133.334	0.129	0.163
-75.538	-113.425	0.280	0.054
-74.524	39.004	0.273	-0.239
-73.509	-200.000	-0.017	-0.125
-72.494	91.076	0.192	-0.212
-71.480	201.176	0.073	0.109
-70.465	-69.229	0.392	-0.148
-69.451	482.657	-0.042	0.094
-68.436	32.312	-0.134	-0.113
-67.422	241.263	0.044	-0.073
-66.407	-57.463	0.202	-0.087
-65.392	-35.485	0.079	0.042
-64.378	-200.000	0.012	-0.279
-63.363	653.412	-0.063	-0.158
-62.349	18.770	0.283	0.222
-61.334	156.861	-0.853	-1.155
-60.319	82.857	0.528	0.562
-59.305	-200.000	-0.185	-1.122
-58.290	669.724	0.402	1.020
-57.276	242.924	0.787	1.292
-56.261	-200.000	102.037	590.056
-55.246	490.832	1441.046	3230.674
-54.232	152.443	2626.992	3513.774
-53.217	106.045	2282.550	2647.037
-52.203	41.502	1903.110	1687.363
-51.188	35.469	1694.893	1457.075
-50.173	32.753	1651.655	1399.723
-49.159	51.109	1702.586	1581.592
-48.144	52.608	1718.637	1607.718
-47.130	34.984	1677.128	1437.924
-46.115	32.198	1663.416	1405.312
-45.100	32.034	1658.395	1399.795
-44.086	32.035	1655.920	1397.658
-43.071	32.130	1653.001	1395.842
-42.057	31.908	1651.238	1392.653
-41.042	31.966	1648.929	1391.080
-40.027	31.999	1646.944	1389.589
-39.013	31.912	1645.083	1387.325
-37.998	31.891	1643.924	1386.134
-36.984	31.868	1641.983	1384.276
-35.969	32.071	1640.727	1384.661
-34.954	32.068	1638.836	1382.986
-33.940	31.980	1637.458	1381.120
-32.925	31.921	1635.612	1379.075
-31.911	32.018	1633.890	1378.282
-30.896	32.022	1632.255	1376.872
-29.881	31.975	1630.500	1374.999
-28.867	31.985	1629.257	1373.965
-27.852	32.021	1627.676	1372.839
-26.838	31.984	1626.252	1371.320
-25.823	32.031	1624.780	1370.364
-24.809	32.077	1623.168	1369.284
-23.794	32.126	1621.744	1368.389
-22.779	31.973	1620.548	1366.207
-21.765	31.998	1618.810	1364.870
-20.750	31.972	1616.920	1363.038
-19.736	32.073	1615.993	1362.929
-18.721	32.138	1613.950	1361.629
-17.706	32.163	1612.774	1360.760
-16.692	32.114	1611.635	1359.390
-15.677	32.085	1610.206	1357.922
-14.663	32.169	1608.767	1357.261
-13.648	32.149	1607.256	1355.786
-12.633	32.066	1606.113	1354.174
-11.619	32.035	1604.253	1352.328
-10.604	32.060	1602.913	1351.322
-9.590	32.097	1601.662	1350.483
-8.575	32.060	1600.449	1349.142
-7.560	32.033	1599.483	1348.078
-6.546	32.095	1597.897	1347.135
-5.531	32.079	1596.810	1346.050
-4.517	32.056	1595.517	1344.738
-3.502	32.071	1594.420	1343.868
-2.487	31.996	1593.294	1342.327
-1.473	31.320	1580.064	1326.335
-0.458	27.094	1557.314	1277.543
0.556	21.216	1554.471	1231.048
1.571	17.762	1575.693	1223.016
2.586	16.975	1588.036	1226.800
3.600	15.596	1536.514	1177.235
4.615	9.380	1429.855	1054.777
5.629	2.539	1367.624	965.758
6.644	1.152	1359.544	951.274
7.659	1.237	1357.720	950.442
8.673	1.062	1357.193	948.896
9.688	1.029	1355.352	947.316
10.702	0.904	1351.818	943.981
11.717	3.863	1356.784	965.870
12.731	11.338	1367.830	1020.570
13.746	16.764	1375.179	1060.008
14.761	17.714	1375.994	1066.487
15.775	17.096	1373.653	1060.715
16.790	16.125	1370.893	1052.439
17.804	15.283	1368.883	1045.550
18.819	14.902	1367.443	1041.984
19.834	14.660	1366.146	1039.399
20.848	14.396	1365.016	1036.801
21.863	14.127	1363.827	1034.137
22.877	13.933	1362.590	1031.905
23.892	13.895	1361.491	1030.745
24.907	13.940	1360.574	1030.234
25.921	13.950	1359.874	1029.677
26.936	14.014	1358.665	1029.066
27.950	13.979	1357.860	1028.149
28.965	14.100	1356.869	1028.059
29.980	14.115	1355.816	1027.260
30.994	14.154	1354.990	1026.784
32.009	14.195	1354.466	1026.548
33.023	14.185	1353.390	1025.580
34.038	14.103	1351.832	1023.806
35.053	14.173	1350.326	1023.001
36.067	14.155	1349.628	1022.276
37.082	14.193	1348.541	1021.596
38.096	14.186	1347.624	1020.764
39.111	14.129	1346.834	1019.725
40.126	14.045	1346.259	1018.687
41.140	14.136	1345.062	1018.249
42.155	13.993	1344.682	1016.994
43.169	13.981	1344.753	1016.884
44.184	13.936	1344.466	1016.304
45.199	13.951	1343.892	1015.869
46.213	13.930	1343.519	1015.368
47.228	14.021	1342.805	1015.296
48.242	14.098	1341.021	1014.330
49.257	14.013	1339.460	1012.538
50.271	14.108	1337.911	1011.860
51.286	14.100	1336.934	1010.978
52.301	14.085	1335.397	1009.638
53.315	14.075	1334.368	1008.709
54.330	14.099	1333.337	1007.984
55.344	14.025	1332.180	1006.572
56.359	14.029	1331.150	1005.734
57.374	13.913	1330.828	1004.695
58.388	13.875	1330.232	1003.931
59.403	13.918	1329.521	1003.566
60.417	14.003	1328.375	1003.120
61.432	13.866	1328.031	1001.946
62.447	13.822	1326.955	1000.784
63.461	13.852	1325.768	999.976
64.476	13.916	1324.292	999.164
65.490	13.869	1323.024	997.836
66.505	13.889	1321.873	996.995
67.520	13.937	1320.294	996.006
68.534	13.894	1319.583	995.125
69.549	13.909	1318.916	994.621
70.563	13.909	1317.573	993.523
71.578	13.855	1316.285	992.139
72.593	13.861	1315.713	991.660
73.607	13.810	1314.960	990.697
74.622	13.796	1313.894	989.724
75.636	13.809	1313.370	989.317
76.651	13.904	1312.247	988.953
77.666	13.793	1312.092	988.086
78.680	13.871	1311.283	987.855
79.695	13.904	1310.311	987.231
80.709	13.926	1309.349	986.546
81.724	13.967	1308.755	986.256
82.739	13.998	1307.855	985.675
83.753	13.937	1307.020	984.600
84.768	14.015	1305.770	984.030
85.782	14.042	1304.711	983.303
86.797	14.099	1302.688	982.030
87.812	13.996	1301.777	980.648
88.826	13.931	1301.058	979.638
89.841	14.089	1300.014	979.694
90.855	14.062	1299.090	978.753
91.870	14.064	1298.081	977.918
92.884	14.008	1297.221	976.856
93.899	14.156	1296.241	976.900
94.914	14.186	1295.386	976.347
95.928	14.247	1294.568	976.000
96.943	14.059	1293.907	974.314
97.957	14.006	1293.461	973.583
98.972	14.075	1291.711	972.581
99.987	14.095	1291.190	972.218
101.001	14.168	1289.672	971.416
102.016	14.085	1288.892	970.256
103.030	14.159	1287.889	969.849
104.045	14.099	1286.960	968.712
105.060	14.033	1285.972	967.499
106.074	14.058	1284.556	966.498
107.089	13.910	1283.636	964.860
108.103	14.011	1282.052	964.171
109.118	14.008	1281.156	963.393
110.133	13.942	1279.756	961.873
111.147	13.934	1278.356	960.688
112.162	14.138	1276.985	960.749
113.176	14.094	1275.799	959.517
114.191	13.978	1275.545	958.574
115.206	14.111	1274.155	958.209
116.220	14.022	1273.156	956.861
117.235	14.013	1272.017	955.872
118.249	14.070	1271.348	955.611
119.264	14.087	1269.539	954.266
120.279	14.018	1268.866	953.280
121.293	13.888	1268.252	951.987
122.308	13.993	1267.150	951.674
123.322	13.873	1266.211	950.200
124.337	13.993	1264.820	949.756
125.352	13.958	1263.724	948.653
126.366	13.943	1262.793	947.781
127.381	14.013	1261.962	947.475
128.395	14.044	1260.452	946.432
129.410	13.953	1260.015	945.506
130.424	14.025	1259.175	945.198
131.439	14.051	1258.087	944.448
132.454	14.078	1257.016	943.712
133.468	14.071	1256.268	943.027
134.483	13.966	1255.394	941.693
135.497	13.989	1254.338	940.951
136.512	14.015	1252.926	939.951
137.527	14.071	1251.646	939.224
138.541	13.995	1250.296	937.701
139.556	14.070	1248.688	936.832
140.570	14.117	1247.864	936.400
141.585	14.160	1246.265	935.360
142.600	14.131	1245.304	934.393
143.614	14.186	1244.435	933.966
144.629	14.142	1243.269	932.760
145.643	14.171	1242.183	932.022
146.658	14.117	1241.288	930.969
147.673	14.199	1239.575	930.059
148.687	14.153	1238.728	929.086
149.702	14.111	1237.233	927.647
150.716	14.219	1235.427	926.814
151.731	14.178	1234.380	925.717
152.746	14.083	1233.600	924.523
153.760	14.208	1232.385	924.226
154.775	14.160	1231.543	923.247
155.789	14.264	1230.296	922.808
156.804	14.218	1229.406	921.802
157.819	14.196	1228.295	920.763
158.833	14.334	1227.398	920.777
159.848	14.327	1226.408	919.910
160.862	14.281	1225.897	919.193
161.877	14.279	1224.066	917.725
162.892	14.248	1223.578	917.111
163.906	14.282	1222.276	916.241
164.921	14.274	1221.566	915.580
165.935	14.350	1220.888	915.413
166.950	14.385	1220.099	914.928
167.964	14.330	1219.695	914.243
168.979	14.366	1218.562	913.511
169.994	14.396	1217.623	912.892
171.008	14.349	1217.096	912.158
172.023	14.345	1216.490	911.603
173.037	14.497	1215.158	911.355
174.052	14.471	1214.564	910.684
175.067	14.482	1213.238	909.672
176.081	14.394	1212.108	908.263
177.096	14.204	1211.605	906.772
178.110	14.308	1210.547	906.465
179.125	14.427	1209.043	905.903
180.140	14.460	1207.589	904.913
181.154	14.405	1207.039	904.122
182.169	14.433	1205.865	903.318
183.183	14.546	1204.532	902.851
184.198	14.553	1203.301	901.883
185.213	14.593	1202.135	901.147
186.227	14.653	1201.314	900.779
187.242	14.625	1200.440	899.888
188.256	14.666	1199.634	899.425
189.271	14.687	1198.431	898.560
190.286	14.615	1197.534	897.417
191.300	14.449	1196.738	895.852
192.315	14.399	1196.234	895.124
193.329	14.502	1195.687	895.191
194.344	14.575	1194.968	894.963
195.359	14.602	1194.342	894.561
196.373	14.594	1193.813	894.041
197.388	14.722	1193.056	894.083
198.402	14.687	1192.892	893.694
199.417	14.733	1192.426	893.513
200.432	14.872	1191.201	893.255
201.446	14.848	1190.537	892.551
202.461	14.840	1189.453	891.620
203.475	14.854	1188.427	890.846
204.490	14.807	1187.539	889.847
205.504	14.839	1186.310	889.022
206.519	14.870	1184.820	887.986
207.534	14.841	1184.044	887.175
208.548	14.836	1182.920	886.227
209.563	14.862	1181.903	885.527
210.577	14.831	1181.225	884.774
211.592	14.925	1180.193	884.421
212.607	15.043	1179.391	884.368
213.621	15.062	1178.346	883.605
214.636	14.980	1177.759	882.650
215.650	15.026	1176.771	882.077
216.665	15.069	1175.839	881.524
217.680	15.012	1175.098	880.592
218.694	15.031	1174.202	879.943
219.709	15.077	1173.464	879.553
220.723	15.023	1172.770	878.675
221.738	14.927	1172.273	877.717
222.753	15.120	1171.344	877.956
223.767	15.001	1170.677	876.755
224.782	15.136	1170.106	876.957
225.796	15.125	1169.651	876.482
226.811	15.189	1168.751	876.064
227.826	15.226	1167.598	875.315
228.840	15.167	1167.424	874.798
229.855	15.190	1166.358	874.041
230.869	15.201	1165.587	873.444
231.884	15.170	1165.140	872.873
232.899	15.265	1164.287	872.648
233.913	15.118	1163.855	871.485
234.928	15.101	1163.265	870.875
235.942	15.226	1162.226	870.671
236.957	15.203	1161.108	869.639
237.972	15.162	1160.468	868.870
238.986	15.273	1159.752	868.829
240.001	15.306	1159.131	868.462
241.015	15.288	1158.043	867.475
242.030	15.271	1157.243	866.714
243.045	15.260	1156.591	866.088
244.059	15.322	1155.917	865.829
245.074	15.319	1155.262	865.245
246.088	15.430	1154.169	864.922
247.103	15.444	1153.099	864.115
248.117	15.514	1152.438	863.904
249.132	15.570	1151.647	863.522
250.147	15.455	1151.503	862.746
251.161	15.525	1150.947	862.616
252.176	15.605	1149.699	862.015
253.190	15.585	1149.307	861.540
254.205	15.638	1148.728	861.300
255.220	15.654	1148.087	860.827
256.234	15.536	1147.773	859.912
257.249	15.614	1147.075	859.710
258.263	15.717	1146.118	859.445
259.278	15.667	1145.347	858.532
260.293	15.754	1144.748	858.454
261.307	15.719	1144.454	857.977
262.322	15.667	1143.888	857.213
263.336	15.837	1143.290	857.554
264.351	15.917	1142.091	856.989
265.366	15.870	1141.341	856.107
266.380	15.894	1140.956	855.867
267.395	15.952	1140.254	855.557
268.409	15.896	1139.233	854.431
269.424	15.815	1139.014	853.784
270.439	15.829	1138.557	853.436
271.453	15.849	1137.363	852.565
272.468	15.852	1136.760	852.056
273.482	15.805	1136.245	851.352
274.497	15.909	1135.407	851.180
275.512	15.867	1134.729	850.382
276.526	16.036	1133.231	850.033
277.541	15.907	1133.208	849.292
278.555	15.892	1132.917	848.926
279.570	15.910	1131.992	848.247
280.585	16.008	1130.775	847.754
281.599	16.050	1130.102	847.387
282.614	16.029	1129.249	846.563
283.628	15.992	1128.047	845.404
284.643	15.965	1127.624	844.876
285.657	16.107	1126.313	844.531
286.672	16.027	1125.375	843.351
287.687	16.091	1124.498	842.938
288.701	16.095	1123.840	842.390
289.716	16.209	1123.350	842.519
290.730	16.068	1122.643	841.209
291.745	16.100	1122.078	840.872
292.760	16.238	1120.991	840.672
293.774	16.193	1120.518	840.016
294.789	16.178	1120.436	839.806
295.803	16.239	1119.278	839.170
296.818	16.117	1118.664	838.027
297.833	16.210	1118.175	838.046
298.847	16.238	1117.171	837.364
299.862	16.313	1116.131	836.880
300.876	16.412	1115.500	836.825
301.891	16.257	1114.846	835.491
302.906	16.369	1114.022	835.354
303.920	16.239	1113.747	834.430
304.935	16.443	1112.783	834.639
305.949	16.442	1112.030	833.998
306.964	16.467	1111.526	833.670
307.979	16.460	1110.516	832.804
308.993	16.605	1109.911	832.990
310.008	16.555	1109.275	832.191
311.022	16.545	1108.357	831.382
312.037	16.601	1107.638	831.041
313.052	16.536	1106.468	829.771
314.066	16.540	1105.458	828.961
315.081	16.490	1105.001	828.301
316.095	16.361	1104.923	827.537
317.110	16.461	1103.646	826.998
318.125	16.389	1103.114	826.173
319.139	16.588	1102.343	826.495
320.154	16.467	1102.115	825.659
321.168	16.470	1101.111	824.848
322.183	16.575	1100.451	824.794
323.197	16.575	1099.996	824.380
324.212	16.630	1099.211	823.984
325.227	16.638	1098.511	823.428
326.241	16.579	1098.213	822.844
327.256	16.605	1097.196	822.137
328.270	16.465	1096.551	820.902
329.285	16.549	1095.442	820.406
330.300	16.598	1094.637	819.965
331.314	16.622	1094.024	819.549
332.329	16.521	1093.191	818.367
333.343	16.619	1091.710	817.657
334.358	16.630	1091.523	817.498
335.373	16.710	1090.518	817.061
336.387	16.730	1089.612	816.406
337.402	16.815	1089.129	816.380
338.416	16.755	1088.521	815.565
339.431	16.778	1087.849	815.098
340.446	16.830	1087.109	814.723
341.460	16.809	1086.372	813.998
342.475	16.886	1085.673	813.773
343.489	17.003	1084.457	813.351
344.504	16.925	1083.661	812.306
345.519	16.886	1083.070	811.607
346.533	17.017	1082.035	811.385
347.548	17.133	1081.174	811.218
348.562	17.111	1080.390	810.454
349.577	17.113	1079.835	809.979
350.592	17.024	1079.111	808.938
351.606	17.023	1078.695	808.552
352.621	16.944	1077.882	807.491
353.635	17.032	1077.194	807.325
354.650	17.022	1076.456	806.653
355.665	16.941	1075.842	805.738
356.679	16.997	1075.596	805.745
357.694	17.008	1074.994	805.275
358.708	17.178	1074.299	805.489
359.723	17.150	1073.499	804.686
360.738	17.172	1073.201	804.497
361.752	17.058	1072.357	803.254
362.767	17.148	1071.826	803.210
363.781	17.238	1070.986	802.935
364.796	17.267	1070.165	802.387
365.810	17.235	1069.662	801.785
366.825	17.351	1069.176	801.897
367.840	17.241	1068.912	801.113
368.854	17.523	1068.079	801.742
369.869	17.426	1067.204	800.557
370.883	17.396	1066.301	799.670
371.898	17.443	1065.612	799.302
372.913	17.334	1065.274	798.465
373.927	17.352	1064.578	797.961
374.942	17.472	1064.365	798.293
375.956	17.439	1063.750	797.605
376.971	17.439	1063.165	797.098
377.986	17.468	1062.535	796.691
379.000	17.481	1062.337	796.529
380.015	17.644	1061.419	796.533
381.029	17.562	1061.243	795.948
382.044	17.618	1060.179	795.342
383.059	17.585	1059.162	794.354
384.073	17.616	1058.493	793.927
385.088	17.627	1057.463	793.133
386.102	17.623	1056.760	792.519
387.117	17.649	1055.780	791.834
388.132	17.458	1055.224	790.463
389.146	17.539	1054.164	789.970
390.161	17.552	1053.599	789.541
391.175	17.654	1052.756	789.312
392.190	17.707	1051.931	788.868
393.205	17.816	1050.833	788.476
394.219	17.802	1050.355	787.986
395.234	17.735	1049.738	787.141
396.248	17.819	1048.581	786.591
397.263	17.671	1047.858	785.298
398.278	17.625	1047.334	784.627
399.292	17.745	1046.377	784.390
400.307	17.695	1045.647	783.543
401.321	17.584	1045.489	782.844
402.336	17.817	1044.725	783.274
403.350	17.857	1043.755	782.662
404.365	17.889	1043.209	782.328
405.380	17.761	1042.257	780.959
406.394	17.770	1042.047	780.775
407.409	17.937	1040.605	780.391
408.423	17.854	1040.567	779.913
409.438	17.887	1039.347	779.081
410.453	18.042	1038.643	779.191
411.467	18.127	1038.202	779.178
412.482	18.108	1037.076	778.176
413.496	18.034	1036.840	777.592
414.511	18.161	1036.153	777.586
415.526	18.192	1035.874	777.451
416.540	18.168	1035.407	776.920
417.555	18.061	1034.708	775.841
418.569	18.187	1034.549	776.227
419.584	18.026	1034.138	775.121
420.599	18.115	1033.663	775.098
421.613	105.088	1321.226	1465.713
422.628	96.353	1363.086	1465.845
