DTS Sentinel unit serial number:	SN413079Multiplexer serial number:	ORYXHardware model number:	OX4-SRSoftware version number:	ORYX F/W v4.00 Oryx Data Collector v3.7.2.0data status	okinstallation	princeton_trtdifferential loss correction	single-endedforward channel	channel 2reverse channel	N/Adate	2019/09/15time	19:19:34forward acquisition time	60.00reverse acquisition time	0.00gamma	496.2192k internal	0.2307k external	0.2307temperature offset calibration	0.9930default loss term (dB/km)	0.3790temperature slope calibration	1.0000multiplexer offset coefficient	1.0000multiplexer slope coefficient	1.0000fibre end	0.00T internal ref (°C)	39.97T ext. ref 1 (°C)	7.20T ext. ref 2 (°C)	29.25length (m)	temperature (°C)	Stokes	anti-Stokes-747.200	10.512	-0.087	-0.068
-746.185	176.290	-0.223	0.329
-745.171	334.357	0.049	0.096
-744.156	800.000	0.082	0.345
-743.142	-200.000	0.066	-0.397
-742.127	-33.480	-0.100	-0.056
-741.112	-17.181	-0.065	-0.042
-740.098	-200.000	-0.014	0.211
-739.083	-4.643	0.150	0.105
-738.069	242.837	0.169	0.288
-737.054	-179.117	-0.164	-0.004
-736.039	-200.000	-0.037	0.171
-735.025	-119.632	0.142	0.025
-734.010	253.065	0.308	-0.534
-732.996	5.809	-0.261	-0.196
-731.981	-39.422	-0.141	0.075
-730.966	-107.189	-0.059	-0.013
-729.952	161.020	-0.129	0.184
-728.937	-148.814	-0.222	-0.018
-727.923	-12.495	-0.250	-0.166
-726.908	-167.618	-0.243	-0.010
-725.894	-150.969	0.134	-0.010
-724.879	45.502	0.012	0.012
-723.864	-109.628	-0.427	-0.091
-722.850	427.824	-0.096	-0.211
-721.835	137.200	-0.155	0.206
-720.821	-72.159	-0.143	-0.054
-719.806	800.000	-0.052	-0.153
-718.791	-126.032	-0.265	0.040
-717.777	251.334	-0.094	0.162
-716.762	800.000	-0.074	-0.209
-715.748	4.323	-0.268	-0.200
-714.733	131.669	-0.247	0.323
-713.718	-200.000	-0.040	0.455
-712.704	-27.964	-0.117	-0.069
-711.689	-2.034	0.090	-0.064
-710.675	-78.284	-0.167	0.058
-709.660	141.118	-0.141	-0.190
-708.645	-30.642	-0.122	0.070
-707.631	-200.000	0.085	-0.517
-706.616	-92.956	-0.116	-0.033
-705.602	-19.158	0.038	-0.024
-704.587	-92.610	-0.095	-0.027
-703.572	-111.188	-0.029	0.006
-702.558	-108.160	-0.101	0.022
-701.543	-5.115	0.124	-0.087
-700.529	-200.000	-0.003	0.043
-699.514	524.347	-0.178	-0.424
-698.499	-39.746	-0.326	0.173
-697.485	99.789	0.107	0.125
-696.470	-78.895	-0.271	0.094
-695.456	-22.362	-0.330	-0.203
-694.441	-75.145	-0.342	0.124
-693.426	-200.000	0.065	0.334
-692.412	-59.124	-0.118	0.052
-691.397	-200.000	-0.046	-0.231
-690.383	-43.275	-0.459	-0.236
-689.368	38.232	-0.143	-0.129
-688.354	203.688	0.149	-0.235
-687.339	-28.980	-0.082	0.048
-686.324	38.001	0.062	-0.056
-685.310	-13.912	-0.102	-0.067
-684.295	-95.865	0.145	-0.039
-683.281	390.041	-0.094	-0.197
-682.266	-23.333	-0.147	-0.090
-681.251	2.302	0.045	0.033
-680.237	-89.285	0.188	-0.056
-679.222	123.137	0.190	-0.241
-678.208	148.717	-0.139	0.190
-677.193	-150.319	-0.094	0.007
-676.178	-99.718	0.057	0.015
-675.164	-39.862	-0.188	-0.100
-674.149	-139.607	0.133	-0.014
-673.135	110.504	-0.189	-0.230
-672.120	-22.995	-0.065	0.040
-671.105	-117.146	0.387	-0.071
-670.091	195.414	0.075	-0.115
-669.076	566.120	0.073	0.181
-668.062	-97.168	0.136	-0.036
-667.047	759.359	0.034	0.093
-666.032	-66.458	-0.253	-0.102
-665.018	-200.000	0.323	0.000
-664.003	-200.000	-0.005	0.050
-662.989	-200.000	0.009	0.091
-661.974	71.786	0.099	-0.105
-660.959	-79.824	0.107	-0.037
-659.945	-105.610	0.116	-0.027
-658.930	-19.695	-0.190	0.119
-657.916	63.730	0.114	0.116
-656.901	-167.588	0.370	0.015
-655.886	-58.455	-0.165	0.073
-654.872	113.093	0.269	0.331
-653.857	-200.000	0.007	-0.330
-652.843	-200.000	-0.027	0.191
-651.828	-55.187	-0.280	-0.128
-650.814	800.000	0.056	0.172
-649.799	-55.518	-0.047	0.021
-648.784	-200.000	0.047	-0.268
-647.770	316.005	-0.028	-0.054
-646.755	210.050	0.112	0.178
-645.741	800.000	0.052	-0.166
-644.726	-24.394	0.215	-0.130
-643.711	-139.086	-0.182	-0.020
-642.697	-128.358	0.163	0.024
-641.682	137.911	-0.182	0.242
-640.668	138.962	0.219	-0.292
-639.653	-168.057	0.541	-0.021
-638.638	541.454	-0.051	-0.123
-637.624	-32.297	-0.108	-0.061
-636.609	-51.655	0.106	-0.050
-635.595	-73.463	0.008	0.003
-634.580	313.865	0.085	0.162
-633.565	-9.649	-0.230	0.155
-632.551	-85.319	0.275	-0.087
-631.536	85.728	-0.251	-0.279
-630.522	-87.716	-0.202	-0.062
-629.507	-137.232	-0.194	0.022
-628.492	-200.000	-0.077	-0.387
-627.478	-39.548	-0.579	-0.307
-626.463	79.592	0.096	0.105
-625.449	-81.733	0.227	0.075
-624.434	-60.339	0.244	0.105
-623.419	78.842	-0.117	-0.126
-622.405	-98.599	0.111	-0.029
-621.390	280.213	0.060	0.108
-620.376	-50.984	0.291	-0.138
-619.361	-200.000	0.001	-0.211
-618.346	-109.933	0.130	0.028
-617.332	-75.624	-0.156	-0.056
-616.317	102.002	0.174	0.205
-615.303	102.018	0.075	-0.089
-614.288	373.250	-0.091	-0.188
-613.273	-50.462	-0.085	-0.040
-612.259	214.067	-0.242	0.387
-611.244	107.743	-0.146	0.176
-610.230	189.097	0.115	-0.174
-609.215	8.260	-0.248	0.188
-608.201	10.883	-0.099	0.076
-607.186	800.000	-0.093	0.295
-606.171	800.000	-0.088	0.286
-605.157	800.000	0.124	-0.427
-604.142	267.649	-0.173	-0.307
-603.128	11.125	0.105	0.081
-602.113	800.000	-0.029	0.129
-601.098	-109.725	-0.048	-0.010
-600.084	781.856	0.146	0.403
-599.069	73.203	-0.323	0.342
-598.055	-200.000	0.000	0.118
-597.040	-164.353	-0.243	0.011
-596.025	-52.286	-0.317	-0.148
-595.011	228.100	0.166	-0.272
-593.996	486.222	0.137	-0.316
-592.982	-48.993	-0.159	0.077
-591.967	-43.037	0.292	0.150
-590.952	70.383	0.083	-0.087
-589.938	-123.822	0.245	0.039
-588.923	213.003	0.079	-0.126
-587.909	479.047	0.099	0.226
-586.894	-200.000	-0.019	0.100
-585.879	800.000	-0.115	-0.421
-584.865	-20.811	0.183	0.113
-583.850	441.373	0.062	0.138
-582.836	4.448	-0.316	-0.234
-581.821	379.710	-0.003	-0.006
-580.806	-11.763	-0.118	0.078
-579.792	-2.089	-0.176	-0.125
-578.777	446.775	-0.026	-0.058
-577.763	-24.156	-0.355	-0.214
-576.748	800.000	0.069	0.210
-575.733	800.000	0.042	0.153
-574.719	122.799	-0.071	0.090
-573.704	800.000	0.043	-0.173
-572.690	752.561	0.088	-0.240
-571.675	800.000	0.068	-0.195
-570.661	398.257	0.045	0.096
-569.646	-129.009	0.128	0.018
-568.631	800.000	-0.080	-0.283
-567.617	47.365	-0.186	-0.175
-566.602	-57.740	-0.134	-0.059
-565.588	-200.000	-0.037	-0.190
-564.573	60.771	0.138	-0.139
-563.558	-40.054	-0.189	-0.099
-562.544	-200.000	-0.031	-0.249
-561.529	800.000	-0.016	-0.057
-560.515	-13.170	0.147	-0.096
-559.500	1.201	-0.108	-0.078
-558.485	98.076	0.182	-0.212
-557.471	267.520	-0.220	0.389
-556.456	52.215	-0.141	-0.136
-555.442	800.000	0.056	-0.176
-554.427	-137.313	-0.086	-0.010
-553.412	800.000	-0.066	0.240
-552.398	-169.543	-0.553	-0.020
-551.383	-10.800	-0.094	0.063
-550.369	-200.000	0.048	0.215
-549.354	-134.717	0.327	-0.040
-548.339	232.178	0.136	0.225
-547.325	-90.571	0.159	0.047
-546.310	219.276	-0.189	-0.305
-545.296	-200.000	-0.016	-0.095
-544.281	574.779	-0.057	0.140
-543.266	178.304	-0.189	0.278
-542.252	800.000	-0.022	0.068
-541.237	-73.921	-0.171	-0.062
-540.223	129.579	0.105	0.135
-539.208	59.131	-0.292	-0.290
-538.193	-200.000	0.006	0.158
-537.179	373.217	0.162	0.332
-536.164	-26.926	0.167	-0.098
-535.150	153.973	-0.208	0.288
-534.135	-200.000	-0.007	0.153
-533.121	-164.588	0.089	-0.004
-532.106	-114.042	0.292	0.057
-531.091	-169.428	-0.271	0.010
-530.077	165.800	-0.245	-0.350
-529.062	-137.287	-0.134	0.015
-528.048	33.638	0.089	0.078
-527.033	163.497	-0.144	-0.204
-526.018	84.191	0.457	0.503
-525.004	189.792	0.068	-0.102
-523.989	139.715	-0.188	-0.249
-522.975	-122.553	0.360	0.059
-521.960	-200.000	-0.374	0.001
-520.945	529.577	0.141	0.337
-519.931	-130.450	-0.396	-0.054
-518.916	-200.000	0.022	-0.166
-517.902	81.280	-0.147	-0.160
-516.887	664.101	0.063	-0.163
-515.872	23.087	0.122	-0.101
-514.858	-87.154	-0.085	-0.026
-513.843	127.648	-0.168	0.215
-512.829	-12.059	0.262	0.173
-511.814	249.276	0.205	-0.350
-510.799	-21.297	-0.335	0.206
-509.785	-200.000	-0.012	0.290
-508.770	565.960	-0.102	-0.248
-507.756	362.232	-0.192	0.388
-506.741	200.800	-0.091	0.141
-505.726	18.096	0.212	0.170
-504.712	-200.000	-0.023	-0.211
-503.697	-76.862	-0.197	0.070
-502.683	74.923	-0.287	-0.305
-501.668	-22.398	0.175	0.107
-500.653	-76.461	-0.390	-0.138
-499.639	-200.000	-0.004	-0.081
-498.624	35.741	-0.129	0.114
-497.610	39.517	0.169	0.153
-496.595	-200.000	0.001	0.021
-495.581	124.631	-0.172	0.219
-494.566	418.193	-0.096	-0.206
-493.551	-15.464	0.115	0.074
-492.537	-57.385	0.173	0.076
-491.522	-114.410	-0.146	-0.028
-490.508	-200.000	-0.001	0.158
-489.493	-200.000	0.002	0.074
-488.478	-200.000	-0.016	0.225
-487.464	516.665	0.071	-0.167
-486.449	151.283	0.132	-0.181
-485.435	800.000	0.034	-0.118
-484.420	-112.118	0.070	0.014
-483.405	467.475	-0.017	-0.039
-482.391	-39.251	0.268	-0.142
-481.376	-200.000	0.072	-0.322
-480.362	416.136	-0.019	0.040
-479.347	-81.400	0.121	0.040
-478.332	-107.380	-0.436	-0.096
-477.318	187.822	-0.096	-0.144
-476.303	-69.676	0.183	0.070
-475.289	38.461	0.152	-0.137
-474.274	800.000	0.032	0.128
-473.259	17.258	0.033	-0.026
-472.245	-200.000	0.022	0.104
-471.230	-200.000	0.012	0.307
-470.216	-200.000	0.024	-0.358
-469.201	32.891	0.083	0.072
-468.186	-65.819	-0.244	-0.098
-467.172	-50.495	-0.034	-0.016
-466.157	114.445	0.134	0.164
-465.143	-42.467	0.313	-0.161
-464.128	-91.281	0.220	0.063
-463.113	400.316	-0.067	-0.141
-462.099	27.370	-0.102	0.086
-461.084	-93.044	0.225	0.063
-460.070	123.329	0.259	0.327
-459.055	-46.563	0.090	0.044
-458.040	-31.804	-0.123	-0.070
-457.026	-200.000	-0.000	-0.408
-456.011	473.931	0.159	0.362
-454.997	-200.000	0.014	0.109
-453.982	-154.199	-0.274	0.019
-452.968	648.740	0.044	-0.114
-451.953	-47.437	0.304	-0.148
-450.938	134.249	0.083	0.108
-449.924	25.866	-0.233	0.195
-448.909	684.732	0.052	0.136
-447.895	66.454	-0.273	-0.279
-446.880	-145.457	0.274	0.025
-445.865	-137.432	0.314	0.036
-444.851	198.489	-0.130	0.199
-443.836	-200.000	-0.016	-0.255
-442.822	-136.262	-0.138	0.016
-441.807	63.472	-0.092	0.092
-440.792	-32.821	0.214	0.119
-439.778	800.000	0.048	-0.197
-438.763	800.000	0.031	-0.088
-437.749	22.461	-0.126	-0.103
-436.734	800.000	0.044	-0.123
-435.719	138.483	-0.078	0.103
-434.705	-200.000	-0.006	-0.208
-433.690	66.597	0.068	-0.069
-432.676	-200.000	0.001	0.184
-431.661	557.972	-0.115	0.278
-430.646	155.416	-0.214	0.296
-429.632	-13.257	-0.266	0.174
-428.617	800.000	0.107	-0.366
-427.603	-200.000	0.009	-0.213
-426.588	-200.000	0.008	-0.176
-425.573	800.000	-0.170	0.522
-424.559	-129.456	-0.141	-0.020
-423.544	-58.340	-0.228	0.099
-422.530	246.711	-0.024	0.040
-421.515	-165.296	-0.318	0.014
-420.500	-124.600	0.145	-0.023
-419.486	-169.360	0.581	0.021
-418.471	-200.000	0.013	-0.264
-417.457	-200.000	0.011	0.165
-416.442	286.873	-0.123	0.223
-415.428	-127.710	0.488	0.071
-414.413	-176.216	0.197	0.005
-413.398	-139.935	0.118	-0.013
-412.384	-179.621	0.449	-0.010
-411.369	-200.000	-0.053	-0.246
-410.355	-200.000	-0.015	-0.138
-409.340	254.726	0.182	-0.312
-408.325	12.454	0.265	-0.205
-407.311	-166.966	-0.331	0.014
-406.296	290.299	0.054	-0.098
-405.282	263.502	0.049	0.085
-404.267	-132.758	-0.250	-0.032
-403.252	-200.000	-0.017	0.155
-402.238	-62.004	0.135	-0.057
-401.223	-200.000	0.048	-0.231
-400.209	330.273	0.042	0.081
-399.194	-159.825	-0.133	-0.007
-398.179	48.948	-0.129	-0.122
-397.165	703.180	-0.051	0.135
-396.150	-50.946	0.084	-0.040
-395.136	146.358	0.096	0.130
-394.121	130.356	0.160	-0.206
-393.106	-66.574	-0.054	0.021
-392.092	185.072	-0.198	0.295
-391.077	49.819	-0.269	0.254
-390.063	9.833	0.222	0.169
-389.048	-3.292	0.108	-0.076
-388.033	141.911	0.207	0.276
-387.019	112.121	0.046	0.055
-386.004	-111.714	-0.053	-0.011
-384.990	-84.203	0.343	-0.109
-383.975	-47.632	-0.228	0.111
-382.960	-160.769	0.239	0.013
-381.946	800.000	0.089	-0.344
-380.931	-110.485	0.167	0.035
-379.917	42.091	0.058	-0.053
-378.902	152.809	0.165	-0.227
-377.888	668.613	-0.148	0.384
-376.873	-62.604	-0.307	0.128
-375.858	-200.000	0.031	0.246
-374.844	-0.653	0.185	0.131
-373.829	-109.668	-0.214	-0.045
-372.815	-145.158	-0.138	-0.013
-371.800	-90.571	0.441	0.128
-370.785	269.777	0.089	0.157
-369.771	-57.824	0.304	-0.133
-368.756	60.394	-0.071	0.070
-367.742	-200.000	-0.016	-0.110
-366.727	-32.206	-0.049	-0.027
-365.712	236.916	-0.089	0.147
-364.698	-70.987	0.305	-0.115
-363.683	66.397	0.387	-0.394
-362.669	-8.610	-0.065	0.044
-361.654	-132.398	0.188	-0.024
-360.639	-135.940	-0.207	0.024
-359.625	-200.000	-0.013	0.103
-358.610	-22.868	-0.370	0.224
-357.596	55.685	0.197	0.191
-356.581	-197.633	-0.184	0.001
-355.566	-200.000	-0.000	0.205
-354.552	28.433	-0.121	0.102
-353.537	534.165	-0.076	-0.179
-352.523	-93.045	-0.429	0.120
-351.508	-127.609	0.422	-0.061
-350.493	-27.829	0.276	0.160
-349.479	-126.686	0.493	0.073
-348.464	-144.741	0.225	-0.021
-347.450	220.616	0.095	-0.153
-346.435	-56.477	0.147	-0.065
-345.420	-200.000	0.008	0.099
-344.406	9.009	0.144	-0.109
-343.391	31.396	-0.131	-0.113
-342.377	-200.000	0.058	0.330
-341.362	800.000	0.087	0.364
-340.348	-200.000	-0.037	-0.170
-339.333	-156.586	0.249	-0.015
-338.318	-120.748	0.280	-0.047
-337.304	271.382	0.129	0.227
-336.289	-200.000	0.042	-0.568
-335.275	-200.000	-0.045	-0.203
-334.260	241.703	0.244	-0.408
-333.245	-62.159	-0.066	-0.028
-332.231	-135.678	0.185	-0.022
-331.216	-176.359	0.172	-0.004
-330.202	-200.000	-0.005	-0.220
-329.187	164.268	-0.156	0.220
-328.172	25.290	-0.153	0.127
-327.158	800.000	0.052	-0.161
-326.143	-122.052	0.161	0.026
-325.129	-175.069	0.150	-0.004
-324.114	77.503	-0.287	0.306
-323.099	93.564	0.156	0.177
-322.085	-77.939	0.381	-0.131
-321.070	-30.341	-0.176	0.100
-320.056	17.323	-0.299	0.237
-319.041	800.000	-0.038	0.110
-318.026	577.623	-0.091	-0.222
-317.012	549.270	0.111	-0.267
-315.997	-9.398	-0.102	-0.068
-314.983	-56.355	0.211	-0.094
-313.968	-200.000	-0.044	0.209
-312.953	800.000	-0.036	0.137
-311.939	-87.112	0.081	0.025
-310.924	-104.719	-0.121	-0.028
-309.910	800.000	-0.081	-0.348
-308.895	-200.000	-0.020	0.107
-307.880	-29.609	0.150	-0.085
-306.866	77.934	-0.147	-0.157
-305.851	-82.483	0.249	0.081
-304.837	417.697	0.012	0.025
-303.822	-136.244	-0.152	0.018
-302.807	111.619	-0.046	-0.055
-301.793	254.963	0.044	0.075
-300.778	378.274	-0.094	0.192
-299.764	232.815	-0.017	-0.028
-298.749	-46.859	0.123	-0.060
-297.735	-163.515	0.221	0.010
-296.720	-77.848	-0.437	-0.151
-295.705	800.000	0.090	-0.362
-294.691	800.000	-0.064	-0.244
-293.676	-40.695	-0.419	0.217
-292.662	10.986	0.194	0.148
-291.647	-93.854	0.209	-0.058
-290.632	25.025	0.082	0.068
-289.618	-143.309	-0.150	0.014
-288.603	760.161	-0.018	-0.049
-287.589	-54.253	-0.340	-0.154
-286.574	218.257	-0.152	0.242
-285.559	-200.000	-0.011	-0.054
-284.545	-200.000	-0.037	0.209
-283.530	59.468	0.160	0.158
-282.516	-96.077	0.133	0.035
-281.501	117.049	-0.069	0.084
-280.486	-109.326	-0.096	-0.020
-279.472	108.379	0.038	0.045
-278.457	-107.166	-0.412	-0.091
-277.443	800.000	-0.022	0.067
-276.428	-80.266	0.182	-0.061
-275.413	-72.109	-0.084	0.031
-274.399	704.551	0.065	0.172
-273.384	-24.756	-0.177	-0.105
-272.370	229.863	0.021	-0.034
-271.355	64.768	-0.064	0.064
-270.340	800.000	-0.027	0.087
-269.326	3.291	-0.022	-0.016
-268.311	-118.646	-0.217	-0.038
-267.297	760.120	0.063	-0.170
-266.282	648.431	-0.124	-0.317
-265.267	800.000	0.074	0.232
-264.253	53.026	-0.089	-0.085
-263.238	-200.000	0.026	0.139
-262.224	-200.000	0.032	0.270
-261.209	-67.427	-0.165	-0.065
-260.195	60.094	-0.119	0.117
-259.180	-200.000	0.007	0.108
-258.165	-104.137	-0.195	-0.045
-257.151	-152.853	-0.517	-0.037
-256.136	82.270	-0.125	0.135
-255.122	36.370	0.042	-0.037
-254.107	-155.429	-0.443	0.029
-253.092	140.288	0.089	0.117
-252.078	32.816	-0.128	0.111
-251.063	-33.703	-0.068	0.037
-250.049	-113.690	-0.204	0.040
-249.034	80.508	0.078	-0.083
-248.019	-200.000	-0.007	-0.037
-247.005	-42.808	-0.317	-0.161
-245.990	163.057	0.062	0.087
-244.976	167.943	0.081	-0.115
-243.961	-200.000	-0.001	0.007
-242.946	-48.535	-0.067	0.032
-241.932	-200.000	-0.031	-0.221
-240.917	-7.235	0.097	-0.065
-239.903	-156.248	-0.320	-0.020
-238.888	62.190	0.169	-0.168
-237.873	3.705	0.241	0.176
-236.859	174.104	-0.393	-0.567
-235.844	-200.000	0.033	0.199
-234.830	-43.527	0.111	0.056
-233.815	8.070	0.052	-0.039
-232.800	13.399	0.060	0.046
-231.786	-200.000	-0.006	-0.094
-230.771	54.389	-0.163	-0.157
-229.757	270.405	-0.015	-0.026
-228.742	-111.580	0.165	0.033
-227.727	-55.214	0.244	-0.109
-226.713	64.159	0.325	0.326
-225.698	-116.464	-0.344	-0.063
-224.684	-48.360	-0.244	0.117
-223.669	-183.705	0.217	0.004
-222.655	-134.265	0.217	-0.027
-221.640	-88.355	-0.078	0.023
-220.625	338.056	-0.112	0.216
-219.611	72.463	-0.096	0.100
-218.596	-3.840	-0.315	0.218
-217.582	53.613	0.354	0.339
-216.567	314.549	-0.053	0.100
-215.552	-55.545	0.152	0.068
-214.538	800.000	0.047	0.198
-213.523	120.080	-0.295	-0.364
-212.509	-25.504	0.037	-0.022
-211.494	-84.425	-0.204	-0.064
-210.479	-20.996	-0.195	-0.119
-209.465	-154.661	0.694	0.046
-208.450	-200.000	-0.020	0.355
-207.436	159.681	-0.109	-0.151
-206.421	-51.224	0.476	0.222
-205.406	-128.631	-0.186	-0.026
-204.392	-91.474	0.072	-0.020
-203.377	-200.000	-0.010	-0.134
-202.363	-50.203	0.084	-0.040
-201.348	525.522	-0.102	-0.240
-200.333	47.891	0.169	0.157
-199.319	357.455	-0.080	-0.158
-198.304	800.000	-0.042	0.164
-197.290	-128.807	0.360	0.050
-196.275	321.389	-0.139	0.263
-195.260	-200.000	-0.012	-0.243
-194.246	244.737	0.136	-0.227
-193.231	409.247	0.069	0.145
-192.217	800.000	0.089	-0.302
-191.202	-101.339	-0.233	0.056
-190.187	-31.694	-0.229	0.128
-189.173	-200.000	0.008	0.419
-188.158	-31.673	0.225	-0.126
-187.144	-186.275	0.246	0.004
-186.129	127.479	0.095	0.120
-185.114	800.000	0.077	-0.297
-184.100	-16.293	0.064	-0.041
-183.085	73.786	0.141	0.147
-182.071	-103.499	0.249	0.058
-181.056	-55.507	-0.219	0.098
-180.042	-59.849	-0.170	-0.072
-179.027	-200.000	-0.028	-0.127
-178.012	692.052	0.113	-0.295
-176.998	-170.893	-0.297	-0.010
-175.983	-71.923	0.069	-0.026
-174.969	800.000	0.099	0.288
-173.954	-200.000	0.012	0.299
-172.939	536.153	0.054	0.127
-171.925	-163.696	0.378	-0.018
-170.910	-26.479	-0.092	-0.053
-169.896	140.959	-0.123	-0.162
-168.881	659.299	-0.101	-0.258
-167.866	-200.000	-0.014	-0.183
-166.852	312.061	0.120	-0.225
-165.837	51.592	0.086	0.081
-164.823	258.242	0.111	0.191
-163.808	648.261	-0.064	-0.162
-162.793	218.946	0.062	-0.098
-161.779	32.308	-0.010	-0.008
-160.764	-49.376	-0.213	0.101
-159.750	27.863	-0.136	-0.114
-158.735	52.700	-0.135	-0.128
-157.720	-200.000	-0.028	0.437
-156.706	221.915	0.100	0.160
-155.691	290.257	-0.158	-0.286
-154.677	-200.000	-0.045	-0.202
-153.662	794.930	-0.098	-0.269
-152.647	-200.000	0.052	0.422
-151.633	800.000	-0.050	0.166
-150.618	-49.058	0.213	0.101
-149.604	-92.317	-0.098	0.027
-148.589	-121.748	-0.468	0.077
-147.574	800.000	0.076	0.225
-146.560	610.421	-0.027	-0.066
-145.545	194.508	0.116	0.174
-144.531	-200.000	-0.059	0.286
-143.516	800.000	-0.092	0.254
-142.502	504.382	0.120	0.277
-141.487	25.295	-0.310	0.256
-140.472	-82.785	-0.171	-0.055
-139.458	725.042	-0.083	-0.219
-138.443	-25.085	0.185	-0.109
-137.429	11.313	-0.175	-0.133
-136.414	-147.150	0.108	0.009
-135.399	80.524	-0.241	0.258
-134.385	-20.485	-0.361	0.220
-133.370	-200.000	0.047	0.206
-132.356	188.200	-0.151	0.225
-131.341	139.744	-0.169	0.221
-130.326	344.666	-0.092	0.179
-129.312	-27.024	-0.386	-0.223
-128.297	509.237	-0.234	0.539
-127.283	167.018	0.226	-0.319
-126.268	-31.792	-0.217	0.121
-125.253	-200.000	-0.028	-0.358
-124.239	13.554	-0.043	0.033
-123.224	-8.844	0.142	0.095
-122.210	-200.000	0.006	0.060
-121.195	6.218	0.106	0.078
-120.180	-200.000	-0.010	0.068
-119.166	348.728	-0.167	-0.327
-118.151	126.792	0.112	-0.141
-117.137	-156.594	-0.509	-0.031
-116.122	-200.000	-0.028	0.160
-115.107	-200.000	-0.013	0.240
-114.093	-6.754	-0.105	-0.071
-113.078	-3.342	-0.134	-0.093
-112.064	800.000	-0.083	0.267
-111.049	52.251	-0.241	0.228
-110.034	-94.367	-0.280	0.076
-109.020	390.049	0.150	-0.309
-108.005	800.000	0.077	0.274
-106.991	336.357	-0.025	0.048
-105.976	-124.242	-0.186	0.029
-104.962	-77.298	0.455	0.157
-103.947	5.658	-0.200	0.147
-102.932	19.680	-0.273	-0.218
-101.918	367.043	0.068	0.137
-100.903	800.000	-0.049	0.184
-99.889	25.808	0.173	-0.143
-98.874	-94.406	-0.153	-0.041
-97.859	-67.401	-0.224	0.087
-96.845	-200.000	-0.036	0.196
-95.830	-98.337	-0.219	0.056
-94.816	484.983	0.076	0.173
-93.801	669.077	-0.042	0.108
-92.786	153.433	-0.264	0.359
-91.772	-14.439	-0.401	-0.256
-90.757	4.386	0.162	0.117
-89.743	-158.592	0.272	0.016
-88.728	363.257	0.061	-0.121
-87.713	51.965	-0.100	-0.094
-86.699	84.732	-0.047	0.051
-85.684	800.000	-0.023	0.079
-84.670	87.282	0.054	0.060
-83.655	-146.752	-0.105	0.009
-82.640	162.156	0.087	0.120
-81.626	-13.534	0.309	-0.198
-80.611	285.560	0.056	0.099
-79.597	-176.353	0.068	0.002
-78.582	800.000	0.133	-0.481
-77.567	-89.932	0.260	0.075
-76.553	-200.000	0.174	-0.000
-75.538	-68.860	-0.174	0.066
-74.524	16.623	-0.269	0.210
-73.509	800.000	0.051	0.168
-72.494	62.399	-0.040	0.039
-71.480	-49.410	0.187	-0.089
-70.465	659.630	-0.070	0.179
-69.451	-50.761	0.043	-0.020
-68.436	-45.701	-0.160	0.079
-67.422	-200.000	0.016	0.149
-66.407	407.026	0.080	0.168
-65.392	-70.642	0.388	0.145
-64.378	-137.637	0.059	0.007
-63.363	-200.000	0.007	-0.140
-62.349	185.773	0.092	-0.136
-61.334	85.493	-0.670	-0.729
-60.319	800.000	0.110	0.365
-59.305	-200.000	-0.073	-0.926
-58.290	128.884	0.540	0.681
-57.276	800.000	0.471	1.827
-56.261	-200.000	84.160	533.934
-55.246	554.634	1320.889	3145.756
-54.232	154.235	2537.954	3446.857
-53.217	110.239	2321.818	2759.859
-52.203	49.019	1944.121	1806.964
-51.188	43.229	1734.334	1567.117
-50.173	40.299	1689.518	1504.339
-49.159	55.079	1730.353	1654.471
-48.144	59.648	1749.171	1707.476
-47.130	43.087	1708.639	1542.564
-46.115	40.101	1694.513	1507.039
-45.100	39.936	1689.881	1501.605
-44.086	39.958	1687.195	1499.329
-43.071	39.852	1684.540	1496.106
-42.057	39.812	1682.267	1493.728
-41.042	39.872	1680.427	1492.483
-40.027	39.802	1678.811	1490.462
-39.013	39.792	1676.491	1488.271
-37.998	39.764	1675.368	1487.001
-36.984	39.839	1673.805	1486.122
-35.969	39.984	1671.983	1485.536
-34.954	40.034	1669.832	1483.935
-33.940	40.064	1668.060	1482.532
-32.925	40.052	1666.369	1480.876
-31.911	39.948	1664.651	1478.511
-30.896	39.938	1663.260	1477.144
-29.881	39.900	1661.501	1475.241
-28.867	39.907	1660.008	1473.908
-27.852	39.907	1659.010	1472.961
-26.838	39.953	1657.374	1471.798
-25.823	39.945	1656.046	1470.501
-24.809	40.040	1654.767	1470.009
-23.794	39.982	1653.117	1468.053
-22.779	40.096	1651.402	1467.321
-21.765	40.075	1649.201	1465.150
-20.750	39.955	1647.825	1462.982
-19.736	39.998	1646.363	1461.945
-18.721	39.959	1645.591	1460.915
-17.706	40.006	1643.845	1459.649
-16.692	39.923	1642.350	1457.654
-15.677	40.064	1640.824	1457.281
-14.663	40.002	1639.855	1455.908
-13.648	39.938	1638.900	1454.528
-12.633	40.069	1636.394	1453.209
-11.619	40.024	1635.276	1451.831
-10.604	39.974	1633.585	1449.906
-9.590	39.982	1632.199	1448.672
-8.575	40.054	1630.978	1448.064
-7.560	40.035	1629.483	1446.537
-6.546	40.067	1628.079	1445.468
-5.531	39.925	1627.798	1444.122
-4.517	39.977	1626.162	1442.996
-3.502	39.945	1624.872	1441.557
-2.487	39.997	1623.410	1440.580
-1.473	39.227	1609.853	1422.925
-0.458	34.637	1584.962	1368.074
0.556	26.081	1579.692	1313.251
1.571	22.514	1600.644	1304.192
2.586	21.119	1613.170	1303.869
3.600	18.876	1563.023	1246.967
4.615	13.500	1458.725	1127.155
5.629	8.568	1394.289	1045.116
6.644	7.312	1385.809	1030.503
7.659	7.185	1384.497	1028.614
8.673	7.172	1383.489	1027.692
9.688	7.141	1380.921	1025.493
10.702	6.931	1378.433	1022.193
11.717	9.129	1382.903	1039.666
12.731	14.300	1392.106	1080.111
13.746	17.211	1396.189	1102.096
14.761	16.963	1394.245	1098.857
15.775	15.985	1391.503	1090.268
16.790	14.930	1388.677	1081.145
17.804	13.920	1386.377	1072.738
18.819	13.556	1385.341	1069.491
19.834	13.280	1383.688	1066.339
20.848	13.070	1382.683	1064.115
21.863	12.795	1380.845	1060.836
22.877	12.656	1379.844	1059.079
23.892	12.680	1378.742	1058.298
24.907	12.632	1377.786	1057.163
25.921	12.553	1377.398	1056.261
26.936	12.602	1376.675	1055.927
27.950	12.720	1375.204	1055.463
28.965	12.697	1374.452	1054.642
29.980	12.725	1373.369	1053.901
30.994	12.887	1371.785	1053.625
32.009	12.955	1370.883	1053.278
33.023	12.839	1369.310	1051.231
34.038	12.862	1367.743	1050.081
35.053	12.829	1366.881	1049.122
36.067	12.729	1365.705	1047.487
37.082	12.798	1364.430	1046.855
38.096	12.851	1363.562	1046.431
39.111	12.841	1362.818	1045.704
40.126	12.797	1361.848	1044.588
41.140	12.726	1360.739	1043.200
42.155	12.681	1360.028	1042.275
43.169	12.604	1360.326	1041.923
44.184	12.653	1360.037	1041.920
45.199	12.528	1359.545	1040.657
46.213	12.649	1359.459	1041.265
47.228	12.763	1358.114	1040.864
48.242	12.708	1356.664	1039.316
49.257	12.797	1354.875	1038.413
50.271	12.672	1353.703	1036.635
51.286	12.831	1352.098	1036.317
52.301	12.863	1350.747	1035.389
53.315	12.730	1350.016	1033.903
54.330	12.660	1349.178	1032.730
55.344	12.572	1348.342	1031.450
56.359	12.667	1346.420	1030.480
57.374	12.633	1345.757	1029.668
58.388	12.458	1345.691	1028.434
59.403	12.509	1344.499	1027.751
60.417	12.518	1343.872	1027.235
61.432	12.562	1342.318	1026.231
62.447	12.423	1342.150	1025.143
63.461	12.510	1340.998	1024.716
64.476	12.419	1339.720	1023.084
65.490	12.423	1338.642	1022.195
66.505	12.516	1336.935	1021.381
67.520	12.444	1336.284	1020.347
68.534	12.609	1334.549	1019.952
69.549	12.454	1333.804	1018.334
70.563	12.468	1332.944	1017.671
71.578	12.410	1331.669	1016.251
72.593	12.311	1330.961	1015.006
73.607	12.410	1330.087	1014.859
74.622	12.334	1329.450	1013.820
75.636	12.327	1328.687	1013.102
76.651	12.313	1328.047	1012.439
77.666	12.387	1327.557	1012.431
78.680	12.370	1327.047	1011.850
79.695	12.429	1326.152	1011.436
80.709	12.461	1325.486	1011.037
81.724	12.559	1324.667	1010.926
82.739	12.576	1323.782	1010.268
83.753	12.634	1322.569	1009.609
84.768	12.767	1321.385	1009.426
85.782	12.832	1319.988	1008.670
86.797	12.782	1319.248	1007.712
87.812	12.723	1317.840	1006.185
88.826	12.727	1317.028	1005.499
89.841	12.784	1316.057	1005.017
90.855	12.819	1314.777	1004.163
91.870	12.794	1314.409	1003.642
92.884	12.931	1313.267	1003.517
93.899	12.836	1313.046	1002.682
94.914	12.849	1312.186	1002.013
95.928	12.833	1311.281	1001.133
96.943	12.766	1310.250	999.854
97.957	12.785	1309.171	999.059
98.972	12.783	1308.300	998.293
99.987	12.803	1306.978	997.319
101.001	12.879	1305.993	996.935
102.016	12.802	1305.289	995.845
103.030	12.817	1304.334	995.122
104.045	12.777	1303.546	994.186
105.060	12.746	1301.972	992.711
106.074	12.646	1300.541	990.930
107.089	12.575	1299.152	989.360
108.103	12.530	1297.712	987.905
109.118	12.561	1296.765	987.285
110.133	12.593	1295.153	986.158
111.147	12.569	1293.506	984.672
112.162	12.510	1292.491	983.463
113.176	12.553	1291.584	982.943
114.191	12.629	1290.436	982.434
115.206	12.653	1289.248	981.586
116.220	12.583	1288.242	980.316
117.235	12.647	1286.936	979.615
118.249	12.530	1286.142	978.230
119.264	12.517	1285.000	977.200
120.279	12.509	1283.891	976.222
121.293	12.480	1282.812	975.143
122.308	12.592	1281.306	974.576
123.322	12.518	1280.319	973.300
124.337	12.470	1280.006	972.688
125.352	12.491	1278.188	971.345
126.366	12.516	1277.036	970.532
127.381	12.464	1276.036	969.382
128.395	12.523	1274.905	968.784
129.410	12.543	1274.323	968.375
130.424	12.592	1273.402	967.874
131.439	12.628	1272.311	967.172
132.454	12.637	1271.534	966.548
133.468	12.641	1270.519	965.717
134.483	12.656	1270.095	965.396
135.497	12.693	1269.032	964.719
136.512	12.739	1267.640	963.843
137.527	12.628	1266.459	962.215
138.541	12.836	1264.712	962.014
139.556	12.765	1263.649	960.708
140.570	12.839	1262.597	960.255
141.585	12.811	1261.259	958.989
142.600	12.871	1260.171	958.426
143.614	12.879	1259.511	957.881
144.629	12.901	1257.925	956.723
145.643	12.908	1257.122	956.067
146.658	12.703	1256.145	954.050
147.673	12.697	1254.190	952.449
148.687	12.674	1253.259	951.525
149.702	12.682	1251.859	950.422
150.716	12.609	1250.966	949.239
151.731	12.663	1249.629	948.454
152.746	12.720	1248.236	947.639
153.760	12.777	1246.914	946.882
154.775	12.862	1245.688	946.352
155.789	12.875	1244.858	945.711
156.804	12.761	1244.045	944.356
157.819	12.907	1242.625	944.031
158.833	12.904	1241.844	943.339
159.848	12.952	1241.063	942.937
160.862	12.918	1240.106	941.931
161.877	12.993	1238.331	940.925
162.892	12.839	1237.781	939.550
163.906	12.917	1236.485	938.924
164.921	12.784	1235.776	937.547
165.935	12.907	1234.482	937.183
166.950	12.849	1234.285	936.619
167.964	12.860	1233.464	935.978
168.979	12.846	1232.859	935.354
169.994	12.905	1231.941	934.909
171.008	12.923	1230.856	934.108
172.023	13.078	1229.825	934.116
173.037	13.042	1229.627	933.682
174.052	13.065	1228.389	932.787
175.067	13.002	1226.997	931.291
176.081	13.003	1226.244	930.647
177.096	13.037	1225.152	929.925
178.110	12.915	1224.603	928.741
179.125	12.947	1223.130	927.719
180.140	12.983	1222.057	927.025
181.154	12.948	1220.916	925.882
182.169	13.047	1219.643	925.393
183.183	13.016	1218.906	924.578
184.198	13.219	1216.806	924.037
185.213	13.024	1216.312	922.489
186.227	13.115	1215.480	922.283
187.242	13.245	1213.639	921.533
188.256	13.163	1213.501	920.885
189.271	13.263	1212.148	920.337
190.286	13.099	1211.038	918.502
191.300	12.968	1210.454	917.249
192.315	12.840	1209.672	915.861
193.329	12.888	1209.054	915.578
194.344	12.986	1208.238	915.425
195.359	13.029	1207.701	915.176
196.373	13.148	1206.972	915.202
197.388	13.235	1206.644	915.353
198.402	13.302	1206.315	915.394
199.417	13.387	1205.640	915.271
200.432	13.493	1204.200	914.680
201.446	13.349	1204.100	913.728
202.461	13.413	1202.961	913.140
203.475	13.458	1202.115	912.662
204.490	13.332	1200.972	911.020
205.504	13.367	1199.415	909.951
206.519	13.431	1198.156	909.269
207.534	13.330	1197.126	907.852
208.548	13.312	1196.506	907.204
209.563	13.362	1195.310	906.488
210.577	13.339	1194.739	905.848
211.592	13.489	1193.843	905.913
212.607	13.539	1192.768	905.289
213.621	13.513	1192.031	904.506
214.636	13.523	1191.139	903.803
215.650	13.573	1190.289	903.355
216.665	13.591	1189.435	902.720
217.680	13.615	1188.290	901.904
218.694	13.675	1187.413	901.482
219.709	13.642	1187.108	900.996
220.723	13.672	1186.195	900.385
221.738	13.591	1185.448	899.297
222.753	13.747	1184.126	899.059
223.767	13.593	1184.337	898.309
224.782	13.731	1183.380	898.247
225.796	13.734	1182.877	897.806
226.811	13.771	1181.819	897.120
227.826	13.817	1181.421	896.986
228.840	13.616	1180.387	895.037
229.855	13.598	1179.899	894.491
230.869	13.711	1178.932	894.291
231.884	13.727	1177.894	893.510
232.899	13.692	1177.141	892.673
233.913	13.595	1176.932	891.913
234.928	13.717	1175.334	891.277
235.942	13.572	1174.880	890.072
236.957	13.607	1173.757	889.333
237.972	13.604	1173.385	888.955
238.986	13.768	1172.257	888.899
240.001	13.684	1172.165	888.304
241.015	13.641	1171.223	887.281
242.030	13.782	1170.144	887.138
243.045	13.794	1168.823	886.124
244.059	13.778	1168.427	885.657
245.074	13.863	1168.030	885.734
246.088	13.852	1167.123	884.911
247.103	13.845	1166.709	884.479
248.117	13.942	1165.796	884.225
249.132	13.987	1165.050	883.822
250.147	14.117	1164.561	884.064
251.161	14.216	1163.659	883.824
252.176	14.143	1163.013	882.868
253.190	14.277	1162.142	882.843
254.205	14.239	1161.939	882.405
255.220	14.308	1161.124	882.077
256.234	14.342	1160.646	881.811
257.249	14.314	1159.900	881.023
258.263	14.321	1159.258	880.492
259.278	14.306	1158.994	880.136
260.293	14.313	1158.077	879.396
261.307	14.346	1157.952	879.400
262.322	14.358	1156.714	878.445
263.336	14.441	1156.272	878.466
264.351	14.337	1156.094	877.705
265.366	14.446	1155.081	877.436
266.380	14.490	1154.292	876.990
267.395	14.413	1153.629	876.000
268.409	14.414	1152.778	875.284
269.424	14.315	1152.184	874.237
270.439	14.275	1151.668	873.559
271.453	14.415	1150.497	873.324
272.468	14.474	1149.432	872.746
273.482	14.337	1149.034	871.653
274.497	14.423	1148.153	871.354
275.512	14.489	1147.125	870.843
276.526	14.413	1146.556	869.937
277.541	14.453	1145.643	869.377
278.555	14.400	1145.195	868.687
279.570	14.561	1144.461	868.887
280.585	14.613	1143.877	868.638
281.599	14.567	1142.798	867.503
282.614	14.581	1141.847	866.778
283.628	14.432	1140.606	864.987
284.643	14.513	1140.063	864.917
285.657	14.614	1139.071	864.614
286.672	14.583	1137.860	863.455
287.687	14.620	1137.119	863.007
288.701	14.523	1136.542	861.991
289.716	14.584	1135.714	861.606
290.730	14.686	1135.001	861.511
291.745	14.682	1134.229	860.828
292.760	14.722	1133.657	860.528
293.774	14.819	1132.900	860.377
294.789	14.805	1132.876	860.206
295.803	14.871	1131.701	859.579
296.818	14.757	1131.135	858.488
297.833	14.683	1130.555	857.593
298.847	14.737	1129.581	857.055
299.862	14.730	1128.739	856.304
300.876	14.754	1128.322	856.031
301.891	14.782	1127.621	855.572
302.906	14.825	1126.789	855.083
303.920	14.880	1126.314	854.926
304.935	14.945	1125.504	854.567
305.949	15.030	1124.773	854.371
306.964	15.088	1123.911	853.937
307.979	15.066	1123.219	853.226
308.993	14.999	1122.572	852.316
310.008	15.010	1121.285	851.319
311.022	15.043	1121.276	851.405
312.037	15.122	1120.116	850.852
313.052	15.039	1119.451	849.848
314.066	14.999	1118.159	848.590
315.081	14.929	1117.247	847.467
316.095	14.924	1116.802	847.028
317.110	14.995	1115.813	846.567
318.125	14.933	1115.551	845.975
319.139	14.931	1114.720	845.262
320.154	14.954	1113.976	844.738
321.168	14.964	1113.268	844.178
322.183	15.010	1112.630	843.854
323.197	15.032	1112.221	843.577
324.212	15.011	1111.505	842.856
325.227	14.969	1111.285	842.400
326.241	15.104	1110.529	842.431
327.256	14.976	1109.738	841.116
328.270	14.995	1108.868	840.477
329.285	15.054	1108.061	840.084
330.300	14.984	1106.933	838.805
331.314	15.043	1106.134	838.423
332.329	15.164	1104.804	837.947
333.343	15.120	1104.209	837.201
334.358	15.235	1103.388	837.078
335.373	15.227	1102.261	836.108
336.387	15.192	1101.869	835.564
337.402	15.195	1101.515	835.237
338.416	15.226	1100.629	834.641
339.431	15.255	1099.864	834.134
340.446	15.452	1099.134	834.488
341.460	15.439	1098.682	834.003
342.475	15.539	1097.770	833.736
343.489	15.443	1097.048	832.638
344.504	15.510	1095.906	832.030
345.519	15.517	1095.273	831.508
346.533	15.547	1094.588	831.061
347.548	15.639	1093.552	830.658
348.562	15.613	1092.615	829.743
349.577	15.600	1092.291	829.360
350.592	15.398	1091.263	827.509
351.606	15.555	1090.392	827.550
352.621	15.507	1089.734	826.743
353.635	15.496	1089.065	826.109
354.650	15.401	1088.623	825.234
355.665	15.495	1087.266	824.590
356.679	15.567	1086.798	824.516
357.694	15.534	1086.504	824.058
358.708	15.491	1086.028	823.412
359.723	15.546	1085.348	823.093
360.738	15.663	1084.120	822.666
361.752	15.668	1083.717	822.310
362.767	15.662	1083.093	821.735
363.781	15.628	1083.038	821.452
364.796	15.750	1082.467	821.544
365.810	15.786	1081.835	821.167
366.825	15.844	1081.134	820.843
367.840	15.883	1080.434	820.429
368.854	15.960	1079.701	820.178
369.869	16.005	1078.725	819.582
370.883	16.009	1077.960	818.947
371.898	15.935	1077.267	817.990
372.913	15.999	1076.734	817.822
373.927	15.945	1076.268	817.136
374.942	15.979	1075.822	816.886
375.956	15.949	1075.638	816.530
376.971	15.970	1074.824	815.941
377.986	16.071	1074.254	815.924
379.000	16.012	1074.057	815.421
380.015	16.119	1073.414	815.375
381.029	16.106	1072.528	814.568
382.044	16.150	1071.920	814.248
383.059	16.126	1070.845	813.243
384.073	16.133	1070.278	812.772
385.088	16.182	1069.046	812.002
386.102	16.076	1068.463	810.975
387.117	16.138	1067.628	810.570
388.132	16.113	1066.617	809.612
389.146	16.082	1065.430	808.488
390.161	16.094	1064.792	807.992
391.175	16.165	1064.371	807.940
392.190	16.207	1063.760	807.604
393.205	16.195	1062.932	806.849
394.219	16.183	1062.587	806.456
395.234	16.240	1061.323	805.699
396.248	16.153	1060.480	804.573
397.263	16.172	1059.348	803.734
398.278	16.148	1058.625	802.998
399.292	16.084	1058.279	802.359
400.307	16.155	1057.144	801.766
401.321	16.090	1056.483	800.886
402.336	16.093	1055.932	800.413
403.350	16.171	1055.564	800.434
404.365	16.151	1054.603	799.538
405.380	16.273	1053.934	799.540
406.394	16.230	1053.327	798.804
407.409	16.414	1052.354	798.865
408.423	16.468	1051.380	798.311
409.438	16.426	1050.927	797.698
410.453	16.480	1050.513	797.566
411.467	16.549	1049.921	797.374
412.482	16.600	1048.768	796.667
413.496	16.538	1048.248	795.911
414.511	16.572	1047.826	795.679
415.526	16.633	1047.555	795.689
416.540	16.655	1047.303	795.530
417.555	16.672	1046.458	794.900
418.569	16.712	1046.244	794.855
419.584	16.733	1045.372	794.218
420.599	16.681	1044.907	793.552
421.613	90.087	1303.280	1398.815
422.628	82.712	1340.951	1398.945
