DTS Sentinel unit serial number:	SN413079Multiplexer serial number:	ORYXHardware model number:	OX4-SRSoftware version number:	ORYX F/W v4.00 Oryx Data Collector v3.7.2.0data status	okinstallation	princeton_trtdifferential loss correction	single-endedforward channel	channel 2reverse channel	N/Adate	2019/09/13time	19:51:35forward acquisition time	60.00reverse acquisition time	0.00gamma	496.2192k internal	0.2332k external	0.2332temperature offset calibration	1.0137default loss term (dB/km)	0.3790temperature slope calibration	1.0000multiplexer offset coefficient	1.0000multiplexer slope coefficient	1.0000fibre end	0.00T internal ref (°C)	30.03T ext. ref 1 (°C)	3.31T ext. ref 2 (°C)	24.21length (m)	temperature (°C)	Stokes	anti-Stokes-747.200	-173.312	0.186	-0.006
-746.185	612.179	0.026	-0.067
-745.171	800.000	-0.051	-0.151
-744.156	-15.518	-0.036	-0.023
-743.142	-129.444	-0.023	-0.003
-742.127	800.000	-0.040	0.125
-741.112	800.000	0.102	0.332
-740.098	15.839	0.217	0.172
-739.083	-200.000	-0.012	-0.059
-738.069	132.440	-0.219	0.284
-737.054	184.673	-0.093	0.138
-736.039	-66.770	-0.488	0.194
-735.025	800.000	-0.064	-0.179
-734.010	-19.949	-0.259	-0.161
-732.996	60.375	-0.304	0.303
-731.981	800.000	-0.059	0.254
-730.966	-161.858	0.342	0.017
-729.952	110.744	-0.160	-0.194
-728.937	171.132	-0.215	-0.310
-727.923	88.236	-0.100	0.112
-726.908	-200.000	0.006	-0.131
-725.894	-130.153	-0.086	0.012
-724.879	800.000	0.034	0.129
-723.864	-200.000	0.099	-0.626
-722.850	-200.000	-0.053	-0.353
-721.835	-76.113	0.146	-0.052
-720.821	142.975	0.161	-0.215
-719.806	-33.139	-0.296	-0.165
-718.791	-17.255	0.160	-0.101
-717.777	-14.244	-0.054	-0.035
-716.762	536.969	-0.027	0.065
-715.748	160.552	-0.176	0.247
-714.733	-82.822	0.050	-0.016
-713.718	-200.000	-0.050	0.325
-712.704	-149.210	-0.309	0.025
-711.689	-21.171	-0.381	-0.234
-710.675	-58.444	0.207	0.091
-709.660	-39.909	-0.047	-0.025
-708.645	73.444	-0.161	-0.169
-707.631	770.630	-0.011	0.031
-706.616	197.964	-0.180	-0.277
-705.602	291.754	0.188	0.344
-704.587	800.000	0.044	-0.151
-703.572	725.498	0.152	0.408
-702.558	179.613	-0.257	0.378
-701.543	30.074	-0.132	0.113
-700.529	574.762	-0.084	-0.206
-699.514	-101.269	-0.234	0.057
-698.499	5.947	0.140	0.104
-697.485	553.337	0.009	-0.023
-696.470	-200.000	-0.050	-0.288
-695.456	234.332	0.065	0.108
-694.441	498.210	0.046	-0.107
-693.426	800.000	-0.081	-0.248
-692.412	86.208	0.069	-0.077
-691.397	-18.151	0.333	0.209
-690.383	-200.000	0.035	0.250
-689.368	-102.734	-0.215	0.051
-688.354	800.000	0.017	-0.053
-687.339	-200.000	0.017	-0.175
-686.324	-109.338	0.161	-0.034
-685.310	-54.780	0.032	-0.014
-684.295	-200.000	-0.014	-0.065
-683.281	800.000	-0.052	0.211
-682.266	800.000	-0.022	-0.066
-681.251	71.330	0.179	0.187
-680.237	800.000	0.063	0.224
-679.222	71.122	0.108	-0.112
-678.208	-200.000	0.034	-0.448
-677.193	-200.000	-0.039	-0.474
-676.178	-30.761	-0.086	0.049
-675.164	-135.245	-0.372	-0.045
-674.149	-18.339	-0.268	-0.168
-673.135	-200.000	0.012	0.148
-672.120	132.890	-0.142	0.184
-671.105	467.468	0.181	-0.408
-670.091	-35.915	0.127	0.069
-669.076	-101.836	-0.082	-0.020
-668.062	142.049	-0.211	-0.280
-667.047	-101.471	0.195	-0.048
-666.032	115.696	0.208	-0.256
-665.018	-168.445	-0.271	0.010
-664.003	-200.000	0.012	0.116
-662.989	323.724	0.089	-0.170
-661.974	-67.401	0.086	0.034
-660.959	212.362	-0.169	0.267
-659.945	-147.117	0.124	0.011
-658.930	518.925	-0.097	-0.228
-657.916	-58.972	0.149	-0.064
-656.901	16.106	-0.084	0.066
-655.886	-6.475	-0.082	-0.056
-654.872	-200.000	0.005	0.036
-653.857	-156.613	-0.225	-0.014
-652.843	800.000	-0.124	0.465
-651.828	-25.812	0.202	-0.119
-650.814	-183.571	0.467	0.008
-649.799	-200.000	-0.002	-0.057
-648.784	21.067	0.192	0.156
-647.770	-60.086	-0.420	-0.180
-646.755	-200.000	0.006	-0.138
-645.741	156.630	0.135	-0.187
-644.726	2.004	-0.185	-0.134
-643.711	87.884	0.165	-0.183
-642.697	110.420	-0.262	0.315
-641.682	800.000	-0.080	0.330
-640.668	288.351	0.058	0.106
-639.653	-36.036	-0.390	-0.211
-638.638	139.528	0.094	-0.124
-637.624	-143.121	0.104	0.010
-636.609	-200.000	-0.018	-0.155
-635.595	-53.094	0.343	-0.158
-634.580	-200.000	0.041	-0.187
-633.565	-96.557	-0.297	0.078
-632.551	-101.349	-0.312	0.076
-631.536	437.228	-0.047	-0.103
-630.522	97.767	0.355	0.409
-629.507	-95.788	0.379	-0.101
-628.492	159.128	-0.106	0.148
-627.478	-15.793	-0.279	0.178
-626.463	778.613	-0.021	0.059
-625.449	535.624	0.093	0.221
-624.434	-200.000	0.022	-0.250
-623.419	-28.650	0.039	-0.022
-622.405	4.626	0.171	-0.125
-621.390	-200.000	0.002	-0.183
-620.376	35.788	0.278	-0.245
-619.361	-114.480	-0.232	-0.045
-618.346	40.840	0.127	0.115
-617.332	-5.958	-0.301	-0.206
-616.317	-200.000	0.065	-0.435
-615.303	-200.000	0.011	-0.268
-614.288	800.000	-0.065	-0.250
-613.273	-144.066	0.263	0.025
-612.259	429.089	-0.104	-0.226
-611.244	-200.000	-0.012	0.143
-610.230	112.257	0.098	-0.119
-609.215	291.761	0.132	0.241
-608.201	800.000	0.054	0.160
-607.186	-200.000	-0.018	-0.371
-606.171	447.125	0.030	-0.065
-605.157	-200.000	0.037	-0.260
-604.142	-97.329	-0.364	0.095
-603.128	611.436	-0.067	-0.169
-602.113	-200.000	0.066	-0.332
-601.098	85.821	0.116	-0.128
-600.084	226.824	-0.042	0.069
-599.069	237.255	0.017	-0.028
-598.055	-36.888	-0.135	-0.072
-597.040	-46.679	0.164	-0.080
-596.025	-104.720	-0.219	0.050
-595.011	-7.463	-0.136	-0.092
-593.996	-200.000	-0.040	0.355
-592.982	700.674	0.042	0.110
-591.967	-50.392	0.322	-0.152
-590.952	-72.598	0.152	0.056
-589.938	-122.619	0.250	-0.041
-588.923	-49.013	0.179	-0.086
-587.909	-105.069	-0.191	-0.044
-586.894	371.363	-0.094	0.190
-585.879	-53.114	-0.386	-0.177
-584.865	-89.226	0.266	-0.078
-583.850	484.387	-0.077	0.176
-582.836	800.000	-0.031	-0.089
-581.821	800.000	0.044	-0.161
-580.806	289.891	-0.074	-0.134
-579.792	-11.731	-0.142	0.093
-578.777	161.852	-0.242	0.339
-577.763	21.015	0.052	0.042
-576.748	282.890	-0.107	0.191
-575.733	-200.000	-0.346	-0.001
-574.719	118.275	0.228	-0.282
-573.704	-143.515	-0.252	-0.024
-572.690	-154.079	-0.447	0.030
-571.675	-99.732	-0.309	0.077
-570.661	-152.435	0.284	0.020
-569.646	288.303	-0.114	0.207
-568.631	326.223	0.120	-0.230
-567.617	-143.515	-0.136	0.013
-566.602	-4.696	0.033	0.023
-565.588	174.686	0.165	0.239
-564.573	-15.456	-0.209	-0.133
-563.558	83.659	-0.139	-0.151
-562.544	800.000	0.139	0.396
-561.529	800.000	-0.088	0.284
-560.515	87.760	-0.173	0.191
-559.500	-7.821	-0.232	0.156
-558.485	-200.000	0.005	-0.173
-557.471	-120.508	0.178	-0.030
-556.456	-200.000	-0.007	0.247
-555.442	163.520	0.137	-0.193
-554.427	-72.543	0.082	0.030
-553.412	158.665	0.088	-0.122
-552.398	231.484	0.133	0.217
-551.383	800.000	-0.032	0.130
-550.369	-200.000	-0.022	-0.355
-549.354	-128.831	-0.240	0.034
-548.339	-165.183	-0.126	0.006
-547.325	78.350	-0.074	-0.079
-546.310	234.585	-0.152	-0.251
-545.296	174.400	0.119	0.172
-544.281	-88.556	0.222	-0.066
-543.266	-200.000	0.046	0.319
-542.252	35.027	0.275	0.240
-541.237	-56.327	-0.239	0.106
-540.223	-123.896	0.310	-0.049
-539.208	131.636	0.199	0.255
-538.193	-17.275	-0.077	0.048
-537.179	-200.000	-0.001	0.065
-536.164	-73.655	0.122	-0.044
-535.150	-50.485	-0.161	-0.076
-534.135	259.645	0.063	0.109
-533.121	330.545	-0.017	0.034
-532.106	-81.018	0.248	-0.082
-531.091	800.000	-0.076	-0.247
-530.077	208.391	-0.164	-0.257
-529.062	53.294	-0.220	-0.210
-528.048	102.209	0.123	0.143
-527.033	8.514	0.291	-0.218
-526.018	-85.583	0.476	0.148
-525.004	-69.885	0.128	0.049
-523.989	615.175	-0.153	0.383
-522.975	-69.408	0.253	-0.097
-521.960	-200.000	-0.018	-0.235
-520.945	-39.596	0.139	0.072
-519.931	96.348	-0.034	0.039
-518.916	336.207	-0.099	0.193
-517.902	474.810	0.055	-0.123
-516.887	-22.139	-0.111	0.067
-515.872	800.000	0.024	0.075
-514.858	-200.000	-0.037	0.221
-513.843	-66.442	0.289	-0.115
-512.829	221.782	-0.170	0.273
-511.814	-122.838	-0.284	-0.046
-510.799	175.871	-0.072	0.104
-509.785	-91.245	-0.175	-0.050
-508.770	-65.292	-0.637	-0.256
-507.756	611.742	-0.100	-0.248
-506.741	-44.555	-0.064	-0.032
-505.726	419.069	0.068	-0.145
-504.712	-171.388	-0.444	-0.015
-503.697	-132.451	0.252	-0.032
-502.683	-200.000	-0.015	-0.188
-501.668	-200.000	-0.014	-0.155
-500.653	275.765	0.169	0.299
-499.639	85.516	0.167	0.183
-498.624	800.000	0.069	0.232
-497.610	46.235	0.186	0.172
-496.595	114.661	-0.172	0.209
-495.581	-178.929	-0.379	0.009
-494.566	-161.938	-0.090	-0.005
-493.551	800.000	0.096	-0.267
-492.537	-142.806	-0.246	-0.024
-491.522	389.169	0.182	0.375
-490.508	143.650	-0.041	-0.054
-489.493	99.063	0.225	-0.259
-488.478	-40.568	0.348	-0.180
-487.464	-200.000	0.021	0.184
-486.449	-51.906	-0.286	-0.132
-485.435	-113.050	-0.238	-0.047
-484.420	-149.794	0.460	0.036
-483.405	-37.408	0.056	-0.030
-482.391	-111.099	0.159	0.033
-481.376	314.031	-0.044	-0.082
-480.362	800.000	0.049	0.161
-479.347	800.000	-0.089	0.349
-478.332	357.228	-0.044	0.087
-477.318	-17.018	0.194	-0.122
-476.303	-92.404	0.181	0.051
-475.289	76.162	0.277	0.292
-474.274	21.674	-0.159	-0.129
-473.259	-2.735	-0.117	-0.081
-472.245	234.615	-0.118	-0.193
-471.230	-200.000	-0.010	-0.136
-470.216	559.139	-0.193	-0.463
-469.201	36.397	-0.197	0.173
-468.186	51.618	0.099	0.094
-467.172	110.744	0.269	0.322
-466.157	-104.560	0.160	-0.037
-465.143	193.270	0.289	-0.435
-464.128	-66.016	0.288	-0.114
-463.113	-151.956	-0.240	-0.017
-462.099	-104.658	0.096	-0.022
-461.084	-200.000	-0.032	-0.439
-460.070	800.000	0.122	0.369
-459.055	136.184	-0.135	0.175
-458.040	57.791	-0.123	-0.119
-457.026	-112.543	-0.228	0.045
-456.011	608.130	-0.133	-0.329
-454.997	-37.432	-0.122	0.065
-453.982	-7.643	0.148	-0.100
-452.968	800.000	0.128	-0.393
-451.953	20.642	0.362	-0.292
-450.938	-76.401	-0.219	0.077
-449.924	-28.039	-0.104	0.060
-448.909	-165.565	-0.331	0.014
-447.895	-200.000	0.025	0.351
-446.880	62.493	-0.156	-0.155
-445.865	760.604	-0.083	-0.225
-444.851	160.335	-0.199	-0.276
-443.836	-161.370	-0.065	-0.003
-442.822	-200.000	-0.007	0.114
-441.807	-200.000	0.000	-0.294
-440.792	52.545	-0.081	0.077
-439.778	292.364	0.052	-0.094
-438.763	50.480	-0.135	0.127
-437.749	12.561	0.217	-0.167
-436.734	800.000	-0.070	0.220
-435.719	-150.393	0.242	-0.018
-434.705	-200.000	0.000	0.032
-433.690	174.699	-0.124	0.179
-432.676	313.999	-0.221	-0.414
-431.661	37.423	0.166	0.146
-430.646	1.157	0.211	0.150
-429.632	800.000	-0.049	-0.143
-428.617	102.718	0.122	0.142
-427.603	32.228	-0.008	-0.007
-426.588	-126.344	0.180	-0.027
-425.573	63.619	-0.215	0.214
-424.559	70.788	-0.131	0.135
-423.544	-140.013	-0.282	0.030
-422.530	-60.387	0.028	-0.012
-421.515	800.000	-0.089	-0.304
-420.500	-200.000	-0.018	0.122
-419.486	800.000	0.031	-0.117
-418.471	44.652	-0.229	0.209
-417.457	10.959	-0.116	0.088
-416.442	800.000	-0.060	0.214
-415.428	26.068	-0.270	-0.224
-414.413	645.656	0.190	0.481
-413.398	-25.521	0.141	-0.083
-412.384	-110.507	0.218	0.045
-411.369	800.000	-0.018	-0.061
-410.355	-36.088	-0.275	-0.148
-409.340	-163.600	-0.252	-0.012
-408.325	-61.916	0.088	-0.036
-407.311	-181.232	0.221	0.004
-406.296	-200.000	0.073	0.323
-405.282	104.432	0.199	-0.232
-404.267	132.808	0.067	-0.085
-403.252	47.552	0.122	0.113
-402.238	-200.000	-0.006	0.025
-401.223	800.000	0.041	0.159
-400.209	299.447	-0.112	-0.204
-399.194	-57.352	0.476	-0.208
-398.179	-200.000	-0.023	0.256
-397.165	-71.064	-0.073	-0.027
-396.150	-153.969	0.018	-0.001
-395.136	-84.122	0.257	0.081
-394.121	459.707	-0.074	-0.164
-393.106	-102.911	0.244	0.058
-392.092	50.179	0.156	0.146
-391.077	-8.139	-0.147	-0.098
-390.063	-81.911	0.180	-0.058
-389.048	257.582	0.078	-0.134
-388.033	-200.000	-0.013	-0.128
-387.019	-7.874	-0.256	0.171
-386.004	-104.288	0.193	-0.044
-384.990	612.253	-0.083	0.206
-383.975	-69.426	0.228	-0.087
-382.960	800.000	-0.013	0.039
-381.946	-186.028	-0.410	-0.006
-380.931	-200.000	-0.019	0.137
-379.917	102.003	-0.020	-0.023
-378.902	-112.680	-0.137	-0.027
-377.888	188.288	-0.243	-0.361
-376.873	-200.000	0.166	0.000
-375.858	-200.000	0.010	-0.218
-374.844	-183.808	0.332	-0.006
-373.829	179.673	0.186	0.270
-372.815	559.567	0.107	0.256
-371.800	-200.000	0.005	-0.103
-370.785	-9.534	0.145	0.096
-369.771	-79.163	-0.135	0.045
-368.756	-152.151	0.346	-0.025
-367.742	-200.000	0.015	-0.177
-366.727	-55.932	0.339	-0.150
-365.712	-136.170	0.190	0.022
-364.698	169.000	-0.218	-0.308
-363.683	-26.897	-0.080	0.046
-362.669	-147.205	0.236	-0.020
-361.654	-126.127	0.105	0.016
-360.639	-98.659	-0.088	0.022
-359.625	-31.503	0.406	0.226
-358.610	93.856	0.066	0.074
-357.596	-200.000	-0.026	0.483
-356.581	-177.653	0.323	0.008
-355.566	-13.977	0.138	-0.088
-354.552	800.000	0.092	0.370
-353.537	-141.447	-0.239	0.024
-352.523	43.113	0.076	0.068
-351.508	800.000	-0.176	0.522
-350.493	-111.532	-0.302	0.061
-349.479	-193.108	-0.128	0.001
-348.464	-72.684	0.276	-0.101
-347.450	340.495	-0.105	-0.203
-346.435	-46.311	0.413	0.201
-345.420	800.000	-0.047	0.204
-344.406	-142.545	-0.120	-0.012
-343.391	14.307	0.043	-0.033
-342.377	105.376	-0.074	0.086
-341.362	95.245	-0.175	-0.197
-340.348	-125.231	-0.353	0.053
-339.333	-97.487	0.349	0.090
-338.318	347.814	0.067	-0.130
-337.304	-133.355	-0.129	-0.016
-336.289	-66.634	-0.084	-0.033
-335.275	-200.000	0.011	0.161
-334.260	800.000	0.056	0.153
-333.245	-9.891	0.303	-0.199
-332.231	-39.600	0.146	-0.076
-331.216	6.960	-0.276	0.204
-330.202	-137.807	-0.060	-0.007
-329.187	-200.000	-0.078	0.345
-328.172	434.929	-0.097	0.209
-327.158	-105.627	0.126	-0.028
-326.143	42.605	-0.189	-0.170
-325.129	-11.783	0.398	-0.259
-324.114	-163.496	0.100	-0.005
-323.099	-200.000	0.003	0.111
-322.085	-138.062	-0.260	0.029
-321.070	-28.316	-0.389	0.222
-320.056	-164.739	-0.172	-0.008
-319.041	800.000	0.047	-0.161
-318.026	712.506	0.049	0.130
-317.012	-200.000	-0.014	0.412
-315.997	90.462	0.011	0.012
-314.983	260.942	0.145	0.248
-313.968	-90.852	0.123	0.035
-312.953	-184.344	-0.168	-0.003
-311.939	-200.000	-0.022	-0.102
-310.924	-200.000	-0.062	0.485
-309.910	-200.000	-0.001	0.337
-308.895	-93.829	0.117	-0.032
-307.880	-33.234	-0.136	-0.074
-306.866	427.016	0.033	0.071
-305.851	-200.000	0.052	0.430
-304.837	800.000	0.050	-0.150
-303.822	-200.000	-0.019	0.114
-302.807	-200.000	0.000	0.110
-301.793	139.531	-0.170	-0.221
-300.778	142.040	0.097	-0.127
-299.764	-133.647	-0.344	-0.043
-298.749	-200.000	0.042	-0.475
-297.735	-40.552	0.217	0.112
-296.720	800.000	0.031	-0.107
-295.705	166.800	-0.249	0.349
-294.691	131.794	-0.031	0.040
-293.676	402.741	0.049	0.101
-292.662	-200.000	-0.003	-0.256
-291.647	13.743	0.259	-0.199
-290.632	-11.281	-0.068	0.044
-289.618	-44.275	0.096	-0.048
-288.603	-115.567	-0.057	-0.011
-287.589	90.388	-0.085	-0.094
-286.574	593.091	-0.133	-0.325
-285.559	-200.000	-0.008	-0.214
-284.545	-52.554	0.233	-0.106
-283.530	189.857	0.031	-0.047
-282.516	-69.648	0.053	0.020
-281.501	460.238	-0.137	-0.302
-280.486	0.313	0.162	0.114
-279.472	-200.000	-0.009	0.053
-278.457	-200.000	0.020	-0.107
-277.443	207.971	-0.158	0.244
-276.428	-163.938	0.214	-0.010
-275.413	543.912	-0.192	-0.453
-274.399	-65.975	-0.334	0.132
-273.384	15.088	0.186	0.144
-272.370	-75.796	-0.155	-0.054
-271.355	395.599	-0.101	-0.207
-270.340	-200.000	-0.002	0.051
-269.326	-30.486	0.224	-0.125
-268.311	90.604	0.253	-0.279
-267.297	45.160	0.183	-0.166
-266.282	201.409	0.080	-0.121
-265.267	507.012	0.029	0.065
-264.253	800.000	-0.083	0.330
-263.238	-200.000	0.053	0.510
-262.224	-15.210	0.143	-0.090
-261.209	251.393	0.090	-0.151
-260.195	711.121	0.063	0.165
-259.180	800.000	-0.107	-0.397
-258.165	-135.157	-0.062	0.007
-257.151	-200.000	0.016	-0.183
-256.136	363.032	-0.015	0.030
-255.122	-200.000	-0.008	0.076
-254.107	205.557	-0.094	-0.145
-253.092	-43.159	-0.234	0.117
-252.078	-105.507	0.270	-0.060
-251.063	303.932	0.043	-0.080
-250.049	175.534	-0.191	-0.273
-249.034	-200.000	0.005	-0.053
-248.019	-174.238	0.069	-0.002
-247.005	160.587	-0.145	0.200
-245.990	-113.019	0.170	0.033
-244.976	-200.000	-0.008	0.111
-243.961	571.507	-0.078	-0.189
-242.946	-3.371	0.064	0.044
-241.932	440.089	-0.186	-0.400
-240.917	-3.127	0.149	0.102
-239.903	-24.245	-0.309	0.182
-238.888	-200.000	0.012	-0.314
-237.873	564.211	0.040	-0.095
-236.859	246.244	-0.129	0.214
-235.844	-104.427	0.326	0.074
-234.830	-47.258	0.219	-0.105
-233.815	227.969	-0.051	-0.083
-232.800	56.238	-0.097	0.093
-231.786	-200.000	-0.093	0.401
-230.771	-45.097	0.121	0.059
-229.757	553.533	-0.067	0.159
-228.742	153.907	0.115	0.156
-227.727	-200.000	0.021	0.237
-226.713	-200.000	-0.044	0.272
-225.698	-200.000	0.008	-0.277
-224.684	-45.004	0.112	-0.055
-223.669	160.943	-0.223	0.307
-222.655	446.797	0.077	0.166
-221.640	97.805	0.145	0.165
-220.625	-133.541	-0.279	0.034
-219.611	-51.239	-0.167	-0.077
-218.596	-14.665	-0.102	0.064
-217.582	-91.002	0.323	-0.091
-216.567	-61.199	-0.220	0.092
-215.552	0.048	-0.177	0.124
-214.538	291.418	0.131	-0.235
-213.523	163.833	-0.179	-0.248
-212.509	-165.473	-0.149	0.006
-211.494	32.418	0.171	0.145
-210.479	-118.959	0.196	0.034
-209.465	-104.872	0.230	0.052
-208.450	733.542	-0.047	0.124
-207.436	420.437	-0.016	-0.034
-206.421	-88.959	-0.055	0.016
-205.406	-200.000	0.073	-0.373
-204.392	-200.000	0.008	-0.193
-203.377	-200.000	-0.008	-0.210
-202.363	-200.000	0.019	-0.089
-201.348	-165.648	0.277	0.012
-200.333	-200.000	0.039	-0.336
-199.319	-200.000	-0.008	0.080
-198.304	-200.000	0.030	0.204
-197.290	262.033	0.127	0.217
-196.275	153.933	-0.035	-0.047
-195.260	248.184	0.062	0.103
-194.246	-200.000	-0.053	0.305
-193.231	4.828	-0.215	0.155
-192.217	32.328	-0.273	0.232
-191.202	242.443	-0.098	0.161
-190.187	-18.362	-0.241	-0.148
-189.173	-200.000	-0.085	-0.366
-188.158	-50.101	-0.063	-0.029
-187.144	-101.370	0.180	-0.043
-186.129	4.017	0.223	-0.161
-185.114	-200.000	-0.019	0.327
-184.100	151.033	-0.035	0.047
-183.085	-191.978	-0.254	-0.002
-182.071	-92.348	-0.347	0.096
-181.056	-200.000	-0.010	-0.262
-180.042	143.135	0.127	-0.167
-179.027	-200.000	-0.018	-0.167
-178.012	-32.373	-0.081	-0.044
-176.998	-83.617	-0.342	-0.107
-175.983	-193.749	0.344	0.003
-174.969	-200.000	-0.036	0.190
-173.954	416.952	0.141	0.297
-172.939	0.101	0.101	-0.070
-171.925	-65.678	0.318	0.126
-170.910	204.534	0.053	-0.081
-169.896	-67.090	0.186	-0.072
-168.881	583.913	-0.097	0.234
-167.866	444.238	0.080	-0.172
-166.852	41.934	-0.268	0.239
-165.837	-7.880	0.202	0.134
-164.823	766.041	-0.017	0.046
-163.808	-55.556	0.205	0.091
-162.793	-159.383	-0.346	-0.019
-161.779	-30.383	-0.138	0.077
-160.764	-200.000	-0.017	0.090
-159.750	-112.605	0.221	0.043
-158.735	-200.000	0.035	0.177
-157.720	-115.073	-0.083	-0.016
-156.706	-199.508	0.156	-0.001
-155.691	800.000	-0.060	-0.232
-154.677	-120.629	-0.364	-0.061
-153.662	253.850	-0.093	-0.156
-152.647	327.444	-0.092	-0.173
-151.633	276.492	0.135	-0.236
-150.618	489.257	0.055	0.123
-149.604	-200.000	-0.026	0.216
-148.589	298.574	0.094	0.169
-147.574	-54.067	0.126	-0.056
-146.560	-200.000	0.041	-0.205
-145.545	228.958	0.124	-0.198
-144.531	-144.660	-0.230	-0.021
-143.516	150.686	-0.115	0.153
-142.502	-200.000	-0.001	0.033
-141.487	-200.000	-0.012	0.158
-140.472	-11.403	-0.043	-0.028
-139.458	-7.332	0.186	0.124
-138.443	296.618	-0.162	0.293
-137.429	-88.936	0.250	-0.073
-136.414	50.165	0.265	0.246
-135.399	302.140	0.093	0.170
-134.385	-200.000	-0.004	0.254
-133.370	93.465	0.295	-0.328
-132.356	-135.703	0.338	0.039
-131.341	-121.646	0.077	0.013
-130.326	-200.000	0.012	0.144
-129.312	348.510	0.180	0.349
-128.297	-36.103	0.212	0.113
-127.283	97.853	-0.202	0.228
-126.268	-200.000	0.006	0.174
-125.253	31.945	0.117	0.099
-124.239	2.212	-0.116	0.083
-123.224	-200.000	0.002	0.260
-122.210	339.966	0.039	0.074
-121.195	-124.787	-0.097	-0.015
-120.180	-200.000	0.009	0.086
-119.166	68.247	0.213	0.214
-118.151	-81.558	-0.327	-0.105
-117.137	-112.631	0.201	0.039
-116.122	776.845	0.081	0.217
-115.107	-91.988	0.071	-0.020
-114.093	321.853	0.019	-0.036
-113.078	800.000	-0.041	0.140
-112.064	145.341	0.103	-0.135
-111.049	-200.000	-0.000	0.265
-110.034	-200.000	-0.008	0.157
-109.020	-145.157	-0.276	-0.025
-108.005	-89.812	-0.351	0.101
-106.991	-200.000	0.002	0.188
-105.976	-178.890	0.224	0.005
-104.962	616.357	-0.030	-0.073
-103.947	-186.495	0.321	-0.005
-102.932	-200.000	0.029	-0.156
-101.918	-200.000	-0.024	-0.285
-100.903	-132.476	-0.207	-0.026
-99.889	-200.000	-0.036	-0.246
-98.874	800.000	-0.059	-0.181
-97.859	-134.684	0.065	0.008
-96.845	-200.000	-0.051	0.242
-95.830	167.707	-0.146	-0.203
-94.816	-33.800	-0.383	-0.207
-93.801	-1.072	-0.231	0.160
-92.786	-4.279	-0.137	0.093
-91.772	127.775	0.102	0.127
-90.757	800.000	-0.084	0.261
-89.743	243.135	0.043	-0.070
-88.728	-200.000	-0.003	0.197
-87.713	-102.953	-0.178	-0.041
-86.699	-134.236	0.219	0.026
-85.684	791.295	-0.023	0.062
-84.670	-97.551	0.114	0.029
-83.655	336.925	-0.084	0.159
-82.640	-103.055	-0.143	-0.033
-81.626	-12.440	-0.053	-0.034
-80.611	134.792	0.072	0.091
-79.597	145.876	0.256	0.337
-78.582	-102.695	-0.176	-0.041
-77.567	-94.750	-0.416	0.111
-76.553	-65.705	-0.070	-0.028
-75.538	-111.327	0.115	0.023
-74.524	-166.160	-0.038	-0.002
-73.509	-71.785	0.302	-0.110
-72.494	-166.384	0.435	-0.018
-71.480	-138.671	-0.161	-0.017
-70.465	189.427	-0.243	-0.356
-69.451	170.938	0.227	0.319
-68.436	-133.083	-0.244	0.030
-67.422	-5.693	0.087	-0.058
-66.407	-200.000	0.032	-0.263
-65.392	-12.405	0.119	0.076
-64.378	-200.000	0.039	0.261
-63.363	23.578	0.175	0.141
-62.349	32.915	0.031	-0.026
-61.334	264.576	-0.411	-0.701
-60.319	132.240	0.624	0.788
-59.305	155.183	-0.576	-0.776
-58.290	122.465	0.946	1.158
-57.276	604.878	0.668	1.629
-56.261	-200.000	107.667	609.721
-55.246	526.680	1483.836	3424.068
-54.232	180.209	2676.384	3843.922
-53.217	106.217	2279.083	2643.966
-52.203	39.096	1895.413	1659.856
-51.188	33.333	1686.854	1433.669
-50.173	30.660	1643.673	1377.156
-49.159	49.703	1697.635	1566.153
-48.144	49.974	1712.700	1582.022
-47.130	32.859	1670.040	1415.597
-46.115	30.145	1655.680	1383.154
-45.100	30.039	1651.214	1378.581
-44.086	29.950	1648.393	1375.506
-43.071	29.940	1645.963	1373.352
-42.057	29.908	1643.557	1371.051
-41.042	29.877	1641.562	1369.099
-40.027	30.028	1639.165	1368.166
-39.013	29.958	1637.537	1366.238
-37.998	29.870	1636.271	1364.478
-36.984	29.828	1634.730	1362.824
-35.969	30.026	1633.222	1362.970
-34.954	29.975	1632.121	1361.622
-33.940	30.059	1629.937	1360.365
-32.925	30.066	1627.888	1358.656
-31.911	30.096	1626.344	1357.527
-30.896	30.014	1624.929	1355.692
-29.881	30.030	1622.873	1354.040
-28.867	30.033	1621.111	1352.538
-27.852	29.940	1620.119	1350.978
-26.838	30.066	1618.785	1350.736
-25.823	29.997	1617.250	1348.895
-24.809	30.094	1615.919	1348.439
-23.794	30.105	1614.653	1347.410
-22.779	29.953	1613.196	1345.036
-21.765	29.979	1611.552	1343.800
-20.750	30.105	1609.707	1343.124
-19.736	30.057	1608.586	1341.784
-18.721	30.091	1607.243	1340.858
-17.706	30.075	1605.969	1339.629
-16.692	30.201	1603.796	1338.668
-15.677	30.038	1602.779	1336.591
-14.663	30.129	1601.585	1336.199
-13.648	30.053	1599.784	1334.099
-12.633	30.049	1598.587	1333.017
-11.619	29.977	1597.009	1331.127
-10.604	30.071	1594.988	1330.067
-9.590	30.086	1594.369	1329.605
-8.575	30.075	1593.043	1328.369
-7.560	30.053	1591.854	1327.169
-6.546	30.078	1590.998	1326.579
-5.531	30.081	1589.484	1325.283
-4.517	29.974	1588.646	1323.770
-3.502	30.077	1587.223	1323.271
-2.487	30.094	1585.683	1322.052
-1.473	29.619	1573.352	1308.359
-0.458	26.369	1552.818	1268.466
0.556	23.510	1553.389	1233.757
1.571	20.879	1576.398	1233.323
2.586	20.210	1589.137	1238.399
3.600	17.816	1534.304	1179.042
4.615	10.385	1427.532	1048.948
5.629	4.332	1366.332	966.287
6.644	3.318	1358.957	954.705
7.659	3.240	1358.144	953.565
8.673	3.326	1356.739	953.023
9.688	3.336	1354.974	951.762
10.702	3.389	1352.059	949.960
11.717	6.000	1356.878	969.395
12.731	13.618	1371.338	1027.007
13.746	19.723	1381.146	1072.246
14.761	20.906	1381.806	1080.003
15.775	20.121	1379.668	1073.377
16.790	19.163	1377.095	1065.356
17.804	18.419	1374.697	1058.808
18.819	17.964	1373.552	1055.022
19.834	17.847	1372.635	1053.503
20.848	17.599	1371.892	1051.312
21.863	17.546	1369.989	1049.431
22.877	17.354	1369.321	1047.646
23.892	17.442	1368.167	1047.212
24.907	17.243	1367.666	1045.508
25.921	17.333	1366.518	1045.095
26.936	17.389	1365.683	1044.710
27.950	17.394	1364.822	1043.984
28.965	17.487	1364.028	1043.856
29.980	17.635	1362.839	1043.760
30.994	17.691	1361.371	1042.885
32.009	17.840	1360.478	1043.020
33.023	17.744	1359.247	1041.402
34.038	17.683	1357.842	1039.857
35.053	17.535	1356.612	1037.925
36.067	17.603	1355.062	1037.058
37.082	17.527	1354.759	1036.274
38.096	17.676	1353.484	1036.110
39.111	17.655	1353.030	1035.543
40.126	17.531	1352.165	1034.038
41.140	17.346	1350.599	1031.629
42.155	17.245	1350.072	1030.523
43.169	17.081	1350.406	1029.688
44.184	17.079	1350.040	1029.305
45.199	17.213	1348.998	1029.234
46.213	17.266	1348.997	1029.462
47.228	17.421	1348.135	1029.652
48.242	17.539	1346.755	1029.223
49.257	17.416	1345.809	1027.661
50.271	17.449	1344.086	1026.456
51.286	17.452	1343.044	1025.591
52.301	17.442	1341.450	1024.218
53.315	17.368	1340.144	1022.690
54.330	17.304	1339.023	1021.360
55.344	17.205	1337.933	1019.839
56.359	17.201	1337.325	1019.263
57.374	17.267	1336.428	1018.882
58.388	17.066	1335.618	1016.973
59.403	17.109	1334.986	1016.661
60.417	17.053	1334.579	1015.924
61.432	17.077	1333.250	1014.963
62.447	16.972	1332.571	1013.731
63.461	16.912	1330.612	1011.794
64.476	16.906	1329.945	1011.160
65.490	16.923	1328.720	1010.241
66.505	17.029	1326.896	1009.396
67.520	17.019	1326.041	1008.600
68.534	17.043	1324.891	1007.778
69.549	16.986	1324.095	1006.744
70.563	16.938	1322.999	1005.536
71.578	16.939	1321.586	1004.378
72.593	16.727	1321.023	1002.607
73.607	16.839	1320.107	1002.485
74.622	16.829	1319.341	1001.758
75.636	16.799	1318.954	1001.196
76.651	16.829	1318.185	1000.700
77.666	16.926	1317.813	1000.906
78.680	16.876	1317.587	1000.345
79.695	17.014	1316.315	1000.106
80.709	17.083	1315.797	1000.032
81.724	17.086	1315.363	999.633
82.739	17.163	1314.564	999.390
83.753	17.402	1313.343	999.776
84.768	17.519	1312.725	999.901
85.782	17.614	1311.755	999.635
86.797	17.681	1310.077	998.662
87.812	17.526	1308.829	996.712
88.826	17.466	1308.002	995.645
89.841	17.497	1307.068	995.025
90.855	17.554	1305.767	994.280
91.870	17.620	1305.272	994.200
92.884	17.626	1304.697	993.713
93.899	17.613	1303.845	992.899
94.914	17.771	1302.988	993.077
95.928	17.787	1301.785	992.166
96.943	17.644	1301.136	990.752
97.957	17.578	1300.377	989.703
98.972	17.670	1298.798	988.944
99.987	17.654	1298.191	988.303
101.001	17.683	1296.648	987.209
102.016	17.546	1296.557	986.260
103.030	17.563	1295.569	985.518
104.045	17.633	1294.677	985.159
105.060	17.475	1293.228	983.058
106.074	17.258	1291.691	980.550
107.089	17.083	1290.243	978.353
108.103	17.054	1288.785	976.994
109.118	17.060	1287.374	975.875
110.133	17.075	1286.205	974.991
111.147	17.078	1285.373	974.291
112.162	16.991	1284.271	972.867
113.176	17.134	1282.834	972.511
114.191	17.271	1281.844	972.462
115.206	17.142	1280.848	970.879
116.220	17.151	1279.325	969.692
117.235	17.227	1278.165	969.163
118.249	17.238	1277.391	968.548
119.264	17.024	1276.199	966.343
120.279	16.993	1275.233	965.347
121.293	16.975	1274.144	964.334
122.308	17.002	1272.719	963.327
123.322	16.891	1271.857	961.956
124.337	16.854	1271.097	961.087
125.352	16.939	1269.862	960.553
126.366	16.951	1268.712	959.667
127.381	16.819	1267.866	958.195
128.395	16.826	1266.901	957.417
129.410	16.951	1265.850	957.245
130.424	17.026	1265.149	957.052
131.439	17.088	1264.144	956.561
132.454	17.045	1263.554	955.787
133.468	17.144	1262.433	955.407
134.483	17.143	1262.160	955.114
135.497	17.183	1260.905	954.304
136.512	17.205	1259.400	953.206
137.527	17.164	1258.350	952.093
138.541	17.187	1257.012	951.125
139.556	17.231	1256.334	950.775
140.570	17.344	1254.994	950.311
141.585	17.417	1253.668	949.628
142.600	17.573	1252.509	949.538
143.614	17.604	1251.801	949.089
144.629	17.684	1250.997	948.839
145.643	17.527	1249.826	946.994
146.658	17.532	1248.292	945.773
147.673	17.405	1247.062	944.057
148.687	17.311	1245.465	942.244
149.702	17.204	1244.500	940.839
150.716	17.222	1243.084	939.785
151.731	17.222	1242.259	939.074
152.746	17.260	1240.746	938.059
153.760	17.258	1239.868	937.298
154.775	17.374	1238.838	937.076
155.789	17.500	1237.916	936.993
156.804	17.457	1236.761	935.799
157.819	17.495	1235.843	935.230
158.833	17.635	1234.969	935.254
159.848	17.693	1234.363	935.029
160.862	17.689	1233.170	934.021
161.877	17.389	1231.703	931.184
162.892	17.275	1230.791	929.792
163.906	17.250	1229.510	928.606
164.921	17.457	1228.344	928.772
165.935	17.393	1227.806	927.936
166.950	17.450	1227.670	928.061
167.964	17.557	1226.474	927.656
168.979	17.414	1226.038	926.466
169.994	17.342	1225.100	925.281
171.008	17.439	1224.497	925.275
172.023	17.478	1224.184	925.164
173.037	17.645	1223.549	925.510
174.052	17.803	1221.553	924.778
175.067	17.549	1220.775	922.730
176.081	17.328	1220.295	921.089
177.096	17.418	1218.739	920.321
178.110	17.428	1217.800	919.583
179.125	17.444	1216.677	918.737
180.140	17.538	1215.438	918.231
181.154	17.627	1214.647	918.028
182.169	17.555	1213.722	916.862
183.183	17.729	1212.855	917.061
184.198	17.796	1211.309	916.170
185.213	17.752	1210.341	915.124
186.227	17.819	1209.273	914.595
187.242	17.861	1208.317	914.015
188.256	17.960	1207.085	913.529
189.271	17.976	1206.343	912.973
190.286	17.700	1205.574	910.840
191.300	17.460	1204.155	908.403
192.315	17.280	1203.324	906.736
193.329	17.309	1203.458	906.911
194.344	17.546	1202.440	907.325
195.359	17.508	1202.045	906.744
196.373	17.615	1201.174	906.579
197.388	17.650	1201.508	906.935
198.402	17.908	1201.064	907.893
199.417	18.108	1200.028	908.091
200.432	18.204	1199.428	908.067
201.446	18.258	1198.577	907.632
202.461	18.263	1197.926	907.080
203.475	18.250	1196.804	906.087
204.490	18.077	1195.277	903.934
205.504	17.914	1194.386	902.318
206.519	17.805	1193.142	900.721
207.534	17.914	1191.533	900.002
208.548	17.962	1190.790	899.615
209.563	17.849	1190.155	898.461
210.577	17.861	1189.532	897.972
211.592	18.071	1188.627	898.317
212.607	18.145	1187.730	897.945
213.621	18.084	1187.157	897.115
214.636	18.080	1186.019	896.154
215.650	18.182	1185.021	895.856
216.665	18.236	1184.222	895.454
217.680	18.283	1184.152	895.567
218.694	18.367	1182.671	894.805
219.709	18.165	1182.370	893.446
220.723	18.269	1181.131	892.972
221.738	18.348	1180.325	892.698
222.753	18.203	1180.041	891.645
223.767	18.341	1178.812	891.360
224.782	18.283	1178.663	890.864
225.796	18.443	1178.277	891.327
226.811	18.536	1176.824	890.629
227.826	18.363	1176.131	889.130
228.840	18.285	1175.766	888.369
229.855	18.277	1174.816	887.530
230.869	18.158	1174.169	886.350
231.884	18.138	1173.251	885.473
232.899	18.166	1172.301	884.821
233.913	18.089	1171.913	884.053
234.928	17.940	1170.890	882.435
235.942	18.049	1169.934	882.199
236.957	17.995	1169.407	881.444
237.972	18.189	1168.176	881.436
238.986	18.089	1168.085	880.774
240.001	18.056	1167.426	880.033
241.015	18.143	1166.215	879.486
242.030	18.159	1165.861	879.224
243.045	18.220	1165.041	878.843
244.059	18.292	1164.367	878.626
245.074	18.369	1163.142	878.016
246.088	18.402	1162.370	877.525
247.103	18.455	1162.031	877.465
248.117	18.562	1161.563	877.580
249.132	18.663	1161.066	877.642
250.147	18.828	1160.478	877.964
251.161	18.992	1159.982	878.352
252.176	18.939	1159.084	877.323
253.190	19.027	1158.263	877.072
254.205	19.113	1157.553	876.893
255.220	19.204	1156.938	876.814
256.234	19.099	1156.584	875.935
257.249	19.213	1155.507	875.620
258.263	19.053	1155.230	874.519
259.278	18.979	1154.540	873.544
260.293	19.101	1154.593	874.126
261.307	19.154	1153.783	873.707
262.322	19.169	1153.109	873.194
263.336	19.150	1152.363	872.455
264.351	19.218	1151.633	872.168
265.366	19.299	1150.981	872.006
266.380	19.187	1150.378	870.909
267.395	19.190	1149.166	869.930
268.409	19.107	1148.378	868.839
269.424	19.075	1147.469	867.910
270.439	19.095	1146.720	867.369
271.453	19.025	1145.802	866.244
272.468	18.946	1145.307	865.395
273.482	18.949	1144.050	864.384
274.497	18.923	1143.939	864.094
275.512	19.073	1143.134	864.164
276.526	19.000	1142.303	863.091
277.541	19.019	1141.813	862.739
278.555	19.144	1141.134	862.775
279.570	19.207	1140.654	862.652
280.585	19.300	1139.618	862.260
281.599	19.333	1138.470	861.481
282.614	19.232	1137.731	860.337
283.628	19.079	1136.708	858.726
284.643	18.966	1136.309	857.785
285.657	19.263	1134.644	857.932
286.672	19.165	1133.696	856.649
287.687	19.171	1133.491	856.450
288.701	19.259	1132.676	856.198
289.716	19.185	1131.649	854.976
290.730	19.184	1131.010	854.410
291.745	19.311	1130.241	854.384
292.760	19.211	1130.256	853.826
293.774	19.360	1129.226	853.711
294.789	19.360	1129.062	853.512
295.803	19.460	1128.246	853.311
296.818	19.297	1127.391	851.787
297.833	19.130	1126.487	850.204
298.847	19.243	1125.827	850.189
299.862	19.287	1124.655	849.441
300.876	19.280	1123.983	848.827
301.891	19.386	1123.451	848.870
302.906	19.525	1122.911	849.069
303.920	19.618	1122.237	848.944
304.935	19.586	1122.010	848.541
305.949	19.668	1121.414	848.414
306.964	19.679	1120.878	847.990
307.979	19.599	1119.814	846.716
308.993	19.548	1119.302	846.007
310.008	19.567	1118.419	845.355
311.022	19.682	1117.452	845.112
312.037	19.613	1116.883	844.272
313.052	19.582	1115.622	843.094
314.066	19.465	1114.755	841.792
315.081	19.339	1113.521	840.172
316.095	19.317	1113.087	839.661
317.110	19.358	1112.210	839.124
318.125	19.315	1111.803	838.536
319.139	19.373	1110.987	838.125
320.154	19.321	1110.222	837.221
321.168	19.376	1109.888	837.165
322.183	19.541	1108.860	837.117
323.197	19.444	1108.709	836.455
324.212	19.592	1107.917	836.500
325.227	19.499	1107.636	835.764
326.241	19.541	1106.784	835.252
327.256	19.434	1106.416	834.384
328.270	19.490	1105.162	833.633
329.285	19.540	1104.001	832.924
330.300	19.440	1103.093	831.687
331.314	19.475	1102.286	831.173
332.329	19.550	1101.219	830.655
333.343	19.601	1100.481	830.270
334.358	19.736	1099.999	830.482
335.373	19.674	1099.412	829.668
336.387	19.777	1098.600	829.473
337.402	19.685	1097.914	828.442
338.416	19.967	1097.056	829.073
339.431	20.037	1096.094	828.608
340.446	19.955	1096.207	828.226
341.460	20.055	1095.604	828.176
342.475	20.153	1094.280	827.568
343.489	20.254	1093.772	827.591
344.504	20.247	1093.001	826.903
345.519	20.342	1091.996	826.523
346.533	20.355	1091.428	826.080
347.548	20.328	1090.573	825.234
348.562	20.347	1089.401	824.362
349.577	20.186	1088.833	823.096
350.592	19.992	1088.187	821.613
351.606	19.877	1087.380	820.390
352.621	19.883	1086.480	819.663
353.635	19.816	1085.874	818.820
354.650	19.884	1085.569	818.838
355.665	20.017	1084.585	818.651
356.679	20.016	1084.050	818.171
357.694	20.037	1083.203	817.555
358.708	20.139	1082.470	817.412
359.723	19.999	1082.832	816.955
360.738	20.078	1081.774	816.455
361.752	20.078	1081.451	816.137
362.767	20.204	1080.605	816.020
363.781	20.260	1079.904	815.682
364.796	20.289	1078.930	815.011
365.810	20.507	1078.829	815.887
366.825	20.603	1077.921	815.576
367.840	20.642	1078.254	815.941
368.854	20.701	1077.349	815.458
369.869	20.626	1076.480	814.379
370.883	20.610	1075.650	813.603
371.898	20.418	1074.953	812.107
372.913	20.494	1074.585	812.113
373.927	20.529	1073.892	811.680
374.942	20.621	1073.407	811.672
375.956	20.576	1072.802	810.930
376.971	20.472	1072.261	809.964
377.986	20.574	1071.904	810.102
379.000	20.737	1071.296	810.327
380.015	20.884	1070.419	810.275
381.029	20.895	1069.673	809.691
382.044	20.769	1069.518	808.916
383.059	20.788	1068.266	807.988
384.073	20.842	1067.714	807.748
385.088	20.864	1066.870	807.140
386.102	20.791	1065.786	805.910
387.117	20.691	1065.015	804.793
388.132	20.569	1063.926	803.338
389.146	20.588	1063.053	802.692
390.161	20.536	1062.225	801.757
391.175	20.612	1061.354	801.381
392.190	20.600	1061.109	801.067
393.205	20.741	1060.688	801.328
394.219	20.718	1059.738	800.433
395.234	20.633	1058.528	799.057
396.248	20.794	1057.569	799.005
397.263	20.708	1056.510	797.739
398.278	20.611	1055.885	796.751
399.292	20.521	1054.969	795.580
400.307	20.431	1054.124	794.458
401.321	20.470	1053.725	794.269
402.336	20.460	1053.174	793.733
403.350	20.505	1052.441	793.316
404.365	20.586	1051.701	793.061
405.380	20.682	1050.876	792.806
406.394	20.619	1050.693	792.309
407.409	20.851	1049.969	792.750
408.423	20.907	1049.337	792.458
409.438	21.006	1048.605	792.283
410.453	21.094	1047.853	792.043
411.467	21.048	1047.603	791.578
412.482	21.144	1046.775	791.318
413.496	21.266	1046.119	791.303
414.511	21.296	1045.575	790.957
415.526	21.384	1045.266	791.051
416.540	21.322	1044.875	790.403
417.555	21.272	1044.401	789.749
418.569	21.190	1043.884	788.921
419.584	21.257	1043.175	788.617
420.599	21.191	1042.686	787.882
421.613	155.441	1402.871	1797.318
422.628	142.319	1455.342	1797.429
