DTS Sentinel unit serial number:	SN413079Multiplexer serial number:	ORYXHardware model number:	OX4-SRSoftware version number:	ORYX F/W v4.00 Oryx Data Collector v3.7.2.0data status	okinstallation	princeton_trtdifferential loss correction	single-endedforward channel	channel 2reverse channel	N/Adate	2019/09/15time	00:03:35forward acquisition time	60.00reverse acquisition time	0.00gamma	496.2192k internal	0.2324k external	0.2324temperature offset calibration	1.0043default loss term (dB/km)	0.3790temperature slope calibration	1.0000multiplexer offset coefficient	1.0000multiplexer slope coefficient	1.0000fibre end	0.00T internal ref (°C)	32.20T ext. ref 1 (°C)	4.58T ext. ref 2 (°C)	27.20length (m)	temperature (°C)	Stokes	anti-Stokes-747.200	-86.011	0.048	-0.015
-746.185	-128.590	0.239	-0.034
-745.171	306.649	-0.071	-0.133
-744.156	-96.657	-0.292	-0.078
-743.142	750.817	-0.100	0.274
-742.127	72.234	-0.175	0.184
-741.112	-177.154	-0.336	0.008
-740.098	88.082	-0.063	0.070
-739.083	-170.335	-0.260	0.009
-738.069	800.000	0.116	0.344
-737.054	19.547	0.146	0.118
-736.039	-200.000	-0.024	-0.163
-735.025	-31.430	-0.110	-0.062
-734.010	236.751	0.034	-0.057
-732.996	-31.633	-0.180	0.102
-731.981	32.309	-0.132	0.115
-730.966	299.382	-0.136	-0.253
-729.952	-43.125	-0.173	0.088
-728.937	-100.402	-0.184	-0.046
-727.923	-200.000	0.009	0.245
-726.908	-127.902	-0.342	0.050
-725.894	181.789	-0.161	-0.239
-724.879	800.000	-0.050	-0.193
-723.864	800.000	0.036	-0.107
-722.850	-200.000	-0.182	0.000
-721.835	-30.366	-0.434	0.248
-720.821	199.167	-0.064	-0.098
-719.806	-200.000	0.014	0.097
-718.791	800.000	-0.082	0.233
-717.777	-83.705	-0.239	0.077
-716.762	-89.486	0.280	-0.083
-715.748	-200.000	0.008	-0.294
-714.733	63.169	-0.077	-0.077
-713.718	800.000	-0.070	-0.262
-712.704	-200.000	-0.024	0.132
-711.689	69.815	-0.181	-0.188
-710.675	-144.022	-0.254	0.024
-709.660	-86.310	0.262	-0.081
-708.645	-19.215	-0.238	0.149
-707.631	-200.000	0.028	0.172
-706.616	-200.000	0.030	-0.334
-705.602	800.000	-0.046	-0.191
-704.587	226.362	-0.128	0.210
-703.572	223.386	0.103	-0.167
-702.558	-200.000	0.030	-0.232
-701.543	-17.798	0.260	0.164
-700.529	-2.360	0.121	-0.086
-699.514	80.796	0.057	-0.062
-698.499	-200.000	0.032	-0.188
-697.485	-149.111	-0.230	-0.019
-696.470	-147.416	-0.183	0.016
-695.456	800.000	-0.049	-0.143
-694.441	-64.871	0.288	-0.117
-693.426	-14.962	0.198	-0.128
-692.412	313.069	0.123	-0.232
-691.397	-58.293	-0.435	-0.191
-690.383	-200.000	-0.077	0.502
-689.368	55.357	-0.226	-0.220
-688.354	123.791	0.111	-0.141
-687.339	-92.582	-0.151	0.043
-686.324	-200.000	-0.007	-0.358
-685.310	-200.000	0.012	-0.163
-684.295	170.225	0.106	0.153
-683.281	378.717	0.159	0.327
-682.266	-200.000	0.041	0.228
-681.251	37.331	0.155	-0.139
-680.237	800.000	0.096	-0.368
-679.222	-105.223	-0.249	-0.057
-678.208	-168.168	-0.148	-0.006
-677.193	100.944	0.045	-0.053
-676.178	-100.150	-0.468	-0.117
-675.164	4.414	0.279	-0.206
-674.149	-149.629	0.136	-0.011
-673.135	500.990	-0.086	-0.201
-672.120	-200.000	0.015	0.078
-671.105	-200.000	0.023	-0.137
-670.091	-43.135	0.114	-0.058
-669.076	800.000	-0.027	-0.093
-668.062	133.997	-0.193	-0.251
-667.047	21.900	-0.060	0.049
-666.032	108.384	-0.074	0.089
-665.018	-38.167	-0.043	-0.023
-664.003	-75.846	-0.248	0.088
-662.989	-182.185	0.215	-0.004
-661.974	-200.000	-0.034	-0.189
-660.959	781.624	-0.169	-0.465
-659.945	224.253	-0.133	-0.217
-658.930	50.776	-0.095	0.091
-657.916	186.934	0.055	-0.083
-656.901	-4.984	0.126	-0.088
-655.886	16.963	0.070	-0.056
-654.872	596.824	0.110	0.275
-653.857	-120.014	-0.297	0.051
-652.843	-59.731	0.057	-0.025
-651.828	50.004	0.127	-0.120
-650.814	-200.000	0.010	0.226
-649.799	-62.102	-0.218	-0.091
-648.784	-113.681	-0.274	0.054
-647.770	4.686	-0.307	0.227
-646.755	-62.808	0.222	0.092
-645.741	-200.000	-0.006	0.150
-644.726	406.160	-0.153	-0.325
-643.711	569.497	0.113	-0.276
-642.697	-3.012	0.172	-0.121
-641.682	-69.726	0.274	-0.105
-640.668	191.370	0.089	-0.135
-639.653	-200.000	0.003	0.279
-638.638	106.349	-0.199	0.238
-637.624	-58.971	-0.103	-0.045
-636.609	800.000	0.068	0.201
-635.595	-200.000	0.058	0.400
-634.580	-88.692	0.090	-0.027
-633.565	185.658	0.331	0.495
-632.551	664.026	0.088	-0.229
-631.536	-200.000	0.030	0.200
-630.522	-149.522	-0.096	0.008
-629.507	-78.794	-0.139	0.048
-628.492	-80.026	0.036	0.012
-627.478	-16.458	-0.329	-0.210
-626.463	-79.633	0.106	-0.036
-625.449	259.887	-0.040	0.070
-624.434	-116.414	-0.241	-0.045
-623.419	148.819	-0.099	0.134
-622.405	-200.000	-0.103	-0.000
-621.390	-87.972	-0.175	0.053
-620.376	-200.000	-0.057	0.365
-619.361	460.198	0.225	0.503
-618.346	-200.000	0.005	0.056
-617.332	-56.445	-0.255	0.114
-616.317	80.950	-0.240	0.260
-615.303	-135.912	-0.070	0.008
-614.288	-179.493	-0.205	-0.005
-613.273	-89.420	0.036	0.011
-612.259	118.651	-0.016	0.020
-611.244	800.000	0.111	0.385
-610.230	247.708	0.081	-0.137
-609.215	800.000	-0.055	-0.157
-608.201	248.359	-0.146	0.248
-607.186	-169.383	-0.382	0.014
-606.171	282.200	0.058	0.105
-605.157	262.995	0.134	0.234
-604.142	118.136	-0.022	0.028
-603.128	121.512	0.168	-0.210
-602.113	-200.000	0.053	-0.357
-601.098	138.301	-0.094	0.124
-600.084	-110.943	-0.070	0.014
-599.069	-6.412	0.339	0.232
-598.055	-8.442	0.121	0.081
-597.040	-134.704	-0.281	-0.034
-596.025	800.000	0.026	-0.074
-595.011	-200.000	-0.031	0.211
-593.996	50.519	-0.203	0.193
-592.982	382.200	0.067	0.138
-591.967	366.828	-0.039	0.080
-590.952	-77.219	0.311	0.109
-589.938	77.885	0.205	-0.219
-588.923	-95.333	-0.306	-0.083
-587.909	540.654	0.091	0.218
-586.894	-153.163	0.145	-0.010
-585.879	44.929	-0.213	-0.197
-584.865	-200.000	-0.037	0.349
-583.850	-200.000	0.007	-0.088
-582.836	113.738	-0.039	0.047
-581.821	-200.000	0.028	-0.190
-580.806	-89.804	0.032	-0.009
-579.792	-200.000	-0.004	-0.184
-578.777	-200.000	0.043	-0.253
-577.763	30.581	0.296	0.254
-576.748	-86.742	0.210	-0.064
-575.733	413.087	-0.118	-0.252
-574.719	-147.824	0.097	-0.008
-573.704	150.125	-0.304	-0.414
-572.690	-10.148	-0.138	0.092
-571.675	29.596	-0.192	0.164
-570.661	9.611	0.240	-0.183
-569.646	-92.198	-0.201	-0.057
-568.631	126.630	-0.093	0.118
-567.617	97.725	-0.125	-0.144
-566.602	-200.000	-0.005	-0.155
-565.588	302.155	-0.237	-0.439
-564.573	186.006	0.202	-0.301
-563.558	63.609	0.153	0.154
-562.544	800.000	0.043	0.160
-561.529	53.300	0.236	-0.226
-560.515	93.836	0.227	0.258
-559.500	-111.644	0.186	0.038
-558.485	-101.826	0.070	0.017
-557.471	-200.000	0.011	0.228
-556.456	-5.518	-0.398	-0.273
-555.442	-200.000	0.008	0.218
-554.427	122.153	0.081	0.101
-553.412	800.000	0.020	0.071
-552.398	123.504	-0.201	-0.252
-551.383	-104.169	0.255	-0.059
-550.369	-200.000	0.015	-0.128
-549.354	-200.000	-0.010	0.448
-548.339	-55.908	0.291	-0.130
-547.325	240.064	-0.120	-0.200
-546.310	-200.000	-0.014	0.109
-545.296	-24.739	0.205	-0.122
-544.281	-111.001	-0.311	-0.064
-543.266	223.879	0.056	-0.091
-542.252	41.704	0.267	0.242
-541.237	227.018	-0.051	-0.083
-540.223	-109.235	-0.213	0.045
-539.208	30.913	0.206	-0.176
-538.193	-104.836	-0.193	-0.044
-537.179	800.000	0.046	0.183
-536.164	-145.153	-0.435	-0.040
-535.150	-200.000	0.020	0.120
-534.135	-114.836	-0.410	-0.078
-533.121	120.334	0.224	-0.279
-532.106	-36.473	0.128	0.069
-531.091	-88.499	0.151	-0.045
-530.077	266.727	0.115	0.202
-529.062	-76.230	-0.360	-0.127
-528.048	47.391	-0.143	-0.133
-527.033	-200.000	0.018	0.145
-526.018	-105.789	0.258	0.058
-525.004	-32.450	0.280	0.156
-523.989	-46.849	0.046	-0.023
-522.975	-125.174	-0.298	-0.046
-521.960	-169.152	-0.155	-0.006
-520.945	-185.644	-0.232	0.004
-519.931	118.026	-0.148	-0.183
-518.916	84.985	-0.238	-0.261
-517.902	-41.934	0.103	0.053
-516.887	26.457	-0.306	0.256
-515.872	-117.591	-0.412	0.074
-514.858	44.296	-0.204	0.187
-513.843	122.740	0.312	-0.390
-512.829	-141.276	0.164	-0.017
-511.814	-49.658	-0.236	-0.113
-510.799	476.284	0.066	0.150
-509.785	-78.231	-0.197	-0.068
-508.770	800.000	0.027	0.083
-507.756	650.137	0.107	0.275
-506.741	-39.435	0.180	0.094
-505.726	-61.379	-0.143	0.060
-504.712	-58.360	0.310	-0.135
-503.697	-200.000	-0.061	-0.360
-502.683	174.437	-0.108	-0.155
-501.668	-146.187	0.351	0.031
-500.653	72.448	-0.368	-0.384
-499.639	245.036	-0.172	-0.288
-498.624	800.000	-0.049	-0.157
-497.610	-72.527	-0.089	0.033
-496.595	-113.646	-0.211	-0.041
-495.581	-200.000	0.004	-0.094
-494.566	17.830	-0.171	-0.136
-493.551	800.000	-0.061	0.168
-492.537	37.502	-0.198	0.176
-491.522	800.000	0.103	0.359
-490.508	-76.102	-0.098	0.034
-489.493	-111.805	0.403	0.082
-488.478	-152.652	0.061	-0.004
-487.464	-200.000	0.021	-0.168
-486.449	-200.000	-0.007	-0.331
-485.435	-38.344	0.070	-0.037
-484.420	189.649	-0.122	-0.183
-483.405	214.464	0.079	-0.124
-482.391	-70.438	-0.347	-0.131
-481.376	23.015	-0.153	-0.125
-480.362	66.874	0.167	0.170
-479.347	102.368	0.217	-0.253
-478.332	-62.473	-0.093	-0.039
-477.318	-200.000	0.016	-0.189
-476.303	56.121	0.166	-0.161
-475.289	160.886	0.153	0.214
-474.274	-107.814	0.034	0.007
-473.259	501.055	-0.077	0.177
-472.245	-6.758	-0.227	0.154
-471.230	153.668	0.120	0.164
-470.216	-37.438	0.306	-0.163
-469.201	-200.000	0.094	0.461
-468.186	-200.000	-0.007	0.111
-467.172	-99.346	-0.254	0.064
-466.157	-200.000	0.008	0.046
-465.143	-53.609	-0.102	-0.046
-464.128	-109.827	-0.225	0.047
-463.113	7.039	0.115	0.086
-462.099	-26.953	-0.317	0.185
-461.084	46.082	0.191	0.177
-460.070	-147.993	-0.390	-0.032
-459.055	-78.302	-0.049	-0.017
-458.040	800.000	0.076	0.219
-457.026	-6.385	-0.216	0.147
-456.011	-93.755	0.055	-0.015
-454.997	29.272	0.285	0.241
-453.982	-200.000	0.001	0.201
-452.968	-6.585	0.207	-0.141
-451.953	54.141	-0.102	0.098
-450.938	68.454	0.067	-0.069
-449.924	-81.813	0.131	-0.043
-448.909	-89.917	0.350	-0.102
-447.895	138.117	0.092	0.120
-446.880	-36.446	0.116	-0.062
-445.865	-19.894	-0.082	0.051
-444.851	-42.542	0.219	0.111
-443.836	140.594	-0.098	0.129
-442.822	-200.000	-0.009	-0.082
-441.807	800.000	0.137	0.382
-440.792	800.000	-0.102	-0.363
-439.778	-51.144	-0.268	-0.126
-438.763	151.681	0.100	0.136
-437.749	800.000	0.043	-0.165
-436.734	-200.000	-0.001	-0.129
-435.719	-59.177	0.354	0.152
-434.705	592.683	0.109	0.269
-433.690	317.530	-0.089	0.168
-432.676	37.251	-0.226	-0.200
-431.661	117.737	0.177	0.217
-430.646	-96.847	0.166	-0.044
-429.632	-43.377	0.311	0.157
-428.617	-180.397	-0.315	0.007
-427.603	-4.310	0.219	0.151
-426.588	-200.000	-0.001	0.166
-425.573	-52.965	0.155	-0.071
-424.559	152.271	-0.243	-0.330
-423.544	484.875	-0.107	0.243
-422.530	-200.000	-0.004	-0.130
-421.515	22.721	-0.152	-0.124
-420.500	-200.000	-0.046	0.209
-419.486	38.936	-0.105	-0.094
-418.471	-150.614	0.218	-0.017
-417.457	-200.000	0.087	0.397
-416.442	496.988	-0.097	-0.222
-415.428	220.254	-0.088	0.140
-414.413	800.000	0.039	-0.134
-413.398	-111.822	0.152	-0.031
-412.384	58.068	-0.215	-0.210
-411.369	139.212	0.103	-0.135
-410.355	85.333	-0.292	0.319
-409.340	262.245	-0.039	0.068
-408.325	-72.837	-0.122	-0.045
-407.311	91.795	-0.239	0.268
-406.296	-200.000	0.064	0.297
-405.282	-200.000	-0.008	-0.233
-404.267	-9.006	0.180	0.120
-403.252	124.870	-0.155	-0.194
-402.238	-76.437	0.316	-0.111
-401.223	165.464	0.085	0.119
-400.209	-64.756	-0.219	-0.088
-399.194	-40.757	0.185	-0.095
-398.179	314.371	0.037	-0.069
-397.165	131.760	-0.260	-0.333
-396.150	-114.041	-0.251	-0.048
-395.136	-200.000	-0.055	0.306
-394.121	-70.314	-0.191	-0.072
-393.106	-59.703	-0.190	-0.081
-392.092	142.778	0.108	-0.144
-391.077	-78.514	-0.277	-0.095
-390.063	146.930	-0.142	0.190
-389.048	19.209	-0.231	0.184
-388.033	280.884	-0.100	0.178
-387.019	2.412	-0.277	-0.200
-386.004	-33.634	-0.239	-0.131
-384.990	30.900	-0.141	-0.120
-383.975	-40.248	-0.228	-0.118
-382.960	-200.000	0.079	-0.352
-381.946	-59.702	0.210	0.090
-380.931	-99.158	-0.073	-0.018
-379.917	-151.385	-0.110	-0.008
-378.902	-200.000	0.014	-0.187
-377.888	-200.000	0.038	-0.349
-376.873	-148.127	0.304	0.025
-375.858	-16.395	0.329	0.207
-374.844	-39.438	-0.016	-0.009
-373.829	800.000	0.029	0.087
-372.815	800.000	-0.099	0.318
-371.800	734.585	-0.093	0.247
-370.785	-200.000	-0.002	0.113
-369.771	-134.900	0.378	-0.046
-368.756	-200.000	0.032	0.248
-367.742	800.000	0.060	0.178
-366.727	-200.000	-0.021	0.094
-365.712	-100.138	0.257	-0.064
-364.698	306.804	-0.158	0.293
-363.683	-200.000	0.042	0.266
-362.669	-200.000	-0.044	-0.294
-361.654	-72.841	0.151	0.055
-360.639	-134.306	0.480	-0.059
-359.625	-200.000	0.040	-0.285
-358.610	-57.504	-0.351	-0.153
-357.596	-64.272	0.241	-0.098
-356.581	-76.563	0.379	-0.132
-355.566	-200.000	-0.014	-0.591
-354.552	-103.523	0.359	-0.084
-353.537	738.100	0.030	-0.080
-352.523	800.000	0.043	-0.161
-351.508	339.113	0.087	0.168
-350.493	-65.564	-0.367	0.147
-349.479	246.010	0.173	-0.290
-348.464	-200.000	0.023	0.105
-347.450	144.827	-0.238	0.316
-346.435	-200.000	-0.010	0.381
-345.420	133.838	0.174	0.223
-344.406	38.828	0.151	-0.134
-343.391	18.224	0.067	0.053
-342.377	-125.426	-0.173	-0.026
-341.362	418.623	0.146	0.310
-340.348	78.378	0.168	-0.178
-339.333	-177.818	0.292	0.007
-338.318	-200.000	0.035	0.226
-337.304	127.413	0.031	-0.039
-336.289	427.569	0.140	0.301
-335.275	45.706	-0.122	0.112
-334.260	-200.000	0.042	0.239
-333.245	800.000	0.123	0.364
-332.231	7.082	0.165	0.122
-331.216	-33.654	-0.085	0.047
-330.202	388.160	-0.122	-0.251
-329.187	629.410	0.119	-0.299
-328.172	795.273	-0.033	0.091
-327.158	764.210	-0.088	0.237
-326.143	800.000	0.032	0.091
-325.129	56.686	0.260	-0.252
-324.114	114.493	0.254	-0.307
-323.099	-100.085	0.110	-0.027
-322.085	-48.289	-0.253	-0.121
-321.070	-29.940	0.045	0.025
-320.056	-189.175	0.133	0.002
-319.041	22.391	-0.219	0.178
-318.026	-5.375	-0.265	0.181
-317.012	-153.234	-0.019	0.001
-315.997	-200.000	-0.009	0.096
-314.983	-147.461	-0.703	-0.059
-313.968	343.040	0.121	-0.236
-312.953	800.000	-0.041	-0.170
-311.939	133.845	-0.238	-0.306
-310.924	800.000	-0.054	0.205
-309.910	592.668	0.105	0.256
-308.895	-200.000	0.032	0.252
-307.880	-200.000	0.020	0.088
-306.866	800.000	0.007	-0.023
-305.851	88.919	-0.030	-0.034
-304.837	-157.620	0.313	0.019
-303.822	-200.000	0.036	-0.229
-302.807	205.329	-0.145	0.223
-301.793	-184.864	-0.032	-0.000
-300.778	787.285	-0.054	0.148
-299.764	800.000	0.171	0.581
-298.749	-83.425	-0.272	-0.086
-297.735	-200.000	-0.463	-0.002
-296.720	-200.000	0.054	-0.463
-295.705	-72.108	0.153	-0.056
-294.691	741.803	-0.081	-0.217
-293.676	-200.000	0.007	-0.129
-292.662	-92.677	-0.147	0.041
-291.647	-1.082	0.042	0.030
-290.632	162.320	-0.045	-0.062
-289.618	800.000	0.032	-0.130
-288.603	72.067	-0.269	-0.277
-287.589	-51.367	0.474	-0.220
-286.574	-200.000	-0.015	-0.197
-285.559	-92.875	-0.343	-0.095
-284.545	229.998	0.113	-0.183
-283.530	5.086	0.192	-0.140
-282.516	20.907	0.121	-0.097
-281.501	61.337	-0.177	0.174
-280.486	301.369	0.138	0.253
-279.472	0.468	0.207	0.147
-278.457	96.506	-0.166	-0.188
-277.443	134.246	-0.158	-0.203
-276.428	-200.000	-0.008	0.145
-275.413	800.000	0.059	0.194
-274.399	640.973	0.202	-0.510
-273.384	-120.305	-0.335	-0.057
-272.370	14.379	0.062	0.048
-271.355	47.822	0.225	0.209
-270.340	-79.752	0.164	-0.055
-269.326	49.654	0.144	-0.135
-268.311	-32.047	-0.034	-0.019
-267.297	800.000	-0.023	0.075
-266.282	-128.138	0.193	0.027
-265.267	-200.000	0.003	0.044
-264.253	166.396	0.081	-0.113
-263.238	22.497	0.218	0.176
-262.224	294.199	0.145	0.263
-261.209	112.414	-0.053	0.063
-260.195	139.711	-0.155	-0.203
-259.180	-121.867	0.183	-0.030
-258.165	-200.000	-0.073	0.417
-257.151	21.093	-0.090	0.072
-256.136	358.575	0.068	0.135
-255.122	-200.000	0.063	-0.412
-254.107	800.000	0.035	-0.152
-253.092	122.592	0.207	-0.257
-252.078	-200.000	0.026	-0.365
-251.063	28.863	-0.136	0.114
-250.049	800.000	0.059	0.223
-249.034	8.033	-0.416	0.309
-248.019	-106.352	-0.236	-0.052
-247.005	-200.000	0.007	-0.064
-245.990	72.977	0.119	0.123
-244.976	-200.000	-0.009	0.240
-243.961	63.291	0.168	-0.167
-242.946	800.000	-0.041	0.152
-241.932	-79.141	-0.317	0.107
-240.917	-200.000	0.007	-0.106
-239.903	-120.801	0.390	0.065
-238.888	-23.926	-0.023	-0.014
-237.873	210.357	0.128	-0.199
-236.859	-78.056	0.072	0.024
-235.844	-28.539	0.065	0.037
-234.830	-200.000	0.044	0.196
-233.815	-60.928	-0.435	-0.182
-232.800	10.003	0.261	-0.196
-231.786	114.831	0.315	0.380
-230.771	153.183	0.214	0.290
-229.757	-200.000	0.002	-0.128
-228.742	44.277	-0.240	-0.218
-227.727	21.649	0.022	-0.017
-226.713	800.000	0.106	-0.328
-225.698	-200.000	-0.019	0.145
-224.684	297.293	0.113	0.206
-223.669	-10.437	-0.059	-0.039
-222.655	-62.181	0.090	0.037
-221.640	-58.466	-0.284	-0.122
-220.625	-200.000	-0.021	-0.133
-219.611	-200.000	0.034	0.235
-218.596	-83.487	0.106	-0.034
-217.582	-200.000	0.008	-0.244
-216.567	800.000	0.074	-0.273
-215.552	0.310	0.304	-0.214
-214.538	-200.000	0.054	-0.271
-213.523	-200.000	-0.005	-0.331
-212.509	-107.071	-0.079	-0.017
-211.494	363.940	0.100	-0.199
-210.479	800.000	-0.053	-0.213
-209.465	800.000	0.130	-0.394
-208.450	-117.531	0.159	0.028
-207.436	-84.025	-0.223	0.070
-206.421	195.852	0.156	-0.235
-205.406	-103.144	0.097	0.023
-204.392	-175.770	0.058	-0.002
-203.377	561.075	-0.056	0.134
-202.363	336.189	0.039	0.075
-201.348	521.572	0.026	-0.060
-200.333	-83.370	0.209	0.066
-199.319	-55.573	0.220	0.097
-198.304	778.328	0.176	0.475
-197.290	8.598	-0.314	0.233
-196.275	107.751	-0.263	-0.309
-195.260	70.723	-0.317	0.324
-194.246	572.649	-0.088	0.212
-193.231	-200.000	0.016	-0.339
-192.217	-106.383	-0.203	-0.045
-191.202	14.760	-0.276	-0.213
-190.187	800.000	0.110	-0.318
-189.173	-117.182	-0.087	0.016
-188.158	-122.701	0.261	0.042
-187.144	-98.404	0.135	0.034
-186.129	-71.041	0.242	0.090
-185.114	-2.350	-0.076	0.053
-184.100	-73.179	0.364	-0.132
-183.085	5.635	0.116	0.085
-182.071	-200.000	-0.004	-0.047
-181.056	-148.595	-0.213	-0.017
-180.042	-200.000	0.034	0.231
-179.027	-160.041	0.143	0.008
-178.012	278.106	0.148	0.261
-176.998	800.000	-0.013	0.051
-175.983	517.294	0.056	-0.129
-174.969	29.256	0.307	-0.257
-173.954	145.891	-0.076	-0.101
-172.939	800.000	-0.033	-0.137
-171.925	-29.250	-0.074	0.042
-170.910	-200.000	-0.014	0.088
-169.896	-200.000	-0.031	-0.208
-168.881	-99.397	0.107	-0.027
-167.866	-126.699	0.435	0.064
-166.852	119.957	-0.071	-0.087
-165.837	-92.403	0.201	0.056
-164.823	270.694	-0.159	-0.277
-163.808	476.925	-0.149	0.333
-162.793	-200.000	-0.040	-0.174
-161.779	-125.106	0.310	0.047
-160.764	127.866	0.066	0.083
-159.750	221.528	-0.043	-0.068
-158.735	-200.000	0.010	0.256
-157.720	395.425	-0.152	-0.312
-156.706	-35.660	-0.050	0.027
-155.691	10.259	-0.176	-0.132
-154.677	-200.000	-0.034	-0.288
-153.662	579.638	0.005	-0.011
-152.647	-27.202	-0.356	-0.205
-151.633	197.418	0.022	-0.032
-150.618	-200.000	0.028	-0.252
-149.604	-67.329	-0.192	-0.075
-148.589	-127.613	0.338	0.048
-147.574	-114.985	-0.203	-0.038
-146.560	-91.241	-0.166	0.047
-145.545	-136.343	-0.246	0.028
-144.531	216.014	0.187	-0.293
-143.516	-89.924	0.401	0.116
-142.502	168.756	-0.070	0.099
-141.487	163.065	-0.035	0.049
-140.472	-17.094	0.070	0.043
-139.458	82.426	-0.204	-0.218
-138.443	-120.477	-0.464	-0.078
-137.429	-200.000	0.042	-0.183
-136.414	46.943	0.191	-0.175
-135.399	264.471	0.185	-0.318
-134.385	800.000	0.073	-0.303
-133.370	-200.000	-0.019	0.163
-132.356	-126.123	0.112	-0.017
-131.341	-18.456	-0.099	-0.061
-130.326	800.000	0.132	0.380
-129.312	-200.000	-0.004	0.198
-128.297	-99.629	-0.202	0.050
-127.283	-200.000	0.024	-0.307
-126.268	66.275	0.264	-0.264
-125.253	-200.000	0.004	0.105
-124.239	-200.000	-0.188	0.001
-123.224	-200.000	0.130	-0.668
-122.210	-36.375	-0.138	0.073
-121.195	271.366	-0.131	-0.227
-120.180	0.599	0.266	-0.187
-119.166	208.614	0.098	0.151
-118.151	37.706	0.113	0.099
-117.137	563.605	0.031	0.074
-116.122	97.204	0.081	-0.092
-115.107	207.857	-0.138	0.212
-114.093	-200.000	0.020	0.192
-113.078	212.045	-0.168	-0.261
-112.064	86.998	0.065	0.071
-111.049	-10.638	-0.109	-0.071
-110.034	-9.465	-0.115	0.075
-109.020	-98.333	0.156	-0.039
-108.005	199.415	-0.205	-0.309
-106.991	728.010	-0.036	0.095
-105.976	300.556	0.238	0.432
-104.962	60.649	-0.191	0.186
-103.947	-36.256	0.118	-0.063
-102.932	-143.585	-0.210	0.020
-101.918	157.767	0.226	0.308
-100.903	65.787	0.043	-0.043
-99.889	55.694	-0.092	0.087
-98.874	-83.957	0.156	-0.049
-97.859	-32.626	0.269	-0.148
-96.845	65.273	-0.267	0.266
-95.830	-139.774	-0.216	0.023
-94.816	40.970	0.172	0.153
-93.801	124.576	0.032	0.040
-92.786	800.000	-0.067	0.181
-91.772	-200.000	0.057	-0.274
-90.757	524.630	0.067	-0.156
-89.743	69.813	0.279	-0.283
-88.728	95.507	-0.190	0.213
-87.713	231.486	-0.130	0.209
-86.699	-200.000	-0.114	0.518
-85.684	39.060	-0.129	-0.113
-84.670	-200.000	0.020	0.157
-83.655	-177.646	-0.348	0.008
-82.640	498.580	-0.140	-0.316
-81.626	-200.000	0.049	0.348
-80.611	-200.000	-0.076	0.392
-79.597	-88.145	-0.142	-0.042
-78.582	169.127	0.211	-0.296
-77.567	-57.375	0.356	-0.154
-76.553	175.055	-0.071	-0.101
-75.538	-68.597	0.439	-0.167
-74.524	-58.612	0.338	-0.144
-73.509	-152.118	0.363	-0.026
-72.494	124.473	-0.030	-0.037
-71.480	-200.000	-0.004	-0.109
-70.465	211.302	0.119	0.184
-69.451	57.690	0.163	-0.157
-68.436	120.261	0.091	-0.111
-67.422	-49.494	0.091	-0.043
-66.407	-200.000	0.038	0.336
-65.392	153.790	-0.073	-0.098
-64.378	29.297	-0.080	-0.066
-63.363	13.963	-0.326	-0.249
-62.349	-200.000	0.065	0.000
-61.334	18.813	-1.121	-0.883
-60.319	52.879	0.404	0.380
-59.305	-200.000	-0.090	-0.852
-58.290	103.683	1.014	1.170
-57.276	273.886	0.796	1.384
-56.261	-200.000	95.091	596.542
-55.246	681.990	1366.877	3500.841
-54.232	199.401	2549.555	3841.229
-53.217	115.392	2267.232	2721.950
-52.203	41.872	1895.971	1689.482
-51.188	35.505	1685.893	1454.197
-50.173	32.744	1642.001	1395.875
-49.159	50.249	1688.389	1566.977
-48.144	51.963	1704.374	1594.600
-47.130	35.113	1665.617	1433.548
-46.115	32.342	1650.805	1400.148
-45.100	32.211	1645.992	1395.034
-44.086	32.094	1643.740	1392.204
-43.071	32.144	1640.654	1389.908
-42.057	32.107	1638.675	1387.899
-41.042	32.089	1636.862	1386.177
-40.027	32.135	1634.899	1384.802
-39.013	31.994	1633.181	1382.254
-37.998	32.121	1631.250	1381.495
-36.984	32.212	1629.663	1380.766
-35.969	32.233	1628.273	1379.689
-34.954	32.283	1626.628	1378.605
-33.940	32.208	1624.998	1376.623
-32.925	32.151	1623.495	1374.876
-31.911	32.126	1621.815	1373.213
-30.896	32.168	1619.991	1371.926
-29.881	32.205	1618.246	1370.661
-28.867	32.156	1616.593	1368.847
-27.852	32.149	1615.434	1367.765
-26.838	32.165	1613.978	1366.590
-25.823	32.207	1612.322	1365.439
-24.809	32.238	1611.173	1364.641
-23.794	32.264	1609.296	1363.180
-22.779	32.178	1608.217	1361.590
-21.765	32.203	1606.225	1360.031
-20.750	32.170	1604.904	1358.623
-19.736	32.241	1603.391	1357.797
-18.721	32.240	1602.445	1356.935
-17.706	32.190	1601.221	1355.486
-16.692	32.236	1599.274	1354.118
-15.677	32.218	1597.888	1352.761
-14.663	32.238	1596.341	1351.538
-13.648	32.234	1594.974	1350.300
-12.633	32.345	1592.658	1349.079
-11.619	32.213	1592.003	1347.527
-10.604	32.267	1590.332	1346.443
-9.590	32.303	1588.986	1345.513
-8.575	32.288	1587.714	1344.271
-7.560	32.248	1586.889	1343.234
-6.546	32.224	1585.715	1342.014
-5.531	32.233	1584.255	1340.791
-4.517	32.255	1582.559	1339.457
-3.502	32.293	1581.716	1338.966
-2.487	32.385	1580.170	1338.253
-1.473	32.107	1568.510	1326.366
-0.458	29.264	1550.132	1290.893
0.556	25.295	1549.704	1259.206
1.571	22.873	1572.829	1260.612
2.586	22.324	1585.924	1267.043
3.600	19.823	1532.008	1206.439
4.615	12.007	1425.024	1071.188
5.629	5.535	1362.758	983.724
6.644	4.656	1355.053	972.582
7.659	4.526	1353.472	970.548
8.673	4.613	1352.071	970.003
9.688	4.525	1350.708	968.392
10.702	4.382	1347.904	965.404
11.717	7.344	1353.365	987.707
12.731	14.703	1366.947	1043.680
13.746	19.251	1373.752	1077.284
14.761	18.991	1372.194	1074.341
15.775	18.027	1368.843	1065.616
16.790	16.813	1366.812	1056.373
17.804	16.142	1364.058	1049.980
18.819	15.733	1363.206	1046.686
19.834	15.454	1362.034	1043.955
20.848	15.243	1360.682	1041.518
21.863	14.958	1359.539	1038.779
22.877	14.831	1358.298	1036.954
23.892	14.889	1356.969	1036.206
24.907	14.815	1356.103	1034.991
25.921	14.875	1355.399	1034.736
26.936	14.972	1354.451	1034.520
27.950	14.950	1353.657	1033.684
28.965	14.917	1353.060	1032.938
29.980	15.129	1351.682	1033.102
30.994	15.228	1350.592	1032.789
32.009	15.328	1349.170	1032.224
33.023	15.185	1347.743	1030.160
34.038	15.116	1346.492	1028.687
35.053	15.139	1345.153	1027.714
36.067	15.064	1344.175	1026.419
37.082	15.099	1343.475	1026.009
38.096	15.050	1343.140	1025.360
39.111	15.030	1342.032	1024.301
40.126	14.999	1340.773	1023.059
41.140	14.816	1340.186	1021.402
42.155	14.733	1339.383	1020.193
43.169	14.747	1339.791	1020.498
44.184	14.755	1339.052	1019.899
45.199	14.754	1338.837	1019.633
46.213	14.819	1338.296	1019.527
47.228	14.979	1337.539	1019.837
48.242	14.972	1335.991	1018.527
49.257	14.843	1335.053	1016.932
50.271	14.888	1333.198	1015.704
51.286	15.064	1331.715	1015.553
52.301	14.972	1330.562	1014.027
53.315	14.935	1329.558	1012.947
54.330	14.709	1329.054	1011.107
55.344	14.863	1327.135	1010.487
56.359	14.834	1326.226	1009.531
57.374	14.760	1325.574	1008.501
58.388	14.657	1324.556	1007.011
59.403	14.640	1324.363	1006.675
60.417	14.638	1323.240	1005.718
61.432	14.641	1322.542	1005.119
62.447	14.637	1321.395	1004.137
63.461	14.582	1320.066	1002.704
64.476	14.540	1318.805	1001.405
65.490	14.644	1317.726	1001.121
66.505	14.625	1316.332	999.864
67.520	14.640	1314.951	998.814
68.534	14.723	1314.208	998.657
69.549	14.673	1313.263	997.549
70.563	14.673	1312.194	996.649
71.578	14.656	1310.799	995.404
72.593	14.508	1309.959	993.796
73.607	14.514	1309.295	993.238
74.622	14.500	1308.741	992.650
75.636	14.475	1308.112	991.935
76.651	14.519	1307.212	991.424
77.666	14.497	1306.777	990.876
78.680	14.635	1306.489	991.390
79.695	14.602	1305.966	990.709
80.709	14.624	1305.193	990.165
81.724	14.751	1303.904	989.853
82.739	14.815	1303.243	989.645
83.753	14.923	1302.272	989.458
84.768	14.997	1301.249	989.031
85.782	15.071	1300.036	988.455
86.797	15.065	1298.763	987.369
87.812	14.839	1298.515	985.760
88.826	14.876	1296.973	984.717
89.841	15.003	1295.863	984.537
90.855	15.045	1294.911	983.974
91.870	14.979	1294.160	982.924
92.884	15.038	1293.216	982.467
93.899	15.093	1292.614	982.248
94.914	15.146	1291.600	981.699
95.928	15.095	1290.693	980.624
96.943	15.003	1290.173	979.603
97.957	15.022	1289.218	978.903
98.972	15.012	1287.899	977.758
99.987	15.080	1286.685	977.144
101.001	15.112	1285.594	976.419
102.016	15.004	1285.387	975.547
103.030	15.057	1284.199	974.867
104.045	14.961	1283.254	973.501
105.060	15.038	1281.516	972.545
106.074	14.856	1280.696	970.781
107.089	14.706	1279.219	968.707
108.103	14.720	1277.862	967.676
109.118	14.628	1276.509	966.029
110.133	14.678	1275.409	965.401
111.147	14.624	1273.796	963.781
112.162	14.746	1272.760	963.616
113.176	14.801	1271.573	962.954
114.191	14.765	1270.801	962.077
115.206	14.875	1269.562	961.686
116.220	14.821	1268.349	960.371
117.235	14.762	1267.383	959.213
118.249	14.748	1266.542	958.415
119.264	14.703	1265.248	957.090
120.279	14.640	1264.011	955.708
121.293	14.691	1262.525	954.794
122.308	14.691	1261.946	954.274
123.322	14.573	1260.951	952.760
124.337	14.711	1260.036	952.775
125.352	14.611	1259.020	951.352
126.366	14.654	1257.436	950.313
127.381	14.703	1256.467	949.776
128.395	14.558	1255.745	948.323
129.410	14.638	1254.754	947.946
130.424	14.682	1254.464	947.891
131.439	14.651	1253.149	946.637
132.454	14.767	1252.520	946.733
133.468	14.792	1251.650	946.136
134.483	14.834	1250.688	945.561
135.497	14.779	1249.596	944.344
136.512	14.905	1248.175	943.898
137.527	14.879	1246.973	942.761
138.541	14.882	1245.695	941.727
139.556	14.802	1244.546	940.320
140.570	14.880	1243.931	940.215
141.585	15.074	1242.107	939.841
142.600	15.097	1240.879	938.957
143.614	15.042	1240.533	938.305
144.629	15.202	1239.391	938.253
145.643	15.196	1237.884	936.996
146.658	15.103	1236.833	935.601
147.673	14.894	1235.349	933.226
148.687	14.890	1234.336	932.354
149.702	14.852	1233.164	931.175
150.716	14.799	1232.033	929.947
151.731	14.895	1230.826	929.487
152.746	15.077	1229.169	929.161
153.760	14.998	1228.044	927.792
154.775	14.910	1227.639	926.916
155.789	15.100	1226.268	926.849
156.804	15.084	1225.579	926.160
157.819	15.113	1224.570	925.475
158.833	15.061	1224.236	924.854
159.848	15.133	1222.964	924.208
160.862	15.161	1221.914	923.485
161.877	15.118	1220.230	921.894
162.892	15.030	1219.588	920.844
163.906	15.002	1218.543	919.823
164.921	15.023	1217.903	919.375
165.935	15.085	1216.561	918.617
166.950	15.155	1216.293	918.721
167.964	15.024	1215.759	917.512
168.979	15.005	1215.363	917.031
169.994	15.102	1213.901	916.379
171.008	15.141	1213.258	916.024
172.023	15.202	1212.941	916.038
173.037	15.151	1211.795	914.815
174.052	15.272	1210.724	914.585
175.067	15.115	1209.883	913.010
176.081	15.057	1208.969	911.923
177.096	15.046	1207.822	910.917
178.110	15.103	1206.784	910.364
179.125	15.163	1205.890	909.935
180.140	15.167	1204.576	908.886
181.154	15.209	1203.156	907.963
182.169	15.194	1202.005	906.932
183.183	15.323	1200.465	906.386
184.198	15.273	1200.124	905.781
185.213	15.354	1198.668	905.035
186.227	15.374	1197.383	904.096
187.242	15.480	1196.612	904.002
188.256	15.410	1196.260	903.282
189.271	15.391	1195.075	902.205
190.286	15.306	1193.473	900.459
191.300	15.149	1192.718	898.967
192.315	15.099	1192.307	898.306
193.329	15.062	1191.626	897.520
194.344	15.103	1190.691	896.952
195.359	15.194	1190.609	897.301
196.373	15.446	1189.680	897.868
197.388	15.483	1189.292	897.693
198.402	15.586	1188.967	897.919
199.417	15.674	1188.380	897.868
200.432	15.712	1187.361	897.221
201.446	15.705	1186.695	896.602
202.461	15.819	1185.571	896.278
203.475	15.749	1184.711	895.178
204.490	15.646	1183.565	893.687
205.504	15.583	1182.123	892.180
206.519	15.573	1180.504	890.826
207.534	15.503	1180.153	890.114
208.548	15.531	1179.227	889.484
209.563	15.443	1178.712	888.550
210.577	15.634	1177.204	888.349
211.592	15.665	1176.800	888.128
212.607	15.717	1176.118	887.807
213.621	15.684	1175.016	886.721
214.636	15.831	1173.647	886.386
215.650	15.763	1173.204	885.615
216.665	15.694	1172.528	884.661
217.680	15.802	1171.357	884.272
218.694	15.848	1170.758	883.980
219.709	15.826	1170.230	883.389
220.723	15.843	1169.509	882.855
221.738	15.802	1168.552	881.838
222.753	15.737	1167.747	880.815
223.767	15.884	1167.256	881.136
224.782	15.969	1166.520	880.943
225.796	16.024	1165.945	880.721
226.811	15.890	1165.366	879.508
227.826	15.922	1164.542	878.974
228.840	15.909	1163.271	877.869
229.855	15.856	1163.286	877.523
230.869	15.924	1162.287	877.046
231.884	15.948	1161.063	876.170
232.899	15.912	1160.111	875.191
233.913	15.883	1159.989	874.866
234.928	15.824	1159.180	873.876
235.942	15.787	1158.193	872.864
236.957	15.746	1157.329	871.918
237.972	15.814	1156.534	871.597
238.986	15.846	1155.939	871.234
240.001	15.903	1155.296	870.971
241.015	15.896	1154.644	870.363
242.030	15.903	1153.734	869.640
243.045	15.958	1153.001	869.295
244.059	15.911	1152.471	868.576
245.074	16.000	1151.173	867.975
246.088	16.077	1150.486	867.779
247.103	16.130	1149.527	867.253
248.117	16.199	1149.288	867.348
249.132	16.207	1148.695	866.868
250.147	16.276	1148.362	866.890
251.161	16.353	1147.139	866.285
252.176	16.478	1146.636	866.470
253.190	16.469	1146.221	866.033
254.205	16.521	1145.761	865.875
255.220	16.429	1144.826	864.622
256.234	16.591	1144.198	864.903
257.249	16.578	1143.246	864.037
258.263	16.474	1143.012	863.253
259.278	16.572	1142.079	862.973
260.293	16.574	1141.695	862.616
261.307	16.710	1140.818	862.568
262.322	16.657	1140.375	861.887
263.336	16.636	1139.622	861.136
264.351	16.715	1139.270	861.195
265.366	16.758	1138.110	860.460
266.380	16.700	1137.922	859.947
267.395	16.695	1136.693	858.918
268.409	16.672	1135.697	857.972
269.424	16.584	1135.364	857.199
270.439	16.569	1135.603	857.228
271.453	16.566	1134.495	856.300
272.468	16.602	1133.021	855.293
273.482	16.577	1132.337	854.574
274.497	16.596	1131.904	854.271
275.512	16.619	1131.460	853.975
276.526	16.541	1130.676	852.915
277.541	16.615	1130.087	852.767
278.555	16.701	1128.981	852.290
279.570	16.663	1128.790	851.879
280.585	16.935	1127.440	852.154
281.599	16.868	1126.548	851.069
282.614	16.808	1125.438	849.853
283.628	16.779	1124.469	848.898
284.643	16.777	1123.856	848.354
285.657	16.823	1122.893	847.778
286.672	16.762	1121.972	846.703
287.687	16.752	1121.145	845.955
288.701	16.967	1120.015	846.102
289.716	16.791	1119.951	845.102
290.730	16.933	1118.850	844.904
291.745	16.906	1118.504	844.430
292.760	16.749	1117.851	843.083
293.774	16.907	1117.164	843.274
294.789	16.934	1116.650	842.946
295.803	17.061	1115.972	842.993
296.818	16.860	1115.537	841.589
297.833	17.002	1114.224	841.231
298.847	17.005	1113.390	840.538
299.862	16.884	1112.732	839.370
300.876	16.968	1112.364	839.432
301.891	17.187	1111.160	839.535
302.906	17.190	1110.335	838.848
303.920	17.143	1110.043	838.324
304.935	17.234	1109.568	838.340
305.949	17.281	1108.878	837.978
306.964	17.260	1108.266	837.334
307.979	17.238	1107.391	836.493
308.993	17.190	1106.670	835.639
310.008	17.260	1105.946	835.363
311.022	17.224	1105.683	834.911
312.037	17.349	1104.268	834.385
313.052	17.254	1103.362	833.158
314.066	17.190	1102.658	832.240
315.081	17.062	1102.020	831.056
316.095	17.141	1100.778	830.432
317.110	17.182	1100.274	830.181
318.125	17.150	1099.344	829.250
319.139	17.150	1098.845	828.799
320.154	17.220	1098.504	828.813
321.168	17.021	1098.067	827.435
322.183	17.103	1097.110	827.043
323.197	17.210	1096.703	827.182
324.212	17.264	1096.064	826.892
325.227	17.243	1095.382	826.199
326.241	17.216	1094.881	825.621
327.256	17.145	1093.961	824.507
328.270	17.260	1092.618	823.977
329.285	17.144	1092.149	822.990
330.300	17.145	1091.366	822.333
331.314	17.195	1090.645	821.960
332.329	17.370	1088.828	821.360
333.343	17.324	1088.494	820.818
334.358	17.318	1087.594	820.035
335.373	17.385	1087.024	819.854
336.387	17.516	1086.029	819.661
337.402	17.397	1086.066	819.048
338.416	17.543	1084.780	818.704
339.431	17.594	1084.371	818.570
340.446	17.705	1083.480	818.359
341.460	17.638	1083.064	817.647
342.475	17.729	1082.470	817.564
343.489	17.751	1081.666	816.990
344.504	17.773	1081.024	816.539
345.519	17.714	1080.390	815.704
346.533	17.869	1079.137	815.429
347.548	17.898	1078.012	814.645
348.562	17.900	1077.246	814.002
349.577	17.828	1076.558	813.065
350.592	17.738	1076.085	812.209
351.606	17.742	1075.285	811.556
352.621	17.703	1074.275	810.535
353.635	17.600	1074.168	809.893
354.650	17.629	1073.590	809.522
355.665	17.674	1072.915	809.153
356.679	17.704	1071.986	808.526
357.694	17.741	1071.690	808.403
358.708	17.731	1071.136	807.867
359.723	17.802	1070.328	807.525
360.738	17.775	1069.607	806.781
361.752	17.826	1069.012	806.500
362.767	17.889	1068.353	806.233
363.781	17.794	1067.728	805.240
364.796	17.907	1067.458	805.496
365.810	17.981	1066.633	805.151
366.825	18.147	1066.145	805.497
367.840	18.104	1065.471	804.712
368.854	18.152	1064.866	804.408
369.869	18.096	1064.222	803.589
370.883	18.109	1063.210	802.815
371.898	18.072	1062.469	802.010
372.913	18.145	1062.110	802.009
373.927	18.090	1061.859	801.495
374.942	18.121	1061.365	801.196
375.956	18.157	1060.948	800.980
376.971	18.128	1060.137	800.160
377.986	18.167	1059.554	799.830
379.000	18.243	1059.377	799.979
380.015	18.407	1058.614	800.100
381.029	18.367	1057.827	799.246
382.044	18.464	1056.828	798.876
383.059	18.462	1055.938	798.119
384.073	18.398	1055.259	797.240
385.088	18.467	1054.916	797.232
386.102	18.441	1053.875	796.252
387.117	18.252	1052.486	794.254
388.132	18.247	1051.936	793.748
389.146	18.208	1050.863	792.687
390.161	18.369	1050.074	792.766
391.175	18.327	1049.458	792.040
392.190	18.186	1049.378	791.255
393.205	18.500	1048.320	791.840
394.219	18.515	1047.171	790.971
395.234	18.447	1046.180	789.838
396.248	18.421	1045.195	788.905
397.263	18.319	1044.390	787.755
398.278	18.178	1044.123	786.837
399.292	18.346	1043.345	786.953
400.307	18.161	1042.662	785.518
401.321	18.242	1041.687	785.088
402.336	18.279	1041.279	784.879
403.350	18.271	1041.078	784.623
404.365	18.281	1040.127	783.881
405.380	18.407	1039.535	783.944
406.394	18.482	1038.323	783.301
407.409	18.508	1037.795	782.951
408.423	18.593	1037.308	782.903
409.438	18.673	1036.784	782.805
410.453	18.748	1035.658	782.227
411.467	18.706	1035.220	781.635
412.482	18.704	1034.654	781.130
413.496	18.753	1033.636	780.515
414.511	18.831	1033.482	780.683
415.526	18.963	1032.799	780.698
416.540	18.934	1032.709	780.430
417.555	18.931	1032.047	779.847
418.569	18.847	1031.171	778.733
419.584	18.858	1030.911	778.521
420.599	18.886	1030.250	778.078
421.613	150.800	1399.903	1793.718
422.628	137.600	1453.779	1793.825
