DTS Sentinel unit serial number:	SN413079Multiplexer serial number:	ORYXHardware model number:	OX4-SRSoftware version number:	ORYX F/W v4.00 Oryx Data Collector v3.7.2.0data status	okinstallation	princeton_trtdifferential loss correction	single-endedforward channel	channel 2reverse channel	N/Adate	2019/09/19time	02:19:34forward acquisition time	60.00reverse acquisition time	0.00gamma	496.2192k internal	0.2354k external	0.2354temperature offset calibration	1.0012default loss term (dB/km)	0.3790temperature slope calibration	1.0000multiplexer offset coefficient	1.0000multiplexer slope coefficient	1.0000fibre end	0.00T internal ref (°C)	21.11T ext. ref 1 (°C)	0.67T ext. ref 2 (°C)	14.57length (m)	temperature (°C)	Stokes	anti-Stokes-747.200	130.153	0.115	0.146
-746.185	-84.592	-0.236	0.074
-745.171	-70.318	0.413	0.156
-744.156	-114.837	0.112	-0.021
-743.142	-83.067	0.160	0.051
-742.127	5.746	-0.208	0.153
-741.112	625.604	-0.178	-0.448
-740.098	800.000	-0.054	0.199
-739.083	-112.731	0.313	0.062
-738.069	800.000	0.021	-0.081
-737.054	-115.830	-0.350	0.065
-736.039	51.999	-0.292	0.277
-735.025	103.557	-0.252	0.294
-734.010	-34.219	-0.189	-0.103
-732.996	371.547	0.102	-0.206
-731.981	-200.000	-0.084	0.476
-730.966	261.779	-0.211	-0.364
-729.952	-200.000	0.019	-0.284
-728.937	12.199	0.246	0.189
-727.923	126.354	0.068	0.086
-726.908	-62.973	-0.308	-0.127
-725.894	-43.041	-0.196	0.099
-724.879	223.783	0.017	-0.028
-723.864	-200.000	0.017	-0.103
-722.850	480.590	-0.094	-0.211
-721.835	194.446	-0.167	-0.252
-720.821	800.000	0.109	-0.305
-719.806	-200.000	0.007	0.038
-718.791	14.936	-0.094	0.073
-717.777	22.722	0.033	0.027
-716.762	-200.000	-0.086	0.445
-715.748	800.000	-0.072	0.249
-714.733	-200.000	-0.015	-0.272
-713.718	133.131	-0.136	0.175
-712.704	301.880	-0.264	-0.485
-711.689	797.500	-0.035	-0.097
-710.675	123.352	-0.088	-0.110
-709.660	-104.509	-0.078	0.018
-708.645	-71.185	-0.420	0.157
-707.631	-128.148	-0.431	-0.061
-706.616	178.447	-0.201	-0.292
-705.602	800.000	-0.013	-0.046
-704.587	800.000	-0.067	-0.267
-703.572	350.510	0.120	0.235
-702.558	147.632	-0.167	-0.224
-701.543	32.926	-0.245	-0.211
-700.529	-200.000	-0.049	-0.479
-699.514	-81.639	0.360	-0.118
-698.499	-200.000	0.073	-0.417
-697.485	800.000	-0.015	0.057
-696.470	55.219	-0.181	-0.174
-695.456	414.690	0.059	0.125
-694.441	-200.000	-0.021	0.113
-693.426	52.075	-0.226	-0.214
-692.412	-200.000	-0.070	0.446
-691.397	-12.973	-0.278	0.180
-690.383	62.308	0.155	0.154
-689.368	-200.000	-0.030	0.275
-688.354	67.864	-0.256	-0.261
-687.339	244.328	-0.205	-0.343
-686.324	51.455	0.118	-0.111
-685.310	-52.924	-0.233	0.107
-684.295	-81.373	0.167	0.055
-683.281	635.633	0.033	-0.082
-682.266	236.113	-0.145	0.239
-681.251	135.069	0.078	0.101
-680.237	-58.603	-0.084	-0.036
-679.222	-200.000	-0.066	0.384
-678.208	721.201	-0.082	-0.216
-677.193	172.057	0.142	-0.203
-676.178	191.470	0.172	-0.258
-675.164	-39.345	-0.208	0.108
-674.149	-200.000	0.013	0.110
-673.135	-85.411	-0.038	0.012
-672.120	549.496	-0.158	-0.377
-671.105	11.271	0.201	-0.153
-670.091	92.620	0.125	-0.140
-669.076	-200.000	-0.041	-0.245
-668.062	167.050	-0.204	-0.288
-667.047	-88.966	-0.211	-0.062
-666.032	379.587	0.058	-0.118
-665.018	-27.570	-0.214	-0.124
-664.003	-100.278	-0.218	0.054
-662.989	4.220	-0.236	0.172
-661.974	533.620	-0.083	0.195
-660.959	60.370	-0.054	0.053
-659.945	184.366	0.320	0.471
-658.930	230.368	-0.128	0.209
-657.916	81.608	0.196	0.210
-656.901	-49.378	-0.209	0.099
-655.886	464.452	-0.173	-0.384
-654.872	-200.000	0.039	-0.186
-653.857	800.000	-0.060	-0.229
-652.843	773.960	-0.142	0.385
-651.828	-64.957	0.157	0.063
-650.814	-200.000	0.015	-0.105
-649.799	300.971	-0.109	0.199
-648.784	-33.150	0.089	-0.049
-647.770	184.363	-0.173	0.255
-646.755	131.277	0.050	-0.063
-645.741	206.951	0.022	0.034
-644.726	-200.000	-0.072	-0.325
-643.711	136.367	0.152	0.196
-642.697	107.543	0.244	-0.289
-641.682	-35.040	0.085	-0.046
-640.668	-161.777	-0.037	0.002
-639.653	-82.069	-0.400	-0.130
-638.638	-106.103	-0.186	0.041
-637.624	539.766	-0.022	0.052
-636.609	-71.627	-0.648	0.240
-635.595	-31.209	-0.032	-0.018
-634.580	428.402	-0.223	0.478
-633.565	228.470	-0.063	0.102
-632.551	-178.570	-0.088	0.002
-631.536	800.000	0.066	-0.286
-630.522	-137.513	-0.222	0.025
-629.507	33.409	0.045	-0.039
-628.492	649.988	0.081	-0.205
-627.478	-74.673	0.130	0.047
-626.463	75.956	0.214	0.225
-625.449	-134.049	0.209	0.026
-624.434	-115.656	0.356	0.066
-623.419	-29.536	-0.226	-0.128
-622.405	-2.272	0.198	-0.138
-621.390	75.513	-0.061	-0.064
-620.376	496.288	0.045	0.103
-619.361	-131.926	0.022	-0.003
-618.346	-35.808	-0.160	-0.086
-617.332	-40.943	0.118	-0.061
-616.317	-122.696	-0.323	-0.052
-615.303	8.934	-0.161	-0.121
-614.288	-31.058	-0.094	0.053
-613.273	800.000	-0.043	0.119
-612.259	-158.955	-0.138	-0.008
-611.244	243.300	-0.050	-0.084
-610.230	139.506	0.118	-0.154
-609.215	-38.611	-0.331	-0.173
-608.201	219.763	0.199	0.317
-607.186	235.211	-0.093	0.152
-606.171	329.440	0.045	-0.085
-605.157	169.864	0.041	-0.058
-604.142	800.000	0.101	-0.286
-603.128	-109.106	-0.083	-0.018
-602.113	-104.231	-0.191	0.044
-601.098	-32.596	-0.281	-0.155
-600.084	7.353	-0.131	-0.097
-599.069	-33.027	0.183	-0.101
-598.055	800.000	0.121	0.366
-597.040	800.000	0.026	-0.089
-596.025	-200.000	0.047	0.230
-595.011	-46.871	0.108	-0.052
-593.996	800.000	-0.063	0.201
-592.982	-200.000	-0.016	-0.149
-591.967	107.371	0.352	-0.414
-590.952	-76.631	-0.380	0.132
-589.938	-200.000	0.021	-0.644
-588.923	-36.226	-0.349	0.186
-587.909	-160.124	-0.122	-0.007
-586.894	-157.275	-0.155	0.009
-585.879	-200.000	-0.022	-0.257
-584.865	153.276	0.032	0.044
-583.850	59.355	0.207	0.202
-582.836	267.936	0.063	0.109
-581.821	756.292	0.066	0.177
-580.806	-200.000	0.003	0.077
-579.792	-200.000	0.022	0.128
-578.777	100.639	-0.133	-0.154
-577.763	49.819	0.047	-0.044
-576.748	13.160	0.299	0.229
-575.733	306.019	-0.138	-0.254
-574.719	-200.000	-0.023	-0.110
-573.704	8.471	0.148	0.110
-572.690	33.854	0.223	0.193
-571.675	-200.000	-0.033	0.564
-570.661	-12.499	0.157	-0.101
-569.646	-55.891	0.030	-0.013
-568.631	472.874	-0.136	0.304
-567.617	-200.000	-0.005	-0.035
-566.602	144.215	-0.213	-0.282
-565.588	800.000	-0.167	0.553
-564.573	90.591	0.244	-0.270
-563.558	-112.013	-0.347	-0.069
-562.544	-66.686	-0.035	-0.014
-561.529	638.728	0.072	0.180
-560.515	-17.039	-0.058	-0.036
-559.500	800.000	-0.065	-0.207
-558.485	48.028	0.060	0.056
-557.471	-117.876	0.307	0.055
-556.456	192.314	0.063	0.094
-555.442	-200.000	-0.024	0.311
-554.427	513.790	-0.056	-0.130
-553.412	-124.416	0.147	-0.023
-552.398	197.843	-0.191	0.289
-551.383	-25.886	-0.100	-0.058
-550.369	208.063	-0.184	-0.284
-549.354	-148.117	0.345	-0.028
-548.339	736.665	0.032	0.085
-547.325	177.699	-0.141	0.204
-546.310	-2.243	-0.259	-0.179
-545.296	-67.428	-0.058	-0.022
-544.281	-200.000	-0.044	0.410
-543.266	652.676	-0.088	-0.223
-542.252	-115.421	-0.117	0.022
-541.237	50.235	-0.125	-0.116
-540.223	84.205	0.133	0.144
-539.208	-184.918	0.186	0.003
-538.193	-66.412	0.079	-0.031
-537.179	27.856	-0.254	0.212
-536.164	185.083	0.034	0.049
-535.150	800.000	-0.065	-0.199
-534.135	-18.117	-0.211	0.131
-533.121	-40.924	-0.141	0.072
-532.106	-19.258	0.207	0.127
-531.091	-11.459	-0.285	-0.185
-530.077	-75.302	0.179	0.063
-529.062	115.230	0.065	-0.079
-528.048	-80.027	-0.140	0.046
-527.033	-136.326	0.122	0.014
-526.018	165.067	-0.125	0.175
-525.004	800.000	0.087	-0.278
-523.989	-200.000	0.009	-0.120
-522.975	-142.721	-0.170	-0.016
-521.960	-134.494	-0.261	-0.031
-520.945	-200.000	0.016	0.156
-519.931	-74.557	0.281	-0.100
-518.916	-143.987	-0.157	0.015
-517.902	-5.397	0.321	-0.218
-516.887	767.265	-0.160	-0.430
-515.872	280.088	-0.097	-0.171
-514.858	219.869	-0.211	0.334
-513.843	-47.368	0.359	0.173
-512.829	-176.338	-0.198	-0.005
-511.814	61.924	0.159	-0.156
-510.799	800.000	0.051	-0.195
-509.785	430.600	0.016	-0.035
-508.770	-29.753	0.451	0.254
-507.756	89.977	0.374	-0.413
-506.741	303.110	0.032	-0.059
-505.726	-200.000	0.050	-0.312
-504.712	637.089	0.034	0.086
-503.697	57.173	0.229	-0.221
-502.683	-92.222	0.316	-0.088
-501.668	-18.114	0.147	-0.091
-500.653	-22.648	0.228	-0.136
-499.639	-133.265	-0.066	-0.008
-498.624	11.209	0.168	0.127
-497.610	5.322	-0.184	0.134
-496.595	-200.000	0.015	-0.087
-495.581	40.813	0.390	-0.347
-494.566	171.442	-0.129	-0.183
-493.551	126.072	-0.149	0.186
-492.537	-64.776	-0.356	-0.142
-491.522	-116.413	-0.440	-0.080
-490.508	32.614	0.073	0.063
-489.493	-200.000	0.025	-0.211
-488.478	153.386	0.064	0.086
-487.464	4.812	0.188	0.136
-486.449	114.387	-0.177	0.213
-485.435	800.000	-0.058	0.202
-484.420	34.472	-0.098	-0.084
-483.405	237.432	0.251	-0.410
-482.391	-1.719	0.167	-0.116
-481.376	132.490	-0.077	-0.098
-480.362	249.787	0.247	0.414
-479.347	40.846	0.055	-0.049
-478.332	67.022	-0.136	-0.136
-477.318	-46.219	-0.099	0.048
-476.303	-200.000	0.004	-0.115
-475.289	529.643	0.082	0.191
-474.274	-123.715	-0.271	-0.042
-473.259	-129.382	0.120	0.016
-472.245	-86.302	0.375	-0.114
-471.230	-127.677	-0.091	0.013
-470.216	800.000	-0.083	-0.259
-469.201	-200.000	-0.012	0.257
-468.186	108.341	0.224	-0.264
-467.172	-200.000	0.031	-0.171
-466.157	-107.955	0.261	-0.056
-465.143	-200.000	0.001	-0.164
-464.128	-63.728	-0.209	-0.084
-463.113	769.685	-0.022	-0.060
-462.099	157.351	-0.145	-0.198
-461.084	-118.139	-0.078	-0.014
-460.070	-200.000	-0.030	-0.219
-459.055	-52.875	0.054	-0.025
-458.040	-76.480	0.274	0.095
-457.026	-91.155	-0.307	-0.087
-456.011	-151.720	0.371	-0.027
-454.997	78.638	-0.291	-0.307
-453.982	105.370	0.076	0.089
-452.968	-119.057	0.164	-0.028
-451.953	800.000	0.029	0.106
-450.938	-7.911	0.116	0.077
-449.924	-8.344	-0.357	0.237
-448.909	342.740	-0.161	0.310
-447.895	-88.006	-0.209	0.062
-446.880	785.639	-0.079	-0.213
-445.865	435.323	0.094	-0.202
-444.851	-50.434	-0.160	0.075
-443.836	747.659	-0.123	-0.327
-442.822	39.857	-0.064	0.057
-441.807	358.792	0.019	-0.038
-440.792	-80.421	-0.249	-0.082
-439.778	299.788	-0.075	-0.136
-438.763	76.311	0.132	0.138
-437.749	-200.000	0.000	-0.392
-436.734	-130.929	-0.194	-0.026
-435.719	-200.000	0.000	-0.154
-434.705	7.378	0.353	-0.260
-433.690	800.000	-0.025	0.076
-432.676	-99.387	-0.383	0.095
-431.661	800.000	0.096	0.287
-430.646	11.388	-0.275	-0.207
-429.632	-23.351	-0.174	0.103
-428.617	-197.966	-0.311	-0.002
-427.603	-34.983	0.191	-0.103
-426.588	-39.801	0.284	0.146
-425.573	-200.000	0.008	0.227
-424.559	-95.476	0.036	0.009
-423.544	-42.706	-0.203	-0.101
-422.530	282.092	-0.087	-0.153
-421.515	-103.423	0.337	0.078
-420.500	41.492	-0.235	0.210
-419.486	225.053	0.099	-0.158
-418.471	5.750	0.098	0.071
-417.457	99.525	0.158	0.179
-416.442	-100.014	0.361	0.088
-415.428	800.000	-0.175	-0.481
-414.413	379.144	-0.035	-0.071
-413.398	220.002	0.088	-0.138
-412.384	418.976	-0.023	0.047
-411.369	4.225	0.092	0.066
-410.355	-98.113	0.208	0.053
-409.340	-75.547	0.247	-0.087
-408.325	-106.432	-0.189	0.041
-407.311	-123.113	0.421	0.066
-406.296	800.000	-0.039	0.133
-405.282	44.351	-0.017	0.015
-404.267	501.069	0.101	0.230
-403.252	-200.000	-0.035	0.231
-402.238	-48.752	-0.278	0.131
-401.223	-52.936	-0.295	0.134
-400.209	-118.809	-0.054	-0.009
-399.194	82.027	0.322	0.343
-398.179	-200.000	-0.018	0.160
-397.165	-18.657	-0.160	-0.098
-396.150	-200.000	0.022	0.110
-395.136	125.879	-0.073	0.091
-394.121	-33.863	-0.174	-0.094
-393.106	322.562	-0.184	0.345
-392.092	800.000	0.088	-0.244
-391.077	800.000	-0.077	-0.210
-390.063	-200.000	0.045	0.206
-389.048	-145.112	-0.168	-0.015
-388.033	165.901	-0.151	-0.210
-387.019	20.015	-0.044	0.035
-386.004	-200.000	-0.004	-0.115
-384.990	-200.000	-0.026	0.328
-383.975	-66.588	-0.337	0.131
-382.960	85.799	-0.086	-0.093
-381.946	70.608	-0.271	-0.276
-380.931	122.331	-0.148	-0.181
-379.917	272.474	-0.189	-0.327
-378.902	-200.000	-0.017	-0.163
-377.888	66.505	-0.161	0.161
-376.873	29.287	0.093	0.078
-375.858	-103.651	0.184	-0.042
-374.844	95.414	-0.168	0.188
-373.829	118.705	-0.058	0.071
-372.815	70.541	0.217	0.220
-371.800	202.238	-0.194	0.294
-370.785	84.458	-0.176	-0.189
-369.771	21.747	0.086	0.069
-368.756	243.768	-0.008	0.012
-367.742	209.459	0.040	-0.062
-366.727	-179.268	0.316	-0.007
-365.712	-49.696	-0.231	0.108
-364.698	-78.494	-0.277	-0.093
-363.683	-22.619	-0.288	0.171
-362.669	52.765	-0.141	-0.132
-361.654	98.456	-0.257	0.291
-360.639	-61.126	0.228	0.094
-359.625	-116.389	-0.306	-0.056
-358.610	78.043	-0.300	-0.314
-357.596	800.000	0.106	-0.313
-356.581	522.219	-0.086	-0.198
-355.566	239.825	0.128	-0.209
-354.552	417.141	0.265	0.556
-353.537	-123.447	0.210	0.033
-352.523	-32.511	-0.062	0.034
-351.508	151.369	0.092	0.123
-350.493	-94.045	-0.448	0.121
-349.479	136.778	-0.155	-0.199
-348.464	-13.124	-0.550	-0.351
-347.450	-200.000	0.013	0.168
-346.435	-200.000	0.011	0.344
-345.420	-107.444	0.110	-0.024
-344.406	-1.545	0.146	0.101
-343.391	82.521	0.128	0.137
-342.377	-140.716	-0.223	0.023
-341.362	-200.000	0.033	-0.570
-340.348	327.084	-0.166	0.313
-339.333	557.299	-0.135	0.320
-338.318	-62.580	0.250	-0.102
-337.304	-55.451	-0.239	0.105
-336.289	730.609	0.113	-0.298
-335.275	72.940	-0.051	-0.052
-334.260	-40.551	-0.463	0.236
-333.245	486.938	0.097	0.217
-332.231	524.943	-0.059	0.136
-331.216	-113.969	0.279	-0.053
-330.202	292.626	0.073	-0.131
-329.187	-94.815	0.027	0.007
-328.172	800.000	-0.085	0.331
-327.158	71.083	0.110	-0.111
-326.143	212.346	0.158	-0.244
-325.129	125.923	-0.075	-0.093
-324.114	-200.000	0.057	-0.596
-323.099	150.743	0.024	0.032
-322.085	139.771	-0.275	0.356
-321.070	174.525	0.208	0.295
-320.056	-200.000	0.000	-0.192
-319.041	800.000	0.059	0.165
-318.026	-76.364	0.277	0.096
-317.012	31.061	-0.234	-0.197
-315.997	14.007	-0.015	-0.012
-314.983	181.570	-0.203	0.293
-313.968	800.000	0.125	-0.446
-312.953	-200.000	-0.102	0.446
-311.939	2.322	-0.141	-0.100
-310.924	800.000	-0.062	-0.171
-309.910	-140.371	0.518	0.053
-308.895	-28.375	-0.113	0.064
-307.880	345.349	-0.043	0.083
-306.866	-125.541	0.168	0.025
-305.851	45.281	0.006	-0.005
-304.837	-30.525	0.234	0.130
-303.822	-133.267	-0.172	-0.021
-302.807	294.756	0.134	-0.240
-301.793	200.674	0.214	-0.322
-300.778	50.055	0.036	0.033
-299.764	0.319	0.140	-0.098
-298.749	87.495	-0.126	0.137
-297.735	69.629	0.246	-0.248
-296.720	-5.067	0.197	0.133
-295.705	-37.822	-0.210	0.109
-294.691	-105.144	0.192	-0.043
-293.676	-200.000	-0.016	-0.099
-292.662	79.013	-0.094	0.099
-291.647	-22.673	0.371	0.219
-290.632	-200.000	0.007	0.073
-289.618	135.262	0.152	-0.193
-288.603	-63.127	-0.331	0.134
-287.589	165.625	-0.180	-0.249
-286.574	-200.000	0.060	-0.347
-285.559	8.632	0.129	-0.095
-284.545	238.771	0.082	-0.134
-283.530	-61.861	-0.099	-0.041
-282.516	-46.788	0.049	0.023
-281.501	-17.075	0.276	-0.171
-280.486	-13.486	0.332	-0.211
-279.472	800.000	0.060	0.177
-278.457	44.139	0.165	-0.148
-277.443	-104.539	-0.328	0.074
-276.428	23.048	0.208	0.167
-275.413	484.959	0.062	-0.137
-274.399	67.078	-0.198	-0.198
-273.384	800.000	-0.067	-0.242
-272.370	71.836	0.090	0.091
-271.355	328.159	0.096	0.181
-270.340	28.163	0.278	-0.229
-269.326	67.563	0.119	0.119
-268.311	717.178	-0.136	0.354
-267.297	47.044	-0.073	0.066
-266.282	-169.493	0.360	0.013
-265.267	276.600	0.108	0.187
-264.253	83.345	-0.101	-0.107
-263.238	-54.007	-0.104	-0.046
-262.224	256.082	0.096	-0.161
-261.209	300.404	-0.101	0.183
-260.195	-25.593	-0.091	-0.052
-259.180	-119.883	0.142	-0.024
-258.165	-81.317	0.179	-0.058
-257.151	246.548	0.097	-0.160
-256.136	-150.847	-0.215	-0.016
-255.122	-36.687	-0.262	-0.138
-254.107	147.104	0.254	0.334
-253.092	208.047	0.052	0.080
-252.078	407.148	-0.067	-0.138
-251.063	-189.278	-0.185	-0.002
-250.049	-51.464	0.269	-0.123
-249.034	53.644	-0.084	0.079
-248.019	-114.454	0.202	0.038
-247.005	-200.000	0.006	0.154
-245.990	-165.675	0.146	0.006
-244.976	449.748	0.102	-0.219
-243.961	34.663	-0.287	0.245
-242.946	32.502	-0.125	0.106
-241.932	235.954	0.117	0.189
-240.917	405.406	-0.085	-0.175
-239.903	-141.089	0.354	-0.035
-238.888	-200.000	-0.043	0.416
-237.873	59.125	0.174	-0.167
-236.859	236.221	-0.162	0.262
-235.844	800.000	0.018	-0.051
-234.830	800.000	0.013	0.054
-233.815	800.000	0.096	-0.389
-232.800	184.986	-0.072	0.104
-231.786	-58.591	0.089	-0.038
-230.771	-5.929	-0.096	0.064
-229.757	107.095	0.245	0.284
-228.742	-35.964	0.195	-0.103
-227.727	300.122	-0.042	0.075
-226.713	800.000	0.135	0.425
-225.698	301.675	0.060	-0.108
-224.684	129.930	-0.100	-0.125
-223.669	-150.550	-0.130	0.010
-222.655	62.966	-0.167	0.163
-221.640	-88.939	-0.256	-0.074
-220.625	67.424	0.164	0.163
-219.611	267.703	-0.030	0.051
-218.596	378.179	-0.059	-0.118
-217.582	-79.900	0.039	0.013
-216.567	-200.000	0.007	-0.135
-215.552	-66.667	0.018	0.007
-214.538	-200.000	-0.001	0.189
-213.523	-200.000	-0.016	0.100
-212.509	-150.368	0.339	0.025
-211.494	125.129	0.182	-0.223
-210.479	-200.000	-0.040	-0.228
-209.465	124.983	0.176	-0.216
-208.450	-23.324	0.229	-0.135
-207.436	-127.608	-0.245	0.035
-206.421	39.316	0.272	0.238
-205.406	-81.415	0.205	-0.066
-204.392	-109.195	0.186	0.039
-203.377	800.000	-0.025	0.106
-202.363	57.853	-0.074	-0.070
-201.348	121.093	0.285	-0.346
-200.333	762.714	0.037	-0.099
-199.319	800.000	0.078	-0.284
-198.304	-108.946	0.201	0.042
-197.290	800.000	-0.077	0.223
-196.275	-139.597	0.261	-0.027
-195.260	-200.000	0.030	0.227
-194.246	268.266	0.286	0.489
-193.231	83.303	0.177	0.188
-192.217	-74.095	0.252	-0.089
-191.202	-29.696	-0.075	-0.042
-190.187	-200.000	-0.023	-0.171
-189.173	18.790	0.086	0.067
-188.158	-180.238	0.424	0.009
-187.144	-189.834	0.183	0.002
-186.129	-200.000	-0.061	0.407
-185.114	-125.139	-0.245	-0.037
-184.100	781.719	-0.213	0.568
-183.085	-200.000	-0.042	0.323
-182.071	-25.715	-0.167	-0.096
-181.056	107.845	0.195	0.227
-180.042	-25.079	-0.319	-0.184
-179.027	-32.127	0.098	-0.053
-178.012	-37.758	-0.171	0.088
-176.998	800.000	-0.072	-0.221
-175.983	51.685	0.176	0.164
-174.969	-200.000	0.007	0.163
-173.954	-38.217	-0.171	0.088
-172.939	800.000	0.072	0.205
-171.925	-61.396	0.111	-0.045
-170.910	800.000	-0.077	-0.233
-169.896	-13.194	-0.012	-0.008
-168.881	-94.742	-0.136	-0.036
-167.866	495.482	0.057	0.128
-166.852	106.353	-0.175	0.202
-165.837	-200.000	-0.010	0.162
-164.823	-71.718	0.123	-0.045
-163.808	682.756	-0.179	-0.456
-162.793	800.000	0.035	0.144
-161.779	800.000	-0.040	0.125
-160.764	370.540	-0.106	0.210
-159.750	-116.536	0.318	0.057
-158.735	330.665	-0.184	-0.346
-157.720	124.783	-0.046	-0.057
-156.706	113.450	0.286	0.338
-155.691	-31.854	-0.204	-0.111
-154.677	-88.636	0.485	-0.141
-153.662	127.518	-0.196	-0.242
-152.647	-73.125	-0.161	0.057
-151.633	-161.074	-0.310	0.016
-150.618	488.837	-0.060	-0.134
-149.604	-133.843	0.230	0.028
-148.589	320.940	-0.102	0.190
-147.574	-55.897	-0.029	-0.013
-146.560	-58.399	0.394	0.167
-145.545	-200.000	0.026	-0.273
-144.531	-200.000	-0.001	-0.188
-143.516	-131.164	-0.187	-0.024
-142.502	800.000	0.031	0.112
-141.487	-15.488	-0.101	0.063
-140.472	-25.619	-0.049	0.028
-139.458	-91.510	-0.202	-0.056
-138.443	800.000	-0.102	0.305
-137.429	-200.000	0.023	0.155
-136.414	-44.681	0.248	0.120
-135.399	-200.000	-0.056	0.300
-134.385	4.662	-0.080	-0.057
-133.370	-79.630	0.295	-0.097
-132.356	142.910	0.413	0.535
-131.341	59.606	0.081	-0.077
-130.326	-147.832	-0.099	-0.008
-129.312	266.608	-0.117	-0.199
-128.297	8.574	-0.050	-0.036
-127.283	800.000	-0.025	0.077
-126.268	24.237	0.057	-0.046
-125.253	24.466	-0.223	-0.179
-124.239	87.492	-0.134	-0.144
-123.224	800.000	0.106	-0.297
-122.210	445.653	-0.087	-0.186
-121.195	800.000	0.092	-0.368
-120.180	128.862	0.117	-0.146
-119.166	167.319	-0.151	0.208
-118.151	-117.050	0.098	-0.017
-117.137	-77.769	0.171	-0.058
-116.122	70.428	0.061	-0.061
-115.107	239.610	-0.132	-0.214
-114.093	167.815	0.133	-0.184
-113.078	141.909	-0.272	0.350
-112.064	-86.989	0.343	0.102
-111.049	-82.500	-0.133	0.042
-110.034	-157.199	0.328	0.019
-109.020	172.986	0.009	0.013
-108.005	299.783	0.160	-0.287
-106.991	800.000	0.026	-0.089
-105.976	555.692	-0.170	0.397
-104.962	312.505	-0.028	-0.051
-103.947	-43.022	-0.229	0.113
-102.932	800.000	0.146	0.480
-101.918	-200.000	0.068	0.403
-100.903	-6.721	-0.087	-0.057
-99.889	-88.995	0.357	0.103
-98.874	-200.000	0.042	0.289
-97.859	-200.000	0.059	-0.261
-96.845	-200.000	-0.004	0.120
-95.830	-120.766	-0.218	-0.036
-94.816	36.296	0.086	0.074
-93.801	721.747	0.089	0.230
-92.786	-90.094	0.223	-0.063
-91.772	-94.309	-0.098	0.026
-90.757	-98.508	-0.190	-0.047
-89.743	221.087	0.041	0.064
-88.728	-200.000	-0.024	0.272
-87.713	-200.000	0.045	0.349
-86.699	196.263	0.065	0.097
-85.684	-200.000	-0.001	0.117
-84.670	128.543	-0.092	-0.114
-83.655	37.584	0.077	-0.066
-82.640	-117.956	0.320	-0.056
-81.626	-35.117	-0.149	-0.079
-80.611	-45.595	-0.237	0.114
-79.597	-143.458	0.203	0.019
-78.582	-14.742	0.169	-0.106
-77.567	-89.719	0.087	-0.025
-76.553	-200.000	-0.002	-0.268
-75.538	-39.276	0.170	-0.087
-74.524	-168.547	-0.263	0.010
-73.509	-200.000	-0.017	-0.112
-72.494	795.945	-0.170	0.455
-71.480	58.522	0.069	-0.065
-70.465	-200.000	-0.212	0.000
-69.451	91.739	-0.101	0.111
-68.436	-88.112	0.175	0.051
-67.422	800.000	0.090	-0.269
-66.407	-95.820	-0.089	-0.023
-65.392	800.000	-0.053	0.156
-64.378	-129.986	0.212	0.028
-63.363	-138.477	0.453	-0.048
-62.349	-52.548	-0.178	0.080
-61.334	186.417	-0.963	-1.392
-60.319	158.975	0.561	0.756
-59.305	800.000	-0.565	-1.587
-58.290	281.057	1.049	1.821
-57.276	800.000	0.372	1.340
-56.261	-200.000	135.254	684.335
-55.246	341.431	1677.068	3179.959
-54.232	134.165	2815.174	3539.368
-53.217	83.011	2312.824	2440.924
-52.203	29.887	1910.670	1579.457
-51.188	24.117	1705.512	1365.703
-50.173	22.171	1667.116	1320.295
-49.159	44.269	1741.283	1550.103
-48.144	41.178	1750.379	1534.371
-47.130	23.666	1701.380	1358.725
-46.115	21.190	1685.959	1327.554
-45.100	21.066	1681.080	1322.724
-44.086	21.068	1677.836	1320.132
-43.071	21.045	1675.760	1318.274
-42.057	20.939	1673.527	1315.663
-41.042	20.994	1671.812	1314.673
-40.027	21.000	1669.674	1312.987
-39.013	20.973	1668.039	1311.444
-37.998	20.900	1666.682	1309.781
-36.984	20.947	1665.534	1309.178
-35.969	20.963	1663.871	1307.937
-34.954	21.163	1662.074	1307.975
-33.940	21.172	1660.161	1306.484
-32.925	21.063	1658.953	1304.668
-31.911	20.963	1657.382	1302.628
-30.896	20.980	1655.522	1301.244
-29.881	21.127	1653.844	1300.971
-28.867	21.099	1652.518	1299.666
-27.852	21.132	1650.930	1298.608
-26.838	21.123	1649.539	1297.402
-25.823	21.161	1648.338	1296.685
-24.809	21.171	1647.232	1295.841
-23.794	21.119	1645.915	1294.367
-22.779	21.122	1644.444	1293.176
-21.765	21.103	1642.440	1291.412
-20.750	21.065	1640.927	1289.892
-19.736	21.137	1639.622	1289.344
-18.721	21.200	1638.267	1288.689
-17.706	21.184	1636.386	1287.046
-16.692	21.193	1635.245	1286.159
-15.677	21.149	1634.303	1285.045
-14.663	21.162	1632.668	1283.808
-13.648	21.245	1631.061	1283.098
-12.633	21.137	1629.551	1281.069
-11.619	21.099	1628.615	1280.005
-10.604	21.076	1626.944	1278.472
-9.590	21.271	1625.246	1278.515
-8.575	21.204	1624.249	1277.189
-7.560	21.197	1622.811	1275.958
-6.546	21.140	1622.368	1275.140
-5.531	21.214	1621.193	1274.706
-4.517	21.137	1620.150	1273.277
-3.502	21.106	1618.754	1271.897
-2.487	21.244	1616.927	1271.415
-1.473	20.862	1604.018	1258.457
-0.458	17.663	1585.247	1220.802
0.556	12.931	1587.577	1188.921
1.571	10.861	1611.438	1191.530
2.586	10.537	1624.191	1198.454
3.600	9.937	1569.075	1153.403
4.615	5.623	1464.075	1047.325
5.629	1.458	1407.924	980.240
6.644	0.743	1401.272	970.935
7.659	0.592	1400.867	969.597
8.673	0.687	1399.839	969.409
9.688	0.668	1397.161	967.347
10.702	0.522	1393.833	964.025
11.717	2.564	1396.390	978.762
12.731	8.593	1405.195	1023.517
13.746	14.669	1414.608	1069.312
14.761	17.033	1417.525	1086.578
15.775	16.582	1416.166	1082.553
16.790	15.644	1412.890	1073.964
17.804	14.781	1411.326	1067.167
18.819	14.528	1409.614	1064.164
19.834	14.203	1408.453	1061.123
20.848	14.049	1406.997	1058.953
21.863	13.818	1405.672	1056.390
22.877	13.578	1404.353	1053.778
23.892	13.486	1403.492	1052.451
24.907	13.467	1403.480	1052.233
25.921	13.612	1401.910	1051.880
26.936	13.629	1400.665	1050.963
27.950	13.710	1399.760	1050.705
28.965	13.643	1399.089	1049.683
29.980	13.690	1398.188	1049.213
30.994	13.713	1397.200	1048.523
32.009	13.813	1395.945	1048.122
33.023	13.832	1394.828	1047.305
34.038	13.804	1393.697	1046.188
35.053	13.695	1392.780	1044.721
36.067	13.773	1391.493	1044.156
37.082	13.765	1390.942	1043.601
38.096	13.772	1390.003	1042.846
39.111	13.740	1388.971	1041.776
40.126	13.718	1388.035	1040.843
41.140	13.600	1387.299	1039.461
42.155	13.621	1387.066	1039.329
43.169	13.643	1386.866	1039.224
44.184	13.587	1386.463	1038.480
45.199	13.509	1386.483	1037.913
46.213	13.587	1385.442	1037.528
47.228	13.708	1383.985	1037.106
48.242	13.715	1382.758	1036.133
49.257	13.714	1381.943	1035.424
50.271	13.675	1380.275	1033.839
51.286	13.758	1378.754	1033.131
52.301	13.704	1377.295	1031.608
53.315	13.652	1376.303	1030.447
54.330	13.590	1376.131	1029.844
55.344	13.617	1373.908	1028.257
56.359	13.628	1372.802	1027.405
57.374	13.606	1372.296	1026.800
58.388	13.506	1371.935	1025.820
59.403	13.575	1370.604	1025.161
60.417	13.564	1370.280	1024.762
61.432	13.597	1369.172	1024.046
62.447	13.564	1368.317	1023.113
63.461	13.514	1367.099	1021.805
64.476	13.612	1365.790	1021.335
65.490	13.448	1364.714	1019.433
66.505	13.510	1363.061	1018.489
67.520	13.602	1361.961	1018.140
68.534	13.552	1360.827	1016.900
69.549	13.525	1359.454	1015.619
70.563	13.599	1358.613	1015.352
71.578	13.576	1357.249	1014.098
72.593	13.527	1356.035	1012.802
73.607	13.447	1355.940	1012.157
74.622	13.481	1354.534	1011.226
75.636	13.448	1354.153	1010.646
76.651	13.302	1353.709	1009.338
77.666	13.487	1352.443	1009.431
78.680	13.469	1352.304	1009.130
79.695	13.428	1351.138	1007.916
80.709	13.395	1350.850	1007.416
81.724	13.587	1349.580	1007.547
82.739	13.590	1348.864	1006.940
83.753	13.605	1347.963	1006.268
84.768	13.812	1346.686	1006.485
85.782	13.758	1345.595	1005.250
86.797	13.677	1344.281	1003.690
87.812	13.642	1342.650	1002.172
88.826	13.555	1342.003	1001.076
89.841	13.693	1340.331	1000.571
90.855	13.648	1339.707	999.743
91.870	13.772	1338.816	999.738
92.884	13.722	1338.183	998.879
93.899	13.729	1337.419	998.261
94.914	13.832	1335.986	997.722
95.928	13.789	1335.352	996.903
96.943	13.751	1334.478	995.931
97.957	13.695	1333.688	994.923
98.972	13.773	1332.433	994.361
99.987	13.641	1331.993	993.154
101.001	13.670	1330.799	992.352
102.016	13.683	1329.894	991.666
103.030	13.629	1328.669	990.342
104.045	13.775	1327.309	990.116
105.060	13.696	1326.512	988.961
106.074	13.727	1324.905	987.858
107.089	13.556	1323.664	985.825
108.103	13.490	1322.824	984.725
109.118	13.571	1321.448	984.096
110.133	13.533	1319.919	982.643
111.147	13.653	1318.710	982.367
112.162	13.692	1316.941	981.192
113.176	13.595	1316.545	980.234
114.191	13.628	1315.633	979.663
115.206	13.683	1314.123	978.778
116.220	13.645	1312.907	977.565
117.235	13.722	1311.718	977.046
118.249	13.659	1311.234	976.228
119.264	13.737	1309.963	975.652
120.279	13.709	1308.917	974.621
121.293	13.604	1307.710	973.024
122.308	13.695	1306.640	972.671
123.322	13.637	1305.663	971.521
124.337	13.542	1305.004	970.387
125.352	13.579	1303.867	969.672
126.366	13.579	1302.591	968.638
127.381	13.627	1300.917	967.584
128.395	13.635	1299.944	966.827
129.410	13.568	1299.236	965.822
130.424	13.553	1298.422	965.046
131.439	13.625	1297.127	964.414
132.454	13.702	1296.244	964.119
133.468	13.682	1295.214	963.152
134.483	13.720	1294.244	962.569
135.497	13.635	1293.524	961.454
136.512	13.736	1291.852	960.710
137.527	13.676	1290.735	959.451
138.541	13.739	1288.817	958.303
139.556	13.693	1287.996	957.339
140.570	13.783	1286.598	956.734
141.585	13.791	1285.417	955.821
142.600	13.801	1284.704	955.259
143.614	13.862	1283.635	954.734
144.629	13.916	1282.154	953.860
145.643	13.940	1281.171	953.182
146.658	13.904	1279.565	951.693
147.673	13.706	1279.039	950.087
148.687	13.901	1277.394	949.896
149.702	13.771	1276.316	948.263
150.716	13.771	1275.141	947.310
151.731	13.745	1273.997	946.225
152.746	13.784	1272.535	945.281
153.760	13.837	1271.431	944.675
154.775	13.965	1270.303	944.483
155.789	13.899	1269.432	943.377
156.804	13.958	1268.177	942.696
157.819	13.976	1267.167	941.966
158.833	14.023	1266.077	941.337
159.848	14.014	1265.077	940.458
160.862	14.062	1263.859	939.740
161.877	14.038	1262.674	938.644
162.892	13.934	1261.786	937.312
163.906	13.972	1260.925	936.802
164.921	13.964	1260.126	936.080
165.935	14.087	1259.388	936.140
166.950	14.088	1258.218	935.197
167.964	13.984	1258.039	934.396
168.979	14.056	1257.012	933.956
169.994	13.985	1256.625	933.187
171.008	14.126	1255.127	932.782
172.023	14.162	1254.121	932.152
173.037	14.144	1253.694	931.653
174.052	14.120	1253.103	930.998
175.067	14.070	1251.805	929.668
176.081	14.055	1250.581	928.594
177.096	14.102	1249.862	928.241
178.110	14.057	1248.683	927.034
179.125	14.092	1247.362	926.167
180.140	14.105	1246.170	925.271
181.154	14.129	1245.118	924.540
182.169	14.118	1243.839	923.449
183.183	14.274	1242.276	923.072
184.198	14.239	1241.147	921.957
185.213	14.270	1240.243	921.373
186.227	14.268	1238.866	920.262
187.242	14.421	1237.622	920.099
188.256	14.415	1237.204	919.671
189.271	14.289	1236.516	918.384
190.286	14.266	1234.892	916.970
191.300	14.204	1234.216	916.047
192.315	14.153	1233.333	915.032
193.329	14.203	1232.948	914.939
194.344	14.208	1232.228	914.351
195.359	14.256	1231.677	914.124
196.373	14.380	1231.091	914.292
197.388	14.467	1230.544	914.278
198.402	14.405	1230.486	913.817
199.417	14.356	1229.486	912.723
200.432	14.481	1228.790	912.811
201.446	14.504	1228.603	912.714
202.461	14.541	1226.851	911.539
203.475	14.577	1225.642	910.755
204.490	14.638	1224.619	910.247
205.504	14.605	1223.066	908.832
206.519	14.611	1221.722	907.787
207.534	14.493	1221.154	906.639
208.548	14.491	1219.674	905.452
209.563	14.525	1218.915	904.990
210.577	14.509	1218.267	904.346
211.592	14.592	1217.628	904.242
212.607	14.652	1216.303	903.502
213.621	14.575	1215.652	902.523
214.636	14.713	1214.552	902.369
215.650	14.571	1213.808	900.968
216.665	14.598	1212.800	900.287
217.680	14.743	1212.155	900.512
218.694	14.809	1211.300	900.154
219.709	14.653	1210.786	898.851
220.723	14.800	1209.591	898.677
221.738	14.761	1208.581	897.635
222.753	14.769	1207.724	896.965
223.767	14.768	1207.107	896.417
224.782	14.880	1206.882	896.775
225.796	14.928	1206.188	896.436
226.811	14.868	1204.967	895.126
227.826	14.858	1204.592	894.716
228.840	14.874	1203.600	893.984
229.855	14.886	1203.115	893.611
230.869	14.984	1201.847	893.111
231.884	14.939	1201.206	892.318
232.899	14.876	1200.634	891.477
233.913	14.849	1199.911	890.721
234.928	14.879	1199.182	890.259
235.942	14.855	1198.571	889.599
236.957	14.746	1198.020	888.531
237.972	14.991	1196.808	888.855
238.986	14.913	1196.048	887.796
240.001	14.891	1195.311	887.058
241.015	14.978	1194.449	886.796
242.030	14.899	1193.461	885.570
243.045	15.020	1192.607	885.496
244.059	15.105	1191.595	885.117
245.074	15.112	1190.822	884.498
246.088	15.189	1190.178	884.348
247.103	15.127	1189.488	883.434
248.117	15.094	1188.655	882.560
249.132	15.164	1188.099	882.441
250.147	15.242	1187.459	882.295
251.161	15.342	1185.995	881.657
252.176	15.283	1185.772	881.102
253.190	15.301	1185.236	880.721
254.205	15.467	1184.489	880.961
255.220	15.392	1183.971	880.101
256.234	15.438	1183.373	879.820
257.249	15.360	1182.791	878.901
258.263	15.436	1181.841	878.514
259.278	15.345	1181.870	877.985
260.293	15.479	1180.322	877.457
261.307	15.394	1180.657	877.183
262.322	15.521	1179.515	876.923
263.336	15.482	1178.826	876.127
264.351	15.570	1178.187	876.036
265.366	15.501	1177.511	875.092
266.380	15.401	1177.153	874.229
267.395	15.477	1175.967	873.667
268.409	15.539	1175.048	873.232
269.424	15.656	1174.597	873.423
270.439	15.425	1174.210	871.861
271.453	15.558	1173.402	871.874
272.468	15.556	1172.422	871.055
273.482	15.564	1171.446	870.295
274.497	15.578	1170.969	869.938
275.512	15.513	1170.402	869.101
276.526	15.693	1169.313	869.150
277.541	15.645	1168.882	868.504
278.555	15.588	1168.236	867.650
279.570	15.645	1167.460	867.290
280.585	15.680	1166.426	866.628
281.599	15.777	1165.505	866.365
282.614	15.882	1164.313	865.943
283.628	15.766	1163.336	864.542
284.643	15.722	1162.687	863.760
285.657	15.798	1161.883	863.473
286.672	15.814	1160.749	862.638
287.687	15.756	1160.024	861.728
288.701	15.790	1159.395	861.358
289.716	15.869	1158.468	860.994
290.730	15.874	1157.498	860.226
291.745	15.925	1156.623	859.760
292.760	15.838	1156.282	858.986
293.774	15.868	1155.923	858.793
294.789	16.027	1155.071	858.897
295.803	15.999	1154.542	858.287
296.818	15.862	1153.766	856.933
297.833	15.957	1152.980	856.758
298.847	15.997	1151.642	855.893
299.862	15.967	1151.288	855.399
300.876	16.047	1150.469	855.123
301.891	16.069	1149.792	854.657
302.906	16.122	1148.989	854.251
303.920	16.043	1148.755	853.599
304.935	16.106	1147.712	853.071
305.949	16.169	1146.818	852.648
306.964	16.265	1146.447	852.784
307.979	16.152	1145.682	851.569
308.993	16.181	1144.698	850.906
310.008	16.273	1144.039	850.807
311.022	16.162	1143.373	849.676
312.037	16.289	1142.129	849.314
313.052	16.315	1141.068	848.579
314.066	16.124	1140.438	847.076
315.081	16.209	1139.619	846.820
316.095	16.245	1139.131	846.562
317.110	16.155	1138.471	845.550
318.125	16.281	1137.533	845.409
319.139	16.218	1136.928	844.568
320.154	16.221	1136.716	844.351
321.168	16.017	1136.229	842.894
322.183	16.201	1135.468	843.174
323.197	16.308	1134.100	842.618
324.212	16.308	1133.564	842.146
325.227	16.263	1133.378	841.706
326.241	16.454	1131.900	841.484
327.256	16.390	1131.480	840.779
328.270	16.196	1130.981	839.369
329.285	16.331	1129.753	839.054
330.300	16.414	1128.563	838.509
331.314	16.353	1128.143	837.820
332.329	16.415	1126.825	837.075
333.343	16.281	1126.751	836.283
334.358	16.457	1125.164	835.899
335.373	16.460	1124.666	835.474
336.387	16.397	1124.070	834.644
337.402	16.487	1122.960	834.192
338.416	16.498	1122.513	833.839
339.431	16.536	1121.742	833.380
340.446	16.640	1120.746	833.080
341.460	16.736	1120.083	832.982
342.475	16.712	1119.149	832.100
343.489	16.654	1118.629	831.352
344.504	16.815	1117.263	831.051
345.519	16.795	1116.669	830.441
346.533	16.764	1115.733	829.517
347.548	16.765	1115.369	829.179
348.562	16.721	1114.643	828.352
349.577	16.802	1113.761	828.021
350.592	16.747	1112.780	826.948
351.606	16.752	1112.331	826.564
352.621	16.705	1111.654	825.760
353.635	16.729	1110.770	825.149
354.650	16.638	1110.329	824.305
355.665	16.747	1109.275	823.978
356.679	16.958	1108.665	824.477
357.694	16.795	1108.252	823.307
358.708	16.730	1107.669	822.485
359.723	16.972	1106.641	822.822
360.738	16.831	1106.623	822.051
361.752	16.875	1105.725	821.527
362.767	16.853	1105.420	821.120
363.781	16.940	1104.381	820.697
364.796	16.958	1104.105	820.506
365.810	16.948	1103.263	819.760
366.825	16.982	1102.560	819.328
367.840	17.160	1102.121	819.789
368.854	17.147	1101.494	819.185
369.869	17.063	1100.873	818.246
370.883	16.994	1099.929	817.142
371.898	17.096	1098.958	816.837
372.913	17.140	1098.589	816.702
373.927	17.197	1097.966	816.443
374.942	17.196	1097.371	815.921
375.956	17.288	1096.805	815.871
376.971	17.170	1096.178	814.765
377.986	17.164	1096.005	814.539
379.000	17.151	1095.407	813.958
380.015	17.303	1094.551	813.979
381.029	17.301	1093.424	813.057
382.044	17.335	1093.036	812.862
383.059	17.358	1092.483	812.487
384.073	17.382	1091.598	811.874
385.088	17.516	1090.527	811.642
386.102	17.437	1089.666	810.550
387.117	17.318	1088.774	809.250
388.132	17.215	1088.118	808.202
389.146	17.377	1086.900	807.997
390.161	17.323	1086.368	807.273
391.175	17.437	1085.323	806.967
392.190	17.471	1084.607	806.521
393.205	17.436	1084.073	805.886
394.219	17.413	1083.558	805.327
395.234	17.557	1082.178	804.909
396.248	17.444	1081.371	803.702
397.263	17.540	1080.420	803.376
398.278	17.541	1079.693	802.771
399.292	17.476	1079.076	801.934
400.307	17.492	1078.626	801.606
401.321	17.501	1077.832	800.986
402.336	17.546	1076.835	800.388
403.350	17.480	1076.450	799.720
404.365	17.352	1076.021	798.729
405.380	17.580	1075.097	799.043
406.394	17.529	1074.435	798.238
407.409	17.618	1073.635	797.991
408.423	17.762	1072.539	797.780
409.438	17.642	1072.108	796.831
410.453	17.707	1071.628	796.703
411.467	17.829	1070.579	796.424
412.482	17.727	1069.804	795.301
413.496	17.833	1069.057	795.167
414.511	17.931	1068.448	795.105
415.526	17.844	1068.421	794.607
416.540	17.951	1067.997	794.719
417.555	17.895	1067.374	793.925
418.569	17.922	1066.740	793.506
419.584	17.911	1066.140	792.943
420.599	17.987	1065.789	792.962
421.613	109.913	1333.298	1493.159
422.628	101.636	1372.180	1493.228
