DTS Sentinel unit serial number:	SN413079Multiplexer serial number:	ORYXHardware model number:	OX4-SRSoftware version number:	ORYX F/W v4.00 Oryx Data Collector v3.7.2.0data status	okinstallation	princeton_trtdifferential loss correction	single-endedforward channel	channel 2reverse channel	N/Adate	2019/09/13time	16:47:35forward acquisition time	60.00reverse acquisition time	0.00gamma	496.2192k internal	0.2316k external	0.2316temperature offset calibration	1.0216default loss term (dB/km)	0.3790temperature slope calibration	1.0000multiplexer offset coefficient	1.0000multiplexer slope coefficient	1.0000fibre end	0.00T internal ref (°C)	34.94T ext. ref 1 (°C)	4.93T ext. ref 2 (°C)	29.89length (m)	temperature (°C)	Stokes	anti-Stokes-747.200	-200.000	0.044	0.280
-746.185	39.918	0.317	0.289
-745.171	5.497	0.113	0.085
-744.156	-59.058	-0.183	-0.080
-743.142	800.000	0.039	-0.109
-742.127	800.000	0.049	0.188
-741.112	800.000	0.034	0.098
-740.098	-139.592	-0.182	0.020
-739.083	54.326	0.267	0.261
-738.069	59.946	-0.259	-0.259
-737.054	-200.000	-0.024	-0.261
-736.039	106.090	-0.060	0.072
-735.025	36.382	0.176	0.157
-734.010	-200.000	-0.341	-0.001
-732.996	-200.000	-0.008	-0.083
-731.981	-132.448	-0.268	0.035
-730.966	800.000	0.052	-0.173
-729.952	-200.000	0.040	-0.426
-728.937	12.599	-0.120	-0.094
-727.923	18.414	0.133	0.107
-726.908	-200.000	-0.001	-0.304
-725.894	800.000	0.020	-0.076
-724.879	57.939	0.322	0.320
-723.864	-178.754	-0.298	-0.007
-722.850	40.724	-0.353	-0.322
-721.835	800.000	0.128	-0.384
-720.821	-107.459	0.187	0.042
-719.806	71.448	-0.251	0.264
-718.791	46.657	-0.119	-0.112
-717.777	309.367	-0.157	-0.298
-716.762	-119.759	-0.391	-0.068
-715.748	-38.703	-0.166	0.089
-714.733	-85.795	-0.260	0.082
-713.718	36.281	0.364	-0.324
-712.704	-167.821	-0.225	0.009
-711.689	-25.666	-0.147	0.088
-710.675	-25.315	-0.176	0.105
-709.660	-39.612	-0.149	-0.079
-708.645	-200.000	-0.042	-0.419
-707.631	-18.061	-0.199	-0.126
-706.616	177.563	0.118	0.174
-705.602	23.946	0.261	-0.218
-704.587	82.462	0.215	0.237
-703.572	800.000	0.113	0.395
-702.558	-200.000	-0.012	-0.086
-701.543	30.222	0.356	-0.307
-700.529	53.957	0.169	-0.164
-699.514	-12.963	0.141	-0.093
-698.499	40.543	0.123	-0.112
-697.485	120.265	0.126	0.158
-696.470	-200.000	-0.005	0.060
-695.456	-147.503	-0.145	0.012
-694.441	104.909	0.198	-0.236
-693.426	-29.729	0.394	-0.227
-692.412	67.034	0.316	0.326
-691.397	-200.000	0.035	-0.174
-690.383	-63.741	0.326	-0.135
-689.368	800.000	-0.035	-0.112
-688.354	248.280	0.122	0.208
-687.339	59.782	0.204	-0.204
-686.324	24.751	0.208	0.174
-685.310	-200.000	0.038	0.306
-684.295	-19.602	-0.200	0.125
-683.281	-28.177	0.399	0.233
-682.266	-134.119	-0.213	0.027
-681.251	-81.651	-0.223	0.074
-680.237	688.000	-0.045	-0.119
-679.222	467.486	-0.052	-0.117
-678.208	-200.000	0.008	0.049
-677.193	-46.659	-0.266	-0.131
-676.178	800.000	-0.160	-0.524
-675.164	575.086	0.067	-0.166
-674.149	65.529	-0.231	-0.236
-673.135	-200.000	0.005	-0.328
-672.120	0.022	0.072	-0.052
-671.105	325.110	0.023	-0.044
-670.091	211.094	-0.039	-0.063
-669.076	-68.868	0.210	-0.082
-668.062	140.081	-0.182	0.243
-667.047	-106.188	-0.045	-0.010
-666.032	800.000	0.059	-0.210
-665.018	13.904	0.190	0.149
-664.003	-200.000	-0.040	-0.189
-662.989	-200.000	0.013	-0.138
-661.974	114.190	-0.222	-0.273
-660.959	-33.633	-0.056	0.031
-659.945	-148.539	-0.294	-0.024
-658.930	-129.723	0.063	-0.009
-657.916	40.569	-0.206	-0.188
-656.901	190.139	0.115	0.175
-655.886	800.000	-0.094	-0.298
-654.872	47.983	-0.113	-0.107
-653.857	-200.000	-0.014	0.174
-652.843	39.731	-0.156	-0.141
-651.828	-133.338	0.313	0.040
-650.814	-67.082	-0.193	-0.077
-649.799	201.085	-0.156	0.243
-648.784	152.049	-0.143	0.197
-647.770	307.477	-0.073	-0.138
-646.755	-200.000	0.023	0.106
-645.741	46.661	0.143	0.134
-644.726	-96.373	0.225	-0.060
-643.711	-173.897	0.082	-0.002
-642.697	-40.249	-0.429	-0.225
-641.682	-44.196	-0.015	0.007
-640.668	655.561	0.140	0.362
-639.653	48.330	-0.306	-0.289
-638.638	-55.127	-0.315	-0.143
-637.624	800.000	-0.041	-0.152
-636.609	-145.336	-0.196	0.018
-635.595	167.065	-0.094	0.135
-634.580	60.967	-0.145	0.145
-633.565	-166.813	-0.273	0.011
-632.551	-200.000	-0.029	-0.182
-631.536	101.647	-0.027	0.031
-630.522	142.766	0.187	0.251
-629.507	-82.208	-0.059	-0.019
-628.492	800.000	-0.107	-0.371
-627.478	28.348	-0.148	-0.126
-626.463	233.188	0.060	-0.099
-625.449	-200.000	0.008	-0.179
-624.434	-162.102	-0.335	-0.017
-623.419	354.916	0.095	-0.190
-622.405	-200.000	0.009	-0.241
-621.390	85.061	-0.130	-0.144
-620.376	75.169	-0.250	0.266
-619.361	-200.000	0.018	-0.104
-618.346	355.483	-0.179	-0.360
-617.332	32.924	0.039	0.034
-616.317	-200.000	0.040	0.183
-615.303	-134.719	0.042	0.005
-614.288	-21.820	0.159	0.098
-613.273	32.910	-0.114	-0.099
-612.259	-200.000	0.029	-0.275
-611.244	-200.000	0.036	0.283
-610.230	8.881	0.393	0.298
-609.215	607.097	0.168	-0.422
-608.201	-121.673	0.180	-0.030
-607.186	-20.706	0.074	-0.046
-606.171	-6.859	0.083	0.057
-605.157	-120.957	0.228	0.039
-604.142	-200.000	0.027	0.121
-603.128	-64.818	-0.083	0.034
-602.113	77.125	-0.115	0.124
-601.098	-155.745	0.084	-0.005
-600.084	6.699	-0.111	0.083
-599.069	202.108	-0.102	-0.159
-598.055	681.456	-0.047	0.122
-597.040	327.576	-0.093	-0.179
-596.025	-71.083	-0.209	0.079
-595.011	-200.000	-0.000	-0.001
-593.996	-200.000	0.008	-0.332
-592.982	-55.609	0.207	-0.093
-591.967	-17.526	-0.066	-0.042
-590.952	800.000	-0.052	0.196
-589.938	28.470	0.089	-0.076
-588.923	-53.715	-0.350	0.161
-587.909	-200.000	0.023	0.313
-586.894	232.728	-0.116	0.192
-585.879	-200.000	-0.018	0.185
-584.865	23.407	-0.129	0.107
-583.850	-101.318	0.204	-0.050
-582.836	-134.489	0.144	0.018
-581.821	133.145	0.195	-0.254
-580.806	-50.292	0.278	-0.132
-579.792	-200.000	-0.142	0.000
-578.777	-26.094	0.510	0.302
-577.763	-42.087	-0.314	0.162
-576.748	28.228	0.167	-0.142
-575.733	-175.202	0.242	-0.007
-574.719	800.000	-0.031	0.114
-573.704	286.359	0.085	0.155
-572.690	-142.570	-0.067	0.007
-571.675	7.036	0.098	0.073
-570.661	29.906	-0.082	-0.070
-569.646	119.414	0.144	0.180
-568.631	63.706	0.203	0.205
-567.617	51.498	0.145	0.139
-566.602	-200.000	0.058	0.303
-565.588	11.221	0.155	-0.120
-564.573	-149.810	0.200	-0.016
-563.558	-26.099	0.374	0.221
-562.544	-145.402	-0.155	-0.014
-561.529	79.590	-0.315	0.340
-560.515	182.826	0.105	0.157
-559.500	-18.306	0.190	-0.120
-558.485	92.041	-0.166	-0.188
-557.471	122.492	-0.209	-0.263
-556.456	-111.998	-0.539	0.109
-555.442	800.000	-0.049	-0.139
-554.427	27.747	-0.268	-0.227
-553.412	-66.289	0.112	0.045
-552.398	-36.765	-0.046	-0.025
-551.383	-200.000	0.028	0.318
-550.369	-109.715	0.210	0.044
-549.354	-146.135	0.465	0.041
-548.339	800.000	0.034	0.146
-547.325	523.633	0.032	-0.075
-546.310	-200.000	-0.004	-0.174
-545.296	-115.218	-0.561	0.107
-544.281	-180.842	0.375	0.008
-543.266	680.967	-0.096	-0.251
-542.252	251.901	0.149	-0.255
-541.237	-85.921	-0.213	-0.066
-540.223	183.857	-0.073	-0.108
-539.208	-20.723	-0.074	-0.046
-538.193	-200.000	0.026	0.149
-537.179	-116.131	0.264	0.049
-536.164	-54.907	-0.368	-0.167
-535.150	-41.847	0.293	-0.151
-534.135	5.040	-0.214	0.159
-533.121	-91.965	-0.076	-0.022
-532.106	35.833	-0.044	0.039
-531.091	9.979	0.108	0.082
-530.077	135.725	0.236	-0.309
-529.062	-103.106	0.376	0.090
-528.048	-81.073	-0.328	0.109
-527.033	-41.349	0.354	0.183
-526.018	195.629	-0.170	0.260
-525.004	202.390	-0.151	0.234
-523.989	2.566	-0.130	0.095
-522.975	-25.140	-0.152	0.090
-521.960	-200.000	0.194	0.001
-520.945	-200.000	0.031	-0.237
-519.931	-111.321	-0.035	0.007
-518.916	-169.316	-0.094	0.003
-517.902	215.732	-0.165	-0.264
-516.887	88.390	-0.183	-0.204
-515.872	257.168	0.117	0.201
-514.858	-200.000	0.015	-0.131
-513.843	-92.892	-0.229	-0.064
-512.829	-166.354	-0.209	-0.009
-511.814	-97.487	-0.030	-0.008
-510.799	56.412	0.037	0.036
-509.785	-87.799	0.167	0.051
-508.770	33.420	0.120	-0.105
-507.756	173.595	-0.066	-0.096
-506.741	-153.148	-0.313	-0.022
-505.726	-114.405	0.239	-0.046
-504.712	-200.000	-0.048	-0.347
-503.697	800.000	-0.038	-0.120
-502.683	135.352	-0.201	0.262
-501.668	-76.073	-0.280	-0.099
-500.653	-69.128	-0.286	0.110
-499.639	90.158	-0.254	0.285
-498.624	365.453	0.149	-0.300
-497.610	-132.765	0.145	-0.019
-496.595	4.691	0.064	-0.047
-495.581	-127.367	-0.412	0.060
-494.566	-200.000	-0.030	-0.141
-493.551	800.000	0.070	-0.301
-492.537	-200.000	-0.149	-0.717
-491.522	-154.027	-0.181	-0.012
-490.508	80.606	-0.194	0.210
-489.493	100.402	-0.072	-0.084
-488.478	181.596	0.174	-0.257
-487.464	538.695	-0.063	-0.150
-486.449	800.000	0.028	-0.110
-485.435	-200.000	0.005	-0.029
-484.420	399.742	0.117	0.246
-483.405	-3.832	0.092	0.064
-482.391	800.000	0.057	-0.192
-481.376	-23.760	0.061	0.037
-480.362	800.000	-0.146	0.497
-479.347	5.174	0.157	-0.116
-478.332	136.997	0.236	0.309
-477.318	-88.646	-0.091	0.027
-476.303	399.850	0.072	0.152
-475.289	-8.628	-0.383	-0.258
-474.274	160.992	-0.091	0.127
-473.259	-65.253	0.277	-0.112
-472.245	-164.048	0.043	-0.002
-471.230	262.029	-0.218	0.380
-470.216	-16.097	-0.147	0.094
-469.201	-93.144	-0.155	0.043
-468.186	-134.826	0.379	0.046
-467.172	-39.649	0.188	0.099
-466.157	95.533	-0.311	0.356
-465.143	-173.541	0.027	-0.001
-464.128	24.934	0.183	-0.152
-463.113	-181.639	0.164	-0.003
-462.099	421.416	0.078	0.168
-461.084	-200.000	-0.000	0.156
-460.070	-200.000	-0.030	0.228
-459.055	46.419	0.066	-0.062
-458.040	535.979	-0.032	0.077
-457.026	452.675	0.068	0.150
-456.011	105.237	0.105	0.124
-454.997	-154.843	0.304	0.020
-453.982	106.469	0.090	-0.107
-452.968	125.208	0.272	0.344
-451.953	336.790	-0.148	0.288
-450.938	-200.000	0.049	0.267
-449.924	436.397	-0.077	-0.169
-448.909	-7.221	-0.337	-0.229
-447.895	77.657	0.210	-0.224
-446.880	109.135	-0.191	0.228
-445.865	174.696	-0.178	0.258
-444.851	-200.000	-0.030	-0.142
-443.836	800.000	0.039	0.120
-442.822	-150.148	-0.245	-0.019
-441.807	-200.000	0.021	0.108
-440.792	800.000	0.033	-0.095
-439.778	800.000	-0.024	-0.095
-438.763	-134.688	-0.317	-0.039
-437.749	406.012	-0.073	-0.154
-436.734	70.327	0.148	-0.153
-435.719	-67.121	-0.408	0.161
-434.705	394.456	0.163	-0.340
-433.690	166.923	0.130	0.185
-432.676	-200.000	0.006	-0.125
-431.661	230.782	-0.163	-0.268
-430.646	-32.182	0.188	0.105
-429.632	-200.000	0.061	0.310
-428.617	-132.288	0.341	0.044
-427.603	800.000	-0.026	-0.094
-426.588	160.418	0.054	-0.076
-425.573	538.431	-0.060	0.142
-424.559	-183.844	0.215	0.004
-423.544	-69.415	-0.242	0.093
-422.530	-194.588	-0.048	0.000
-421.515	75.746	0.319	0.337
-420.500	394.453	-0.128	0.266
-419.486	-200.000	-0.063	0.365
-418.471	800.000	0.050	0.212
-417.457	75.523	-0.153	-0.162
-416.442	95.292	-0.217	-0.247
-415.428	-200.000	-0.057	0.354
-414.413	79.562	0.165	-0.177
-413.398	-200.000	0.015	-0.085
-412.384	77.836	-0.078	0.083
-411.369	-144.992	0.155	-0.014
-410.355	-150.083	-0.354	-0.027
-409.340	-79.847	-0.460	-0.155
-408.325	-73.086	0.424	-0.156
-407.311	-200.000	0.012	-0.162
-406.296	301.745	-0.072	-0.132
-405.282	63.979	0.222	-0.223
-404.267	800.000	0.039	-0.163
-403.252	-200.000	0.032	0.400
-402.238	145.000	-0.063	-0.084
-401.223	-103.694	-0.226	-0.053
-400.209	-98.888	-0.181	0.046
-399.194	-47.522	0.101	-0.049
-398.179	315.950	0.009	0.016
-397.165	-19.616	0.271	-0.168
-396.150	-200.000	0.012	-0.204
-395.136	-69.251	0.098	-0.038
-394.121	-68.839	-0.183	-0.071
-393.106	-200.000	-0.008	-0.134
-392.092	-20.579	0.062	-0.038
-391.077	16.563	0.164	0.130
-390.063	-170.248	0.124	-0.004
-389.048	-139.020	0.377	0.041
-388.033	-46.869	-0.226	-0.111
-387.019	208.622	-0.111	0.174
-386.004	-160.600	-0.294	0.016
-384.990	-146.123	-0.336	0.030
-383.975	800.000	-0.065	0.273
-382.960	-128.017	0.035	-0.005
-381.946	19.836	-0.271	-0.218
-380.931	-130.968	-0.184	-0.025
-379.917	77.392	-0.122	-0.130
-378.902	124.684	0.116	-0.146
-377.888	-200.000	-0.050	0.241
-376.873	800.000	0.063	0.202
-375.858	-57.478	0.279	0.122
-374.844	201.446	-0.087	-0.133
-373.829	-34.510	0.194	0.106
-372.815	800.000	-0.031	-0.123
-371.800	-105.145	0.258	0.059
-370.785	-184.077	0.210	0.003
-369.771	230.632	-0.228	0.372
-368.756	7.652	0.236	-0.177
-367.742	15.284	-0.194	-0.152
-366.727	78.287	0.016	0.017
-365.712	-200.000	0.001	-0.356
-364.698	-48.773	-0.317	-0.152
-363.683	563.230	-0.086	0.209
-362.669	-200.000	-0.083	-0.379
-361.654	220.767	0.140	-0.224
-360.639	-119.384	-0.071	0.012
-359.625	31.220	0.221	0.189
-358.610	200.811	0.112	-0.171
-357.596	-120.706	0.325	-0.055
-356.581	157.991	0.176	-0.244
-355.566	28.403	0.174	-0.147
-354.552	-97.316	0.145	-0.038
-353.537	800.000	-0.143	0.466
-352.523	-11.953	0.104	-0.068
-351.508	156.824	-0.132	-0.182
-350.493	-93.703	0.247	0.068
-349.479	-116.745	-0.165	-0.030
-348.464	82.833	-0.186	0.202
-347.450	-200.000	-0.034	0.160
-346.435	-92.562	-0.180	0.050
-345.420	80.624	-0.245	0.263
-344.406	-200.000	0.011	-0.221
-343.391	784.716	-0.041	0.111
-342.377	173.114	-0.119	0.171
-341.362	-200.000	0.044	0.221
-340.348	-200.000	-0.018	0.249
-339.333	-173.197	-0.134	0.004
-338.318	-200.000	-0.033	-0.321
-337.304	-40.803	0.242	0.125
-336.289	-62.931	0.198	-0.082
-335.275	202.921	-0.190	-0.293
-334.260	800.000	-0.094	-0.309
-333.245	90.508	0.093	0.103
-332.231	-117.400	0.139	-0.025
-331.216	-200.000	0.000	0.174
-330.202	-8.500	-0.192	-0.128
-329.187	-200.000	-0.004	-0.385
-328.172	-52.038	0.187	0.087
-327.158	28.896	0.152	-0.128
-326.143	-78.911	-0.170	-0.058
-325.129	443.015	-0.092	0.200
-324.114	182.377	-0.059	-0.087
-323.099	-200.000	-0.004	0.078
-322.085	69.876	0.107	-0.110
-321.070	214.644	0.121	-0.191
-320.056	441.195	-0.032	-0.069
-319.041	-200.000	-0.017	-0.128
-318.026	800.000	-0.067	-0.229
-317.012	628.403	-0.074	0.185
-315.997	31.851	0.105	0.090
-314.983	163.880	-0.149	0.209
-313.968	-111.286	0.204	0.042
-312.953	72.345	0.500	-0.519
-311.939	13.377	-0.140	0.108
-310.924	-122.500	-0.218	0.035
-309.910	-71.278	-0.379	-0.142
-308.895	-154.372	-0.183	0.012
-307.880	-18.594	0.294	-0.182
-306.866	-78.631	-0.181	0.061
-305.851	-200.000	0.018	-0.267
-304.837	498.986	-0.151	0.346
-303.822	-102.072	-0.359	0.086
-302.807	-177.837	0.190	0.005
-301.793	-156.842	-0.122	0.007
-300.778	293.731	-0.119	0.217
-299.764	-73.992	0.366	-0.132
-298.749	-128.665	0.214	0.030
-297.735	11.656	-0.119	0.091
-296.720	-123.562	0.115	0.018
-295.705	-200.000	-0.026	0.373
-294.691	-200.000	-0.018	0.435
-293.676	-47.448	0.414	0.200
-292.662	-161.138	0.236	0.012
-291.647	800.000	-0.048	0.158
-290.632	231.096	0.142	-0.232
-289.618	800.000	-0.096	-0.314
-288.603	-138.789	0.175	-0.019
-287.589	614.933	-0.056	0.140
-286.574	652.041	-0.021	0.055
-285.559	16.675	0.235	-0.185
-284.545	-86.388	0.236	-0.072
-283.530	-200.000	-0.012	0.072
-282.516	-135.065	-0.244	0.029
-281.501	-192.214	0.212	0.002
-280.486	216.722	0.042	0.066
-279.472	800.000	0.155	0.434
-278.457	-29.829	0.235	0.133
-277.443	-15.131	0.226	-0.144
-276.428	800.000	-0.082	0.339
-275.413	-43.185	-0.185	-0.093
-274.399	535.504	-0.093	0.220
-273.384	413.664	-0.063	-0.134
-272.370	-200.000	-0.046	0.300
-271.355	-102.592	-0.526	-0.125
-270.340	-10.685	0.158	-0.104
-269.326	-32.117	0.147	-0.082
-268.311	282.246	-0.125	-0.224
-267.297	101.727	-0.071	-0.082
-266.282	14.848	-0.170	0.132
-265.267	170.469	0.019	-0.027
-264.253	-200.000	0.029	0.276
-263.238	-200.000	-0.003	-0.031
-262.224	-109.162	0.327	-0.069
-261.209	38.615	0.259	0.230
-260.195	-200.000	0.037	0.320
-259.180	207.922	0.191	0.296
-258.165	153.081	-0.044	-0.060
-257.151	800.000	-0.019	0.068
-256.136	92.599	-0.194	0.217
-255.122	126.622	-0.215	0.271
-254.107	-27.574	0.203	-0.117
-253.092	-164.528	-0.287	0.013
-252.078	-200.000	0.013	-0.082
-251.063	154.648	0.045	0.061
-250.049	128.558	0.122	0.155
-249.034	-18.710	-0.063	0.039
-248.019	-70.235	0.162	-0.061
-247.005	-67.112	0.332	0.130
-245.990	164.176	0.105	0.147
-244.976	-81.604	-0.044	-0.014
-243.961	69.173	-0.142	0.145
-242.946	12.199	-0.187	0.143
-241.932	2.650	0.294	0.212
-240.917	-122.046	0.030	0.005
-239.903	14.428	0.157	0.121
-238.888	-200.000	-0.089	0.432
-237.873	-106.095	-0.329	0.073
-236.859	91.408	-0.046	-0.051
-235.844	10.279	-0.046	-0.035
-234.830	2.618	-0.072	-0.052
-233.815	-30.225	-0.165	0.093
-232.800	-200.000	0.000	0.021
-231.786	-3.931	0.126	0.087
-230.771	-200.000	-0.064	-0.570
-229.757	93.361	0.052	0.059
-228.742	-152.327	-0.127	0.009
-227.727	-55.110	0.095	0.042
-226.713	151.388	0.112	0.152
-225.698	-200.000	0.070	0.314
-224.684	-200.000	0.030	0.181
-223.669	-58.166	0.116	-0.050
-222.655	800.000	0.075	0.227
-221.640	-50.080	0.080	0.037
-220.625	-200.000	0.005	-0.333
-219.611	-200.000	-0.008	-0.116
-218.596	146.482	0.199	-0.265
-217.582	398.112	0.086	-0.178
-216.567	169.533	0.097	-0.137
-215.552	66.936	-0.104	-0.105
-214.538	605.344	-0.038	0.094
-213.523	11.472	0.304	-0.231
-212.509	98.573	0.121	0.139
-211.494	-50.715	-0.115	-0.054
-210.479	81.482	0.120	-0.129
-209.465	11.505	-0.168	-0.128
-208.450	-200.000	-0.032	-0.362
-207.436	774.642	-0.051	-0.139
-206.421	-199.789	-0.105	0.001
-205.406	-16.662	0.251	0.158
-204.392	-95.332	-0.270	-0.072
-203.377	-200.000	-0.021	-0.166
-202.363	800.000	-0.065	0.197
-201.348	-87.133	0.290	-0.088
-200.333	-200.000	-0.030	-0.466
-199.319	-7.509	0.285	0.191
-198.304	-162.020	0.275	0.014
-197.290	-38.401	0.194	-0.102
-196.275	-105.131	-0.160	-0.036
-195.260	133.590	-0.037	0.048
-194.246	135.106	0.208	0.268
-193.231	180.171	-0.075	0.109
-192.217	-24.875	-0.061	-0.036
-191.202	-29.340	-0.457	-0.259
-190.187	-162.984	-0.165	-0.008
-189.173	-200.000	0.051	-0.264
-188.158	-35.215	0.300	-0.162
-187.144	-106.851	0.257	-0.056
-186.129	-200.000	-0.016	0.274
-185.114	-7.039	0.379	-0.255
-184.100	-93.484	-0.360	-0.099
-183.085	40.852	0.225	-0.201
-182.071	-143.719	0.137	0.013
-181.056	-13.274	-0.155	0.100
-180.042	-198.460	-0.327	-0.002
-179.027	-200.000	0.075	-0.368
-178.012	2.358	0.280	-0.201
-176.998	-200.000	0.044	-0.244
-175.983	606.108	-0.013	0.033
-174.969	-109.907	-0.327	-0.068
-173.954	-53.600	0.288	-0.130
-172.939	60.390	0.225	0.221
-171.925	-83.147	-0.166	-0.053
-170.910	274.424	-0.085	0.149
-169.896	-200.000	-0.010	0.153
-168.881	-38.173	-0.038	-0.020
-167.866	800.000	-0.140	-0.500
-166.852	-200.000	-0.006	-0.257
-165.837	-77.550	0.192	-0.066
-164.823	800.000	-0.028	0.098
-163.808	-28.895	-0.248	-0.141
-162.793	458.693	-0.045	-0.099
-161.779	-200.000	0.003	0.257
-160.764	91.873	-0.129	0.144
-159.750	260.789	-0.077	0.131
-158.735	14.221	0.045	0.034
-157.720	29.456	-0.080	-0.067
-156.706	276.571	-0.070	-0.124
-155.691	800.000	0.046	-0.170
-154.677	-200.000	-0.026	-0.180
-153.662	-87.114	0.285	-0.086
-152.647	350.634	-0.153	-0.299
-151.633	-145.929	0.156	0.014
-150.618	-117.599	0.194	0.035
-149.604	800.000	-0.108	0.435
-148.589	-27.899	-0.110	-0.063
-147.574	-149.062	-0.178	0.014
-146.560	-184.168	0.204	0.003
-145.545	75.700	0.257	-0.268
-144.531	-81.578	0.094	0.030
-143.516	-200.000	-0.007	-0.394
-142.502	-68.024	-0.387	0.149
-141.487	-5.182	-0.286	-0.195
-140.472	-112.923	0.036	-0.007
-139.458	800.000	0.007	-0.018
-138.443	-200.000	0.008	0.683
-137.429	-143.929	-0.373	-0.035
-136.414	-41.178	0.232	-0.119
-135.399	-124.973	-0.230	0.035
-134.385	-200.000	0.016	0.355
-133.370	160.724	0.050	-0.069
-132.356	-54.340	0.437	-0.196
-131.341	-15.752	0.126	0.079
-130.326	-32.066	-0.292	-0.162
-129.312	-159.792	-0.285	-0.015
-128.297	110.329	-0.343	-0.408
-127.283	105.528	-0.190	-0.222
-126.268	32.165	0.157	-0.134
-125.253	70.221	-0.145	-0.149
-124.239	-90.282	0.133	0.038
-123.224	-77.507	-0.391	0.134
-122.210	-15.932	0.128	0.080
-121.195	-23.564	0.127	0.075
-120.180	800.000	0.025	-0.107
-119.166	-29.499	-0.198	0.112
-118.151	137.825	-0.149	-0.193
-117.137	-12.068	-0.071	0.046
-116.122	-167.443	0.148	-0.006
-115.107	-44.911	0.399	0.197
-114.093	320.281	0.185	0.347
-113.078	-41.122	0.265	0.135
-112.064	104.669	-0.165	0.193
-111.049	94.142	-0.080	-0.090
-110.034	567.386	0.090	0.217
-109.020	677.196	-0.028	-0.073
-108.005	-200.000	0.033	-0.352
-106.991	-161.780	0.243	0.012
-105.976	800.000	0.104	0.332
-104.962	-99.348	-0.151	0.038
-103.947	-200.000	0.003	0.083
-102.932	-117.631	0.178	-0.032
-101.918	49.410	0.199	-0.185
-100.903	447.768	0.059	-0.128
-99.889	-113.900	-0.184	0.035
-98.874	-200.000	-0.020	0.224
-97.859	-29.185	-0.197	0.112
-96.845	539.578	-0.040	-0.093
-95.830	-200.000	-0.045	0.338
-94.816	66.107	0.246	-0.247
-93.801	-200.000	-0.045	-0.407
-92.786	411.834	-0.030	0.062
-91.772	800.000	-0.099	-0.270
-90.757	34.826	-0.159	0.137
-89.743	-74.338	0.216	0.077
-88.728	-200.000	-0.025	0.147
-87.713	-125.901	-0.100	-0.015
-86.699	800.000	-0.034	0.128
-85.684	77.696	-0.200	-0.210
-84.670	-86.934	0.129	-0.039
-83.655	333.796	0.055	0.106
-82.640	118.481	0.221	0.269
-81.626	-200.000	-0.040	-0.505
-80.611	128.085	-0.046	-0.057
-79.597	-79.872	0.220	0.073
-78.582	76.598	0.105	-0.110
-77.567	-141.905	-0.211	-0.021
-76.553	12.808	0.112	-0.086
-75.538	372.456	0.065	-0.131
-74.524	-47.504	0.202	-0.097
-73.509	20.709	-0.082	0.066
-72.494	800.000	0.046	-0.159
-71.480	-200.000	-0.047	0.253
-70.465	134.930	0.199	0.255
-69.451	-28.664	0.127	-0.072
-68.436	86.129	0.122	0.133
-67.422	-200.000	0.017	0.220
-66.407	-54.932	-0.189	0.084
-65.392	157.850	-0.079	0.109
-64.378	-74.951	0.343	0.121
-63.363	51.054	-0.125	-0.117
-62.349	-192.695	0.171	-0.002
-61.334	36.660	-1.062	-0.925
-60.319	123.009	0.366	0.452
-59.305	800.000	0.148	-0.612
-58.290	400.050	0.366	0.757
-57.276	800.000	0.362	1.447
-56.261	-200.000	96.369	573.879
-55.246	656.591	1383.778	3506.503
-54.232	187.296	2608.657	3836.738
-53.217	117.882	2306.603	2801.670
-52.203	44.862	1919.187	1741.805
-51.188	38.326	1705.741	1498.158
-50.173	35.456	1660.638	1437.041
-49.159	52.564	1709.188	1609.331
-48.144	56.240	1726.557	1653.497
-47.130	38.027	1683.002	1475.692
-46.115	35.002	1667.942	1439.716
-45.100	34.828	1663.401	1434.436
-44.086	34.875	1660.369	1432.115
-43.071	34.762	1657.978	1429.151
-42.057	34.762	1655.360	1426.840
-41.042	34.893	1653.403	1426.067
-40.027	34.808	1651.949	1424.127
-39.013	34.882	1649.087	1422.155
-37.998	34.748	1647.957	1420.125
-36.984	34.803	1646.564	1419.275
-35.969	34.912	1645.165	1418.823
-34.954	34.989	1643.490	1417.897
-33.940	34.884	1641.546	1415.382
-32.925	34.921	1640.016	1414.280
-31.911	34.862	1638.256	1412.271
-30.896	34.900	1636.420	1410.914
-29.881	34.900	1634.919	1409.561
-28.867	34.986	1632.861	1408.369
-27.852	35.003	1630.968	1406.803
-26.838	34.948	1630.054	1405.557
-25.823	34.980	1628.256	1404.182
-24.809	34.960	1627.193	1403.060
-23.794	35.020	1625.772	1402.223
-22.779	34.993	1624.205	1400.617
-21.765	34.940	1622.710	1398.887
-20.750	34.947	1621.139	1397.526
-19.736	34.999	1619.548	1396.481
-18.721	35.083	1617.608	1395.364
-17.706	34.993	1616.279	1393.507
-16.692	34.898	1614.804	1391.485
-15.677	34.964	1613.054	1390.405
-14.663	34.935	1612.118	1389.331
-13.648	34.988	1610.672	1388.418
-12.633	34.979	1608.957	1386.815
-11.619	34.959	1607.827	1385.646
-10.604	34.981	1605.943	1384.126
-9.590	34.980	1605.163	1383.387
-8.575	34.915	1603.799	1381.684
-7.560	34.923	1602.586	1380.648
-6.546	34.978	1600.949	1379.576
-5.531	34.963	1599.807	1378.427
-4.517	34.989	1598.728	1377.637
-3.502	34.964	1597.861	1376.655
-2.487	34.915	1596.926	1375.440
-1.473	34.706	1585.060	1363.674
-0.458	31.747	1564.351	1324.912
0.556	29.929	1563.764	1285.790
1.571	26.846	1587.247	1283.213
2.586	25.597	1599.440	1284.042
3.600	22.418	1546.464	1219.426
4.615	13.983	1436.602	1078.184
5.629	6.337	1371.080	981.408
6.644	5.033	1362.132	966.837
7.659	4.906	1361.046	965.190
8.673	4.829	1360.564	964.287
9.688	4.932	1358.671	963.496
10.702	5.016	1356.169	962.154
11.717	8.635	1363.236	989.498
12.731	17.019	1378.576	1052.766
13.746	22.383	1386.615	1092.195
14.761	22.598	1385.829	1092.813
15.775	21.773	1383.369	1085.667
16.790	20.762	1381.052	1077.500
17.804	19.970	1378.579	1070.582
18.819	19.596	1377.186	1067.094
19.834	19.380	1376.165	1064.872
20.848	19.261	1375.244	1063.331
21.863	19.123	1373.630	1061.138
22.877	18.911	1372.874	1059.156
23.892	18.961	1372.089	1058.763
24.907	18.956	1370.889	1057.710
25.921	18.941	1369.930	1056.785
26.936	18.883	1369.511	1056.011
27.950	18.995	1368.264	1055.648
28.965	19.163	1367.267	1055.813
29.980	19.133	1366.308	1054.798
30.994	19.357	1364.949	1055.023
32.009	19.297	1364.272	1054.043
33.023	19.285	1362.882	1052.800
34.038	19.132	1361.771	1050.918
35.053	19.091	1360.188	1049.353
36.067	19.169	1358.990	1048.809
37.082	19.140	1358.119	1047.868
38.096	19.269	1356.739	1047.495
39.111	19.166	1356.729	1046.767
40.126	19.060	1355.542	1045.116
41.140	18.856	1354.701	1043.135
42.155	18.829	1353.757	1042.152
43.169	18.678	1353.758	1041.144
44.184	18.662	1353.527	1040.781
45.199	18.743	1353.299	1041.000
46.213	18.772	1352.983	1040.842
47.228	18.952	1352.088	1041.154
48.242	19.082	1350.860	1040.900
49.257	19.086	1349.187	1039.545
50.271	19.115	1347.780	1038.544
51.286	19.002	1346.733	1036.962
52.301	18.975	1345.377	1035.666
53.315	18.850	1344.268	1033.968
54.330	18.774	1343.021	1032.460
55.344	18.750	1341.667	1031.183
56.359	18.786	1340.852	1030.682
57.374	18.766	1340.003	1029.818
58.388	18.631	1339.003	1028.152
59.403	18.607	1338.795	1027.753
60.417	18.696	1337.563	1027.253
61.432	18.586	1337.348	1026.338
62.447	18.563	1335.796	1024.917
63.461	18.496	1334.266	1023.252
64.476	18.450	1333.562	1022.350
65.490	18.542	1332.052	1021.650
66.505	18.463	1330.905	1020.205
67.520	18.530	1329.690	1019.586
68.534	18.508	1328.850	1018.722
69.549	18.380	1328.394	1017.520
70.563	18.413	1326.964	1016.529
71.578	18.315	1325.671	1014.869
72.593	18.290	1325.011	1014.128
73.607	18.276	1324.096	1013.252
74.622	18.277	1323.351	1012.597
75.636	18.388	1322.477	1012.499
76.651	18.251	1322.265	1011.436
77.666	18.238	1321.844	1010.944
78.680	18.511	1320.942	1011.779
79.695	18.610	1320.373	1011.840
80.709	18.627	1319.697	1011.333
81.724	18.724	1318.971	1011.257
82.739	18.777	1318.189	1010.880
83.753	18.939	1317.545	1011.249
84.768	19.111	1316.393	1011.288
85.782	19.211	1315.433	1011.045
86.797	19.150	1314.424	1009.824
87.812	19.084	1312.832	1008.124
88.826	18.991	1311.972	1006.828
89.841	19.029	1310.947	1006.179
90.855	19.101	1310.404	1006.091
91.870	19.161	1309.171	1005.404
92.884	19.275	1308.329	1005.336
93.899	19.237	1307.768	1004.593
94.914	19.223	1306.951	1003.798
95.928	19.272	1305.979	1003.248
96.943	19.185	1305.193	1002.046
97.957	19.150	1304.055	1000.882
98.972	19.163	1303.073	1000.112
99.987	19.060	1301.965	998.577
101.001	19.241	1301.085	998.865
102.016	19.160	1300.463	997.830
103.030	19.274	1299.410	997.593
104.045	19.202	1298.222	996.178
105.060	19.057	1297.338	994.572
106.074	18.676	1296.049	991.293
107.089	18.554	1294.655	989.439
108.103	18.558	1293.229	988.283
109.118	18.460	1292.018	986.705
110.133	18.541	1290.557	985.968
111.147	18.540	1289.389	984.984
112.162	18.571	1287.891	983.929
113.176	18.687	1286.892	983.743
114.191	18.712	1286.250	983.309
115.206	18.779	1285.450	982.995
116.220	18.670	1283.782	981.008
117.235	18.679	1282.829	980.245
118.249	18.626	1281.769	979.049
119.264	18.547	1280.883	977.830
120.279	18.620	1279.479	977.090
121.293	18.550	1278.133	975.578
122.308	18.410	1277.317	974.070
123.322	18.360	1276.569	973.130
124.337	18.371	1275.163	972.033
125.352	18.301	1274.197	970.820
126.366	18.404	1272.780	970.232
127.381	18.397	1271.725	969.303
128.395	18.452	1270.780	968.812
129.410	18.444	1270.337	968.340
130.424	18.558	1269.199	968.033
131.439	18.707	1267.899	967.795
132.454	18.700	1267.745	967.550
133.468	18.628	1267.127	966.591
134.483	18.710	1266.392	966.406
135.497	18.648	1265.652	965.407
136.512	18.739	1264.297	964.799
137.527	18.821	1262.153	963.534
138.541	18.675	1261.292	961.973
139.556	18.925	1260.007	962.313
140.570	18.884	1259.374	961.511
141.585	18.964	1258.450	961.169
142.600	19.142	1256.576	960.645
143.614	19.125	1256.438	960.361
144.629	19.223	1255.219	959.891
145.643	19.156	1253.953	958.466
146.658	19.002	1252.414	956.344
147.673	18.829	1251.135	954.326
148.687	18.843	1249.854	953.338
149.702	18.655	1248.755	951.376
150.716	18.679	1246.979	950.069
151.731	18.663	1246.322	949.400
152.746	18.801	1244.687	948.833
153.760	18.834	1243.772	948.230
154.775	18.912	1243.148	948.105
155.789	18.899	1242.385	947.366
156.804	19.115	1240.878	947.324
157.819	19.085	1239.964	946.377
158.833	19.145	1239.287	946.104
159.848	19.287	1238.489	946.193
160.862	19.195	1237.489	944.837
161.877	18.937	1235.910	942.134
162.892	18.842	1234.589	940.525
163.906	18.783	1234.082	939.734
164.921	18.836	1233.178	939.253
165.935	18.831	1232.459	938.591
166.950	19.042	1231.606	939.011
167.964	18.980	1230.870	938.031
168.979	18.904	1229.922	936.809
169.994	18.852	1229.447	936.079
171.008	18.944	1228.853	936.045
172.023	19.059	1228.186	936.080
173.037	19.206	1227.355	936.164
174.052	19.046	1226.337	934.439
175.067	18.991	1224.756	932.853
176.081	18.789	1224.476	931.458
177.096	18.772	1222.991	930.156
178.110	18.823	1222.094	929.669
179.125	18.941	1220.703	929.166
180.140	18.968	1219.726	928.483
181.154	19.067	1218.385	927.916
182.169	19.123	1217.562	927.509
183.183	19.218	1216.614	927.215
184.198	19.174	1215.348	925.934
185.213	19.399	1214.149	926.144
186.227	19.338	1213.060	924.903
187.242	19.397	1212.199	924.482
188.256	19.542	1211.456	924.610
189.271	19.488	1210.504	923.514
190.286	19.314	1209.484	921.722
191.300	18.917	1208.065	918.438
192.315	18.722	1207.337	916.767
193.329	18.755	1207.124	916.695
194.344	18.919	1206.065	916.689
195.359	18.973	1206.127	916.944
196.373	19.101	1205.762	917.264
197.388	19.193	1205.265	917.297
198.402	19.358	1204.948	917.849
199.417	19.546	1204.212	918.209
200.432	19.647	1203.798	918.347
201.446	19.742	1202.988	918.155
202.461	19.780	1201.870	917.422
203.475	19.718	1200.835	916.224
204.490	19.476	1199.841	914.099
205.504	19.344	1198.370	912.199
206.519	19.426	1196.765	911.333
207.534	19.293	1196.026	909.989
208.548	19.356	1195.099	909.533
209.563	19.407	1194.068	908.935
210.577	19.467	1193.616	908.825
211.592	19.512	1192.672	908.264
212.607	19.645	1191.860	908.266
213.621	19.545	1191.220	907.174
214.636	19.554	1190.545	906.623
215.650	19.544	1189.691	905.840
216.665	19.701	1188.419	905.616
217.680	19.968	1187.508	906.240
218.694	19.811	1186.658	904.690
219.709	19.828	1185.988	904.190
220.723	19.782	1185.003	903.116
221.738	19.767	1184.516	902.590
222.753	19.765	1183.683	901.861
223.767	19.711	1183.345	901.241
224.782	19.886	1182.836	901.687
225.796	19.890	1182.396	901.294
226.811	19.864	1181.826	900.644
227.826	19.712	1180.863	899.038
228.840	19.732	1179.716	898.190
229.855	19.658	1178.938	897.135
230.869	19.664	1178.108	896.454
231.884	19.598	1177.147	895.304
232.899	19.570	1176.285	894.423
233.913	19.484	1175.699	893.450
234.928	19.594	1174.872	893.315
235.942	19.498	1174.021	892.089
236.957	19.490	1173.433	891.526
237.972	19.454	1172.919	890.868
238.986	19.468	1171.872	890.070
240.001	19.687	1170.852	890.345
241.015	19.607	1170.208	889.360
242.030	19.561	1169.871	888.789
243.045	19.699	1169.151	888.877
244.059	19.850	1168.264	888.895
245.074	19.717	1167.778	887.767
246.088	19.939	1166.736	888.032
247.103	19.949	1165.793	887.287
248.117	19.947	1165.362	886.873
249.132	20.251	1164.571	887.748
250.147	20.418	1164.279	888.299
251.161	20.462	1163.918	888.174
252.176	20.417	1162.972	887.140
253.190	20.672	1162.402	887.930
254.205	20.643	1161.910	887.330
255.220	20.703	1161.269	887.065
256.234	20.551	1160.868	885.904
257.249	20.651	1159.788	885.510
258.263	20.611	1159.067	884.680
259.278	20.603	1158.454	884.093
260.293	20.573	1158.358	883.790
261.307	20.599	1157.607	883.271
262.322	20.681	1157.195	883.293
263.336	20.658	1156.505	882.573
264.351	20.815	1155.867	882.804
265.366	20.755	1154.865	881.658
266.380	20.681	1154.490	880.915
267.395	20.884	1153.063	880.778
268.409	20.656	1152.360	879.008
269.424	20.610	1151.450	878.006
270.439	20.560	1151.399	877.638
271.453	20.652	1150.626	877.433
272.468	20.452	1149.239	875.289
273.482	20.326	1148.934	874.347
274.497	20.373	1148.598	874.252
275.512	20.519	1147.379	873.979
276.526	20.526	1146.772	873.476
277.541	20.582	1145.889	873.004
278.555	20.597	1145.145	872.435
279.570	20.722	1144.526	872.517
280.585	20.807	1144.128	872.560
281.599	20.942	1142.906	872.225
282.614	20.733	1142.190	870.557
283.628	20.679	1140.751	869.112
284.643	20.557	1140.050	867.893
285.657	20.670	1139.075	867.640
286.672	20.715	1138.076	867.027
287.687	20.652	1137.398	866.121
288.701	20.630	1136.540	865.279
289.716	20.647	1135.838	864.755
290.730	20.595	1135.369	864.059
291.745	20.696	1134.641	863.933
292.760	20.747	1134.269	863.826
293.774	20.884	1133.307	863.695
294.789	20.927	1133.366	863.879
295.803	21.015	1132.058	863.241
296.818	20.765	1131.372	861.405
297.833	20.768	1130.456	860.646
298.847	20.746	1129.847	859.996
299.862	20.738	1129.029	859.258
300.876	20.808	1128.166	858.871
301.891	20.880	1127.441	858.597
302.906	20.944	1127.162	858.621
303.920	21.186	1126.735	859.415
304.935	21.177	1126.152	858.848
305.949	21.289	1125.539	858.856
306.964	21.222	1125.013	858.051
307.979	21.258	1123.606	857.076
308.993	21.134	1122.866	855.830
310.008	21.265	1122.478	856.100
311.022	21.280	1121.445	855.309
312.037	21.343	1120.764	855.023
313.052	21.105	1119.846	853.084
314.066	21.100	1118.521	851.975
315.081	20.754	1118.093	849.885
316.095	20.610	1117.111	848.357
317.110	20.875	1116.073	848.786
318.125	20.800	1115.636	848.016
319.139	21.018	1114.337	848.013
320.154	20.899	1114.094	847.174
321.168	20.801	1113.921	846.489
322.183	20.902	1113.187	846.351
323.197	20.890	1112.768	845.896
324.212	20.938	1112.278	845.682
325.227	20.954	1111.791	845.314
326.241	21.070	1110.635	844.925
327.256	20.970	1109.825	843.750
328.270	20.924	1108.997	842.820
329.285	20.892	1108.435	842.168
330.300	20.981	1107.232	841.606
331.314	20.856	1106.242	840.178
332.329	20.961	1105.371	839.949
333.343	20.861	1104.960	839.078
334.358	21.259	1103.444	839.769
335.373	21.177	1102.919	838.899
336.387	21.311	1102.380	839.058
337.402	21.321	1101.296	838.209
338.416	21.360	1101.220	838.261
339.431	21.503	1100.520	838.339
340.446	21.525	1099.940	837.929
341.460	21.648	1099.656	838.226
342.475	21.699	1098.522	837.533
343.489	21.622	1097.867	836.589
344.504	21.669	1097.206	836.240
345.519	21.774	1095.985	835.736
346.533	21.939	1095.126	835.794
347.548	21.963	1094.551	835.393
348.562	21.951	1093.741	834.645
349.577	21.659	1092.514	832.245
350.592	21.485	1091.850	830.839
351.606	21.449	1090.785	829.784
352.621	21.430	1089.786	828.862
353.635	21.349	1089.838	828.442
354.650	21.292	1089.241	827.647
355.665	21.415	1088.232	827.391
356.679	21.586	1087.679	827.703
357.694	21.508	1087.280	826.957
358.708	21.658	1086.793	827.223
359.723	21.761	1085.587	826.719
360.738	21.649	1085.444	826.008
361.752	21.429	1085.295	824.782
362.767	21.669	1084.177	824.992
363.781	21.709	1083.672	824.722
364.796	21.698	1083.409	824.400
365.810	21.865	1083.057	824.842
366.825	22.043	1082.259	824.999
367.840	22.141	1081.562	824.853
368.854	22.182	1081.136	824.647
369.869	22.146	1080.381	823.831
370.883	22.041	1079.656	822.713
371.898	21.999	1078.356	821.453
372.913	21.886	1078.377	820.869
373.927	22.031	1077.762	821.008
374.942	22.215	1077.396	821.516
375.956	22.116	1076.426	820.240
376.971	21.989	1075.952	819.213
377.986	22.040	1075.473	819.014
379.000	22.169	1075.176	819.318
380.015	22.312	1074.488	819.386
381.029	22.372	1074.018	819.233
382.044	22.365	1073.123	818.446
383.059	22.282	1072.471	817.489
384.073	22.134	1071.674	816.123
385.088	22.327	1070.571	816.106
386.102	22.319	1069.630	815.278
387.117	22.132	1068.618	813.573
388.132	22.021	1067.464	812.105
389.146	21.973	1066.724	811.251
390.161	21.921	1066.210	810.548
391.175	22.060	1065.442	810.535
392.190	22.131	1064.494	810.069
393.205	22.196	1064.455	810.265
394.219	22.383	1063.181	810.085
395.234	22.269	1062.156	808.708
396.248	22.041	1061.000	806.712
397.263	22.000	1060.358	805.964
398.278	21.910	1059.643	804.935
399.292	21.959	1058.658	804.338
400.307	21.891	1057.935	803.406
401.321	21.779	1057.314	802.354
402.336	21.926	1057.045	802.748
403.350	21.911	1056.010	801.825
404.365	21.998	1055.471	801.743
405.380	22.124	1054.715	801.670
406.394	22.316	1054.157	802.051
407.409	22.247	1053.557	801.211
408.423	22.322	1052.837	800.931
409.438	22.433	1052.135	800.832
410.453	22.531	1051.419	800.664
411.467	22.637	1050.660	800.494
412.482	22.678	1050.420	800.428
413.496	22.584	1049.814	799.470
414.511	22.767	1049.110	799.691
415.526	22.914	1048.556	799.864
416.540	22.957	1048.082	799.625
417.555	22.938	1047.735	799.202
418.569	22.725	1047.308	797.844
419.584	22.834	1046.335	797.523
420.599	22.822	1045.994	797.142
421.613	154.679	1400.352	1789.011
422.628	141.779	1451.976	1789.110
