DTS Sentinel unit serial number:	SN413079Multiplexer serial number:	ORYXHardware model number:	OX4-SRSoftware version number:	ORYX F/W v4.00 Oryx Data Collector v3.7.2.0data status	okinstallation	princeton_trtdifferential loss correction	single-endedforward channel	channel 2reverse channel	N/Adate	2019/09/13time	05:07:35forward acquisition time	60.00reverse acquisition time	0.00gamma	496.2192k internal	0.2336k external	0.2336temperature offset calibration	1.0188default loss term (dB/km)	0.3790temperature slope calibration	1.0000multiplexer offset coefficient	1.0000multiplexer slope coefficient	1.0000fibre end	0.00T internal ref (°C)	26.44T ext. ref 1 (°C)	4.04T ext. ref 2 (°C)	20.88length (m)	temperature (°C)	Stokes	anti-Stokes-747.200	366.765	-0.069	0.140
-746.185	800.000	-0.046	0.136
-745.171	-48.035	0.183	0.089
-744.156	-41.613	-0.182	0.094
-743.142	409.024	-0.190	-0.404
-742.127	24.616	-0.408	0.339
-741.112	-117.624	-0.283	-0.051
-740.098	-77.607	-0.169	-0.059
-739.083	229.456	0.095	-0.156
-738.069	-82.246	0.288	-0.094
-737.054	-178.812	-0.141	0.003
-736.039	85.683	-0.167	0.184
-735.025	-90.548	0.064	0.018
-734.010	-51.265	-0.088	-0.041
-732.996	-151.124	-0.201	-0.015
-731.981	513.698	0.096	-0.225
-730.966	-101.803	-0.293	0.071
-729.952	158.239	-0.091	0.127
-728.937	-135.378	0.068	-0.008
-727.923	-34.211	-0.275	-0.151
-726.908	298.596	0.056	0.103
-725.894	800.000	0.081	-0.227
-724.879	153.178	-0.168	-0.231
-723.864	250.969	-0.083	-0.141
-722.850	-38.839	-0.193	-0.102
-721.835	379.673	0.076	-0.156
-720.821	-200.000	-0.042	-0.191
-719.806	459.307	-0.159	-0.355
-718.791	-200.000	-0.008	-0.269
-717.777	800.000	0.030	-0.110
-716.762	296.140	-0.071	0.131
-715.748	275.700	-0.123	-0.219
-714.733	-1.131	-0.371	0.263
-713.718	176.253	0.066	-0.097
-712.704	467.455	-0.129	-0.290
-711.689	228.360	0.154	0.252
-710.675	-47.051	0.173	-0.085
-709.660	58.599	-0.246	-0.243
-708.645	800.000	0.071	-0.217
-707.631	32.818	-0.185	-0.160
-706.616	96.458	-0.171	-0.196
-705.602	457.117	-0.126	0.281
-704.587	-66.352	-0.177	-0.071
-703.572	34.965	-0.094	0.083
-702.558	125.534	0.181	0.229
-701.543	0.652	0.324	-0.232
-700.529	37.456	0.105	0.093
-699.514	21.039	-0.057	-0.046
-698.499	-200.000	-0.039	-0.208
-697.485	-200.000	0.011	-0.233
-696.470	800.000	-0.118	-0.377
-695.456	-133.411	-0.168	-0.021
-694.441	-62.376	0.071	0.030
-693.426	-160.364	0.182	0.010
-692.412	-50.135	-0.323	0.153
-691.397	137.787	0.031	-0.041
-690.383	-200.000	0.001	-0.104
-689.368	55.811	0.271	-0.263
-688.354	-116.982	-0.213	-0.039
-687.339	-78.294	-0.239	-0.082
-686.324	-59.569	0.045	0.020
-685.310	-81.111	0.105	-0.035
-684.295	-200.000	0.014	0.109
-683.281	-35.329	0.106	0.058
-682.266	-200.000	-0.013	-0.156
-681.251	-200.000	-0.010	-0.130
-680.237	-200.000	-0.010	-0.094
-679.222	-32.895	-0.056	0.031
-678.208	81.889	-0.059	-0.064
-677.193	-200.000	-0.034	-0.329
-676.178	-15.870	0.027	-0.017
-675.164	-37.295	0.244	0.130
-674.149	-200.000	-0.029	-0.216
-673.135	64.254	0.013	-0.013
-672.120	14.742	-0.116	0.091
-671.105	-102.025	-0.099	-0.024
-670.091	-200.000	0.053	-0.456
-669.076	-200.000	-0.006	0.075
-668.062	32.109	-0.138	-0.119
-667.047	-67.877	0.407	-0.159
-666.032	-111.317	-0.108	-0.022
-665.018	-118.776	-0.233	-0.041
-664.003	800.000	-0.025	0.100
-662.989	-111.718	-0.216	0.044
-661.974	-81.137	-0.036	-0.012
-660.959	-200.000	-0.012	-0.181
-659.945	800.000	0.046	0.193
-658.930	800.000	-0.042	0.134
-657.916	-200.000	-0.027	0.232
-656.901	21.718	0.317	-0.259
-655.886	42.012	-0.115	-0.105
-654.872	-104.096	0.111	0.026
-653.857	749.381	0.029	-0.079
-652.843	-107.978	0.312	-0.068
-651.828	-137.914	-0.105	-0.012
-650.814	-35.284	-0.076	-0.041
-649.799	-200.000	-0.098	-0.443
-648.784	-145.893	-0.212	0.019
-647.770	-30.813	-0.218	0.123
-646.755	467.334	-0.071	0.159
-645.741	260.544	0.073	0.126
-644.726	36.566	-0.322	0.285
-643.711	671.261	-0.082	0.212
-642.697	99.546	0.103	0.119
-641.682	-178.171	0.124	0.003
-640.668	800.000	0.028	-0.092
-639.653	-23.718	0.008	-0.005
-638.638	114.286	0.100	-0.122
-637.624	403.936	-0.187	-0.394
-636.609	39.236	0.160	0.143
-635.595	-55.612	0.286	0.128
-634.580	-86.431	-0.319	0.098
-633.565	-77.786	0.341	0.118
-632.551	270.934	0.173	-0.305
-631.536	201.253	0.110	-0.169
-630.522	-200.000	0.002	0.284
-629.507	-71.425	-0.189	0.071
-628.492	-128.347	-0.295	-0.042
-627.478	14.795	0.296	0.232
-626.463	32.669	-0.058	0.050
-625.449	-200.000	0.015	-0.180
-624.434	-200.000	-0.031	0.175
-623.419	76.919	-0.141	0.149
-622.405	-113.993	-0.113	0.022
-621.390	-68.524	-0.419	0.162
-620.376	197.911	0.174	0.266
-619.361	-104.009	-0.257	-0.060
-618.346	-80.449	-0.265	-0.088
-617.332	-60.022	0.096	-0.041
-616.317	800.000	0.096	0.403
-615.303	-199.961	-0.229	0.001
-614.288	-131.635	-0.400	0.052
-613.273	-200.000	0.019	-0.222
-612.259	-119.865	-0.215	0.037
-611.244	-130.556	0.185	-0.025
-610.230	160.162	0.058	0.081
-609.215	-200.000	-0.015	0.234
-608.201	-200.000	-0.033	-0.206
-607.186	-154.547	-0.204	0.014
-606.171	-38.345	-0.176	0.093
-605.157	261.967	0.040	-0.070
-604.142	-7.973	0.307	0.207
-603.128	242.284	0.069	0.116
-602.113	-79.694	0.088	-0.030
-601.098	-151.601	0.266	-0.020
-600.084	-132.636	-0.068	-0.009
-599.069	151.155	0.069	-0.093
-598.055	-99.763	-0.177	-0.044
-597.040	-120.474	-0.290	-0.049
-596.025	-200.000	0.013	-0.352
-595.011	-200.000	-0.003	-0.084
-593.996	800.000	-0.014	0.040
-592.982	-121.227	0.245	0.041
-591.967	63.024	-0.207	-0.207
-590.952	2.852	-0.362	0.262
-589.938	-59.670	0.147	-0.063
-588.923	-200.000	-0.433	-0.002
-587.909	17.842	-0.143	-0.114
-586.894	29.815	0.099	-0.084
-585.879	-75.396	-0.211	-0.075
-584.865	-123.399	0.238	0.038
-583.850	-19.502	0.277	0.171
-582.836	-132.064	0.308	-0.040
-581.821	-34.446	0.140	-0.077
-580.806	-107.118	-0.396	-0.087
-579.792	-23.025	0.100	-0.060
-578.777	3.218	-0.040	-0.029
-577.763	-72.719	0.315	-0.116
-576.748	424.594	-0.095	0.205
-575.733	-200.000	-0.004	-0.181
-574.719	-61.875	0.104	0.043
-573.704	800.000	-0.098	-0.345
-572.690	3.251	0.133	0.097
-571.675	-74.466	-0.146	0.052
-570.661	-97.272	0.152	0.040
-569.646	-200.000	-0.031	-0.212
-568.631	66.460	-0.028	-0.029
-567.617	-83.719	0.053	0.017
-566.602	800.000	0.060	-0.182
-565.588	-41.598	-0.073	0.038
-564.573	-42.219	0.135	-0.069
-563.558	-200.000	0.039	-0.216
-562.544	280.746	0.111	0.198
-561.529	12.621	-0.175	-0.134
-560.515	-101.808	0.121	0.029
-559.500	-115.942	-0.175	0.032
-558.485	552.762	-0.140	-0.335
-557.471	220.615	0.198	-0.316
-556.456	99.808	-0.039	-0.045
-555.442	-31.457	-0.232	-0.130
-554.427	638.676	-0.093	-0.236
-553.412	361.623	-0.038	0.075
-552.398	-152.628	-0.114	0.008
-551.383	27.923	-0.213	0.179
-550.369	265.293	0.241	-0.419
-549.354	35.947	0.159	0.140
-548.339	46.256	0.118	-0.109
-547.325	-22.181	-0.146	0.088
-546.310	139.355	0.104	-0.137
-545.296	-141.225	-0.438	0.044
-544.281	-200.000	-0.036	-0.217
-543.266	5.342	-0.093	-0.069
-542.252	-133.710	0.283	-0.035
-541.237	144.268	-0.153	-0.203
-540.223	-58.403	-0.241	0.104
-539.208	225.191	-0.065	0.105
-538.193	-50.008	-0.230	0.109
-537.179	-61.118	0.086	0.036
-536.164	29.466	0.308	0.261
-535.150	800.000	0.111	0.340
-534.135	-140.817	-0.270	0.028
-533.121	-200.000	-0.024	0.360
-532.106	-112.609	0.102	-0.020
-531.091	30.451	-0.235	-0.200
-530.077	-200.000	-0.025	-0.280
-529.062	-20.202	0.082	0.050
-528.048	6.513	-0.285	-0.211
-527.033	-200.000	-0.006	-0.313
-526.018	-158.691	-0.099	-0.006
-525.004	229.305	-0.082	0.133
-523.989	22.947	0.306	0.250
-522.975	-58.584	-0.197	0.085
-521.960	-75.457	-0.141	-0.050
-520.945	800.000	0.058	0.189
-519.931	147.090	0.095	-0.127
-518.916	800.000	0.094	-0.281
-517.902	124.280	0.203	0.254
-516.887	-56.808	0.530	-0.233
-515.872	82.358	-0.217	0.235
-514.858	573.204	-0.139	0.337
-513.843	-63.341	0.174	-0.071
-512.829	-16.432	-0.107	0.068
-511.814	-200.000	0.002	-0.020
-510.799	-37.206	-0.056	0.030
-509.785	193.747	0.152	0.230
-508.770	132.587	0.076	0.097
-507.756	-200.000	0.017	-0.184
-506.741	633.294	-0.109	0.276
-505.726	-62.277	0.093	0.038
-504.712	131.744	-0.043	0.055
-503.697	-1.299	0.095	-0.066
-502.683	319.393	-0.041	-0.077
-501.668	-200.000	-0.006	0.316
-500.653	-52.515	0.216	-0.099
-499.639	-29.782	0.127	0.072
-498.624	472.580	0.079	0.178
-497.610	-36.652	-0.469	0.251
-496.595	800.000	-0.106	0.364
-495.581	14.537	-0.051	-0.039
-494.566	562.223	0.054	0.129
-493.551	2.544	-0.454	0.327
-492.537	665.831	-0.103	0.264
-491.522	-13.316	-0.089	-0.057
-490.508	153.182	0.165	0.225
-489.493	-98.827	-0.235	0.059
-488.478	-83.398	0.351	0.112
-487.464	-200.000	0.003	-0.115
-486.449	-95.985	0.205	-0.054
-485.435	-29.585	-0.039	-0.022
-484.420	-81.779	0.484	-0.158
-483.405	-66.313	-0.247	0.098
-482.391	28.494	0.223	-0.188
-481.376	-139.708	-0.217	0.023
-480.362	-86.365	-0.279	-0.085
-479.347	-13.047	-0.057	-0.037
-478.332	152.102	0.033	0.045
-477.318	-88.181	0.256	-0.076
-476.303	-200.000	0.031	0.291
-475.289	789.078	0.098	0.267
-474.274	24.139	0.336	-0.276
-473.259	26.527	-0.201	-0.167
-472.245	657.605	-0.092	-0.235
-471.230	86.594	0.048	-0.053
-470.216	800.000	-0.086	-0.299
-469.201	-200.000	0.057	-0.303
-468.186	-200.000	0.029	0.325
-467.172	-200.000	0.014	-0.152
-466.157	-73.920	-0.135	0.049
-465.143	-200.000	-0.004	0.097
-464.128	-186.512	-0.356	0.005
-463.113	31.963	0.341	-0.292
-462.099	-200.000	-0.001	0.187
-461.084	800.000	0.036	0.156
-460.070	338.298	-0.133	0.257
-459.055	-116.685	-0.285	-0.052
-458.040	800.000	0.124	-0.402
-457.026	432.691	0.161	-0.346
-456.011	-168.278	0.302	-0.012
-454.997	-132.429	-0.124	0.016
-453.982	-113.823	-0.047	-0.009
-452.968	-104.371	0.151	0.035
-451.953	173.577	-0.317	-0.454
-450.938	-200.000	-0.002	0.136
-449.924	561.249	0.146	0.351
-448.909	480.851	-0.031	-0.070
-447.895	152.309	0.164	-0.222
-446.880	130.427	0.402	-0.512
-445.865	-200.000	-0.010	0.169
-444.851	-1.750	0.290	0.202
-443.836	-172.904	-0.250	-0.008
-442.822	-200.000	0.060	0.407
-441.807	683.403	0.041	0.106
-440.792	274.111	0.209	-0.367
-439.778	-95.370	-0.110	0.029
-438.763	-94.207	-0.066	-0.018
-437.749	59.707	-0.139	-0.136
-436.734	-200.000	-0.014	-0.254
-435.719	800.000	0.106	-0.304
-434.705	-71.402	0.140	0.052
-433.690	-26.934	0.224	-0.130
-432.676	-200.000	0.038	-0.208
-431.661	-16.434	0.275	0.173
-430.646	6.030	0.369	-0.271
-429.632	-133.086	-0.079	-0.010
-428.617	55.964	-0.190	-0.182
-427.603	800.000	0.075	-0.242
-426.588	-116.110	-0.048	-0.009
-425.573	-149.340	-0.471	-0.037
-424.559	90.150	-0.076	-0.084
-423.544	-44.952	0.088	-0.043
-422.530	-32.131	-0.177	-0.098
-421.515	156.644	-0.324	-0.444
-420.500	398.716	0.098	-0.203
-419.486	-200.000	0.018	-0.106
-418.471	-83.367	-0.224	0.071
-417.457	-41.123	0.131	0.067
-416.442	451.750	0.143	0.312
-415.428	-200.000	0.020	-0.259
-414.413	-77.313	0.038	-0.013
-413.398	47.379	0.051	0.047
-412.384	-103.013	0.241	0.057
-411.369	-42.116	-0.056	-0.028
-410.355	7.245	-0.071	0.053
-409.340	-2.334	-0.193	0.134
-408.325	800.000	0.118	0.458
-407.311	-200.000	-0.015	0.364
-406.296	-121.441	-0.231	-0.038
-405.282	800.000	0.017	0.058
-404.267	85.103	0.128	-0.140
-403.252	257.137	0.074	-0.126
-402.238	-22.766	0.226	-0.135
-401.223	-127.658	0.303	0.043
-400.209	-7.131	0.168	0.113
-399.194	59.966	-0.088	0.086
-398.179	-37.087	-0.278	-0.147
-397.165	498.090	-0.063	-0.144
-396.150	226.223	-0.174	0.280
-395.136	267.710	-0.136	-0.236
-394.121	-108.930	-0.121	0.026
-393.106	-73.323	0.267	0.097
-392.092	-137.964	0.115	-0.013
-391.077	-145.394	-0.161	-0.014
-390.063	-200.000	-0.005	0.118
-389.048	105.504	0.258	0.302
-388.033	-161.068	0.131	0.007
-387.019	-51.035	-0.161	-0.075
-386.004	-200.000	-0.000	0.392
-384.990	628.914	0.018	0.046
-383.975	-200.000	0.012	0.241
-382.960	-19.717	0.214	0.131
-381.946	-85.125	0.135	-0.042
-380.931	93.023	0.210	-0.234
-379.917	-57.591	0.376	0.163
-378.902	-11.695	0.126	0.082
-377.888	176.224	-0.132	-0.190
-376.873	22.666	0.330	-0.267
-375.858	-200.000	0.035	-0.155
-374.844	800.000	0.096	0.278
-373.829	-36.810	-0.280	-0.149
-372.815	46.850	0.150	-0.138
-371.800	-17.567	0.199	-0.124
-370.785	800.000	-0.106	-0.340
-369.771	-86.384	-0.111	0.034
-368.756	-168.251	-0.085	0.003
-367.742	90.720	0.120	-0.133
-366.727	800.000	-0.033	0.136
-365.712	16.645	0.053	0.041
-364.698	-200.000	-0.051	0.240
-363.683	-97.792	0.098	0.025
-362.669	207.980	0.151	-0.233
-361.654	800.000	-0.021	0.074
-360.639	683.000	-0.027	-0.068
-359.625	-8.872	0.059	-0.039
-358.610	246.168	-0.208	0.346
-357.596	696.969	-0.108	0.282
-356.581	34.001	-0.263	-0.226
-355.566	-200.000	-0.020	-0.268
-354.552	-54.511	0.280	-0.126
-353.537	800.000	0.021	-0.079
-352.523	-168.092	-0.112	-0.004
-351.508	-200.000	-0.018	-0.144
-350.493	800.000	0.034	-0.131
-349.479	134.177	-0.153	-0.196
-348.464	-167.991	-0.050	0.002
-347.450	-200.000	-0.030	0.211
-346.435	33.975	-0.229	0.197
-345.420	800.000	-0.060	-0.254
-344.406	-4.611	0.092	0.063
-343.391	-7.828	0.176	-0.117
-342.377	-48.178	-0.142	-0.068
-341.362	-200.000	0.012	-0.179
-340.348	-200.000	0.033	0.240
-339.333	800.000	0.040	0.165
-338.318	-186.558	0.179	-0.003
-337.304	646.834	0.043	-0.108
-336.289	375.628	-0.064	-0.129
-335.275	171.868	0.157	0.223
-334.260	292.747	0.136	0.246
-333.245	-9.732	-0.176	0.116
-332.231	27.623	-0.119	0.099
-331.216	-104.490	0.219	0.050
-330.202	350.059	0.020	0.040
-329.187	-200.000	0.016	0.074
-328.172	-200.000	0.026	-0.175
-327.158	-86.769	-0.252	0.076
-326.143	-94.951	-0.188	0.050
-325.129	342.363	0.101	0.195
-324.114	-200.000	-0.001	-0.185
-323.099	264.775	0.083	-0.143
-322.085	109.488	0.080	0.095
-321.070	-95.048	-0.293	0.078
-320.056	-150.630	-0.185	-0.014
-319.041	-156.960	0.322	-0.019
-318.026	-200.000	-0.050	-0.321
-317.012	-200.000	0.056	-0.326
-315.997	293.255	-0.045	-0.081
-314.983	-30.462	-0.148	-0.083
-313.968	234.483	-0.121	-0.197
-312.953	-144.217	0.183	0.017
-311.939	-136.875	-0.161	0.018
-310.924	-200.000	0.005	0.348
-309.910	800.000	0.059	-0.223
-308.895	245.470	-0.156	0.259
-307.880	-116.250	0.116	-0.021
-306.866	-96.745	-0.226	-0.059
-305.851	429.866	0.071	0.151
-304.837	2.536	0.175	-0.125
-303.822	-200.000	0.035	-0.337
-302.807	800.000	0.071	-0.233
-301.793	800.000	-0.056	-0.241
-300.778	800.000	0.078	0.217
-299.764	458.863	0.120	0.264
-298.749	-36.360	-0.114	-0.061
-297.735	34.624	0.055	-0.048
-296.720	-100.307	-0.025	-0.006
-295.705	-138.830	-0.357	0.038
-294.691	81.977	0.147	0.157
-293.676	497.023	0.100	0.227
-292.662	0.536	0.305	0.215
-291.647	639.437	0.052	-0.130
-290.632	471.239	-0.112	-0.249
-289.618	133.570	0.127	-0.162
-288.603	-108.675	-0.115	0.024
-287.589	490.928	-0.022	-0.050
-286.574	225.033	0.163	0.261
-285.559	-3.803	-0.062	0.042
-284.545	-95.534	-0.095	0.025
-283.530	382.052	-0.094	0.191
-282.516	-32.805	-0.075	-0.041
-281.501	-70.476	-0.255	-0.095
-280.486	-182.845	-0.231	0.004
-279.472	-200.000	-0.067	0.320
-278.457	800.000	0.094	0.272
-277.443	-57.571	-0.207	-0.089
-276.428	-90.766	-0.042	0.012
-275.413	-200.000	-0.013	-0.060
-274.399	-192.430	-0.300	0.003
-273.384	9.478	0.178	-0.133
-272.370	-200.000	0.061	-0.353
-271.355	800.000	-0.080	-0.281
-270.340	-15.340	-0.219	0.138
-269.326	8.745	-0.093	0.069
-268.311	159.648	-0.087	0.119
-267.297	250.586	0.206	0.345
-266.282	-134.813	0.097	-0.012
-265.267	800.000	-0.055	-0.204
-264.253	-88.693	-0.122	0.036
-263.238	800.000	-0.076	-0.290
-262.224	320.421	0.179	-0.335
-261.209	-176.537	0.245	0.006
-260.195	-200.000	0.053	-0.410
-259.180	-55.547	0.457	-0.202
-258.165	800.000	0.131	-0.527
-257.151	-22.438	-0.216	0.129
-256.136	-3.339	-0.080	0.055
-255.122	-200.000	0.031	0.195
-254.107	-10.922	-0.264	0.172
-253.092	379.972	-0.083	0.168
-252.078	-74.749	-0.191	0.068
-251.063	800.000	-0.025	0.092
-250.049	-69.724	0.064	-0.024
-249.034	-114.760	0.207	0.039
-248.019	203.145	-0.193	0.294
-247.005	-32.708	-0.081	-0.044
-245.990	-65.405	-0.165	-0.065
-244.976	12.760	0.154	0.117
-243.961	76.985	0.176	0.185
-242.946	332.682	0.143	-0.272
-241.932	-74.818	0.218	-0.077
-240.917	-200.000	-0.014	0.261
-239.903	-146.777	0.116	0.010
-238.888	102.504	0.280	0.323
-237.873	468.583	0.138	0.305
-236.859	51.384	-0.154	-0.144
-235.844	54.918	-0.329	0.312
-234.830	119.373	0.186	-0.227
-233.815	50.509	-0.078	-0.073
-232.800	-30.622	-0.188	0.105
-231.786	44.227	0.108	-0.098
-230.771	9.195	0.295	-0.219
-229.757	-90.975	0.079	-0.022
-228.742	-120.537	0.148	-0.025
-227.727	-64.830	-0.504	0.201
-226.713	-100.915	-0.237	0.057
-225.698	-133.462	-0.423	-0.052
-224.684	64.623	0.155	0.154
-223.669	319.715	-0.143	0.267
-222.655	-111.769	-0.264	0.052
-221.640	25.872	-0.146	-0.120
-220.625	-39.865	0.226	0.116
-219.611	-51.690	0.082	-0.037
-218.596	-7.573	0.166	-0.111
-217.582	2.557	0.129	0.092
-216.567	144.604	0.120	0.157
-215.552	31.585	0.139	0.118
-214.538	391.880	-0.040	0.081
-213.523	-38.507	0.134	0.070
-212.509	-76.427	0.307	0.106
-211.494	-61.480	-0.083	-0.034
-210.479	54.451	-0.132	-0.125
-209.465	-50.327	0.205	-0.095
-208.450	800.000	0.027	0.108
-207.436	17.369	0.287	-0.224
-206.421	108.402	-0.040	0.047
-205.406	-147.884	0.169	0.014
-204.392	90.150	-0.036	-0.040
-203.377	-150.521	-0.237	-0.018
-202.363	800.000	0.075	-0.219
-201.348	778.599	-0.185	0.496
-200.333	126.844	-0.081	0.101
-199.319	-119.835	0.037	0.006
-198.304	14.953	0.056	0.043
-197.290	199.583	-0.144	-0.217
-196.275	-200.000	-0.022	0.380
-195.260	323.456	-0.222	-0.416
-194.246	-0.694	-0.219	0.153
-193.231	31.964	0.121	0.103
-192.217	-200.000	0.045	0.233
-191.202	800.000	0.077	-0.292
-190.187	-62.310	0.170	-0.070
-189.173	-4.407	0.318	-0.216
-188.158	-200.000	0.039	-0.180
-187.144	-4.922	-0.269	-0.182
-186.129	-105.675	0.304	-0.068
-185.114	-35.342	0.362	0.194
-184.100	200.109	-0.227	-0.342
-183.085	-75.433	-0.150	-0.053
-182.071	-113.285	0.448	0.087
-181.056	199.868	0.055	0.083
-180.042	-106.537	0.074	-0.016
-179.027	800.000	-0.076	0.244
-178.012	-92.188	0.044	-0.012
-176.998	-200.000	0.032	-0.172
-175.983	800.000	-0.116	0.486
-174.969	561.439	0.061	0.144
-173.954	506.053	-0.061	0.139
-172.939	-200.000	0.013	0.241
-171.925	-200.000	0.049	-0.330
-170.910	319.691	-0.179	0.334
-169.896	-4.437	0.076	0.052
-168.881	-71.782	0.288	0.105
-167.866	69.365	0.184	-0.186
-166.852	205.458	0.061	0.092
-165.837	-119.260	0.149	-0.026
-164.823	266.596	0.014	0.024
-163.808	800.000	-0.015	0.062
-162.793	-200.000	0.030	0.170
-161.779	677.717	0.156	-0.399
-160.764	-33.164	-0.110	-0.060
-159.750	-93.347	0.173	0.047
-158.735	26.156	0.219	0.179
-157.720	-105.547	-0.603	0.134
-156.706	-59.992	0.130	-0.054
-155.691	597.659	0.108	0.263
-154.677	-37.329	-0.091	-0.048
-153.662	-85.199	-0.193	-0.059
-152.647	-119.272	-0.353	-0.060
-151.633	-56.515	-0.169	-0.073
-150.618	20.930	0.111	0.088
-149.604	-173.562	0.347	0.010
-148.589	2.655	0.100	-0.071
-147.574	-198.223	0.103	-0.001
-146.560	-90.503	-0.109	0.031
-145.545	7.926	-0.244	-0.180
-144.531	-200.000	0.024	-0.139
-143.516	-77.210	0.175	0.060
-142.502	-200.000	0.004	0.175
-141.487	-107.625	-0.011	0.002
-140.472	166.440	-0.136	-0.189
-139.458	800.000	0.015	0.058
-138.443	207.973	0.363	0.556
-137.429	215.489	0.155	-0.241
-136.414	46.621	-0.074	0.068
-135.399	769.366	-0.070	0.188
-134.385	38.087	0.263	0.229
-133.370	589.079	0.072	-0.173
-132.356	590.611	-0.095	-0.230
-131.341	9.373	-0.108	-0.080
-130.326	-143.339	0.375	0.035
-129.312	11.969	-0.425	-0.320
-128.297	-139.422	0.324	0.034
-127.283	-162.953	0.109	0.005
-126.268	-200.000	-0.024	0.217
-125.253	-55.599	0.159	-0.070
-124.239	-200.000	-0.020	-0.192
-123.224	800.000	-0.015	-0.052
-122.210	41.654	-0.082	-0.073
-121.195	302.019	0.026	0.048
-120.180	-143.312	0.300	-0.028
-119.166	-200.000	0.010	0.063
-118.151	-59.543	-0.066	-0.028
-117.137	125.520	-0.111	0.137
-116.122	-169.249	0.153	-0.006
-115.107	-85.846	-0.390	0.118
-114.093	800.000	-0.083	0.232
-113.078	-111.094	-0.189	0.038
-112.064	-146.734	-0.253	-0.021
-111.049	537.516	-0.173	0.404
-110.034	-200.000	0.004	0.171
-109.020	-70.476	-0.110	0.041
-108.005	-62.604	0.096	-0.039
-106.991	-103.170	0.156	0.036
-105.976	-32.642	0.048	-0.026
-104.962	-121.321	-0.199	0.032
-103.947	3.461	0.252	0.180
-102.932	-64.518	-0.134	0.053
-101.918	800.000	0.091	0.252
-100.903	9.345	0.169	0.125
-99.889	-70.476	-0.043	-0.016
-98.874	132.049	-0.039	-0.050
-97.859	-200.000	0.014	0.184
-96.845	-77.652	0.407	0.138
-95.830	-200.000	-0.031	-0.239
-94.816	306.032	0.046	-0.084
-93.801	800.000	0.032	0.121
-92.786	-119.641	-0.195	-0.033
-91.772	-68.218	0.184	-0.070
-90.757	-153.466	-0.251	0.017
-89.743	613.671	0.078	0.191
-88.728	-200.000	-0.013	-0.130
-87.713	6.204	-0.094	0.068
-86.699	-200.000	-0.065	0.335
-85.684	285.919	0.138	0.244
-84.670	358.763	-0.071	-0.138
-83.655	284.130	0.169	0.298
-82.640	-138.382	-0.209	0.023
-81.626	-82.751	0.320	-0.101
-80.611	-22.811	-0.220	0.130
-79.597	152.651	0.213	0.285
-78.582	455.769	0.034	0.075
-77.567	137.813	0.146	0.187
-76.553	89.372	0.155	-0.169
-75.538	-200.000	-0.058	-0.295
-74.524	85.180	-0.212	-0.227
-73.509	85.717	0.024	-0.026
-72.494	-200.000	0.030	0.266
-71.480	-200.000	-0.061	-0.328
-70.465	47.581	-0.234	0.213
-69.451	-48.342	0.385	0.181
-68.436	7.302	-0.136	0.099
-67.422	800.000	-0.031	-0.123
-66.407	-200.000	0.031	0.198
-65.392	200.537	0.048	-0.072
-64.378	-72.870	-0.245	-0.088
-63.363	42.295	-0.167	-0.148
-62.349	-200.000	0.003	0.257
-61.334	188.496	-0.602	-0.880
-60.319	-64.013	0.639	0.255
-59.305	774.828	-0.414	-1.103
-58.290	327.109	0.707	1.325
-57.276	800.000	0.465	1.432
-56.261	-200.000	116.170	648.802
-55.246	506.352	1541.418	3492.622
-54.232	174.182	2722.050	3844.309
-53.217	99.310	2292.879	2590.861
-52.203	35.431	1899.437	1628.901
-51.188	29.592	1691.877	1406.537
-50.173	27.117	1651.140	1354.195
-49.159	47.386	1708.815	1555.824
-48.144	45.997	1722.225	1557.444
-47.130	29.107	1678.686	1391.684
-46.115	26.466	1665.075	1360.519
-45.100	26.331	1659.971	1355.277
-44.086	26.338	1657.289	1353.089
-43.071	26.305	1655.151	1351.040
-42.057	26.252	1652.728	1348.614
-41.042	26.362	1650.294	1347.392
-40.027	26.302	1648.704	1345.598
-39.013	26.271	1646.583	1343.581
-37.998	26.290	1645.092	1342.453
-36.984	26.314	1643.283	1341.103
-35.969	26.447	1641.920	1340.922
-34.954	26.428	1641.058	1340.025
-33.940	26.422	1638.508	1337.845
-32.925	26.430	1637.557	1337.075
-31.911	26.425	1635.085	1334.966
-30.896	26.357	1633.689	1333.270
-29.881	26.411	1631.826	1332.094
-28.867	26.478	1630.489	1331.446
-27.852	26.341	1629.809	1329.829
-26.838	26.341	1628.133	1328.411
-25.823	26.426	1626.135	1327.347
-24.809	26.499	1624.966	1326.879
-23.794	26.510	1623.201	1325.462
-22.779	26.541	1621.658	1324.379
-21.765	26.460	1620.454	1322.752
-20.750	26.487	1618.518	1321.317
-19.736	26.505	1617.279	1320.386
-18.721	26.520	1616.206	1319.567
-17.706	26.441	1614.926	1317.888
-16.692	26.528	1612.596	1316.568
-15.677	26.431	1611.383	1314.821
-14.663	26.481	1609.722	1313.775
-13.648	26.479	1608.706	1312.885
-12.633	26.481	1607.169	1311.588
-11.619	26.552	1605.352	1310.568
-10.604	26.434	1604.127	1308.661
-9.590	26.464	1603.195	1308.069
-8.575	26.553	1601.128	1306.975
-7.560	26.510	1599.865	1305.582
-6.546	26.381	1599.347	1304.174
-5.531	26.469	1598.119	1303.752
-4.517	26.431	1596.786	1302.343
-3.502	26.526	1595.826	1302.189
-2.487	26.479	1594.259	1300.522
-1.473	26.116	1582.114	1287.975
-0.458	23.256	1563.423	1252.509
0.556	21.680	1563.835	1220.575
1.571	19.104	1587.649	1220.806
2.586	18.687	1599.961	1227.188
3.600	16.992	1546.367	1174.255
4.615	10.661	1440.204	1052.607
5.629	4.977	1381.092	973.886
6.644	4.008	1372.948	962.034
7.659	3.946	1372.020	960.914
8.673	4.084	1371.505	961.323
9.688	4.133	1369.188	959.922
10.702	4.058	1366.082	957.196
11.717	6.734	1371.240	977.306
12.731	14.165	1384.519	1032.981
13.746	20.784	1395.782	1082.588
14.761	22.742	1398.106	1096.477
15.775	22.142	1396.510	1091.401
16.790	21.248	1393.990	1083.795
17.804	20.456	1391.488	1076.846
18.819	20.240	1390.199	1074.415
19.834	20.338	1389.479	1074.370
20.848	20.193	1388.805	1072.853
21.863	20.021	1387.459	1070.655
22.877	19.806	1386.635	1068.599
23.892	19.861	1385.497	1067.970
24.907	19.997	1383.945	1067.517
25.921	19.823	1383.559	1066.050
26.936	19.870	1382.341	1065.308
27.950	19.868	1381.618	1064.645
28.965	19.883	1381.186	1064.309
29.980	20.194	1379.549	1064.860
30.994	20.262	1379.308	1065.002
32.009	20.273	1378.164	1064.092
33.023	20.259	1376.736	1062.804
34.038	20.106	1375.595	1060.898
35.053	19.999	1373.936	1058.867
36.067	20.021	1372.759	1058.003
37.082	20.084	1372.085	1057.773
38.096	20.101	1371.027	1056.968
39.111	20.233	1370.150	1057.004
40.126	19.927	1369.787	1054.763
41.140	19.786	1368.025	1052.454
42.155	19.413	1367.561	1049.738
43.169	19.327	1367.946	1049.418
44.184	19.470	1367.076	1049.523
45.199	19.479	1367.441	1049.770
46.213	19.711	1367.013	1050.758
47.228	19.908	1366.156	1051.203
48.242	19.983	1364.998	1050.675
49.257	19.911	1363.348	1048.873
50.271	19.917	1361.801	1047.629
51.286	19.933	1361.054	1047.058
52.301	19.937	1359.168	1045.537
53.315	19.817	1358.074	1043.879
54.330	19.580	1357.422	1041.858
55.344	19.667	1355.734	1040.992
56.359	19.578	1355.256	1039.996
57.374	19.535	1354.049	1038.720
58.388	19.429	1353.330	1037.437
59.403	19.338	1353.156	1036.668
60.417	19.337	1352.337	1035.944
61.432	19.234	1351.080	1034.265
62.447	19.219	1350.092	1033.333
63.461	19.132	1348.593	1031.571
64.476	19.125	1348.056	1031.028
65.490	19.115	1346.870	1029.971
66.505	19.186	1345.021	1028.890
67.520	19.274	1343.687	1028.300
68.534	19.270	1342.525	1027.295
69.549	19.189	1341.765	1026.142
70.563	19.031	1340.945	1024.483
71.578	19.039	1339.201	1023.107
72.593	18.836	1338.782	1021.489
73.607	18.941	1337.804	1021.275
74.622	19.009	1337.131	1021.076
75.636	18.931	1336.865	1020.321
76.651	19.010	1336.382	1020.332
77.666	19.139	1335.530	1020.352
78.680	19.268	1334.998	1020.621
79.695	19.220	1334.685	1020.008
80.709	19.315	1334.140	1020.061
81.724	19.464	1333.298	1020.211
82.739	19.658	1331.863	1020.170
83.753	19.738	1331.115	1019.975
84.768	19.902	1330.693	1020.532
85.782	20.143	1329.375	1020.848
86.797	20.039	1328.499	1019.476
87.812	19.910	1327.168	1017.606
88.826	19.959	1326.235	1017.083
89.841	20.016	1324.768	1016.202
90.855	20.139	1324.317	1016.492
91.870	20.181	1323.370	1015.922
92.884	20.274	1322.207	1015.484
93.899	20.182	1322.349	1014.960
94.914	20.379	1320.586	1014.673
95.928	20.214	1320.570	1013.602
96.943	20.089	1319.764	1012.164
97.957	20.079	1318.529	1011.071
98.972	20.153	1317.470	1010.599
99.987	20.200	1316.281	1009.875
101.001	20.131	1315.515	1008.793
102.016	20.078	1315.020	1008.015
103.030	20.077	1313.749	1006.950
104.045	19.980	1313.210	1005.884
105.060	19.866	1311.303	1003.671
106.074	19.610	1309.664	1000.845
107.089	19.278	1308.305	997.796
108.103	19.232	1306.492	996.057
109.118	19.254	1305.230	995.137
110.133	19.171	1304.125	993.724
111.147	19.291	1302.898	993.398
112.162	19.329	1302.027	992.861
113.176	19.470	1300.731	992.598
114.191	19.478	1299.916	991.935
115.206	19.418	1298.730	990.596
116.220	19.368	1297.689	989.430
117.235	19.378	1296.350	988.375
118.249	19.388	1295.421	987.637
119.264	19.217	1294.081	985.550
120.279	19.139	1292.809	984.049
121.293	19.091	1292.047	983.110
122.308	18.982	1290.635	981.322
123.322	18.889	1289.574	979.901
124.337	18.847	1288.696	978.908
125.352	18.850	1287.717	978.094
126.366	18.934	1286.238	977.364
127.381	18.937	1285.163	976.478
128.395	18.804	1284.398	975.050
129.410	18.880	1283.486	974.706
130.424	19.046	1282.611	974.893
131.439	19.179	1282.292	975.319
132.454	19.329	1280.844	974.978
133.468	19.376	1280.516	974.912
134.483	19.437	1279.678	974.532
135.497	19.398	1278.934	973.657
136.512	19.483	1277.583	973.024
137.527	19.424	1276.307	971.631
138.541	19.490	1274.815	970.781
139.556	19.627	1273.991	970.838
140.570	19.707	1272.794	970.292
141.585	19.707	1272.022	969.618
142.600	19.862	1271.143	969.731
143.614	19.976	1270.583	969.851
144.629	20.017	1269.531	969.196
145.643	20.019	1267.953	967.913
146.658	19.909	1266.693	966.252
147.673	19.628	1265.472	963.672
148.687	19.526	1264.046	961.929
149.702	19.531	1262.443	960.651
150.716	19.389	1261.285	958.895
151.731	19.418	1259.972	957.978
152.746	19.295	1259.730	957.021
153.760	19.499	1258.199	956.906
154.775	19.685	1257.279	957.153
155.789	19.636	1256.494	956.198
156.804	19.754	1255.239	955.815
157.819	19.913	1254.393	955.959
158.833	19.979	1253.544	955.595
159.848	20.104	1253.101	955.863
160.862	20.070	1251.844	954.629
161.877	19.745	1249.881	951.261
162.892	19.353	1248.932	948.298
163.906	19.398	1247.727	947.546
164.921	19.406	1246.889	946.871
165.935	19.433	1246.611	946.725
166.950	19.512	1246.246	946.798
167.964	19.547	1245.184	946.097
168.979	19.514	1244.244	945.118
169.994	19.533	1243.640	944.684
171.008	19.595	1242.642	944.177
172.023	19.779	1241.748	944.420
173.037	19.914	1241.620	944.977
174.052	19.833	1240.433	943.551
175.067	19.611	1238.912	941.099
176.081	19.336	1238.328	939.072
177.096	19.502	1236.414	938.441
178.110	19.475	1235.921	937.837
179.125	19.572	1234.489	937.198
180.140	19.625	1233.689	936.791
181.154	19.855	1232.761	937.250
182.169	19.807	1231.863	936.227
183.183	19.950	1230.423	935.822
184.198	20.015	1229.375	935.293
185.213	20.022	1228.321	934.444
186.227	20.132	1227.373	934.233
187.242	20.117	1227.067	933.840
188.256	20.122	1226.114	933.054
189.271	20.158	1224.998	932.321
190.286	20.062	1223.320	930.446
191.300	19.510	1222.180	926.534
192.315	19.363	1221.657	925.264
193.329	19.474	1221.167	925.405
194.344	19.593	1220.232	925.252
195.359	19.562	1220.004	924.831
196.373	19.645	1219.855	925.080
197.388	19.821	1219.374	925.577
198.402	20.186	1218.957	927.131
199.417	20.311	1219.092	927.819
200.432	20.436	1218.345	927.839
201.446	20.444	1218.055	927.577
202.461	20.652	1216.608	927.503
203.475	20.498	1215.539	925.785
204.490	20.216	1214.157	923.150
205.504	20.074	1212.550	921.093
206.519	20.032	1211.073	919.664
207.534	19.991	1210.254	918.743
208.548	20.000	1209.591	918.205
209.563	19.933	1209.054	917.365
210.577	19.928	1207.755	916.270
211.592	20.131	1207.054	916.734
212.607	20.287	1206.450	917.018
213.621	20.356	1205.482	916.564
214.636	20.213	1204.610	915.064
215.650	20.241	1203.907	914.599
216.665	20.285	1203.324	914.304
217.680	20.489	1202.621	914.764
218.694	20.580	1201.463	914.284
219.709	20.399	1200.785	912.734
220.723	20.329	1200.294	911.913
221.738	20.463	1198.955	911.519
222.753	20.425	1198.127	910.607
223.767	20.388	1197.658	909.976
224.782	20.558	1197.173	910.419
225.796	20.672	1197.025	910.824
226.811	20.590	1196.047	909.565
227.826	20.517	1194.648	908.044
228.840	20.443	1193.943	907.037
229.855	20.354	1193.073	905.835
230.869	20.092	1193.112	904.419
231.884	20.076	1192.231	903.585
232.899	20.092	1190.767	902.477
233.913	19.990	1189.798	901.134
234.928	20.063	1188.854	900.720
235.942	20.004	1188.009	899.692
236.957	19.904	1187.654	898.822
237.972	19.984	1186.495	898.283
238.986	19.998	1186.413	898.214
240.001	20.047	1185.517	897.712
241.015	20.071	1184.400	896.909
242.030	20.259	1183.598	897.193
243.045	20.398	1183.294	897.606
244.059	20.257	1182.631	896.291
245.074	20.316	1181.791	895.880
246.088	20.306	1181.357	895.424
247.103	20.600	1180.667	896.334
248.117	20.716	1180.202	896.502
249.132	20.873	1179.465	896.668
250.147	21.101	1179.306	897.642
251.161	21.264	1178.539	897.818
252.176	21.270	1178.059	897.401
253.190	21.348	1177.521	897.312
254.205	21.517	1176.772	897.532
255.220	21.590	1175.944	897.192
256.234	21.247	1176.360	895.675
257.249	21.354	1175.109	895.191
258.263	21.414	1174.082	894.634
259.278	21.434	1173.144	893.942
260.293	21.428	1172.617	893.431
261.307	21.650	1172.248	894.202
262.322	21.516	1171.875	893.157
263.336	21.541	1171.049	892.574
264.351	21.469	1170.661	891.834
265.366	21.646	1170.010	892.162
266.380	21.672	1168.553	891.104
267.395	21.387	1168.054	889.192
268.409	21.193	1167.682	887.845
269.424	21.313	1166.323	887.344
270.439	21.164	1166.453	886.606
271.453	21.166	1165.149	885.546
272.468	21.032	1163.956	883.885
273.482	21.042	1163.003	883.132
274.497	20.971	1162.745	882.499
275.512	20.978	1162.133	881.993
276.526	21.006	1161.465	881.547
277.541	21.135	1159.864	880.908
278.555	21.109	1159.967	880.775
279.570	21.430	1159.523	881.981
280.585	21.561	1158.970	882.141
281.599	21.577	1157.658	881.147
282.614	21.340	1156.318	878.856
283.628	21.215	1155.376	877.437
284.643	21.138	1154.461	876.276
285.657	21.179	1153.806	875.909
286.672	21.117	1152.904	874.833
287.687	21.263	1152.052	874.842
288.701	21.200	1151.375	873.933
289.716	21.076	1150.756	872.764
290.730	21.303	1149.692	873.014
291.745	21.280	1149.056	872.341
292.760	21.351	1148.526	872.216
293.774	21.480	1148.103	872.464
294.789	21.630	1147.828	872.922
295.803	21.615	1147.216	872.303
296.818	21.410	1146.282	870.499
297.833	21.351	1144.956	869.119
298.847	21.300	1144.554	868.482
299.862	21.233	1143.563	867.321
300.876	21.339	1143.414	867.659
301.891	21.505	1142.384	867.623
302.906	21.538	1142.217	867.586
303.920	21.760	1141.457	868.028
304.935	21.931	1141.313	868.692
305.949	21.970	1140.557	868.230
306.964	21.987	1139.497	867.430
307.979	21.792	1138.789	865.852
308.993	21.647	1138.175	864.592
310.008	21.788	1137.450	864.663
311.022	21.882	1136.781	864.541
312.037	21.862	1135.718	863.556
313.052	21.754	1134.247	861.830
314.066	21.475	1133.158	859.556
315.081	21.263	1132.113	857.645
316.095	21.222	1131.513	856.914
317.110	21.323	1130.655	856.683
318.125	21.311	1130.514	856.443
319.139	21.319	1129.635	855.738
320.154	21.240	1128.977	854.781
321.168	21.343	1128.176	854.601
322.183	21.273	1127.787	853.890
323.197	21.397	1126.919	853.761
324.212	21.610	1126.199	854.180
325.227	21.447	1126.267	853.361
326.241	21.493	1125.546	852.962
327.256	21.523	1124.237	852.044
328.270	21.341	1123.439	850.477
329.285	21.363	1122.248	849.604
330.300	21.271	1122.017	848.906
331.314	21.334	1120.969	848.346
332.329	21.371	1119.196	847.111
333.343	21.519	1119.078	847.661
334.358	21.680	1117.959	847.518
335.373	21.689	1117.970	847.492
336.387	21.710	1117.035	846.812
337.402	21.768	1116.334	846.486
338.416	21.888	1116.140	846.842
339.431	21.943	1115.392	846.466
340.446	22.005	1115.134	846.493
341.460	22.290	1114.288	847.151
342.475	22.408	1113.035	846.689
343.489	22.321	1112.643	845.901
344.504	22.328	1111.946	845.329
345.519	22.449	1110.782	844.948
346.533	22.481	1110.267	844.637
347.548	22.550	1109.390	844.223
348.562	22.606	1108.313	843.596
349.577	22.266	1107.215	841.062
350.592	21.937	1106.408	838.805
351.606	21.887	1105.742	837.986
352.621	21.794	1105.120	836.994
353.635	21.760	1104.159	836.032
354.650	21.775	1103.507	835.536
355.665	21.881	1102.820	835.448
356.679	21.935	1102.588	835.455
357.694	21.955	1101.789	834.868
358.708	22.088	1101.269	835.031
359.723	22.145	1100.625	834.744
360.738	22.133	1099.875	834.044
361.752	22.261	1099.170	834.041
362.767	22.180	1098.539	833.102
363.781	22.281	1098.236	833.281
364.796	22.359	1097.901	833.321
365.810	22.500	1097.499	833.608
366.825	22.533	1096.931	833.258
367.840	22.804	1096.594	834.213
368.854	22.799	1096.335	833.916
369.869	22.825	1095.336	833.207
370.883	22.602	1094.372	831.348
371.898	22.477	1093.405	829.949
372.913	22.556	1092.773	829.770
373.927	22.514	1092.389	829.208
374.942	22.664	1092.049	829.581
375.956	22.693	1091.156	828.966
376.971	22.574	1090.655	827.953
377.986	22.607	1090.201	827.690
379.000	22.867	1089.342	828.182
380.015	22.947	1089.347	828.489
381.029	22.909	1088.907	827.902
382.044	23.054	1087.579	827.498
383.059	22.881	1087.106	826.255
384.073	22.934	1085.990	825.582
385.088	22.915	1085.014	824.679
386.102	22.929	1084.321	824.142
387.117	22.581	1083.124	821.541
388.132	22.462	1082.034	820.084
389.146	22.604	1081.271	820.098
390.161	22.492	1080.252	818.730
391.175	22.555	1079.826	818.629
392.190	22.685	1079.412	818.843
393.205	22.895	1078.712	819.215
394.219	22.731	1077.856	817.735
395.234	22.420	1077.218	815.735
396.248	22.443	1076.231	815.023
397.263	22.462	1074.685	813.868
398.278	22.428	1074.105	813.199
399.292	22.360	1073.074	812.035
400.307	22.364	1071.948	811.126
401.321	22.301	1071.641	810.532
402.336	22.196	1071.034	809.517
403.350	22.358	1070.214	809.572
404.365	22.455	1070.120	809.878
405.380	22.433	1069.379	809.141
406.394	22.714	1068.373	809.602
407.409	22.838	1067.601	809.511
408.423	22.891	1067.434	809.557
409.438	23.078	1066.638	809.739
410.453	22.955	1066.289	808.840
411.467	23.180	1065.630	809.294
412.482	23.315	1064.913	809.295
413.496	23.187	1064.567	808.377
414.511	23.346	1063.654	808.337
415.526	23.377	1063.949	808.634
416.540	23.462	1063.417	808.542
417.555	23.347	1062.602	807.329
418.569	23.396	1061.459	806.610
419.584	23.289	1061.124	805.800
420.599	23.302	1060.276	805.141
421.613	157.861	1404.844	1798.837
422.628	145.159	1455.019	1798.919
