DTS Sentinel unit serial number:	SN413079Multiplexer serial number:	ORYXHardware model number:	OX4-SRSoftware version number:	ORYX F/W v4.00 Oryx Data Collector v3.7.2.0data status	okinstallation	princeton_trtdifferential loss correction	single-endedforward channel	channel 2reverse channel	N/Adate	2019/09/18time	20:35:35forward acquisition time	60.00reverse acquisition time	0.00gamma	496.2192k internal	0.2338k external	0.2338temperature offset calibration	1.0026default loss term (dB/km)	0.3790temperature slope calibration	1.0000multiplexer offset coefficient	1.0000multiplexer slope coefficient	1.0000fibre end	0.00T internal ref (°C)	27.94T ext. ref 1 (°C)	0.87T ext. ref 2 (°C)	18.92length (m)	temperature (°C)	Stokes	anti-Stokes-747.200	229.127	0.172	0.282
-746.185	-146.960	0.042	0.004
-745.171	212.045	-0.183	0.289
-744.156	-46.157	0.101	0.050
-743.142	-200.000	-0.002	-0.336
-742.127	-200.000	0.021	0.324
-741.112	-172.017	0.259	-0.008
-740.098	84.560	0.167	0.184
-739.083	302.620	-0.128	-0.237
-738.069	-200.000	-0.023	0.373
-737.054	-50.855	0.279	-0.132
-736.039	-19.268	-0.330	-0.205
-735.025	-104.376	0.212	0.049
-734.010	-96.173	-0.150	-0.040
-732.996	-30.089	-0.268	-0.153
-731.981	395.780	-0.162	-0.339
-730.966	-138.127	0.040	-0.004
-729.952	-200.000	0.020	-0.137
-728.937	-200.000	-0.021	-0.114
-727.923	-94.560	-0.421	0.115
-726.908	-4.907	-0.221	0.153
-725.894	65.828	-0.092	0.093
-724.879	800.000	0.045	0.147
-723.864	-106.954	-0.170	0.038
-722.850	508.844	-0.090	-0.211
-721.835	781.591	-0.127	-0.348
-720.821	-114.904	0.192	-0.037
-719.806	800.000	-0.062	-0.269
-718.791	-123.634	0.227	-0.036
-717.777	-200.000	0.024	0.153
-716.762	-124.665	-0.314	0.049
-715.748	800.000	0.048	0.172
-714.733	414.073	-0.092	-0.196
-713.718	111.972	-0.284	-0.344
-712.704	495.251	0.222	-0.510
-711.689	-200.000	-0.060	-0.397
-710.675	800.000	-0.063	0.242
-709.660	-200.000	-0.053	-0.237
-708.645	-23.059	-0.162	-0.098
-707.631	800.000	-0.033	-0.115
-706.616	639.604	-0.132	-0.337
-705.602	-200.000	-0.014	0.297
-704.587	-200.000	0.013	-0.173
-703.572	522.124	-0.076	-0.180
-702.558	800.000	0.036	-0.107
-701.543	-7.219	-0.185	-0.125
-700.529	134.803	-0.009	0.012
-699.514	-5.443	0.100	0.069
-698.499	3.014	-0.506	-0.368
-697.485	655.305	-0.091	-0.233
-696.470	-47.906	0.409	-0.198
-695.456	-200.000	-0.041	-0.192
-694.441	-200.000	0.018	0.152
-693.426	284.396	0.106	0.192
-692.412	-83.498	0.303	-0.097
-691.397	-167.959	0.211	-0.008
-690.383	348.526	0.276	-0.545
-689.368	-65.460	-0.158	-0.064
-688.354	182.507	-0.059	0.088
-687.339	-200.000	-0.015	-0.670
-686.324	-91.243	-0.233	-0.067
-685.310	-90.031	-0.184	-0.054
-684.295	66.366	0.191	-0.195
-683.281	800.000	-0.055	-0.237
-682.266	-5.095	0.180	0.124
-681.251	-200.000	0.011	0.071
-680.237	-35.320	-0.240	0.130
-679.222	-21.580	-0.213	0.130
-678.208	73.514	0.052	-0.055
-677.193	46.745	0.127	0.118
-676.178	-152.858	-0.427	0.030
-675.164	103.394	-0.119	0.139
-674.149	113.763	0.158	-0.192
-673.135	800.000	-0.032	0.102
-672.120	199.133	0.070	-0.107
-671.105	755.801	0.032	-0.087
-670.091	-200.000	-0.021	-0.142
-669.076	598.609	-0.025	0.063
-668.062	98.667	0.166	0.191
-667.047	425.254	0.091	0.197
-666.032	261.580	-0.126	-0.218
-665.018	-200.000	0.004	-0.220
-664.003	57.411	0.126	0.123
-662.989	123.304	0.158	-0.199
-661.974	171.545	-0.174	-0.250
-660.959	-45.514	-0.011	0.005
-659.945	800.000	-0.033	-0.134
-658.930	-200.000	-0.010	-0.263
-657.916	-200.000	0.054	-0.358
-656.901	-9.740	0.199	0.132
-655.886	-80.609	-0.413	0.138
-654.872	-200.000	0.038	-0.270
-653.857	13.882	-0.359	0.279
-652.843	-200.000	-0.007	-0.082
-651.828	-2.662	0.116	-0.081
-650.814	-104.752	0.177	0.041
-649.799	388.872	0.030	-0.062
-648.784	249.281	0.202	-0.342
-647.770	-95.530	-0.295	-0.079
-646.755	-200.000	0.005	-0.064
-645.741	59.808	-0.166	0.164
-644.726	800.000	-0.050	-0.143
-643.711	-129.385	0.197	0.027
-642.697	800.000	-0.095	-0.269
-641.682	30.638	0.287	-0.246
-640.668	-5.397	-0.165	0.113
-639.653	55.360	-0.188	-0.182
-638.638	-200.000	0.016	0.277
-637.624	19.491	0.124	-0.099
-636.609	-200.000	0.002	0.166
-635.595	212.969	0.072	-0.113
-634.580	396.565	0.178	0.371
-633.565	-200.000	0.072	-0.367
-632.551	-200.000	-0.001	0.082
-631.536	-28.072	0.255	0.147
-630.522	-58.438	-0.053	-0.023
-629.507	-26.448	-0.029	-0.017
-628.492	335.352	-0.046	-0.089
-627.478	130.039	0.180	0.230
-626.463	33.897	-0.108	-0.094
-625.449	800.000	-0.074	0.214
-624.434	-128.855	0.307	-0.043
-623.419	-85.997	0.141	0.044
-622.405	504.919	-0.107	0.248
-621.390	-112.500	-0.170	-0.034
-620.376	-2.561	-0.123	-0.086
-619.361	800.000	-0.012	-0.044
-618.346	-200.000	0.004	0.163
-617.332	-200.000	0.026	0.391
-616.317	-137.469	0.231	-0.026
-615.303	-160.706	-0.162	-0.009
-614.288	-142.698	-0.346	-0.034
-613.273	-83.516	0.429	0.137
-612.259	-176.682	-0.071	0.002
-611.244	800.000	0.095	-0.285
-610.230	83.900	-0.073	0.080
-609.215	591.739	0.148	0.365
-608.201	0.878	-0.137	-0.098
-607.186	-200.000	0.048	-0.285
-606.171	65.959	-0.190	-0.192
-605.157	69.923	-0.076	0.078
-604.142	274.955	-0.103	-0.182
-603.128	-200.000	-0.006	-0.176
-602.113	-42.596	-0.342	0.174
-601.098	448.257	0.106	0.233
-600.084	-200.000	0.079	0.374
-599.069	-74.989	-0.369	-0.132
-598.055	-128.034	-0.181	-0.026
-597.040	142.740	-0.191	0.253
-596.025	-200.000	0.041	0.244
-595.011	-58.016	-0.177	-0.077
-593.996	800.000	-0.039	0.130
-592.982	-3.747	-0.055	0.038
-591.967	260.614	-0.117	0.202
-590.952	176.194	0.058	0.084
-589.938	2.484	-0.157	-0.113
-588.923	-200.000	-0.000	-0.022
-587.909	799.277	0.090	-0.248
-586.894	-200.000	0.066	-0.412
-585.879	-30.890	-0.177	0.100
-584.865	-200.000	0.055	-0.315
-583.850	-200.000	0.383	0.000
-582.836	800.000	0.123	0.352
-581.821	187.824	-0.107	-0.159
-580.806	-200.000	-0.035	0.163
-579.792	800.000	0.075	0.272
-578.777	-101.847	-0.060	0.015
-577.763	373.453	-0.082	-0.167
-576.748	-128.855	-0.320	-0.045
-575.733	-84.740	-0.151	0.047
-574.719	58.982	-0.263	0.258
-573.704	-118.738	-0.261	0.046
-572.690	-37.849	0.298	-0.158
-571.675	-200.000	-0.022	0.319
-570.661	164.241	-0.038	-0.054
-569.646	800.000	-0.071	-0.229
-568.631	-7.787	-0.191	-0.129
-567.617	-200.000	0.032	-0.327
-566.602	-178.482	-0.136	0.003
-565.588	800.000	0.011	-0.033
-564.573	94.572	0.345	-0.391
-563.558	-143.030	-0.203	-0.020
-562.544	-65.861	0.152	0.060
-561.529	-200.000	0.023	0.322
-560.515	-183.250	-0.188	0.003
-559.500	232.916	-0.017	-0.027
-558.485	72.160	-0.076	0.079
-557.471	-38.635	0.316	0.166
-556.456	86.939	-0.051	-0.057
-555.442	-117.212	0.101	0.018
-554.427	29.773	0.095	-0.080
-553.412	-200.000	0.062	0.309
-552.398	-51.561	-0.172	0.080
-551.383	-200.000	0.004	0.087
-550.369	-66.313	0.121	-0.048
-549.354	-24.033	0.204	-0.122
-548.339	-70.621	-0.233	0.088
-547.325	411.941	0.084	-0.179
-546.310	800.000	0.061	-0.168
-545.296	-200.000	0.010	-0.065
-544.281	22.680	-0.121	-0.099
-543.266	21.004	0.148	-0.119
-542.252	-9.102	0.254	-0.169
-541.237	-96.633	0.200	0.053
-540.223	38.797	-0.045	0.040
-539.208	219.942	-0.161	0.257
-538.193	-200.000	-0.021	0.175
-537.179	-129.323	-0.125	-0.017
-536.164	164.966	-0.135	-0.189
-535.150	-200.000	-0.019	0.114
-534.135	-200.000	-0.014	0.210
-533.121	112.846	0.090	-0.109
-532.106	20.362	-0.139	-0.112
-531.091	2.140	-0.209	-0.150
-530.077	800.000	0.074	-0.244
-529.062	26.418	0.120	0.100
-528.048	95.334	0.114	-0.129
-527.033	67.640	0.136	-0.138
-526.018	185.648	-0.101	0.149
-525.004	-140.191	0.123	0.013
-523.989	80.553	0.279	-0.299
-522.975	-89.716	-0.088	0.026
-521.960	800.000	0.186	-0.548
-520.945	-200.000	-0.016	-0.095
-519.931	800.000	-0.108	0.380
-518.916	117.280	-0.219	0.268
-517.902	800.000	0.031	0.093
-516.887	-80.794	0.156	-0.051
-515.872	295.862	-0.024	-0.043
-514.858	51.070	0.215	0.202
-513.843	-131.105	0.102	-0.013
-512.829	140.322	-0.139	-0.182
-511.814	96.392	0.259	0.295
-510.799	800.000	-0.042	0.138
-509.785	87.162	-0.158	-0.174
-508.770	-14.868	0.335	-0.214
-507.756	-83.695	-0.194	-0.062
-506.741	29.798	0.189	-0.160
-505.726	-54.453	-0.212	0.096
-504.712	12.283	-0.165	0.126
-503.697	308.055	0.027	0.050
-502.683	-200.000	-0.034	-0.167
-501.668	320.424	0.207	0.390
-500.653	-200.000	0.043	0.232
-499.639	418.661	0.068	0.144
-498.624	-28.585	0.309	0.177
-497.610	800.000	0.039	0.167
-496.595	-65.039	-0.254	-0.102
-495.581	-10.930	-0.074	-0.048
-494.566	532.663	-0.135	-0.318
-493.551	-200.000	-0.030	0.181
-492.537	-200.000	-0.028	0.180
-491.522	146.736	-0.028	0.038
-490.508	143.701	-0.070	-0.093
-489.493	-11.364	-0.186	0.121
-488.478	417.707	0.140	-0.296
-487.464	-54.201	0.036	0.016
-486.449	41.849	-0.074	-0.067
-485.435	800.000	-0.056	-0.171
-484.420	800.000	0.074	0.228
-483.405	-144.106	-0.188	0.018
-482.391	279.701	0.135	-0.239
-481.376	800.000	-0.049	0.135
-480.362	-2.641	-0.325	-0.226
-479.347	667.859	-0.158	0.406
-478.332	-200.000	0.006	-0.118
-477.318	33.078	0.369	-0.318
-476.303	-200.000	-0.031	-0.182
-475.289	-126.158	-0.132	-0.020
-474.274	-200.000	-0.010	-0.136
-473.259	800.000	0.084	-0.232
-472.245	487.201	-0.142	-0.323
-471.230	-17.543	0.169	0.106
-470.216	800.000	0.036	0.124
-469.201	14.389	0.119	0.092
-468.186	139.400	0.219	-0.286
-467.172	-200.000	0.012	-0.099
-466.157	-200.000	0.008	0.166
-465.143	-149.360	0.223	-0.018
-464.128	380.870	0.228	0.465
-463.113	-84.458	0.160	-0.050
-462.099	800.000	-0.017	-0.053
-461.084	-140.583	-0.217	-0.022
-460.070	-2.369	0.200	0.139
-459.055	703.488	-0.111	0.290
-458.040	-8.648	-0.092	-0.061
-457.026	230.116	0.034	-0.055
-456.011	170.437	0.162	0.231
-454.997	23.292	0.294	-0.240
-453.982	-200.000	0.012	-0.119
-452.968	309.556	-0.023	-0.042
-451.953	-200.000	0.009	-0.109
-450.938	111.682	-0.204	-0.244
-449.924	455.067	0.048	0.105
-448.909	33.326	-0.467	-0.402
-447.895	-78.880	0.415	0.140
-446.880	314.784	-0.058	0.108
-445.865	-200.000	-0.064	-0.301
-444.851	-84.519	0.283	-0.089
-443.836	-200.000	-0.060	0.285
-442.822	-42.148	-0.328	0.167
-441.807	-109.489	-0.147	0.031
-440.792	223.078	-0.045	-0.072
-439.778	-200.000	-0.004	0.152
-438.763	70.446	0.190	-0.195
-437.749	21.459	-0.100	0.081
-436.734	-27.808	-0.171	0.098
-435.719	615.419	-0.106	0.263
-434.705	-194.517	0.429	-0.003
-433.690	-177.235	-0.261	0.006
-432.676	193.948	-0.089	-0.133
-431.661	265.097	0.376	0.650
-430.646	205.998	0.140	0.216
-429.632	-62.670	0.191	-0.079
-428.617	-114.252	0.177	-0.034
-427.603	36.923	0.064	0.056
-426.588	-96.583	0.028	-0.007
-425.573	93.197	0.117	-0.131
-424.559	-40.699	0.109	-0.056
-423.544	-200.000	-0.023	-0.175
-422.530	-148.685	0.576	0.046
-421.515	-200.000	-0.030	0.237
-420.500	800.000	-0.042	-0.172
-419.486	800.000	0.039	-0.133
-418.471	142.146	0.381	0.500
-417.457	-200.000	-0.050	0.243
-416.442	-151.185	0.164	0.012
-415.428	310.297	0.016	0.029
-414.413	800.000	0.078	0.242
-413.398	-200.000	-0.039	-0.305
-412.384	800.000	0.056	0.213
-411.369	-136.707	-0.038	0.004
-410.355	-200.000	0.035	0.252
-409.340	-132.800	0.313	0.040
-408.325	289.162	0.156	-0.280
-407.311	44.547	-0.337	-0.306
-406.296	264.871	-0.207	-0.357
-405.282	-34.026	-0.409	0.223
-404.267	-86.307	0.172	-0.052
-403.252	255.360	-0.155	-0.262
-402.238	-130.906	0.170	-0.023
-401.223	124.761	0.350	0.436
-400.209	382.897	-0.128	0.261
-399.194	447.954	0.083	-0.180
-398.179	133.591	-0.045	-0.057
-397.165	-93.964	0.426	-0.116
-396.150	111.799	0.243	0.290
-395.136	-117.081	0.279	-0.050
-394.121	-41.521	0.228	-0.116
-393.106	-200.000	-0.006	-0.076
-392.092	302.961	-0.117	0.214
-391.077	800.000	-0.043	0.160
-390.063	-41.625	-0.154	-0.078
-389.048	91.549	0.214	-0.238
-388.033	-200.000	0.000	0.194
-387.019	142.780	0.020	0.026
-386.004	3.628	-0.192	0.139
-384.990	-38.986	-0.205	0.107
-383.975	-200.000	0.049	0.253
-382.960	178.250	-0.126	-0.182
-381.946	-75.102	-0.151	0.053
-380.931	-200.000	0.048	-0.279
-379.917	800.000	0.076	-0.229
-378.902	27.166	0.164	-0.137
-377.888	591.157	0.036	0.089
-376.873	185.868	-0.139	0.205
-375.858	-94.204	-0.330	-0.089
-374.844	176.032	-0.105	0.151
-373.829	-136.675	-0.214	0.024
-372.815	-200.000	-0.044	0.306
-371.800	-31.380	0.039	0.022
-370.785	-58.900	0.231	-0.099
-369.771	-200.000	0.004	0.187
-368.756	-82.009	-0.146	0.047
-367.742	-135.355	0.231	-0.027
-366.727	800.000	0.087	-0.264
-365.712	-109.555	0.075	0.016
-364.698	-109.428	-0.451	0.094
-363.683	-0.003	0.180	-0.127
-362.669	-200.000	0.007	-0.531
-361.654	35.029	-0.044	0.038
-360.639	-96.024	-0.214	-0.056
-359.625	336.463	0.116	0.223
-358.610	-136.306	0.229	-0.026
-357.596	-200.000	0.044	0.320
-356.581	-115.410	-0.351	0.065
-355.566	-174.712	0.181	0.005
-354.552	566.333	-0.081	-0.195
-353.537	206.075	-0.048	0.073
-352.523	300.991	-0.122	-0.223
-351.508	340.970	-0.045	-0.087
-350.493	-121.177	-0.268	0.044
-349.479	-123.379	-0.180	-0.028
-348.464	-41.921	-0.145	-0.074
-347.450	800.000	-0.089	0.283
-346.435	-5.617	-0.110	-0.075
-345.420	228.057	0.272	-0.438
-344.406	800.000	0.091	-0.343
-343.391	96.077	-0.105	0.118
-342.377	40.285	0.256	-0.227
-341.362	-200.000	0.034	-0.239
-340.348	-30.401	0.105	0.059
-339.333	-86.252	0.119	-0.036
-338.318	129.733	-0.343	0.434
-337.304	-46.729	-0.204	-0.099
-336.289	-159.121	-0.074	-0.004
-335.275	-87.206	-0.195	0.059
-334.260	462.097	-0.072	-0.158
-333.245	800.000	0.059	0.214
-332.231	-200.000	0.008	0.062
-331.216	-200.000	-0.011	-0.123
-330.202	800.000	-0.072	-0.305
-329.187	310.536	0.070	-0.130
-328.172	762.537	0.055	0.148
-327.158	-91.750	-0.214	-0.060
-326.143	746.629	-0.053	-0.140
-325.129	258.739	0.013	-0.022
-324.114	-32.384	0.105	0.058
-323.099	-10.960	0.178	0.116
-322.085	479.153	0.050	-0.113
-321.070	-107.663	0.202	-0.044
-320.056	-130.910	0.174	0.023
-319.041	-19.593	0.146	-0.089
-318.026	-80.669	-0.244	-0.080
-317.012	-162.668	0.356	0.017
-315.997	44.714	-0.175	-0.159
-314.983	-11.727	-0.251	-0.162
-313.968	-200.000	0.008	0.243
-312.953	85.639	-0.209	-0.227
-311.939	539.424	0.049	-0.115
-310.924	-116.804	-0.202	0.037
-309.910	672.903	0.049	0.126
-308.895	-140.696	-0.291	0.030
-307.880	-56.452	-0.333	0.146
-306.866	-11.436	-0.231	-0.150
-305.851	-111.218	-0.293	0.059
-304.837	388.784	-0.078	0.158
-303.822	-200.000	-0.015	-0.222
-302.807	-47.652	-0.065	0.031
-301.793	451.162	-0.110	0.239
-300.778	-200.000	-0.047	-0.415
-299.764	800.000	0.064	0.177
-298.749	464.922	0.058	0.128
-297.735	-117.675	-0.170	-0.030
-296.720	95.792	0.213	0.240
-295.705	-125.067	0.248	0.038
-294.691	232.637	0.215	0.347
-293.676	800.000	0.073	-0.310
-292.662	195.910	-0.113	-0.170
-291.647	-200.000	-0.068	0.400
-290.632	119.421	-0.173	-0.211
-289.618	172.558	-0.077	0.109
-288.603	-200.000	0.014	-0.151
-287.589	328.252	-0.024	0.045
-286.574	-180.213	-0.037	0.001
-285.559	-170.163	0.101	-0.004
-284.545	-200.000	-0.005	0.099
-283.530	-138.169	0.434	0.047
-282.516	800.000	-0.086	-0.287
-281.501	85.136	-0.079	0.085
-280.486	-153.570	-0.213	-0.015
-279.472	42.441	-0.172	0.155
-278.457	541.890	-0.072	-0.169
-277.443	-141.594	-0.218	-0.022
-276.428	96.132	-0.273	0.307
-275.413	266.807	0.080	-0.138
-274.399	-174.940	0.171	-0.005
-273.384	239.808	-0.070	0.115
-272.370	800.000	-0.057	0.199
-271.355	-200.000	0.025	0.172
-270.340	-187.303	-0.076	-0.001
-269.326	13.303	-0.099	0.076
-268.311	-37.993	-0.152	0.079
-267.297	-200.000	-0.065	-0.467
-266.282	-200.000	-0.043	-0.393
-265.267	33.090	0.205	-0.175
-264.253	-200.000	0.013	-0.138
-263.238	-176.403	0.283	-0.007
-262.224	44.822	0.409	-0.370
-261.209	-200.000	0.010	0.265
-260.195	-13.741	-0.139	0.089
-259.180	-111.699	0.467	-0.093
-258.165	-102.060	-0.566	0.134
-257.151	-65.310	-0.337	0.134
-256.136	-200.000	-0.017	0.333
-255.122	-139.816	0.162	-0.017
-254.107	-19.225	-0.300	0.183
-253.092	758.345	-0.132	-0.352
-252.078	203.295	-0.182	0.278
-251.063	39.302	-0.113	0.100
-250.049	52.569	0.158	-0.148
-249.034	199.647	0.132	-0.199
-248.019	456.901	-0.024	-0.052
-247.005	-101.909	-0.298	-0.071
-245.990	-200.000	-0.059	-0.312
-244.976	800.000	-0.107	0.293
-243.961	-152.188	-0.206	0.015
-242.946	-7.049	-0.314	-0.209
-241.932	-167.882	-0.281	0.011
-240.917	-155.582	0.350	0.022
-239.903	-46.181	0.186	0.090
-238.888	800.000	0.109	-0.413
-237.873	-139.536	0.218	0.023
-236.859	485.386	0.055	0.123
-235.844	-118.362	0.427	0.075
-234.830	5.093	-0.169	0.123
-233.815	-200.000	-0.095	-0.572
-232.800	800.000	-0.011	-0.033
-231.786	-3.558	0.249	0.170
-230.771	-200.000	0.015	0.074
-229.757	-124.098	0.098	0.015
-228.742	-92.618	0.187	0.052
-227.727	-92.909	0.132	0.036
-226.713	-89.596	-0.011	0.003
-225.698	-200.000	-0.039	-0.242
-224.684	599.171	-0.070	-0.171
-223.669	-144.422	0.226	-0.021
-222.655	-200.000	0.013	0.168
-221.640	-80.018	-0.295	-0.097
-220.625	-121.730	0.416	-0.068
-219.611	-86.623	-0.308	0.093
-218.596	-152.606	0.249	-0.017
-217.582	-97.470	0.218	-0.056
-216.567	-140.682	-0.272	-0.028
-215.552	-120.919	0.131	-0.022
-214.538	-91.256	-0.178	0.050
-213.523	-108.955	0.378	-0.079
-212.509	-200.000	0.003	-0.115
-211.494	-8.250	-0.102	0.067
-210.479	125.899	0.201	0.250
-209.465	215.540	-0.131	0.204
-208.450	135.582	0.279	-0.357
-207.436	-73.998	0.132	0.047
-206.421	0.541	0.193	0.136
-205.406	-111.019	-0.482	0.097
-204.392	-200.000	0.006	0.079
-203.377	-200.000	-0.030	-0.229
-202.363	-41.658	0.383	-0.193
-201.348	20.328	0.172	0.137
-200.333	-200.000	-0.049	0.349
-199.319	-106.046	0.164	-0.036
-198.304	-151.872	-0.295	0.021
-197.290	144.850	0.165	0.216
-196.275	-158.002	0.138	-0.008
-195.260	-145.419	-0.233	-0.021
-194.246	27.963	0.169	0.140
-193.231	102.828	-0.140	0.161
-192.217	-141.077	-0.160	-0.016
-191.202	-200.000	-0.042	0.290
-190.187	800.000	-0.111	0.436
-189.173	45.381	-0.167	0.151
-188.158	-137.939	-0.355	-0.039
-187.144	7.569	-0.237	-0.174
-186.129	96.196	-0.081	0.091
-185.114	-98.143	-0.326	0.082
-184.100	-200.000	0.021	-0.384
-183.085	139.980	0.284	-0.367
-182.071	-200.000	-0.003	-0.114
-181.056	29.213	-0.153	-0.128
-180.042	-200.000	-0.004	0.561
-179.027	431.302	-0.111	-0.237
-178.012	-200.000	0.031	-0.192
-176.998	-127.346	-0.266	0.038
-175.983	-82.842	0.026	-0.008
-174.969	224.060	0.050	0.078
-173.954	-200.000	-0.028	0.246
-172.939	-200.000	0.027	-0.172
-171.925	-107.682	0.174	-0.037
-170.910	171.185	0.190	0.267
-169.896	143.805	-0.134	-0.175
-168.881	536.253	0.137	0.320
-167.866	-200.000	0.025	0.211
-166.852	-85.902	0.179	0.054
-165.837	406.003	0.045	-0.093
-164.823	19.611	-0.170	0.134
-163.808	104.074	0.222	-0.255
-162.793	-134.916	-0.089	-0.011
-161.779	225.669	0.185	0.294
-160.764	217.482	0.097	-0.151
-159.750	145.369	0.143	0.188
-158.735	-123.335	0.364	0.057
-157.720	52.537	0.205	-0.192
-156.706	-200.000	0.001	0.137
-155.691	-102.982	0.217	0.050
-154.677	189.509	-0.051	-0.075
-153.662	-6.998	-0.298	-0.199
-152.647	800.000	-0.041	-0.116
-151.633	800.000	-0.033	-0.121
-150.618	-35.722	0.071	-0.037
-149.604	-199.644	0.097	0.000
-148.589	-200.000	-0.007	-0.184
-147.574	792.968	0.111	-0.299
-146.560	243.371	-0.051	0.083
-145.545	433.887	-0.132	-0.280
-144.531	-200.000	-0.001	-0.233
-143.516	800.000	0.019	-0.068
-142.502	-200.000	0.028	-0.221
-141.487	-126.378	-0.296	0.043
-140.472	-200.000	0.004	0.188
-139.458	38.396	0.175	-0.153
-138.443	80.719	0.121	-0.128
-137.429	-129.566	-0.158	-0.021
-136.414	-61.184	-0.604	-0.250
-135.399	-200.000	0.033	-0.256
-134.385	127.285	0.202	-0.252
-133.370	49.375	-0.084	-0.078
-132.356	132.072	-0.116	-0.146
-131.341	-139.433	0.263	0.028
-130.326	800.000	0.015	-0.058
-129.312	175.135	-0.160	0.227
-128.297	-200.000	0.046	-0.213
-127.283	-112.033	0.121	-0.024
-126.268	-200.000	-0.047	-0.212
-125.253	115.041	-0.108	-0.129
-124.239	400.822	0.117	0.241
-123.224	-104.153	-0.260	-0.059
-122.210	-200.000	-0.003	0.025
-121.195	-200.000	-0.035	-0.168
-120.180	226.018	-0.109	-0.174
-119.166	-200.000	0.021	0.177
-118.151	133.863	0.141	-0.179
-117.137	296.806	-0.042	0.075
-116.122	-60.461	0.257	-0.107
-115.107	-200.000	-0.001	-0.108
-114.093	348.145	-0.068	-0.132
-113.078	-135.706	-0.190	-0.022
-112.064	-200.000	-0.030	-0.344
-111.049	-100.526	-0.285	0.069
-110.034	-85.985	0.379	-0.115
-109.020	-200.000	0.051	-0.235
-108.005	115.518	-0.232	0.278
-106.991	-88.036	-0.200	-0.059
-105.976	-200.000	-0.012	-0.072
-104.962	14.122	0.273	-0.208
-103.947	131.593	0.266	-0.335
-102.932	485.971	-0.041	-0.091
-101.918	302.101	0.095	-0.172
-100.903	60.933	0.218	-0.212
-99.889	-200.000	-0.030	0.186
-98.874	16.391	0.021	0.016
-97.859	800.000	-0.136	-0.430
-96.845	39.986	0.286	0.251
-95.830	-33.913	-0.097	-0.052
-94.816	73.925	0.274	-0.281
-93.801	800.000	0.066	-0.242
-92.786	28.411	0.217	-0.179
-91.772	800.000	0.039	0.118
-90.757	-120.597	-0.431	-0.071
-89.743	-200.000	-0.075	0.381
-88.728	800.000	0.028	-0.094
-87.713	800.000	-0.128	-0.375
-86.699	77.174	0.160	0.167
-85.684	742.913	0.109	0.285
-84.670	800.000	0.061	0.191
-83.655	-53.739	0.096	-0.043
-82.640	-89.475	0.423	0.122
-81.626	610.962	0.056	-0.138
-80.611	486.165	-0.113	0.252
-79.597	-2.296	0.080	-0.055
-78.582	-71.660	-0.117	0.043
-77.567	51.815	-0.124	-0.115
-76.553	-101.038	0.444	0.106
-75.538	-166.287	-0.165	-0.007
-74.524	-200.000	0.008	-0.076
-73.509	-200.000	-0.033	-0.227
-72.494	-200.000	-0.007	0.139
-71.480	-16.410	-0.085	-0.053
-70.465	102.917	-0.072	-0.083
-69.451	-99.127	-0.185	0.046
-68.436	-144.805	0.262	0.023
-67.422	95.229	0.084	-0.093
-66.407	34.362	-0.095	-0.081
-65.392	168.626	0.144	0.201
-64.378	-9.933	0.190	0.123
-63.363	-200.000	0.066	-0.312
-62.349	-200.000	-0.042	0.210
-61.334	78.677	-1.186	-1.239
-60.319	9.152	0.592	0.437
-59.305	269.352	-0.625	-1.072
-58.290	389.809	0.605	1.224
-57.276	800.000	0.499	1.668
-56.261	-200.000	113.273	646.505
-55.246	487.456	1478.493	3295.033
-54.232	152.297	2646.670	3527.914
-53.217	94.995	2270.032	2523.426
-52.203	36.509	1890.823	1629.407
-51.188	31.104	1686.996	1412.902
-50.173	28.650	1645.724	1360.123
-49.159	47.972	1701.590	1552.478
-48.144	47.080	1715.407	1558.299
-47.130	30.471	1674.195	1397.198
-46.115	27.983	1659.291	1366.132
-45.100	27.816	1655.322	1361.569
-44.086	27.816	1652.404	1359.110
-43.071	27.772	1649.940	1356.705
-42.057	27.772	1647.937	1355.002
-41.042	27.869	1645.634	1353.775
-40.027	27.884	1643.676	1352.225
-39.013	27.773	1642.570	1350.434
-37.998	27.736	1641.056	1348.864
-36.984	27.789	1639.339	1347.795
-35.969	27.912	1637.958	1347.513
-34.954	27.904	1636.417	1346.133
-33.940	27.885	1634.524	1344.381
-32.925	27.914	1632.783	1343.106
-31.911	27.923	1630.776	1341.468
-30.896	27.883	1629.628	1340.179
-29.881	27.916	1627.608	1338.704
-28.867	27.917	1626.416	1337.677
-27.852	27.873	1625.169	1336.281
-26.838	27.908	1624.047	1335.561
-25.823	27.913	1622.217	1334.035
-24.809	27.982	1620.741	1333.277
-23.794	28.106	1618.983	1332.681
-22.779	27.954	1617.760	1330.516
-21.765	27.973	1616.138	1329.264
-20.750	27.929	1614.875	1327.851
-19.736	27.958	1613.606	1326.966
-18.721	27.998	1612.036	1325.918
-17.706	28.008	1610.883	1324.988
-16.692	27.894	1609.194	1322.717
-15.677	27.956	1607.781	1321.955
-14.663	27.984	1606.639	1321.162
-13.648	27.924	1605.647	1319.860
-12.633	28.085	1603.147	1318.913
-11.619	27.990	1602.529	1317.671
-10.604	28.010	1600.521	1316.111
-9.590	28.121	1598.817	1315.455
-8.575	28.036	1597.968	1314.096
-7.560	28.020	1596.488	1312.711
-6.546	27.953	1595.659	1311.498
-5.531	27.986	1594.660	1310.861
-4.517	27.909	1593.395	1309.216
-3.502	27.911	1592.247	1308.237
-2.487	27.960	1590.301	1306.937
-1.473	27.262	1578.078	1291.879
-0.458	23.370	1556.714	1247.008
0.556	17.965	1554.838	1206.033
1.571	14.957	1576.337	1201.030
2.586	14.392	1587.115	1205.055
3.600	13.216	1534.295	1156.622
4.615	7.688	1430.946	1042.447
5.629	2.060	1370.899	963.174
6.644	0.962	1363.299	950.856
7.659	0.886	1362.309	949.603
8.673	0.810	1361.058	948.171
9.688	0.823	1359.427	947.032
10.702	0.658	1355.871	943.445
11.717	3.391	1359.165	962.743
12.731	10.220	1369.621	1012.929
13.746	15.859	1378.068	1054.508
14.761	17.536	1378.766	1065.450
15.775	16.842	1377.220	1059.820
16.790	15.916	1374.602	1051.934
17.804	15.134	1372.445	1045.309
18.819	14.700	1370.986	1041.400
19.834	14.446	1369.732	1038.770
20.848	14.307	1368.357	1036.771
21.863	13.936	1367.027	1033.367
22.877	13.772	1366.179	1031.611
23.892	13.691	1365.051	1030.169
24.907	13.710	1364.304	1029.631
25.921	13.731	1363.465	1029.033
26.936	13.831	1362.506	1028.843
27.950	13.824	1361.299	1027.793
28.965	13.840	1360.512	1027.210
29.980	13.884	1359.635	1026.730
30.994	13.981	1358.892	1026.677
32.009	14.007	1358.247	1026.261
33.023	13.988	1356.343	1024.611
34.038	13.904	1355.646	1023.477
35.053	13.867	1354.194	1022.060
36.067	13.886	1353.076	1021.247
37.082	13.910	1352.625	1020.964
38.096	13.939	1351.373	1020.106
39.111	13.932	1350.756	1019.504
40.126	13.911	1349.930	1018.661
41.140	13.830	1349.352	1017.642
42.155	13.727	1348.580	1016.334
43.169	13.845	1348.019	1016.548
44.184	13.742	1348.527	1016.209
45.199	13.872	1347.568	1016.192
46.213	13.815	1347.309	1015.557
47.228	13.840	1346.245	1014.816
48.242	13.796	1345.143	1013.630
49.257	13.855	1343.735	1012.839
50.271	13.671	1342.586	1010.758
51.286	13.919	1340.331	1010.482
52.301	13.802	1339.274	1008.888
53.315	13.783	1339.159	1008.595
54.330	13.869	1337.119	1007.491
55.344	13.727	1336.650	1006.185
56.359	13.790	1335.252	1005.424
57.374	13.787	1334.275	1004.582
58.388	13.704	1334.008	1003.790
59.403	13.705	1333.227	1003.119
60.417	13.642	1332.456	1002.073
61.432	13.743	1331.423	1001.818
62.447	13.720	1330.512	1000.902
63.461	13.593	1329.369	999.187
64.476	13.763	1327.874	999.003
65.490	13.594	1327.478	997.597
66.505	13.710	1325.282	996.554
67.520	13.742	1324.071	995.749
68.534	13.765	1323.158	995.110
69.549	13.838	1321.978	994.574
70.563	13.696	1320.976	992.883
71.578	13.693	1319.753	991.857
72.593	13.602	1319.187	990.801
73.607	13.546	1318.731	990.034
74.622	13.550	1317.584	989.111
75.636	13.713	1316.339	989.059
76.651	13.697	1315.274	988.075
77.666	13.676	1315.058	987.703
78.680	13.611	1314.883	987.096
79.695	13.586	1313.718	985.987
80.709	13.683	1312.723	985.731
81.724	13.794	1312.138	985.862
82.739	13.674	1312.011	984.969
83.753	13.769	1310.702	984.463
84.768	13.723	1310.019	983.590
85.782	13.877	1308.009	982.904
86.797	13.898	1306.926	982.126
87.812	13.887	1305.560	980.947
88.826	13.732	1304.949	979.486
89.841	13.860	1303.782	979.280
90.855	13.805	1303.028	978.302
91.870	13.772	1302.271	977.452
92.884	13.928	1300.943	977.290
93.899	13.866	1300.530	976.526
94.914	13.975	1299.372	976.213
95.928	13.984	1298.277	975.353
96.943	13.911	1297.669	974.381
97.957	13.831	1296.845	973.209
98.972	13.860	1295.572	972.339
99.987	13.856	1294.449	971.387
101.001	13.785	1293.580	970.231
102.016	13.922	1292.394	970.058
103.030	13.914	1291.598	969.325
104.045	13.891	1290.613	968.366
105.060	13.882	1289.290	967.235
106.074	13.853	1287.841	965.898
107.089	13.835	1286.502	964.699
108.103	13.771	1285.650	963.604
109.118	13.694	1284.484	962.201
110.133	13.823	1282.928	961.698
111.147	13.820	1281.613	960.609
112.162	13.804	1280.623	959.687
113.176	13.853	1279.295	958.890
114.191	13.884	1277.904	957.943
115.206	13.863	1276.881	956.971
116.220	13.870	1275.714	956.051
117.235	13.811	1274.621	954.809
118.249	13.792	1274.085	954.214
119.264	13.809	1272.599	953.111
120.279	13.741	1272.006	952.195
121.293	13.660	1271.096	950.964
122.308	13.788	1269.571	950.474
123.322	13.649	1268.734	948.964
124.337	13.771	1267.814	948.894
125.352	13.787	1266.702	948.067
126.366	13.819	1265.525	947.284
127.381	13.784	1264.368	946.135
128.395	13.811	1262.962	945.156
129.410	13.817	1262.462	944.730
130.424	13.838	1261.265	943.872
131.439	13.837	1260.416	943.148
132.454	13.788	1259.503	942.102
133.468	13.734	1258.699	941.110
134.483	13.814	1257.898	940.879
135.497	13.894	1257.136	940.679
136.512	13.841	1255.470	939.052
137.527	13.775	1254.610	937.955
138.541	13.918	1252.817	937.335
139.556	13.829	1251.603	935.844
140.570	13.861	1250.438	935.069
141.585	13.890	1249.294	934.295
142.600	13.988	1247.961	933.766
143.614	14.006	1247.365	933.338
144.629	14.014	1246.582	932.712
145.643	13.958	1245.520	931.523
146.658	13.936	1243.791	930.022
147.673	13.915	1242.546	928.894
148.687	13.939	1241.393	928.086
149.702	13.874	1240.395	926.891
150.716	13.920	1238.687	925.789
151.731	13.929	1237.457	924.843
152.746	13.925	1236.418	923.959
153.760	13.961	1235.795	923.609
154.775	14.009	1234.446	922.786
155.789	14.068	1233.178	922.086
156.804	14.007	1232.578	921.217
157.819	14.142	1231.143	920.809
158.833	14.106	1230.374	919.955
159.848	14.121	1229.644	919.412
160.862	14.145	1228.353	918.498
161.877	14.089	1227.154	917.212
162.892	14.091	1225.907	916.209
163.906	14.015	1225.373	915.312
164.921	14.144	1224.160	915.033
165.935	14.190	1223.145	914.446
166.950	14.114	1222.815	913.699
167.964	14.088	1222.268	913.069
168.979	14.122	1221.530	912.621
169.994	14.091	1220.872	911.881
171.008	14.219	1219.591	911.543
172.023	14.169	1218.962	910.719
173.037	14.347	1217.808	910.750
174.052	14.320	1216.729	909.714
175.067	14.224	1216.268	908.763
176.081	14.122	1215.515	907.568
177.096	14.200	1214.401	907.077
178.110	14.323	1213.071	906.672
179.125	14.306	1211.959	905.673
180.140	14.266	1210.542	904.318
181.154	14.308	1209.163	903.431
182.169	14.315	1208.136	902.625
183.183	14.423	1207.072	902.335
184.198	14.361	1205.967	901.093
185.213	14.407	1204.668	900.292
186.227	14.480	1203.670	899.861
187.242	14.445	1202.736	898.891
188.256	14.481	1201.965	898.432
189.271	14.465	1200.611	897.254
190.286	14.231	1200.139	895.560
191.300	14.342	1199.099	895.304
192.315	14.329	1198.313	894.567
193.329	14.391	1197.754	894.404
194.344	14.289	1197.660	893.709
195.359	14.329	1196.584	893.039
196.373	14.386	1195.892	892.751
197.388	14.505	1195.718	893.177
198.402	14.559	1194.781	892.688
199.417	14.653	1194.205	892.681
200.432	14.597	1193.297	891.626
201.446	14.549	1192.263	890.514
202.461	14.697	1191.411	890.589
203.475	14.617	1190.470	889.381
204.490	14.469	1189.164	887.539
205.504	14.630	1187.541	887.108
206.519	14.542	1186.929	886.106
207.534	14.593	1185.617	885.317
208.548	14.632	1184.871	884.887
209.563	14.704	1183.963	884.510
210.577	14.545	1183.369	883.149
211.592	14.707	1182.122	882.995
212.607	14.780	1181.422	882.779
213.621	14.735	1180.443	881.735
214.636	14.748	1179.557	881.060
215.650	14.836	1178.981	881.018
216.665	14.700	1178.105	879.570
217.680	14.718	1177.220	878.924
218.694	14.875	1175.972	878.739
219.709	14.875	1175.349	878.198
220.723	14.808	1174.975	877.489
221.738	14.891	1174.092	877.187
222.753	14.910	1173.089	876.459
223.767	14.987	1172.045	876.005
224.782	14.987	1171.554	875.560
225.796	15.122	1171.140	875.879
226.811	15.015	1170.411	874.698
227.826	15.004	1169.852	874.148
228.840	14.977	1169.118	873.379
229.855	14.915	1168.184	872.283
230.869	14.936	1167.098	871.503
231.884	14.977	1166.787	871.407
232.899	15.084	1165.490	870.916
233.913	14.958	1164.902	869.748
234.928	15.003	1164.318	869.468
235.942	14.978	1163.495	868.647
236.957	14.971	1162.547	867.824
237.972	15.036	1161.921	867.618
238.986	14.913	1161.702	866.738
240.001	14.862	1161.022	865.890
241.015	15.045	1159.970	865.979
242.030	15.029	1158.725	864.889
243.045	15.077	1158.352	864.783
244.059	15.108	1157.435	864.178
245.074	15.063	1156.732	863.345
246.088	15.156	1156.132	863.302
247.103	15.227	1155.195	862.892
248.117	15.192	1154.578	862.175
249.132	15.271	1153.643	861.808
250.147	15.251	1153.213	861.305
251.161	15.336	1152.157	860.877
252.176	15.267	1151.649	860.069
253.190	15.353	1150.626	859.670
254.205	15.414	1150.332	859.686
255.220	15.413	1149.648	859.090
256.234	15.520	1148.707	858.859
257.249	15.422	1148.472	858.106
258.263	15.421	1147.873	857.580
259.278	15.433	1147.085	856.973
260.293	15.431	1146.838	856.703
261.307	15.608	1145.887	856.821
262.322	15.532	1145.619	856.159
263.336	15.606	1144.641	855.729
264.351	15.580	1144.222	855.205
265.366	15.713	1143.231	855.067
266.380	15.616	1142.757	854.141
267.395	15.628	1141.926	853.507
268.409	15.544	1141.210	852.469
269.424	15.668	1140.755	852.682
270.439	15.637	1140.104	851.965
271.453	15.614	1138.913	850.883
272.468	15.633	1138.239	850.399
273.482	15.545	1137.280	849.161
274.497	15.716	1137.026	849.764
275.512	15.654	1136.508	848.989
276.526	15.721	1135.435	848.451
277.541	15.766	1134.716	848.062
278.555	15.763	1134.065	847.486
279.570	15.779	1133.411	847.005
280.585	15.740	1132.498	846.050
281.599	15.798	1131.897	845.817
282.614	15.870	1130.702	845.210
283.628	15.816	1129.476	843.950
284.643	15.741	1129.004	843.146
285.657	15.866	1128.104	843.024
286.672	15.895	1127.144	842.379
287.687	15.901	1126.152	841.592
288.701	15.848	1125.408	840.697
289.716	15.900	1124.701	840.354
290.730	15.835	1124.201	839.580
291.745	15.932	1123.003	839.098
292.760	15.948	1122.457	838.692
293.774	15.956	1121.772	838.150
294.789	16.024	1121.158	837.954
295.803	16.053	1120.915	837.840
296.818	16.131	1119.644	837.203
297.833	16.094	1119.058	836.508
298.847	16.129	1118.184	835.956
299.862	16.021	1117.891	835.125
300.876	16.076	1117.001	834.663
301.891	16.090	1116.609	834.363
302.906	16.195	1115.678	834.114
303.920	16.276	1114.638	833.664
304.935	16.271	1114.497	833.457
305.949	16.360	1113.389	832.993
306.964	16.343	1112.763	832.367
307.979	16.326	1112.007	831.645
308.993	16.271	1111.543	830.956
310.008	16.328	1110.682	830.520
311.022	16.387	1110.028	830.244
312.037	16.380	1109.057	829.409
313.052	16.432	1108.154	828.919
314.066	16.332	1107.419	827.803
315.081	16.234	1106.600	826.639
316.095	16.292	1106.189	826.543
317.110	16.337	1105.185	825.936
318.125	16.233	1104.334	824.719
319.139	16.295	1103.878	824.611
320.154	16.257	1103.370	823.971
321.168	16.280	1102.998	823.734
322.183	16.371	1101.934	823.311
323.197	16.278	1101.422	822.402
324.212	16.313	1100.648	821.923
325.227	16.266	1100.375	821.416
326.241	16.422	1099.462	821.418
327.256	16.393	1098.719	820.653
328.270	16.322	1097.801	819.548
329.285	16.355	1096.715	818.826
330.300	16.331	1095.845	817.987
331.314	16.472	1095.113	818.051
332.329	16.403	1093.863	816.710
333.343	16.473	1093.013	816.344
334.358	16.641	1092.311	816.558
335.373	16.514	1091.939	815.593
336.387	16.503	1091.149	814.878
337.402	16.581	1089.947	814.284
338.416	16.568	1089.278	813.648
339.431	16.684	1088.645	813.665
340.446	16.705	1088.534	813.610
341.460	16.710	1088.053	813.202
342.475	16.815	1086.579	812.533
343.489	16.798	1085.830	811.820
344.504	16.751	1084.899	810.825
345.519	16.741	1084.320	810.271
346.533	16.764	1083.451	809.662
347.548	16.910	1082.329	809.451
348.562	16.820	1082.092	808.772
349.577	16.771	1081.325	807.891
350.592	16.753	1080.581	807.180
351.606	16.800	1079.702	806.674
352.621	16.768	1078.974	805.907
353.635	16.739	1078.599	805.416
354.650	16.772	1077.622	804.775
355.665	16.840	1077.018	804.574
356.679	16.843	1076.439	804.086
357.694	16.886	1075.531	803.539
358.708	16.895	1075.427	803.435
359.723	16.956	1074.672	803.087
360.738	16.925	1073.967	802.341
361.752	16.991	1073.262	802.055
362.767	16.915	1072.913	801.364
363.781	17.067	1072.042	801.361
364.796	17.065	1071.559	800.920
365.810	17.058	1071.151	800.512
366.825	17.113	1070.385	800.126
367.840	17.198	1069.653	799.911
368.854	17.104	1068.877	798.816
369.869	17.125	1068.903	798.863
370.883	17.108	1067.758	797.859
371.898	17.224	1066.794	797.611
372.913	17.286	1066.264	797.437
373.927	17.307	1065.792	797.110
374.942	17.297	1065.235	796.575
375.956	17.263	1065.090	796.237
376.971	17.174	1064.363	795.207
377.986	17.154	1063.906	794.703
379.000	17.418	1062.901	795.115
380.015	17.403	1062.211	794.458
381.029	17.444	1061.919	794.361
382.044	17.346	1061.238	793.324
383.059	17.341	1060.461	792.651
384.073	17.539	1059.661	792.904
385.088	17.360	1058.698	791.281
386.102	17.353	1057.737	790.459
387.117	17.454	1056.796	790.155
388.132	17.422	1056.414	789.651
389.146	17.396	1055.480	788.763
390.161	17.437	1054.748	788.336
391.175	17.465	1053.767	787.661
392.190	17.529	1053.424	787.635
393.205	17.618	1052.434	787.234
394.219	17.537	1051.503	786.091
395.234	17.524	1050.885	785.503
396.248	17.513	1049.566	784.398
397.263	17.478	1048.809	783.600
398.278	17.543	1047.837	783.105
399.292	17.457	1047.695	782.531
400.307	17.495	1046.997	782.115
401.321	17.675	1045.798	781.979
402.336	17.437	1045.952	780.932
403.350	17.493	1044.915	780.342
404.365	17.588	1044.111	780.111
405.380	17.740	1043.500	780.279
406.394	17.744	1042.467	779.456
407.409	17.653	1042.014	778.632
408.423	17.719	1041.087	778.173
409.438	17.792	1040.419	777.938
410.453	17.739	1040.188	777.454
411.467	17.893	1039.350	777.459
412.482	17.902	1038.356	776.689
413.496	17.907	1037.922	776.318
414.511	17.989	1037.340	776.187
415.526	17.855	1036.775	775.087
416.540	18.021	1036.192	775.339
417.555	17.923	1036.407	774.982
418.569	18.028	1035.602	774.788
419.584	17.952	1034.977	773.908
420.599	18.030	1034.248	773.650
421.613	107.627	1325.570	1480.579
422.628	98.695	1367.953	1480.699
