DTS Sentinel unit serial number:	SN413079Multiplexer serial number:	ORYXHardware model number:	OX4-SRSoftware version number:	ORYX F/W v4.00 Oryx Data Collector v3.7.2.0data status	okinstallation	princeton_trtdifferential loss correction	single-endedforward channel	channel 2reverse channel	N/Adate	2019/09/13time	23:07:35forward acquisition time	60.00reverse acquisition time	0.00gamma	496.2192k internal	0.2337k external	0.2337temperature offset calibration	1.0128default loss term (dB/km)	0.3790temperature slope calibration	1.0000multiplexer offset coefficient	1.0000multiplexer slope coefficient	1.0000fibre end	0.00T internal ref (°C)	27.23T ext. ref 1 (°C)	3.21T ext. ref 2 (°C)	21.23length (m)	temperature (°C)	Stokes	anti-Stokes-747.200	-165.873	0.159	-0.007
-746.185	-200.000	-0.011	-0.066
-745.171	-144.257	-0.382	0.036
-744.156	-200.000	0.046	0.402
-743.142	38.014	0.344	0.307
-742.127	-57.349	-0.373	0.165
-741.112	-200.000	0.057	-0.257
-740.098	155.627	0.166	-0.229
-739.083	4.996	0.045	0.033
-738.069	431.564	-0.096	0.209
-737.054	-58.349	0.319	0.139
-736.039	65.183	-0.108	-0.110
-735.025	-22.861	0.395	0.239
-734.010	-200.000	0.022	-0.168
-732.996	-41.162	-0.373	-0.193
-731.981	-107.943	0.097	-0.021
-730.966	-200.000	-0.007	-0.175
-729.952	284.752	-0.070	0.126
-728.937	-200.000	-0.002	-0.068
-727.923	-24.120	-0.349	0.209
-726.908	-74.729	-0.271	-0.098
-725.894	444.608	-0.102	-0.225
-724.879	692.117	0.175	-0.461
-723.864	-200.000	0.020	-0.355
-722.850	-200.000	0.025	-0.131
-721.835	-80.380	0.147	0.049
-720.821	107.970	-0.069	-0.082
-719.806	409.198	-0.107	-0.226
-718.791	67.046	-0.118	-0.120
-717.777	-112.638	-0.180	0.036
-716.762	-166.804	-0.175	0.007
-715.748	7.354	0.085	0.064
-714.733	-34.774	-0.029	0.016
-713.718	-110.551	-0.227	0.047
-712.704	-21.446	0.221	-0.135
-711.689	283.689	-0.139	-0.250
-710.675	-127.372	-0.202	-0.029
-709.660	63.848	-0.020	0.020
-708.645	800.000	-0.069	-0.281
-707.631	-160.767	0.129	-0.007
-706.616	-200.000	-0.013	-0.308
-705.602	167.721	0.143	-0.204
-704.587	-51.007	-0.374	0.176
-703.572	800.000	0.026	-0.075
-702.558	-200.000	0.157	0.001
-701.543	-98.918	-0.149	0.038
-700.529	47.526	0.206	-0.192
-699.514	-76.312	0.455	-0.161
-698.499	-200.000	0.015	0.173
-697.485	639.352	0.076	-0.194
-696.470	-101.484	0.411	-0.100
-695.456	800.000	-0.056	-0.174
-694.441	800.000	-0.085	-0.285
-693.426	464.970	0.040	-0.091
-692.412	-107.638	0.209	0.046
-691.397	135.801	-0.129	0.168
-690.383	148.736	0.152	-0.206
-689.368	77.103	0.105	0.111
-688.354	437.341	0.081	0.176
-687.339	134.172	0.231	-0.299
-686.324	-62.125	0.288	-0.120
-685.310	800.000	-0.067	0.281
-684.295	379.756	-0.106	-0.218
-683.281	800.000	0.039	0.118
-682.266	-48.755	-0.321	-0.154
-681.251	549.827	0.037	0.088
-680.237	231.491	0.199	-0.327
-679.222	436.398	0.094	0.205
-678.208	-120.801	-0.131	-0.022
-677.193	130.440	0.097	0.125
-676.178	247.788	0.029	-0.050
-675.164	800.000	0.062	-0.226
-674.149	-16.602	-0.117	-0.074
-673.135	-170.771	-0.432	-0.015
-672.120	258.999	-0.022	-0.038
-671.105	-200.000	-0.043	-0.269
-670.091	-200.000	0.059	-0.279
-669.076	-73.587	-0.310	0.113
-668.062	-86.453	0.285	-0.088
-667.047	-70.586	0.026	0.010
-666.032	-94.845	-0.450	0.122
-665.018	-10.198	0.117	0.078
-664.003	132.805	-0.032	0.042
-662.989	10.768	0.193	0.147
-661.974	70.387	0.180	0.186
-660.959	115.394	-0.197	-0.241
-659.945	106.854	-0.051	0.061
-658.930	-0.736	0.120	-0.085
-657.916	800.000	0.107	-0.469
-656.901	-71.814	0.243	-0.090
-655.886	-96.891	-0.275	0.072
-654.872	800.000	-0.115	-0.404
-653.857	-0.697	0.296	-0.210
-652.843	800.000	0.034	-0.137
-651.828	-200.000	-0.058	-0.373
-650.814	542.425	0.062	-0.148
-649.799	213.098	0.249	-0.394
-648.784	293.587	0.120	-0.220
-647.770	-83.773	-0.123	0.039
-646.755	13.797	0.071	-0.055
-645.741	-26.127	-0.325	-0.191
-644.726	-200.000	-0.006	0.090
-643.711	-200.000	-0.028	-0.379
-642.697	357.524	0.066	-0.131
-641.682	-6.132	0.114	0.078
-640.668	29.364	-0.208	0.177
-639.653	-175.609	0.331	-0.009
-638.638	-119.243	-0.031	0.005
-637.624	-176.633	0.396	-0.010
-636.609	-167.873	0.403	0.016
-635.595	-119.505	0.285	-0.049
-634.580	55.715	0.145	0.140
-633.565	-200.000	-0.025	0.114
-632.551	63.734	0.147	-0.148
-631.536	-200.000	-0.091	-0.454
-630.522	-200.000	-0.000	-0.283
-629.507	0.028	-0.299	0.213
-628.492	351.592	-0.163	-0.323
-627.478	-200.000	-0.021	-0.222
-626.463	-29.667	0.277	-0.158
-625.449	-98.644	0.371	-0.095
-624.434	-200.000	-0.048	-0.283
-623.419	-70.274	-0.465	0.176
-622.405	261.177	0.062	-0.107
-621.390	-200.000	0.050	-0.273
-620.376	-12.606	-0.045	-0.030
-619.361	-200.000	0.011	-0.139
-618.346	-37.178	-0.002	-0.001
-617.332	-142.202	-0.327	0.032
-616.317	-200.000	0.014	-0.271
-615.303	-122.554	-0.261	0.042
-614.288	-140.803	-0.157	0.016
-613.273	158.747	0.210	0.291
-612.259	167.036	-0.154	0.218
-611.244	229.102	0.184	-0.300
-610.230	270.930	0.256	0.450
-609.215	-111.709	-0.345	0.070
-608.201	714.236	-0.088	0.232
-607.186	-30.740	-0.244	0.138
-606.171	41.831	-0.116	0.105
-605.157	-200.000	-0.020	0.187
-604.142	147.645	0.189	-0.254
-603.128	65.247	-0.132	-0.133
-602.113	-200.000	0.032	-0.309
-601.098	25.308	0.055	0.046
-600.084	20.516	0.248	-0.200
-599.069	-46.434	0.042	-0.020
-598.055	-200.000	0.026	0.123
-597.040	-49.676	0.110	-0.052
-596.025	148.160	0.147	0.198
-595.011	-33.044	0.353	-0.196
-593.996	50.586	0.104	-0.098
-592.982	13.015	0.085	-0.066
-591.967	125.384	-0.055	0.069
-590.952	74.131	0.217	0.227
-589.938	800.000	-0.096	0.272
-588.923	-50.273	0.086	-0.040
-587.909	32.475	-0.170	0.147
-586.894	305.954	0.136	-0.252
-585.879	41.802	-0.118	0.107
-584.865	-59.390	0.274	-0.117
-583.850	800.000	-0.086	0.241
-582.836	-101.626	0.040	0.010
-581.821	-136.569	-0.215	-0.025
-580.806	-43.240	0.080	0.040
-579.792	-108.697	-0.146	0.031
-578.777	-139.567	-0.289	-0.031
-577.763	800.000	-0.053	-0.194
-576.748	250.069	-0.060	0.102
-575.733	130.849	-0.071	-0.091
-574.719	-19.822	-0.170	0.104
-573.704	-59.814	-0.041	-0.017
-572.690	-121.921	-0.158	0.026
-571.675	556.354	-0.133	0.319
-570.661	-200.000	-0.019	0.089
-569.646	-10.391	-0.216	-0.143
-568.631	-85.907	-0.042	-0.013
-567.617	-200.000	0.017	0.103
-566.602	-65.257	-0.112	0.045
-565.588	-41.693	0.070	-0.036
-564.573	-139.421	-0.260	-0.028
-563.558	-60.888	-0.087	0.036
-562.544	14.006	-0.170	0.132
-561.529	54.941	-0.180	-0.173
-560.515	2.527	-0.190	0.137
-559.500	-150.891	0.280	-0.021
-558.485	-200.000	-0.008	-0.209
-557.471	-5.392	-0.169	0.116
-556.456	800.000	0.082	-0.340
-555.442	241.248	-0.095	-0.158
-554.427	-125.090	0.069	-0.011
-553.412	-71.576	0.217	-0.081
-552.398	-103.061	0.137	0.032
-551.383	-103.191	0.250	0.059
-550.369	170.376	0.227	-0.324
-549.354	232.641	-0.039	-0.064
-548.339	-70.603	-0.192	0.072
-547.325	-31.786	-0.304	-0.170
-546.310	-200.000	0.004	0.092
-545.296	800.000	-0.061	0.216
-544.281	-200.000	0.023	-0.166
-543.266	-171.428	-0.412	-0.014
-542.252	49.775	0.149	0.140
-541.237	-200.000	-0.018	-0.099
-540.223	-190.859	0.457	-0.005
-539.208	-200.000	0.014	-0.096
-538.193	800.000	-0.022	0.085
-537.179	15.636	-0.106	-0.083
-536.164	78.060	0.244	-0.259
-535.150	-149.394	0.346	-0.027
-534.135	351.058	0.085	-0.167
-533.121	-28.922	-0.160	-0.091
-532.106	-100.265	0.081	-0.020
-531.091	-90.152	0.101	-0.029
-530.077	-8.762	0.078	-0.052
-529.062	-200.000	0.052	-0.238
-528.048	680.058	-0.079	0.204
-527.033	0.016	0.151	-0.107
-526.018	-200.000	-0.007	-0.300
-525.004	-200.000	0.017	0.153
-523.989	800.000	0.095	0.330
-522.975	-101.510	0.246	0.060
-521.960	-51.155	-0.165	0.077
-520.945	88.646	0.101	0.112
-519.931	-100.516	0.234	0.058
-518.916	-38.781	-0.323	-0.169
-517.902	208.965	-0.168	-0.262
-516.887	-124.618	-0.023	0.004
-515.872	33.492	-0.168	-0.145
-514.858	243.741	-0.164	0.274
-513.843	463.019	0.071	0.158
-512.829	18.911	-0.027	-0.021
-511.814	154.013	0.131	0.178
-510.799	-121.407	-0.396	0.066
-509.785	800.000	0.075	0.266
-508.770	325.636	-0.156	0.296
-507.756	-200.000	0.026	-0.145
-506.741	800.000	-0.006	-0.023
-505.726	143.048	-0.143	0.189
-504.712	-200.000	0.014	-0.074
-503.697	254.245	0.060	-0.102
-502.683	-24.315	-0.204	-0.121
-501.668	-13.967	0.218	0.140
-500.653	36.554	-0.163	-0.143
-499.639	800.000	-0.062	0.265
-498.624	-200.000	-0.008	0.103
-497.610	99.247	-0.130	0.149
-496.595	-200.000	-0.036	0.321
-495.581	-200.000	-0.064	0.302
-494.566	-72.950	-0.406	-0.148
-493.551	800.000	-0.040	0.170
-492.537	-200.000	0.029	-0.352
-491.522	800.000	-0.057	0.205
-490.508	57.706	0.180	-0.175
-489.493	31.723	-0.204	-0.174
-488.478	-73.991	0.442	-0.159
-487.464	114.486	0.119	0.144
-486.449	160.557	-0.069	0.096
-485.435	-85.312	0.202	-0.063
-484.420	-62.210	-0.144	0.060
-483.405	-200.000	-0.045	-0.635
-482.391	71.104	0.076	0.079
-481.376	423.073	-0.081	-0.173
-480.362	-200.000	-0.020	-0.104
-479.347	800.000	-0.057	0.170
-478.332	-200.000	-0.005	-0.250
-477.318	-159.283	0.230	-0.013
-476.303	-150.546	0.153	-0.012
-475.289	800.000	0.020	0.065
-474.274	-107.490	-0.251	0.055
-473.259	800.000	-0.048	-0.139
-472.245	42.358	0.066	-0.059
-471.230	-72.435	0.240	0.088
-470.216	800.000	-0.023	-0.095
-469.201	-128.454	0.093	-0.013
-468.186	127.849	-0.280	0.353
-467.172	173.359	0.110	0.158
-466.157	-84.857	0.207	-0.065
-465.143	-45.039	0.149	0.074
-464.128	24.732	-0.064	0.053
-463.113	800.000	0.043	0.151
-462.099	-25.443	-0.178	-0.105
-461.084	702.822	-0.135	0.353
-460.070	-66.969	-0.389	0.153
-459.055	-200.000	-0.008	-0.043
-458.040	-59.665	-0.117	-0.050
-457.026	-200.000	-0.001	-0.264
-456.011	-93.201	0.297	0.082
-454.997	-200.000	-0.020	-0.092
-453.982	703.824	-0.135	-0.353
-452.968	800.000	-0.034	-0.125
-451.953	-200.000	-0.030	0.146
-450.938	800.000	0.071	0.201
-449.924	-134.799	-0.484	-0.058
-448.909	-112.396	0.169	-0.034
-447.895	-101.121	-0.242	0.059
-446.880	-30.751	0.227	0.127
-445.865	800.000	-0.049	0.162
-444.851	-48.331	-0.142	0.068
-443.836	-179.542	0.300	0.006
-442.822	800.000	-0.049	-0.139
-441.807	596.896	-0.054	-0.134
-440.792	75.191	-0.373	-0.390
-439.778	153.629	0.070	0.095
-438.763	-139.032	-0.060	-0.006
-437.749	199.268	0.115	0.175
-436.734	-66.814	0.318	-0.125
-435.719	-114.195	0.073	0.014
-434.705	2.954	0.193	-0.139
-433.690	261.787	-0.102	0.176
-432.676	167.536	0.091	-0.128
-431.661	800.000	-0.209	-0.596
-430.646	344.713	-0.103	0.200
-429.632	-169.054	-0.254	-0.009
-428.617	-65.915	-0.278	0.110
-427.603	-120.532	-0.125	-0.021
-426.588	-200.000	0.004	0.229
-425.573	-75.634	0.355	-0.125
-424.559	800.000	-0.060	0.176
-423.544	-149.957	0.109	0.008
-422.530	81.470	0.091	-0.098
-421.515	676.728	-0.136	-0.351
-420.500	-107.953	0.184	-0.040
-419.486	-200.000	0.020	-0.361
-418.471	800.000	-0.095	-0.269
-417.457	-200.000	-0.020	-0.253
-416.442	800.000	0.048	-0.136
-415.428	-41.785	0.350	0.178
-414.413	525.482	-0.120	0.279
-413.398	-24.242	0.203	-0.120
-412.384	-116.409	-0.254	0.047
-411.369	-24.910	-0.312	0.183
-410.355	-103.858	0.067	0.016
-409.340	-200.000	0.274	0.001
-408.325	12.694	-0.179	-0.137
-407.311	32.165	0.164	0.140
-406.296	-200.000	0.011	0.195
-405.282	-79.369	-0.259	0.087
-404.267	4.478	0.124	-0.090
-403.252	97.663	-0.080	-0.091
-402.238	20.671	0.065	0.053
-401.223	-200.000	-0.049	0.382
-400.209	800.000	0.131	-0.383
-399.194	22.516	-0.208	-0.168
-398.179	-47.744	-0.181	0.087
-397.165	-39.242	-0.246	0.128
-396.150	294.964	-0.141	-0.255
-395.136	68.966	0.277	0.282
-394.121	79.513	-0.199	0.212
-393.106	-44.279	-0.368	-0.183
-392.092	516.122	0.114	-0.263
-391.077	-6.121	-0.129	0.087
-390.063	-200.000	0.060	0.421
-389.048	-126.387	-0.110	0.016
-388.033	-200.000	-0.030	-0.189
-387.019	-200.000	0.021	-0.132
-386.004	75.676	-0.121	-0.127
-384.990	202.104	-0.031	-0.048
-383.975	216.352	0.120	-0.189
-382.960	-120.005	0.252	0.043
-381.946	800.000	-0.071	-0.256
-380.931	-200.000	-0.033	-0.410
-379.917	-171.727	0.471	-0.015
-378.902	-70.354	0.264	-0.099
-377.888	-199.066	0.286	-0.002
-376.873	10.654	0.097	-0.074
-375.858	-200.000	0.006	-0.160
-374.844	-46.831	0.082	-0.040
-373.829	606.055	-0.050	0.123
-372.815	189.888	0.050	-0.074
-371.800	800.000	0.052	-0.213
-370.785	54.226	-0.040	0.038
-369.771	-82.792	0.073	0.023
-368.756	-63.653	-0.154	-0.062
-367.742	-200.000	-0.033	-0.287
-366.727	-73.192	-0.226	0.082
-365.712	726.368	-0.089	-0.234
-364.698	-71.462	-0.143	0.053
-363.683	800.000	0.049	-0.202
-362.669	-200.000	-0.002	0.157
-361.654	-58.781	-0.345	0.148
-360.639	9.834	-0.368	0.276
-359.625	27.879	-0.251	0.209
-358.610	53.346	0.285	-0.270
-357.596	-78.390	-0.071	0.024
-356.581	-24.647	0.177	0.104
-355.566	-132.117	-0.251	-0.032
-354.552	-37.738	-0.343	-0.181
-353.537	-0.092	-0.177	-0.125
-352.523	-38.458	-0.245	0.128
-351.508	413.625	0.156	0.328
-350.493	-171.881	-0.109	0.004
-349.479	3.971	-0.130	-0.094
-348.464	170.941	0.029	-0.041
-347.450	85.834	0.147	-0.160
-346.435	134.020	-0.248	0.317
-345.420	214.108	-0.066	-0.103
-344.406	-117.256	-0.240	-0.043
-343.391	-16.623	-0.073	0.046
-342.377	-200.000	-0.020	0.117
-341.362	-170.882	-0.223	0.008
-340.348	-81.736	-0.174	0.056
-339.333	-57.565	0.176	0.076
-338.318	201.605	0.181	0.276
-337.304	46.742	0.233	-0.214
-336.289	-43.435	-0.117	0.058
-335.275	209.103	0.095	0.146
-334.260	-135.458	0.283	0.033
-333.245	-94.000	-0.321	-0.087
-332.231	-45.070	0.120	0.059
-331.216	-57.605	-0.373	0.161
-330.202	-200.000	0.005	-0.077
-329.187	-81.090	-0.173	-0.056
-328.172	-17.370	-0.166	-0.103
-327.158	-106.237	-0.352	-0.078
-326.143	-43.557	0.085	0.042
-325.129	-197.842	-0.242	0.001
-324.114	-9.560	-0.231	-0.152
-323.099	-55.707	-0.156	0.069
-322.085	175.412	0.055	-0.079
-321.070	-22.613	0.247	0.147
-320.056	-200.000	-0.028	-0.187
-319.041	-200.000	-0.009	-0.305
-318.026	92.175	0.231	0.257
-317.012	58.028	0.093	-0.090
-315.997	-59.107	-0.064	-0.027
-314.983	-70.052	0.302	-0.113
-313.968	71.521	-0.104	-0.106
-312.953	14.969	-0.108	0.083
-311.939	6.439	0.121	0.089
-310.924	258.492	-0.155	0.264
-309.910	-48.655	0.187	0.089
-308.895	-164.773	0.248	-0.011
-307.880	-25.459	0.139	-0.081
-306.866	-200.000	0.004	0.037
-305.851	-88.741	0.276	-0.081
-304.837	800.000	0.030	0.117
-303.822	-100.008	0.339	-0.083
-302.807	146.883	-0.160	0.212
-301.793	800.000	0.097	0.300
-300.778	31.894	-0.088	0.075
-299.764	-79.386	-0.282	-0.094
-298.749	-70.016	0.006	0.002
-297.735	65.687	0.134	0.134
-296.720	-200.000	-0.059	-0.320
-295.705	800.000	-0.089	-0.304
-294.691	372.706	0.131	-0.262
-293.676	-58.061	0.140	0.060
-292.662	800.000	-0.076	-0.272
-291.647	75.641	-0.268	-0.279
-290.632	-200.000	0.008	-0.045
-289.618	173.761	0.116	-0.165
-288.603	-200.000	0.007	0.326
-287.589	-3.378	-0.136	0.093
-286.574	14.941	0.109	-0.084
-285.559	90.086	-0.140	-0.155
-284.545	135.132	-0.233	0.299
-283.530	63.788	0.120	0.118
-282.516	0.502	0.217	-0.153
-281.501	-200.000	-0.004	-0.095
-280.486	-200.000	-0.048	0.323
-279.472	-200.000	-0.016	0.093
-278.457	-200.000	-0.013	0.302
-277.443	-200.000	0.014	0.229
-276.428	-62.490	-0.181	0.074
-275.413	-90.167	0.364	-0.104
-274.399	330.746	-0.143	-0.272
-273.384	-23.721	0.128	0.076
-272.370	197.338	-0.144	-0.217
-271.355	-128.418	-0.272	-0.038
-270.340	-142.575	-0.238	0.023
-269.326	800.000	-0.080	-0.238
-268.311	209.673	0.167	0.258
-267.297	-58.244	-0.235	-0.101
-266.282	-200.000	-0.022	0.182
-265.267	491.628	0.113	0.255
-264.253	800.000	0.048	-0.198
-263.238	261.965	0.093	-0.159
-262.224	49.542	0.247	0.229
-261.209	-200.000	-0.012	0.061
-260.195	800.000	-0.047	0.142
-259.180	135.537	0.023	0.029
-258.165	-140.161	-0.248	0.026
-257.151	-96.048	-0.166	-0.043
-256.136	-200.000	-0.068	-0.320
-255.122	21.682	0.198	-0.159
-254.107	-25.365	0.256	0.149
-253.092	-165.704	0.625	-0.027
-252.078	-63.850	0.101	-0.041
-251.063	-85.476	0.363	-0.111
-250.049	251.209	-0.114	0.191
-249.034	423.665	-0.079	0.168
-248.019	746.310	-0.082	0.218
-247.005	392.162	0.028	-0.057
-245.990	-200.000	-0.003	-0.083
-244.976	-46.030	0.190	-0.092
-243.961	141.737	-0.093	0.121
-242.946	-200.000	-0.042	-0.239
-241.932	-99.099	-0.301	0.075
-240.917	67.178	0.143	0.143
-239.903	800.000	-0.025	-0.074
-238.888	213.218	-0.075	0.117
-237.873	57.416	0.152	-0.146
-236.859	-146.773	0.151	0.013
-235.844	80.458	0.336	0.356
-234.830	-200.000	-0.027	0.177
-233.815	-108.910	-0.435	-0.091
-232.800	-9.772	0.114	0.075
-231.786	-96.205	-0.104	0.027
-230.771	-200.000	-0.012	-0.057
-229.757	139.226	-0.258	-0.333
-228.742	-174.267	0.144	0.004
-227.727	800.000	0.062	0.194
-226.713	725.856	-0.063	-0.164
-225.698	129.356	0.100	0.126
-224.684	128.840	-0.190	0.239
-223.669	-115.278	0.306	-0.057
-222.655	800.000	-0.025	0.097
-221.640	-119.551	0.078	-0.013
-220.625	800.000	0.112	0.470
-219.611	69.107	-0.361	0.365
-218.596	-98.051	-0.137	0.035
-217.582	213.015	0.236	0.367
-216.567	-157.619	-0.159	0.009
-215.552	-58.334	-0.215	0.092
-214.538	4.643	0.204	0.148
-213.523	800.000	0.016	-0.054
-212.509	87.610	-0.119	0.129
-211.494	125.934	-0.087	0.108
-210.479	178.917	-0.121	0.173
-209.465	-200.000	0.014	0.068
-208.450	-200.000	0.002	0.217
-207.436	800.000	0.079	0.277
-206.421	168.143	0.052	-0.073
-205.406	124.129	0.055	0.068
-204.392	-200.000	-0.000	0.014
-203.377	-200.000	0.006	0.119
-202.363	-54.964	0.306	0.136
-201.348	800.000	0.084	-0.332
-200.333	800.000	-0.058	0.160
-199.319	477.042	0.098	0.219
-198.304	-64.351	-0.229	0.092
-197.290	49.210	-0.066	0.061
-196.275	-11.184	0.019	0.012
-195.260	-200.000	-0.019	0.087
-194.246	-77.493	0.254	-0.087
-193.231	19.101	-0.187	0.148
-192.217	199.828	0.036	-0.054
-191.202	721.503	-0.052	-0.135
-190.187	-200.000	-0.044	0.270
-189.173	-200.000	0.329	-0.001
-188.158	63.937	0.270	0.266
-187.144	53.168	0.211	0.199
-186.129	51.357	-0.185	0.173
-185.114	577.769	0.088	0.212
-184.100	800.000	0.103	-0.370
-183.085	-200.000	-0.004	0.289
-182.071	316.620	0.082	-0.153
-181.056	59.342	-0.211	0.204
-180.042	-137.774	0.078	0.009
-179.027	253.939	0.184	-0.308
-178.012	-104.089	0.224	0.051
-176.998	-113.866	0.265	-0.051
-175.983	-135.361	0.179	0.021
-174.969	279.807	0.301	-0.527
-173.954	181.344	0.095	-0.138
-172.939	-150.070	0.136	0.010
-171.925	68.760	-0.058	0.059
-170.910	28.075	-0.250	0.207
-169.896	236.686	0.089	-0.144
-168.881	-79.662	0.276	-0.091
-167.866	124.918	0.190	0.235
-166.852	-56.092	-0.310	0.136
-165.837	-200.000	-0.021	0.330
-164.823	-74.644	-0.058	-0.020
-163.808	24.479	0.128	0.104
-162.793	-79.772	0.220	0.073
-161.779	135.582	0.181	0.231
-160.764	-127.193	-0.071	-0.010
-159.750	800.000	-0.100	-0.326
-158.735	-5.737	-0.296	-0.199
-157.720	-97.297	0.082	-0.021
-156.706	-200.000	-0.027	0.238
-155.691	528.174	0.104	-0.240
-154.677	-133.050	0.240	-0.030
-153.662	-74.445	0.232	0.082
-152.647	-31.257	0.263	-0.146
-151.633	467.911	0.091	0.201
-150.618	-200.000	0.034	-0.198
-149.604	30.018	0.237	0.198
-148.589	-52.202	0.330	0.150
-147.574	7.882	0.110	0.081
-146.560	11.211	-0.046	-0.035
-145.545	-156.525	-0.027	-0.002
-144.531	32.169	0.141	0.119
-143.516	800.000	-0.044	-0.125
-142.502	285.959	-0.053	0.093
-141.487	691.987	0.067	0.171
-140.472	788.319	0.010	-0.026
-139.458	800.000	0.034	-0.124
-138.443	-112.937	-0.132	-0.026
-137.429	-146.211	-0.181	-0.016
-136.414	-85.106	0.079	-0.024
-135.399	17.268	-0.051	0.040
-134.385	88.956	0.262	0.286
-133.370	-67.616	0.286	0.110
-132.356	-74.747	-0.350	-0.123
-131.341	450.651	-0.072	-0.157
-130.326	-42.021	0.347	0.174
-129.312	732.401	0.066	0.173
-128.297	-39.562	0.093	-0.048
-127.283	-125.330	0.143	-0.021
-126.268	-46.799	0.110	-0.053
-125.253	-112.017	-0.185	0.036
-124.239	-200.000	-0.079	0.000
-123.224	7.564	0.215	-0.158
-122.210	-94.806	-0.124	-0.033
-121.195	460.275	-0.013	-0.028
-120.180	-1.058	0.335	0.232
-119.166	-200.000	-0.038	0.463
-118.151	-200.000	-0.041	0.179
-117.137	-135.094	-0.409	-0.048
-116.122	17.769	0.105	-0.082
-115.107	-200.000	-0.064	-0.504
-114.093	-200.000	0.014	-0.077
-113.078	-19.867	0.135	0.082
-112.064	584.001	0.072	0.174
-111.049	-200.000	-0.018	0.142
-110.034	43.738	0.362	-0.325
-109.020	-19.154	-0.428	-0.261
-108.005	727.434	0.188	-0.492
-106.991	-163.476	0.146	0.007
-105.976	-21.365	-0.112	0.067
-104.962	-200.000	0.032	-0.262
-103.947	-200.000	0.011	0.055
-102.932	-83.067	0.393	-0.124
-101.918	192.186	-0.093	0.138
-100.903	256.183	0.162	-0.273
-99.889	-200.000	-0.026	-0.314
-98.874	47.344	-0.118	0.108
-97.859	-33.078	0.276	0.150
-96.845	-146.396	-0.547	-0.047
-95.830	800.000	-0.036	0.112
-94.816	-146.611	0.166	-0.014
-93.801	-98.135	0.336	0.085
-92.786	-131.494	0.107	0.014
-91.772	-104.144	0.294	-0.067
-90.757	800.000	-0.108	0.294
-89.743	18.433	0.175	0.137
-88.728	-109.299	-0.237	-0.049
-87.713	217.837	0.117	-0.182
-86.699	76.578	0.224	0.232
-85.684	-125.282	-0.248	0.037
-84.670	509.529	0.108	-0.245
-83.655	-173.973	0.086	0.002
-82.640	800.000	0.078	-0.241
-81.626	-72.273	0.170	0.062
-80.611	-140.450	-0.068	0.007
-79.597	-60.388	0.507	-0.211
-78.582	735.858	0.117	0.306
-77.567	238.229	0.133	0.216
-76.553	-200.000	0.012	0.140
-75.538	-165.490	0.530	-0.023
-74.524	-159.201	0.330	-0.018
-73.509	-8.370	-0.165	-0.109
-72.494	-200.000	-0.028	-0.184
-71.480	450.366	0.098	0.212
-70.465	-200.000	-0.010	0.149
-69.451	233.574	-0.073	0.118
-68.436	105.299	0.152	0.176
-67.422	800.000	0.090	0.378
-66.407	39.658	-0.176	0.154
-65.392	-200.000	-0.001	-0.139
-64.378	403.047	-0.010	-0.021
-63.363	-57.730	0.182	0.078
-62.349	800.000	-0.050	0.154
-61.334	44.151	-1.240	-1.112
-60.319	0.860	0.502	0.352
-59.305	707.117	-0.476	-1.229
-58.290	163.691	0.516	0.709
-57.276	290.518	0.779	1.383
-56.261	-200.000	115.701	661.060
-55.246	538.476	1521.035	3533.863
-54.232	177.619	2698.134	3842.338
-53.217	102.060	2285.263	2607.207
-52.203	36.383	1894.495	1632.482
-51.188	30.358	1686.290	1407.499
-50.173	27.955	1644.636	1354.886
-49.159	49.504	1701.320	1564.596
-48.144	48.001	1715.208	1565.993
-47.130	29.984	1672.738	1393.152
-46.115	27.330	1658.348	1361.288
-45.100	27.096	1653.313	1355.354
-44.086	27.104	1650.949	1353.425
-43.071	27.123	1648.801	1351.754
-42.057	27.050	1646.479	1349.251
-41.042	27.054	1644.448	1347.560
-40.027	27.107	1642.031	1345.921
-39.013	27.038	1640.628	1344.206
-37.998	26.997	1638.748	1342.314
-36.984	27.169	1637.315	1342.356
-35.969	27.288	1635.806	1341.942
-34.954	27.297	1634.215	1340.647
-33.940	27.281	1632.299	1338.910
-32.925	27.128	1631.388	1336.980
-31.911	27.175	1629.016	1335.331
-30.896	27.236	1627.404	1334.401
-29.881	27.238	1625.559	1332.853
-28.867	27.217	1624.438	1331.728
-27.852	27.256	1622.346	1330.239
-26.838	27.281	1620.885	1329.177
-25.823	27.223	1619.614	1327.655
-24.809	27.272	1618.417	1326.976
-23.794	27.111	1617.599	1325.085
-22.779	27.323	1615.329	1324.711
-21.765	27.175	1613.926	1322.437
-20.750	27.245	1612.156	1321.437
-19.736	27.379	1610.681	1321.153
-18.721	27.283	1609.565	1319.487
-17.706	27.234	1608.833	1318.477
-16.692	27.196	1607.025	1316.672
-15.677	27.213	1605.591	1315.567
-14.663	27.272	1604.621	1315.144
-13.648	27.349	1602.530	1313.936
-12.633	27.266	1601.162	1312.161
-11.619	27.238	1599.783	1310.776
-10.604	27.311	1597.957	1309.756
-9.590	27.284	1597.187	1308.881
-8.575	27.283	1595.798	1307.684
-7.560	27.359	1594.312	1306.955
-6.546	27.262	1593.203	1305.298
-5.531	27.334	1591.975	1304.761
-4.517	27.286	1590.689	1303.306
-3.502	27.273	1590.481	1302.995
-2.487	27.409	1587.934	1301.826
-1.473	26.979	1576.223	1289.125
-0.458	23.804	1556.762	1250.845
0.556	20.982	1557.650	1217.868
1.571	18.542	1580.997	1218.696
2.586	18.031	1593.230	1224.356
3.600	15.805	1538.207	1166.552
4.615	9.348	1431.766	1043.944
5.629	4.065	1373.808	968.618
6.644	3.285	1366.077	958.231
7.659	3.180	1365.048	956.773
8.673	3.170	1363.914	955.829
9.688	3.215	1362.462	955.010
10.702	3.186	1359.389	952.591
11.717	5.711	1363.601	971.118
12.731	12.845	1376.820	1024.947
13.746	19.004	1387.120	1070.991
14.761	20.447	1388.444	1080.904
15.775	19.899	1386.775	1076.100
16.790	18.989	1383.369	1067.719
17.804	18.098	1381.474	1060.633
18.819	17.751	1380.325	1057.504
19.834	17.489	1379.612	1055.239
20.848	17.453	1378.215	1053.856
21.863	17.257	1377.315	1051.862
22.877	17.169	1375.703	1049.997
23.892	17.145	1375.128	1049.315
24.907	17.114	1373.915	1048.103
25.921	17.034	1373.236	1047.003
26.936	17.138	1372.575	1047.043
27.950	17.172	1371.502	1046.346
28.965	17.336	1370.266	1046.319
29.980	17.344	1369.399	1045.613
30.994	17.318	1368.399	1044.594
32.009	17.497	1367.101	1044.611
33.023	17.526	1365.406	1043.402
34.038	17.355	1364.519	1041.587
35.053	17.280	1363.452	1040.222
36.067	17.219	1362.768	1039.230
37.082	17.197	1361.559	1038.087
38.096	17.327	1360.848	1038.243
39.111	17.366	1359.736	1037.542
40.126	17.199	1358.803	1035.719
41.140	16.909	1358.082	1033.311
42.155	16.922	1357.255	1032.669
43.169	16.907	1356.857	1032.181
44.184	16.955	1356.451	1032.074
45.199	16.894	1356.345	1031.531
46.213	16.927	1356.142	1031.485
47.228	17.121	1355.059	1031.753
48.242	17.274	1353.411	1031.336
49.257	17.268	1352.093	1030.205
50.271	17.176	1351.161	1028.842
51.286	17.322	1349.410	1028.305
52.301	17.224	1348.573	1026.984
53.315	17.134	1347.342	1025.408
54.330	16.963	1346.087	1023.330
55.344	17.053	1344.565	1022.626
56.359	16.993	1344.168	1021.871
57.374	16.895	1343.341	1020.567
58.388	16.896	1342.645	1019.953
59.403	16.820	1342.185	1019.056
60.417	16.800	1341.356	1018.212
61.432	16.812	1339.807	1017.022
62.447	16.769	1339.362	1016.334
63.461	16.647	1338.196	1014.628
64.476	16.636	1336.743	1013.370
65.490	16.606	1336.133	1012.641
66.505	16.824	1334.413	1012.548
67.520	16.785	1332.789	1010.995
68.534	16.825	1332.265	1010.744
69.549	16.757	1331.327	1009.539
70.563	16.746	1329.586	1008.066
71.578	16.614	1328.440	1006.325
72.593	16.597	1327.609	1005.505
73.607	16.543	1327.365	1004.905
74.622	16.619	1326.311	1004.473
75.636	16.641	1326.064	1004.325
76.651	16.604	1325.300	1003.439
77.666	16.681	1324.663	1003.327
78.680	16.705	1323.799	1002.722
79.695	16.714	1323.542	1002.495
80.709	16.811	1322.913	1002.502
81.724	16.908	1322.545	1002.708
82.739	16.984	1321.284	1002.115
83.753	17.161	1320.712	1002.633
84.768	17.113	1320.107	1001.802
85.782	17.367	1318.573	1002.049
86.797	17.361	1317.052	1000.767
87.812	17.095	1316.140	998.423
88.826	17.180	1314.813	997.826
89.841	17.136	1313.992	996.857
90.855	17.335	1313.183	997.324
91.870	17.370	1311.950	996.500
92.884	17.350	1311.394	995.875
93.899	17.430	1310.282	995.409
94.914	17.420	1309.865	994.949
95.928	17.481	1308.665	994.306
96.943	17.396	1307.918	993.151
97.957	17.315	1306.929	991.840
98.972	17.250	1305.945	990.628
99.987	17.340	1304.807	990.199
101.001	17.430	1303.732	989.821
102.016	17.262	1303.167	988.327
103.030	17.385	1302.000	988.072
104.045	17.396	1301.116	987.373
105.060	17.168	1300.349	985.386
106.074	17.070	1298.357	983.220
107.089	16.862	1296.879	980.810
108.103	16.757	1295.582	979.133
109.118	16.728	1294.424	978.004
110.133	16.825	1293.009	977.408
111.147	16.840	1291.905	976.575
112.162	16.878	1290.633	975.748
113.176	16.928	1289.617	975.180
114.191	16.913	1288.500	974.162
115.206	16.949	1287.148	973.261
116.220	16.912	1285.958	972.061
117.235	16.902	1284.757	971.011
118.249	16.893	1283.934	970.252
119.264	16.776	1282.757	968.604
120.279	16.673	1281.859	967.257
121.293	16.750	1280.422	966.527
122.308	16.610	1279.410	964.876
123.322	16.654	1278.213	964.140
124.337	16.719	1277.029	963.530
125.352	16.685	1276.396	962.777
126.366	16.740	1275.354	962.217
127.381	16.622	1274.330	960.691
128.395	16.806	1272.689	960.409
129.410	16.658	1272.350	959.227
130.424	16.742	1271.756	959.172
131.439	16.891	1270.506	958.990
132.454	16.894	1269.887	958.451
133.468	16.839	1269.695	957.912
134.483	16.930	1268.063	957.107
135.497	16.927	1267.516	956.598
136.512	16.830	1266.089	954.885
137.527	16.875	1264.638	953.960
138.541	17.003	1263.308	953.594
139.556	17.106	1261.939	953.052
140.570	17.102	1261.448	952.579
141.585	17.160	1260.422	952.040
142.600	17.121	1259.585	951.107
143.614	17.212	1259.000	951.093
144.629	17.348	1257.480	950.618
145.643	17.373	1255.952	949.521
146.658	17.221	1254.894	947.791
147.673	17.112	1253.693	946.192
148.687	17.149	1252.356	945.301
149.702	16.983	1251.800	943.877
150.716	16.967	1249.767	942.174
151.731	16.905	1249.053	941.206
152.746	17.080	1247.566	940.973
153.760	17.148	1246.671	940.587
154.775	17.192	1245.563	939.916
155.789	17.272	1244.333	939.347
156.804	17.225	1243.504	938.377
157.819	17.245	1242.407	937.576
158.833	17.365	1241.962	937.821
159.848	17.404	1241.327	937.472
160.862	17.460	1239.826	936.565
161.877	17.186	1238.748	934.157
162.892	17.009	1237.251	931.976
163.906	17.100	1235.897	931.374
164.921	17.131	1235.084	930.850
165.935	17.084	1234.422	930.007
166.950	17.140	1234.153	930.028
167.964	17.149	1233.357	929.397
168.979	17.279	1232.140	929.106
169.994	17.205	1231.564	928.188
171.008	17.273	1230.832	927.924
172.023	17.320	1229.876	927.380
173.037	17.363	1229.550	927.285
174.052	17.410	1228.510	926.672
175.067	17.289	1226.922	924.738
176.081	17.128	1225.984	923.073
177.096	17.120	1225.449	922.544
178.110	17.112	1224.214	921.492
179.125	17.209	1222.979	921.008
180.140	17.152	1221.995	919.873
181.154	17.274	1220.552	919.365
182.169	17.391	1219.223	918.914
183.183	17.477	1218.739	918.935
184.198	17.459	1217.639	917.925
185.213	17.653	1215.919	917.591
186.227	17.585	1215.075	916.511
187.242	17.666	1214.204	916.207
188.256	17.692	1213.698	915.884
189.271	17.712	1212.281	914.842
190.286	17.477	1211.322	912.777
191.300	17.151	1210.209	910.107
192.315	16.995	1209.692	908.804
193.329	17.088	1209.264	908.903
194.344	17.117	1208.862	908.673
195.359	17.325	1208.368	909.336
196.373	17.226	1207.880	908.355
197.388	17.511	1207.565	909.565
198.402	17.688	1207.327	910.246
199.417	17.876	1206.575	910.605
200.432	17.735	1206.082	909.399
201.446	17.854	1205.350	909.401
202.461	18.015	1204.570	909.589
203.475	17.963	1203.085	908.113
204.490	17.773	1201.799	906.052
205.504	17.651	1200.439	904.297
206.519	17.649	1199.268	903.324
207.534	17.522	1198.143	901.725
208.548	17.654	1197.222	901.651
209.563	17.684	1196.529	901.210
210.577	17.677	1195.260	900.135
211.592	17.748	1194.708	900.013
212.607	17.865	1194.079	900.079
213.621	17.904	1193.061	899.435
214.636	17.819	1191.895	898.033
215.650	17.777	1191.552	897.474
216.665	17.859	1190.465	897.005
217.680	18.019	1189.778	897.247
218.694	18.092	1189.103	897.043
219.709	18.043	1188.275	896.083
220.723	17.987	1187.462	895.093
221.738	17.913	1186.466	893.876
222.753	18.082	1185.555	893.995
223.767	18.023	1184.940	893.147
224.782	18.093	1184.556	893.143
225.796	18.063	1184.144	892.594
226.811	18.183	1182.809	892.136
227.826	18.075	1182.423	891.203
228.840	17.919	1181.852	889.881
229.855	18.036	1180.977	889.755
230.869	18.008	1179.892	888.713
231.884	17.848	1179.395	887.428
232.899	17.726	1178.208	885.822
233.913	17.925	1177.607	886.324
234.928	17.738	1176.686	884.583
235.942	17.797	1176.146	884.402
236.957	17.873	1174.870	883.762
237.972	17.826	1174.506	883.164
238.986	17.842	1173.983	882.778
240.001	17.818	1173.131	881.934
241.015	17.933	1172.563	882.022
242.030	17.895	1172.017	881.337
243.045	17.976	1170.813	880.770
244.059	18.073	1170.095	880.655
245.074	18.124	1169.461	880.363
246.088	18.114	1168.829	879.756
247.103	18.244	1167.471	879.322
248.117	18.278	1167.035	879.094
249.132	18.269	1166.928	878.887
250.147	18.728	1166.080	880.528
251.161	18.567	1165.365	879.085
252.176	18.508	1165.280	878.637
253.190	18.731	1164.348	878.999
254.205	18.953	1163.453	879.382
255.220	18.778	1162.916	878.006
256.234	18.755	1162.619	877.584
257.249	18.775	1161.858	877.034
258.263	18.787	1160.887	876.286
259.278	18.811	1160.635	876.137
260.293	18.743	1159.850	875.124
261.307	18.765	1159.575	874.950
262.322	18.983	1158.801	875.399
263.336	18.978	1157.920	874.630
264.351	18.990	1157.320	874.162
265.366	18.946	1156.373	873.142
266.380	19.031	1155.811	873.074
267.395	18.918	1154.717	871.596
268.409	18.827	1154.405	870.823
269.424	18.858	1153.569	870.275
270.439	18.776	1152.761	869.170
271.453	18.762	1152.135	868.551
272.468	18.684	1150.979	867.208
273.482	18.721	1150.206	866.735
274.497	18.692	1149.927	866.306
275.512	18.885	1148.731	866.299
276.526	18.746	1147.949	864.931
277.541	18.753	1147.740	864.733
278.555	18.886	1146.634	864.493
279.570	18.956	1146.279	864.500
280.585	19.016	1145.971	864.496
281.599	19.097	1144.476	863.695
282.614	18.868	1143.969	862.086
283.628	18.916	1142.011	860.778
284.643	18.923	1141.400	860.277
285.657	18.917	1140.289	859.334
286.672	18.695	1140.021	857.943
287.687	18.894	1138.780	857.929
288.701	18.841	1138.279	857.211
289.716	18.886	1137.115	856.483
290.730	18.957	1136.286	856.133
291.745	19.052	1135.783	856.152
292.760	19.019	1134.922	855.265
293.774	19.060	1134.825	855.320
294.789	19.271	1134.383	855.958
295.803	19.161	1133.537	854.701
296.818	19.081	1132.414	853.381
297.833	19.030	1131.812	852.597
298.847	18.984	1131.421	852.000
299.862	18.996	1130.112	850.997
300.876	19.197	1129.165	851.205
301.891	19.155	1129.095	850.869
302.906	19.246	1128.445	850.752
303.920	19.260	1127.886	850.325
304.935	19.417	1127.139	850.461
305.949	19.443	1126.867	850.309
306.964	19.525	1125.902	849.906
307.979	19.323	1125.374	848.441
308.993	19.281	1124.501	847.499
310.008	19.341	1123.603	847.041
311.022	19.370	1123.306	846.887
312.037	19.398	1122.006	845.970
313.052	19.348	1120.967	844.866
314.066	19.357	1119.703	843.882
315.081	19.158	1118.618	842.018
316.095	19.024	1118.761	841.397
317.110	19.182	1117.725	841.316
318.125	19.049	1117.324	840.288
319.139	19.136	1116.356	839.912
320.154	19.241	1115.512	839.714
321.168	19.125	1115.121	838.777
322.183	19.155	1114.530	838.403
323.197	19.257	1113.755	838.246
324.212	19.292	1113.083	837.834
325.227	19.120	1113.022	836.881
326.241	19.317	1112.081	837.052
327.256	19.261	1111.144	836.004
328.270	19.363	1109.900	835.489
329.285	19.241	1109.436	834.472
330.300	19.334	1108.391	834.065
331.314	19.307	1107.170	832.941
332.329	19.325	1106.277	832.283
333.343	19.351	1105.779	831.959
334.358	19.521	1105.021	832.136
335.373	19.465	1104.790	831.615
336.387	19.450	1103.908	830.807
337.402	19.545	1102.956	830.474
338.416	19.622	1102.575	830.482
339.431	19.601	1101.915	829.814
340.446	19.746	1101.008	829.754
341.460	19.735	1100.636	829.347
342.475	19.903	1099.743	829.403
343.489	19.866	1099.152	828.710
344.504	20.069	1097.887	828.650
345.519	19.913	1097.380	827.448
346.533	20.120	1096.145	827.434
347.548	20.061	1095.861	826.863
348.562	19.979	1095.210	825.909
349.577	19.880	1094.372	824.733
350.592	19.704	1093.283	823.003
351.606	19.625	1092.738	822.140
352.621	19.539	1091.705	820.883
353.635	19.531	1091.314	820.476
354.650	19.706	1090.529	820.647
355.665	19.777	1089.829	820.382
356.679	19.792	1089.175	819.892
357.694	19.728	1088.847	819.268
358.708	19.892	1087.966	819.310
359.723	19.836	1087.701	818.772
360.738	19.876	1086.752	818.172
361.752	19.925	1086.236	817.944
362.767	20.002	1085.324	817.550
363.781	20.026	1084.590	817.038
364.796	19.993	1084.849	817.005
365.810	20.112	1084.263	817.052
366.825	20.173	1083.800	816.916
367.840	20.337	1083.166	817.139
368.854	20.391	1082.476	816.801
369.869	20.358	1081.712	815.999
370.883	20.291	1080.619	814.785
371.898	20.253	1080.322	814.312
372.913	20.126	1079.605	813.103
373.927	20.322	1078.941	813.449
374.942	20.359	1078.528	813.240
375.956	20.317	1077.834	812.448
376.971	20.301	1077.331	811.920
377.986	20.400	1076.934	812.016
379.000	20.356	1076.738	811.588
380.015	20.580	1075.729	811.803
381.029	20.530	1075.250	811.136
382.044	20.564	1074.400	810.580
383.059	20.482	1074.013	809.833
384.073	20.393	1073.038	808.616
385.088	20.595	1071.845	808.583
386.102	20.522	1070.853	807.426
387.117	20.423	1069.974	806.231
388.132	20.326	1068.939	804.927
389.146	20.226	1068.263	803.886
390.161	20.381	1067.221	803.747
391.175	20.349	1066.624	803.078
392.190	20.400	1066.351	803.037
393.205	20.606	1065.581	803.339
394.219	20.537	1064.632	802.234
395.234	20.493	1063.828	801.353
396.248	20.374	1062.948	800.072
397.263	20.387	1061.782	799.185
398.278	20.311	1060.925	798.118
399.292	20.186	1060.321	797.018
400.307	20.164	1059.744	796.412
401.321	20.195	1058.903	795.854
402.336	20.326	1058.155	795.823
403.350	20.318	1057.422	795.163
404.365	20.298	1057.111	794.766
405.380	20.510	1056.118	794.918
406.394	20.412	1055.320	793.801
407.409	20.499	1054.787	793.729
408.423	20.736	1054.232	794.323
409.438	20.777	1053.914	794.198
410.453	20.703	1053.041	793.133
411.467	20.836	1052.597	793.333
412.482	20.850	1051.926	792.824
413.496	20.883	1051.287	792.420
414.511	20.973	1050.505	792.171
415.526	21.095	1050.473	792.631
416.540	21.188	1049.772	792.451
417.555	21.089	1049.099	791.424
418.569	21.104	1048.493	790.965
419.584	20.932	1047.878	789.653
420.599	21.028	1047.527	789.754
421.613	155.369	1404.214	1796.313
422.628	142.391	1456.135	1796.410
