DTS Sentinel unit serial number:	SN413079Multiplexer serial number:	ORYXHardware model number:	OX4-SRSoftware version number:	ORYX F/W v4.00 Oryx Data Collector v3.7.2.0data status	okinstallation	princeton_trtdifferential loss correction	single-endedforward channel	channel 2reverse channel	N/Adate	2019/09/13time	22:23:35forward acquisition time	60.00reverse acquisition time	0.00gamma	496.2192k internal	0.2335k external	0.2335temperature offset calibration	1.0134default loss term (dB/km)	0.3790temperature slope calibration	1.0000multiplexer offset coefficient	1.0000multiplexer slope coefficient	1.0000fibre end	0.00T internal ref (°C)	27.81T ext. ref 1 (°C)	3.23T ext. ref 2 (°C)	22.49length (m)	temperature (°C)	Stokes	anti-Stokes-747.200	223.809	0.031	0.050
-746.185	279.605	0.156	0.279
-745.171	-11.364	0.134	0.088
-744.156	17.806	-0.427	0.341
-743.142	-191.068	-0.321	0.003
-742.127	-130.455	-0.337	-0.046
-741.112	-166.812	-0.414	0.017
-740.098	221.041	0.036	-0.058
-739.083	-84.801	-0.241	-0.076
-738.069	21.502	0.081	-0.066
-737.054	4.185	0.127	0.093
-736.039	61.474	-0.091	0.091
-735.025	-200.000	-0.049	0.215
-734.010	-200.000	-0.044	0.321
-732.996	800.000	0.046	0.195
-731.981	86.367	0.219	-0.242
-730.966	-103.128	-0.304	-0.072
-729.952	-200.000	-0.041	-0.271
-728.937	758.667	0.054	0.146
-727.923	-109.422	-0.136	-0.029
-726.908	-200.000	0.024	-0.120
-725.894	-141.928	-0.103	-0.010
-724.879	-182.997	0.211	-0.004
-723.864	429.516	-0.085	0.185
-722.850	-200.000	-0.010	0.088
-721.835	-153.951	-0.335	-0.023
-720.821	16.852	-0.168	0.134
-719.806	-93.340	-0.206	-0.057
-718.791	-38.118	0.079	0.042
-717.777	-200.000	-0.017	-0.275
-716.762	-92.403	-0.138	-0.039
-715.748	167.647	-0.221	-0.315
-714.733	-200.000	0.004	-0.066
-713.718	-0.409	0.166	-0.118
-712.704	-10.979	0.047	0.031
-711.689	-40.380	0.313	0.163
-710.675	800.000	-0.047	0.169
-709.660	-12.941	-0.223	-0.145
-708.645	-64.776	-0.128	0.052
-707.631	-23.665	-0.030	0.018
-706.616	223.792	-0.113	-0.182
-705.602	-200.000	0.017	0.103
-704.587	-200.000	0.001	0.042
-703.572	-123.914	0.176	0.028
-702.558	-20.987	-0.189	-0.116
-701.543	-140.249	0.150	0.016
-700.529	-98.536	0.222	0.057
-699.514	-80.741	0.189	-0.063
-698.499	-19.230	0.196	-0.122
-697.485	43.239	-0.077	0.070
-696.470	-44.654	-0.177	-0.089
-695.456	800.000	-0.041	-0.126
-694.441	-200.000	0.005	0.099
-693.426	800.000	0.036	-0.102
-692.412	342.212	0.190	0.373
-691.397	-200.000	-0.038	0.210
-690.383	-167.782	-0.309	-0.012
-689.368	-98.132	0.136	-0.035
-688.354	800.000	0.011	0.038
-687.339	800.000	-0.007	-0.019
-686.324	-200.000	0.042	-0.247
-685.310	-200.000	-0.003	0.021
-684.295	-200.000	-0.003	-0.155
-683.281	-200.000	-0.020	0.226
-682.266	-17.642	-0.382	0.241
-681.251	447.917	0.071	0.156
-680.237	668.241	0.062	-0.161
-679.222	-32.071	-0.171	0.096
-678.208	198.644	0.153	0.235
-677.193	77.693	0.289	-0.309
-676.178	-200.000	0.013	-0.193
-675.164	-20.577	0.336	0.207
-674.149	359.027	0.097	-0.194
-673.135	476.087	-0.212	-0.481
-672.120	97.695	-0.283	-0.326
-671.105	-16.278	-0.218	0.139
-670.091	2.227	-0.073	0.053
-669.076	-200.000	0.004	-0.024
-668.062	-200.000	-0.030	0.147
-667.047	141.234	-0.335	0.444
-666.032	154.567	0.122	0.167
-665.018	-140.673	0.312	0.032
-664.003	22.499	-0.105	-0.086
-662.989	-134.430	-0.241	0.030
-661.974	28.196	-0.299	0.253
-660.959	215.070	0.011	-0.017
-659.945	-54.119	0.528	-0.240
-658.930	156.141	-0.174	-0.241
-657.916	800.000	-0.022	0.063
-656.901	-8.798	-0.429	-0.288
-655.886	-76.233	0.151	-0.053
-654.872	29.720	-0.187	0.159
-653.857	236.046	-0.153	-0.253
-652.843	-78.114	-0.157	-0.054
-651.828	-97.186	-0.121	0.032
-650.814	-200.000	0.020	-0.188
-649.799	800.000	-0.020	-0.061
-648.784	-8.887	-0.250	0.168
-647.770	-149.138	0.217	0.017
-646.755	-143.825	-0.327	-0.031
-645.741	800.000	0.090	-0.357
-644.726	-189.225	-0.285	-0.003
-643.711	-50.129	-0.292	-0.139
-642.697	-200.000	0.038	0.218
-641.682	655.141	-0.087	-0.224
-640.668	800.000	0.103	-0.312
-639.653	800.000	0.030	0.107
-638.638	-182.530	0.228	0.004
-637.624	115.417	-0.092	0.113
-636.609	-158.599	0.423	0.024
-635.595	-41.478	-0.181	-0.093
-634.580	-120.844	-0.184	0.031
-633.565	241.472	0.137	0.229
-632.551	-124.027	0.152	0.024
-631.536	-123.862	0.081	0.013
-630.522	-98.872	0.148	-0.038
-629.507	289.079	-0.127	-0.230
-628.492	-11.078	0.326	-0.215
-627.478	-159.056	-0.253	-0.014
-626.463	15.738	0.242	0.190
-625.449	575.777	0.148	-0.362
-624.434	36.155	-0.209	-0.184
-623.419	-38.736	-0.062	-0.033
-622.405	125.883	-0.169	0.214
-621.390	-157.191	0.104	-0.006
-620.376	-46.645	-0.195	-0.095
-619.361	150.001	0.082	-0.112
-618.346	99.529	-0.197	-0.228
-617.332	-66.910	-0.174	-0.069
-616.317	96.797	-0.153	-0.175
-615.303	-53.141	0.166	-0.076
-614.288	-49.580	-0.183	-0.087
-613.273	228.755	-0.060	-0.099
-612.259	800.000	-0.067	0.238
-611.244	74.951	-0.019	-0.020
-610.230	800.000	-0.039	-0.117
-609.215	-200.000	0.008	-0.148
-608.201	800.000	-0.056	0.167
-607.186	556.255	-0.059	-0.142
-606.171	-151.785	0.586	0.043
-605.157	-200.000	0.023	0.344
-604.142	44.309	-0.091	0.083
-603.128	-34.004	-0.409	-0.225
-602.113	607.803	-0.018	0.045
-601.098	-58.289	-0.251	0.109
-600.084	-0.165	-0.075	-0.054
-599.069	-109.390	0.214	-0.045
-598.055	-154.714	-0.154	-0.010
-597.040	-130.952	-0.166	0.022
-596.025	324.207	-0.083	-0.159
-595.011	46.210	0.183	-0.169
-593.996	64.403	-0.068	-0.069
-592.982	171.044	-0.082	0.117
-591.967	598.461	-0.034	-0.085
-590.952	800.000	-0.001	-0.003
-589.938	-200.000	0.068	0.305
-588.923	-200.000	0.006	0.156
-587.909	139.441	-0.128	0.168
-586.894	130.651	0.087	-0.111
-585.879	800.000	-0.070	0.213
-584.865	-200.000	0.059	-0.359
-583.850	-2.869	-0.151	0.106
-582.836	800.000	-0.039	0.136
-581.821	103.369	0.075	-0.088
-580.806	-11.704	-0.151	0.099
-579.792	-77.742	0.250	-0.086
-578.777	-147.058	-0.265	-0.023
-577.763	-111.712	-0.207	-0.042
-576.748	72.029	0.413	-0.429
-575.733	102.903	0.006	-0.007
-574.719	306.450	-0.187	0.347
-573.704	-200.000	-0.016	-0.092
-572.690	-87.880	0.113	0.034
-571.675	120.477	0.211	0.262
-570.661	-129.811	0.311	-0.043
-569.646	-109.728	0.311	0.065
-568.631	33.481	-0.046	-0.040
-567.617	-170.253	0.085	0.003
-566.602	-9.538	-0.169	0.112
-565.588	217.272	-0.076	-0.121
-564.573	-170.685	0.136	0.005
-563.558	-200.000	-0.033	0.482
-562.544	181.442	-0.169	0.248
-561.529	-135.816	-0.437	0.051
-560.515	-200.000	-0.014	-0.200
-559.500	800.000	-0.105	0.342
-558.485	-11.683	-0.119	0.078
-557.471	-87.262	-0.140	0.042
-556.456	180.187	0.215	-0.314
-555.442	800.000	0.029	-0.091
-554.427	69.152	-0.442	0.453
-553.412	-200.000	0.011	-0.305
-552.398	112.643	0.089	-0.108
-551.383	-69.435	-0.275	0.105
-550.369	429.746	0.088	0.189
-549.354	-200.000	-0.031	-0.249
-548.339	-148.547	-0.203	0.017
-547.325	91.375	-0.127	0.142
-546.310	-200.000	0.007	-0.151
-545.296	320.087	0.037	0.071
-544.281	-200.000	0.019	-0.167
-543.266	94.278	0.126	0.143
-542.252	-77.106	0.182	0.063
-541.237	178.106	-0.196	0.284
-540.223	800.000	-0.052	0.155
-539.208	-54.096	-0.123	-0.056
-538.193	-200.000	0.002	0.047
-537.179	83.661	0.094	0.102
-536.164	-162.238	-0.311	-0.015
-535.150	800.000	0.053	0.154
-534.135	-121.536	-0.154	0.025
-533.121	37.967	-0.057	-0.051
-532.106	-116.085	-0.162	0.030
-531.091	66.974	-0.432	-0.439
-530.077	97.795	-0.203	-0.233
-529.062	274.975	0.061	0.108
-528.048	-90.702	-0.096	-0.028
-527.033	-88.351	-0.200	0.060
-526.018	249.133	-0.160	0.270
-525.004	-182.464	-0.002	0.000
-523.989	101.434	0.123	-0.143
-522.975	-128.635	0.198	-0.028
-521.960	35.508	0.271	0.237
-520.945	-12.143	-0.013	0.009
-519.931	118.916	0.167	-0.206
-518.916	582.745	0.096	-0.234
-517.902	-105.575	-0.337	0.076
-516.887	-200.000	-0.029	0.132
-515.872	-39.865	-0.164	0.085
-514.858	311.247	-0.106	0.198
-513.843	-200.000	-0.031	-0.166
-512.829	54.618	0.122	0.117
-511.814	72.225	-0.180	0.186
-510.799	69.716	0.174	-0.178
-509.785	118.558	-0.155	-0.191
-508.770	-200.000	0.003	-0.024
-507.756	-137.609	0.269	-0.030
-506.741	-27.925	-0.230	0.133
-505.726	61.232	0.065	-0.065
-504.712	-200.000	0.009	-0.144
-503.697	-200.000	-0.012	0.147
-502.683	-77.712	-0.337	0.116
-501.668	-200.000	0.007	-0.033
-500.653	75.127	-0.093	-0.098
-499.639	98.417	-0.165	-0.189
-498.624	116.502	-0.065	-0.080
-497.610	12.548	-0.075	0.058
-496.595	94.522	-0.027	-0.031
-495.581	-84.581	-0.516	0.162
-494.566	2.907	0.278	-0.201
-493.551	-200.000	0.020	0.094
-492.537	-154.612	-0.164	0.011
-491.522	385.016	0.055	-0.112
-490.508	-58.591	-0.223	0.096
-489.493	-200.000	0.009	-0.151
-488.478	36.652	0.037	-0.033
-487.464	-163.715	0.091	0.004
-486.449	178.129	0.069	0.100
-485.435	24.864	-0.198	-0.163
-484.420	-155.881	-0.105	-0.007
-483.405	4.584	-0.225	-0.165
-482.391	-200.000	-0.208	0.001
-481.376	38.584	-0.023	-0.020
-480.362	37.026	0.131	-0.116
-479.347	-60.900	-0.234	-0.099
-478.332	114.648	0.239	0.289
-477.318	800.000	0.116	-0.326
-476.303	-78.178	0.325	-0.111
-475.289	440.002	0.075	-0.162
-474.274	800.000	-0.019	0.055
-473.259	-200.000	0.013	-0.183
-472.245	246.234	0.168	-0.282
-471.230	-43.872	-0.143	0.072
-470.216	162.311	-0.198	0.275
-469.201	15.714	0.238	0.186
-468.186	-53.006	0.181	-0.083
-467.172	800.000	-0.115	0.331
-466.157	5.918	0.263	0.193
-465.143	-11.146	-0.234	0.153
-464.128	-118.803	0.166	0.029
-463.113	-200.000	0.041	0.262
-462.099	-28.991	-0.312	-0.178
-461.084	-0.756	0.112	0.079
-460.070	58.775	0.153	-0.150
-459.055	-200.000	0.063	0.406
-458.040	754.179	0.027	0.073
-457.026	-145.761	0.321	-0.028
-456.011	-60.792	-0.129	0.054
-454.997	40.234	0.086	-0.077
-453.982	788.810	-0.133	0.362
-452.968	-200.000	-0.020	-0.103
-451.953	800.000	0.077	-0.240
-450.938	752.690	0.009	-0.023
-449.924	-191.923	-0.456	-0.004
-448.909	-200.000	0.006	0.254
-447.895	800.000	-0.024	-0.103
-446.880	-109.974	0.203	0.042
-445.865	-193.296	0.183	-0.002
-444.851	-200.000	-0.012	0.149
-443.836	216.112	-0.274	-0.433
-442.822	152.301	0.162	-0.219
-441.807	370.799	0.038	-0.077
-440.792	-136.632	0.114	0.013
-439.778	443.139	-0.064	0.138
-438.763	-48.126	-0.173	-0.083
-437.749	800.000	0.116	-0.363
-436.734	-74.524	0.300	-0.107
-435.719	-18.594	0.154	-0.096
-434.705	204.594	0.109	-0.168
-433.690	-17.663	0.296	-0.185
-432.676	38.336	-0.190	0.168
-431.661	564.627	0.072	-0.174
-430.646	-200.000	-0.006	0.150
-429.632	800.000	-0.105	-0.303
-428.617	366.365	0.087	0.175
-427.603	-117.950	-0.203	-0.036
-426.588	-200.000	-0.001	-0.082
-425.573	214.576	-0.161	0.252
-424.559	94.191	0.115	0.130
-423.544	800.000	-0.075	0.285
-422.530	425.859	0.160	0.343
-421.515	-184.952	-0.599	0.009
-420.500	-139.798	-0.249	0.026
-419.486	-200.000	0.048	-0.521
-418.471	-45.957	-0.075	-0.037
-417.457	-0.912	-0.040	0.028
-416.442	-128.175	0.222	-0.032
-415.428	-200.000	0.013	-0.188
-414.413	-162.891	0.321	-0.015
-413.398	800.000	-0.147	0.477
-412.384	48.804	0.089	-0.083
-411.369	-200.000	0.039	-0.287
-410.355	503.259	-0.021	0.049
-409.340	-27.564	0.352	0.203
-408.325	800.000	0.058	0.185
-407.311	27.314	-0.172	0.143
-406.296	-7.879	-0.133	-0.089
-405.282	-21.594	0.149	0.090
-404.267	60.890	-0.182	0.179
-403.252	56.719	-0.145	-0.140
-402.238	800.000	-0.034	0.111
-401.223	-200.000	-0.045	0.206
-400.209	-200.000	0.042	0.211
-399.194	-80.053	0.208	0.069
-398.179	-160.605	0.226	-0.012
-397.165	-138.185	0.170	-0.019
-396.150	-139.429	0.146	-0.015
-395.136	-200.000	-0.005	0.166
-394.121	800.000	-0.059	0.203
-393.106	-11.401	0.078	0.051
-392.092	-161.196	0.337	-0.017
-391.077	-103.163	-0.149	0.035
-390.063	-200.000	-0.571	-0.001
-389.048	-200.000	0.008	-0.173
-388.033	-1.300	-0.078	-0.054
-387.019	290.789	-0.076	0.138
-386.004	-6.154	0.038	-0.025
-384.990	-109.724	-0.422	-0.088
-383.975	-166.234	0.207	0.009
-382.960	-200.000	0.068	-0.347
-381.946	-156.906	0.131	0.008
-380.931	-200.000	0.022	-0.163
-379.917	800.000	0.067	-0.205
-378.902	-126.913	0.358	-0.052
-377.888	66.529	-0.205	-0.206
-376.873	-25.737	0.380	0.222
-375.858	-200.000	-0.013	0.209
-374.844	200.917	0.243	-0.370
-373.829	-81.636	-0.324	-0.106
-372.815	800.000	0.073	-0.276
-371.800	251.536	-0.183	-0.309
-370.785	-200.000	0.038	-0.195
-369.771	14.935	0.226	0.175
-368.756	-64.524	-0.312	0.126
-367.742	448.657	0.066	-0.144
-366.727	-200.000	0.005	0.027
-365.712	-98.895	0.266	0.067
-364.698	204.939	-0.112	-0.172
-363.683	800.000	0.038	-0.163
-362.669	-200.000	-0.016	0.149
-361.654	-1.306	-0.225	-0.157
-360.639	0.071	-0.079	-0.055
-359.625	-85.222	0.301	-0.093
-358.610	136.706	0.284	0.367
-357.596	610.235	-0.039	0.097
-356.581	-200.000	0.008	0.152
-355.566	-19.986	0.292	0.178
-354.552	-91.217	-0.379	-0.107
-353.537	70.892	-0.166	0.170
-352.523	223.265	-0.114	0.182
-351.508	-41.423	0.313	-0.159
-350.493	-200.000	-0.012	0.452
-349.479	59.634	-0.217	0.212
-348.464	115.349	0.045	-0.054
-347.450	-200.000	-0.017	0.403
-346.435	105.605	0.297	0.347
-345.420	-131.844	0.205	-0.026
-344.406	9.655	-0.201	-0.151
-343.391	800.000	-0.106	-0.330
-342.377	625.192	0.086	0.215
-341.362	101.886	-0.057	-0.066
-340.348	-23.419	0.095	-0.056
-339.333	-66.625	0.233	-0.091
-338.318	-200.000	-0.008	0.188
-337.304	-78.699	0.321	0.108
-336.289	-200.000	-0.038	-0.266
-335.275	68.223	-0.080	0.081
-334.260	-33.594	0.041	-0.022
-333.245	800.000	0.101	0.286
-332.231	-200.000	0.008	0.280
-331.216	327.966	0.087	-0.165
-330.202	-114.938	-0.072	0.014
-329.187	-200.000	0.033	-0.191
-328.172	-200.000	0.144	0.000
-327.158	-200.000	0.018	0.175
-326.143	-200.000	0.038	0.197
-325.129	41.582	-0.290	0.260
-324.114	-122.574	-0.252	-0.040
-323.099	-123.806	-0.200	-0.031
-322.085	293.543	0.064	0.115
-321.070	-57.749	0.176	-0.076
-320.056	299.844	0.073	0.133
-319.041	-7.129	0.216	-0.145
-318.026	-37.139	0.106	-0.056
-317.012	639.573	0.051	0.128
-315.997	121.750	-0.032	-0.039
-314.983	85.164	-0.168	0.182
-313.968	-175.140	0.167	-0.005
-312.953	329.817	-0.078	0.148
-311.939	84.416	-0.077	-0.083
-310.924	-35.111	0.065	0.035
-309.910	-200.000	-0.016	-0.368
-308.895	-20.866	-0.325	-0.197
-307.880	138.967	0.227	0.295
-306.866	606.040	-0.062	0.153
-305.851	-113.637	0.291	0.056
-304.837	270.200	0.085	-0.148
-303.822	800.000	-0.094	-0.306
-302.807	278.382	-0.067	-0.118
-301.793	7.484	-0.120	-0.088
-300.778	361.719	0.181	0.359
-299.764	-54.778	-0.451	-0.201
-298.749	-200.000	0.054	0.492
-297.735	-2.383	0.328	0.227
-296.720	800.000	-0.095	0.265
-295.705	-108.704	0.125	0.026
-294.691	-164.030	-0.309	-0.014
-293.676	-81.783	0.128	0.042
-292.662	-90.936	-0.141	-0.040
-291.647	800.000	0.035	-0.106
-290.632	800.000	-0.066	0.181
-289.618	-18.688	0.181	-0.111
-288.603	-145.784	0.296	0.026
-287.589	-19.935	0.052	-0.032
-286.574	-200.000	0.004	-0.103
-285.559	-55.577	-0.179	-0.079
-284.545	573.724	-0.100	-0.240
-283.530	447.326	0.098	0.212
-282.516	173.566	-0.090	0.127
-281.501	14.553	0.133	-0.102
-280.486	394.210	-0.123	-0.253
-279.472	293.381	0.157	-0.283
-278.457	-200.000	0.010	-0.044
-277.443	726.081	-0.146	0.383
-276.428	-198.562	0.520	0.003
-275.413	84.877	0.105	-0.114
-274.399	-200.000	-0.024	-0.127
-273.384	-41.476	0.169	0.086
-272.370	164.325	-0.040	0.055
-271.355	19.127	-0.159	-0.126
-270.340	-94.904	0.036	-0.010
-269.326	-8.078	-0.204	0.136
-268.311	-200.000	-0.001	0.370
-267.297	278.218	-0.128	0.225
-266.282	-96.732	-0.279	-0.072
-265.267	-49.277	-0.131	0.062
-264.253	800.000	-0.104	-0.315
-263.238	-33.364	-0.281	-0.153
-262.224	800.000	0.030	0.116
-261.209	139.582	0.089	-0.116
-260.195	47.227	-0.129	-0.118
-259.180	800.000	0.143	0.607
-258.165	-170.147	0.338	0.012
-257.151	96.396	-0.287	-0.324
-256.136	-200.000	0.005	0.114
-255.122	194.617	-0.170	-0.255
-254.107	59.377	-0.094	-0.091
-253.092	-200.000	-0.016	-0.219
-252.078	474.120	0.123	-0.273
-251.063	-200.000	-0.024	-0.399
-250.049	19.504	-0.144	0.114
-249.034	25.091	0.106	-0.087
-248.019	143.070	-0.094	0.124
-247.005	492.391	-0.070	-0.157
-245.990	-200.000	0.005	-0.174
-244.976	-200.000	-0.004	0.237
-243.961	-134.756	0.021	0.002
-242.946	-108.493	0.088	-0.019
-241.932	-200.000	-0.012	-0.091
-240.917	-200.000	-0.064	-0.334
-239.903	-200.000	0.036	0.187
-238.888	-104.857	0.110	0.025
-237.873	-60.088	0.328	-0.138
-236.859	467.144	0.073	0.160
-235.844	67.715	0.116	-0.116
-234.830	-200.000	-0.035	0.253
-233.815	92.162	-0.061	-0.067
-232.800	-200.000	-0.067	0.442
-231.786	800.000	0.024	-0.068
-230.771	800.000	-0.067	0.235
-229.757	-139.964	0.187	-0.019
-228.742	13.401	0.281	-0.215
-227.727	800.000	0.048	0.140
-226.713	-200.000	-0.012	-0.152
-225.698	651.026	0.120	-0.302
-224.684	607.943	0.138	-0.340
-223.669	293.580	0.049	-0.088
-222.655	800.000	-0.040	0.129
-221.640	-200.000	-0.105	0.505
-220.625	156.841	-0.176	-0.239
-219.611	-0.789	0.123	0.086
-218.596	31.241	0.051	0.043
-217.582	-200.000	0.003	0.068
-216.567	180.127	0.179	0.258
-215.552	145.735	0.172	0.226
-214.538	125.353	0.151	0.188
-213.523	229.810	-0.067	-0.108
-212.509	-25.721	-0.204	-0.118
-211.494	106.247	0.292	-0.340
-210.479	-200.000	-0.012	0.134
-209.465	125.551	-0.211	-0.262
-208.450	638.559	-0.137	0.343
-207.436	50.299	-0.138	-0.128
-206.421	-89.250	0.207	-0.060
-205.406	-200.000	-0.008	-0.111
-204.392	-200.000	-0.009	0.221
-203.377	-200.000	0.007	0.165
-202.363	94.132	0.179	0.199
-201.348	-200.000	0.003	-0.056
-200.333	176.458	0.145	-0.207
-199.319	-200.000	-0.020	-0.149
-198.304	465.353	0.117	-0.257
-197.290	-200.000	-0.016	-0.267
-196.275	-12.568	0.160	0.103
-195.260	158.959	-0.087	0.119
-194.246	-63.817	-0.183	-0.074
-193.231	-32.211	0.308	-0.169
-192.217	-54.663	0.330	0.147
-191.202	-52.469	-0.221	-0.100
-190.187	-49.924	0.041	0.019
-189.173	332.436	-0.101	0.191
-188.158	-92.445	-0.161	0.045
-187.144	-85.202	-0.265	-0.081
-186.129	800.000	0.041	0.113
-185.114	-200.000	-0.018	-0.118
-184.100	-200.000	0.007	-0.098
-183.085	24.078	-0.225	0.182
-182.071	6.467	-0.031	0.023
-181.056	7.838	-0.110	0.081
-180.042	305.551	0.051	-0.093
-179.027	-31.174	0.144	0.080
-178.012	364.599	-0.193	-0.382
-176.998	800.000	0.031	0.105
-175.983	-200.000	0.078	-0.432
-174.969	423.265	0.048	-0.101
-173.954	7.117	0.121	0.089
-172.939	-118.470	0.127	0.022
-171.925	557.301	0.075	-0.177
-170.910	128.867	0.098	0.123
-169.896	-70.709	0.091	-0.034
-168.881	-29.061	0.379	0.214
-167.866	86.647	0.046	0.050
-166.852	49.717	-0.042	-0.039
-165.837	-50.849	0.302	0.140
-164.823	-133.194	-0.071	-0.009
-163.808	112.894	0.120	0.143
-162.793	192.224	0.243	-0.360
-161.779	57.617	-0.065	0.063
-160.764	800.000	0.028	0.105
-159.750	-92.217	0.091	-0.025
-158.735	695.538	-0.163	0.420
-157.720	-76.366	-0.207	-0.071
-156.706	87.709	0.179	-0.195
-155.691	800.000	-0.083	-0.319
-154.677	-69.212	0.106	-0.040
-153.662	-26.637	0.186	0.107
-152.647	310.101	0.068	0.126
-151.633	-119.420	0.353	0.060
-150.618	800.000	0.050	-0.197
-149.604	267.709	-0.185	0.318
-148.589	-200.000	-0.016	-0.402
-147.574	-139.163	0.279	0.030
-146.560	180.753	0.086	-0.124
-145.545	157.618	0.195	-0.265
-144.531	800.000	-0.052	-0.151
-143.516	-200.000	0.016	-0.084
-142.502	-37.244	0.323	0.169
-141.487	225.033	-0.120	-0.191
-140.472	58.510	-0.198	-0.191
-139.458	152.849	0.258	0.346
-138.443	-33.566	-0.195	-0.106
-137.429	-180.297	0.367	-0.008
-136.414	-79.333	0.324	-0.108
-135.399	-43.205	-0.263	0.131
-134.385	260.189	-0.155	0.262
-133.370	-200.000	-0.019	-0.182
-132.356	166.384	0.090	0.125
-131.341	-117.110	0.091	0.016
-130.326	49.361	0.096	-0.088
-129.312	97.626	0.118	-0.133
-128.297	-1.681	0.216	-0.149
-127.283	345.408	-0.070	0.135
-126.268	-49.606	0.135	-0.063
-125.253	-200.000	-0.011	0.402
-124.239	98.309	0.342	0.386
-123.224	90.214	0.167	0.183
-122.210	63.491	-0.049	-0.048
-121.195	-12.972	0.166	-0.106
-120.180	-166.693	-0.411	0.017
-119.166	-200.000	-0.045	0.235
-118.151	-74.878	0.170	-0.060
-117.137	-70.197	-0.181	0.068
-116.122	-65.482	0.050	-0.020
-115.107	-200.000	-0.008	0.160
-114.093	-130.995	-0.296	0.039
-113.078	-28.782	0.025	0.014
-112.064	-200.000	-0.031	0.165
-111.049	91.700	0.193	0.213
-110.034	783.953	-0.034	0.091
-109.020	-89.368	0.256	-0.074
-108.005	-90.540	-0.138	0.039
-106.991	536.959	-0.185	0.432
-105.976	649.890	-0.014	0.036
-104.962	78.436	0.181	0.189
-103.947	50.311	0.046	0.042
-102.932	34.382	0.082	-0.070
-101.918	-89.533	-0.035	0.010
-100.903	-50.961	0.297	-0.137
-99.889	800.000	0.039	0.139
-98.874	23.712	0.028	0.023
-97.859	-79.245	-0.182	-0.061
-96.845	-200.000	0.061	-0.344
-95.830	-60.709	-0.121	-0.050
-94.816	-4.318	-0.103	0.070
-93.801	307.133	-0.115	0.210
-92.786	800.000	-0.125	0.353
-91.772	-182.835	-0.375	0.007
-90.757	-39.777	-0.222	-0.114
-89.743	-164.032	-0.178	-0.008
-88.728	-175.441	0.262	0.007
-87.713	11.952	-0.222	-0.167
-86.699	426.905	0.108	0.229
-85.684	152.267	0.165	0.220
-84.670	-200.000	-0.017	0.272
-83.655	-200.000	-0.003	-0.059
-82.640	-200.000	-0.002	0.228
-81.626	-94.544	0.233	-0.062
-80.611	-57.685	0.111	0.048
-79.597	800.000	0.054	-0.154
-78.582	150.459	-0.124	0.164
-77.567	465.001	0.162	0.354
-76.553	-5.476	0.223	0.150
-75.538	-48.775	-0.291	0.137
-74.524	-125.427	0.035	-0.005
-73.509	4.616	-0.061	0.044
-72.494	-106.653	0.229	0.050
-71.480	-137.206	-0.017	-0.002
-70.465	136.362	-0.037	-0.048
-69.451	499.786	0.122	0.275
-68.436	-92.980	0.163	-0.044
-67.422	41.142	0.005	-0.004
-66.407	121.892	0.118	0.144
-65.392	125.604	0.289	0.357
-64.378	-18.122	-0.269	0.164
-63.363	-200.000	0.004	0.252
-62.349	515.126	0.055	0.125
-61.334	18.215	-1.237	-0.966
-60.319	49.475	0.849	0.782
-59.305	800.000	-0.479	-1.360
-58.290	643.022	0.355	0.886
-57.276	388.997	0.806	1.633
-56.261	-200.000	114.110	664.685
-55.246	552.426	1516.359	3562.695
-54.232	178.504	2689.854	3842.178
-53.217	104.600	2284.483	2631.901
-52.203	37.144	1893.593	1639.563
-51.188	31.101	1682.889	1411.515
-50.173	28.487	1641.278	1357.238
-49.159	50.582	1697.187	1570.180
-48.144	49.348	1711.737	1574.313
-47.130	30.600	1669.301	1396.132
-46.115	27.885	1654.857	1363.759
-45.100	27.768	1649.668	1358.553
-44.086	27.650	1647.495	1355.838
-43.071	27.639	1644.612	1353.330
-42.057	27.694	1642.095	1351.610
-41.042	27.731	1639.872	1349.998
-40.027	27.824	1638.150	1349.219
-39.013	27.656	1636.124	1346.257
-37.998	27.725	1634.669	1345.513
-36.984	27.636	1633.692	1343.996
-35.969	27.813	1631.520	1343.462
-34.954	27.775	1630.629	1342.391
-33.940	27.808	1628.253	1340.628
-32.925	27.741	1626.689	1338.796
-31.911	27.828	1624.915	1337.919
-30.896	27.820	1623.423	1336.580
-29.881	27.756	1621.588	1334.551
-28.867	27.685	1620.337	1332.946
-27.852	27.851	1618.116	1332.279
-26.838	27.760	1617.052	1330.685
-25.823	27.896	1615.680	1330.494
-24.809	27.822	1614.562	1328.983
-23.794	27.881	1612.951	1328.032
-22.779	27.878	1611.389	1326.673
-21.765	27.762	1610.073	1324.697
-20.750	27.751	1608.703	1323.435
-19.736	27.906	1606.992	1323.100
-18.721	27.949	1605.879	1322.441
-17.706	27.778	1604.807	1320.270
-16.692	27.885	1602.706	1319.257
-15.677	27.768	1601.744	1317.572
-14.663	27.828	1600.119	1316.612
-13.648	27.817	1598.911	1315.487
-12.633	27.902	1597.605	1314.971
-11.619	27.943	1595.566	1313.541
-10.604	27.875	1594.049	1311.751
-9.590	27.819	1593.333	1310.702
-8.575	27.840	1591.654	1309.426
-7.560	27.990	1590.209	1309.255
-6.546	27.871	1589.651	1307.891
-5.531	27.842	1588.698	1306.851
-4.517	27.940	1587.100	1306.184
-3.502	27.859	1586.582	1305.130
-2.487	27.950	1584.808	1304.264
-1.473	27.525	1572.756	1291.281
-0.458	24.630	1553.000	1254.718
0.556	22.072	1554.074	1223.003
1.571	19.685	1577.040	1224.080
2.586	19.175	1589.534	1230.029
3.600	16.887	1535.085	1171.991
4.615	9.892	1428.030	1045.028
5.629	4.177	1369.008	966.199
6.644	3.366	1361.735	955.951
7.659	3.154	1360.984	954.027
8.673	3.236	1359.509	953.415
9.688	3.174	1358.145	951.991
10.702	3.217	1354.627	949.705
11.717	5.888	1359.313	969.428
12.731	13.314	1372.792	1025.137
13.746	19.363	1383.379	1070.625
14.761	20.597	1384.195	1078.820
15.775	19.954	1382.018	1073.044
16.790	18.961	1379.752	1065.047
17.804	18.141	1377.628	1058.235
18.819	17.825	1376.332	1055.194
19.834	17.662	1375.279	1053.288
20.848	17.576	1373.816	1051.544
21.863	17.320	1373.220	1049.411
22.877	17.182	1371.839	1047.414
23.892	17.250	1370.714	1046.883
24.907	17.168	1370.049	1045.778
25.921	17.169	1368.936	1044.838
26.936	17.152	1368.395	1044.229
27.950	17.211	1367.127	1043.530
28.965	17.327	1366.238	1043.477
29.980	17.409	1364.790	1042.777
30.994	17.542	1363.654	1042.632
32.009	17.462	1362.793	1041.393
33.023	17.507	1362.016	1040.980
34.038	17.463	1360.341	1039.340
35.053	17.318	1359.266	1037.542
36.067	17.247	1357.793	1035.892
37.082	17.408	1356.457	1035.762
38.096	17.443	1355.993	1035.531
39.111	17.482	1354.944	1034.873
40.126	17.419	1354.015	1033.689
41.140	17.090	1353.056	1030.872
42.155	16.973	1352.327	1029.512
43.169	16.937	1352.629	1029.435
44.184	16.952	1351.779	1028.784
45.199	16.996	1351.918	1029.068
46.213	17.091	1351.212	1029.015
47.228	17.272	1350.653	1029.592
48.242	17.255	1349.197	1028.294
49.257	17.270	1347.913	1027.310
50.271	17.298	1346.354	1026.204
51.286	17.384	1344.403	1025.145
52.301	17.343	1343.135	1023.840
53.315	17.125	1342.668	1022.079
54.330	16.999	1341.765	1020.541
55.344	17.037	1340.360	1019.616
56.359	17.050	1339.336	1018.819
57.374	17.026	1338.130	1017.669
58.388	16.940	1337.752	1016.781
59.403	17.001	1336.799	1016.327
60.417	17.000	1336.077	1015.682
61.432	16.906	1335.419	1014.531
62.447	16.792	1334.868	1013.340
63.461	16.714	1334.002	1012.126
64.476	16.758	1332.435	1011.111
65.490	16.821	1330.797	1010.155
66.505	16.831	1329.564	1009.189
67.520	16.875	1328.454	1008.520
68.534	16.862	1327.089	1007.319
69.549	16.764	1326.569	1006.249
70.563	16.836	1325.132	1005.497
71.578	16.672	1324.437	1003.909
72.593	16.622	1323.164	1002.559
73.607	16.528	1322.878	1001.700
74.622	16.654	1321.872	1001.594
75.636	16.791	1320.775	1001.484
76.651	16.691	1320.279	1000.430
77.666	16.769	1320.379	1000.876
78.680	16.785	1319.801	1000.444
79.695	16.765	1319.080	999.689
80.709	16.895	1318.186	999.689
81.724	16.970	1317.777	999.735
82.739	17.083	1316.755	999.537
83.753	17.155	1315.956	999.265
84.768	17.267	1315.209	999.265
85.782	17.372	1314.110	998.959
86.797	17.309	1312.535	997.304
87.812	17.313	1310.906	996.001
88.826	17.343	1309.653	995.141
89.841	17.361	1308.947	994.619
90.855	17.406	1308.385	994.368
91.870	17.435	1307.497	993.775
92.884	17.491	1306.242	993.061
93.899	17.401	1305.988	992.251
94.914	17.382	1305.243	991.490
95.928	17.464	1304.334	991.188
96.943	17.407	1303.268	989.958
97.957	17.359	1302.356	988.897
98.972	17.489	1300.727	988.330
99.987	17.371	1300.492	987.376
101.001	17.455	1299.084	986.709
102.016	17.491	1298.145	986.114
103.030	17.443	1297.336	985.139
104.045	17.423	1296.532	984.325
105.060	17.249	1295.419	982.384
106.074	17.124	1293.292	979.967
107.089	16.930	1291.973	977.761
108.103	16.804	1291.157	976.333
109.118	16.786	1289.793	975.111
110.133	16.921	1288.103	974.519
111.147	16.879	1286.844	973.239
112.162	16.899	1285.700	972.405
113.176	17.032	1284.726	972.346
114.191	16.990	1283.685	971.232
115.206	17.063	1282.515	970.673
116.220	16.919	1281.469	968.974
117.235	17.057	1279.937	968.521
118.249	16.982	1278.842	967.175
119.264	16.879	1278.008	965.873
120.279	16.879	1276.634	964.748
121.293	16.820	1275.898	963.775
122.308	16.730	1274.716	962.284
123.322	16.750	1273.379	961.302
124.337	16.678	1272.553	960.184
125.352	16.729	1271.319	959.460
126.366	16.650	1270.405	958.238
127.381	16.714	1268.859	957.349
128.395	16.792	1267.821	956.923
129.410	16.746	1266.999	955.955
130.424	16.800	1266.524	955.816
131.439	16.983	1265.450	955.954
132.454	16.955	1264.939	955.328
133.468	17.027	1263.567	954.608
134.483	16.976	1263.173	953.938
135.497	16.938	1262.522	953.149
136.512	16.953	1260.903	951.927
137.527	17.000	1259.594	951.121
138.541	17.002	1258.091	949.910
139.556	17.031	1257.266	949.370
140.570	17.208	1256.313	949.552
141.585	17.375	1255.042	949.440
142.600	17.323	1253.929	948.227
143.614	17.363	1253.019	947.675
144.629	17.431	1252.062	947.247
145.643	17.426	1250.871	946.233
146.658	17.261	1249.748	944.385
147.673	17.185	1248.277	942.767
148.687	17.065	1247.043	941.086
149.702	17.098	1245.531	940.046
150.716	16.923	1244.417	938.153
151.731	17.124	1242.984	938.098
152.746	16.986	1242.581	936.950
153.760	17.205	1241.106	936.965
154.775	17.213	1240.182	936.228
155.789	17.343	1238.901	935.894
156.804	17.302	1238.014	934.915
157.819	17.458	1236.070	934.218
158.833	17.504	1235.802	934.185
159.848	17.522	1235.048	933.633
160.862	17.427	1234.133	932.338
161.877	17.187	1233.043	930.119
162.892	17.046	1232.049	928.514
163.906	17.154	1230.484	927.845
164.921	17.079	1230.068	927.040
165.935	17.178	1228.919	926.631
166.950	17.288	1228.294	926.674
167.964	17.213	1227.696	925.733
168.979	17.202	1226.342	924.573
169.994	17.143	1225.878	923.818
171.008	17.347	1224.959	924.153
172.023	17.387	1224.365	923.842
173.037	17.458	1223.514	923.505
174.052	17.622	1222.017	923.179
175.067	17.239	1221.871	920.913
176.081	17.136	1220.236	919.044
177.096	17.137	1219.367	918.312
178.110	17.261	1218.097	917.943
179.125	17.212	1217.062	916.818
180.140	17.278	1215.946	916.250
181.154	17.359	1215.169	916.023
182.169	17.531	1213.618	915.696
183.183	17.501	1212.748	914.795
184.198	17.585	1211.584	914.290
185.213	17.634	1210.099	913.350
186.227	17.540	1209.612	912.401
187.242	17.678	1208.593	912.286
188.256	17.735	1207.868	911.966
189.271	17.646	1207.409	911.063
190.286	17.560	1205.404	909.009
191.300	17.273	1204.526	906.737
192.315	17.102	1203.651	905.084
193.329	17.295	1202.770	905.370
194.344	17.225	1202.266	904.538
195.359	17.432	1201.808	905.216
196.373	17.408	1201.033	904.425
197.388	17.498	1201.430	905.124
198.402	17.726	1200.996	905.924
199.417	17.764	1200.587	905.742
200.432	17.861	1199.872	905.632
201.446	17.954	1199.260	905.588
202.461	18.027	1198.144	905.050
203.475	17.978	1196.919	903.783
204.490	17.743	1195.558	901.435
205.504	17.719	1194.033	900.079
206.519	17.723	1192.850	899.128
207.534	17.649	1191.482	897.626
208.548	17.718	1190.884	897.464
209.563	17.618	1190.555	896.610
210.577	17.738	1189.424	896.306
211.592	17.798	1188.595	895.918
212.607	17.959	1187.779	896.072
213.621	17.923	1187.035	895.242
214.636	17.940	1185.962	894.440
215.650	17.938	1184.775	893.456
216.665	17.982	1184.067	893.074
217.680	18.092	1183.380	893.052
218.694	18.114	1183.016	892.810
219.709	18.027	1181.971	891.488
220.723	17.963	1181.314	890.583
221.738	18.071	1180.101	890.149
222.753	18.105	1179.220	889.584
223.767	18.031	1179.108	889.039
224.782	18.140	1178.182	888.828
225.796	18.205	1177.522	888.586
226.811	18.333	1176.651	888.515
227.826	18.137	1176.002	886.930
228.840	18.099	1175.149	886.013
229.855	18.028	1174.397	884.998
230.869	18.034	1173.627	884.372
231.884	17.992	1172.566	883.277
232.899	17.896	1171.862	882.173
233.913	17.936	1171.428	881.974
234.928	17.916	1170.317	880.958
235.942	17.878	1169.573	880.121
236.957	17.889	1168.872	879.574
237.972	17.814	1168.425	878.772
238.986	17.877	1167.397	878.249
240.001	17.945	1166.976	878.200
241.015	17.983	1165.922	877.525
242.030	18.007	1165.319	877.115
243.045	17.958	1164.896	876.467
244.059	18.125	1163.621	876.288
245.074	18.174	1162.632	875.716
246.088	18.185	1162.526	875.616
247.103	18.265	1161.374	875.079
248.117	18.340	1161.117	875.192
249.132	18.588	1160.318	875.782
250.147	18.641	1160.168	875.857
251.161	18.809	1159.248	875.943
252.176	18.728	1158.669	875.019
253.190	18.856	1157.878	874.994
254.205	18.935	1157.131	874.754
255.220	18.813	1157.129	874.052
256.234	18.909	1155.794	873.453
257.249	18.812	1155.344	872.545
258.263	18.808	1154.601	871.886
259.278	18.908	1153.910	871.796
260.293	18.929	1153.158	871.255
261.307	19.002	1152.885	871.342
262.322	18.963	1152.026	870.418
263.336	18.919	1151.526	869.744
264.351	19.011	1150.994	869.730
265.366	18.948	1150.399	868.881
266.380	19.054	1149.543	868.695
267.395	19.028	1148.359	867.591
268.409	18.848	1147.809	866.194
269.424	18.795	1147.260	865.432
270.439	18.799	1146.924	865.123
271.453	18.889	1145.334	864.300
272.468	18.646	1144.676	862.509
273.482	18.637	1144.447	862.215
274.497	18.668	1143.757	861.773
275.512	18.794	1143.252	861.948
276.526	18.716	1142.138	860.643
277.541	18.802	1141.013	860.148
278.555	18.965	1140.425	860.445
279.570	18.897	1140.720	860.252
280.585	19.112	1139.577	860.389
281.599	19.060	1138.261	859.057
282.614	18.973	1137.268	857.796
283.628	18.910	1136.225	856.623
284.643	18.858	1135.410	855.673
285.657	18.881	1134.755	855.215
286.672	19.002	1133.417	854.734
287.687	19.068	1132.508	854.302
288.701	18.946	1132.255	853.429
289.716	19.019	1131.412	853.080
290.730	18.976	1130.793	852.327
291.745	19.025	1130.455	852.237
292.760	19.080	1129.602	851.789
293.774	19.136	1129.246	851.723
294.789	19.107	1128.826	851.190
295.803	19.321	1127.359	851.065
296.818	19.130	1126.445	849.359
297.833	19.186	1125.798	849.069
298.847	18.981	1125.654	847.876
299.862	19.154	1124.363	847.682
300.876	19.188	1123.520	847.137
301.891	19.266	1122.931	847.003
302.906	19.310	1122.587	846.883
303.920	19.361	1122.006	846.618
304.935	19.440	1121.588	846.619
305.949	19.553	1120.659	846.394
306.964	19.578	1119.930	845.892
307.979	19.330	1119.438	844.233
308.993	19.546	1117.941	844.084
310.008	19.447	1117.695	843.341
311.022	19.440	1117.082	842.770
312.037	19.507	1116.096	842.277
313.052	19.339	1115.078	840.616
314.066	19.290	1114.066	839.540
315.081	19.146	1113.195	838.110
316.095	19.171	1112.300	837.481
317.110	19.089	1111.796	836.630
318.125	19.132	1111.047	836.200
319.139	19.204	1110.377	835.971
320.154	19.273	1109.534	835.597
321.168	19.168	1109.407	834.919
322.183	19.209	1108.438	834.314
323.197	19.173	1108.036	833.766
324.212	19.377	1107.540	834.304
325.227	19.343	1107.011	833.667
326.241	19.420	1106.051	833.243
327.256	19.430	1105.218	832.590
328.270	19.237	1104.229	830.838
329.285	19.268	1103.443	830.321
330.300	19.346	1102.116	829.629
331.314	19.350	1101.537	829.136
332.329	19.339	1100.768	828.434
333.343	19.330	1100.139	827.845
334.358	19.485	1099.437	827.983
335.373	19.561	1098.823	827.813
336.387	19.542	1097.845	826.914
337.402	19.558	1097.114	826.366
338.416	19.542	1096.657	825.873
339.431	19.611	1096.459	825.977
340.446	19.771	1095.720	826.115
341.460	19.971	1094.990	826.445
342.475	19.886	1094.094	825.290
343.489	19.953	1093.404	825.018
344.504	20.051	1092.437	824.682
345.519	19.951	1091.672	823.554
346.533	20.131	1090.517	823.464
347.548	20.145	1089.998	823.067
348.562	20.175	1089.352	822.648
349.577	19.929	1088.362	820.663
350.592	19.825	1087.618	819.534
351.606	19.756	1086.578	818.353
352.621	19.735	1085.757	817.564
353.635	19.674	1085.491	817.003
354.650	19.624	1084.983	816.310
355.665	19.710	1084.277	816.115
356.679	19.743	1083.831	815.861
357.694	19.639	1083.353	814.937
358.708	19.974	1082.213	815.587
359.723	19.974	1081.910	815.286
360.738	20.099	1080.790	814.959
361.752	19.816	1080.817	813.577
362.767	19.953	1079.724	813.325
363.781	20.013	1079.448	813.327
364.796	20.136	1079.127	813.588
365.810	20.115	1078.541	812.979
366.825	20.270	1078.032	813.248
367.840	20.378	1077.947	813.619
368.854	20.588	1076.602	813.514
369.869	20.458	1075.964	812.354
370.883	20.303	1075.122	810.922
371.898	20.260	1074.461	810.151
372.913	20.132	1074.204	809.287
373.927	20.247	1073.736	809.400
374.942	20.278	1072.706	808.695
375.956	20.360	1072.714	809.010
376.971	20.332	1072.055	808.314
377.986	20.409	1071.419	808.120
379.000	20.561	1070.986	808.427
380.015	20.506	1070.254	807.550
381.029	20.661	1069.847	807.892
382.044	20.572	1069.073	806.819
383.059	20.599	1068.164	806.187
384.073	20.599	1067.249	805.425
385.088	20.621	1066.006	804.521
386.102	20.664	1065.291	804.110
387.117	20.495	1064.612	802.744
388.132	20.327	1063.611	801.140
389.146	20.307	1062.628	800.240
390.161	20.406	1061.501	799.776
391.175	20.457	1061.123	799.652
392.190	20.531	1060.549	799.492
393.205	20.557	1059.860	799.022
394.219	20.588	1059.005	798.447
395.234	20.451	1058.468	797.342
396.248	20.500	1056.929	796.340
397.263	20.479	1055.910	795.404
398.278	20.361	1055.372	794.388
399.292	20.221	1054.942	793.356
400.307	20.330	1053.989	793.063
401.321	20.282	1053.152	792.147
402.336	20.331	1053.213	792.346
403.350	20.344	1052.006	791.429
404.365	20.456	1051.396	791.408
405.380	20.512	1050.675	791.050
406.394	20.508	1049.811	790.311
407.409	20.552	1049.626	790.304
408.423	20.763	1048.598	790.416
409.438	20.759	1048.223	790.046
410.453	20.827	1047.851	790.004
411.467	20.882	1047.004	789.545
412.482	20.883	1045.916	788.658
413.496	20.934	1045.657	788.626
414.511	20.922	1045.192	788.149
415.526	21.032	1044.812	788.290
416.540	21.100	1044.204	788.068
417.555	21.123	1043.330	787.445
418.569	21.001	1042.884	786.486
419.584	21.115	1042.309	786.496
420.599	21.012	1042.091	785.798
421.613	155.263	1403.396	1795.249
422.628	142.115	1456.019	1795.333
