DTS Sentinel unit serial number:	SN413079Multiplexer serial number:	ORYXHardware model number:	OX4-SRSoftware version number:	ORYX F/W v4.00 Oryx Data Collector v3.7.2.0data status	okinstallation	princeton_trtdifferential loss correction	single-endedforward channel	channel 2reverse channel	N/Adate	2019/09/17time	00:43:34forward acquisition time	60.00reverse acquisition time	0.00gamma	496.2192k internal	0.2329k external	0.2329temperature offset calibration	0.9973default loss term (dB/km)	0.3790temperature slope calibration	1.0000multiplexer offset coefficient	1.0000multiplexer slope coefficient	1.0000fibre end	0.00T internal ref (°C)	29.44T ext. ref 1 (°C)	0.10T ext. ref 2 (°C)	24.04length (m)	temperature (°C)	Stokes	anti-Stokes-747.200	587.538	-0.057	0.142
-746.185	53.337	-0.266	0.257
-745.171	729.885	-0.095	-0.254
-744.156	800.000	-0.068	0.210
-743.142	775.863	0.074	0.204
-742.127	-157.898	0.215	-0.013
-741.112	-34.607	-0.065	0.036
-740.098	91.539	-0.109	-0.123
-739.083	-2.547	0.106	-0.075
-738.069	99.260	-0.068	0.079
-737.054	-200.000	-0.023	-0.197
-736.039	9.023	-0.185	0.141
-735.025	-120.787	0.174	0.030
-734.010	99.627	0.074	-0.087
-732.996	5.802	-0.025	-0.018
-731.981	-166.311	-0.246	-0.010
-730.966	-17.642	-0.181	-0.115
-729.952	398.906	-0.072	-0.151
-728.937	158.392	-0.114	-0.159
-727.923	-85.829	0.080	0.025
-726.908	-147.653	0.118	-0.010
-725.894	-200.000	-0.005	0.130
-724.879	-17.393	-0.217	-0.138
-723.864	800.000	-0.071	0.237
-722.850	-58.016	0.189	-0.083
-721.835	-63.062	-0.057	0.024
-720.821	112.018	0.218	0.265
-719.806	-200.000	-0.021	0.119
-718.791	800.000	-0.006	-0.023
-717.777	-200.000	-0.014	-0.173
-716.762	338.760	-0.085	-0.166
-715.748	-200.000	0.005	0.061
-714.733	-200.000	-0.001	0.194
-713.718	431.447	-0.150	0.326
-712.704	115.220	-0.063	0.078
-711.689	-45.737	0.186	-0.092
-710.675	199.749	0.173	0.267
-709.660	-39.092	-0.262	0.139
-708.645	81.690	-0.322	-0.351
-707.631	109.591	-0.132	0.159
-706.616	-122.552	-0.262	-0.043
-705.602	323.644	0.085	0.163
-704.587	-200.000	0.026	-0.184
-703.572	-44.522	-0.270	0.136
-702.558	521.739	0.160	-0.377
-701.543	-200.000	0.004	0.376
-700.529	95.487	-0.400	-0.458
-699.514	-77.355	-0.302	0.105
-698.499	66.912	0.244	0.250
-697.485	800.000	0.109	0.361
-696.470	-200.000	-0.020	-0.183
-695.456	129.665	0.231	-0.297
-694.441	800.000	-0.026	-0.094
-693.426	329.946	-0.110	-0.214
-692.412	238.197	0.189	-0.315
-691.397	-67.702	-0.119	0.047
-690.383	-172.389	0.291	0.009
-689.368	-61.691	0.023	-0.010
-688.354	-38.930	-0.236	-0.125
-687.339	-29.002	-0.239	-0.138
-686.324	-75.529	0.223	0.080
-685.310	800.000	0.118	-0.333
-684.295	-200.000	-0.326	-0.000
-683.281	-22.153	0.111	0.067
-682.266	269.472	-0.062	-0.109
-681.251	-10.920	0.275	-0.183
-680.237	-150.368	0.366	0.028
-679.222	62.675	-0.319	-0.320
-678.208	-200.000	-0.053	-0.396
-677.193	23.871	-0.028	0.023
-676.178	-72.433	-0.266	-0.099
-675.164	89.923	-0.198	0.222
-674.149	-86.024	-0.188	0.058
-673.135	-200.000	-0.001	-0.010
-672.120	-149.066	0.228	0.018
-671.105	-53.862	-0.274	0.125
-670.091	-86.563	-0.209	-0.065
-669.076	-32.134	-0.226	-0.127
-668.062	159.601	-0.261	-0.365
-667.047	500.370	0.035	0.082
-666.032	85.202	0.120	0.132
-665.018	81.001	-0.134	-0.146
-664.003	-153.441	-0.056	-0.004
-662.989	-138.130	0.285	0.032
-661.974	10.937	-0.136	-0.104
-660.959	425.971	0.119	-0.258
-659.945	-112.210	-0.306	0.062
-658.930	160.548	0.090	-0.126
-657.916	800.000	0.069	-0.225
-656.901	550.026	-0.070	0.168
-655.886	-116.737	0.315	0.058
-654.872	365.402	-0.097	-0.195
-653.857	-200.000	-0.047	0.371
-652.843	-54.980	0.334	-0.151
-651.828	-200.000	0.014	-0.062
-650.814	-200.000	0.010	0.044
-649.799	-200.000	-0.044	-0.431
-648.784	-200.000	0.002	-0.027
-647.770	165.331	0.108	0.153
-646.755	-99.206	-0.305	0.077
-645.741	800.000	-0.092	-0.271
-644.726	-116.119	0.179	0.033
-643.711	-85.941	-0.138	0.043
-642.697	-200.000	0.022	-0.259
-641.682	465.492	-0.092	-0.207
-640.668	800.000	0.046	-0.148
-639.653	800.000	-0.004	-0.015
-638.638	-112.352	-0.239	0.048
-637.624	-153.918	-0.299	0.020
-636.609	-200.000	-0.034	0.180
-635.595	800.000	0.018	0.056
-634.580	-76.846	-0.162	0.057
-633.565	-10.100	0.345	-0.230
-632.551	-39.369	-0.358	-0.189
-631.536	-200.000	-0.040	0.235
-630.522	800.000	0.017	-0.053
-629.507	-200.000	-0.016	-0.208
-628.492	-95.775	-0.195	0.052
-627.478	-84.442	-0.174	0.055
-626.463	-48.706	-0.174	0.084
-625.449	-165.959	0.184	-0.008
-624.434	-120.003	-0.287	0.049
-623.419	-200.000	-0.020	0.259
-622.405	788.220	0.029	-0.081
-621.390	64.245	0.172	-0.174
-620.376	-2.267	0.271	0.191
-619.361	763.264	0.061	0.167
-618.346	-190.458	0.172	0.002
-617.332	-124.439	0.098	-0.015
-616.317	-35.761	-0.263	0.143
-615.303	-132.486	0.262	-0.034
-614.288	336.828	0.110	-0.215
-613.273	543.860	-0.065	-0.156
-612.259	-125.306	0.150	-0.023
-611.244	800.000	-0.041	0.165
-610.230	85.949	0.127	-0.140
-609.215	4.044	-0.038	0.028
-608.201	-107.059	-0.242	0.053
-607.186	-200.000	-0.015	0.125
-606.171	-162.541	0.424	-0.021
-605.157	-200.000	-0.010	0.112
-604.142	704.282	0.085	-0.224
-603.128	-73.553	-0.261	0.095
-602.113	-150.633	-0.061	0.005
-601.098	152.772	0.119	-0.163
-600.084	-160.471	-0.275	-0.015
-599.069	-81.702	0.137	-0.045
-598.055	800.000	0.033	0.091
-597.040	592.205	0.121	-0.300
-596.025	100.167	0.131	-0.152
-595.011	-200.000	-0.005	-0.049
-593.996	730.236	0.111	-0.298
-592.982	800.000	0.121	0.352
-591.967	498.950	0.154	0.355
-590.952	-4.412	-0.115	0.079
-589.938	236.767	-0.077	0.127
-588.923	-41.060	0.345	-0.178
-587.909	-145.998	0.264	0.023
-586.894	-200.000	-0.020	0.159
-585.879	-44.218	-0.347	0.174
-584.865	767.525	-0.070	0.191
-583.850	210.466	0.146	0.229
-582.836	-94.289	-0.194	-0.053
-581.821	357.136	-0.122	0.243
-580.806	56.246	0.210	-0.204
-579.792	800.000	-0.045	0.126
-578.777	-200.000	-0.000	0.140
-577.763	800.000	-0.094	0.339
-576.748	494.795	0.129	-0.297
-575.733	-47.275	0.298	-0.145
-574.719	-114.586	-0.047	-0.009
-573.704	-87.609	-0.089	0.027
-572.690	-200.000	0.005	-0.303
-571.675	163.228	-0.167	0.235
-570.661	-24.233	-0.192	-0.115
-569.646	-137.302	0.518	0.059
-568.631	800.000	0.072	-0.218
-567.617	800.000	-0.055	0.194
-566.602	800.000	-0.058	-0.173
-565.588	-200.000	-0.024	0.227
-564.573	41.349	-0.113	0.102
-563.558	-32.485	0.040	-0.022
-562.544	-144.055	0.338	0.032
-561.529	-130.830	-0.162	-0.022
-560.515	592.772	0.089	0.220
-559.500	-65.952	0.065	0.026
-558.485	-68.209	-0.182	0.071
-557.471	653.159	-0.071	0.182
-556.456	796.897	0.158	-0.437
-555.442	-173.965	-0.265	0.008
-554.427	-49.972	0.322	-0.153
-553.412	124.950	-0.093	0.117
-552.398	208.967	0.135	0.211
-551.383	70.080	-0.357	-0.368
-550.369	339.523	0.089	0.174
-549.354	-83.542	-0.331	-0.106
-548.339	800.000	0.063	0.220
-547.325	-141.444	0.275	-0.028
-546.310	22.134	-0.263	0.215
-545.296	-163.870	0.199	0.009
-544.281	224.563	-0.048	-0.077
-543.266	632.325	-0.030	0.076
-542.252	800.000	-0.068	-0.267
-541.237	3.538	-0.246	-0.179
-540.223	648.877	0.089	-0.226
-539.208	220.480	-0.089	-0.142
-538.193	280.654	-0.056	-0.100
-537.179	-101.010	-0.289	0.071
-536.164	-34.330	-0.297	-0.163
-535.150	-22.005	0.031	-0.019
-534.135	70.679	-0.230	-0.238
-533.121	-18.458	-0.201	-0.125
-532.106	58.581	0.166	0.163
-531.091	800.000	-0.064	0.195
-530.077	41.738	0.046	0.042
-529.062	-42.492	0.302	-0.154
-528.048	-45.909	0.174	0.086
-527.033	115.717	0.143	0.174
-526.018	-72.919	-0.178	0.066
-525.004	-200.000	0.003	-0.076
-523.989	177.033	0.178	-0.258
-522.975	-93.874	-0.111	-0.030
-521.960	800.000	0.035	0.148
-520.945	495.787	-0.110	0.252
-519.931	162.564	0.064	-0.089
-518.916	597.450	0.119	0.295
-517.902	-47.168	-0.215	-0.105
-516.887	118.783	-0.140	-0.173
-515.872	51.932	0.118	-0.112
-514.858	80.478	-0.100	-0.108
-513.843	210.255	-0.127	-0.200
-512.829	-67.739	0.107	0.042
-511.814	131.237	-0.134	0.172
-510.799	800.000	0.021	0.074
-509.785	445.201	0.061	-0.134
-508.770	58.721	0.189	0.186
-507.756	547.757	0.086	-0.206
-506.741	-200.000	-0.193	-0.001
-505.726	-140.834	0.225	-0.023
-504.712	533.024	-0.046	0.109
-503.697	-75.274	-0.231	-0.082
-502.683	218.947	-0.119	0.190
-501.668	-200.000	-0.002	0.128
-500.653	315.284	0.156	-0.293
-499.639	-200.000	0.031	0.252
-498.624	-33.181	0.158	-0.087
-497.610	-64.816	-0.396	0.160
-496.595	-38.164	0.132	0.070
-495.581	9.085	0.134	-0.101
-494.566	800.000	0.093	-0.317
-493.551	127.791	-0.084	-0.106
-492.537	2.674	-0.105	0.076
-491.522	-117.789	-0.073	-0.013
-490.508	62.060	-0.024	0.023
-489.493	389.061	-0.045	-0.093
-488.478	120.826	0.072	-0.089
-487.464	122.132	0.096	0.120
-486.449	800.000	0.078	0.224
-485.435	141.780	-0.107	0.142
-484.420	146.662	0.295	-0.396
-483.405	-74.055	-0.091	-0.033
-482.391	-200.000	0.245	-0.001
-481.376	-83.237	-0.123	-0.039
-480.362	-95.178	-0.140	0.038
-479.347	800.000	0.034	-0.126
-478.332	196.052	-0.232	-0.352
-477.318	-31.024	0.091	-0.051
-476.303	52.761	0.144	0.138
-475.289	-88.432	0.196	0.058
-474.274	800.000	0.059	-0.257
-473.259	-200.000	0.087	-0.460
-472.245	800.000	-0.033	-0.112
-471.230	800.000	0.044	0.140
-470.216	-119.514	0.264	0.046
-469.201	198.353	-0.071	-0.108
-468.186	576.173	0.033	-0.079
-467.172	189.851	-0.106	0.159
-466.157	-200.000	-0.003	-0.129
-465.143	415.353	0.086	-0.182
-464.128	800.000	0.149	-0.469
-463.113	92.173	0.164	0.184
-462.099	360.296	-0.201	-0.400
-461.084	622.621	0.016	0.041
-460.070	-200.000	0.059	-0.339
-459.055	-83.994	-0.138	-0.044
-458.040	-177.805	0.213	-0.005
-457.026	-179.338	-0.296	0.007
-456.011	137.112	-0.033	-0.043
-454.997	318.268	-0.222	-0.419
-453.982	-12.595	0.076	-0.049
-452.968	-32.157	-0.156	0.087
-451.953	62.634	0.236	-0.235
-450.938	800.000	-0.025	0.082
-449.924	-200.000	-0.030	0.296
-448.909	32.908	0.090	0.078
-447.895	-10.104	0.259	0.171
-446.880	8.580	0.053	0.040
-445.865	800.000	-0.019	-0.072
-444.851	609.604	-0.079	0.197
-443.836	-55.408	0.151	-0.068
-442.822	-138.534	-0.109	-0.012
-441.807	-113.135	-0.131	0.026
-440.792	-15.998	0.165	-0.105
-439.778	-18.269	-0.135	-0.084
-438.763	224.599	-0.068	-0.109
-437.749	-200.000	0.029	0.455
-436.734	150.371	0.210	0.283
-435.719	41.122	-0.166	0.149
-434.705	31.954	0.095	-0.081
-433.690	-81.659	-0.136	-0.045
-432.676	-65.850	-0.180	0.071
-431.661	-122.423	-0.263	0.043
-430.646	-166.407	-0.167	-0.007
-429.632	800.000	-0.039	0.156
-428.617	-70.910	0.287	-0.108
-427.603	-200.000	0.001	0.023
-426.588	122.030	0.263	-0.326
-425.573	-75.045	0.081	0.029
-424.559	4.757	0.318	-0.232
-423.544	182.517	0.156	0.228
-422.530	572.104	0.143	0.347
-421.515	-108.287	0.149	0.032
-420.500	800.000	0.113	0.328
-419.486	-200.000	-0.014	0.082
-418.471	-128.247	-0.303	0.043
-417.457	-128.324	0.155	-0.022
-416.442	565.726	-0.070	0.169
-415.428	-66.929	0.203	-0.080
-414.413	96.401	-0.157	0.179
-413.398	-42.071	-0.329	-0.167
-412.384	800.000	-0.097	0.391
-411.369	103.433	0.166	0.193
-410.355	-21.595	0.047	-0.028
-409.340	-200.000	0.000	-0.011
-408.325	800.000	0.037	0.111
-407.311	-73.946	-0.209	0.076
-406.296	-16.833	-0.239	0.150
-405.282	608.908	0.038	0.094
-404.267	68.647	-0.176	-0.179
-403.252	-27.324	-0.291	0.169
-402.238	85.957	0.188	-0.206
-401.223	289.363	0.145	-0.262
-400.209	62.344	0.139	-0.138
-399.194	-200.000	0.019	0.154
-398.179	-34.180	0.161	0.088
-397.165	-17.002	-0.321	-0.202
-396.150	274.030	0.059	0.103
-395.136	172.700	0.047	-0.067
-394.121	26.264	0.062	-0.052
-393.106	203.569	-0.051	0.079
-392.092	-82.539	-0.346	-0.111
-391.077	257.921	0.075	0.129
-390.063	-200.000	-0.001	-0.095
-389.048	20.379	-0.311	0.250
-388.033	-52.145	0.131	-0.061
-387.019	-2.568	0.184	-0.128
-386.004	-95.901	-0.258	0.068
-384.990	33.391	-0.188	0.162
-383.975	13.280	0.168	-0.129
-382.960	-47.746	-0.093	0.045
-381.946	-145.363	0.321	0.029
-380.931	-49.171	-0.212	0.101
-379.917	67.344	0.210	-0.213
-378.902	-173.358	-0.046	-0.001
-377.888	-200.000	-0.003	-0.304
-376.873	47.040	-0.213	0.197
-375.858	-21.903	-0.206	-0.125
-374.844	-200.000	-0.022	-0.399
-373.829	-41.625	-0.169	0.086
-372.815	507.694	-0.092	0.213
-371.800	-143.373	0.088	-0.008
-370.785	-157.710	-0.217	-0.013
-369.771	-117.114	-0.281	-0.051
-368.756	324.100	-0.101	0.191
-367.742	-109.224	0.329	0.069
-366.727	800.000	-0.054	0.166
-365.712	-155.523	-0.493	0.032
-364.698	-123.124	0.222	-0.035
-363.683	27.659	-0.246	0.205
-362.669	-200.000	0.023	0.362
-361.654	-20.651	0.132	0.080
-360.639	-70.914	0.103	-0.039
-359.625	-13.959	-0.251	0.161
-358.610	102.354	0.179	-0.208
-357.596	0.672	0.093	-0.066
-356.581	-200.000	-0.010	-0.265
-355.566	40.805	-0.134	0.120
-354.552	-50.414	0.324	-0.152
-353.537	-166.302	0.220	0.009
-352.523	-67.477	-0.446	-0.174
-351.508	169.421	-0.227	0.322
-350.493	-200.000	-0.030	0.244
-349.479	-144.755	-0.036	-0.003
-348.464	67.568	-0.262	-0.266
-347.450	800.000	-0.150	-0.414
-346.435	321.962	0.155	-0.293
-345.420	800.000	0.058	-0.163
-344.406	445.042	0.184	-0.401
-343.391	268.969	0.123	-0.215
-342.377	210.577	0.126	-0.197
-341.362	99.479	0.158	0.181
-340.348	272.557	-0.134	0.234
-339.333	425.002	0.148	-0.317
-338.318	362.937	0.079	-0.156
-337.304	-48.956	-0.235	-0.112
-336.289	-200.000	-0.011	0.137
-335.275	707.800	0.103	0.269
-334.260	-132.435	-0.193	-0.025
-333.245	-67.896	0.294	-0.114
-332.231	483.617	0.132	-0.297
-331.216	310.042	0.084	0.155
-330.202	-151.602	-0.135	0.010
-329.187	130.845	0.175	0.223
-328.172	40.913	0.125	-0.112
-327.158	6.167	0.063	-0.046
-326.143	513.851	-0.148	0.342
-325.129	800.000	-0.046	-0.168
-324.114	-58.088	0.132	-0.057
-323.099	44.526	-0.153	-0.140
-322.085	323.379	0.105	0.199
-321.070	98.294	-0.099	0.113
-320.056	-200.000	-0.047	0.241
-319.041	800.000	-0.059	-0.215
-318.026	331.535	0.107	-0.205
-317.012	69.758	-0.151	-0.154
-315.997	-16.844	0.081	0.051
-314.983	3.473	-0.145	0.105
-313.968	-120.609	0.329	-0.055
-312.953	26.671	-0.054	0.044
-311.939	60.982	0.025	0.025
-310.924	-14.996	0.162	-0.103
-309.910	29.335	-0.110	-0.093
-308.895	280.386	0.152	-0.268
-307.880	-200.000	-0.025	-0.241
-306.866	-200.000	0.024	0.195
-305.851	740.478	-0.073	0.195
-304.837	800.000	0.070	0.249
-303.822	800.000	-0.030	0.086
-302.807	800.000	0.084	-0.327
-301.793	800.000	-0.071	-0.201
-300.778	95.586	0.245	0.276
-299.764	-19.846	0.261	-0.160
-298.749	-161.152	-0.109	0.006
-297.735	69.839	0.056	-0.057
-296.720	-41.574	0.204	0.104
-295.705	-137.735	-0.217	-0.024
-294.691	571.780	-0.076	0.183
-293.676	-200.000	-0.031	-0.281
-292.662	-74.603	0.132	0.047
-291.647	-135.376	-0.418	-0.049
-290.632	-35.222	-0.051	-0.027
-289.618	-53.650	-0.196	0.088
-288.603	29.127	0.297	-0.250
-287.589	800.000	-0.112	0.349
-286.574	57.188	0.156	0.151
-285.559	545.696	0.046	-0.109
-284.545	-102.390	0.279	-0.066
-283.530	19.104	0.172	-0.136
-282.516	-127.044	0.161	0.023
-281.501	149.937	-0.175	0.235
-280.486	-164.815	-0.297	0.013
-279.472	179.161	0.031	0.045
-278.457	62.276	-0.064	-0.063
-277.443	368.755	-0.165	0.330
-276.428	-200.000	-0.038	-0.185
-275.413	-200.000	0.044	0.242
-274.399	-118.675	0.295	-0.051
-273.384	-40.100	0.264	0.136
-272.370	-2.267	-0.199	0.138
-271.355	800.000	-0.053	0.169
-270.340	-163.014	0.168	-0.008
-269.326	-146.020	0.211	0.018
-268.311	-96.237	-0.112	0.029
-267.297	632.780	0.082	0.205
-266.282	274.568	-0.010	0.017
-265.267	-200.000	0.025	0.260
-264.253	-200.000	-0.003	0.128
-263.238	145.380	0.120	-0.159
-262.224	249.127	0.286	0.478
-261.209	-21.782	-0.259	0.156
-260.195	800.000	-0.039	-0.151
-259.180	334.570	0.188	-0.359
-258.165	-200.000	-0.006	-0.046
-257.151	47.062	0.297	-0.273
-256.136	471.397	0.083	0.184
-255.122	104.329	0.104	-0.122
-254.107	-54.610	-0.135	-0.060
-253.092	-78.811	0.146	-0.049
-252.078	-41.738	0.313	0.159
-251.063	-152.144	0.202	0.014
-250.049	-159.038	0.114	-0.006
-249.034	-200.000	0.028	-0.212
-248.019	298.031	0.034	0.061
-247.005	-77.825	-0.340	0.116
-245.990	-10.092	0.098	-0.064
-244.976	235.736	-0.185	-0.303
-243.961	100.367	0.173	0.198
-242.946	90.579	-0.064	-0.071
-241.932	-200.000	0.012	0.097
-240.917	-77.741	0.177	0.060
-239.903	161.637	-0.202	-0.279
-238.888	-129.896	-0.266	-0.036
-237.873	-87.992	-0.193	0.057
-236.859	-66.102	-0.062	0.025
-235.844	-137.785	-0.344	-0.038
-234.830	-22.422	0.163	0.098
-233.815	14.204	0.096	0.074
-232.800	-200.000	-0.033	0.367
-231.786	-200.000	0.018	-0.184
-230.771	-73.691	0.435	-0.156
-229.757	6.996	-0.332	-0.244
-228.742	-62.194	0.069	0.028
-227.727	-200.000	0.036	0.165
-226.713	-135.004	0.214	0.025
-225.698	-200.000	-0.025	0.144
-224.684	-99.001	-0.457	-0.114
-223.669	355.634	0.154	0.302
-222.655	333.625	-0.032	0.060
-221.640	-70.415	-0.197	-0.074
-220.625	-86.986	0.223	-0.067
-219.611	85.659	-0.332	-0.360
-218.596	-76.778	-0.360	-0.124
-217.582	157.933	-0.067	0.091
-216.567	24.910	0.224	0.183
-215.552	3.152	0.044	-0.032
-214.538	410.705	0.084	-0.175
-213.523	25.329	-0.165	-0.135
-212.509	-73.900	-0.191	0.068
-211.494	-145.954	0.202	0.018
-210.479	-195.805	0.097	0.001
-209.465	-126.515	0.236	-0.035
-208.450	-154.013	0.138	-0.009
-207.436	-5.689	0.093	-0.063
-206.421	-200.000	0.002	-0.066
-205.406	-147.631	-0.372	0.031
-204.392	49.016	0.235	0.218
-203.377	144.998	-0.079	0.104
-202.363	83.869	-0.132	0.142
-201.348	58.155	0.073	0.070
-200.333	216.132	-0.008	-0.013
-199.319	673.211	0.114	0.293
-198.304	51.883	-0.092	0.086
-197.290	-200.000	-0.042	0.301
-196.275	-86.735	-0.343	-0.104
-195.260	-83.471	-0.265	-0.084
-194.246	-95.170	0.131	0.035
-193.231	-200.000	0.003	0.208
-192.217	250.305	0.097	0.162
-191.202	-151.404	-0.217	-0.016
-190.187	103.993	0.269	-0.312
-189.173	-25.411	-0.080	0.047
-188.158	-200.000	0.081	0.355
-187.144	-63.567	0.170	-0.069
-186.129	-15.771	0.087	-0.055
-185.114	-51.540	-0.360	0.166
-184.100	-1.697	0.371	0.258
-183.085	-200.000	-0.012	0.140
-182.071	-69.126	-0.098	-0.037
-181.056	-200.000	-0.041	0.444
-180.042	-200.000	-0.013	-0.284
-179.027	-71.122	-0.105	-0.039
-178.012	-131.934	-0.132	0.017
-176.998	-115.808	-0.068	0.013
-175.983	-38.857	0.151	-0.079
-174.969	378.766	0.076	-0.153
-173.954	-200.000	0.034	-0.155
-172.939	-35.954	-0.102	0.054
-171.925	6.234	0.324	-0.237
-170.910	-125.417	-0.181	0.027
-169.896	69.067	-0.278	0.282
-168.881	-143.046	-0.098	0.009
-167.866	-200.000	-0.001	0.100
-166.852	-133.944	0.335	-0.041
-165.837	0.774	-0.205	-0.144
-164.823	269.965	0.107	0.185
-163.808	-200.000	-0.035	-0.424
-162.793	21.217	-0.129	0.103
-161.779	430.374	-0.118	0.252
-160.764	-101.581	-0.265	0.063
-159.750	163.733	0.192	-0.265
-158.735	-36.837	0.143	-0.076
-157.720	22.053	0.054	-0.044
-156.706	800.000	-0.152	0.455
-155.691	334.294	0.076	-0.146
-154.677	-155.948	0.329	0.021
-153.662	800.000	-0.058	0.243
-152.647	800.000	0.060	-0.176
-151.633	52.311	0.201	0.189
-150.618	-200.000	0.021	-0.121
-149.604	-200.000	-0.025	0.163
-148.589	9.911	0.399	-0.298
-147.574	-200.000	-0.013	-0.057
-146.560	-56.501	-0.094	-0.041
-145.545	362.476	0.128	0.252
-144.531	3.012	0.208	0.149
-143.516	-49.840	0.153	-0.072
-142.502	-200.000	-0.006	-0.070
-141.487	34.528	-0.224	-0.192
-140.472	35.488	0.095	0.082
-139.458	-136.858	0.371	0.042
-138.443	-122.382	0.169	0.027
-137.429	-53.315	-0.217	0.098
-136.414	506.867	-0.090	-0.204
-135.399	-54.673	-0.162	-0.072
-134.385	-4.179	0.091	-0.062
-133.370	-75.273	-0.157	0.055
-132.356	-130.637	0.303	0.040
-131.341	-200.000	-0.012	-0.138
-130.326	-157.803	-0.213	0.012
-129.312	800.000	0.047	-0.182
-128.297	73.339	0.228	0.235
-127.283	-200.000	0.062	-0.390
-126.268	707.007	-0.072	0.186
-125.253	-99.017	-0.362	-0.090
-124.239	-200.000	-0.005	-0.079
-123.224	-200.000	0.008	-0.093
-122.210	-26.575	0.072	0.041
-121.195	-83.678	0.238	-0.075
-120.180	-38.317	0.543	-0.283
-119.166	85.887	0.087	-0.094
-118.151	-200.000	0.059	-0.275
-117.137	-200.000	0.013	0.136
-116.122	-200.000	-0.053	0.264
-115.107	197.301	-0.098	0.146
-114.093	11.510	-0.159	0.120
-113.078	-200.000	0.021	-0.222
-112.064	-200.000	0.060	-0.294
-111.049	261.705	0.129	0.220
-110.034	292.695	-0.107	0.191
-109.020	-73.490	0.310	-0.111
-108.005	800.000	0.094	-0.375
-106.991	-119.492	-0.147	0.025
-105.976	309.856	0.071	0.131
-104.962	-85.695	0.396	0.121
-103.947	-179.003	0.489	0.011
-102.932	-120.093	-0.392	-0.066
-101.918	-120.179	0.104	-0.018
-100.903	-189.353	-0.159	-0.002
-99.889	-87.747	0.285	0.085
-98.874	396.719	0.064	-0.131
-97.859	30.294	0.191	-0.160
-96.845	10.877	-0.027	0.020
-95.830	-64.460	0.326	0.130
-94.816	-141.968	-0.394	-0.039
-93.801	-103.850	-0.169	0.039
-92.786	18.942	0.334	0.263
-91.772	252.348	0.155	-0.259
-90.757	-7.399	0.225	-0.150
-89.743	198.742	0.132	0.198
-88.728	148.472	-0.234	-0.311
-87.713	285.563	0.067	-0.118
-86.699	344.701	-0.100	0.193
-85.684	27.694	0.030	-0.025
-84.670	800.000	-0.034	-0.125
-83.655	10.116	0.072	0.054
-82.640	180.160	0.205	0.294
-81.626	514.027	-0.086	0.196
-80.611	-200.000	-0.041	0.204
-79.597	13.736	0.230	0.175
-78.582	338.553	0.069	-0.132
-77.567	166.607	0.096	0.134
-76.553	23.900	0.200	0.161
-75.538	-89.995	0.396	-0.113
-74.524	800.000	-0.105	0.315
-73.509	-68.122	0.087	0.033
-72.494	52.659	-0.242	-0.227
-71.480	-27.077	0.232	-0.133
-70.465	21.850	-0.184	0.147
-69.451	-9.835	0.185	0.121
-68.436	-40.721	0.216	-0.110
-67.422	143.455	0.079	-0.103
-66.407	17.462	-0.198	-0.155
-65.392	87.455	0.190	-0.206
-64.378	91.530	-0.315	0.347
-63.363	-200.000	-0.020	0.117
-62.349	-26.458	0.043	0.025
-61.334	73.044	-0.828	-0.849
-60.319	800.000	0.222	0.799
-59.305	-200.000	-0.239	-1.170
-58.290	134.727	0.817	1.040
-57.276	530.093	0.617	1.428
-56.261	-200.000	109.449	595.799
-55.246	445.210	1488.521	3205.274
-54.232	145.668	2677.081	3517.180
-53.217	99.635	2286.690	2595.282
-52.203	38.445	1897.658	1658.257
-51.188	32.637	1686.697	1429.944
-50.173	30.025	1643.027	1373.527
-49.159	49.440	1697.975	1566.346
-48.144	49.585	1713.259	1581.472
-47.130	32.113	1670.849	1412.344
-46.115	29.567	1655.692	1380.473
-45.100	29.432	1650.621	1375.179
-44.086	29.304	1648.286	1372.231
-43.071	29.224	1645.687	1369.416
-42.057	29.238	1643.214	1367.409
-41.042	29.359	1641.026	1366.430
-40.027	29.326	1638.764	1364.248
-39.013	29.335	1636.913	1362.716
-37.998	29.256	1635.935	1361.271
-36.984	29.369	1634.094	1360.513
-35.969	29.390	1633.151	1359.828
-34.954	29.415	1631.534	1358.614
-33.940	29.332	1629.652	1356.387
-32.925	29.441	1627.912	1355.680
-31.911	29.525	1625.846	1354.528
-30.896	29.473	1624.322	1352.824
-29.881	29.495	1622.855	1351.707
-28.867	29.396	1621.347	1349.668
-27.852	29.426	1620.013	1348.724
-26.838	29.470	1618.305	1347.576
-25.823	29.453	1617.337	1346.589
-24.809	29.433	1615.532	1344.885
-23.794	29.443	1614.292	1343.872
-22.779	29.459	1612.947	1342.821
-21.765	29.448	1610.851	1340.942
-20.750	29.399	1609.221	1339.175
-19.736	29.515	1608.050	1338.988
-18.721	29.488	1606.403	1337.369
-17.706	29.465	1605.207	1336.153
-16.692	29.507	1603.429	1334.926
-15.677	29.401	1602.093	1332.988
-14.663	29.525	1601.005	1332.928
-13.648	29.490	1599.628	1331.479
-12.633	29.471	1597.866	1329.824
-11.619	29.510	1596.018	1328.511
-10.604	29.462	1595.247	1327.473
-9.590	29.488	1594.040	1326.597
-8.575	29.455	1592.359	1324.909
-7.560	29.477	1591.490	1324.294
-6.546	29.423	1590.257	1322.830
-5.531	29.471	1588.891	1321.985
-4.517	29.412	1588.296	1321.016
-3.502	29.477	1586.975	1320.328
-2.487	29.546	1584.576	1318.775
-1.473	29.284	1572.552	1306.852
-0.458	26.562	1554.216	1272.463
0.556	21.385	1555.904	1242.484
1.571	19.190	1579.392	1245.283
2.586	18.785	1592.860	1252.833
3.600	17.260	1539.662	1200.124
4.615	9.636	1429.722	1064.159
5.629	1.725	1365.979	966.559
6.644	0.245	1357.312	951.000
7.659	0.062	1356.516	949.205
8.673	0.077	1355.353	948.400
9.688	0.037	1352.849	946.315
10.702	-0.107	1350.627	943.773
11.717	3.574	1356.016	970.638
12.731	12.116	1369.322	1034.139
13.746	17.269	1376.366	1071.949
14.761	17.372	1374.632	1071.151
15.775	16.174	1372.573	1061.916
16.790	15.076	1370.056	1052.969
17.804	14.532	1366.733	1046.910
18.819	14.132	1365.601	1043.438
19.834	13.804	1364.472	1040.430
20.848	13.630	1363.088	1038.192
21.863	13.200	1362.087	1034.649
22.877	13.229	1360.309	1033.385
23.892	13.118	1359.731	1032.164
24.907	13.086	1359.300	1031.541
25.921	13.217	1358.100	1031.361
26.936	13.170	1357.583	1030.581
27.950	13.235	1356.440	1030.025
28.965	13.277	1355.508	1029.492
29.980	13.285	1354.559	1028.727
30.994	13.381	1353.423	1028.369
32.009	13.467	1352.207	1027.888
33.023	13.418	1351.256	1026.770
34.038	13.350	1350.398	1025.610
35.053	13.390	1349.136	1024.808
36.067	13.319	1348.214	1023.579
37.082	13.310	1348.001	1023.270
38.096	13.306	1346.649	1022.124
39.111	13.368	1345.899	1021.849
40.126	13.205	1345.205	1020.226
41.140	13.153	1344.361	1019.176
42.155	13.115	1343.390	1018.114
43.169	13.082	1343.581	1017.969
44.184	13.160	1343.089	1017.982
45.199	13.130	1342.594	1017.335
46.213	13.150	1341.958	1016.886
47.228	13.255	1341.230	1016.887
48.242	13.195	1340.080	1015.561
49.257	13.181	1338.628	1014.283
50.271	13.199	1337.006	1013.072
51.286	13.203	1336.041	1012.279
52.301	13.283	1334.354	1011.399
53.315	13.197	1333.779	1010.349
54.330	13.257	1332.482	1009.640
55.344	13.115	1331.342	1007.824
56.359	13.108	1330.289	1006.895
57.374	13.111	1329.489	1006.218
58.388	13.069	1328.716	1005.290
59.403	12.980	1328.531	1004.518
60.417	13.069	1327.342	1004.073
61.432	13.007	1326.885	1003.258
62.447	13.015	1325.648	1002.283
63.461	12.880	1324.653	1000.621
64.476	12.951	1323.187	999.855
65.490	13.041	1321.773	999.245
66.505	12.991	1320.696	998.039
67.520	13.062	1319.466	997.450
68.534	13.043	1318.440	996.471
69.549	13.110	1317.227	995.874
70.563	13.095	1316.085	994.833
71.578	12.969	1315.486	993.532
72.593	12.909	1314.625	992.433
73.607	12.934	1313.605	991.724
74.622	12.871	1313.214	990.961
75.636	12.960	1312.236	990.673
76.651	12.892	1311.716	989.786
77.666	13.060	1310.703	989.942
78.680	13.001	1310.415	989.279
79.695	13.088	1309.146	988.757
80.709	13.062	1308.412	987.958
81.724	13.139	1307.528	987.664
82.739	13.099	1307.214	987.101
83.753	13.232	1305.579	986.573
84.768	13.313	1304.483	986.138
85.782	13.295	1303.675	985.337
86.797	13.324	1302.016	984.166
87.812	13.178	1300.950	982.405
88.826	13.199	1300.033	981.751
89.841	13.140	1299.342	980.794
90.855	13.322	1297.891	980.686
91.870	13.291	1297.256	979.938
92.884	13.258	1296.561	979.130
93.899	13.336	1295.624	978.797
94.914	13.200	1295.787	978.029
95.928	13.333	1294.368	977.660
96.943	13.391	1293.211	977.041
97.957	13.413	1291.889	976.086
98.972	13.322	1291.267	974.990
99.987	13.328	1289.990	973.977
101.001	13.195	1289.246	972.547
102.016	13.260	1288.099	971.975
103.030	13.382	1287.065	971.830
104.045	13.311	1286.283	970.736
105.060	13.391	1284.451	969.738
106.074	13.238	1283.222	967.824
107.089	13.207	1282.079	966.700
108.103	13.052	1281.160	965.015
109.118	13.139	1279.850	964.450
110.133	13.085	1278.612	963.114
111.147	13.062	1277.665	962.182
112.162	13.215	1276.160	961.857
113.176	13.115	1275.333	960.564
114.191	13.183	1273.816	959.732
115.206	13.131	1273.263	958.929
116.220	13.118	1271.747	957.629
117.235	13.248	1270.568	957.404
118.249	13.271	1269.217	956.435
119.264	13.216	1268.175	955.249
120.279	13.111	1267.400	953.974
121.293	13.132	1265.987	952.948
122.308	13.213	1264.856	952.478
123.322	13.113	1264.153	951.291
124.337	13.074	1262.943	950.068
125.352	13.094	1261.951	949.354
126.366	13.064	1261.200	948.533
127.381	13.124	1259.842	947.772
128.395	13.176	1258.723	947.143
129.410	12.995	1258.133	945.580
130.424	13.149	1257.116	945.612
131.439	13.134	1256.138	944.709
132.454	13.230	1254.874	944.223
133.468	13.195	1254.413	943.591
134.483	13.267	1253.453	943.197
135.497	13.229	1252.683	942.318
136.512	13.278	1251.195	941.395
137.527	13.343	1249.519	940.422
138.541	13.240	1248.390	938.904
139.556	13.253	1247.142	937.953
140.570	13.266	1246.228	937.260
141.585	13.396	1245.233	937.165
142.600	13.451	1243.228	935.879
143.614	13.379	1242.915	935.158
144.629	13.393	1242.207	934.619
145.643	13.364	1240.938	933.418
146.658	13.356	1239.055	931.874
147.673	13.271	1238.013	930.532
148.687	13.405	1236.947	930.402
149.702	13.244	1235.899	928.627
150.716	13.170	1234.865	927.349
151.731	13.312	1233.194	926.812
152.746	13.354	1231.591	925.761
153.760	13.410	1230.661	925.288
154.775	13.314	1230.136	924.279
155.789	13.418	1228.740	923.726
156.804	13.407	1228.012	923.039
157.819	13.459	1226.849	922.369
158.833	13.613	1225.473	922.112
159.848	13.608	1224.733	921.446
160.862	13.510	1224.075	920.326
161.877	13.456	1222.885	919.048
162.892	13.343	1222.057	917.721
163.906	13.288	1221.354	916.806
164.921	13.337	1220.566	916.403
165.935	13.436	1219.478	916.051
166.950	13.442	1218.813	915.506
167.964	13.456	1218.125	914.987
168.979	13.617	1216.718	914.738
169.994	13.470	1216.526	913.700
171.008	13.435	1215.617	912.746
172.023	13.563	1214.926	912.847
173.037	13.556	1214.313	912.270
174.052	13.686	1212.889	911.833
175.067	13.600	1211.844	910.492
176.081	13.609	1211.007	909.833
177.096	13.530	1210.328	908.811
178.110	13.464	1209.614	907.833
179.125	13.544	1208.006	906.982
180.140	13.660	1206.785	906.623
181.154	13.666	1205.632	905.705
182.169	13.607	1204.786	904.668
183.183	13.599	1203.315	903.444
184.198	13.670	1202.265	902.959
185.213	13.804	1200.821	902.524
186.227	13.667	1200.003	901.082
187.242	13.860	1198.548	900.962
188.256	13.846	1197.673	900.144
189.271	13.893	1196.624	899.532
190.286	13.747	1195.767	898.022
191.300	13.688	1194.678	896.802
192.315	13.602	1194.309	895.980
193.329	13.560	1193.739	895.245
194.344	13.587	1192.976	894.742
195.359	13.721	1192.197	894.800
196.373	13.779	1191.946	894.847
197.388	13.790	1191.129	894.211
198.402	13.893	1190.857	894.484
199.417	13.962	1189.975	894.114
200.432	13.996	1189.292	893.706
201.446	13.942	1188.699	892.893
202.461	14.115	1187.047	892.498
203.475	14.142	1186.016	891.788
204.490	14.007	1185.046	890.257
205.504	14.038	1183.671	889.314
206.519	14.064	1182.301	888.344
207.534	13.816	1181.713	886.497
208.548	13.946	1180.410	886.139
209.563	13.953	1179.718	885.577
210.577	14.024	1178.845	885.221
211.592	14.092	1177.711	884.652
212.607	14.147	1177.255	884.524
213.621	14.139	1176.483	883.821
214.636	14.133	1175.603	883.052
215.650	14.116	1174.672	882.183
216.665	14.190	1173.407	881.549
217.680	14.228	1172.318	880.852
218.694	14.165	1171.831	880.074
219.709	14.217	1171.355	879.915
220.723	14.214	1170.445	879.140
221.738	14.270	1169.441	878.600
222.753	14.257	1168.678	877.883
223.767	14.270	1168.271	877.569
224.782	14.253	1168.109	877.278
225.796	14.349	1167.300	877.097
226.811	14.298	1166.181	875.909
227.826	14.378	1165.288	875.582
228.840	14.315	1165.008	874.967
229.855	14.349	1164.168	874.434
230.869	14.320	1163.644	873.809
231.884	14.287	1162.204	872.482
232.899	14.343	1161.646	872.280
233.913	14.291	1161.307	871.673
234.928	14.338	1160.220	871.027
235.942	14.328	1159.667	870.484
236.957	14.326	1158.734	869.692
237.972	14.343	1158.079	869.215
238.986	14.216	1157.844	868.301
240.001	14.373	1156.522	868.050
241.015	14.322	1155.939	867.268
242.030	14.421	1155.098	867.074
243.045	14.381	1154.573	866.397
244.059	14.469	1153.397	865.897
245.074	14.416	1152.780	865.082
246.088	14.467	1152.172	864.813
247.103	14.547	1151.006	864.275
248.117	14.559	1150.506	863.886
249.132	14.633	1149.568	863.486
250.147	14.684	1149.077	863.304
251.161	14.765	1148.452	863.181
252.176	14.745	1147.875	862.564
253.190	14.767	1147.106	862.024
254.205	14.885	1146.359	861.995
255.220	14.938	1145.798	861.768
256.234	14.973	1145.281	861.487
257.249	14.940	1144.371	860.554
258.263	14.855	1143.913	859.697
259.278	14.990	1143.145	859.736
260.293	14.968	1142.734	859.240
261.307	14.975	1142.235	858.822
262.322	14.917	1141.195	857.667
263.336	14.837	1141.180	857.174
264.351	15.064	1140.321	857.612
265.366	14.939	1139.451	856.240
266.380	14.964	1139.163	856.080
267.395	15.027	1137.661	855.196
268.409	15.141	1136.667	854.957
269.424	14.973	1136.516	853.906
270.439	14.987	1136.002	853.520
271.453	14.975	1135.721	853.172
272.468	14.942	1134.459	851.980
273.482	14.988	1133.623	851.508
274.497	15.030	1133.076	851.237
275.512	15.034	1132.448	850.712
276.526	15.135	1131.429	850.385
277.541	15.207	1130.642	850.081
278.555	15.093	1130.451	849.286
279.570	15.178	1129.552	848.966
280.585	15.245	1128.441	848.394
281.599	15.197	1127.640	847.472
282.614	15.208	1127.005	846.976
283.628	15.233	1125.576	845.952
284.643	15.183	1124.836	845.071
285.657	15.290	1123.848	844.794
286.672	15.156	1123.251	843.597
287.687	15.244	1122.446	843.357
288.701	15.198	1121.984	842.707
289.716	15.291	1120.899	842.284
290.730	15.301	1120.541	841.987
291.745	15.323	1119.588	841.307
292.760	15.440	1118.889	841.297
293.774	15.315	1118.499	840.301
294.789	15.513	1117.721	840.635
295.803	15.478	1116.993	839.836
296.818	15.388	1116.641	839.046
297.833	15.476	1115.483	838.545
298.847	15.455	1114.574	837.683
299.862	15.441	1113.673	836.859
300.876	15.523	1113.049	836.724
301.891	15.496	1112.418	836.043
302.906	15.486	1111.762	835.424
303.920	15.502	1111.362	835.132
304.935	15.677	1110.771	835.482
305.949	15.728	1109.868	834.984
306.964	15.663	1109.438	834.265
307.979	15.534	1108.712	833.004
308.993	15.637	1107.754	832.719
310.008	15.697	1107.262	832.572
311.022	15.753	1106.503	832.207
312.037	15.649	1105.315	830.723
313.052	15.672	1104.444	830.111
314.066	15.565	1103.681	828.934
315.081	15.569	1102.929	828.317
316.095	15.641	1101.688	827.665
317.110	15.501	1101.644	826.873
318.125	15.622	1100.851	826.801
319.139	15.578	1099.812	825.731
320.154	15.670	1099.109	825.579
321.168	15.708	1098.642	825.341
322.183	15.724	1097.948	824.827
323.197	15.719	1097.361	824.287
324.212	15.729	1096.867	823.892
325.227	15.849	1096.003	823.758
326.241	15.721	1095.750	822.868
327.256	15.731	1095.242	822.462
328.270	15.791	1093.847	821.634
329.285	15.684	1093.019	820.418
330.300	15.688	1092.285	819.815
331.314	15.775	1090.885	819.115
332.329	15.739	1090.092	818.273
333.343	15.864	1089.194	818.132
334.358	15.850	1088.312	817.330
335.373	15.962	1088.138	817.670
336.387	15.890	1087.341	816.653
337.402	15.983	1086.380	816.308
338.416	15.885	1085.877	815.385
339.431	15.961	1085.123	815.110
340.446	16.151	1084.209	815.271
341.460	16.075	1083.720	814.467
342.475	16.168	1083.171	814.430
343.489	16.077	1082.222	813.207
344.504	16.207	1080.996	812.838
345.519	16.279	1080.122	812.454
346.533	16.260	1079.512	811.833
347.548	16.339	1078.496	811.380
348.562	16.174	1078.222	810.307
349.577	16.190	1077.425	809.713
350.592	16.128	1076.686	808.786
351.606	16.119	1075.878	808.065
352.621	16.082	1074.989	807.152
353.635	16.106	1074.933	807.154
354.650	16.199	1073.977	806.809
355.665	16.244	1073.113	806.302
356.679	16.289	1072.755	806.176
357.694	16.247	1072.244	805.519
358.708	16.222	1071.375	804.677
359.723	16.285	1071.052	804.665
360.738	16.271	1070.451	804.073
361.752	16.324	1069.812	803.775
362.767	16.357	1069.100	803.328
363.781	16.420	1068.322	802.968
364.796	16.345	1067.841	802.179
365.810	16.480	1067.294	802.338
366.825	16.552	1066.945	802.346
367.840	16.495	1066.382	801.585
368.854	16.465	1065.558	800.753
369.869	16.607	1065.211	801.092
370.883	16.447	1064.105	799.431
371.898	16.522	1063.347	799.149
372.913	16.549	1062.868	798.846
373.927	16.541	1062.292	798.302
374.942	16.582	1061.580	797.892
375.956	16.610	1061.010	797.522
376.971	16.589	1060.653	797.085
377.986	16.537	1060.119	796.369
379.000	16.649	1059.702	796.511
380.015	16.713	1058.734	796.013
381.029	16.661	1058.621	795.616
382.044	16.759	1057.319	795.027
383.059	16.771	1056.652	794.510
384.073	16.727	1056.168	793.871
385.088	16.780	1055.442	793.502
386.102	16.823	1054.550	792.965
387.117	16.855	1052.887	791.791
388.132	16.775	1051.726	790.473
389.146	16.740	1051.447	790.034
390.161	16.698	1050.942	789.388
391.175	16.742	1050.355	789.081
392.190	16.817	1049.945	789.052
393.205	16.836	1049.092	788.430
394.219	16.904	1048.107	787.937
395.234	16.976	1047.033	787.395
396.248	16.827	1046.398	786.153
397.263	16.861	1045.049	785.228
398.278	16.801	1044.998	784.844
399.292	16.753	1044.208	783.958
400.307	16.679	1043.452	782.981
401.321	16.762	1042.498	782.580
402.336	16.821	1042.439	782.736
403.350	16.893	1041.268	782.119
404.365	16.945	1040.695	781.861
405.380	17.015	1039.690	781.360
406.394	16.972	1039.246	780.758
407.409	16.917	1038.735	780.055
408.423	17.096	1038.027	780.274
409.438	17.078	1037.240	779.533
410.453	17.133	1036.479	779.143
411.467	17.188	1035.495	778.586
412.482	17.197	1035.337	778.439
413.496	17.285	1033.854	777.658
414.511	17.248	1033.736	777.333
415.526	17.293	1033.363	777.188
416.540	17.350	1032.889	777.021
417.555	17.348	1032.274	776.482
418.569	17.288	1031.816	775.798
419.584	17.437	1031.531	776.192
420.599	17.334	1030.881	775.163
421.613	103.326	1322.802	1469.259
422.628	94.556	1365.306	1469.404
