DTS Sentinel unit serial number:	SN413079Multiplexer serial number:	ORYXHardware model number:	OX4-SRSoftware version number:	ORYX F/W v4.00 Oryx Data Collector v3.7.2.0data status	okinstallation	princeton_trtdifferential loss correction	single-endedforward channel	channel 2reverse channel	N/Adate	2019/09/17time	19:55:35forward acquisition time	60.00reverse acquisition time	0.00gamma	496.2192k internal	0.2328k external	0.2328temperature offset calibration	0.9983default loss term (dB/km)	0.3790temperature slope calibration	1.0000multiplexer offset coefficient	1.0000multiplexer slope coefficient	1.0000fibre end	0.00T internal ref (°C)	33.78T ext. ref 1 (°C)	0.22T ext. ref 2 (°C)	23.11length (m)	temperature (°C)	Stokes	anti-Stokes-747.200	800.000	-0.059	-0.193
-746.185	-15.730	-0.196	-0.126
-745.171	-72.712	-0.117	0.043
-744.156	236.750	0.149	0.248
-743.142	-200.000	-0.020	-0.268
-742.127	-68.369	-0.065	0.025
-741.112	575.786	-0.177	-0.435
-740.098	800.000	0.052	0.177
-739.083	-143.598	0.604	-0.058
-738.069	598.139	-0.107	-0.267
-737.054	-161.748	0.269	0.014
-736.039	127.921	0.044	0.056
-735.025	-91.486	0.197	0.057
-734.010	-200.000	-0.017	-0.139
-732.996	-167.399	-0.162	-0.007
-731.981	-45.684	0.021	0.011
-730.966	-90.977	-0.351	0.102
-729.952	31.197	-0.088	0.076
-728.937	-67.265	-0.207	-0.082
-727.923	490.409	0.159	-0.366
-726.908	323.979	0.054	-0.104
-725.894	660.672	-0.176	0.455
-724.879	87.919	0.049	0.055
-723.864	4.880	-0.161	0.119
-722.850	313.074	-0.189	-0.358
-721.835	-11.033	-0.170	-0.113
-720.821	-200.000	-0.031	0.266
-719.806	-153.381	-0.224	-0.016
-718.791	-200.000	-0.023	-0.236
-717.777	800.000	-0.040	-0.120
-716.762	-164.990	-0.199	-0.009
-715.748	325.657	-0.157	0.302
-714.733	106.948	-0.043	0.052
-713.718	67.428	-0.065	0.066
-712.704	542.282	-0.109	0.261
-711.689	309.973	-0.031	0.058
-710.675	800.000	-0.074	-0.282
-709.660	341.037	0.132	-0.260
-708.645	-200.000	0.013	-0.171
-707.631	-200.000	0.028	0.383
-706.616	800.000	-0.034	0.096
-705.602	-93.287	-0.308	-0.086
-704.587	205.921	-0.145	-0.228
-703.572	603.842	0.063	-0.157
-702.558	800.000	-0.033	0.111
-701.543	0.859	0.173	-0.125
-700.529	-68.915	0.241	0.094
-699.514	-112.365	0.176	0.035
-698.499	-186.247	-0.233	0.003
-697.485	800.000	0.088	-0.277
-696.470	305.649	-0.131	0.244
-695.456	-200.000	0.018	0.128
-694.441	6.506	0.141	0.106
-693.426	-129.426	-0.236	-0.033
-692.412	28.464	-0.090	0.077
-691.397	518.901	0.160	0.377
-690.383	-53.485	0.174	0.080
-689.368	-127.910	0.084	0.012
-688.354	-12.082	0.041	0.027
-687.339	132.281	-0.131	-0.170
-686.324	-83.465	-0.107	-0.034
-685.310	-152.752	-0.148	0.011
-684.295	-81.547	-0.211	0.070
-683.281	-83.772	0.243	0.078
-682.266	112.447	-0.217	-0.264
-681.251	-200.000	-0.071	-0.346
-680.237	800.000	0.077	-0.304
-679.222	-200.000	-0.043	0.211
-678.208	75.748	-0.290	0.308
-677.193	800.000	0.075	-0.220
-676.178	440.008	0.130	-0.285
-675.164	188.365	-0.144	-0.216
-674.149	-125.007	-0.156	-0.024
-673.135	-24.589	-0.189	-0.113
-672.120	-200.000	-0.052	0.235
-671.105	13.637	0.024	-0.018
-670.091	605.973	0.112	0.279
-669.076	187.554	-0.120	-0.179
-668.062	116.004	0.148	-0.182
-667.047	-59.297	-0.110	0.048
-666.032	-200.000	-0.050	-0.406
-665.018	800.000	0.005	-0.015
-664.003	95.585	-0.019	-0.021
-662.989	800.000	0.068	0.229
-661.974	690.581	0.059	-0.156
-660.959	-21.944	0.032	-0.019
-659.945	-25.710	-0.116	-0.069
-658.930	288.778	0.018	0.032
-657.916	-109.271	-0.095	-0.020
-656.901	-200.000	-0.040	-0.204
-655.886	123.164	0.228	0.286
-654.872	390.477	-0.153	0.319
-653.857	-153.828	-0.229	-0.016
-652.843	98.857	0.273	0.316
-651.828	800.000	-0.050	0.215
-650.814	800.000	-0.108	0.309
-649.799	240.939	0.174	0.292
-648.784	315.948	-0.146	-0.277
-647.770	-56.957	0.258	0.114
-646.755	291.147	0.105	0.192
-645.741	800.000	-0.109	0.305
-644.726	336.862	0.114	0.222
-643.711	-186.851	0.181	-0.003
-642.697	421.574	-0.057	0.122
-641.682	-133.326	0.255	0.032
-640.668	-16.330	0.304	-0.194
-639.653	-153.654	-0.026	-0.002
-638.638	-147.771	0.193	0.016
-637.624	-200.000	-0.017	0.319
-636.609	-183.288	0.212	0.004
-635.595	-102.644	0.340	0.081
-634.580	-9.894	-0.158	0.105
-633.565	170.412	-0.108	0.155
-632.551	5.887	0.330	-0.245
-631.536	-82.757	0.114	0.037
-630.522	800.000	-0.114	-0.371
-629.507	-7.443	0.211	0.143
-628.492	122.931	-0.067	-0.084
-627.478	-200.000	0.001	0.117
-626.463	-117.203	-0.074	-0.013
-625.449	-91.421	-0.335	-0.096
-624.434	42.019	0.229	0.209
-623.419	-104.461	-0.269	0.062
-622.405	606.623	-0.066	0.166
-621.390	-200.000	-0.011	-0.301
-620.376	-200.000	-0.038	-0.272
-619.361	-105.501	0.074	0.017
-618.346	-200.000	0.056	0.283
-617.332	-86.648	0.220	0.068
-616.317	-144.235	-0.084	-0.008
-615.303	206.545	0.188	-0.293
-614.288	175.535	-0.129	0.187
-613.273	107.385	-0.082	-0.098
-612.259	-142.271	-0.257	-0.026
-611.244	800.000	0.110	-0.375
-610.230	266.906	0.093	-0.164
-609.215	-77.241	0.073	-0.026
-608.201	-200.000	-0.032	-0.358
-607.186	54.444	-0.283	-0.274
-606.171	800.000	-0.032	-0.108
-605.157	497.601	0.074	-0.170
-604.142	420.680	-0.102	-0.219
-603.128	-200.000	-0.000	0.297
-602.113	-72.715	0.160	0.059
-601.098	-93.455	0.377	-0.105
-600.084	-47.478	-0.206	0.101
-599.069	-72.113	0.132	0.049
-598.055	1.794	0.263	-0.190
-597.040	172.782	-0.072	0.104
-596.025	185.000	-0.223	0.331
-595.011	-77.179	0.114	-0.040
-593.996	57.741	-0.061	-0.060
-592.982	110.106	-0.187	-0.225
-591.967	256.719	0.186	-0.320
-590.952	-200.000	-0.001	0.109
-589.938	87.650	-0.186	0.206
-588.923	38.425	0.182	0.162
-587.909	-77.922	0.226	0.078
-586.894	800.000	-0.042	-0.153
-585.879	-200.000	0.036	0.423
-584.865	-140.603	0.072	-0.007
-583.850	800.000	0.081	-0.291
-582.836	-104.080	-0.223	-0.052
-581.821	29.383	0.106	-0.091
-580.806	570.949	-0.035	-0.085
-579.792	800.000	0.078	-0.316
-578.777	96.324	0.112	-0.129
-577.763	800.000	-0.031	-0.099
-576.748	-200.000	-0.011	-0.170
-575.733	-82.799	0.321	0.104
-574.719	309.220	-0.087	-0.162
-573.704	-200.000	0.012	-0.353
-572.690	-45.163	-0.435	-0.216
-571.675	6.382	0.206	0.153
-570.661	-118.549	-0.541	0.096
-569.646	-200.000	-0.076	0.332
-568.631	129.053	-0.114	-0.145
-567.617	800.000	0.097	-0.361
-566.602	-24.488	-0.095	0.057
-565.588	-200.000	-0.003	0.026
-564.573	21.152	-0.157	-0.128
-563.558	-168.075	0.176	0.007
-562.544	-200.000	-0.047	0.350
-561.529	-200.000	-0.000	0.265
-560.515	800.000	-0.062	0.207
-559.500	100.796	-0.124	0.144
-558.485	-7.302	0.245	-0.166
-557.471	-200.000	0.027	0.261
-556.456	-82.745	0.258	-0.084
-555.442	142.959	0.304	-0.405
-554.427	49.127	-0.093	-0.087
-553.412	-200.000	0.014	-0.104
-552.398	-5.426	-0.164	0.113
-551.383	10.724	-0.073	0.056
-550.369	-200.000	-0.006	0.129
-549.354	88.929	-0.177	0.197
-548.339	-53.349	0.177	0.081
-547.325	-21.038	-0.169	-0.103
-546.310	13.996	-0.174	-0.135
-545.296	-200.000	0.023	-0.168
-544.281	-200.000	-0.035	0.247
-543.266	-200.000	-0.004	0.095
-542.252	179.354	0.141	0.206
-541.237	-116.153	0.209	-0.039
-540.223	39.253	-0.156	-0.140
-539.208	-200.000	0.039	-0.232
-538.193	-81.962	-0.163	-0.053
-537.179	-56.773	0.201	-0.089
-536.164	229.581	-0.130	-0.212
-535.150	400.982	0.058	-0.122
-534.135	325.063	-0.024	-0.046
-533.121	800.000	-0.122	-0.349
-532.106	-168.959	0.234	-0.009
-531.091	52.194	-0.189	0.180
-530.077	504.919	0.087	0.202
-529.062	-175.703	0.050	0.001
-528.048	-200.000	0.016	0.158
-527.033	800.000	-0.027	-0.110
-526.018	-168.327	0.162	-0.006
-525.004	205.438	-0.110	0.171
-523.989	454.423	-0.129	-0.284
-522.975	349.750	-0.143	-0.283
-521.960	-130.070	0.384	0.052
-520.945	-123.701	0.237	0.037
-519.931	-155.543	0.454	-0.029
-518.916	800.000	-0.077	-0.323
-517.902	-147.555	-0.076	-0.006
-516.887	-69.997	0.064	-0.024
-515.872	23.304	0.278	-0.228
-514.858	52.247	-0.166	-0.158
-513.843	1.091	0.095	0.068
-512.829	-185.460	-0.155	-0.002
-511.814	-6.959	0.154	0.104
-510.799	800.000	0.074	-0.210
-509.785	26.404	0.106	0.089
-508.770	37.318	0.378	0.335
-507.756	-200.000	-0.058	-0.356
-506.741	-110.022	0.099	-0.021
-505.726	80.027	-0.080	-0.086
-504.712	381.244	-0.059	0.121
-503.697	-200.000	0.003	-0.185
-502.683	-15.989	-0.069	0.044
-501.668	-200.000	0.059	0.435
-500.653	5.320	-0.353	0.260
-499.639	71.326	-0.147	-0.152
-498.624	47.415	0.059	-0.055
-497.610	94.215	0.259	0.293
-496.595	-7.694	-0.116	-0.078
-495.581	410.507	-0.015	0.031
-494.566	-157.306	-0.104	0.006
-493.551	-7.843	-0.109	0.073
-492.537	260.214	-0.084	-0.145
-491.522	-200.000	0.012	0.128
-490.508	-136.847	0.304	-0.035
-489.493	-200.000	0.004	0.172
-488.478	-200.000	0.007	0.065
-487.464	-88.789	0.159	-0.047
-486.449	-169.566	-0.070	0.003
-485.435	87.795	0.248	-0.274
-484.420	-68.904	-0.204	-0.078
-483.405	-175.293	0.194	0.005
-482.391	699.318	0.070	-0.183
-481.376	-59.382	0.099	0.042
-480.362	-200.000	-0.011	-0.059
-479.347	-11.265	0.196	-0.129
-478.332	-200.000	-0.009	0.100
-477.318	-200.000	-0.031	0.169
-476.303	-39.159	-0.239	-0.125
-475.289	-200.000	-0.032	-0.241
-474.274	-9.413	0.441	-0.294
-473.259	216.037	0.039	0.061
-472.245	-86.601	-0.360	0.110
-471.230	-200.000	0.008	0.179
-470.216	25.719	-0.073	-0.061
-469.201	21.102	0.034	-0.028
-468.186	-200.000	-0.004	0.185
-467.172	37.578	-0.127	0.112
-466.157	-123.355	-0.090	0.014
-465.143	153.895	0.213	-0.291
-464.128	4.907	0.182	-0.133
-463.113	-200.000	0.027	-0.189
-462.099	-87.386	0.084	-0.025
-461.084	-140.753	-0.401	0.041
-460.070	-113.390	-0.191	-0.037
-459.055	743.515	-0.055	0.147
-458.040	800.000	0.115	-0.380
-457.026	36.673	-0.169	0.149
-456.011	-200.000	-0.021	0.171
-454.997	144.583	-0.087	0.115
-453.982	-200.000	-0.057	0.395
-452.968	-135.344	0.252	0.030
-451.953	212.188	0.239	-0.376
-450.938	18.210	-0.197	-0.156
-449.924	134.130	0.118	0.152
-448.909	-73.046	0.354	0.129
-447.895	800.000	-0.099	-0.275
-446.880	800.000	0.123	0.390
-445.865	-133.407	-0.129	0.016
-444.851	114.437	-0.096	0.117
-443.836	-200.000	-0.015	0.360
-442.822	7.786	-0.055	-0.041
-441.807	800.000	-0.044	-0.191
-440.792	29.950	0.095	0.080
-439.778	-200.000	-0.032	-0.486
-438.763	12.349	0.253	0.194
-437.749	-200.000	0.032	-0.153
-436.734	89.640	-0.292	-0.324
-435.719	-43.766	-0.357	0.179
-434.705	461.150	-0.028	-0.063
-433.690	518.252	-0.094	-0.218
-432.676	116.751	-0.207	0.253
-431.661	-124.655	-0.123	0.019
-430.646	-200.000	-0.007	-0.046
-429.632	385.790	0.059	0.122
-428.617	-21.975	-0.188	0.114
-427.603	-74.417	-0.287	0.103
-426.588	74.089	0.199	-0.208
-425.573	-200.000	-0.045	-0.242
-424.559	43.705	-0.307	0.280
-423.544	-200.000	-0.012	-0.205
-422.530	142.550	0.054	-0.071
-421.515	714.564	-0.112	-0.294
-420.500	193.730	-0.080	0.120
-419.486	428.768	0.058	0.125
-418.471	3.084	-0.253	0.183
-417.457	39.676	0.067	0.060
-416.442	-200.000	0.003	0.066
-415.428	92.747	-0.173	-0.195
-414.413	136.244	0.088	0.114
-413.398	-59.814	0.122	-0.052
-412.384	597.748	0.103	-0.254
-411.369	-68.685	0.077	-0.030
-410.355	-200.000	0.077	0.496
-409.340	800.000	0.081	0.252
-408.325	-24.696	-0.213	-0.126
-407.311	66.092	0.070	0.071
-406.296	20.942	0.198	-0.159
-405.282	24.027	0.150	-0.123
-404.267	-117.004	0.239	0.043
-403.252	-200.000	0.003	0.205
-402.238	-200.000	0.055	-0.581
-401.223	498.944	-0.018	-0.040
-400.209	95.586	0.243	-0.276
-399.194	-200.000	0.021	0.128
-398.179	-147.334	0.234	0.020
-397.165	93.131	0.129	0.145
-396.150	-132.649	0.147	0.019
-395.136	257.601	0.089	-0.152
-394.121	-34.689	-0.011	-0.006
-393.106	-36.255	0.148	-0.079
-392.092	800.000	0.040	0.158
-391.077	12.989	0.330	0.254
-390.063	103.652	-0.178	0.208
-389.048	-83.982	-0.094	0.030
-388.033	-21.117	0.100	-0.061
-387.019	800.000	-0.059	-0.206
-386.004	800.000	-0.033	-0.117
-384.990	323.195	-0.053	-0.100
-383.975	-200.000	0.027	-0.202
-382.960	-132.105	-0.411	0.053
-381.946	180.199	-0.207	-0.302
-380.931	49.518	0.135	-0.126
-379.917	-200.000	0.002	-0.014
-378.902	375.756	0.144	-0.293
-377.888	-200.000	0.019	0.121
-376.873	-45.381	0.290	0.143
-375.858	267.224	-0.046	0.079
-374.844	30.483	-0.239	-0.203
-373.829	-86.491	-0.093	-0.028
-372.815	-152.049	-0.592	0.043
-371.800	32.913	0.109	-0.094
-370.785	-23.131	-0.106	-0.063
-369.771	27.043	0.108	-0.090
-368.756	49.766	-0.179	-0.168
-367.742	-5.108	-0.217	-0.148
-366.727	-139.837	-0.079	-0.008
-365.712	352.248	0.209	0.412
-364.698	-200.000	-0.079	0.458
-363.683	-145.851	0.017	-0.001
-362.669	-24.542	0.282	0.166
-361.654	800.000	0.136	-0.455
-360.639	615.343	-0.060	-0.149
-359.625	-176.463	-0.433	0.011
-358.610	800.000	0.045	0.163
-357.596	-45.682	-0.293	0.144
-356.581	-191.088	-0.287	-0.003
-355.566	800.000	0.082	0.339
-354.552	-72.558	0.148	-0.054
-353.537	43.955	0.235	0.213
-352.523	-12.856	-0.143	0.093
-351.508	-146.288	-0.179	-0.016
-350.493	-89.228	-0.185	-0.054
-349.479	359.026	-0.154	-0.305
-348.464	-158.189	-0.299	-0.017
-347.450	-200.000	0.020	-0.136
-346.435	800.000	0.047	0.140
-345.420	-77.823	0.249	-0.085
-344.406	-82.616	-0.165	-0.053
-343.391	-67.810	0.207	0.080
-342.377	172.942	-0.063	0.090
-341.362	-184.808	-0.093	0.001
-340.348	30.310	0.132	-0.112
-339.333	49.056	0.137	-0.128
-338.318	-141.039	0.188	-0.019
-337.304	-130.415	0.246	0.033
-336.289	-200.000	0.028	-0.264
-335.275	-127.194	-0.268	0.039
-334.260	-157.623	-0.078	0.005
-333.245	-200.000	0.017	-0.209
-332.231	-52.820	0.197	-0.090
-331.216	341.134	0.182	-0.353
-330.202	63.689	-0.074	0.074
-329.187	-54.383	0.108	-0.048
-328.172	-52.284	-0.211	-0.097
-327.158	466.719	-0.034	-0.075
-326.143	239.608	0.158	-0.261
-325.129	-50.562	0.326	-0.152
-324.114	51.615	0.218	0.206
-323.099	193.432	-0.184	0.276
-322.085	153.659	-0.260	0.354
-321.070	284.944	0.229	0.409
-320.056	-166.702	-0.094	0.004
-319.041	113.738	-0.098	-0.118
-318.026	11.581	0.288	0.219
-317.012	-100.155	0.268	0.066
-315.997	-21.203	-0.194	0.117
-314.983	-34.821	-0.128	-0.069
-313.968	-52.407	0.153	0.070
-312.953	470.459	0.117	0.261
-311.939	-200.000	-0.010	-0.095
-310.924	197.961	-0.103	0.156
-309.910	-200.000	0.015	0.193
-308.895	-51.471	0.480	0.222
-307.880	792.957	0.021	-0.057
-306.866	305.432	-0.104	-0.192
-305.851	167.550	-0.088	-0.123
-304.837	-200.000	0.032	-0.254
-303.822	21.472	-0.266	0.215
-302.807	50.837	-0.278	-0.261
-301.793	103.506	-0.075	-0.087
-300.778	-75.022	0.258	-0.092
-299.764	175.832	-0.248	0.356
-298.749	800.000	-0.091	-0.319
-297.735	-200.000	0.001	-0.083
-296.720	-95.919	-0.226	-0.060
-295.705	800.000	-0.045	-0.155
-294.691	567.400	-0.101	0.243
-293.676	800.000	0.077	0.262
-292.662	280.164	0.072	0.128
-291.647	200.284	0.116	-0.176
-290.632	-133.834	0.125	-0.015
-289.618	105.665	-0.223	0.261
-288.603	800.000	-0.146	0.427
-287.589	123.645	-0.104	-0.129
-286.574	800.000	-0.119	-0.497
-285.559	-200.000	0.014	-0.076
-284.545	-49.002	-0.153	0.073
-283.530	-159.873	0.161	-0.009
-282.516	-200.000	0.022	0.331
-281.501	-200.000	0.052	0.380
-280.486	435.693	0.129	-0.279
-279.472	237.664	0.141	0.232
-278.457	273.180	0.233	0.407
-277.443	-200.000	-0.010	0.302
-276.428	-200.000	0.059	-0.332
-275.413	-90.561	-0.418	0.120
-274.399	-200.000	0.022	0.162
-273.384	-200.000	-0.015	0.082
-272.370	84.296	-0.066	-0.072
-271.355	13.562	0.127	0.098
-270.340	163.261	0.182	-0.253
-269.326	-83.432	-0.180	-0.057
-268.311	-92.631	0.306	0.085
-267.297	-22.219	-0.029	0.017
-266.282	800.000	0.089	0.275
-265.267	-96.815	0.074	0.019
-264.253	800.000	-0.121	-0.370
-263.238	288.426	0.285	-0.510
-262.224	-92.682	-0.268	-0.074
-261.209	-200.000	0.222	0.001
-260.195	363.575	-0.124	0.247
-259.180	-186.944	0.240	0.003
-258.165	213.615	0.113	0.177
-257.151	-117.306	-0.173	-0.031
-256.136	253.119	-0.075	0.126
-255.122	-1.244	0.065	0.046
-254.107	-200.000	-0.003	0.167
-253.092	18.951	0.059	0.047
-252.078	-4.269	-0.137	0.094
-251.063	66.561	-0.252	-0.253
-250.049	-137.794	-0.294	-0.033
-249.034	800.000	0.059	0.245
-248.019	226.159	0.062	-0.100
-247.005	-200.000	-0.037	-0.197
-245.990	800.000	0.041	0.136
-244.976	44.189	0.107	0.097
-243.961	800.000	0.063	0.197
-242.946	40.548	0.273	0.243
-241.932	142.119	-0.154	-0.202
-240.917	194.926	0.014	0.021
-239.903	-29.382	-0.226	0.128
-238.888	800.000	0.011	-0.033
-237.873	-200.000	0.028	-0.276
-236.859	-200.000	-0.011	-0.272
-235.844	-33.712	-0.187	0.102
-234.830	-200.000	0.058	0.454
-233.815	612.938	-0.063	-0.155
-232.800	800.000	0.070	-0.199
-231.786	203.015	0.200	-0.306
-230.771	301.056	0.051	-0.093
-229.757	3.308	0.341	-0.245
-228.742	50.878	-0.236	-0.221
-227.727	800.000	0.008	-0.029
-226.713	-105.050	-0.319	0.072
-225.698	-33.573	-0.279	0.152
-224.684	15.634	-0.159	-0.124
-223.669	-119.357	-0.233	0.040
-222.655	6.371	0.135	-0.099
-221.640	-147.620	-0.334	0.028
-220.625	-60.763	0.152	-0.063
-219.611	-68.164	-0.298	0.114
-218.596	-141.448	-0.256	0.026
-217.582	-51.683	0.293	-0.135
-216.567	-200.000	-0.013	0.066
-215.552	218.837	-0.075	0.119
-214.538	-100.346	-0.313	-0.077
-213.523	-170.589	-0.299	-0.010
-212.509	35.351	0.253	0.219
-211.494	-78.376	-0.267	-0.090
-210.479	382.423	0.227	0.461
-209.465	393.096	0.046	0.094
-208.450	800.000	-0.088	0.293
-207.436	-200.000	0.040	0.231
-206.421	800.000	0.092	0.317
-205.406	15.415	0.244	-0.189
-204.392	-52.903	-0.099	0.045
-203.377	79.949	-0.161	-0.170
-202.363	82.816	0.202	0.216
-201.348	-130.627	-0.261	-0.035
-200.333	74.883	-0.275	0.286
-199.319	-89.604	0.011	0.003
-198.304	-200.000	0.026	0.126
-197.290	317.350	-0.058	0.108
-196.275	127.119	-0.233	0.291
-195.260	-119.097	-0.382	0.066
-194.246	-200.000	-0.033	0.162
-193.231	107.662	-0.055	0.064
-192.217	-91.051	-0.045	-0.013
-191.202	14.206	-0.136	0.104
-190.187	800.000	-0.050	-0.137
-189.173	504.881	-0.052	-0.119
-188.158	414.028	0.028	0.059
-187.144	3.536	-0.243	-0.174
-186.129	17.491	0.060	-0.047
-185.114	800.000	0.056	0.158
-184.100	-5.188	0.281	-0.190
-183.085	186.087	-0.068	-0.100
-182.071	51.351	0.403	0.377
-181.056	-200.000	0.008	0.454
-180.042	-85.855	0.384	-0.117
-179.027	116.945	-0.172	-0.208
-178.012	3.687	0.226	0.162
-176.998	166.619	-0.019	-0.026
-175.983	-124.757	-0.176	0.027
-174.969	-17.477	0.155	-0.096
-173.954	-48.676	0.297	0.141
-172.939	79.032	0.139	0.147
-171.925	297.418	0.156	-0.283
-170.910	-163.292	-0.359	0.017
-169.896	-94.127	-0.158	0.043
-168.881	3.937	-0.165	0.119
-167.866	-168.422	-0.121	-0.005
-166.852	-200.000	0.004	-0.090
-165.837	386.166	-0.104	0.212
-164.823	-44.847	-0.105	-0.052
-163.808	212.677	-0.093	-0.145
-162.793	134.665	0.120	-0.154
-161.779	-47.644	0.113	0.054
-160.764	-200.000	-0.019	0.138
-159.750	-94.938	0.145	-0.039
-158.735	800.000	-0.031	-0.113
-157.720	800.000	-0.085	-0.247
-156.706	-157.958	0.215	-0.012
-155.691	41.201	-0.245	0.218
-154.677	105.430	-0.108	0.126
-153.662	-60.579	0.258	-0.108
-152.647	-118.345	-0.116	-0.020
-151.633	-200.000	-0.003	0.127
-150.618	-72.214	0.187	-0.068
-149.604	-200.000	-0.025	0.120
-148.589	-200.000	-0.004	0.077
-147.574	-72.115	-0.319	0.117
-146.560	130.883	0.250	-0.316
-145.545	137.772	-0.066	-0.084
-144.531	536.503	0.057	0.132
-143.516	-60.565	-0.381	-0.159
-142.502	-64.520	0.134	-0.054
-141.487	-200.000	0.014	-0.132
-140.472	-159.802	0.132	-0.007
-139.458	-200.000	0.280	0.001
-138.443	-200.000	-0.008	-0.130
-137.429	268.875	-0.112	-0.193
-136.414	-200.000	0.050	0.343
-135.399	-200.000	-0.053	-0.335
-134.385	-200.000	-0.013	0.116
-133.370	-200.000	-0.022	0.130
-132.356	60.683	0.072	-0.071
-131.341	228.018	0.063	-0.101
-130.326	-33.731	0.265	0.144
-129.312	391.099	0.093	-0.190
-128.297	127.463	-0.036	0.046
-127.283	59.536	-0.217	0.211
-126.268	-200.000	-0.057	0.280
-125.253	800.000	-0.061	-0.190
-124.239	800.000	0.053	0.193
-123.224	2.961	-0.188	0.134
-122.210	12.699	0.341	-0.259
-121.195	59.650	0.172	0.167
-120.180	-12.656	-0.092	-0.059
-119.166	16.023	0.228	-0.176
-118.151	137.491	-0.091	0.117
-117.137	-200.000	0.069	0.308
-116.122	76.328	0.085	-0.089
-115.107	179.001	0.141	0.202
-114.093	800.000	0.021	0.090
-113.078	-70.603	-0.239	-0.089
-112.064	-151.334	-0.330	-0.024
-111.049	-102.492	-0.250	0.059
-110.034	16.144	-0.066	-0.051
-109.020	9.374	0.181	-0.134
-108.005	111.818	-0.235	0.278
-106.991	38.789	-0.017	-0.015
-105.976	55.880	-0.129	0.123
-104.962	800.000	0.058	0.247
-103.947	-68.322	-0.125	-0.048
-102.932	-200.000	0.002	-0.053
-101.918	-122.871	-0.173	-0.027
-100.903	800.000	-0.062	0.194
-99.889	-43.984	-0.181	0.089
-98.874	154.500	0.057	0.077
-97.859	-79.418	-0.100	0.033
-96.845	2.851	-0.108	-0.077
-95.830	-86.251	0.119	-0.036
-94.816	-122.900	0.198	-0.031
-93.801	13.317	0.112	-0.085
-92.786	-10.962	-0.194	0.126
-91.772	23.276	0.273	-0.220
-90.757	800.000	0.095	0.347
-89.743	51.753	-0.133	-0.124
-88.728	-53.254	0.067	0.030
-87.713	-200.000	-0.033	-0.191
-86.699	231.873	0.080	0.129
-85.684	-97.194	-0.164	-0.042
-84.670	-200.000	-0.023	-0.113
-83.655	-155.689	0.061	-0.004
-82.640	103.296	0.062	-0.071
-81.626	104.378	0.153	0.177
-80.611	102.450	0.103	0.118
-79.597	136.261	-0.202	0.259
-78.582	-91.429	0.198	0.055
-77.567	-200.000	-0.030	0.197
-76.553	106.352	-0.140	0.163
-75.538	-46.575	0.263	-0.127
-74.524	-200.000	0.078	0.413
-73.509	-52.553	-0.332	-0.151
-72.494	-33.940	0.383	-0.207
-71.480	800.000	-0.051	0.143
-70.465	-200.000	-0.071	0.310
-69.451	-12.149	0.078	-0.050
-68.436	347.690	0.025	0.049
-67.422	-200.000	-0.027	0.260
-66.407	-7.942	0.309	0.205
-65.392	710.438	0.016	-0.042
-64.378	-138.687	0.391	-0.042
-63.363	-126.361	0.254	-0.037
-62.349	701.740	0.055	0.142
-61.334	165.100	-0.817	-1.132
-60.319	408.485	0.409	0.848
-59.305	-200.000	-0.162	-1.051
-58.290	169.378	0.481	0.674
-57.276	683.724	0.560	1.433
-56.261	-200.000	93.250	566.133
-55.246	566.581	1360.241	3237.720
-54.232	164.492	2535.023	3505.908
-53.217	107.586	2266.187	2645.436
-52.203	43.035	1897.163	1697.198
-51.188	37.076	1688.383	1465.516
-50.173	34.337	1644.637	1407.288
-49.159	51.943	1689.331	1577.491
-48.144	53.555	1706.108	1605.139
-47.130	36.652	1668.110	1444.523
-46.115	33.919	1653.791	1411.791
-45.100	33.697	1649.214	1406.183
-44.086	33.737	1646.105	1403.770
-43.071	33.700	1643.788	1401.472
-42.057	33.692	1640.879	1398.875
-41.042	33.702	1638.864	1397.173
-40.027	33.711	1637.080	1395.665
-39.013	33.623	1635.734	1393.812
-37.998	33.674	1633.804	1392.490
-36.984	33.628	1632.766	1391.211
-35.969	33.708	1631.054	1390.286
-34.954	33.745	1629.313	1389.017
-33.940	33.794	1627.199	1387.516
-32.925	33.776	1625.781	1386.124
-31.911	33.787	1624.516	1385.065
-30.896	33.786	1622.611	1383.384
-29.881	33.697	1621.115	1381.401
-28.867	33.832	1619.304	1380.789
-27.852	33.782	1617.550	1378.875
-26.838	33.748	1616.408	1377.596
-25.823	33.741	1614.984	1376.281
-24.809	33.891	1613.257	1375.842
-23.794	33.725	1612.129	1373.624
-22.779	33.832	1610.122	1372.631
-21.765	33.805	1609.417	1371.779
-20.750	33.824	1607.665	1370.369
-19.736	33.841	1606.088	1369.092
-18.721	33.769	1605.086	1367.668
-17.706	33.863	1603.283	1366.751
-16.692	33.826	1601.875	1365.229
-15.677	33.726	1600.324	1363.140
-14.663	33.729	1599.517	1362.420
-13.648	33.940	1597.462	1362.124
-12.633	33.860	1596.042	1360.288
-11.619	33.886	1594.392	1359.015
-10.604	33.796	1593.327	1357.409
-9.590	33.843	1592.017	1356.574
-8.575	33.868	1590.402	1355.324
-7.560	33.752	1589.927	1354.037
-6.546	33.793	1587.995	1352.628
-5.531	33.921	1586.890	1352.542
-4.517	33.915	1585.384	1351.167
-3.502	33.903	1584.946	1350.651
-2.487	33.911	1583.286	1349.243
-1.473	33.027	1570.592	1332.143
-0.458	28.566	1547.083	1281.081
0.556	21.293	1543.695	1231.299
1.571	17.890	1563.591	1222.728
2.586	16.767	1575.870	1224.112
3.600	15.317	1524.403	1173.885
4.615	8.810	1418.358	1049.621
5.629	1.851	1354.727	958.777
6.644	0.345	1346.395	943.375
7.659	0.208	1345.276	941.653
8.673	0.150	1344.367	940.568
9.688	0.198	1342.365	939.386
10.702	0.046	1339.337	936.241
11.717	3.148	1343.980	958.754
12.731	10.772	1355.866	1014.933
13.746	16.293	1363.174	1054.901
14.761	17.102	1363.171	1059.857
15.775	16.302	1360.880	1052.991
16.790	15.280	1358.729	1044.870
17.804	14.584	1355.864	1038.244
18.819	14.185	1354.585	1034.690
19.834	13.935	1353.246	1032.027
20.848	13.635	1352.443	1029.460
21.863	13.343	1351.532	1026.863
22.877	13.192	1349.293	1024.136
23.892	13.205	1348.712	1023.683
24.907	13.144	1348.401	1022.976
25.921	13.226	1347.528	1022.731
26.936	13.254	1346.320	1021.896
27.950	13.277	1345.379	1021.239
28.965	13.280	1344.685	1020.635
29.980	13.293	1343.815	1019.969
30.994	13.391	1342.663	1019.608
32.009	13.449	1341.499	1018.987
33.023	13.368	1341.211	1018.184
34.038	13.354	1339.392	1016.626
35.053	13.333	1338.633	1015.832
36.067	13.387	1337.041	1014.861
37.082	13.304	1337.068	1014.284
38.096	13.358	1335.882	1013.623
39.111	13.344	1334.671	1012.533
40.126	13.379	1333.682	1011.909
41.140	13.141	1333.229	1010.019
42.155	13.057	1332.974	1009.219
43.169	13.129	1332.792	1009.437
44.184	13.177	1332.504	1009.423
45.199	13.185	1331.970	1008.974
46.213	13.198	1331.600	1008.687
47.228	13.247	1330.310	1007.920
48.242	13.259	1329.097	1006.979
49.257	13.256	1327.285	1005.500
50.271	13.347	1325.991	1004.985
51.286	13.365	1324.707	1004.033
52.301	13.281	1323.753	1002.709
53.315	13.230	1323.023	1001.761
54.330	13.200	1321.570	1000.389
55.344	13.237	1320.307	999.567
56.359	13.165	1319.498	998.435
57.374	13.262	1318.630	998.274
58.388	13.186	1317.828	997.119
59.403	13.072	1317.698	996.248
60.417	13.069	1316.875	995.518
61.432	13.087	1315.902	994.801
62.447	13.132	1314.635	994.026
63.461	13.138	1313.346	993.003
64.476	13.032	1312.639	991.740
65.490	13.127	1311.219	991.148
66.505	13.077	1309.758	989.657
67.520	13.072	1308.753	988.784
68.534	13.165	1307.554	988.347
69.549	13.179	1306.518	987.556
70.563	13.147	1305.519	986.525
71.578	13.108	1304.158	985.179
72.593	13.087	1303.352	984.357
73.607	12.979	1302.845	983.243
74.622	13.072	1301.754	982.887
75.636	13.097	1300.791	982.219
76.651	13.030	1300.283	981.353
77.666	13.070	1299.430	980.859
78.680	13.002	1298.960	980.015
79.695	13.148	1298.159	980.188
80.709	13.040	1297.849	979.225
81.724	13.103	1296.767	978.699
82.739	13.130	1295.438	977.769
83.753	13.250	1294.458	977.652
84.768	13.314	1293.479	977.203
85.782	13.263	1293.013	976.463
86.797	13.390	1291.526	976.001
87.812	13.239	1289.824	973.742
88.826	13.236	1289.323	973.256
89.841	13.125	1288.632	971.997
90.855	13.318	1287.256	972.006
91.870	13.344	1285.993	971.122
92.884	13.277	1285.641	970.378
93.899	13.296	1285.078	969.975
94.914	13.387	1283.901	969.536
95.928	13.350	1283.191	968.697
96.943	13.368	1282.035	967.844
97.957	13.358	1281.556	967.341
98.972	13.299	1280.333	965.987
99.987	13.353	1278.757	965.023
101.001	13.310	1278.062	964.166
102.016	13.308	1277.420	963.584
103.030	13.304	1276.690	962.925
104.045	13.257	1276.066	962.094
105.060	13.185	1274.648	960.523
106.074	13.207	1272.967	959.296
107.089	13.190	1271.914	958.324
108.103	13.163	1270.575	957.072
109.118	13.154	1269.284	955.965
110.133	13.202	1268.192	955.330
111.147	13.122	1266.957	953.855
112.162	13.103	1266.050	952.977
113.176	13.186	1264.793	952.426
114.191	13.156	1263.886	951.489
115.206	13.219	1262.437	950.677
116.220	13.277	1261.380	950.127
117.235	13.192	1260.452	948.858
118.249	13.309	1259.111	948.433
119.264	13.270	1258.159	947.408
120.279	13.154	1257.356	946.054
121.293	13.093	1256.640	945.086
122.308	13.151	1255.627	944.570
123.322	13.275	1254.011	943.982
124.337	13.171	1253.556	942.959
125.352	13.234	1252.371	942.344
126.366	13.244	1251.403	941.590
127.381	13.270	1250.137	940.700
128.395	13.201	1249.325	939.615
129.410	13.176	1248.236	938.574
130.424	13.267	1247.799	938.674
131.439	13.291	1246.399	937.677
132.454	13.227	1245.636	936.657
133.468	13.282	1244.676	936.161
134.483	13.324	1244.256	936.002
135.497	13.340	1243.005	935.067
136.512	13.432	1241.471	934.352
137.527	13.305	1240.364	932.721
138.541	13.344	1239.061	931.880
139.556	13.287	1237.763	930.497
140.570	13.226	1237.208	929.654
141.585	13.333	1235.558	928.933
142.600	13.371	1234.360	928.165
143.614	13.477	1233.631	928.128
144.629	13.433	1232.444	926.906
145.643	13.390	1231.226	925.667
146.658	13.272	1230.302	924.234
147.673	13.319	1228.741	923.239
148.687	13.432	1227.367	922.757
149.702	13.349	1226.196	921.333
150.716	13.345	1224.798	920.176
151.731	13.380	1223.714	919.477
152.746	13.347	1222.897	918.597
153.760	13.382	1221.659	917.783
154.775	13.337	1220.859	916.851
155.789	13.472	1219.554	916.533
156.804	13.524	1218.315	915.809
157.819	13.500	1217.713	915.143
158.833	13.508	1216.525	914.216
159.848	13.490	1215.636	913.365
160.862	13.535	1214.590	912.747
161.877	13.457	1213.715	911.579
162.892	13.553	1212.069	910.792
163.906	13.539	1211.028	909.851
164.921	13.503	1210.435	909.127
165.935	13.504	1209.493	908.345
166.950	13.569	1208.630	907.975
167.964	13.558	1207.915	907.293
168.979	13.534	1207.539	906.800
169.994	13.537	1206.701	906.111
171.008	13.545	1205.674	905.298
172.023	13.618	1205.149	905.224
173.037	13.672	1204.204	904.732
174.052	13.586	1203.325	903.521
175.067	13.444	1202.760	902.240
176.081	13.594	1201.543	902.065
177.096	13.561	1200.548	901.062
178.110	13.600	1199.236	900.209
179.125	13.732	1197.623	899.632
180.140	13.626	1196.922	898.451
181.154	13.527	1196.195	897.291
182.169	13.626	1194.725	896.642
183.183	13.752	1193.192	896.093
184.198	13.731	1192.073	895.063
185.213	13.757	1191.010	894.323
186.227	13.789	1189.936	893.611
187.242	13.837	1188.969	893.067
188.256	13.880	1188.207	892.645
189.271	13.882	1187.518	892.058
190.286	13.693	1186.395	890.124
191.300	13.724	1185.579	889.595
192.315	13.599	1184.939	888.367
193.329	13.677	1184.255	888.196
194.344	13.682	1183.646	887.685
195.359	13.738	1182.858	887.317
196.373	13.887	1182.245	887.574
197.388	13.874	1182.180	887.378
198.402	13.966	1181.460	887.251
199.417	13.927	1180.472	886.222
200.432	14.126	1179.758	886.670
201.446	13.992	1178.984	885.294
202.461	14.233	1177.535	885.407
203.475	13.986	1177.396	883.912
204.490	13.929	1176.410	882.792
205.504	14.029	1174.712	881.971
206.519	13.943	1174.093	880.970
207.534	14.015	1172.517	880.089
208.548	14.151	1171.436	879.924
209.563	14.029	1170.813	878.733
210.577	14.016	1170.119	878.064
211.592	14.094	1169.136	877.661
212.607	14.073	1168.376	876.903
213.621	14.225	1167.236	876.770
214.636	14.101	1166.540	875.519
215.650	14.119	1165.706	874.909
216.665	14.272	1164.705	874.885
217.680	14.285	1163.828	874.216
218.694	14.120	1163.842	873.282
219.709	14.218	1162.574	872.764
220.723	14.233	1161.689	872.102
221.738	14.211	1161.156	871.512
222.753	14.279	1159.823	870.792
223.767	14.246	1159.637	870.400
224.782	14.411	1158.828	870.578
225.796	14.360	1158.429	869.932
226.811	14.338	1157.743	869.229
227.826	14.325	1157.238	868.706
228.840	14.265	1156.387	867.677
229.855	14.318	1155.847	867.469
230.869	14.315	1154.674	866.498
231.884	14.311	1153.866	865.793
232.899	14.423	1153.014	865.661
233.913	14.368	1152.315	864.775
234.928	14.366	1151.502	864.073
235.942	14.438	1150.598	863.693
236.957	14.365	1149.948	862.750
237.972	14.283	1149.555	861.957
238.986	14.344	1148.674	861.535
240.001	14.326	1148.259	861.052
241.015	14.388	1146.687	860.117
242.030	14.433	1146.451	860.098
243.045	14.451	1145.698	859.548
244.059	14.515	1145.198	859.427
245.074	14.432	1144.424	858.345
246.088	14.671	1143.091	858.500
247.103	14.680	1142.356	857.914
248.117	14.729	1141.525	857.469
249.132	14.604	1141.108	856.438
250.147	14.672	1140.781	856.464
251.161	14.762	1139.379	855.797
252.176	14.766	1139.168	855.585
253.190	14.751	1138.557	854.973
254.205	14.846	1137.954	854.928
255.220	14.810	1137.293	854.173
256.234	14.873	1136.710	853.981
257.249	14.889	1135.936	853.404
258.263	14.955	1134.863	852.861
259.278	14.920	1134.742	852.515
260.293	14.904	1134.451	852.141
261.307	14.932	1133.747	851.678
262.322	15.023	1132.747	851.316
263.336	14.974	1132.047	850.464
264.351	15.084	1131.323	850.404
265.366	15.041	1131.114	849.953
266.380	15.132	1130.268	849.702
267.395	15.031	1129.502	848.543
268.409	14.906	1128.888	847.372
269.424	14.980	1128.289	847.221
270.439	15.032	1127.755	847.011
271.453	14.971	1127.041	846.089
272.468	14.991	1126.000	845.332
273.482	15.008	1125.357	844.863
274.497	15.020	1124.865	844.481
275.512	15.053	1124.073	843.974
276.526	15.002	1123.372	843.120
277.541	15.055	1122.766	842.855
278.555	15.019	1122.254	842.213
279.570	15.133	1121.465	842.120
280.585	15.234	1120.241	841.634
281.599	15.265	1119.215	840.944
282.614	15.243	1118.527	840.243
283.628	15.140	1117.387	838.798
284.643	15.141	1116.872	838.343
285.657	15.273	1115.705	838.053
286.672	15.308	1114.643	837.354
287.687	15.236	1114.160	836.556
288.701	15.373	1112.871	836.200
289.716	15.356	1112.304	835.616
290.730	15.365	1111.908	835.288
291.745	15.390	1111.179	834.792
292.760	15.315	1110.622	833.927
293.774	15.357	1110.197	833.743
294.789	15.426	1109.467	833.462
295.803	15.369	1108.759	832.572
296.818	15.432	1107.892	832.160
297.833	15.453	1107.034	831.547
298.847	15.368	1106.543	830.683
299.862	15.475	1105.718	830.521
300.876	15.462	1105.053	829.882
301.891	15.515	1104.581	829.718
302.906	15.603	1103.795	829.488
303.920	15.583	1102.893	828.637
304.935	15.632	1102.290	828.354
305.949	15.600	1102.119	827.996
306.964	15.696	1101.250	827.740
307.979	15.626	1100.973	827.115
308.993	15.602	1100.010	826.200
310.008	15.594	1099.220	825.494
311.022	15.677	1098.143	825.021
312.037	15.736	1097.301	824.603
313.052	15.736	1096.293	823.771
314.066	15.682	1095.440	822.796
315.081	15.577	1094.688	821.643
316.095	15.676	1093.787	821.380
317.110	15.648	1093.079	820.638
318.125	15.676	1092.414	820.202
319.139	15.617	1092.288	819.744
320.154	15.644	1091.220	819.006
321.168	15.790	1090.607	819.183
322.183	15.732	1090.111	818.456
323.197	15.851	1089.360	818.397
324.212	15.661	1089.358	817.400
325.227	15.634	1088.718	816.714
326.241	15.753	1087.560	816.355
327.256	15.810	1087.052	816.178
328.270	15.779	1085.851	815.050
329.285	15.749	1085.035	814.221
330.300	15.826	1084.174	813.874
331.314	15.816	1083.174	813.007
332.329	15.849	1082.159	812.331
333.343	15.899	1081.668	812.131
334.358	15.972	1080.619	811.624
335.373	15.961	1080.082	811.095
336.387	16.014	1078.982	810.450
337.402	15.988	1078.684	810.032
338.416	15.926	1078.300	809.374
339.431	15.880	1077.634	808.580
340.446	16.020	1076.866	808.605
341.460	16.082	1076.129	808.280
342.475	16.021	1075.388	807.356
343.489	16.077	1073.897	806.433
344.504	16.105	1073.417	806.135
345.519	16.173	1072.553	805.742
346.533	16.247	1071.367	805.131
347.548	16.288	1070.973	804.961
348.562	16.187	1070.549	804.091
349.577	16.126	1069.543	802.971
350.592	16.236	1068.874	802.924
351.606	16.208	1068.324	802.305
352.621	16.114	1067.561	801.215
353.635	16.187	1066.636	800.797
354.650	16.116	1066.268	800.111
355.665	16.226	1065.520	799.999
356.679	16.343	1064.783	799.930
357.694	16.298	1064.410	799.365
358.708	16.390	1063.321	798.913
359.723	16.336	1062.796	798.195
360.738	16.216	1062.470	797.309
361.752	16.340	1061.849	797.361
362.767	16.299	1061.367	796.732
363.781	16.388	1060.786	796.645
364.796	16.383	1059.927	795.906
365.810	16.424	1059.219	795.497
366.825	16.530	1058.724	795.554
367.840	16.443	1058.311	794.763
368.854	16.615	1057.870	795.170
369.869	16.610	1057.002	794.427
370.883	16.491	1056.337	793.297
371.898	16.521	1055.476	792.719
372.913	16.506	1055.062	792.268
373.927	16.654	1054.131	792.193
374.942	16.611	1053.604	791.528
375.956	16.652	1053.291	791.410
376.971	16.602	1052.919	790.827
377.986	16.672	1052.075	790.452
379.000	16.577	1051.758	789.699
380.015	16.746	1051.283	790.063
381.029	16.892	1050.282	789.919
382.044	16.809	1049.770	789.077
383.059	16.778	1049.060	788.329
384.073	16.807	1048.462	787.949
385.088	16.850	1047.323	787.219
386.102	16.949	1046.326	786.859
387.117	16.835	1045.700	785.790
388.132	16.786	1044.973	784.949
389.146	16.815	1043.980	784.269
390.161	16.963	1042.868	784.047
391.175	16.733	1042.885	782.928
392.190	16.835	1042.169	782.792
393.205	16.962	1040.895	782.351
394.219	16.925	1040.039	781.470
395.234	16.964	1039.541	781.203
396.248	16.887	1038.760	780.196
397.263	16.885	1037.665	779.295
398.278	16.776	1037.156	778.342
399.292	16.806	1036.546	777.951
400.307	16.706	1036.237	777.194
401.321	16.803	1035.067	776.691
402.336	16.912	1034.581	776.759
403.350	17.081	1033.511	776.659
404.365	16.930	1033.446	775.853
405.380	16.894	1032.641	775.014
406.394	16.988	1031.765	774.718
407.409	17.111	1031.075	774.689
408.423	17.006	1030.384	773.623
409.438	17.101	1029.648	773.435
410.453	17.070	1029.485	773.105
411.467	17.209	1028.321	772.792
412.482	17.170	1027.967	772.284
413.496	17.199	1026.978	771.601
414.511	17.226	1026.081	770.982
415.526	17.302	1026.232	771.373
416.540	17.267	1025.799	770.822
417.555	17.361	1024.488	770.192
418.569	17.230	1024.816	769.777
419.584	17.281	1023.946	769.287
420.599	17.422	1023.424	769.466
421.613	102.398	1317.683	1457.883
422.628	93.564	1360.534	1458.004
