DTS Sentinel unit serial number:	SN413079Multiplexer serial number:	ORYXHardware model number:	OX4-SRSoftware version number:	ORYX F/W v4.00 Oryx Data Collector v3.7.2.0data status	okinstallation	princeton_trtdifferential loss correction	single-endedforward channel	channel 2reverse channel	N/Adate	2019/09/13time	01:55:34forward acquisition time	60.00reverse acquisition time	0.00gamma	496.2192k internal	0.2334k external	0.2334temperature offset calibration	1.0176default loss term (dB/km)	0.3790temperature slope calibration	1.0000multiplexer offset coefficient	1.0000multiplexer slope coefficient	1.0000fibre end	0.00T internal ref (°C)	27.67T ext. ref 1 (°C)	3.84T ext. ref 2 (°C)	22.30length (m)	temperature (°C)	Stokes	anti-Stokes-747.200	-68.620	0.211	0.082
-746.185	800.000	0.102	-0.320
-745.171	-106.667	0.399	-0.089
-744.156	134.537	0.124	-0.161
-743.142	17.260	0.182	0.145
-742.127	-2.199	0.046	-0.032
-741.112	-39.878	-0.112	0.059
-740.098	85.455	0.062	0.069
-739.083	-69.895	-0.410	0.157
-738.069	698.321	0.126	0.332
-737.054	62.039	0.107	-0.107
-736.039	48.216	-0.304	-0.286
-735.025	-102.694	-0.195	0.047
-734.010	645.977	-0.033	0.084
-732.996	241.627	0.053	-0.088
-731.981	38.826	-0.120	0.108
-730.966	173.448	-0.117	0.170
-729.952	800.000	-0.070	-0.201
-728.937	-200.000	0.013	-0.184
-727.923	62.191	0.185	-0.185
-726.908	31.617	0.116	0.101
-725.894	-28.473	-0.030	0.018
-724.879	800.000	0.036	0.105
-723.864	-46.152	0.076	0.038
-722.850	-200.000	0.074	0.405
-721.835	146.154	0.024	-0.032
-720.821	-132.361	-0.394	-0.051
-719.806	-185.541	0.174	0.003
-718.791	-200.000	-0.027	-0.460
-717.777	-142.220	0.231	0.023
-716.762	8.934	0.146	0.111
-715.748	-76.092	0.241	-0.086
-714.733	639.402	-0.137	-0.349
-713.718	-154.718	-0.263	-0.018
-712.704	426.442	-0.152	0.330
-711.689	92.819	-0.327	-0.370
-710.675	483.707	-0.087	-0.199
-709.660	-96.884	-0.272	0.072
-708.645	352.221	-0.125	-0.249
-707.631	800.000	0.065	-0.194
-706.616	-86.473	-0.207	0.064
-705.602	14.196	0.187	-0.146
-704.587	496.761	-0.082	-0.188
-703.572	800.000	-0.067	-0.193
-702.558	-36.610	-0.075	0.041
-701.543	-31.284	0.207	-0.117
-700.529	33.047	0.136	-0.118
-699.514	-44.979	-0.181	-0.090
-698.499	-200.000	0.003	0.349
-697.485	-173.600	-0.331	-0.010
-696.470	170.105	-0.269	-0.386
-695.456	-156.410	-0.023	0.001
-694.441	-184.841	0.190	0.003
-693.426	86.053	-0.253	0.280
-692.412	-158.005	0.150	-0.009
-691.397	63.151	-0.332	-0.333
-690.383	-178.558	0.233	0.005
-689.368	-5.599	-0.229	-0.158
-688.354	-84.551	0.164	0.052
-687.339	-20.921	0.076	-0.046
-686.324	-200.000	0.002	0.387
-685.310	-131.138	-0.303	0.040
-684.295	72.002	-0.109	0.114
-683.281	-156.609	-0.045	0.003
-682.266	-200.000	-0.031	0.328
-681.251	-200.000	-0.015	0.167
-680.237	-200.000	0.020	-0.204
-679.222	-168.523	-0.073	0.003
-678.208	200.926	-0.209	-0.323
-677.193	1.308	0.372	-0.268
-676.178	0.298	-0.048	-0.035
-675.164	-115.073	-0.343	0.065
-674.149	11.614	-0.248	0.191
-673.135	17.510	0.180	0.144
-672.120	-124.715	-0.362	-0.056
-671.105	-98.513	0.173	-0.044
-670.091	-65.489	-0.344	0.138
-669.076	79.135	-0.092	-0.099
-668.062	-176.077	-0.228	-0.006
-667.047	80.913	-0.228	-0.247
-666.032	267.969	-0.179	-0.313
-665.018	53.401	0.337	0.323
-664.003	-37.061	0.077	-0.041
-662.989	268.707	-0.042	-0.075
-661.974	-111.701	0.122	0.025
-660.959	-89.342	0.316	-0.093
-659.945	21.022	-0.372	0.303
-658.930	13.707	0.325	-0.253
-657.916	800.000	0.027	-0.083
-656.901	-113.934	0.113	-0.022
-655.886	216.577	0.100	0.159
-654.872	-200.000	0.064	0.369
-653.857	225.607	-0.232	-0.377
-652.843	-200.000	0.037	0.198
-651.828	-103.997	-0.338	-0.079
-650.814	319.739	0.067	-0.127
-649.799	-122.947	0.194	-0.031
-648.784	800.000	-0.065	0.264
-647.770	718.247	0.117	-0.312
-646.755	144.276	0.190	-0.254
-645.741	117.706	-0.192	-0.237
-644.726	268.863	-0.067	-0.118
-643.711	-34.094	-0.139	0.076
-642.697	-155.380	-0.292	0.019
-641.682	90.939	-0.254	0.285
-640.668	86.159	-0.117	0.129
-639.653	800.000	-0.105	-0.382
-638.638	472.191	-0.099	0.223
-637.624	-146.639	-0.488	-0.042
-636.609	-41.880	-0.113	-0.058
-635.595	-151.178	0.015	0.001
-634.580	308.750	0.023	-0.043
-633.565	20.961	-0.086	0.070
-632.551	-48.823	-0.104	-0.050
-631.536	-63.031	-0.561	-0.232
-630.522	-200.000	0.013	0.143
-629.507	153.452	-0.245	-0.335
-628.492	-140.467	-0.383	0.040
-627.478	-111.924	-0.305	-0.062
-626.463	800.000	-0.019	0.077
-625.449	116.693	0.261	-0.320
-624.434	-108.212	-0.441	-0.095
-623.419	-75.713	-0.026	-0.009
-622.405	-37.727	0.067	-0.036
-621.390	800.000	0.025	0.091
-620.376	-33.907	0.251	-0.138
-619.361	-11.847	0.362	-0.238
-618.346	-200.000	-0.049	-0.252
-617.332	800.000	-0.083	0.324
-616.317	201.949	-0.068	-0.104
-615.303	-154.424	0.123	-0.008
-614.288	-69.083	0.103	-0.040
-613.273	561.121	-0.071	-0.172
-612.259	6.818	-0.122	0.090
-611.244	-200.000	-0.049	0.000
-610.230	11.596	-0.037	0.028
-609.215	78.408	-0.390	-0.416
-608.201	-27.411	-0.343	-0.199
-607.186	-41.673	0.436	-0.224
-606.171	-25.920	-0.089	0.052
-605.157	47.336	-0.178	-0.166
-604.142	96.774	-0.109	0.125
-603.128	16.030	-0.204	0.161
-602.113	0.269	0.121	-0.086
-601.098	-200.000	0.045	0.249
-600.084	-138.172	0.248	-0.027
-599.069	-96.317	-0.154	-0.041
-598.055	786.994	-0.044	-0.121
-597.040	-115.130	0.218	0.041
-596.025	-176.181	0.214	0.006
-595.011	146.079	-0.049	0.065
-593.996	150.611	0.030	-0.041
-592.982	68.457	-0.128	0.131
-591.967	-25.803	0.141	-0.083
-590.952	800.000	0.080	-0.255
-589.938	-145.356	0.115	-0.010
-588.923	133.000	-0.121	0.156
-587.909	-200.000	0.009	-0.101
-586.894	118.268	-0.088	0.109
-585.879	-200.000	0.002	0.074
-584.865	-43.347	0.124	0.062
-583.850	-5.995	-0.263	-0.179
-582.836	-99.748	0.234	-0.059
-581.821	58.365	-0.219	0.215
-580.806	3.622	0.199	-0.145
-579.792	-0.834	-0.092	0.065
-578.777	9.082	0.029	-0.022
-577.763	2.677	-0.110	0.079
-576.748	-200.000	0.025	0.445
-575.733	-12.371	0.173	-0.113
-574.719	22.294	-0.140	0.114
-573.704	99.006	0.104	0.120
-572.690	-19.890	-0.268	-0.165
-571.675	-200.000	0.024	-0.428
-570.661	-155.378	0.228	-0.015
-569.646	800.000	-0.045	-0.177
-568.631	800.000	0.049	-0.146
-567.617	-188.756	-0.387	0.005
-566.602	284.884	0.140	-0.252
-565.588	85.937	0.169	-0.185
-564.573	-28.775	-0.127	-0.073
-563.558	-164.566	0.180	0.008
-562.544	800.000	-0.067	-0.201
-561.529	-200.000	-0.029	-0.205
-560.515	98.050	0.200	0.229
-559.500	85.841	0.130	0.143
-558.485	-53.950	0.173	-0.079
-557.471	-57.698	0.333	0.146
-556.456	-59.088	-0.254	-0.109
-555.442	175.430	-0.117	-0.169
-554.427	197.787	-0.084	0.128
-553.412	440.538	0.095	0.207
-552.398	542.328	-0.087	0.207
-551.383	306.738	-0.110	-0.204
-550.369	705.602	0.055	-0.145
-549.354	-123.872	0.156	0.025
-548.339	-18.124	-0.276	-0.172
-547.325	40.924	-0.180	0.162
-546.310	800.000	-0.055	-0.158
-545.296	-200.000	0.045	0.199
-544.281	-8.037	-0.268	0.180
-543.266	-4.491	-0.084	0.058
-542.252	29.219	0.145	0.123
-541.237	-152.368	-0.306	0.022
-540.223	122.869	-0.189	-0.236
-539.208	-181.813	-0.171	-0.003
-538.193	-106.300	-0.297	-0.066
-537.179	-18.866	0.202	0.125
-536.164	800.000	0.072	0.229
-535.150	-166.030	-0.255	-0.011
-534.135	-83.518	0.064	-0.020
-533.121	800.000	0.210	0.629
-532.106	-25.290	0.129	0.076
-531.091	50.235	-0.155	-0.146
-530.077	-45.224	-0.415	0.205
-529.062	39.230	0.250	0.223
-528.048	337.906	-0.045	-0.086
-527.033	800.000	-0.064	0.254
-526.018	140.855	0.095	0.124
-525.004	-200.000	-0.012	-0.207
-523.989	122.456	0.132	-0.165
-522.975	239.990	-0.162	-0.270
-521.960	220.028	-0.101	0.162
-520.945	-94.362	-0.445	0.121
-519.931	-200.000	-0.021	0.247
-518.916	-76.172	0.238	0.083
-517.902	-3.097	0.128	0.089
-516.887	800.000	0.053	-0.165
-515.872	-200.000	0.037	0.169
-514.858	800.000	0.028	-0.105
-513.843	97.316	0.169	0.193
-512.829	-200.000	-0.021	0.101
-511.814	800.000	0.050	-0.145
-510.799	-156.239	0.067	-0.004
-509.785	-108.998	0.266	0.057
-508.770	46.783	0.100	-0.093
-507.756	0.490	-0.072	0.051
-506.741	-51.025	0.095	0.044
-505.726	-126.251	-0.059	-0.009
-504.712	-72.946	-0.145	0.053
-503.697	232.003	-0.095	0.154
-502.683	-61.727	-0.111	-0.046
-501.668	323.852	-0.079	-0.150
-500.653	-155.009	0.089	-0.006
-499.639	800.000	0.043	0.118
-498.624	-56.930	-0.283	-0.124
-497.610	7.248	-0.124	-0.092
-496.595	-81.601	0.166	-0.054
-495.581	-163.306	-0.273	-0.013
-494.566	-200.000	0.041	-0.203
-493.551	-174.015	0.235	0.007
-492.537	-142.618	-0.336	0.033
-491.522	119.953	-0.132	-0.163
-490.508	-200.000	-0.033	-0.148
-489.493	-156.830	0.188	0.011
-488.478	-56.236	-0.070	0.031
-487.464	800.000	-0.032	-0.120
-486.449	1.138	0.197	-0.141
-485.435	94.859	0.188	0.213
-484.420	43.188	-0.301	-0.273
-483.405	-84.750	0.241	-0.076
-482.391	24.534	0.147	-0.121
-481.376	66.714	-0.123	-0.125
-480.362	253.655	0.124	-0.210
-479.347	572.541	0.116	0.280
-478.332	-142.576	0.291	-0.028
-477.318	97.905	-0.047	-0.054
-476.303	-200.000	-0.041	0.408
-475.289	-142.425	-0.270	0.026
-474.274	-16.302	0.055	0.035
-473.259	-66.812	-0.223	0.088
-472.245	-92.725	0.270	0.075
-471.230	104.881	-0.090	-0.105
-470.216	-182.265	0.231	0.004
-469.201	21.866	0.224	0.181
-468.186	-0.593	-0.181	0.128
-467.172	162.060	0.161	-0.224
-466.157	-200.000	-0.031	-0.208
-465.143	-200.000	-0.009	0.160
-464.128	129.561	0.067	0.085
-463.113	5.590	0.179	0.131
-462.099	310.185	0.123	0.229
-461.084	-144.198	0.295	-0.027
-460.070	-121.299	-0.397	0.066
-459.055	-77.816	0.151	-0.052
-458.040	-145.558	-0.091	0.008
-457.026	-68.056	-0.141	-0.055
-456.011	349.000	-0.045	-0.087
-454.997	800.000	0.077	-0.235
-453.982	-200.000	-0.058	-0.438
-452.968	-200.000	0.007	-0.119
-451.953	-1.025	0.051	0.036
-450.938	-95.496	-0.312	0.083
-449.924	34.665	-0.202	-0.175
-448.909	800.000	0.076	0.310
-447.895	719.426	0.158	-0.416
-446.880	57.291	0.258	0.250
-445.865	-200.000	0.027	0.146
-444.851	171.829	-0.189	0.269
-443.836	-53.478	0.223	0.102
-442.822	-115.223	0.238	0.045
-441.807	-117.779	-0.067	0.012
-440.792	-95.337	0.204	-0.055
-439.778	13.935	0.177	0.137
-438.763	-80.567	0.064	0.021
-437.749	137.470	-0.068	0.089
-436.734	-78.723	-0.266	-0.090
-435.719	-200.000	-0.025	0.223
-434.705	-200.000	0.037	0.178
-433.690	-22.591	0.322	0.193
-432.676	3.572	0.365	0.264
-431.661	-101.554	-0.071	0.017
-430.646	-125.365	0.132	0.020
-429.632	-112.470	0.072	-0.014
-428.617	800.000	0.025	0.078
-427.603	800.000	-0.060	-0.175
-426.588	-55.987	0.082	-0.036
-425.573	-86.210	-0.174	0.053
-424.559	-39.713	0.183	-0.095
-423.544	-37.892	0.114	0.060
-422.530	526.337	-0.033	-0.078
-421.515	-200.000	-0.034	0.199
-420.500	-200.000	-0.037	0.212
-419.486	-152.977	0.144	0.010
-418.471	6.769	0.161	0.119
-417.457	-71.075	-0.169	0.063
-416.442	800.000	-0.060	0.226
-415.428	61.205	0.220	-0.217
-414.413	-200.000	0.046	0.303
-413.398	-127.563	-0.237	0.034
-412.384	-186.396	0.202	0.003
-411.369	542.488	-0.106	-0.250
-410.355	-200.000	-0.010	0.146
-409.340	-75.015	0.101	-0.036
-408.325	-200.000	-0.079	0.386
-407.311	22.799	0.309	0.251
-406.296	42.431	-0.157	-0.142
-405.282	-200.000	0.042	-0.287
-404.267	18.343	0.256	-0.203
-403.252	800.000	0.086	0.291
-402.238	-147.224	-0.276	0.023
-401.223	12.264	0.157	0.120
-400.209	-200.000	-0.041	-0.513
-399.194	403.221	-0.146	-0.304
-398.179	800.000	0.047	0.168
-397.165	-10.725	-0.197	0.129
-396.150	-193.426	0.248	0.002
-395.136	-32.604	0.124	0.069
-394.121	-128.029	-0.153	0.022
-393.106	3.602	0.375	0.271
-392.092	-200.000	-0.011	0.061
-391.077	195.428	0.113	-0.170
-390.063	33.961	-0.112	0.096
-389.048	-1.678	-0.165	0.115
-388.033	-164.486	0.291	-0.013
-387.019	167.732	-0.072	-0.101
-386.004	-109.166	0.289	0.061
-384.990	48.129	0.244	0.226
-383.975	-88.294	0.059	0.018
-382.960	545.778	-0.187	0.442
-381.946	26.548	-0.183	-0.152
-380.931	73.928	-0.195	0.203
-379.917	-40.705	0.082	-0.042
-378.902	-97.141	-0.191	-0.049
-377.888	146.246	0.033	0.044
-376.873	-119.750	0.193	0.033
-375.858	-41.286	-0.057	0.029
-374.844	63.882	0.023	0.023
-373.829	-21.188	-0.112	0.068
-372.815	-28.168	0.117	0.067
-371.800	-88.007	0.224	-0.067
-370.785	67.003	-0.092	0.092
-369.771	297.951	0.139	-0.252
-368.756	-55.295	0.037	0.017
-367.742	30.074	0.020	0.017
-366.727	-18.788	-0.049	0.030
-365.712	-200.000	0.053	-0.255
-364.698	22.878	0.171	-0.139
-363.683	-200.000	0.002	0.113
-362.669	-200.000	-0.021	-0.152
-361.654	59.539	-0.043	-0.042
-360.639	239.292	0.068	-0.112
-359.625	-200.000	0.043	-0.191
-358.610	-108.247	-0.077	0.016
-357.596	-102.760	-0.473	-0.112
-356.581	-200.000	-0.057	-0.324
-355.566	539.487	-0.093	-0.220
-354.552	137.316	-0.072	-0.093
-353.537	-83.542	0.280	-0.089
-352.523	-28.584	-0.382	-0.218
-351.508	-115.403	0.151	-0.028
-350.493	170.157	0.091	-0.129
-349.479	-200.000	0.005	-0.406
-348.464	270.667	0.167	-0.290
-347.450	79.107	-0.126	-0.134
-346.435	736.263	-0.018	0.047
-345.420	-125.427	0.032	-0.005
-344.406	-8.779	0.270	0.179
-343.391	800.000	0.088	0.308
-342.377	-199.425	0.055	0.000
-341.362	133.868	0.121	-0.155
-340.348	42.426	0.073	0.066
-339.333	68.827	-0.245	0.249
-338.318	363.476	0.089	0.176
-337.304	227.179	-0.137	0.220
-336.289	-71.271	-0.274	-0.102
-335.275	-200.000	-0.005	-0.422
-334.260	-56.283	0.267	0.118
-333.245	-164.219	-0.216	0.010
-332.231	-168.175	0.201	0.008
-331.216	63.837	-0.381	0.378
-330.202	-9.716	-0.081	0.053
-329.187	29.876	-0.023	0.019
-328.172	-156.040	-0.244	0.015
-327.158	-132.348	-0.570	0.073
-326.143	800.000	0.129	0.456
-325.129	-95.530	0.194	-0.052
-324.114	800.000	0.064	-0.188
-323.099	-3.511	0.169	-0.117
-322.085	-116.544	-0.446	-0.081
-321.070	133.637	0.111	0.142
-320.056	-38.187	-0.123	-0.064
-319.041	-200.000	0.029	0.330
-318.026	123.335	0.171	-0.212
-317.012	-23.539	0.239	0.142
-315.997	-41.638	0.091	-0.046
-314.983	190.972	-0.093	0.138
-313.968	800.000	0.076	-0.215
-312.953	-1.872	0.354	0.246
-311.939	69.532	-0.048	-0.049
-310.924	-117.488	0.339	-0.061
-309.910	10.679	0.224	-0.168
-308.895	-123.726	0.127	0.020
-307.880	393.879	0.088	-0.180
-306.866	-8.501	-0.293	0.195
-305.851	-78.157	0.028	-0.010
-304.837	0.769	-0.101	-0.071
-303.822	-200.000	0.002	0.149
-302.807	-7.609	-0.311	-0.208
-301.793	-200.000	0.068	-0.299
-300.778	-200.000	0.013	0.108
-299.764	664.947	-0.094	-0.240
-298.749	343.353	-0.118	0.228
-297.735	-46.853	0.190	0.092
-296.720	77.464	0.041	-0.044
-295.705	162.745	0.158	0.219
-294.691	-31.704	0.467	0.259
-293.676	-112.453	-0.356	0.070
-292.662	-122.308	0.407	-0.066
-291.647	38.666	0.022	0.019
-290.632	-173.881	-0.317	0.009
-289.618	9.954	-0.354	-0.266
-288.603	-200.000	0.017	-0.306
-287.589	-200.000	-0.048	-0.233
-286.574	-200.000	0.134	0.582
-285.559	-192.852	-0.150	-0.001
-284.545	533.749	0.073	0.170
-283.530	-165.521	0.076	0.003
-282.516	-200.000	-0.025	-0.200
-281.501	117.686	0.048	0.058
-280.486	96.494	-0.341	0.385
-279.472	-63.872	0.366	0.148
-278.457	786.924	0.027	-0.074
-277.443	22.818	-0.398	-0.322
-276.428	-99.634	-0.143	0.035
-275.413	2.446	0.343	0.245
-274.399	-78.433	0.278	0.094
-273.384	535.870	0.165	0.386
-272.370	800.000	0.080	-0.251
-271.355	-62.320	-0.386	-0.158
-270.340	307.418	-0.193	-0.354
-269.326	800.000	0.072	0.262
-268.311	-200.000	-0.020	0.137
-267.297	-72.244	0.340	-0.124
-266.282	133.118	-0.135	-0.172
-265.267	-101.529	0.341	-0.082
-264.253	-200.000	-0.006	0.077
-263.238	-115.204	0.208	-0.039
-262.224	1.671	0.323	0.230
-261.209	-28.539	-0.101	-0.057
-260.195	648.159	0.068	0.172
-259.180	9.734	-0.312	0.233
-258.165	4.661	-0.196	0.142
-257.151	22.730	0.392	0.316
-256.136	-57.217	-0.100	-0.044
-255.122	747.742	-0.118	0.313
-254.107	800.000	-0.037	0.152
-253.092	29.915	-0.424	0.356
-252.078	3.544	0.065	0.047
-251.063	582.821	-0.102	0.246
-250.049	-157.800	-0.055	-0.003
-249.034	-32.415	-0.199	-0.110
-248.019	230.174	-0.177	-0.285
-247.005	-200.000	0.020	-0.143
-245.990	128.597	-0.218	-0.274
-244.976	-64.544	-0.124	-0.050
-243.961	800.000	-0.044	0.132
-242.946	44.254	-0.312	0.282
-241.932	83.596	0.094	0.101
-240.917	-105.818	-0.173	-0.038
-239.903	69.897	-0.345	0.351
-238.888	-67.379	-0.144	-0.056
-237.873	-39.401	-0.234	-0.121
-236.859	-200.000	0.092	0.416
-235.844	19.798	-0.316	-0.251
-234.830	126.511	0.018	0.022
-233.815	-200.000	-0.006	-0.223
-232.800	85.741	0.099	-0.107
-231.786	65.924	0.232	-0.232
-230.771	19.373	0.164	-0.130
-229.757	195.450	-0.079	-0.118
-228.742	-147.557	0.139	-0.012
-227.727	108.720	-0.209	-0.246
-226.713	16.666	0.317	-0.247
-225.698	800.000	0.070	-0.274
-224.684	-200.000	0.049	0.235
-223.669	-122.467	-0.314	-0.050
-222.655	423.301	-0.166	-0.350
-221.640	156.062	-0.129	-0.175
-220.625	-52.181	0.203	0.093
-219.611	-140.224	0.260	-0.027
-218.596	-200.000	-0.002	-0.216
-217.582	-200.000	-0.007	0.092
-216.567	-200.000	0.009	0.381
-215.552	-20.943	0.107	-0.065
-214.538	266.450	0.152	-0.261
-213.523	-200.000	0.034	-0.401
-212.509	-200.000	0.065	-0.565
-211.494	-96.372	-0.107	0.028
-210.479	-109.377	-0.372	-0.078
-209.465	-143.076	0.422	-0.040
-208.450	-174.313	0.266	-0.008
-207.436	105.658	0.121	0.140
-206.421	-130.671	0.278	0.037
-205.406	800.000	-0.070	-0.298
-204.392	-200.000	0.074	0.569
-203.377	14.692	0.128	0.098
-202.363	134.416	0.037	0.047
-201.348	-137.923	0.253	0.028
-200.333	541.905	0.057	0.135
-199.319	90.299	0.148	-0.163
-198.304	-147.346	0.327	-0.027
-197.290	108.501	0.156	-0.183
-196.275	-48.673	-0.149	-0.070
-195.260	101.742	-0.155	0.178
-194.246	-200.000	-0.012	-0.054
-193.231	51.718	0.099	0.093
-192.217	-15.542	-0.220	0.138
-191.202	-200.000	-0.033	0.277
-190.187	-24.115	0.005	0.003
-189.173	-17.064	0.144	-0.089
-188.158	45.955	0.063	-0.058
-187.144	-70.029	-0.211	-0.079
-186.129	404.693	-0.091	-0.189
-185.114	-158.978	0.408	-0.023
-184.100	-112.242	0.107	0.021
-183.085	-200.000	-0.022	-0.149
-182.071	590.128	-0.040	0.098
-181.056	186.242	0.118	0.172
-180.042	-51.208	0.155	0.071
-179.027	448.058	-0.106	0.229
-178.012	129.406	0.103	-0.129
-176.998	-136.060	0.302	-0.035
-175.983	-200.000	-0.005	0.136
-174.969	255.823	0.108	-0.181
-173.954	800.000	-0.018	-0.055
-172.939	55.635	-0.105	-0.100
-171.925	-94.626	-0.011	-0.003
-170.910	5.830	0.184	0.134
-169.896	-82.440	0.197	-0.063
-168.881	537.883	-0.115	-0.268
-167.866	331.444	-0.057	-0.109
-166.852	182.353	-0.133	0.193
-165.837	-29.255	0.086	-0.048
-164.823	-124.307	0.119	-0.018
-163.808	277.729	-0.197	0.344
-162.793	-200.000	-0.061	0.546
-161.779	42.277	-0.096	-0.085
-160.764	73.901	0.173	-0.178
-159.750	-33.726	0.063	0.034
-158.735	-105.611	-0.148	-0.033
-157.720	157.264	-0.095	-0.129
-156.706	-30.488	-0.099	0.055
-155.691	60.004	-0.132	0.128
-154.677	-137.004	0.228	-0.026
-153.662	599.035	0.038	-0.093
-152.647	108.196	-0.015	-0.017
-151.633	-200.000	0.012	0.226
-150.618	92.758	-0.102	0.113
-149.604	800.000	-0.049	-0.162
-148.589	142.251	-0.208	-0.271
-147.574	58.334	0.074	-0.071
-146.560	800.000	-0.128	0.400
-145.545	254.560	-0.149	-0.251
-144.531	52.177	0.071	-0.067
-143.516	-200.000	-0.044	0.206
-142.502	-148.445	-0.278	-0.022
-141.487	-200.000	0.033	0.324
-140.472	800.000	-0.076	0.298
-139.458	800.000	-0.095	-0.281
-138.443	-78.178	-0.270	-0.091
-137.429	-85.669	-0.037	0.011
-136.414	-200.000	-0.071	-0.355
-135.399	285.054	-0.178	0.314
-134.385	800.000	-0.114	0.308
-133.370	-58.666	0.193	0.082
-132.356	-200.000	-0.005	-0.130
-131.341	800.000	0.018	0.076
-130.326	-95.798	-0.056	0.015
-129.312	1.690	0.383	0.270
-128.297	-200.000	0.043	-0.214
-127.283	-87.806	0.111	0.033
-126.268	-110.554	-0.135	-0.028
-125.253	736.445	-0.024	0.063
-124.239	-12.235	-0.220	-0.141
-123.224	310.012	-0.137	-0.252
-122.210	63.691	0.217	0.214
-121.195	-119.669	0.140	-0.024
-120.180	343.528	-0.048	-0.093
-119.166	18.429	0.047	-0.037
-118.151	190.063	-0.077	0.113
-117.137	-90.107	-0.243	-0.069
-116.122	261.047	0.089	-0.151
-115.107	-44.914	0.430	0.210
-114.093	-171.158	-0.212	0.007
-113.078	-116.531	-0.502	-0.091
-112.064	507.872	0.044	0.101
-111.049	-192.593	0.590	-0.005
-110.034	68.832	-0.290	0.292
-109.020	-200.000	0.016	0.363
-108.005	-82.632	-0.283	0.090
-106.991	266.862	-0.079	-0.135
-105.976	-156.556	-0.143	-0.009
-104.962	-200.000	-0.055	-0.245
-103.947	62.299	0.340	-0.332
-102.932	-200.000	0.001	0.162
-101.918	97.964	0.115	0.130
-100.903	-22.045	0.106	-0.063
-99.889	-0.851	-0.142	-0.099
-98.874	-200.000	0.073	0.407
-97.859	32.999	0.203	0.173
-96.845	62.815	0.275	0.270
-95.830	800.000	0.118	-0.363
-94.816	-34.653	-0.022	0.012
-93.801	-159.747	-0.230	-0.012
-92.786	-191.179	0.089	-0.001
-91.772	135.968	0.101	0.129
-90.757	800.000	-0.015	0.050
-89.743	421.417	0.025	-0.052
-88.728	800.000	0.048	0.165
-87.713	90.030	-0.064	0.070
-86.699	-31.139	-0.081	-0.045
-85.684	-200.000	0.041	-0.220
-84.670	64.314	0.179	0.177
-83.655	293.018	0.124	0.221
-82.640	294.483	0.096	0.171
-81.626	800.000	-0.058	-0.163
-80.611	-121.465	0.149	-0.024
-79.597	-200.000	0.097	-0.470
-78.582	265.709	0.138	-0.236
-77.567	1.940	-0.180	0.127
-76.553	-84.842	-0.352	-0.108
-75.538	-200.000	0.012	-0.234
-74.524	81.543	-0.193	-0.205
-73.509	-200.000	0.022	-0.306
-72.494	-105.031	-0.388	-0.087
-71.480	-200.000	0.023	-0.156
-70.465	-9.485	0.011	-0.007
-69.451	-78.736	0.097	-0.033
-68.436	774.794	0.075	-0.201
-67.422	-11.477	-0.244	0.157
-66.407	-122.951	0.150	0.024
-65.392	-58.328	-0.189	0.081
-64.378	-54.395	-0.281	-0.125
-63.363	504.432	0.064	-0.144
-62.349	-92.340	-0.378	0.104
-61.334	57.521	-1.125	-1.076
-60.319	30.774	0.720	0.603
-59.305	800.000	-0.362	-1.016
-58.290	215.258	0.875	1.358
-57.276	497.641	0.667	1.502
-56.261	-200.000	114.309	650.765
-55.246	537.561	1522.103	3537.436
-54.232	178.013	2694.228	3844.306
-53.217	102.750	2284.476	2615.261
-52.203	36.879	1892.189	1636.316
-51.188	30.924	1681.890	1409.514
-50.173	28.305	1639.878	1354.903
-49.159	49.801	1695.587	1563.089
-48.144	48.734	1709.724	1568.051
-47.130	30.422	1667.456	1393.428
-46.115	27.760	1653.315	1361.726
-45.100	27.557	1648.008	1355.792
-44.086	27.548	1645.377	1353.505
-43.071	27.586	1642.407	1351.286
-42.057	27.551	1640.388	1349.317
-41.042	27.497	1638.433	1347.257
-40.027	27.685	1636.155	1346.717
-39.013	27.579	1634.294	1344.348
-37.998	27.459	1632.697	1342.094
-36.984	27.426	1631.881	1341.133
-35.969	27.745	1629.886	1341.780
-34.954	27.693	1628.241	1339.993
-33.940	27.703	1626.165	1338.304
-32.925	27.650	1624.793	1336.733
-31.911	27.733	1623.239	1336.012
-30.896	27.615	1621.498	1333.664
-29.881	27.629	1620.274	1332.702
-28.867	27.642	1617.632	1330.577
-27.852	27.647	1615.990	1329.207
-26.838	27.679	1614.917	1328.507
-25.823	27.638	1613.551	1327.032
-24.809	27.683	1612.125	1326.130
-23.794	27.712	1610.891	1325.274
-22.779	27.650	1609.659	1323.761
-21.765	27.708	1607.698	1322.516
-20.750	27.777	1605.714	1321.332
-19.736	27.697	1605.239	1320.305
-18.721	27.729	1603.825	1319.325
-17.706	27.696	1602.096	1317.610
-16.692	27.669	1600.412	1315.977
-15.677	27.711	1599.129	1315.176
-14.663	27.825	1597.716	1314.781
-13.648	27.727	1596.375	1312.915
-12.633	27.675	1594.817	1311.208
-11.619	27.715	1593.265	1310.173
-10.604	27.661	1592.022	1308.708
-9.590	27.617	1591.198	1307.668
-8.575	27.673	1589.788	1306.855
-7.560	27.636	1588.532	1305.504
-6.546	27.847	1586.962	1305.670
-5.531	27.833	1586.248	1304.936
-4.517	27.656	1585.612	1303.095
-3.502	27.669	1584.259	1302.023
-2.487	27.793	1582.128	1301.102
-1.473	27.404	1570.144	1288.446
-0.458	24.523	1550.947	1252.464
0.556	22.802	1551.938	1221.486
1.571	20.303	1575.334	1222.211
2.586	19.809	1587.956	1228.393
3.600	17.868	1534.270	1173.420
4.615	11.081	1428.645	1048.955
5.629	4.866	1368.666	966.365
6.644	3.726	1361.582	954.242
7.659	3.859	1359.563	953.563
8.673	3.948	1359.016	953.642
9.688	3.837	1357.455	951.777
10.702	3.761	1354.436	949.114
11.717	6.698	1359.739	970.829
12.731	14.631	1373.743	1029.869
13.746	21.367	1384.907	1079.908
14.761	23.050	1386.843	1091.724
15.775	22.601	1384.975	1087.389
16.790	21.795	1382.811	1080.627
17.804	21.026	1380.810	1074.233
18.819	20.770	1379.807	1071.783
19.834	20.788	1378.960	1071.142
20.848	20.699	1378.428	1070.087
21.863	20.610	1377.123	1068.426
22.877	20.453	1375.854	1066.386
23.892	20.394	1374.554	1064.925
24.907	20.330	1374.052	1064.046
25.921	20.307	1373.221	1063.171
26.936	20.425	1371.949	1062.811
27.950	20.435	1371.385	1062.344
28.965	20.560	1369.854	1061.824
29.980	20.670	1369.290	1061.967
30.994	20.738	1368.695	1061.824
32.009	20.838	1367.127	1061.125
33.023	20.802	1366.275	1060.152
34.038	20.653	1364.923	1058.100
35.053	20.559	1363.423	1056.274
36.067	20.458	1362.467	1054.828
37.082	20.617	1361.725	1055.126
38.096	20.717	1360.605	1054.765
39.111	20.699	1359.823	1053.958
40.126	20.430	1359.011	1051.607
41.140	20.156	1357.780	1048.903
42.155	19.951	1357.087	1047.038
43.169	19.961	1356.910	1046.870
44.184	20.070	1356.577	1047.181
45.199	20.047	1356.243	1046.690
46.213	20.311	1356.627	1048.489
47.228	20.408	1355.435	1048.060
48.242	20.453	1354.056	1047.169
49.257	20.471	1352.667	1046.114
50.271	20.442	1351.107	1044.639
51.286	20.343	1350.351	1043.365
52.301	20.392	1349.156	1042.649
53.315	20.251	1347.873	1040.715
54.330	20.097	1346.144	1038.369
55.344	20.235	1344.771	1038.041
56.359	20.186	1343.749	1036.870
57.374	20.025	1343.048	1035.276
58.388	19.967	1342.100	1034.107
59.403	19.885	1342.025	1033.463
60.417	19.942	1340.824	1032.787
61.432	19.790	1340.510	1031.550
62.447	19.720	1339.286	1030.101
63.461	19.699	1337.842	1028.772
64.476	19.613	1336.711	1027.297
65.490	19.674	1335.746	1026.833
66.505	19.727	1334.155	1025.829
67.520	19.731	1333.274	1025.087
68.534	19.759	1332.024	1024.202
69.549	19.740	1331.023	1023.226
70.563	19.615	1329.901	1021.536
71.578	19.486	1329.025	1020.009
72.593	19.368	1328.343	1018.701
73.607	19.390	1327.110	1017.791
74.622	19.380	1326.912	1017.492
75.636	19.455	1326.216	1017.313
76.651	19.566	1325.318	1017.187
77.666	19.592	1324.739	1016.804
78.680	19.673	1324.667	1017.135
79.695	19.769	1323.961	1017.067
80.709	19.889	1323.154	1017.064
81.724	19.983	1323.082	1017.471
82.739	20.002	1322.121	1016.752
83.753	20.278	1321.321	1017.666
84.768	20.635	1320.279	1018.865
85.782	20.713	1319.793	1018.855
86.797	20.738	1318.661	1018.040
87.812	20.481	1317.552	1015.591
88.826	20.514	1316.092	1014.567
89.841	20.570	1314.945	1013.919
90.855	20.668	1313.994	1013.671
91.870	20.730	1313.573	1013.616
92.884	20.812	1312.842	1013.438
93.899	20.814	1312.056	1012.755
94.914	20.755	1311.658	1012.017
95.928	20.808	1310.538	1011.371
96.943	20.785	1309.238	1010.143
97.957	20.611	1308.671	1008.605
98.972	20.568	1307.993	1007.745
99.987	20.625	1306.739	1007.021
101.001	20.770	1305.892	1007.120
102.016	20.710	1304.754	1005.807
103.030	20.678	1304.057	1004.995
104.045	20.591	1303.564	1004.023
105.060	20.465	1301.473	1001.595
106.074	20.043	1299.959	997.910
107.089	19.804	1298.392	995.246
108.103	19.665	1296.813	993.149
109.118	19.630	1295.865	992.136
110.133	19.759	1294.057	991.399
111.147	19.820	1292.819	990.717
112.162	19.796	1292.616	990.332
113.176	19.868	1291.027	989.442
114.191	19.870	1290.645	989.072
115.206	19.883	1289.153	987.913
116.220	19.870	1287.766	986.689
117.235	19.918	1286.752	986.099
118.249	19.774	1285.777	984.446
119.264	19.691	1284.373	982.815
120.279	19.552	1283.592	981.335
121.293	19.572	1282.185	980.289
122.308	19.391	1281.163	978.396
123.322	19.362	1280.099	977.331
124.337	19.288	1279.311	976.222
125.352	19.311	1278.133	975.366
126.366	19.320	1276.639	974.194
127.381	19.330	1275.661	973.417
128.395	19.298	1274.779	972.480
129.410	19.388	1273.957	972.272
130.424	19.523	1273.442	972.555
131.439	19.614	1272.694	972.408
132.454	19.631	1272.057	971.932
133.468	19.729	1271.074	971.642
134.483	19.842	1270.857	972.025
135.497	19.775	1269.813	970.769
136.512	19.953	1268.479	970.658
137.527	19.895	1267.278	969.330
138.541	19.998	1265.930	968.787
139.556	19.990	1265.212	968.108
140.570	20.094	1264.367	967.959
141.585	20.385	1262.961	968.417
142.600	20.306	1262.647	967.653
143.614	20.501	1261.889	968.072
144.629	20.482	1261.040	967.231
145.643	20.556	1259.475	966.353
146.658	20.257	1258.038	963.506
147.673	20.156	1256.314	961.540
148.687	20.033	1255.055	959.812
149.702	19.932	1253.559	958.022
150.716	19.778	1252.447	956.234
151.731	19.793	1251.393	955.429
152.746	19.786	1250.503	954.625
153.760	19.893	1249.383	954.278
154.775	20.118	1248.479	954.744
155.789	20.207	1247.929	954.729
156.804	20.292	1246.695	954.166
157.819	20.238	1245.860	953.147
158.833	20.485	1245.060	953.807
159.848	20.515	1244.530	953.483
160.862	20.559	1243.466	952.822
161.877	20.192	1241.794	949.445
162.892	19.813	1240.374	946.204
163.906	19.847	1239.334	945.515
164.921	19.857	1238.295	944.691
165.935	19.836	1238.865	944.928
166.950	20.032	1238.117	945.345
167.964	20.148	1236.739	944.842
168.979	19.934	1235.962	942.999
169.994	19.938	1235.018	942.213
171.008	20.051	1234.169	942.098
172.023	20.216	1233.882	942.695
173.037	20.357	1233.853	943.354
174.052	20.285	1232.839	942.105
175.067	19.940	1231.124	938.839
176.081	19.799	1229.599	936.832
177.096	19.789	1229.111	936.321
178.110	19.859	1228.112	935.857
179.125	19.969	1227.060	935.568
180.140	20.091	1226.093	935.405
181.154	20.278	1225.233	935.673
182.169	20.347	1224.144	935.130
183.183	20.503	1223.168	935.141
184.198	20.500	1222.215	934.314
185.213	20.429	1221.078	932.981
186.227	20.684	1219.669	933.190
187.242	20.575	1219.424	932.335
188.256	20.682	1218.415	932.053
189.271	20.709	1217.652	931.533
190.286	20.517	1216.271	929.370
191.300	20.057	1215.103	925.933
192.315	19.924	1214.265	924.505
193.329	20.000	1213.568	924.295
194.344	19.983	1213.297	923.918
195.359	20.072	1213.148	924.196
196.373	20.111	1212.429	923.779
197.388	20.333	1211.875	924.453
198.402	20.622	1212.062	926.057
199.417	20.767	1211.412	926.249
200.432	20.994	1210.819	926.923
201.446	21.088	1210.458	927.058
202.461	21.037	1210.056	926.399
203.475	20.918	1209.069	924.931
204.490	20.768	1206.906	922.402
205.504	20.487	1205.502	919.757
206.519	20.437	1204.360	918.539
207.534	20.388	1203.161	917.286
208.548	20.398	1202.222	916.542
209.563	20.334	1201.785	915.792
210.577	20.431	1200.897	915.542
211.592	20.414	1200.361	914.964
212.607	20.719	1199.305	915.683
213.621	20.742	1198.720	915.275
214.636	20.629	1197.586	913.739
215.650	20.756	1196.657	913.614
216.665	20.904	1195.789	913.648
217.680	21.001	1195.137	913.573
218.694	21.090	1194.341	913.354
219.709	20.831	1194.158	911.777
220.723	21.000	1192.575	911.372
221.738	20.991	1192.108	910.883
222.753	20.879	1191.356	909.646
223.767	20.832	1190.750	908.858
224.782	20.988	1190.412	909.332
225.796	21.219	1190.078	910.200
226.811	20.984	1189.074	908.130
227.826	20.816	1188.296	906.577
228.840	20.769	1187.526	905.668
229.855	20.787	1186.171	904.648
230.869	20.861	1185.611	904.523
231.884	20.699	1184.319	902.619
232.899	20.471	1183.554	900.773
233.913	20.462	1183.167	900.352
234.928	20.472	1182.104	899.517
235.942	20.428	1181.173	898.501
236.957	20.370	1180.774	897.817
237.972	20.369	1180.075	897.199
238.986	20.395	1179.274	896.649
240.001	20.432	1178.812	896.408
241.015	20.588	1177.509	896.141
242.030	20.551	1176.969	895.462
243.045	20.687	1176.501	895.724
244.059	20.644	1175.574	894.720
245.074	20.642	1175.072	894.245
246.088	20.903	1174.477	895.058
247.103	21.016	1173.825	895.060
248.117	21.129	1173.138	895.035
249.132	21.345	1172.655	895.698
250.147	21.683	1172.741	897.414
251.161	21.816	1172.037	897.478
252.176	21.817	1171.103	896.689
253.190	21.926	1170.630	896.802
254.205	22.088	1169.789	896.906
255.220	22.028	1169.752	896.493
256.234	21.984	1169.174	895.744
257.249	21.904	1168.375	894.647
258.263	21.848	1167.926	893.939
259.278	21.994	1166.899	893.818
260.293	21.765	1166.904	892.577
261.307	22.104	1165.879	893.436
262.322	22.062	1165.269	892.674
263.336	22.010	1164.630	891.844
264.351	22.067	1164.024	891.591
265.366	22.126	1163.172	891.159
266.380	22.087	1162.483	890.353
267.395	21.992	1161.804	889.272
268.409	21.835	1160.758	887.601
269.424	21.664	1160.267	886.280
270.439	21.677	1159.985	886.053
271.453	21.632	1158.662	884.735
272.468	21.655	1157.030	883.526
273.482	21.562	1156.874	882.863
274.497	21.468	1156.497	882.023
275.512	21.467	1155.842	881.440
276.526	21.475	1155.094	880.833
277.541	21.548	1154.078	880.346
278.555	21.631	1153.744	880.428
279.570	21.845	1153.263	881.061
280.585	21.953	1152.893	881.244
281.599	22.004	1151.577	880.416
282.614	21.807	1150.481	878.511
283.628	21.617	1149.423	876.672
284.643	21.644	1148.464	875.998
285.657	21.537	1147.483	874.637
286.672	21.648	1146.482	874.356
287.687	21.764	1145.548	874.141
288.701	21.739	1145.255	873.716
289.716	21.671	1144.463	872.696
290.730	21.594	1143.858	871.776
291.745	21.783	1142.944	871.942
292.760	21.835	1142.591	871.853
293.774	21.969	1142.090	872.060
294.789	22.090	1141.722	872.303
295.803	21.965	1141.167	871.182
296.818	21.805	1140.045	869.452
297.833	21.747	1138.631	868.011
298.847	21.707	1138.424	867.578
299.862	21.686	1137.837	866.951
300.876	21.704	1137.118	866.414
301.891	21.896	1136.589	866.882
302.906	22.027	1135.866	866.902
303.920	22.211	1135.618	867.542
304.935	22.384	1135.065	867.899
305.949	22.424	1134.709	867.746
306.964	22.458	1133.654	867.032
307.979	22.208	1132.884	865.133
308.993	22.075	1132.272	863.937
310.008	22.234	1131.476	864.034
311.022	22.350	1130.485	863.770
312.037	22.291	1129.788	862.871
313.052	22.056	1128.477	860.642
314.066	21.956	1126.943	858.910
315.081	21.714	1126.327	857.177
316.095	21.530	1125.605	855.654
317.110	21.630	1124.874	855.511
318.125	21.562	1124.114	854.523
319.139	21.559	1124.015	854.361
320.154	21.623	1122.940	853.780
321.168	21.629	1122.409	853.328
322.183	21.619	1122.103	852.971
323.197	21.713	1121.141	852.625
324.212	21.833	1120.508	852.652
325.227	21.954	1120.189	852.919
326.241	21.843	1119.480	851.767
327.256	21.822	1118.614	850.926
328.270	21.720	1117.772	849.720
329.285	21.628	1116.914	848.543
330.300	21.774	1115.684	848.244
331.314	21.785	1114.572	847.373
332.329	21.757	1114.098	846.806
333.343	21.842	1113.576	846.746
334.358	21.980	1113.188	847.041
335.373	22.163	1112.362	847.220
336.387	22.098	1111.783	846.389
337.402	22.290	1110.701	846.414
338.416	22.283	1110.148	845.886
339.431	22.428	1109.888	846.309
340.446	22.586	1109.370	846.595
341.460	22.549	1109.346	846.324
342.475	22.671	1108.577	846.248
343.489	22.927	1107.078	846.260
344.504	22.811	1106.616	845.272
345.519	22.906	1105.714	844.967
346.533	23.074	1104.641	844.874
347.548	23.007	1104.591	844.438
348.562	22.873	1103.559	842.939
349.577	22.634	1102.153	840.650
350.592	22.327	1101.109	838.318
351.606	22.161	1100.511	836.997
352.621	22.135	1099.495	836.026
353.635	22.091	1099.127	835.462
354.650	22.079	1098.272	834.683
355.665	22.170	1097.667	834.578
356.679	22.351	1096.968	834.831
357.694	22.477	1096.187	834.763
358.708	22.513	1096.175	834.848
359.723	22.471	1095.797	834.291
360.738	22.466	1095.025	833.602
361.752	22.569	1094.159	833.359
362.767	22.517	1093.537	832.563
363.781	22.515	1093.455	832.418
364.796	22.667	1092.817	832.579
365.810	22.892	1092.489	833.316
366.825	23.110	1091.858	833.788
367.840	23.323	1091.411	834.375
368.854	23.206	1091.153	833.556
369.869	23.284	1090.351	833.236
370.883	23.091	1088.965	831.196
371.898	23.004	1087.943	829.934
372.913	22.976	1087.643	829.501
373.927	22.915	1087.058	828.693
374.942	23.044	1087.082	829.242
375.956	23.057	1086.217	828.572
376.971	22.992	1085.667	827.776
377.986	23.110	1084.933	827.695
379.000	23.303	1084.801	828.424
380.015	23.408	1084.672	828.743
381.029	23.550	1083.187	828.197
382.044	23.391	1082.795	827.083
383.059	23.232	1082.335	825.914
384.073	23.297	1081.121	825.221
385.088	23.345	1079.918	824.450
386.102	23.341	1079.249	823.850
387.117	23.070	1078.172	821.695
388.132	22.819	1076.724	819.353
389.146	22.797	1075.882	818.539
390.161	22.737	1075.417	817.835
391.175	22.822	1074.645	817.567
392.190	22.941	1074.547	817.971
393.205	23.274	1073.449	818.602
394.219	23.240	1072.815	817.891
395.234	22.901	1072.046	815.669
396.248	22.824	1070.844	814.325
397.263	22.791	1070.187	813.601
398.278	22.751	1068.995	812.440
399.292	22.704	1068.308	811.630
400.307	22.687	1067.386	810.778
401.321	22.577	1067.011	809.915
402.336	22.513	1065.968	808.759
403.350	22.777	1065.302	809.393
404.365	22.723	1064.968	808.822
405.380	22.916	1064.312	809.134
406.394	22.948	1063.704	808.747
407.409	23.195	1062.994	809.267
408.423	23.321	1062.498	809.392
409.438	23.475	1061.892	809.562
410.453	23.429	1061.770	809.187
411.467	23.610	1060.419	808.909
412.482	23.608	1060.055	808.553
413.496	23.654	1059.568	808.321
414.511	23.810	1059.152	808.640
415.526	23.906	1058.883	808.797
416.540	24.025	1058.643	809.084
417.555	23.808	1057.730	807.330
418.569	23.731	1056.891	806.270
419.584	23.639	1056.313	805.339
420.599	23.717	1055.770	805.210
421.613	157.232	1403.686	1797.929
422.628	144.436	1454.372	1798.024
