DTS Sentinel unit serial number:	SN413079Multiplexer serial number:	ORYXHardware model number:	OX4-SRSoftware version number:	ORYX F/W v4.00 Oryx Data Collector v3.7.2.0data status	okinstallation	princeton_trtdifferential loss correction	single-endedforward channel	channel 2reverse channel	N/Adate	2019/09/17time	19:23:34forward acquisition time	60.00reverse acquisition time	0.00gamma	496.2192k internal	0.2320k external	0.2320temperature offset calibration	0.9987default loss term (dB/km)	0.3790temperature slope calibration	1.0000multiplexer offset coefficient	1.0000multiplexer slope coefficient	1.0000fibre end	0.00T internal ref (°C)	37.55T ext. ref 1 (°C)	0.24T ext. ref 2 (°C)	25.74length (m)	temperature (°C)	Stokes	anti-Stokes-747.200	-51.879	0.179	-0.084
-746.185	-56.265	-0.106	0.047
-745.171	2.287	0.227	0.166
-744.156	-112.794	0.158	-0.032
-743.142	45.228	-0.162	0.151
-742.127	11.443	0.256	-0.198
-741.112	82.989	-0.255	0.280
-740.098	-200.000	-0.030	0.142
-739.083	50.436	0.158	-0.151
-738.069	499.720	0.191	-0.446
-737.054	-20.960	-0.160	-0.099
-736.039	-57.066	-0.140	0.062
-735.025	195.524	-0.207	0.318
-734.010	545.027	0.070	-0.170
-732.996	6.336	-0.250	-0.188
-731.981	-200.000	-0.091	0.000
-730.966	-105.624	-0.130	0.030
-729.952	182.863	0.122	-0.181
-728.937	800.000	-0.023	-0.075
-727.923	203.620	-0.041	0.064
-726.908	-57.836	0.494	-0.218
-725.894	-200.000	0.039	-0.277
-724.879	152.056	-0.060	-0.082
-723.864	-54.940	0.117	0.054
-722.850	-59.516	-0.355	0.154
-721.835	-184.727	0.159	-0.003
-720.821	-99.298	-0.312	-0.079
-719.806	-128.817	0.258	0.037
-718.791	-159.366	-0.482	-0.027
-717.777	-2.857	0.166	0.117
-716.762	-110.933	-0.171	0.036
-715.748	-200.000	0.027	0.381
-714.733	-32.356	0.126	0.071
-713.718	-34.062	-0.180	-0.100
-712.704	430.320	-0.055	-0.121
-711.689	94.036	-0.196	-0.225
-710.675	453.076	0.040	-0.089
-709.660	27.147	-0.104	0.088
-708.645	425.584	0.100	-0.216
-707.631	-120.892	-0.083	0.014
-706.616	60.008	-0.213	-0.212
-705.602	17.662	-0.041	-0.033
-704.587	62.495	0.365	-0.368
-703.572	-78.350	0.123	0.043
-702.558	800.000	0.086	-0.251
-701.543	763.198	0.099	-0.271
-700.529	-121.727	-0.187	-0.031
-699.514	800.000	-0.062	-0.184
-698.499	-90.865	0.266	-0.077
-697.485	-200.000	-0.010	-0.172
-696.470	102.116	0.104	-0.122
-695.456	800.000	-0.030	-0.094
-694.441	353.352	-0.243	-0.486
-693.426	112.005	-0.238	0.290
-692.412	-34.101	0.292	0.162
-691.397	775.908	0.040	-0.111
-690.383	26.218	0.285	0.240
-689.368	378.656	-0.101	-0.209
-688.354	79.128	-0.028	-0.031
-687.339	210.221	0.122	-0.193
-686.324	267.365	0.179	0.315
-685.310	38.750	-0.224	0.202
-684.295	-88.714	-0.173	0.052
-683.281	-108.311	0.124	0.027
-682.266	-42.246	-0.233	-0.120
-681.251	-200.000	-0.003	-0.200
-680.237	517.351	0.050	-0.117
-679.222	-19.331	-0.068	-0.042
-678.208	-171.943	-0.225	-0.007
-677.193	227.411	0.127	-0.209
-676.178	-17.984	-0.102	-0.064
-675.164	34.279	0.034	0.029
-674.149	800.000	0.042	0.130
-673.135	-82.811	-0.231	0.075
-672.120	485.206	-0.121	-0.277
-671.105	122.279	-0.021	0.026
-670.091	-59.280	-0.160	-0.069
-669.076	779.143	-0.088	-0.243
-668.062	101.209	-0.158	0.186
-667.047	-200.000	-0.004	-0.077
-666.032	110.833	0.189	-0.230
-665.018	-11.054	-0.482	0.321
-664.003	81.658	-0.281	-0.306
-662.989	258.298	-0.204	-0.354
-661.974	-200.000	0.001	-0.197
-660.959	-200.000	-0.018	0.272
-659.945	-110.008	-0.134	-0.028
-658.930	148.019	0.165	-0.224
-657.916	-44.696	0.087	-0.044
-656.901	243.559	0.099	0.167
-655.886	3.803	0.231	0.170
-654.872	87.742	-0.132	-0.147
-653.857	177.812	-0.297	-0.436
-652.843	-200.000	0.005	0.253
-651.828	-200.000	-0.007	-0.124
-650.814	130.905	-0.197	-0.255
-649.799	-173.303	-0.361	-0.011
-648.784	800.000	-0.041	0.114
-647.770	49.781	0.117	-0.112
-646.755	648.816	0.088	-0.228
-645.741	-200.000	-0.019	0.196
-644.726	-84.431	-0.377	0.120
-643.711	-122.490	0.188	0.031
-642.697	800.000	0.091	-0.269
-641.682	-113.350	-0.231	0.046
-640.668	-69.623	-0.143	0.055
-639.653	400.495	0.102	-0.216
-638.638	5.763	0.215	0.160
-637.624	-82.767	-0.110	-0.036
-636.609	120.457	0.132	-0.165
-635.595	762.884	-0.092	0.251
-634.580	23.661	-0.147	-0.122
-633.565	800.000	-0.091	-0.311
-632.551	-165.531	-0.238	-0.010
-631.536	-200.000	-0.027	-0.129
-630.522	-33.053	-0.243	-0.136
-629.507	-84.618	-0.068	0.022
-628.492	40.144	0.253	0.229
-627.478	4.315	-0.222	-0.164
-626.463	221.858	0.043	-0.069
-625.449	363.256	-0.033	0.066
-624.434	-19.932	-0.116	-0.072
-623.419	-51.010	-0.165	0.078
-622.405	678.928	-0.158	0.413
-621.390	-87.201	0.120	-0.037
-620.376	-153.139	-0.201	0.014
-619.361	-107.757	-0.175	0.038
-618.346	-200.000	-0.015	0.071
-617.332	112.031	0.225	0.274
-616.317	110.790	0.154	0.186
-615.303	-113.144	-0.099	0.020
-614.288	-200.000	-0.006	-0.208
-613.273	-126.316	0.321	0.048
-612.259	-23.462	0.152	-0.092
-611.244	229.735	-0.167	-0.274
-610.230	-127.881	-0.076	0.011
-609.215	69.021	-0.080	0.083
-608.201	-41.422	0.148	0.077
-607.186	-78.488	0.208	-0.071
-606.171	-144.518	0.066	-0.006
-605.157	-172.804	-0.290	0.009
-604.142	800.000	-0.097	-0.398
-603.128	-200.000	0.031	-0.171
-602.113	121.587	0.126	0.158
-601.098	800.000	-0.045	0.158
-600.084	72.184	-0.106	0.111
-599.069	552.205	-0.071	0.171
-598.055	69.200	0.139	0.144
-597.040	725.142	0.112	0.300
-596.025	115.631	-0.208	-0.256
-595.011	-200.000	0.011	-0.146
-593.996	767.944	-0.210	0.574
-592.982	-200.000	-0.082	0.392
-591.967	15.002	-0.202	-0.159
-590.952	-1.283	-0.225	0.160
-589.938	-200.000	0.001	-0.164
-588.923	-137.047	-0.402	-0.046
-587.909	337.663	-0.108	0.211
-586.894	800.000	-0.059	-0.206
-585.879	-171.066	0.106	-0.004
-584.865	693.643	0.008	-0.021
-583.850	-200.000	0.004	-0.206
-582.836	-42.835	-0.192	-0.098
-581.821	646.476	0.076	-0.195
-580.806	222.108	-0.134	-0.217
-579.792	-16.468	0.117	0.075
-578.777	-200.000	0.029	-0.210
-577.763	246.989	-0.079	0.133
-576.748	-76.519	0.368	-0.130
-575.733	255.241	0.116	0.199
-574.719	2.572	-0.024	0.017
-573.704	274.124	-0.077	-0.137
-572.690	-30.237	-0.159	-0.091
-571.675	-94.969	-0.112	-0.030
-570.661	-170.387	0.239	-0.008
-569.646	667.564	0.108	-0.280
-568.631	31.187	0.190	-0.164
-567.617	-151.728	-0.234	-0.017
-566.602	76.474	0.175	0.186
-565.588	-200.000	0.004	-0.199
-564.573	-121.928	0.302	-0.050
-563.558	-154.976	0.224	0.015
-562.544	800.000	-0.101	0.407
-561.529	186.763	-0.216	-0.323
-560.515	311.168	-0.055	-0.103
-559.500	126.479	-0.203	-0.258
-558.485	-200.000	0.015	0.227
-557.471	-153.594	-0.156	0.011
-556.456	800.000	-0.073	0.228
-555.442	276.457	0.098	0.174
-554.427	800.000	0.022	-0.084
-553.412	-200.000	0.006	-0.037
-552.398	-119.481	0.281	0.049
-551.383	-49.936	0.159	-0.076
-550.369	800.000	-0.080	-0.225
-549.354	-200.000	-0.002	-0.041
-548.339	-200.000	0.001	-0.013
-547.325	-200.000	0.016	0.193
-546.310	243.005	-0.048	-0.081
-545.296	800.000	-0.070	-0.273
-544.281	162.285	0.165	0.231
-543.266	-122.201	-0.238	0.039
-542.252	23.043	-0.111	0.091
-541.237	-200.000	-0.058	-0.286
-540.223	-159.108	0.235	-0.013
-539.208	244.699	-0.129	0.218
-538.193	-69.209	-0.240	0.092
-537.179	498.997	0.089	0.206
-536.164	612.727	-0.081	0.202
-535.150	50.762	-0.237	0.225
-534.135	207.627	-0.140	0.219
-533.121	-27.826	-0.145	0.085
-532.106	-36.415	-0.073	0.039
-531.091	-200.000	0.040	-0.180
-530.077	-200.000	-0.019	-0.138
-529.062	273.141	0.156	0.277
-528.048	251.887	0.095	0.163
-527.033	-200.000	-0.013	0.130
-526.018	50.786	-0.140	0.133
-525.004	800.000	0.057	0.206
-523.989	-61.908	-0.171	-0.072
-522.975	-60.130	-0.210	-0.090
-521.960	149.567	0.133	-0.181
-520.945	112.361	-0.039	-0.047
-519.931	21.660	0.267	0.218
-518.916	800.000	-0.022	-0.075
-517.902	-30.178	-0.038	-0.022
-516.887	93.394	-0.090	-0.102
-515.872	695.274	-0.114	-0.300
-514.858	-82.434	-0.050	0.016
-513.843	59.816	0.111	-0.110
-512.829	14.084	-0.291	0.227
-511.814	-200.000	0.002	0.045
-510.799	-141.419	-0.236	-0.024
-509.785	-24.651	-0.256	0.153
-508.770	-15.106	0.122	0.078
-507.756	800.000	0.102	-0.299
-506.741	-200.000	0.012	0.130
-505.726	-200.000	-0.039	0.187
-504.712	-146.144	-0.117	0.010
-503.697	13.174	-0.176	0.136
-502.683	40.151	0.093	0.083
-501.668	-97.147	0.255	0.067
-500.653	800.000	0.086	-0.311
-499.639	211.887	-0.032	-0.051
-498.624	249.202	-0.091	0.154
-497.610	-94.928	-0.218	-0.059
-496.595	-38.687	-0.235	0.124
-495.581	133.169	-0.046	0.060
-494.566	-200.000	0.000	0.123
-493.551	374.348	-0.099	0.203
-492.537	38.176	-0.203	-0.181
-491.522	81.302	0.263	-0.285
-490.508	-79.499	0.281	-0.095
-489.493	51.424	-0.154	0.146
-488.478	500.364	-0.010	-0.022
-487.464	50.809	-0.053	-0.050
-486.449	596.896	-0.064	-0.159
-485.435	202.988	0.059	-0.091
-484.420	96.666	-0.045	0.052
-483.405	13.964	-0.314	0.245
-482.391	-58.021	0.585	-0.256
-481.376	234.324	0.124	0.205
-480.362	-141.677	0.395	0.040
-479.347	-200.000	-0.005	-0.229
-478.332	-47.459	-0.075	0.036
-477.318	154.913	-0.264	0.364
-476.303	268.999	-0.108	-0.190
-475.289	-200.000	-0.010	0.217
-474.274	-200.000	0.019	-0.088
-473.259	-200.000	0.022	-0.317
-472.245	83.949	-0.225	0.245
-471.230	-200.000	-0.018	-0.214
-470.216	-180.571	-0.307	0.006
-469.201	33.585	0.041	0.036
-468.186	146.269	0.192	0.258
-467.172	507.650	-0.080	-0.185
-466.157	123.523	-0.110	-0.138
-465.143	-200.000	-0.019	0.244
-464.128	-14.057	-0.054	-0.035
-463.113	-133.228	0.065	-0.008
-462.099	-93.933	-0.176	-0.048
-461.084	181.166	-0.133	-0.196
-460.070	800.000	0.013	-0.045
-459.055	-200.000	-0.027	0.253
-458.040	-47.008	0.192	0.094
-457.026	-200.000	0.020	-0.214
-456.011	139.987	-0.155	0.204
-454.997	54.555	0.165	0.159
-453.982	12.667	0.085	0.066
-452.968	178.104	-0.027	0.039
-451.953	-164.506	0.184	-0.008
-450.938	-200.000	0.045	0.231
-449.924	87.216	-0.047	-0.052
-448.909	-137.232	-0.244	0.028
-447.895	-200.000	-0.025	-0.128
-446.880	-129.447	0.176	0.024
-445.865	94.600	0.287	0.326
-444.851	-190.234	-0.018	0.000
-443.836	800.000	-0.149	-0.472
-442.822	-120.781	-0.124	-0.021
-441.807	-51.133	0.203	-0.095
-440.792	-77.249	-0.109	0.038
-439.778	25.576	-0.138	-0.115
-438.763	419.024	0.115	-0.245
-437.749	800.000	0.067	0.268
-436.734	-22.971	-0.258	-0.156
-435.719	-24.739	0.269	-0.160
-434.705	-132.973	-0.199	0.025
-433.690	-200.000	0.020	0.124
-432.676	800.000	0.033	-0.100
-431.661	0.748	-0.104	0.075
-430.646	-200.000	0.016	-0.126
-429.632	-130.122	0.501	0.068
-428.617	107.018	0.190	0.225
-427.603	-58.312	-0.129	0.056
-426.588	303.133	0.181	-0.335
-425.573	-200.000	-0.010	0.050
-424.559	-83.399	-0.154	-0.049
-423.544	61.353	-0.232	-0.230
-422.530	379.850	0.147	0.302
-421.515	7.358	0.166	-0.124
-420.500	-69.148	-0.153	0.059
-419.486	257.230	-0.085	0.147
-418.471	-145.099	0.295	0.027
-417.457	192.279	-0.075	0.113
-416.442	28.382	0.272	-0.230
-415.428	800.000	-0.113	-0.396
-414.413	-8.060	-0.126	-0.085
-413.398	156.377	-0.080	-0.111
-412.384	134.123	0.106	-0.137
-411.369	20.047	-0.141	-0.113
-410.355	216.820	0.047	-0.075
-409.340	-63.198	0.309	0.127
-408.325	-70.830	0.375	0.141
-407.311	-95.630	0.063	-0.017
-406.296	-110.337	0.150	0.031
-405.282	4.431	0.199	-0.145
-404.267	-82.545	-0.240	0.078
-403.252	-19.722	-0.104	0.064
-402.238	-200.000	-0.011	0.334
-401.223	299.798	-0.048	-0.088
-400.209	83.999	0.125	0.137
-399.194	246.170	0.157	0.264
-398.179	800.000	-0.091	-0.367
-397.165	-200.000	0.006	0.301
-396.150	577.475	0.161	-0.394
-395.136	800.000	0.012	0.038
-394.121	-76.572	0.092	-0.032
-393.106	-124.367	-0.175	-0.027
-392.092	759.009	-0.103	0.279
-391.077	800.000	-0.056	0.223
-390.063	800.000	-0.130	0.379
-389.048	-29.992	0.438	-0.249
-388.033	86.404	-0.137	0.150
-387.019	-63.106	0.126	-0.052
-386.004	-116.527	-0.190	0.035
-384.990	94.787	0.177	-0.200
-383.975	-159.203	-0.189	0.011
-382.960	85.547	-0.116	0.127
-381.946	-200.000	0.060	-0.281
-380.931	105.942	0.146	0.172
-379.917	-39.278	0.092	0.048
-378.902	-128.758	0.154	0.022
-377.888	800.000	-0.054	0.218
-376.873	-200.000	-0.007	-0.043
-375.858	272.182	0.123	0.217
-374.844	231.645	0.129	0.211
-373.829	-61.838	0.082	0.034
-372.815	205.712	0.157	-0.243
-371.800	202.890	0.087	0.134
-370.785	-149.458	-0.379	0.030
-369.771	-200.000	0.020	-0.092
-368.756	-75.337	0.172	0.061
-367.742	505.322	-0.050	0.114
-366.727	115.582	0.080	0.097
-365.712	-200.000	-0.020	-0.175
-364.698	46.325	0.098	-0.091
-363.683	8.990	0.089	-0.067
-362.669	-200.000	-0.030	0.247
-361.654	-167.171	-0.350	0.014
-360.639	-94.676	-0.110	-0.030
-359.625	-200.000	-0.001	0.097
-358.610	-125.328	-0.331	0.050
-357.596	-66.182	-0.269	0.107
-356.581	-82.971	0.311	0.100
-355.566	432.690	-0.164	-0.355
-354.552	-200.000	0.006	0.046
-353.537	-102.870	-0.223	0.053
-352.523	-174.747	-0.402	-0.011
-351.508	-200.000	-0.039	-0.341
-350.493	-80.283	-0.142	-0.047
-349.479	-69.518	0.041	0.016
-348.464	63.053	-0.137	-0.137
-347.450	-200.000	-0.010	0.248
-346.435	-200.000	0.000	0.063
-345.420	538.565	0.174	-0.413
-344.406	-200.000	-0.003	-0.099
-343.391	26.266	-0.162	-0.134
-342.377	-50.567	-0.305	-0.143
-341.362	95.523	0.205	-0.233
-340.348	800.000	0.022	0.088
-339.333	-106.235	0.067	0.015
-338.318	800.000	-0.035	0.142
-337.304	-188.926	-0.115	0.001
-336.289	40.857	0.035	0.032
-335.275	-37.456	-0.266	0.141
-334.260	285.298	0.053	-0.094
-333.245	-90.593	-0.104	0.030
-332.231	-67.226	-0.180	-0.070
-331.216	-200.000	-0.041	0.375
-330.202	-70.105	0.279	0.105
-329.187	-168.927	0.182	-0.007
-328.172	28.286	-0.103	0.086
-327.158	-200.000	-0.006	0.041
-326.143	69.721	0.144	-0.148
-325.129	-134.807	-0.122	0.015
-324.114	-7.362	-0.210	-0.141
-323.099	9.824	-0.155	-0.117
-322.085	-134.306	0.268	0.033
-321.070	-200.000	0.036	-0.262
-320.056	230.890	-0.170	0.278
-319.041	800.000	-0.090	0.309
-318.026	694.757	0.104	0.273
-317.012	24.774	0.304	0.251
-315.997	-200.000	-0.190	0.001
-314.983	-106.185	0.367	0.082
-313.968	-98.818	0.248	-0.063
-312.953	800.000	0.089	0.327
-311.939	485.696	0.046	0.104
-310.924	-200.000	-0.050	-0.252
-309.910	5.621	-0.143	-0.105
-308.895	-200.000	-0.065	-0.370
-307.880	57.897	0.205	-0.199
-306.866	-124.809	0.250	-0.038
-305.851	-13.933	-0.131	-0.084
-304.837	8.515	-0.200	0.150
-303.822	-125.250	-0.100	-0.015
-302.807	-200.000	0.012	0.273
-301.793	566.989	0.147	0.354
-300.778	-200.000	0.013	-0.280
-299.764	28.695	-0.265	-0.223
-298.749	-200.000	0.011	-0.148
-297.735	-63.653	0.212	-0.086
-296.720	-73.094	0.094	-0.034
-295.705	-77.281	0.324	0.112
-294.691	-200.000	0.008	0.336
-293.676	87.720	0.159	0.175
-292.662	164.132	-0.085	0.120
-291.647	-37.591	-0.044	-0.023
-290.632	800.000	-0.060	-0.221
-289.618	171.519	0.009	0.013
-288.603	-149.745	0.448	-0.035
-287.589	119.899	0.161	-0.199
-286.574	7.592	0.229	0.170
-285.559	-200.000	-0.004	0.042
-284.545	-33.878	0.154	-0.084
-283.530	107.471	0.139	-0.164
-282.516	11.762	0.190	-0.145
-281.501	-77.394	-0.137	0.047
-280.486	100.722	0.098	-0.113
-279.472	184.240	0.122	-0.179
-278.457	-126.531	0.484	-0.071
-277.443	502.305	-0.202	-0.462
-276.428	645.105	-0.066	-0.168
-275.413	101.306	0.035	0.040
-274.399	800.000	0.077	0.312
-273.384	-200.000	-0.003	-0.077
-272.370	-63.652	0.287	-0.117
-271.355	-57.955	0.232	-0.101
-270.340	800.000	-0.168	-0.560
-269.326	229.270	0.149	0.241
-268.311	-47.894	0.240	-0.115
-267.297	-200.000	-0.028	-0.141
-266.282	-77.974	-0.129	0.044
-265.267	-200.000	0.040	-0.211
-264.253	99.931	-0.068	0.079
-263.238	227.331	-0.116	0.186
-262.224	800.000	0.031	-0.085
-261.209	25.840	-0.104	0.086
-260.195	670.773	0.097	-0.250
-259.180	72.424	-0.062	-0.064
-258.165	67.918	-0.092	0.094
-257.151	800.000	0.134	0.397
-256.136	800.000	-0.029	-0.107
-255.122	40.545	0.177	0.158
-254.107	-200.000	0.002	-0.026
-253.092	751.290	0.063	-0.169
-252.078	-139.511	-0.199	0.021
-251.063	-80.101	0.156	0.052
-250.049	382.309	-0.083	-0.168
-249.034	-200.000	-0.004	0.357
-248.019	-143.133	0.071	-0.007
-247.005	170.855	0.065	0.093
-245.990	103.582	0.215	-0.251
-244.976	-88.500	0.243	-0.072
-243.961	-200.000	-0.021	0.153
-242.946	226.586	0.099	-0.159
-241.932	44.158	0.249	0.227
-240.917	-200.000	0.018	0.336
-239.903	-200.000	0.004	0.176
-238.888	103.637	0.113	0.132
-237.873	-137.117	-0.333	-0.038
-236.859	517.852	-0.059	-0.136
-235.844	-96.178	0.071	-0.019
-234.830	-88.499	-0.322	-0.095
-233.815	800.000	-0.081	0.266
-232.800	-159.952	0.202	0.011
-231.786	90.725	-0.179	0.199
-230.771	28.655	0.225	-0.189
-229.757	227.405	-0.060	-0.096
-228.742	-107.982	0.079	0.017
-227.727	254.796	-0.101	0.171
-226.713	315.262	0.138	-0.257
-225.698	68.434	-0.224	-0.227
-224.684	12.241	-0.086	-0.066
-223.669	269.720	-0.124	-0.216
-222.655	253.266	-0.103	0.173
-221.640	-156.212	0.204	-0.013
-220.625	-200.000	0.004	0.229
-219.611	169.516	0.182	0.258
-218.596	-47.436	0.130	-0.063
-217.582	-31.135	0.289	0.161
-216.567	-45.563	-0.358	-0.176
-215.552	439.852	-0.098	0.212
-214.538	53.165	0.113	0.107
-213.523	209.388	-0.102	-0.158
-212.509	-200.000	-0.014	0.120
-211.494	38.017	-0.096	0.084
-210.479	-111.636	-0.426	-0.086
-209.465	-28.189	0.350	0.200
-208.450	-200.000	-0.003	0.049
-207.436	800.000	-0.020	0.063
-206.421	90.543	-0.138	-0.153
-205.406	703.474	-0.072	0.188
-204.392	-109.442	0.457	-0.096
-203.377	77.898	-0.321	-0.339
-202.363	-160.406	0.112	-0.006
-201.348	-200.000	0.059	-0.291
-200.333	-200.000	-0.024	-0.139
-199.319	107.339	0.057	-0.067
-198.304	734.045	-0.077	0.204
-197.290	-134.190	0.401	-0.049
-196.275	-171.504	0.150	-0.005
-195.260	-147.387	-0.496	0.042
-194.246	-26.011	-0.090	0.052
-193.231	126.825	0.162	-0.203
-192.217	253.099	0.031	0.052
-191.202	-170.828	0.156	-0.005
-190.187	-200.000	-0.021	0.153
-189.173	128.530	0.129	-0.163
-188.158	800.000	-0.070	-0.209
-187.144	61.493	0.078	0.077
-186.129	113.396	-0.090	0.108
-185.114	-64.257	-0.122	0.049
-184.100	163.217	0.083	0.116
-183.085	166.750	0.043	-0.061
-182.071	-35.199	-0.088	-0.047
-181.056	763.374	0.124	0.334
-180.042	448.068	0.089	-0.194
-179.027	125.401	0.111	-0.139
-178.012	48.760	-0.204	-0.190
-176.998	155.472	-0.067	-0.091
-175.983	-200.000	-0.035	0.323
-174.969	800.000	-0.183	-0.645
-173.954	133.594	0.074	0.095
-172.939	38.664	0.055	0.048
-171.925	-30.801	-0.204	-0.114
-170.910	74.436	0.112	0.117
-169.896	-47.492	-0.328	-0.158
-168.881	-195.366	0.249	0.002
-167.866	119.363	-0.092	-0.113
-166.852	-56.182	0.029	-0.013
-165.837	227.859	-0.068	0.110
-164.823	-200.000	0.003	0.235
-163.808	-47.228	0.355	-0.171
-162.793	17.201	-0.104	0.082
-161.779	-156.932	0.296	0.018
-160.764	-200.000	-0.002	0.129
-159.750	800.000	0.029	-0.087
-158.735	-200.000	0.004	0.079
-157.720	359.868	0.162	0.320
-156.706	-200.000	-0.007	-0.061
-155.691	299.664	0.096	0.175
-154.677	559.097	0.072	-0.171
-153.662	-47.306	-0.385	-0.185
-152.647	800.000	-0.045	-0.176
-151.633	-131.069	0.243	-0.032
-150.618	-200.000	0.001	0.023
-149.604	121.960	0.209	-0.258
-148.589	-15.139	-0.260	0.164
-147.574	523.661	0.108	0.250
-146.560	-200.000	-0.019	0.452
-145.545	35.807	-0.180	0.156
-144.531	-200.000	0.023	0.127
-143.516	388.375	-0.147	0.301
-142.502	623.530	0.089	-0.223
-141.487	63.680	-0.121	-0.120
-140.472	134.450	0.085	-0.108
-139.458	73.268	0.148	0.153
-138.443	119.863	0.024	0.029
-137.429	-131.820	-0.263	0.034
-136.414	194.608	-0.099	-0.148
-135.399	11.029	0.189	-0.143
-134.385	267.519	0.037	0.063
-133.370	800.000	0.043	0.145
-132.356	-200.000	0.044	-0.237
-131.341	-46.510	0.248	0.120
-130.326	-49.015	0.228	-0.108
-129.312	-45.208	0.112	0.055
-128.297	-105.816	-0.112	0.025
-127.283	-69.578	0.201	0.076
-126.268	-200.000	0.009	0.264
-125.253	98.663	0.124	-0.141
-124.239	59.984	-0.224	0.219
-123.224	-114.354	-0.319	0.061
-122.210	-105.311	-0.194	-0.044
-121.195	173.169	0.067	-0.095
-120.180	152.689	0.140	0.189
-119.166	-200.000	0.007	0.426
-118.151	-70.721	0.375	0.140
-117.137	329.260	-0.119	0.225
-116.122	-200.000	0.006	-0.200
-115.107	-9.670	-0.209	-0.137
-114.093	-22.823	0.290	-0.173
-113.078	295.940	-0.160	-0.289
-112.064	584.424	0.075	-0.181
-111.049	-188.942	0.153	-0.002
-110.034	-200.000	-0.005	-0.086
-109.020	-200.000	-0.062	0.322
-108.005	-40.388	-0.156	0.080
-106.991	800.000	-0.047	-0.174
-105.976	-20.334	-0.209	0.127
-104.962	-200.000	-0.050	0.244
-103.947	-110.753	-0.155	-0.032
-102.932	232.258	-0.085	0.137
-101.918	-92.691	0.208	-0.057
-100.903	-200.000	0.020	-0.285
-99.889	111.571	-0.105	0.125
-98.874	-166.999	-0.170	-0.007
-97.859	386.461	-0.078	0.160
-96.845	478.757	-0.080	-0.178
-95.830	13.631	0.132	0.101
-94.816	-153.537	-0.186	-0.013
-93.801	800.000	-0.014	-0.055
-92.786	800.000	-0.046	-0.149
-91.772	-200.000	-0.002	0.033
-90.757	-31.271	-0.091	-0.050
-89.743	-105.743	0.200	0.045
-88.728	-152.458	0.072	-0.005
-87.713	174.547	0.111	0.158
-86.699	-91.577	0.184	0.052
-85.684	-36.026	0.106	-0.056
-84.670	239.269	-0.156	0.255
-83.655	-18.031	0.264	0.163
-82.640	316.890	0.170	-0.317
-81.626	800.000	-0.017	0.049
-80.611	-200.000	0.026	0.263
-79.597	-39.102	0.185	0.096
-78.582	75.570	-0.261	0.271
-77.567	764.113	-0.031	-0.082
-76.553	252.584	-0.080	-0.134
-75.538	-86.496	0.178	0.054
-74.524	771.533	-0.116	-0.312
-73.509	-200.000	-0.007	-0.109
-72.494	-86.427	0.489	0.148
-71.480	-153.129	-0.203	0.014
-70.465	-159.686	-0.104	-0.006
-69.451	-151.713	0.504	0.037
-68.436	-200.000	0.019	-0.090
-67.422	42.483	0.093	-0.083
-66.407	800.000	0.036	0.152
-65.392	-34.057	-0.080	0.043
-64.378	-88.131	0.052	0.015
-63.363	-77.962	0.140	0.047
-62.349	-36.181	0.181	0.096
-61.334	78.181	-0.964	-1.013
-60.319	800.000	0.064	0.267
-59.305	468.761	-0.305	-0.673
-58.290	219.360	0.614	0.966
-57.276	800.000	0.446	1.619
-56.261	-200.000	93.891	541.146
-55.246	524.050	1383.972	3202.602
-54.232	152.787	2585.481	3477.530
-53.217	111.464	2310.583	2742.044
-52.203	47.543	1928.293	1769.395
-51.188	40.990	1718.682	1526.906
-50.173	38.018	1674.696	1465.495
-49.159	54.120	1721.407	1629.254
-48.144	57.717	1738.988	1673.181
-47.130	40.580	1696.233	1503.615
-46.115	37.629	1681.334	1468.135
-45.100	37.450	1676.677	1462.668
-44.086	37.385	1674.024	1459.806
-43.071	37.440	1670.560	1457.136
-42.057	37.372	1668.569	1454.835
-41.042	37.451	1666.300	1453.387
-40.027	37.478	1664.189	1451.688
-39.013	37.465	1662.201	1449.805
-37.998	37.280	1661.497	1447.749
-36.984	37.488	1659.817	1447.780
-35.969	37.545	1657.828	1446.412
-34.954	37.596	1656.239	1445.343
-33.940	37.597	1654.650	1443.913
-32.925	37.522	1653.406	1442.212
-31.911	37.588	1651.296	1440.803
-30.896	37.436	1650.216	1438.677
-29.881	37.446	1648.156	1436.896
-28.867	37.498	1646.619	1435.886
-27.852	37.500	1645.353	1434.736
-26.838	37.609	1643.896	1434.213
-25.823	37.571	1642.175	1432.379
-24.809	37.519	1641.128	1431.020
-23.794	37.574	1639.125	1429.621
-22.779	37.573	1637.622	1428.252
-21.765	37.664	1635.829	1427.297
-20.750	37.617	1634.206	1425.480
-19.736	37.656	1632.873	1424.549
-18.721	37.614	1631.752	1423.202
-17.706	37.621	1630.269	1421.905
-16.692	37.505	1628.794	1419.714
-15.677	37.511	1627.440	1418.525
-14.663	37.596	1625.868	1417.715
-13.648	37.606	1624.554	1416.586
-12.633	37.574	1623.374	1415.265
-11.619	37.542	1621.314	1413.181
-10.604	37.635	1619.558	1412.271
-9.590	37.644	1618.527	1411.380
-8.575	37.589	1617.313	1409.866
-7.560	37.630	1616.050	1409.007
-6.546	37.494	1615.474	1407.468
-5.531	37.541	1613.905	1406.382
-4.517	37.497	1613.313	1405.497
-3.502	37.496	1612.015	1404.299
-2.487	37.687	1609.436	1403.376
-1.473	36.663	1596.758	1384.937
-0.458	31.825	1571.692	1328.945
0.556	24.077	1565.618	1272.349
1.571	20.080	1586.013	1259.814
2.586	18.696	1598.145	1259.195
3.600	16.756	1547.227	1205.177
4.615	9.579	1439.109	1073.204
5.629	2.110	1371.884	975.401
6.644	0.408	1363.033	958.216
7.659	0.212	1361.530	955.828
8.673	0.217	1360.699	955.191
9.688	0.134	1358.651	953.146
10.702	0.071	1355.460	950.423
11.717	3.254	1360.690	974.173
12.731	11.091	1372.878	1032.682
13.746	16.646	1379.751	1073.077
14.761	17.038	1380.610	1076.133
15.775	16.346	1377.908	1069.553
16.790	15.329	1375.461	1061.129
17.804	14.556	1372.672	1053.999
18.819	14.110	1371.973	1050.555
19.834	13.890	1369.815	1047.418
20.848	13.636	1368.934	1045.049
21.863	13.336	1367.672	1042.103
22.877	13.222	1366.276	1040.231
23.892	13.115	1365.411	1038.807
24.907	13.095	1365.035	1038.303
25.921	13.205	1363.921	1038.057
26.936	13.226	1362.611	1037.101
27.950	13.303	1361.677	1036.783
28.965	13.291	1361.071	1036.149
29.980	13.348	1360.137	1035.706
30.994	13.367	1359.426	1035.192
32.009	13.477	1357.635	1034.421
33.023	13.449	1356.738	1033.470
34.038	13.443	1355.384	1032.316
35.053	13.217	1354.920	1030.458
36.067	13.319	1353.210	1029.702
37.082	13.273	1352.719	1028.951
38.096	13.384	1351.545	1028.658
39.111	13.340	1350.842	1027.760
40.126	13.276	1349.894	1026.550
41.140	13.228	1349.458	1025.826
42.155	13.195	1348.717	1024.971
43.169	13.235	1348.804	1025.192
44.184	13.301	1348.222	1025.067
45.199	13.247	1348.227	1024.647
46.213	13.333	1346.972	1024.137
47.228	13.226	1346.424	1022.968
48.242	13.296	1344.942	1022.180
49.257	13.221	1343.908	1020.845
50.271	13.228	1342.633	1019.830
51.286	13.379	1341.163	1019.551
52.301	13.298	1339.822	1017.940
53.315	13.199	1338.961	1016.591
54.330	13.242	1337.726	1015.829
55.344	13.271	1336.316	1014.843
56.359	13.196	1335.690	1013.818
57.374	13.173	1334.564	1012.733
58.388	13.184	1333.852	1012.169
59.403	13.102	1333.328	1011.183
60.417	13.115	1332.691	1010.690
61.432	13.064	1331.853	1009.649
62.447	13.084	1331.224	1009.209
63.461	13.041	1329.880	1007.838
64.476	13.082	1328.702	1007.102
65.490	13.102	1327.619	1006.319
66.505	13.167	1325.794	1005.238
67.520	13.103	1324.688	1003.927
68.534	13.227	1323.434	1003.639
69.549	13.118	1322.583	1002.241
70.563	13.177	1321.181	1001.451
71.578	13.021	1320.232	999.697
72.593	13.051	1319.067	998.909
73.607	13.044	1318.665	998.473
74.622	12.962	1317.919	997.324
75.636	13.048	1317.304	997.288
76.651	13.033	1316.297	996.348
77.666	13.064	1315.656	995.961
78.680	13.028	1315.192	995.305
79.695	13.036	1314.259	994.556
80.709	12.989	1313.738	993.792
81.724	13.147	1312.725	993.890
82.739	13.184	1311.703	993.252
83.753	13.219	1311.236	993.021
84.768	13.247	1309.916	992.101
85.782	13.324	1308.654	991.516
86.797	13.208	1307.787	990.079
87.812	13.245	1306.212	989.022
88.826	13.180	1305.167	987.751
89.841	13.235	1304.029	987.134
90.855	13.281	1303.054	986.581
91.870	13.270	1302.465	985.984
92.884	13.293	1301.628	985.397
93.899	13.333	1300.596	984.769
94.914	13.425	1299.191	984.162
95.928	13.347	1298.622	983.185
96.943	13.366	1298.068	982.789
97.957	13.361	1296.964	981.835
98.972	13.285	1296.102	980.647
99.987	13.351	1294.507	979.745
101.001	13.345	1293.865	979.135
102.016	13.279	1293.272	978.211
103.030	13.370	1291.937	977.652
104.045	13.387	1291.111	977.042
105.060	13.333	1289.939	975.750
106.074	13.196	1289.065	974.194
107.089	13.150	1287.736	972.831
108.103	13.159	1286.134	971.591
109.118	13.172	1284.821	970.588
110.133	13.221	1283.125	969.509
111.147	13.174	1282.360	968.567
112.162	13.163	1280.855	967.279
113.176	13.302	1279.364	966.881
114.191	13.192	1279.129	965.978
115.206	13.275	1277.630	965.243
116.220	13.247	1276.817	964.379
117.235	13.276	1274.994	963.087
118.249	13.174	1274.721	962.201
119.264	13.193	1273.329	961.180
120.279	13.122	1272.318	959.915
121.293	13.111	1271.503	959.151
122.308	13.161	1270.224	958.391
123.322	13.152	1269.448	957.671
124.337	13.165	1268.439	956.900
125.352	13.194	1267.165	956.024
126.366	13.118	1265.869	954.519
127.381	13.153	1264.871	953.884
128.395	13.243	1263.562	953.332
129.410	13.151	1263.046	952.330
130.424	13.253	1262.088	952.111
131.439	13.249	1261.007	951.187
132.454	13.233	1259.987	950.242
133.468	13.366	1259.048	950.213
134.483	13.232	1258.647	949.056
135.497	13.244	1257.399	948.103
136.512	13.239	1256.575	947.368
137.527	13.279	1254.890	946.244
138.541	13.340	1253.147	945.191
139.556	13.228	1252.397	943.905
140.570	13.237	1251.694	943.341
141.585	13.357	1249.875	942.568
142.600	13.431	1248.873	942.154
143.614	13.466	1248.330	941.858
144.629	13.341	1247.441	940.395
145.643	13.369	1246.279	939.594
146.658	13.324	1244.686	938.055
147.673	13.371	1243.278	937.175
148.687	13.328	1241.840	935.768
149.702	13.313	1240.859	934.863
150.716	13.247	1239.998	933.755
151.731	13.349	1238.503	933.121
152.746	13.278	1237.230	931.680
153.760	13.392	1235.937	931.266
154.775	13.418	1234.921	930.566
155.789	13.484	1233.950	930.122
156.804	13.513	1232.896	929.409
157.819	13.488	1231.834	928.384
158.833	13.573	1230.783	927.986
159.848	13.616	1229.796	927.399
160.862	13.502	1229.086	926.148
161.877	13.549	1227.565	925.181
162.892	13.447	1226.683	923.865
163.906	13.493	1225.954	923.488
164.921	13.458	1225.041	922.527
165.935	13.362	1224.307	921.360
166.950	13.490	1223.435	921.331
167.964	13.481	1222.895	920.796
168.979	13.463	1221.866	919.837
169.994	13.513	1221.229	919.555
171.008	13.554	1220.111	918.859
172.023	13.624	1219.461	918.675
173.037	13.660	1218.266	917.893
174.052	13.593	1217.923	917.185
175.067	13.618	1216.458	916.137
176.081	13.532	1216.104	915.311
177.096	13.577	1214.915	914.587
178.110	13.609	1213.762	913.814
179.125	13.622	1212.400	912.780
180.140	13.579	1211.413	911.717
181.154	13.610	1210.037	910.774
182.169	13.705	1208.781	910.270
183.183	13.632	1208.118	909.288
184.198	13.774	1206.476	908.752
185.213	13.733	1205.741	907.894
186.227	13.659	1204.341	906.352
187.242	13.889	1202.788	906.361
188.256	13.767	1202.553	905.434
189.271	13.883	1201.220	904.985
190.286	13.727	1200.453	903.476
191.300	13.662	1199.388	902.241
192.315	13.604	1198.865	901.450
193.329	13.570	1198.320	900.778
194.344	13.614	1197.878	900.605
195.359	13.722	1197.187	900.595
196.373	13.676	1196.892	900.044
197.388	13.759	1196.275	899.949
198.402	13.815	1195.601	899.664
199.417	13.920	1194.828	899.574
200.432	13.890	1194.186	898.844
201.446	14.056	1192.523	898.412
202.461	13.951	1192.190	897.515
203.475	14.155	1190.946	897.601
204.490	14.015	1189.932	896.003
205.504	13.984	1188.623	894.773
206.519	13.938	1187.677	893.734
207.534	13.963	1186.279	892.737
208.548	14.022	1185.760	892.583
209.563	14.005	1184.807	891.697
210.577	13.989	1184.381	891.211
211.592	14.013	1183.284	890.436
212.607	14.080	1182.135	889.850
213.621	14.145	1181.193	889.410
214.636	14.079	1180.675	888.589
215.650	14.135	1179.959	888.267
216.665	14.135	1178.933	887.416
217.680	14.152	1177.869	886.629
218.694	14.177	1176.903	885.958
219.709	14.194	1176.785	885.878
220.723	14.212	1175.836	885.183
221.738	14.117	1175.235	884.147
222.753	14.176	1174.124	883.547
223.767	14.253	1173.341	883.290
224.782	14.321	1172.566	882.985
225.796	14.415	1171.880	882.892
226.811	14.375	1171.418	882.252
227.826	14.276	1171.018	881.347
228.840	14.391	1169.826	880.981
229.855	14.296	1169.368	880.058
230.869	14.388	1168.196	879.581
231.884	14.348	1167.365	878.665
232.899	14.246	1167.103	877.857
233.913	14.171	1166.451	876.889
234.928	14.261	1165.130	876.297
235.942	14.267	1164.571	875.827
236.957	14.207	1163.913	874.938
237.972	14.334	1162.965	874.817
238.986	14.249	1162.777	874.150
240.001	14.411	1161.586	874.028
241.015	14.321	1160.651	872.775
242.030	14.389	1159.851	872.454
243.045	14.488	1159.541	872.663
244.059	14.429	1158.767	871.695
245.074	14.437	1157.777	870.913
246.088	14.515	1156.759	870.475
247.103	14.495	1156.184	869.865
248.117	14.514	1155.379	869.283
249.132	14.652	1154.535	869.286
250.147	14.593	1154.136	868.602
251.161	14.813	1152.784	868.651
252.176	14.702	1152.209	867.564
253.190	14.634	1151.813	866.836
254.205	14.867	1151.470	867.711
255.220	14.706	1150.972	866.422
256.234	14.824	1150.069	866.277
257.249	14.797	1149.544	865.666
258.263	14.915	1148.715	865.578
259.278	14.924	1147.787	864.848
260.293	14.874	1147.436	864.250
261.307	14.948	1147.232	864.399
262.322	14.973	1146.103	863.600
263.336	14.908	1145.734	862.913
264.351	14.952	1145.088	862.575
265.366	15.004	1144.000	861.947
266.380	15.023	1143.639	861.696
267.395	15.140	1142.549	861.403
268.409	15.049	1141.930	860.394
269.424	15.039	1141.502	859.941
270.439	14.940	1141.087	859.047
271.453	15.003	1140.050	858.512
272.468	14.994	1139.214	857.761
273.482	14.942	1138.787	857.095
274.497	15.022	1137.896	856.758
275.512	14.997	1137.330	856.129
276.526	15.064	1136.362	855.668
277.541	15.112	1135.546	855.220
278.555	15.045	1135.252	854.582
279.570	15.042	1134.403	853.855
280.585	15.163	1133.269	853.541
281.599	15.323	1132.210	853.479
282.614	15.188	1131.349	852.071
283.628	15.057	1130.670	850.818
284.643	15.108	1129.651	850.234
285.657	15.179	1128.988	850.019
286.672	15.201	1127.569	848.990
287.687	15.189	1127.358	848.695
288.701	15.275	1126.538	848.437
289.716	15.297	1125.522	847.710
290.730	15.201	1124.964	846.727
291.745	15.415	1124.074	847.064
292.760	15.315	1123.520	846.065
293.774	15.416	1122.905	846.036
294.789	15.511	1122.402	846.063
295.803	15.379	1121.648	844.755
296.818	15.454	1120.918	844.508
297.833	15.310	1120.630	843.494
298.847	15.381	1119.429	842.868
299.862	15.337	1118.844	842.135
300.876	15.457	1118.153	842.143
301.891	15.475	1117.354	841.554
302.906	15.426	1116.527	840.614
303.920	15.537	1115.643	840.427
304.935	15.596	1115.110	840.247
305.949	15.443	1114.587	839.013
306.964	15.521	1113.839	838.765
307.979	15.593	1113.012	838.428
308.993	15.529	1112.743	837.831
310.008	15.696	1111.351	837.540
311.022	15.656	1110.854	836.896
312.037	15.704	1110.015	836.426
313.052	15.575	1109.575	835.380
314.066	15.544	1108.682	834.481
315.081	15.668	1107.504	834.131
316.095	15.567	1106.751	832.992
317.110	15.773	1105.755	833.189
318.125	15.565	1105.270	831.722
319.139	15.590	1104.700	831.340
320.154	15.674	1103.797	831.002
321.168	15.612	1103.459	830.368
322.183	15.678	1102.335	829.774
323.197	15.647	1102.079	829.355
324.212	15.674	1101.424	828.925
325.227	15.761	1100.882	828.872
326.241	15.779	1100.280	828.431
327.256	15.763	1099.594	827.764
328.270	15.706	1098.665	826.714
329.285	15.800	1097.385	826.138
330.300	15.732	1096.750	825.254
331.314	15.832	1095.716	824.894
332.329	15.689	1094.685	823.345
333.343	15.819	1093.773	823.220
334.358	15.852	1092.689	822.490
335.373	15.870	1092.366	822.261
336.387	15.953	1091.571	821.999
337.402	15.873	1091.169	821.230
338.416	15.916	1090.441	820.823
339.431	15.838	1090.059	820.081
340.446	15.971	1089.339	820.114
341.460	16.102	1088.533	820.071
342.475	16.081	1087.139	818.848
343.489	16.178	1086.285	818.600
344.504	16.117	1085.506	817.649
345.519	16.161	1084.686	817.171
346.533	16.244	1084.160	817.103
347.548	16.181	1083.457	816.198
348.562	16.168	1083.030	815.738
349.577	16.216	1081.817	814.987
350.592	16.117	1081.014	813.832
351.606	16.165	1080.179	813.360
352.621	16.124	1079.417	812.517
353.635	16.050	1079.065	811.828
354.650	16.256	1078.341	812.199
355.665	16.191	1077.439	811.136
356.679	16.279	1076.725	810.948
357.694	16.297	1076.436	810.745
358.708	16.142	1075.849	809.488
359.723	16.206	1075.173	809.215
360.738	16.283	1074.488	808.999
361.752	16.226	1074.133	808.386
362.767	16.240	1073.287	807.742
363.781	16.341	1072.809	807.796
364.796	16.328	1072.077	807.111
365.810	16.445	1071.584	807.226
366.825	16.469	1071.007	806.838
367.840	16.468	1070.453	806.344
368.854	16.478	1070.119	806.070
369.869	16.504	1069.343	805.536
370.883	16.563	1068.397	805.031
371.898	16.432	1067.644	803.769
372.913	16.570	1066.607	803.574
373.927	16.475	1066.607	803.054
374.942	16.586	1066.018	803.063
375.956	16.681	1065.227	802.850
376.971	16.505	1064.998	801.769
377.986	16.596	1064.012	801.390
379.000	16.654	1063.670	801.336
380.015	16.663	1063.319	801.039
381.029	16.708	1062.387	800.479
382.044	16.738	1061.605	799.965
383.059	16.605	1061.162	798.931
384.073	16.682	1060.362	798.622
385.088	16.676	1059.577	797.931
386.102	16.823	1058.475	797.721
387.117	16.816	1057.563	796.933
388.132	16.776	1056.845	796.130
389.146	16.771	1055.642	795.131
390.161	16.830	1054.731	794.652
391.175	16.742	1054.367	793.895
392.190	16.811	1053.943	793.828
393.205	16.924	1053.000	793.575
394.219	16.937	1052.111	792.896
395.234	16.865	1051.539	792.062
396.248	16.846	1050.378	791.027
397.263	16.842	1049.291	790.119
398.278	16.939	1048.357	789.797
399.292	16.850	1047.918	788.985
400.307	16.834	1047.395	788.447
401.321	16.821	1046.575	787.697
402.336	16.899	1046.336	787.812
403.350	16.874	1045.599	787.070
404.365	17.014	1044.616	786.910
405.380	16.900	1044.239	786.025
406.394	17.034	1043.533	786.045
407.409	16.970	1042.708	785.062
408.423	17.085	1041.745	784.797
409.438	17.097	1041.356	784.490
410.453	17.072	1040.563	783.706
411.467	17.230	1039.594	783.638
412.482	17.246	1039.082	783.258
413.496	17.095	1038.575	782.111
414.511	17.266	1037.762	782.212
415.526	17.253	1037.449	781.850
416.540	17.244	1036.905	781.328
417.555	17.294	1036.688	781.324
418.569	17.363	1035.662	780.800
419.584	17.274	1035.528	780.220
420.599	17.289	1034.824	779.689
421.613	97.575	1310.554	1429.432
422.628	89.447	1350.712	1429.556
