DTS Sentinel unit serial number:	SN413079Multiplexer serial number:	ORYXHardware model number:	OX4-SRSoftware version number:	ORYX F/W v4.00 Oryx Data Collector v3.7.2.0data status	okinstallation	princeton_trtdifferential loss correction	single-endedforward channel	channel 2reverse channel	N/Adate	2019/09/18time	00:35:35forward acquisition time	60.00reverse acquisition time	0.00gamma	496.2192k internal	0.2350k external	0.2350temperature offset calibration	0.9984default loss term (dB/km)	0.3790temperature slope calibration	1.0000multiplexer offset coefficient	1.0000multiplexer slope coefficient	1.0000fibre end	0.00T internal ref (°C)	23.50T ext. ref 1 (°C)	0.16T ext. ref 2 (°C)	17.17length (m)	temperature (°C)	Stokes	anti-Stokes-747.200	-23.465	0.397	0.238
-746.185	24.498	0.012	-0.010
-745.171	800.000	-0.100	-0.321
-744.156	330.817	-0.125	-0.241
-743.142	-70.153	0.190	0.072
-742.127	-35.116	-0.035	-0.019
-741.112	39.825	0.140	0.126
-740.098	-12.718	0.597	0.389
-739.083	-50.970	0.066	0.031
-738.069	45.106	-0.121	0.111
-737.054	99.273	-0.117	0.135
-736.039	512.684	-0.137	0.318
-735.025	-200.000	-0.037	0.185
-734.010	155.094	0.200	-0.275
-732.996	-56.213	-0.124	0.055
-731.981	800.000	-0.061	0.213
-730.966	-44.599	-0.181	-0.090
-729.952	299.497	0.119	-0.218
-728.937	-126.992	0.109	0.016
-727.923	-200.000	-0.004	-0.353
-726.908	-2.797	-0.461	-0.321
-725.894	-200.000	-0.014	-0.101
-724.879	-79.101	0.349	-0.118
-723.864	195.748	-0.123	-0.187
-722.850	-29.677	-0.233	0.133
-721.835	103.259	-0.211	0.246
-720.821	-121.833	-0.209	-0.034
-719.806	-53.209	-0.104	-0.048
-718.791	800.000	0.135	0.382
-717.777	-22.961	0.493	0.297
-716.762	-200.000	0.003	0.048
-715.748	-200.000	-0.007	0.268
-714.733	95.810	-0.153	0.174
-713.718	12.346	0.286	-0.220
-712.704	255.063	-0.129	-0.220
-711.689	13.211	0.191	0.148
-710.675	-10.232	-0.416	0.276
-709.660	20.205	-0.226	-0.182
-708.645	800.000	0.085	-0.345
-707.631	-34.992	0.237	0.129
-706.616	800.000	0.040	0.131
-705.602	-47.523	-0.252	-0.122
-704.587	-200.000	0.034	-0.336
-703.572	267.226	0.064	-0.112
-702.558	21.941	-0.236	0.191
-701.543	-126.095	-0.156	-0.023
-700.529	77.492	0.243	0.258
-699.514	-151.369	-0.206	-0.015
-698.499	-200.000	-0.039	-0.257
-697.485	-58.268	0.157	0.068
-696.470	-32.353	-0.268	-0.149
-695.456	-200.000	0.007	0.169
-694.441	-44.897	0.187	0.093
-693.426	-118.795	0.134	0.023
-692.412	-133.898	-0.074	0.009
-691.397	-62.590	0.110	0.045
-690.383	-104.360	0.285	0.066
-689.368	-13.907	-0.145	-0.094
-688.354	-110.538	0.144	0.030
-687.339	-145.043	0.248	0.023
-686.324	-109.730	0.099	-0.021
-685.310	139.451	-0.129	-0.169
-684.295	-200.000	-0.026	0.269
-683.281	-184.997	-0.302	0.005
-682.266	244.821	-0.039	-0.065
-681.251	-9.490	-0.077	-0.051
-680.237	-200.000	-0.011	0.175
-679.222	-200.000	0.017	-0.093
-678.208	800.000	0.091	-0.279
-677.193	414.223	0.048	-0.101
-676.178	800.000	-0.127	-0.421
-675.164	800.000	-0.035	-0.110
-674.149	-173.642	0.187	0.006
-673.135	-107.632	0.349	-0.076
-672.120	-200.000	0.000	-0.273
-671.105	-21.315	0.121	-0.074
-670.091	7.390	0.318	0.237
-669.076	-161.023	-0.407	-0.021
-668.062	-174.687	0.270	-0.008
-667.047	-200.000	0.008	-0.253
-666.032	-90.965	-0.347	-0.099
-665.018	-200.000	-0.042	-0.279
-664.003	237.061	0.044	-0.072
-662.989	-80.723	0.178	0.059
-661.974	-200.000	-0.027	-0.295
-660.959	800.000	-0.050	0.210
-659.945	280.528	0.118	0.210
-658.930	-78.932	-0.224	0.076
-657.916	-195.156	0.362	-0.003
-656.901	-73.583	0.234	-0.085
-655.886	800.000	-0.127	0.423
-654.872	141.300	-0.106	-0.139
-653.857	-200.000	-0.049	-0.277
-652.843	-59.370	-0.350	-0.150
-651.828	-200.000	0.327	-0.001
-650.814	-92.474	-0.265	-0.074
-649.799	-139.509	-0.376	0.040
-648.784	-11.390	0.135	0.088
-647.770	-109.832	-0.266	0.056
-646.755	-49.806	0.272	0.128
-645.741	800.000	0.036	-0.149
-644.726	-102.939	0.190	0.045
-643.711	-188.127	0.415	0.005
-642.697	-101.194	0.060	0.015
-641.682	25.482	0.153	-0.127
-640.668	758.112	-0.063	-0.169
-639.653	99.583	0.088	-0.101
-638.638	-100.599	-0.290	0.071
-637.624	607.856	0.137	-0.339
-636.609	-87.614	0.512	-0.154
-635.595	107.882	-0.127	-0.150
-634.580	-82.717	-0.340	-0.109
-633.565	-200.000	-0.004	0.282
-632.551	485.107	-0.126	-0.286
-631.536	628.410	-0.054	-0.135
-630.522	-18.349	-0.346	-0.215
-629.507	684.758	-0.060	-0.156
-628.492	81.480	0.249	0.267
-627.478	23.132	0.255	-0.208
-626.463	394.051	0.105	-0.218
-625.449	466.981	-0.076	0.170
-624.434	-18.621	0.139	0.086
-623.419	8.280	-0.220	-0.164
-622.405	-107.163	-0.223	0.049
-621.390	19.235	0.072	0.058
-620.376	17.139	-0.111	0.087
-619.361	46.742	-0.134	0.123
-618.346	-19.454	-0.057	0.035
-617.332	-200.000	0.016	0.147
-616.317	91.180	-0.218	-0.243
-615.303	12.742	0.081	-0.062
-614.288	-200.000	-0.007	-0.104
-613.273	696.597	-0.051	0.133
-612.259	-56.560	-0.159	0.070
-611.244	74.735	0.268	0.280
-610.230	-45.959	-0.104	-0.051
-609.215	-147.811	0.189	0.016
-608.201	-178.484	0.161	0.004
-607.186	-2.980	-0.292	0.203
-606.171	-57.281	-0.126	0.055
-605.157	-81.794	0.105	-0.034
-604.142	-90.441	0.121	-0.035
-603.128	-20.455	-0.357	0.218
-602.113	292.513	-0.052	0.094
-601.098	274.703	0.081	0.143
-600.084	-200.000	-0.062	-0.309
-599.069	-80.531	0.319	-0.105
-598.055	163.184	-0.050	-0.070
-597.040	-1.205	0.108	0.076
-596.025	0.816	-0.268	0.190
-595.011	800.000	-0.025	-0.094
-593.996	45.782	-0.071	0.065
-592.982	800.000	0.089	0.346
-591.967	800.000	-0.049	-0.146
-590.952	800.000	-0.086	-0.291
-589.938	-151.613	0.150	0.011
-588.923	-123.658	-0.482	-0.076
-587.909	800.000	0.022	-0.077
-586.894	-78.490	0.086	-0.029
-585.879	-108.513	0.113	0.024
-584.865	-200.000	0.003	-0.173
-583.850	1.532	-0.354	-0.253
-582.836	-12.275	0.020	0.013
-581.821	-50.015	0.254	-0.119
-580.806	-32.740	-0.043	-0.023
-579.792	193.962	-0.036	0.054
-578.777	29.923	-0.142	0.120
-577.763	-137.234	0.187	0.021
-576.748	-70.283	-0.590	0.222
-575.733	393.295	0.050	0.103
-574.719	184.894	0.097	-0.143
-573.704	-200.000	0.058	0.402
-572.690	509.659	-0.101	0.234
-571.675	-115.521	-0.085	0.016
-570.661	129.599	-0.109	-0.139
-569.646	800.000	0.072	-0.202
-568.631	92.285	-0.164	0.183
-567.617	263.646	0.158	0.272
-566.602	-42.615	0.159	0.080
-565.588	-200.000	-0.068	-0.329
-564.573	144.077	0.135	-0.179
-563.558	-99.441	0.282	0.070
-562.544	60.451	-0.075	0.074
-561.529	-200.000	-0.023	-0.263
-560.515	-30.013	0.193	-0.109
-559.500	-125.752	0.080	-0.012
-558.485	478.674	-0.061	0.137
-557.471	-122.954	-0.024	-0.004
-556.456	-200.000	0.015	-0.078
-555.442	-36.751	0.072	0.038
-554.427	4.254	-0.205	0.149
-553.412	800.000	-0.066	0.189
-552.398	-84.342	0.234	-0.073
-551.383	-169.613	-0.247	-0.009
-550.369	-200.000	-0.023	0.115
-549.354	90.779	0.113	0.126
-548.339	169.295	0.146	0.206
-547.325	83.574	0.036	-0.039
-546.310	617.852	-0.124	-0.309
-545.296	-22.020	0.176	0.106
-544.281	-200.000	-0.001	0.041
-543.266	15.228	0.057	-0.044
-542.252	-200.000	-0.032	-0.287
-541.237	6.994	-0.078	-0.057
-540.223	-52.582	-0.198	-0.091
-539.208	-68.503	-0.225	0.086
-538.193	-110.035	0.237	-0.049
-537.179	160.171	-0.055	0.076
-536.164	-134.521	0.363	-0.044
-535.150	-72.994	0.175	0.063
-534.135	-32.998	-0.081	0.045
-533.121	327.824	0.032	-0.061
-532.106	-73.921	-0.085	0.031
-531.091	58.511	-0.096	0.093
-530.077	-200.000	-0.020	-0.270
-529.062	137.888	0.138	-0.179
-528.048	-200.000	-0.061	-0.287
-527.033	800.000	0.089	-0.242
-526.018	417.026	0.042	-0.090
-525.004	226.613	0.161	0.258
-523.989	-34.235	-0.434	0.236
-522.975	-140.179	0.099	-0.010
-521.960	800.000	-0.081	0.307
-520.945	288.451	-0.155	-0.277
-519.931	-60.104	0.182	-0.077
-518.916	-73.004	0.367	0.133
-517.902	146.503	-0.141	-0.188
-516.887	-134.877	0.202	-0.024
-515.872	-10.790	-0.139	0.091
-514.858	9.159	0.163	0.122
-513.843	17.028	-0.379	-0.297
-512.829	-200.000	-0.060	0.288
-511.814	-80.658	0.177	-0.058
-510.799	227.081	0.079	-0.127
-509.785	31.089	-0.337	-0.286
-508.770	800.000	0.053	-0.182
-507.756	-66.985	0.169	-0.066
-506.741	198.815	-0.185	-0.280
-505.726	-68.192	0.194	-0.075
-504.712	223.024	-0.093	0.148
-503.697	-200.000	-0.055	0.264
-502.683	-74.643	-0.197	0.070
-501.668	-200.000	-0.060	-0.283
-500.653	-200.000	0.030	-0.324
-499.639	800.000	-0.120	-0.473
-498.624	800.000	0.145	0.435
-497.610	332.672	0.172	0.328
-496.595	178.684	0.045	0.065
-495.581	140.251	0.195	-0.254
-494.566	197.986	-0.264	-0.398
-493.551	116.495	0.075	-0.091
-492.537	-13.008	-0.380	-0.244
-491.522	-7.879	0.178	0.119
-490.508	-154.829	-0.223	-0.015
-489.493	271.252	-0.064	0.111
-488.478	-12.884	-0.292	0.188
-487.464	-187.394	0.252	0.003
-486.449	-103.323	-0.198	-0.046
-485.435	61.284	-0.304	-0.299
-484.420	-6.918	-0.166	0.112
-483.405	165.386	-0.173	-0.241
-482.391	-82.952	-0.316	0.101
-481.376	14.680	0.156	-0.121
-480.362	-79.834	0.264	0.088
-479.347	800.000	0.066	-0.233
-478.332	-14.537	-0.127	-0.081
-477.318	-200.000	0.008	0.045
-476.303	-200.000	0.024	0.205
-475.289	5.449	0.136	-0.099
-474.274	54.606	-0.119	-0.113
-473.259	-86.353	-0.270	0.082
-472.245	-200.000	0.005	0.063
-471.230	-112.891	-0.318	-0.062
-470.216	-24.129	0.177	0.105
-469.201	800.000	0.005	-0.020
-468.186	-200.000	0.022	0.159
-467.172	54.421	-0.053	0.051
-466.157	-200.000	0.024	-0.106
-465.143	-200.000	-0.010	-0.111
-464.128	-100.804	0.207	-0.050
-463.113	306.496	-0.074	0.136
-462.099	188.278	-0.111	0.164
-461.084	800.000	-0.030	0.090
-460.070	67.057	-0.044	-0.044
-459.055	-107.750	-0.189	-0.041
-458.040	-131.298	-0.250	0.033
-457.026	-153.185	0.347	0.024
-456.011	19.830	0.315	-0.250
-454.997	-15.676	0.090	-0.057
-453.982	-200.000	0.017	-0.108
-452.968	-129.842	0.117	-0.016
-451.953	-200.000	-0.030	-0.227
-450.938	88.769	-0.123	-0.135
-449.924	360.804	0.049	0.096
-448.909	-84.834	0.184	0.057
-447.895	28.119	-0.084	0.070
-446.880	-64.537	0.242	-0.097
-445.865	-57.930	-0.251	-0.108
-444.851	-152.245	-0.190	0.014
-443.836	-26.801	0.156	0.090
-442.822	166.326	0.177	-0.247
-441.807	800.000	0.060	0.207
-440.792	-15.758	-0.154	0.097
-439.778	-165.541	0.221	-0.010
-438.763	800.000	-0.071	-0.243
-437.749	-200.000	-0.015	0.167
-436.734	-169.442	0.034	-0.001
-435.719	34.359	0.053	0.046
-434.705	-82.753	0.443	0.141
-433.690	434.536	-0.083	0.178
-432.676	316.553	0.084	-0.156
-431.661	687.972	-0.038	0.099
-430.646	-119.075	0.344	0.059
-429.632	-68.127	-0.060	-0.023
-428.617	145.239	0.251	-0.331
-427.603	128.650	0.214	-0.269
-426.588	-151.339	-0.120	0.009
-425.573	166.940	-0.015	-0.021
-424.559	-17.608	0.206	-0.128
-423.544	-14.334	-0.205	0.130
-422.530	-76.220	0.017	0.006
-421.515	-116.019	-0.067	-0.012
-420.500	800.000	0.028	0.087
-419.486	-200.000	0.053	0.330
-418.471	105.901	0.062	-0.072
-417.457	-190.025	-0.041	-0.000
-416.442	182.639	-0.104	-0.151
-415.428	44.773	0.082	0.075
-414.413	158.244	0.191	0.261
-413.398	-2.919	-0.315	0.217
-412.384	-119.505	0.066	-0.011
-411.369	-200.000	-0.013	-0.204
-410.355	-152.691	-0.088	0.006
-409.340	-91.212	0.106	0.030
-408.325	-193.023	-0.145	0.001
-407.311	83.310	-0.138	-0.148
-406.296	-60.426	0.113	0.047
-405.282	800.000	0.048	0.137
-404.267	-200.000	-0.010	-0.302
-403.252	597.384	0.031	-0.076
-402.238	488.826	-0.068	-0.154
-401.223	-27.670	-0.349	0.200
-400.209	133.444	-0.046	0.058
-399.194	469.493	-0.049	-0.107
-398.179	-55.938	-0.131	-0.058
-397.165	141.695	0.106	-0.138
-396.150	85.993	-0.070	0.076
-395.136	28.809	-0.104	-0.087
-394.121	74.469	-0.394	0.408
-393.106	-200.000	-0.023	-0.161
-392.092	126.308	0.146	0.182
-391.077	-200.000	-0.077	-0.335
-390.063	-32.648	-0.336	-0.184
-389.048	40.148	0.151	-0.134
-388.033	-134.869	0.254	-0.030
-387.019	-127.635	-0.185	-0.026
-386.004	-165.604	-0.164	-0.007
-384.990	-200.000	-0.012	0.169
-383.975	44.691	0.137	-0.124
-382.960	18.289	-0.065	-0.051
-381.946	-123.174	-0.165	-0.026
-380.931	-200.000	-0.033	0.313
-379.917	242.369	-0.109	-0.179
-378.902	-200.000	-0.021	-0.215
-377.888	-76.946	-0.249	0.086
-376.873	-51.308	-0.115	0.053
-375.858	-60.694	-0.078	0.032
-374.844	4.318	-0.241	-0.173
-373.829	447.127	-0.069	0.149
-372.815	-200.000	0.007	0.232
-371.800	518.794	0.138	0.319
-370.785	236.962	0.146	0.238
-369.771	117.574	-0.258	0.313
-368.756	-200.000	0.009	-0.166
-367.742	-200.000	0.023	-0.341
-366.727	44.308	-0.170	-0.154
-365.712	-101.473	-0.192	0.046
-364.698	-200.000	0.035	-0.278
-363.683	47.535	0.021	-0.019
-362.669	-200.000	0.013	-0.333
-361.654	296.036	0.213	0.383
-360.639	-170.747	-0.228	-0.008
-359.625	-147.480	0.283	0.024
-358.610	-129.886	0.205	-0.028
-357.596	-102.695	0.068	-0.016
-356.581	259.282	-0.164	0.278
-355.566	-75.290	0.201	-0.070
-354.552	78.783	-0.214	0.225
-353.537	-130.104	0.369	0.049
-352.523	308.786	0.032	-0.059
-351.508	-105.595	-0.430	0.096
-350.493	310.062	0.181	0.333
-349.479	102.699	-0.175	-0.201
-348.464	97.592	0.063	0.071
-347.450	19.933	0.073	-0.058
-346.435	12.228	-0.108	0.082
-345.420	270.690	0.092	-0.160
-344.406	-85.644	0.249	0.076
-343.391	-200.000	0.019	0.305
-342.377	150.396	-0.095	-0.127
-341.362	204.458	-0.046	-0.070
-340.348	-23.296	-0.254	-0.150
-339.333	61.731	-0.225	-0.220
-338.318	-121.493	-0.255	0.042
-337.304	285.310	0.086	0.152
-336.289	-200.000	-0.035	-0.437
-335.275	800.000	0.033	0.105
-334.260	-37.607	0.202	-0.106
-333.245	678.376	-0.132	-0.337
-332.231	98.953	0.095	-0.108
-331.216	56.436	-0.302	0.289
-330.202	-127.948	0.240	0.034
-329.187	158.838	-0.071	0.096
-328.172	-200.000	0.008	0.170
-327.158	-136.481	-0.122	0.014
-326.143	-178.383	0.564	-0.013
-325.129	-200.000	-0.046	-0.227
-324.114	-20.056	0.225	-0.136
-323.099	52.697	0.148	-0.139
-322.085	-173.334	-0.114	0.003
-321.070	-25.116	0.138	-0.080
-320.056	116.463	0.099	0.119
-319.041	800.000	-0.048	0.168
-318.026	-140.636	0.050	0.005
-317.012	-49.502	0.267	0.125
-315.997	-200.000	-0.023	-0.112
-314.983	-97.845	-0.095	0.024
-313.968	40.971	0.194	-0.172
-312.953	-200.000	0.032	0.223
-311.939	82.814	0.016	-0.017
-310.924	-134.373	0.150	-0.018
-309.910	3.298	-0.285	-0.204
-308.895	789.946	0.094	0.254
-307.880	726.274	0.046	-0.121
-306.866	-53.361	-0.093	-0.042
-305.851	800.000	-0.011	0.035
-304.837	99.428	0.146	-0.166
-303.822	-38.563	-0.219	-0.114
-302.807	648.794	0.018	0.044
-301.793	-200.000	-0.012	0.171
-300.778	-200.000	-0.053	-0.328
-299.764	156.096	0.135	0.182
-298.749	-94.860	0.116	0.031
-297.735	-12.913	-0.147	0.094
-296.720	77.198	0.067	-0.070
-295.705	-43.589	0.144	0.071
-294.691	93.037	-0.152	0.169
-293.676	424.328	0.067	-0.141
-292.662	-153.771	0.367	-0.025
-291.647	-87.040	0.128	-0.038
-290.632	62.139	-0.183	-0.179
-289.618	-168.207	0.199	-0.008
-288.603	3.570	0.248	0.177
-287.589	-131.308	-0.374	0.049
-286.574	-200.000	-0.015	0.117
-285.559	-52.296	0.139	-0.063
-284.545	-117.520	-0.128	-0.023
-283.530	-200.000	-0.017	-0.118
-282.516	102.252	0.231	-0.264
-281.501	-117.906	-0.452	-0.079
-280.486	-46.571	0.138	0.066
-279.472	-2.677	-0.350	0.240
-278.457	149.991	-0.107	-0.142
-277.443	-200.000	0.009	0.044
-276.428	551.576	0.055	-0.130
-275.413	-200.000	-0.011	0.138
-274.399	-74.947	-0.157	0.055
-273.384	1.948	0.242	-0.171
-272.370	513.128	0.184	0.421
-271.355	-118.075	0.128	-0.022
-270.340	237.294	0.083	-0.134
-269.326	202.308	-0.099	-0.150
-268.311	-61.229	-0.208	0.086
-267.297	430.724	-0.048	-0.102
-266.282	183.077	-0.158	0.228
-265.267	-200.000	0.003	0.018
-264.253	-44.029	-0.253	-0.124
-263.238	-32.506	-0.135	0.074
-262.224	-55.170	0.258	0.114
-261.209	-200.000	-0.269	0.000
-260.195	8.155	0.304	-0.224
-259.180	30.644	-0.118	-0.099
-258.165	115.122	0.517	0.619
-257.151	395.978	0.211	0.432
-256.136	-41.792	-0.080	-0.040
-255.122	800.000	-0.059	-0.244
-254.107	-200.000	0.001	0.129
-253.092	-200.000	0.009	-0.042
-252.078	128.239	-0.091	0.114
-251.063	-75.492	0.273	0.095
-250.049	-156.137	0.448	-0.028
-249.034	74.216	0.121	0.125
-248.019	-16.543	-0.183	-0.113
-247.005	-75.496	0.099	-0.035
-245.990	182.990	-0.092	-0.133
-244.976	296.268	-0.174	-0.312
-243.961	-200.000	0.038	0.277
-242.946	188.256	0.122	0.179
-241.932	-200.000	-0.023	0.130
-240.917	-63.926	-0.028	0.011
-239.903	725.089	-0.109	-0.285
-238.888	215.032	0.252	-0.391
-237.873	-200.000	-0.023	-0.271
-236.859	-138.385	-0.019	0.002
-235.844	57.080	-0.165	-0.157
-234.830	-200.000	0.033	0.167
-233.815	-52.513	-0.431	0.195
-232.800	-30.304	0.089	0.050
-231.786	73.055	-0.161	0.164
-230.771	-200.000	0.036	-0.173
-229.757	-139.174	-0.157	0.017
-228.742	-31.716	0.227	0.125
-227.727	252.407	0.158	-0.264
-226.713	-122.632	-0.257	0.041
-225.698	800.000	-0.079	-0.298
-224.684	198.281	0.042	-0.063
-223.669	-200.000	-0.017	0.407
-222.655	-200.000	-0.013	0.208
-221.640	-1.606	0.072	-0.050
-220.625	119.789	0.061	0.074
-219.611	684.006	-0.011	-0.028
-218.596	31.471	0.175	0.147
-217.582	63.960	0.237	-0.233
-216.567	3.940	0.269	-0.193
-215.552	-200.000	0.065	0.469
-214.538	38.006	-0.088	-0.076
-213.523	10.109	0.221	-0.164
-212.509	-42.464	0.147	0.073
-211.494	132.939	-0.028	-0.035
-210.479	221.059	0.244	-0.382
-209.465	129.409	0.044	0.056
-208.450	800.000	-0.113	0.365
-207.436	-200.000	-0.004	0.186
-206.421	-161.881	-0.135	-0.007
-205.406	134.139	0.177	-0.224
-204.392	-65.657	-0.133	-0.052
-203.377	-49.588	-0.065	-0.030
-202.363	-102.616	0.225	0.053
-201.348	-158.230	-0.207	0.012
-200.333	115.438	0.254	0.304
-199.319	-60.885	-0.183	0.076
-198.304	-138.146	0.304	-0.033
-197.290	-75.441	0.016	0.006
-196.275	305.152	-0.100	-0.182
-195.260	-35.701	0.112	-0.059
-194.246	4.990	0.293	-0.211
-193.231	-95.277	-0.189	-0.050
-192.217	-92.181	0.129	0.036
-191.202	-44.895	0.252	0.123
-190.187	-93.511	-0.069	0.019
-189.173	275.513	-0.150	-0.259
-188.158	593.965	0.145	0.351
-187.144	-200.000	-0.025	0.296
-186.129	-92.582	0.317	-0.087
-185.114	40.377	-0.260	0.228
-184.100	-200.000	0.063	0.402
-183.085	231.429	0.100	0.161
-182.071	800.000	-0.110	-0.329
-181.056	10.643	-0.039	-0.029
-180.042	-175.669	0.062	0.002
-179.027	245.974	0.154	0.253
-178.012	18.754	0.374	0.292
-176.998	58.384	-0.020	-0.019
-175.983	800.000	-0.074	-0.204
-174.969	58.314	0.092	0.088
-173.954	-8.359	0.123	0.081
-172.939	-13.742	-0.044	0.028
-171.925	-35.880	-0.394	-0.208
-170.910	9.318	0.106	-0.079
-169.896	-17.470	0.529	0.325
-168.881	-89.785	-0.287	-0.082
-167.866	-200.000	-0.050	-0.256
-166.852	614.305	0.132	0.322
-165.837	-5.262	-0.487	-0.327
-164.823	-200.000	0.003	0.183
-163.808	-7.472	-0.160	0.105
-162.793	800.000	-0.102	0.413
-161.779	-200.000	-0.027	0.138
-160.764	-132.049	0.169	0.021
-159.750	252.805	-0.142	0.237
-158.735	-5.297	0.130	-0.087
-157.720	-111.847	-0.229	0.045
-156.706	116.307	-0.117	0.140
-155.691	800.000	0.123	0.497
-154.677	-175.080	0.385	-0.010
-153.662	249.017	-0.189	0.312
-152.647	734.534	-0.105	0.274
-151.633	146.117	-0.065	0.085
-150.618	-73.907	0.654	0.232
-149.604	-123.985	-0.134	0.021
-148.589	-3.447	-0.222	0.151
-147.574	-3.227	0.118	0.080
-146.560	-4.392	0.173	-0.117
-145.545	-185.464	-0.268	0.004
-144.531	99.852	0.152	-0.172
-143.516	-59.243	0.272	-0.114
-142.502	-76.622	0.221	-0.076
-141.487	800.000	0.044	0.183
-140.472	22.209	0.213	-0.170
-139.458	-200.000	-0.018	0.252
-138.443	800.000	-0.091	0.380
-137.429	182.719	0.100	-0.144
-136.414	-150.858	0.145	-0.011
-135.399	-200.000	0.008	0.059
-134.385	800.000	0.022	0.075
-133.370	800.000	0.080	0.267
-132.356	363.140	0.108	-0.212
-131.341	-200.000	0.018	0.100
-130.326	175.066	0.173	0.244
-129.312	-17.379	0.141	-0.087
-128.297	-11.532	-0.057	-0.037
-127.283	-32.961	0.046	-0.025
-126.268	-200.000	0.013	-0.264
-125.253	-37.339	0.134	-0.070
-124.239	-96.264	0.137	-0.035
-123.224	-25.738	0.280	0.161
-122.210	-200.000	-0.024	0.157
-121.195	-62.343	0.236	0.096
-120.180	-164.472	0.138	-0.006
-119.166	508.219	0.050	-0.113
-118.151	-200.000	0.062	0.288
-117.137	-200.000	-0.047	0.313
-116.122	241.098	-0.151	-0.245
-115.107	-185.109	0.303	-0.005
-114.093	-64.858	-0.308	-0.121
-113.078	-96.373	-0.281	0.073
-112.064	-47.377	0.282	-0.134
-111.049	-45.222	-0.120	-0.058
-110.034	-200.000	0.043	0.331
-109.020	0.763	0.053	-0.037
-108.005	-116.540	-0.133	-0.024
-106.991	-87.428	-0.062	0.018
-105.976	171.415	0.057	-0.080
-104.962	800.000	0.069	-0.238
-103.947	-86.802	0.396	0.118
-102.932	-200.000	0.020	0.099
-101.918	147.790	-0.072	0.094
-100.903	-200.000	0.024	0.152
-99.889	397.327	-0.073	-0.149
-98.874	60.051	0.253	-0.243
-97.859	800.000	-0.023	0.079
-96.845	28.099	-0.238	0.195
-95.830	-84.459	0.158	-0.049
-94.816	42.275	-0.162	0.143
-93.801	-145.048	0.076	-0.007
-92.786	-15.206	-0.103	-0.064
-91.772	-86.107	-0.293	-0.088
-90.757	752.893	-0.060	-0.158
-89.743	-70.829	0.197	0.072
-88.728	198.665	-0.160	-0.239
-87.713	10.194	0.426	0.315
-86.699	107.905	-0.093	-0.108
-85.684	-200.000	-0.004	0.060
-84.670	800.000	0.058	0.219
-83.655	-104.270	0.475	0.107
-82.640	-61.586	0.151	-0.062
-81.626	-92.513	0.254	0.069
-80.611	-75.313	0.170	0.059
-79.597	-200.000	-0.008	-0.286
-78.582	1.244	0.160	0.112
-77.567	462.270	0.146	0.317
-76.553	28.385	-0.099	-0.081
-75.538	178.890	0.135	-0.192
-74.524	80.666	0.219	-0.230
-73.509	306.091	-0.134	0.243
-72.494	81.514	0.230	0.242
-71.480	-135.125	0.248	-0.029
-70.465	441.992	0.127	-0.271
-69.451	58.486	0.235	-0.225
-68.436	-200.000	-0.030	-0.172
-67.422	-33.474	0.306	0.164
-66.407	301.479	0.062	-0.111
-65.392	-200.000	-0.068	0.332
-64.378	-200.000	-0.045	0.216
-63.363	-99.744	0.147	0.036
-62.349	800.000	-0.118	0.349
-61.334	82.415	-1.288	-1.359
-60.319	42.768	0.621	0.550
-59.305	334.951	-0.617	-1.163
-58.290	108.106	1.037	1.201
-57.276	800.000	0.309	1.282
-56.261	-200.000	124.221	661.631
-55.246	438.127	1554.073	3294.002
-54.232	145.831	2714.169	3535.900
-53.217	90.855	2283.827	2487.858
-52.203	32.448	1896.989	1592.417
-51.188	26.547	1694.375	1377.527
-50.173	24.456	1655.498	1330.299
-49.159	45.846	1724.973	1550.030
-48.144	43.308	1736.798	1541.246
-47.130	26.023	1688.233	1368.340
-46.115	23.663	1672.495	1337.766
-45.100	23.496	1667.357	1332.351
-44.086	23.311	1665.333	1329.294
-43.071	23.450	1663.016	1328.437
-42.057	23.422	1660.945	1326.514
-41.042	23.415	1658.892	1324.773
-40.027	23.324	1657.155	1322.656
-39.013	23.444	1654.883	1321.680
-37.998	23.275	1653.931	1319.611
-36.984	23.454	1652.450	1319.705
-35.969	23.548	1650.894	1319.111
-34.954	23.475	1649.364	1317.295
-33.940	23.485	1647.170	1315.565
-32.925	23.605	1645.494	1315.062
-31.911	23.531	1644.326	1313.533
-30.896	23.514	1642.761	1312.104
-29.881	23.418	1641.487	1310.326
-28.867	23.465	1639.580	1309.095
-27.852	23.491	1638.237	1308.163
-26.838	23.474	1636.845	1306.876
-25.823	23.467	1635.545	1305.732
-24.809	23.475	1634.138	1304.615
-23.794	23.522	1632.464	1303.578
-22.779	23.589	1630.911	1302.771
-21.765	23.518	1629.572	1301.129
-20.750	23.503	1628.276	1299.933
-19.736	23.577	1626.545	1299.042
-18.721	23.540	1625.179	1297.632
-17.706	23.570	1623.768	1296.670
-16.692	23.465	1622.562	1294.893
-15.677	23.537	1620.796	1293.954
-14.663	23.609	1619.726	1293.572
-13.648	23.485	1618.773	1291.855
-12.633	23.533	1616.627	1290.446
-11.619	23.471	1615.593	1289.119
-10.604	23.528	1613.693	1287.964
-9.590	23.505	1613.008	1287.198
-8.575	23.596	1611.317	1286.457
-7.560	23.556	1610.258	1285.274
-6.546	23.493	1609.534	1284.185
-5.531	23.521	1608.133	1283.217
-4.517	23.501	1606.944	1282.078
-3.502	23.531	1605.411	1281.016
-2.487	23.610	1603.643	1280.125
-1.473	23.229	1591.987	1268.042
-0.458	20.297	1572.293	1231.533
0.556	15.148	1574.429	1200.252
1.571	12.965	1598.157	1202.337
2.586	12.669	1610.230	1209.139
3.600	11.520	1556.109	1160.238
4.615	6.381	1449.568	1046.618
5.629	1.299	1390.997	971.771
6.644	0.341	1384.118	960.771
7.659	0.092	1383.275	958.520
8.673	0.096	1382.522	957.935
9.688	0.111	1380.218	956.351
10.702	-0.108	1376.584	952.360
11.717	2.573	1379.720	971.458
12.731	9.371	1390.352	1022.181
13.746	15.285	1399.225	1066.333
14.761	16.806	1400.792	1077.107
15.775	16.152	1398.882	1071.390
16.790	15.147	1396.314	1062.952
17.804	14.407	1393.931	1056.355
18.819	14.122	1392.376	1053.279
19.834	13.844	1391.380	1050.675
20.848	13.545	1390.409	1047.955
21.863	13.330	1388.700	1045.216
22.877	13.227	1387.588	1043.637
23.892	13.238	1386.173	1042.549
24.907	13.214	1385.822	1042.043
25.921	13.166	1384.906	1040.960
26.936	13.337	1383.775	1041.093
27.950	13.275	1383.394	1040.327
28.965	13.330	1381.904	1039.457
29.980	13.245	1381.373	1038.433
30.994	13.399	1380.007	1038.279
32.009	13.322	1379.584	1037.386
33.023	13.428	1377.618	1036.477
34.038	13.402	1376.672	1035.511
35.053	13.276	1375.603	1033.829
36.067	13.370	1374.596	1033.569
37.082	13.321	1373.659	1032.467
38.096	13.304	1372.965	1031.752
39.111	13.367	1371.488	1030.940
40.126	13.306	1370.876	1030.012
41.140	13.254	1370.161	1029.059
42.155	13.195	1369.694	1028.246
43.169	13.194	1369.668	1028.132
44.184	13.203	1369.426	1027.914
45.199	13.165	1368.936	1027.220
46.213	13.270	1367.923	1027.019
47.228	13.140	1367.489	1025.797
48.242	13.321	1366.059	1025.755
49.257	13.311	1364.460	1024.400
50.271	13.365	1363.077	1023.611
51.286	13.322	1361.638	1022.173
52.301	13.278	1360.823	1021.195
53.315	13.254	1359.525	1019.981
54.330	13.327	1358.672	1019.704
55.344	13.233	1357.248	1017.968
56.359	13.200	1356.280	1016.949
57.374	13.239	1355.052	1016.179
58.388	13.112	1355.019	1015.278
59.403	13.091	1354.104	1014.379
60.417	13.235	1353.018	1014.357
61.432	13.035	1352.678	1012.783
62.447	13.143	1351.342	1012.358
63.461	13.147	1349.939	1011.242
64.476	13.125	1348.708	1010.097
65.490	13.106	1347.519	1008.998
66.505	13.146	1345.834	1007.891
67.520	13.255	1344.637	1007.574
68.534	13.080	1344.153	1006.052
69.549	13.083	1342.933	1005.069
70.563	13.188	1341.573	1004.599
71.578	13.135	1340.177	1003.145
72.593	13.079	1339.458	1002.176
73.607	13.024	1338.808	1001.270
74.622	13.020	1337.937	1000.506
75.636	13.121	1336.801	1000.180
76.651	13.046	1336.665	999.533
77.666	13.041	1335.604	998.620
78.680	13.091	1335.302	998.611
79.695	13.077	1334.435	997.787
80.709	13.106	1333.784	997.390
81.724	13.182	1332.391	996.716
82.739	13.123	1331.997	995.979
83.753	13.250	1330.442	995.496
84.768	13.317	1329.280	994.941
85.782	13.380	1328.223	994.436
86.797	13.312	1327.248	993.210
87.812	13.246	1326.321	992.035
88.826	13.288	1325.039	991.236
89.841	13.295	1323.843	990.296
90.855	13.311	1322.721	989.468
91.870	13.378	1322.082	989.305
92.884	13.257	1321.333	987.934
93.899	13.425	1320.089	987.917
94.914	13.414	1319.232	987.121
95.928	13.450	1318.806	986.930
96.943	13.347	1318.078	985.686
97.957	13.354	1316.855	984.725
98.972	13.305	1315.961	983.677
99.987	13.379	1314.594	983.010
101.001	13.359	1313.746	982.171
102.016	13.380	1312.676	981.406
103.030	13.510	1311.524	981.230
104.045	13.300	1311.199	979.654
105.060	13.422	1309.321	978.888
106.074	13.255	1308.140	976.931
107.089	13.202	1307.074	975.737
108.103	13.171	1305.598	974.363
109.118	13.277	1304.314	973.945
110.133	13.189	1302.909	972.293
111.147	13.287	1301.473	971.712
112.162	13.250	1300.410	970.613
113.176	13.396	1298.672	970.085
114.191	13.249	1298.504	969.015
115.206	13.262	1296.962	967.850
116.220	13.370	1295.677	967.438
117.235	13.384	1294.465	966.532
118.249	13.245	1294.144	965.392
119.264	13.235	1292.875	964.301
120.279	13.250	1291.758	963.471
121.293	13.180	1290.259	961.863
122.308	13.118	1289.754	961.038
123.322	13.136	1288.738	960.300
124.337	13.110	1287.573	959.197
125.352	13.165	1286.697	958.776
126.366	13.157	1285.427	957.702
127.381	13.221	1283.830	956.796
128.395	13.236	1282.974	956.160
129.410	13.227	1282.131	955.397
130.424	13.268	1281.159	954.826
131.439	13.176	1280.716	953.879
132.454	13.281	1279.241	953.303
133.468	13.152	1278.608	952.001
134.483	13.223	1277.560	951.544
135.497	13.242	1276.426	950.724
136.512	13.287	1275.145	949.949
137.527	13.248	1273.840	948.665
138.541	13.325	1272.145	947.764
139.556	13.239	1271.168	946.460
140.570	13.288	1270.339	946.039
141.585	13.386	1268.701	945.294
142.600	13.370	1267.792	944.439
143.614	13.467	1266.783	944.161
144.629	13.414	1265.783	943.026
145.643	13.376	1264.763	941.968
146.658	13.411	1263.167	940.898
147.673	13.394	1261.805	939.704
148.687	13.356	1260.576	938.487
149.702	13.304	1259.687	937.449
150.716	13.399	1257.794	936.491
151.731	13.385	1256.755	935.559
152.746	13.472	1255.830	935.277
153.760	13.453	1254.652	934.210
154.775	13.515	1253.425	933.562
155.789	13.563	1252.158	932.806
156.804	13.575	1251.259	932.125
157.819	13.548	1249.961	930.921
158.833	13.587	1249.752	930.903
159.848	13.603	1248.514	929.991
160.862	13.563	1247.678	929.061
161.877	13.574	1246.303	928.016
162.892	13.591	1244.942	927.014
163.906	13.538	1244.393	926.230
164.921	13.522	1243.627	925.485
165.935	13.573	1242.723	925.014
166.950	13.610	1242.160	924.720
167.964	13.637	1240.832	923.801
168.979	13.641	1240.223	923.290
169.994	13.618	1239.199	922.316
171.008	13.621	1238.904	922.031
172.023	13.677	1237.891	921.507
173.037	13.711	1237.109	921.034
174.052	13.644	1236.410	920.059
175.067	13.693	1234.993	919.195
176.081	13.595	1234.487	918.193
177.096	13.579	1233.473	917.270
178.110	13.714	1231.906	916.769
179.125	13.715	1231.181	916.154
180.140	13.712	1229.702	914.957
181.154	13.765	1228.861	914.543
182.169	13.744	1227.478	913.319
183.183	13.777	1226.137	912.419
184.198	13.789	1225.390	911.848
185.213	13.826	1223.929	910.883
186.227	13.804	1222.985	909.982
187.242	13.955	1221.555	909.664
188.256	13.892	1220.966	908.800
189.271	13.830	1219.923	907.602
190.286	13.764	1219.143	906.581
191.300	13.773	1218.017	905.716
192.315	13.701	1217.301	904.706
193.329	13.582	1217.298	903.979
194.344	13.798	1216.114	904.195
195.359	13.810	1215.374	903.628
196.373	13.877	1214.895	903.560
197.388	13.883	1214.804	903.442
198.402	13.997	1213.936	903.338
199.417	14.105	1212.851	903.035
200.432	14.046	1212.692	902.517
201.446	14.041	1211.920	901.840
202.461	14.151	1210.599	901.370
203.475	14.120	1209.700	900.453
204.490	14.084	1208.512	899.292
205.504	14.029	1207.423	898.107
206.519	14.089	1205.880	897.202
207.534	14.125	1204.896	896.588
208.548	13.998	1204.180	895.289
209.563	14.096	1203.033	894.888
210.577	14.075	1202.340	894.181
211.592	14.031	1201.500	893.236
212.607	14.201	1200.222	893.121
213.621	14.198	1199.713	892.647
214.636	14.190	1198.882	891.906
215.650	14.243	1198.078	891.516
216.665	14.326	1196.851	890.967
217.680	14.322	1195.965	890.207
218.694	14.228	1195.547	889.313
219.709	14.304	1194.140	888.597
220.723	14.269	1193.418	887.790
221.738	14.318	1192.745	887.472
222.753	14.306	1192.284	886.990
223.767	14.315	1191.449	886.335
224.782	14.433	1190.629	886.274
225.796	14.523	1189.947	886.169
226.811	14.405	1189.672	885.259
227.826	14.415	1188.723	884.526
228.840	14.420	1187.995	883.934
229.855	14.424	1187.191	883.279
230.869	14.420	1186.187	882.430
231.884	14.387	1185.381	881.579
232.899	14.340	1184.972	880.947
233.913	14.441	1184.046	880.718
234.928	14.411	1183.417	880.011
235.942	14.332	1182.563	878.882
236.957	14.301	1181.808	878.078
237.972	14.354	1181.083	877.742
238.986	14.365	1180.549	877.324
240.001	14.452	1179.508	876.935
241.015	14.455	1178.615	876.209
242.030	14.588	1178.085	876.432
243.045	14.437	1177.525	875.144
244.059	14.475	1176.457	874.474
245.074	14.490	1175.865	874.036
246.088	14.513	1174.907	873.367
247.103	14.587	1174.079	873.061
248.117	14.581	1173.374	872.431
249.132	14.668	1172.729	872.326
250.147	14.771	1171.718	872.034
251.161	14.711	1171.341	871.362
252.176	14.773	1170.496	870.980
253.190	14.784	1169.561	870.266
254.205	14.867	1169.062	870.248
255.220	15.004	1168.320	870.336
256.234	15.027	1167.729	869.934
257.249	14.972	1167.282	869.238
258.263	14.971	1166.281	868.410
259.278	14.965	1166.055	868.134
260.293	15.078	1165.128	867.957
261.307	15.010	1164.818	867.294
262.322	14.997	1164.195	866.686
263.336	15.054	1163.304	866.239
264.351	14.979	1163.181	865.687
265.366	14.996	1162.497	865.188
266.380	15.102	1161.497	864.916
267.395	15.184	1160.251	864.332
268.409	15.021	1160.077	863.287
269.424	15.010	1159.008	862.356
270.439	15.244	1158.362	863.003
271.453	15.168	1157.568	861.947
272.468	15.131	1156.750	861.071
273.482	15.169	1155.716	860.421
274.497	15.189	1155.436	860.238
275.512	15.095	1154.691	859.127
276.526	15.080	1154.126	858.550
277.541	15.015	1153.518	857.692
278.555	15.244	1152.399	857.956
279.570	15.217	1152.073	857.500
280.585	15.212	1151.113	856.684
281.599	15.316	1150.087	856.377
282.614	15.277	1148.780	855.126
283.628	15.206	1148.124	854.198
284.643	15.186	1147.477	853.542
285.657	15.385	1145.938	853.335
286.672	15.226	1145.478	852.107
287.687	15.369	1144.326	851.903
288.701	15.329	1143.847	851.266
289.716	15.340	1143.163	850.737
290.730	15.334	1142.573	850.193
291.745	15.352	1141.795	849.631
292.760	15.438	1140.858	849.295
293.774	15.402	1140.321	848.636
294.789	15.488	1139.540	848.415
295.803	15.477	1139.341	848.133
296.818	15.387	1138.536	847.008
297.833	15.466	1137.405	846.490
298.847	15.404	1137.185	845.937
299.862	15.553	1136.204	845.883
300.876	15.579	1135.406	845.347
301.891	15.493	1134.910	844.467
302.906	15.674	1133.803	844.479
303.920	15.751	1132.958	844.164
304.935	15.612	1132.801	843.272
305.949	15.761	1132.070	843.402
306.964	15.766	1131.389	842.846
307.979	15.654	1130.620	841.636
308.993	15.694	1130.073	841.354
310.008	15.772	1129.193	841.016
311.022	15.701	1128.837	840.322
312.037	15.773	1127.677	839.743
313.052	15.727	1126.999	838.931
314.066	15.712	1125.906	837.972
315.081	15.741	1124.594	837.063
316.095	15.694	1124.243	836.498
317.110	15.712	1123.778	836.166
318.125	15.746	1122.215	835.098
319.139	15.749	1121.742	834.686
320.154	15.755	1121.348	834.348
321.168	15.599	1120.595	832.940
322.183	15.662	1120.444	833.070
323.197	15.750	1119.597	832.800
324.212	15.863	1118.889	832.758
325.227	15.763	1118.190	831.668
326.241	15.905	1117.485	831.775
327.256	15.888	1116.821	831.120
328.270	15.885	1115.536	830.077
329.285	15.819	1115.255	829.468
330.300	15.915	1113.893	828.855
331.314	15.805	1113.297	827.800
332.329	15.833	1112.260	827.093
333.343	16.049	1111.000	827.142
334.358	15.869	1110.133	825.541
335.373	15.958	1109.552	825.468
336.387	15.933	1109.091	824.934
337.402	16.051	1108.293	824.841
338.416	16.194	1107.352	824.767
339.431	16.164	1106.820	824.154
340.446	16.135	1106.297	823.551
341.460	16.040	1105.927	822.736
342.475	16.118	1105.091	822.422
343.489	16.155	1103.831	821.594
344.504	16.246	1103.052	821.385
345.519	16.149	1102.110	820.135
346.533	16.227	1101.430	819.938
347.548	16.303	1100.222	819.333
348.562	16.233	1099.956	818.726
349.577	16.165	1099.193	817.755
350.592	16.238	1098.306	817.376
351.606	16.298	1097.680	817.128
352.621	16.262	1097.036	816.400
353.635	16.274	1096.492	815.983
354.650	16.242	1095.602	815.092
355.665	16.379	1094.438	814.816
356.679	16.285	1094.425	814.283
357.694	16.283	1093.556	813.553
358.708	16.448	1092.512	813.497
359.723	16.417	1092.085	812.960
360.738	16.479	1091.474	812.731
361.752	16.310	1091.246	811.679
362.767	16.425	1090.574	811.656
363.781	16.460	1089.445	810.913
364.796	16.479	1089.154	810.716
365.810	16.479	1088.894	810.451
366.825	16.543	1088.027	810.041
367.840	16.600	1087.492	809.845
368.854	16.612	1087.247	809.647
369.869	16.732	1085.878	809.129
370.883	16.587	1085.405	808.012
371.898	16.636	1084.146	807.239
372.913	16.558	1084.210	806.843
373.927	16.634	1083.559	806.650
374.942	16.677	1082.805	806.219
375.956	16.740	1082.176	805.978
376.971	16.814	1082.009	806.139
377.986	16.752	1081.337	805.269
379.000	16.783	1080.735	804.898
380.015	16.794	1080.056	804.374
381.029	16.842	1079.550	804.152
382.044	16.826	1078.764	803.419
383.059	16.896	1077.891	803.030
384.073	16.799	1077.616	802.294
385.088	16.860	1076.347	801.567
386.102	16.948	1075.252	801.096
387.117	16.868	1074.556	800.131
388.132	16.892	1073.596	799.459
389.146	16.873	1072.820	798.720
390.161	16.886	1072.143	798.205
391.175	16.967	1071.517	798.050
392.190	16.819	1071.312	797.132
393.205	17.056	1069.664	796.947
394.219	16.966	1069.103	796.036
395.234	16.978	1068.280	795.409
396.248	16.944	1067.534	794.627
397.263	16.987	1066.375	793.893
398.278	16.968	1065.376	792.992
399.292	16.869	1065.207	792.331
400.307	16.980	1064.200	792.029
401.321	16.916	1063.750	791.327
402.336	16.984	1063.220	791.181
403.350	16.948	1062.046	790.066
404.365	17.045	1061.507	790.050
405.380	17.043	1060.776	789.424
406.394	17.075	1060.222	789.091
407.409	17.042	1059.814	788.568
408.423	17.100	1058.736	787.962
409.438	17.237	1057.715	787.769
410.453	17.256	1057.302	787.480
411.467	17.251	1056.537	786.818
412.482	17.361	1056.027	786.876
413.496	17.267	1055.257	785.801
414.511	17.299	1054.924	785.630
415.526	17.382	1054.035	785.279
416.540	17.485	1053.838	785.542
417.555	17.342	1053.568	784.611
418.569	17.433	1053.062	784.582
419.584	17.481	1051.853	783.835
420.599	17.453	1051.526	783.392
421.613	108.276	1330.747	1488.665
422.628	99.707	1371.335	1488.749
