DTS Sentinel unit serial number:	SN413079Multiplexer serial number:	ORYXHardware model number:	OX4-SRSoftware version number:	ORYX F/W v4.00 Oryx Data Collector v3.7.2.0data status	okinstallation	princeton_trtdifferential loss correction	single-endedforward channel	channel 2reverse channel	N/Adate	2019/09/15time	14:27:35forward acquisition time	60.00reverse acquisition time	0.00gamma	496.2192k internal	0.2299k external	0.2299temperature offset calibration	0.9990default loss term (dB/km)	0.3790temperature slope calibration	1.0000multiplexer offset coefficient	1.0000multiplexer slope coefficient	1.0000fibre end	0.00T internal ref (°C)	39.25T ext. ref 1 (°C)	4.95T ext. ref 2 (°C)	36.33length (m)	temperature (°C)	Stokes	anti-Stokes-747.200	449.685	-0.124	0.279
-746.185	120.638	-0.233	0.296
-745.171	800.000	-0.071	0.275
-744.156	63.835	-0.256	0.262
-743.142	800.000	-0.090	0.315
-742.127	401.250	-0.074	0.159
-741.112	-10.393	-0.220	0.149
-740.098	-77.952	0.236	0.083
-739.083	-80.270	-0.269	-0.092
-738.069	-22.801	0.101	-0.062
-737.054	53.907	-0.163	-0.160
-736.039	800.000	-0.055	-0.163
-735.025	147.190	-0.167	-0.229
-734.010	-67.854	-0.148	0.059
-732.996	-142.948	-0.265	-0.026
-731.981	-47.080	0.046	0.023
-730.966	142.011	-0.223	0.302
-729.952	265.724	-0.152	-0.271
-728.937	800.000	-0.080	-0.288
-727.923	257.798	-0.019	0.034
-726.908	203.845	-0.074	-0.117
-725.894	-124.661	0.173	-0.027
-724.879	-89.810	-0.048	0.014
-723.864	-84.718	0.085	-0.027
-722.850	-200.000	-0.011	0.202
-721.835	-200.000	-0.001	0.114
-720.821	121.050	-0.069	-0.087
-719.806	-200.000	0.027	-0.343
-718.791	-56.290	-0.063	-0.028
-717.777	528.346	-0.075	-0.180
-716.762	-121.153	0.241	0.041
-715.748	-17.259	0.300	0.193
-714.733	-82.582	-0.238	-0.079
-713.718	7.249	0.037	0.028
-712.704	-40.601	-0.160	0.085
-711.689	-126.904	0.387	-0.058
-710.675	-62.855	-0.308	0.130
-709.660	94.667	0.084	-0.097
-708.645	-61.370	0.203	-0.087
-707.631	377.946	0.011	0.024
-706.616	-58.998	0.073	-0.032
-705.602	207.300	-0.174	-0.276
-704.587	357.743	-0.100	0.203
-703.572	-62.942	-0.379	0.160
-702.558	376.636	0.084	0.176
-701.543	-200.000	-0.054	-0.381
-700.529	2.287	-0.187	-0.138
-699.514	800.000	0.022	-0.062
-698.499	347.214	0.115	0.231
-697.485	-200.000	-0.006	0.120
-696.470	-72.293	-0.305	-0.115
-695.456	-200.000	-0.056	0.278
-694.441	-200.000	0.028	0.291
-693.426	-73.903	0.092	-0.034
-692.412	148.786	0.009	-0.012
-691.397	-45.140	0.253	0.128
-690.383	-200.000	0.005	-0.198
-689.368	800.000	0.074	-0.224
-688.354	9.066	0.176	0.136
-687.339	-110.394	0.300	-0.064
-686.324	-200.000	-0.014	0.423
-685.310	147.897	0.078	0.107
-684.295	800.000	0.059	0.196
-683.281	-200.000	0.025	-0.240
-682.266	227.922	-0.254	-0.421
-681.251	1.216	-0.193	0.141
-680.237	-83.989	-0.153	0.050
-679.222	-93.501	0.340	-0.096
-678.208	93.051	-0.049	-0.056
-677.193	-121.989	0.175	-0.029
-676.178	251.262	-0.029	-0.050
-675.164	259.163	0.037	0.066
-674.149	-112.448	-0.189	0.038
-673.135	800.000	0.143	0.429
-672.120	800.000	-0.085	0.271
-671.105	710.171	-0.184	0.496
-670.091	-3.635	0.063	-0.045
-669.076	140.827	-0.325	-0.436
-668.062	-38.052	0.059	-0.032
-667.047	-8.731	0.233	0.159
-666.032	36.005	-0.218	-0.195
-665.018	-200.000	-0.020	0.477
-664.003	-87.367	-0.137	0.042
-662.989	-107.362	-0.211	0.047
-661.974	710.644	0.031	-0.083
-660.959	442.410	-0.162	0.360
-659.945	416.617	-0.106	0.231
-658.930	36.511	0.057	0.051
-657.916	-18.098	-0.065	0.041
-656.901	-145.385	0.230	0.021
-655.886	505.546	-0.065	-0.154
-654.872	-200.000	-0.013	0.072
-653.857	800.000	0.037	-0.137
-652.843	94.913	0.091	-0.106
-651.828	-24.941	0.127	-0.077
-650.814	800.000	0.033	-0.112
-649.799	-200.000	0.020	0.203
-648.784	-84.698	0.274	-0.088
-647.770	65.752	0.294	-0.303
-646.755	-79.515	-0.353	-0.121
-645.741	658.522	-0.080	0.208
-644.726	-23.148	0.061	0.038
-643.711	-132.869	-0.170	0.022
-642.697	135.743	0.067	0.088
-641.682	-12.002	-0.184	0.122
-640.668	-45.065	-0.275	0.139
-639.653	-164.041	-0.302	-0.014
-638.638	-16.602	-0.331	0.213
-637.624	63.447	-0.195	0.199
-636.609	42.579	-0.306	-0.283
-635.595	-200.000	0.031	-0.173
-634.580	-20.275	0.119	-0.074
-633.565	-200.000	-0.001	0.314
-632.551	-32.652	-0.042	-0.024
-631.536	-146.193	0.143	-0.013
-630.522	-200.000	-0.001	-0.278
-629.507	359.645	0.052	-0.106
-628.492	213.965	0.156	-0.251
-627.478	-103.207	-0.321	0.077
-626.463	-54.843	-0.323	0.148
-625.449	176.801	-0.088	0.129
-624.434	-79.899	-0.192	-0.065
-623.419	-124.960	0.344	0.054
-622.405	-200.000	0.008	0.112
-621.390	130.794	0.189	0.247
-620.376	241.353	-0.321	-0.545
-619.361	172.357	-0.073	-0.106
-618.346	60.506	-0.060	-0.061
-617.332	34.268	0.336	-0.298
-616.317	-100.232	0.249	-0.063
-615.303	-200.000	0.058	-0.289
-614.288	-29.446	-0.124	0.072
-613.273	434.332	-0.059	0.131
-612.259	-91.137	0.089	0.026
-611.244	371.101	0.067	0.137
-610.230	-200.000	-0.021	0.173
-609.215	-63.940	0.184	0.076
-608.201	302.859	0.050	-0.094
-607.186	341.792	0.133	-0.264
-606.171	146.262	-0.087	-0.118
-605.157	-178.607	0.236	0.006
-604.142	-29.297	-0.196	0.114
-603.128	96.021	0.107	0.124
-602.113	14.096	0.186	0.147
-601.098	59.191	-0.075	-0.075
-600.084	84.188	0.216	-0.239
-599.069	-28.262	0.105	-0.062
-598.055	145.229	-0.088	-0.120
-597.040	413.053	-0.050	0.109
-596.025	-50.288	0.188	0.090
-595.011	52.683	0.068	-0.066
-593.996	-123.050	-0.379	0.062
-592.982	84.899	0.071	0.079
-591.967	130.735	0.125	0.163
-590.952	800.000	-0.171	-0.651
-589.938	291.235	-0.130	-0.239
-588.923	-200.000	-0.029	-0.143
-587.909	-129.596	0.139	0.019
-586.894	-150.538	-0.212	-0.016
-585.879	315.146	0.164	-0.314
-584.865	-30.134	-0.198	0.114
-583.850	-200.000	0.019	0.094
-582.836	-38.038	-0.280	-0.151
-581.821	-21.343	0.143	0.088
-580.806	425.662	0.123	-0.270
-579.792	-67.333	0.154	0.061
-578.777	-57.195	0.160	0.071
-577.763	-200.000	-0.007	0.150
-576.748	-200.000	-0.002	-0.141
-575.733	800.000	0.034	-0.125
-574.719	349.782	-0.130	0.260
-573.704	-121.617	-0.375	0.063
-572.690	293.470	-0.093	-0.172
-571.675	-86.405	0.137	-0.043
-570.661	166.369	0.181	-0.260
-569.646	117.913	0.178	-0.223
-568.631	-200.000	-0.018	0.108
-567.617	-108.200	-0.073	-0.016
-566.602	-25.903	0.198	-0.118
-565.588	-61.259	-0.065	-0.028
-564.573	112.599	0.321	-0.393
-563.558	800.000	0.040	0.133
-562.544	-168.395	-0.232	-0.009
-561.529	108.494	0.148	0.179
-560.515	-200.000	0.021	-0.254
-559.500	-200.000	-0.029	-0.313
-558.485	27.846	0.143	0.122
-557.471	-200.000	0.039	0.316
-556.456	-159.056	-0.381	0.022
-555.442	462.643	0.062	0.140
-554.427	189.402	0.168	-0.255
-553.412	-200.000	-0.130	0.000
-552.398	800.000	-0.092	-0.382
-551.383	-24.755	0.064	-0.038
-550.369	-200.000	-0.013	0.127
-549.354	24.770	0.085	-0.071
-548.339	30.449	-0.165	-0.143
-547.325	73.712	0.145	-0.153
-546.310	800.000	0.027	0.102
-545.296	-17.807	0.349	-0.222
-544.281	-89.126	0.291	0.087
-543.266	157.636	0.024	0.034
-542.252	-200.000	-0.004	0.074
-541.237	58.971	-0.237	-0.236
-540.223	4.449	0.069	-0.051
-539.208	279.052	-0.054	0.097
-538.193	-200.000	-0.005	-0.070
-537.179	800.000	-0.088	0.277
-536.164	-200.000	-0.023	-0.108
-535.150	-161.827	0.067	-0.003
-534.135	-200.000	-0.045	-0.290
-533.121	186.075	0.043	0.064
-532.106	800.000	-0.065	-0.235
-531.091	-97.477	-0.290	-0.076
-530.077	252.847	-0.027	0.047
-529.062	-99.169	-0.274	0.070
-528.048	104.851	0.247	0.295
-527.033	-124.242	-0.175	0.028
-526.018	-12.348	-0.142	0.094
-525.004	565.071	-0.133	-0.327
-523.989	30.620	0.214	-0.185
-522.975	36.229	-0.253	-0.225
-521.960	100.242	-0.077	0.090
-520.945	-200.000	-0.014	0.404
-519.931	-90.645	-0.264	-0.077
-518.916	-18.725	-0.033	-0.021
-517.902	24.834	0.090	0.075
-516.887	161.774	0.152	-0.215
-515.872	-135.430	-0.122	0.015
-514.858	86.989	0.225	0.251
-513.843	256.916	0.097	-0.169
-512.829	125.513	-0.084	0.108
-511.814	800.000	-0.036	0.153
-510.799	-200.000	0.003	-0.326
-509.785	511.742	0.045	-0.106
-508.770	218.019	-0.086	0.139
-507.756	-123.541	-0.284	0.046
-506.741	175.055	-0.092	-0.134
-505.726	285.603	0.083	-0.151
-504.712	-1.656	0.103	0.074
-503.697	25.532	-0.150	-0.126
-502.683	63.384	-0.067	-0.068
-501.668	105.047	-0.185	0.220
-500.653	-96.974	-0.134	0.036
-499.639	-40.786	0.188	0.099
-498.624	-200.000	-0.023	0.505
-497.610	-200.000	-0.041	-0.340
-496.595	-108.623	0.363	-0.079
-495.581	-81.282	0.233	0.078
-494.566	800.000	-0.020	-0.072
-493.551	-200.000	0.095	0.487
-492.537	41.464	-0.239	-0.219
-491.522	-98.016	0.116	-0.030
-490.508	800.000	-0.055	-0.163
-489.493	119.626	0.169	-0.211
-488.478	-200.000	0.011	0.111
-487.464	-16.352	-0.161	0.103
-486.449	12.682	0.068	0.053
-485.435	800.000	-0.088	0.248
-484.420	-125.961	-0.283	-0.043
-483.405	-200.000	0.100	0.467
-482.391	41.137	0.201	-0.184
-481.376	29.888	-0.137	0.118
-480.362	496.712	-0.124	0.287
-479.347	-31.587	0.266	0.151
-478.332	-112.151	0.284	0.058
-477.318	186.606	-0.009	0.013
-476.303	-85.269	0.170	0.054
-475.289	69.384	0.209	0.217
-474.274	-200.000	-0.001	0.047
-473.259	-18.262	-0.103	-0.065
-472.245	91.038	0.296	-0.335
-471.230	-200.000	-0.041	-0.295
-470.216	-200.000	0.023	-0.378
-469.201	-67.657	-0.267	0.106
-468.186	-154.267	0.094	-0.006
-467.172	415.625	0.063	-0.135
-466.157	355.500	0.040	0.080
-465.143	138.898	-0.034	-0.045
-464.128	258.557	-0.092	-0.160
-463.113	-108.068	-0.140	-0.031
-462.099	347.922	-0.062	-0.123
-461.084	67.891	0.240	-0.247
-460.070	692.182	0.032	-0.085
-459.055	1.364	-0.064	0.046
-458.040	-3.017	-0.223	-0.157
-457.026	-94.388	0.135	0.037
-456.011	-6.771	-0.239	0.164
-454.997	800.000	-0.085	0.349
-453.982	-76.494	-0.200	0.071
-452.968	800.000	0.029	0.085
-451.953	-126.669	0.228	0.034
-450.938	-49.276	-0.208	0.100
-449.924	23.179	-0.141	0.117
-448.909	183.113	-0.055	0.083
-447.895	-113.379	0.096	0.019
-446.880	145.649	-0.077	-0.104
-445.865	71.714	-0.053	-0.056
-444.851	800.000	0.043	0.145
-443.836	351.328	-0.018	-0.036
-442.822	79.004	0.167	-0.181
-441.807	-10.155	0.037	0.024
-440.792	-200.000	-0.068	-0.397
-439.778	476.584	-0.117	0.268
-438.763	-16.635	-0.200	-0.128
-437.749	-200.000	-0.004	0.112
-436.734	-75.018	-0.252	-0.091
-435.719	24.731	-0.179	-0.149
-434.705	800.000	-0.028	-0.090
-433.690	32.101	-0.302	-0.262
-432.676	78.388	0.034	0.036
-431.661	-200.000	0.057	0.364
-430.646	129.772	0.034	0.044
-429.632	81.255	0.113	0.123
-428.617	686.055	0.076	0.199
-427.603	-19.794	-0.133	0.083
-426.588	800.000	-0.038	0.120
-425.573	152.775	0.162	0.223
-424.559	-19.087	0.352	-0.221
-423.544	-25.706	0.105	-0.062
-422.530	39.911	0.071	0.064
-421.515	-200.000	0.009	-0.062
-420.500	68.633	0.189	-0.195
-419.486	78.145	0.155	-0.167
-418.471	-123.196	0.213	-0.034
-417.457	-200.000	0.033	-0.258
-416.442	0.733	-0.400	-0.289
-415.428	-200.000	0.057	0.376
-414.413	68.729	-0.108	0.112
-413.398	800.000	-0.020	0.057
-412.384	27.054	-0.146	0.123
-411.369	800.000	-0.037	0.125
-410.355	-160.433	-0.249	-0.013
-409.340	-200.000	-0.026	-0.140
-408.325	-145.271	-0.095	0.009
-407.311	286.879	0.029	0.053
-406.296	-109.557	-0.194	-0.041
-405.282	87.040	0.073	-0.082
-404.267	-155.269	0.240	-0.016
-403.252	38.677	0.314	0.282
-402.238	-200.000	0.031	-0.233
-401.223	58.445	0.252	0.249
-400.209	8.002	-0.192	0.145
-399.194	-200.000	-0.001	-0.164
-398.179	-200.000	0.031	-0.171
-397.165	-72.099	0.118	0.044
-396.150	-44.422	0.093	-0.047
-395.136	186.480	0.040	-0.060
-394.121	115.976	-0.126	0.155
-393.106	1.224	-0.113	0.082
-392.092	-12.150	0.184	-0.121
-391.077	800.000	0.044	-0.185
-390.063	262.681	0.142	0.248
-389.048	117.859	-0.255	0.316
-388.033	-100.867	-0.188	0.046
-387.019	-77.402	0.146	-0.051
-386.004	800.000	-0.035	0.124
-384.990	165.897	-0.079	0.113
-383.975	57.655	-0.047	0.046
-382.960	13.132	0.370	0.288
-381.946	176.894	0.086	0.126
-380.931	-200.000	-0.049	0.224
-379.917	89.999	-0.177	-0.199
-378.902	-91.574	-0.254	-0.073
-377.888	800.000	0.042	0.122
-376.873	-123.859	0.425	-0.068
-375.858	-200.000	0.036	0.176
-374.844	227.234	0.123	-0.200
-373.829	800.000	-0.038	-0.118
-372.815	-200.000	0.005	-0.076
-371.800	-53.014	-0.142	-0.066
-370.785	-200.000	-0.009	-0.172
-369.771	-183.899	-0.133	0.002
-368.756	307.499	-0.100	-0.188
-367.742	123.436	0.226	-0.285
-366.727	38.795	-0.209	-0.188
-365.712	45.854	-0.202	0.188
-364.698	-29.069	0.229	0.132
-363.683	-65.235	-0.042	0.017
-362.669	13.228	0.250	-0.195
-361.654	800.000	0.040	0.131
-360.639	183.195	0.064	0.095
-359.625	420.795	-0.081	-0.174
-358.610	800.000	0.088	-0.317
-357.596	-154.330	-0.081	0.006
-356.581	776.355	0.056	0.153
-355.566	76.412	0.185	-0.197
-354.552	-200.000	0.009	-0.100
-353.537	-32.326	0.255	-0.143
-352.523	508.067	-0.037	-0.086
-351.508	465.160	0.025	0.057
-350.493	238.184	-0.107	0.178
-349.479	800.000	-0.006	-0.023
-348.464	-135.595	-0.190	0.023
-347.450	-200.000	-0.071	0.353
-346.435	-200.000	0.045	0.393
-345.420	263.869	0.082	0.143
-344.406	117.516	-0.197	-0.243
-343.391	286.929	0.030	0.054
-342.377	46.435	0.181	-0.169
-341.362	-200.000	-0.042	-0.388
-340.348	800.000	-0.093	-0.346
-339.333	104.166	-0.083	-0.098
-338.318	-144.989	0.225	0.021
-337.304	370.361	0.023	-0.046
-336.289	-200.000	-0.046	0.276
-335.275	9.817	-0.305	0.232
-334.260	-4.876	0.201	-0.139
-333.245	-120.139	0.131	-0.023
-332.231	244.726	-0.123	0.208
-331.216	-26.183	0.216	0.127
-330.202	-200.000	-0.006	-0.055
-329.187	-45.811	-0.130	0.065
-328.172	-64.773	0.148	0.060
-327.158	58.306	-0.107	0.105
-326.143	-165.096	0.183	-0.008
-325.129	-162.378	-0.324	-0.016
-324.114	26.220	0.081	-0.068
-323.099	-82.863	-0.237	-0.077
-322.085	60.493	0.031	-0.030
-321.070	800.000	-0.075	0.274
-320.056	252.446	0.064	0.109
-319.041	125.953	-0.126	0.160
-318.026	-32.792	-0.152	0.085
-317.012	134.969	-0.177	-0.230
-315.997	-200.000	-0.042	0.354
-314.983	139.160	0.137	0.181
-313.968	-200.000	-0.022	-0.323
-312.953	7.935	0.263	0.198
-311.939	26.428	-0.115	-0.096
-310.924	171.991	-0.096	0.138
-309.910	-75.145	-0.404	0.145
-308.895	197.036	0.325	-0.497
-307.880	224.449	0.117	-0.190
-306.866	-130.216	0.346	-0.047
-305.851	-63.061	-0.422	-0.175
-304.837	-47.315	-0.192	0.094
-303.822	-58.399	-0.109	-0.047
-302.807	800.000	0.057	0.182
-301.793	86.035	0.144	0.158
-300.778	-192.141	-0.296	0.003
-299.764	27.739	0.296	0.250
-298.749	26.219	-0.010	-0.008
-297.735	800.000	-0.069	0.224
-296.720	663.304	0.140	-0.363
-295.705	-6.428	0.291	-0.199
-294.691	145.750	-0.131	-0.177
-293.676	320.340	0.133	-0.252
-292.662	-200.000	-0.014	0.070
-291.647	800.000	0.067	0.257
-290.632	170.233	0.010	0.014
-289.618	-106.967	-0.076	0.017
-288.603	198.384	-0.085	0.130
-287.589	800.000	0.056	-0.184
-286.574	261.188	0.060	-0.105
-285.559	800.000	0.064	0.179
-284.545	27.102	-0.235	0.197
-283.530	274.961	0.105	-0.187
-282.516	22.952	0.297	0.244
-281.501	-39.976	0.271	0.142
-280.486	-200.000	0.072	0.535
-279.472	211.588	0.096	-0.151
-278.457	570.223	-0.093	-0.227
-277.443	56.498	0.212	-0.206
-276.428	-127.113	-0.312	0.046
-275.413	-200.000	0.011	-0.109
-274.399	404.487	0.062	0.132
-273.384	800.000	-0.058	-0.196
-272.370	454.575	0.029	0.065
-271.355	-200.000	-0.006	0.329
-270.340	-88.111	-0.209	-0.063
-269.326	-82.639	0.259	-0.084
-268.311	800.000	0.017	-0.062
-267.297	800.000	-0.040	0.175
-266.282	-82.893	0.066	0.021
-265.267	-135.896	0.340	0.040
-264.253	78.105	0.225	-0.241
-263.238	-107.929	0.256	-0.056
-262.224	146.685	-0.199	-0.268
-261.209	-88.591	-0.523	-0.156
-260.195	-61.433	0.222	-0.093
-259.180	-200.000	0.005	0.220
-258.165	-26.265	-0.297	-0.175
-257.151	28.103	0.136	0.115
-256.136	-118.356	-0.113	-0.020
-255.122	-200.000	0.010	0.126
-254.107	-142.566	0.266	-0.026
-253.092	57.403	0.089	0.087
-252.078	-119.068	0.262	0.046
-251.063	69.166	-0.132	0.136
-250.049	-47.897	-0.046	-0.022
-249.034	-19.821	-0.067	-0.042
-248.019	-200.000	-0.079	0.419
-247.005	461.417	-0.043	0.095
-245.990	-93.212	0.233	0.065
-244.976	-200.000	0.010	-0.104
-243.961	-150.442	0.153	0.012
-242.946	-59.229	0.197	-0.085
-241.932	114.054	0.132	-0.161
-240.917	603.621	-0.013	0.031
-239.903	-200.000	-0.011	0.229
-238.888	52.304	-0.152	0.145
-237.873	294.115	-0.251	0.458
-236.859	800.000	0.013	-0.054
-235.844	-200.000	0.021	0.115
-234.830	-130.500	0.198	-0.027
-233.815	-95.626	0.091	-0.024
-232.800	12.420	-0.200	-0.154
-231.786	427.135	-0.145	0.313
-230.771	546.132	0.068	0.162
-229.757	699.650	-0.094	-0.248
-228.742	-194.669	0.075	0.001
-227.727	59.507	-0.182	0.180
-226.713	270.957	-0.091	0.160
-225.698	-71.335	-0.074	0.028
-224.684	284.886	0.043	0.077
-223.669	800.000	0.062	-0.219
-222.655	-79.190	-0.275	0.093
-221.640	-35.692	-0.220	0.119
-220.625	-66.584	0.150	-0.060
-219.611	251.265	0.045	0.076
-218.596	14.911	0.066	-0.051
-217.582	-200.000	0.011	-0.219
-216.567	349.062	-0.208	-0.409
-215.552	138.613	-0.100	0.131
-214.538	54.413	-0.051	0.049
-213.523	419.930	-0.051	-0.109
-212.509	-23.229	-0.190	-0.114
-211.494	8.096	0.382	0.286
-210.479	338.827	0.152	0.296
-209.465	-59.791	0.137	-0.059
-208.450	-172.098	-0.331	0.011
-207.436	-200.000	0.005	0.107
-206.421	129.735	-0.105	-0.134
-205.406	-200.000	-0.000	0.139
-204.392	-43.631	0.391	-0.197
-203.377	-71.627	0.091	0.034
-202.363	-200.000	-0.048	0.370
-201.348	-55.754	0.101	0.045
-200.333	-37.876	-0.222	-0.118
-199.319	800.000	0.031	-0.124
-198.304	-88.866	0.115	-0.034
-197.290	800.000	0.065	0.269
-196.275	4.851	-0.318	-0.234
-195.260	-16.617	0.129	0.082
-194.246	75.136	-0.222	-0.234
-193.231	-169.127	0.171	-0.006
-192.217	202.215	-0.172	0.265
-191.202	247.655	-0.101	-0.171
-190.187	242.071	-0.230	0.385
-189.173	-153.437	-0.355	-0.025
-188.158	-79.208	-0.275	0.093
-187.144	-39.093	0.233	-0.122
-186.129	-200.000	-0.046	0.339
-185.114	378.138	-0.089	-0.181
-184.100	376.472	0.068	-0.139
-183.085	-49.025	0.186	-0.089
-182.071	67.116	0.090	0.091
-181.056	215.177	0.155	0.245
-180.042	390.991	0.173	0.359
-179.027	800.000	0.078	0.323
-178.012	-134.894	0.097	-0.012
-176.998	-106.339	0.192	0.043
-175.983	-135.191	0.279	-0.033
-174.969	-53.524	0.209	-0.095
-173.954	127.871	-0.136	0.172
-172.939	-99.068	-0.227	0.057
-171.925	14.144	-0.169	-0.131
-170.910	162.500	-0.041	0.058
-169.896	800.000	-0.042	0.169
-168.881	-121.920	-0.109	0.018
-167.866	67.226	0.184	-0.187
-166.852	-118.762	0.056	-0.010
-165.837	594.627	0.068	-0.167
-164.823	220.035	0.150	0.240
-163.808	-1.678	-0.353	0.248
-162.793	-63.428	0.332	-0.136
-161.779	42.915	0.113	-0.103
-160.764	400.713	0.048	-0.101
-159.750	-49.785	0.069	0.033
-158.735	-103.617	-0.148	0.035
-157.720	61.138	-0.169	0.167
-156.706	-200.000	0.009	0.220
-155.691	421.730	-0.100	-0.215
-154.677	284.152	-0.253	-0.454
-153.662	-39.753	0.330	-0.172
-152.647	-200.000	-0.044	-0.252
-151.633	179.121	0.143	0.209
-150.618	52.643	0.199	0.190
-149.604	-17.894	0.106	-0.066
-148.589	88.491	0.189	-0.209
-147.574	800.000	-0.048	-0.158
-146.560	800.000	-0.100	0.309
-145.545	46.415	0.241	-0.222
-144.531	-200.000	0.041	0.247
-143.516	-70.794	-0.087	-0.033
-142.502	-154.528	-0.337	0.022
-141.487	46.551	0.042	-0.039
-140.472	33.052	-0.130	-0.112
-139.458	-200.000	0.013	-0.066
-138.443	-41.903	0.233	-0.119
-137.429	7.902	-0.117	-0.088
-136.414	176.901	0.155	0.225
-135.399	800.000	-0.124	0.340
-134.385	-97.846	0.212	0.054
-133.370	66.586	0.108	-0.109
-132.356	706.317	-0.038	-0.100
-131.341	-83.272	0.109	0.035
-130.326	134.293	0.087	-0.112
-129.312	-57.242	-0.265	0.116
-128.297	22.964	-0.124	-0.101
-127.283	-200.000	0.004	-0.078
-126.268	-200.000	0.012	0.124
-125.253	387.311	0.069	0.142
-124.239	572.397	0.035	-0.084
-123.224	-200.000	-0.013	0.099
-122.210	-94.372	0.165	0.045
-121.195	734.176	-0.028	0.075
-120.180	800.000	-0.038	0.144
-119.166	-200.000	-0.037	0.175
-118.151	366.709	-0.120	0.241
-117.137	668.522	-0.084	-0.217
-116.122	53.939	0.071	0.068
-115.107	-88.391	0.222	-0.066
-114.093	-105.991	-0.204	-0.046
-113.078	800.000	0.100	-0.371
-112.064	94.355	-0.069	-0.078
-111.049	7.652	-0.046	-0.035
-110.034	536.544	0.091	-0.215
-109.020	-34.986	-0.123	-0.067
-108.005	800.000	-0.064	0.264
-106.991	-118.991	0.147	0.026
-105.976	-122.279	0.330	-0.054
-104.962	-200.000	0.021	0.242
-103.947	550.433	-0.114	0.271
-102.932	-62.075	-0.146	0.061
-101.918	-200.000	-0.018	0.118
-100.903	-127.296	-0.385	0.056
-99.889	164.547	0.149	-0.209
-98.874	-200.000	-0.028	-0.128
-97.859	-64.432	-0.387	-0.156
-96.845	95.482	0.082	0.093
-95.830	-97.918	0.275	-0.071
-94.816	-118.111	0.231	-0.041
-93.801	-10.932	0.303	0.199
-92.786	800.000	0.076	0.216
-91.772	127.216	0.208	-0.263
-90.757	11.356	0.265	-0.202
-89.743	-2.337	0.109	-0.076
-88.728	800.000	0.090	-0.279
-87.713	-128.641	-0.250	-0.035
-86.699	82.788	0.034	0.037
-85.684	207.216	0.109	-0.170
-84.670	36.751	-0.104	-0.091
-83.655	390.732	-0.096	-0.198
-82.640	-121.096	-0.319	-0.053
-81.626	-200.000	0.019	0.421
-80.611	564.573	0.036	-0.088
-79.597	-29.410	0.192	0.109
-78.582	629.975	0.110	0.277
-77.567	91.894	0.156	-0.175
-76.553	-6.911	-0.101	0.069
-75.538	130.585	0.122	0.156
-74.524	-62.896	0.275	-0.113
-73.509	-10.486	0.246	0.162
-72.494	800.000	-0.037	-0.131
-71.480	-32.445	0.120	-0.067
-70.465	800.000	0.019	0.074
-69.451	327.672	-0.153	-0.291
-68.436	-200.000	-0.001	0.157
-67.422	-148.857	-0.118	-0.009
-66.407	800.000	-0.043	0.130
-65.392	-65.482	0.124	-0.050
-64.378	-40.049	-0.287	0.149
-63.363	28.377	0.114	0.096
-62.349	112.951	0.079	-0.095
-61.334	-13.870	-0.834	-0.536
-60.319	312.247	0.146	0.272
-59.305	-200.000	-0.079	-0.946
-58.290	-200.000	0.031	0.645
-57.276	220.006	0.828	1.317
-56.261	-200.000	78.370	505.690
-55.246	555.069	1364.892	3263.548
-54.232	181.179	2602.265	3800.073
-53.217	115.773	2363.491	2872.146
-52.203	48.208	1971.506	1832.033
-51.188	42.500	1755.540	1586.360
-50.173	39.686	1709.709	1523.192
-49.159	53.896	1746.044	1666.483
-48.144	58.477	1763.895	1719.115
-47.130	42.410	1727.742	1560.296
-46.115	39.319	1713.284	1523.295
-45.100	39.161	1708.770	1518.003
-44.086	39.141	1706.199	1515.503
-43.071	39.101	1703.664	1512.885
-42.057	39.100	1701.067	1510.507
-41.042	39.102	1698.869	1508.510
-40.027	39.125	1697.179	1507.125
-39.013	39.047	1695.497	1504.976
-37.998	39.107	1693.436	1503.549
-36.984	39.088	1692.088	1502.142
-35.969	39.265	1690.338	1501.886
-34.954	39.387	1688.579	1501.188
-33.940	39.361	1686.587	1499.161
-32.925	39.263	1684.840	1496.808
-31.911	39.281	1683.112	1495.348
-30.896	39.291	1681.143	1493.614
-29.881	39.189	1679.883	1491.664
-28.867	39.226	1678.129	1490.329
-27.852	39.272	1676.432	1489.107
-26.838	39.282	1674.869	1487.733
-25.823	39.305	1673.612	1486.731
-24.809	39.317	1672.168	1485.482
-23.794	39.307	1670.825	1484.157
-22.779	39.376	1669.147	1483.124
-21.765	39.290	1667.789	1481.210
-20.750	39.266	1665.853	1479.255
-19.736	39.302	1664.640	1478.389
-18.721	39.305	1663.101	1476.987
-17.706	39.314	1661.621	1475.678
-16.692	39.196	1660.166	1473.441
-15.677	39.322	1658.478	1472.830
-14.663	39.241	1657.367	1471.179
-13.648	39.293	1655.620	1469.961
-12.633	39.228	1654.011	1467.991
-11.619	39.276	1652.478	1466.930
-10.604	39.308	1650.509	1465.361
-9.590	39.212	1649.662	1463.835
-8.575	39.203	1648.435	1462.618
-7.560	39.221	1647.277	1461.670
-6.546	39.211	1645.969	1460.375
-5.531	39.209	1644.544	1459.036
-4.517	39.175	1643.369	1457.685
-3.502	39.234	1642.426	1457.226
-2.487	39.267	1640.857	1456.026
-1.473	39.331	1629.570	1446.421
-0.458	37.103	1609.838	1412.651
0.556	31.724	1609.351	1376.372
1.571	28.833	1632.688	1374.616
2.586	27.925	1646.984	1379.677
3.600	24.670	1593.633	1311.035
4.615	15.238	1477.839	1151.196
5.629	6.599	1407.633	1039.674
6.644	5.096	1398.151	1022.733
7.659	4.957	1396.802	1020.740
8.673	4.888	1395.307	1019.111
9.688	4.839	1393.664	1017.499
10.702	4.717	1391.485	1015.020
11.717	8.666	1399.118	1046.360
12.731	17.010	1415.072	1113.155
13.746	20.284	1418.839	1137.524
14.761	18.439	1414.155	1121.598
15.775	17.099	1411.085	1110.306
16.790	15.985	1408.153	1100.628
17.804	15.057	1406.514	1093.192
18.819	14.772	1404.653	1089.788
19.834	14.456	1403.319	1086.599
20.848	14.136	1401.764	1083.215
21.863	13.991	1400.535	1081.228
22.877	13.836	1399.165	1079.067
23.892	13.813	1398.299	1078.156
24.907	13.749	1397.730	1077.206
25.921	13.761	1396.653	1076.357
26.936	13.913	1395.404	1076.287
27.950	13.803	1394.995	1075.162
28.965	13.933	1393.526	1074.775
29.980	14.002	1392.754	1074.528
30.994	14.048	1391.435	1073.713
32.009	14.011	1390.295	1072.501
33.023	14.153	1388.458	1071.901
34.038	14.049	1387.685	1070.546
35.053	13.958	1386.462	1068.917
36.067	13.996	1384.895	1067.863
37.082	13.960	1384.095	1066.916
38.096	14.037	1382.773	1066.299
39.111	14.031	1382.221	1065.741
40.126	13.996	1381.574	1064.923
41.140	13.871	1380.687	1063.345
42.155	13.755	1379.721	1061.764
43.169	13.671	1379.656	1061.081
44.184	13.738	1379.546	1061.335
45.199	13.720	1379.076	1060.761
46.213	13.750	1378.744	1060.602
47.228	13.864	1377.574	1060.337
48.242	13.892	1376.369	1059.495
49.257	13.930	1374.658	1058.326
50.271	13.900	1373.495	1057.149
51.286	13.864	1372.292	1055.899
52.301	13.860	1371.032	1054.809
53.315	13.762	1369.670	1053.045
54.330	13.818	1368.451	1052.371
55.344	13.745	1367.167	1050.828
56.359	13.726	1366.365	1050.002
57.374	13.725	1365.363	1049.131
58.388	13.680	1364.994	1048.471
59.403	13.660	1364.457	1047.839
60.417	13.628	1363.331	1046.677
61.432	13.682	1362.609	1046.374
62.447	13.653	1361.652	1045.364
63.461	13.619	1360.442	1044.123
64.476	13.656	1359.437	1043.495
65.490	13.658	1358.292	1042.537
66.505	13.643	1356.365	1040.868
67.520	13.688	1354.715	1039.794
68.534	13.601	1354.431	1038.938
69.549	13.598	1353.031	1037.756
70.563	13.600	1352.400	1037.191
71.578	13.562	1350.870	1035.689
72.593	13.481	1350.066	1034.472
73.607	13.570	1349.299	1034.352
74.622	13.608	1348.502	1033.883
75.636	13.507	1347.866	1032.678
76.651	13.513	1347.167	1032.089
77.666	13.504	1346.876	1031.715
78.680	13.550	1346.380	1031.529
79.695	13.618	1345.334	1031.060
80.709	13.650	1344.914	1030.848
81.724	13.661	1343.983	1030.112
82.739	13.735	1342.693	1029.491
83.753	13.883	1342.202	1029.943
84.768	13.913	1341.177	1029.248
85.782	13.915	1340.104	1028.349
86.797	13.966	1338.509	1027.348
87.812	13.798	1337.717	1025.609
88.826	13.835	1336.452	1024.782
89.841	13.796	1335.592	1023.790
90.855	13.891	1334.542	1023.482
91.870	13.990	1333.444	1023.157
92.884	13.931	1332.522	1021.997
93.899	13.933	1331.823	1021.383
94.914	13.984	1331.087	1021.039
95.928	13.907	1330.188	1019.786
96.943	14.005	1328.986	1019.374
97.957	13.918	1328.148	1018.108
98.972	13.966	1327.242	1017.617
99.987	13.883	1326.262	1016.268
101.001	13.969	1324.964	1015.714
102.016	13.960	1323.922	1014.770
103.030	13.967	1323.014	1014.023
104.045	13.956	1322.209	1013.249
105.060	13.920	1320.602	1011.708
106.074	13.780	1319.576	1009.982
107.089	13.629	1318.318	1008.013
108.103	13.649	1316.832	1006.906
109.118	13.610	1315.650	1005.679
110.133	13.691	1314.072	1004.876
111.147	13.701	1312.557	1003.690
112.162	13.781	1311.266	1003.096
113.176	13.785	1310.150	1002.179
114.191	13.775	1309.394	1001.450
115.206	13.792	1307.998	1000.396
116.220	13.815	1306.950	999.643
117.235	13.718	1306.241	998.428
118.249	13.809	1305.022	997.957
119.264	13.752	1303.672	996.496
120.279	13.716	1302.636	995.397
121.293	13.670	1301.485	994.157
122.308	13.610	1300.467	992.932
123.322	13.640	1299.561	992.331
124.337	13.614	1298.515	991.289
125.352	13.589	1297.686	990.416
126.366	13.636	1296.103	989.402
127.381	13.745	1295.000	989.124
128.395	13.610	1294.715	988.014
129.410	13.762	1293.190	987.667
130.424	13.816	1292.169	987.120
131.439	13.761	1291.329	986.065
132.454	13.768	1290.548	985.423
133.468	13.905	1289.423	985.288
134.483	13.801	1288.827	984.128
135.497	13.761	1288.015	983.185
136.512	13.845	1286.775	982.651
137.527	13.864	1285.048	981.356
138.541	13.777	1284.024	979.971
139.556	13.875	1282.475	979.282
140.570	13.998	1281.665	979.301
141.585	14.039	1279.954	978.148
142.600	14.008	1279.095	977.225
143.614	14.072	1278.470	977.036
144.629	14.007	1277.253	975.641
145.643	14.107	1275.634	974.900
146.658	14.064	1274.326	973.565
147.673	14.006	1272.994	972.119
148.687	13.926	1271.674	970.562
149.702	13.882	1270.740	969.507
150.716	13.777	1269.441	967.817
151.731	13.857	1267.980	967.079
152.746	13.820	1267.152	966.149
153.760	13.903	1265.642	965.395
154.775	13.984	1264.839	965.165
155.789	14.053	1263.276	964.292
156.804	14.078	1262.305	963.610
157.819	14.056	1261.562	962.826
158.833	14.186	1259.980	962.288
159.848	14.094	1259.964	961.655
160.862	14.166	1258.760	961.070
161.877	13.913	1257.827	958.815
162.892	13.911	1256.591	957.772
163.906	13.966	1255.774	957.382
164.921	14.064	1254.406	956.818
165.935	14.074	1253.934	956.430
166.950	14.020	1253.550	955.742
167.964	14.160	1252.272	955.489
168.979	14.055	1251.692	954.358
169.994	14.082	1251.016	953.915
171.008	13.977	1250.308	952.690
172.023	14.105	1249.423	952.664
173.037	14.206	1248.362	952.346
174.052	14.194	1247.583	951.602
175.067	14.067	1246.800	950.193
176.081	14.067	1245.604	949.199
177.096	14.117	1244.687	948.700
178.110	14.119	1243.154	947.461
179.125	14.073	1242.419	946.550
180.140	14.132	1240.998	945.722
181.154	14.140	1239.630	944.641
182.169	14.157	1238.353	943.681
183.183	14.332	1236.615	943.266
184.198	14.318	1235.773	942.459
185.213	14.210	1235.349	941.439
186.227	14.379	1233.611	940.988
187.242	14.355	1232.837	940.181
188.256	14.369	1231.493	939.148
189.271	14.386	1230.726	938.578
190.286	14.307	1229.873	937.400
191.300	14.138	1228.756	935.517
192.315	14.129	1228.055	934.849
193.329	14.083	1227.596	934.160
194.344	14.154	1226.984	934.010
195.359	14.186	1226.320	933.602
196.373	14.250	1225.942	933.590
197.388	14.259	1225.539	933.249
198.402	14.421	1224.628	933.379
199.417	14.510	1224.523	933.717
200.432	14.567	1223.307	933.023
201.446	14.620	1222.467	932.600
202.461	14.668	1221.622	932.138
203.475	14.599	1220.745	931.003
204.490	14.591	1219.359	929.816
205.504	14.493	1217.776	927.983
206.519	14.577	1216.519	927.409
207.534	14.508	1215.663	926.292
208.548	14.592	1214.730	925.968
209.563	14.484	1214.040	924.760
210.577	14.561	1212.974	924.290
211.592	14.663	1212.187	924.175
212.607	14.798	1211.118	924.025
213.621	14.653	1210.791	922.894
214.636	14.713	1209.808	922.395
215.650	14.660	1208.639	921.128
216.665	14.699	1207.733	920.570
217.680	14.806	1206.821	920.385
218.694	14.805	1205.930	919.615
219.709	14.676	1205.472	918.475
220.723	14.759	1204.330	917.983
221.738	14.698	1204.144	917.423
222.753	14.809	1203.017	917.094
223.767	14.721	1202.615	916.224
224.782	14.979	1201.282	916.538
225.796	14.949	1200.911	916.012
226.811	14.808	1200.550	914.881
227.826	14.816	1199.805	914.277
228.840	14.898	1198.740	913.832
229.855	14.884	1197.818	912.973
230.869	14.900	1197.118	912.447
231.884	14.750	1196.689	911.221
232.899	14.796	1195.634	910.584
233.913	14.811	1195.069	910.159
234.928	14.817	1193.684	909.055
235.942	14.684	1193.537	908.140
236.957	14.825	1192.259	907.853
237.972	14.785	1191.654	907.095
238.986	14.876	1190.962	906.978
240.001	14.906	1189.913	906.265
241.015	14.860	1188.873	905.141
242.030	14.872	1188.889	905.142
243.045	14.929	1187.926	904.638
244.059	15.001	1186.691	904.004
245.074	14.893	1186.205	902.971
246.088	14.987	1185.436	902.815
247.103	14.995	1184.798	902.291
248.117	15.181	1183.855	902.494
249.132	15.145	1183.406	901.878
250.147	15.305	1182.413	901.901
251.161	15.339	1181.808	901.541
252.176	15.360	1180.998	900.961
253.190	15.451	1180.499	900.987
254.205	15.411	1180.006	900.315
255.220	15.342	1179.587	899.548
256.234	15.487	1178.750	899.604
257.249	15.402	1177.853	898.388
258.263	15.449	1177.516	898.304
259.278	15.414	1176.620	897.349
260.293	15.515	1176.314	897.578
261.307	15.672	1174.934	897.283
262.322	15.642	1174.460	896.683
263.336	15.652	1173.914	896.237
264.351	15.664	1173.362	895.805
265.366	15.565	1172.822	894.784
266.380	15.633	1172.476	894.802
267.395	15.648	1171.180	893.812
268.409	15.503	1170.356	892.336
269.424	15.654	1169.078	892.085
270.439	15.598	1169.399	891.951
271.453	15.642	1168.183	891.178
272.468	15.553	1167.428	890.050
273.482	15.469	1166.703	888.979
274.497	15.506	1166.045	888.591
275.512	15.537	1165.764	888.462
276.526	15.596	1164.633	887.835
277.541	15.567	1163.977	887.103
278.555	15.651	1163.276	886.932
279.570	15.702	1162.680	886.667
280.585	15.755	1161.717	886.138
281.599	15.762	1160.875	885.449
282.614	15.707	1159.942	884.373
283.628	15.598	1158.867	882.903
284.643	15.664	1157.957	882.477
285.657	15.713	1156.740	881.731
286.672	15.785	1155.788	881.303
287.687	15.679	1155.318	880.313
288.701	15.785	1154.295	880.008
289.716	15.801	1153.343	879.286
290.730	15.811	1152.900	878.925
291.745	15.791	1152.264	878.259
292.760	15.818	1151.507	877.741
293.774	15.936	1150.575	877.569
294.789	15.973	1150.539	877.656
295.803	15.932	1149.654	876.694
296.818	15.929	1148.749	875.910
297.833	15.861	1147.973	874.885
298.847	15.799	1147.357	874.020
299.862	15.922	1146.422	873.865
300.876	15.926	1145.909	873.417
301.891	16.013	1145.371	873.383
302.906	16.016	1144.410	872.586
303.920	15.989	1144.094	872.129
304.935	16.159	1143.179	872.233
305.949	16.270	1142.470	872.188
306.964	16.111	1142.129	871.030
307.979	16.237	1140.663	870.486
308.993	16.124	1140.302	869.550
310.008	16.241	1139.519	869.480
311.022	16.215	1138.873	868.777
312.037	16.287	1137.713	868.184
313.052	16.259	1136.449	867.001
314.066	16.124	1135.913	865.819
315.081	16.085	1135.260	865.047
316.095	16.055	1134.122	863.947
317.110	16.059	1133.614	863.506
318.125	16.033	1133.120	862.919
319.139	16.247	1132.310	863.319
320.154	16.075	1131.664	861.871
321.168	16.155	1131.158	861.818
322.183	16.103	1130.417	860.911
323.197	16.217	1129.573	860.778
324.212	16.237	1128.991	860.358
325.227	16.220	1128.976	860.182
326.241	16.201	1128.297	859.493
327.256	16.160	1127.441	858.558
328.270	16.055	1126.378	857.137
329.285	16.189	1125.489	857.065
330.300	16.328	1123.809	856.416
331.314	16.283	1123.393	855.794
332.329	16.233	1122.683	854.924
333.343	16.272	1121.429	854.095
334.358	16.412	1120.293	853.860
335.373	16.400	1119.597	853.193
336.387	16.464	1118.873	852.890
337.402	16.529	1118.203	852.629
338.416	16.410	1117.849	851.685
339.431	16.396	1117.235	851.068
340.446	16.550	1116.573	851.267
341.460	16.606	1115.864	850.934
342.475	16.650	1115.006	850.423
343.489	16.622	1113.852	849.327
344.504	16.654	1113.338	849.022
345.519	16.770	1112.338	848.765
346.533	16.750	1111.631	848.053
347.548	16.791	1110.802	847.547
348.562	16.817	1109.748	846.798
349.577	16.635	1109.466	845.598
350.592	16.674	1108.329	844.850
351.606	16.499	1107.812	843.510
352.621	16.593	1107.074	843.345
353.635	16.568	1106.584	842.770
354.650	16.593	1105.864	842.271
355.665	16.632	1104.794	841.574
356.679	16.636	1104.134	841.017
357.694	16.696	1104.073	841.197
358.708	16.683	1103.310	840.474
359.723	16.759	1102.634	840.261
360.738	16.756	1101.910	839.621
361.752	16.841	1101.431	839.606
362.767	16.702	1100.638	838.238
363.781	16.886	1099.761	838.405
364.796	16.840	1099.410	837.834
365.810	16.908	1099.056	837.829
366.825	17.066	1098.077	837.788
367.840	17.081	1097.970	837.708
368.854	17.025	1097.218	836.780
369.869	17.012	1096.520	836.112
370.883	16.997	1095.367	835.083
371.898	17.033	1094.667	834.654
372.913	17.056	1094.370	834.467
373.927	17.174	1093.442	834.264
374.942	17.134	1092.879	833.565
375.956	17.102	1092.601	833.123
376.971	17.089	1091.760	832.344
377.986	17.090	1091.388	831.991
379.000	17.242	1090.773	832.194
380.015	17.324	1090.137	832.036
381.029	17.240	1089.744	831.253
382.044	17.196	1089.279	830.606
383.059	17.286	1088.077	830.055
384.073	17.328	1086.870	829.270
385.088	17.324	1086.591	828.964
386.102	17.329	1085.693	828.226
387.117	17.236	1084.359	826.683
388.132	17.259	1083.244	825.872
389.146	17.152	1082.638	824.817
390.161	17.214	1082.176	824.692
391.175	17.262	1081.111	824.042
392.190	17.182	1080.968	823.471
393.205	17.434	1079.705	823.659
394.219	17.434	1078.815	822.904
395.234	17.227	1078.233	821.391
396.248	17.325	1076.985	820.837
397.263	17.425	1075.937	820.447
398.278	17.181	1075.671	818.997
399.292	17.268	1074.717	818.616
400.307	17.297	1073.739	817.939
401.321	17.268	1073.106	817.244
402.336	17.322	1072.582	817.033
403.350	17.310	1071.876	816.368
404.365	17.222	1071.201	815.356
405.380	17.436	1070.579	815.837
406.394	17.522	1069.466	815.332
407.409	17.534	1069.054	815.002
408.423	17.502	1068.444	814.309
409.438	17.430	1068.083	813.622
410.453	17.629	1067.208	813.833
411.467	17.686	1066.322	813.355
412.482	17.603	1065.690	812.405
413.496	17.696	1064.618	811.960
414.511	17.736	1064.029	811.629
415.526	17.718	1063.974	811.432
416.540	17.772	1063.670	811.383
417.555	17.990	1062.564	811.503
418.569	17.834	1062.312	810.497
419.584	17.892	1061.650	810.198
420.599	17.715	1061.254	808.983
421.613	138.742	1392.639	1752.363
422.628	127.456	1440.942	1752.477
