DTS Sentinel unit serial number:	SN413079Multiplexer serial number:	ORYXHardware model number:	OX4-SRSoftware version number:	ORYX F/W v4.00 Oryx Data Collector v3.7.2.0data status	okinstallation	princeton_trtdifferential loss correction	single-endedforward channel	channel 2reverse channel	N/Adate	2019/09/13time	13:43:35forward acquisition time	60.00reverse acquisition time	0.00gamma	496.2192k internal	0.2315k external	0.2315temperature offset calibration	1.0207default loss term (dB/km)	0.3790temperature slope calibration	1.0000multiplexer offset coefficient	1.0000multiplexer slope coefficient	1.0000fibre end	0.00T internal ref (°C)	35.12T ext. ref 1 (°C)	4.58T ext. ref 2 (°C)	31.31length (m)	temperature (°C)	Stokes	anti-Stokes-747.200	-156.993	0.327	0.020
-746.185	118.077	-0.252	0.315
-745.171	113.919	0.046	0.056
-744.156	688.969	0.167	0.443
-743.142	-142.632	0.162	0.016
-742.127	800.000	0.113	0.407
-741.112	-112.518	0.261	0.053
-740.098	800.000	0.034	0.147
-739.083	130.582	-0.113	-0.147
-738.069	-28.476	-0.296	0.173
-737.054	553.921	-0.015	-0.038
-736.039	-200.000	-0.034	0.271
-735.025	-83.875	-0.257	0.083
-734.010	-111.037	-0.240	-0.050
-732.996	800.000	0.068	-0.270
-731.981	800.000	-0.061	-0.210
-730.966	20.287	-0.077	0.063
-729.952	-127.372	-0.160	0.024
-728.937	-200.000	0.025	-0.626
-727.923	269.039	-0.005	-0.008
-726.908	29.709	-0.332	-0.286
-725.894	-10.608	0.114	0.076
-724.879	-200.000	-0.006	0.050
-723.864	-96.880	-0.188	0.050
-722.850	-16.420	0.203	-0.130
-721.835	250.341	-0.121	-0.208
-720.821	800.000	0.047	-0.155
-719.806	-200.000	-0.017	-0.161
-718.791	-79.888	-0.475	0.162
-717.777	107.340	0.062	0.075
-716.762	800.000	0.093	-0.362
-715.748	-25.962	-0.186	-0.111
-714.733	46.507	-0.148	0.139
-713.718	-7.765	-0.154	0.105
-712.704	133.186	-0.088	-0.116
-711.689	-114.260	0.175	0.034
-710.675	800.000	0.059	-0.188
-709.660	44.245	-0.100	-0.092
-708.645	-103.108	-0.115	0.028
-707.631	34.784	-0.121	0.107
-706.616	318.756	-0.195	-0.374
-705.602	102.571	-0.124	-0.147
-704.587	-200.000	-0.004	-0.428
-703.572	-3.422	0.096	0.068
-702.558	-140.339	0.025	-0.003
-701.543	303.029	0.011	-0.021
-700.529	120.747	-0.129	-0.162
-699.514	-33.968	-0.417	-0.232
-698.499	49.154	0.203	0.193
-697.485	170.772	-0.149	-0.216
-696.470	800.000	-0.037	0.157
-695.456	-106.122	-0.322	-0.073
-694.441	-2.810	0.388	-0.274
-693.426	800.000	-0.021	0.065
-692.412	-47.991	-0.280	-0.137
-691.397	334.766	0.133	-0.260
-690.383	623.005	0.109	-0.278
-689.368	29.808	0.147	-0.127
-688.354	16.851	-0.115	0.092
-687.339	-52.303	-0.110	0.051
-686.324	369.603	0.146	-0.300
-685.310	180.062	-0.087	-0.129
-684.295	403.296	-0.073	-0.155
-683.281	-11.800	-0.200	0.133
-682.266	304.095	-0.105	-0.198
-681.251	-52.547	-0.232	-0.108
-680.237	-99.245	0.027	0.007
-679.222	183.294	-0.305	0.455
-678.208	-26.823	0.162	-0.096
-677.193	-42.678	-0.261	0.134
-676.178	-81.744	0.247	0.082
-675.164	-43.673	0.301	0.153
-674.149	-200.000	-0.027	0.166
-673.135	-200.000	0.023	-0.138
-672.120	156.831	-0.101	0.141
-671.105	87.549	0.147	-0.164
-670.091	-126.557	0.359	-0.054
-669.076	472.549	-0.052	-0.118
-668.062	4.995	-0.221	-0.165
-667.047	324.022	-0.225	-0.433
-666.032	-66.462	0.056	0.022
-665.018	800.000	-0.081	-0.234
-664.003	285.193	0.084	0.152
-662.989	-200.000	0.045	-0.206
-661.974	42.252	-0.174	-0.160
-660.959	-81.988	-0.105	0.035
-659.945	-200.000	0.022	-0.173
-658.930	-77.126	-0.244	0.086
-657.916	-107.120	-0.369	-0.082
-656.901	392.019	0.061	-0.127
-655.886	114.193	0.107	-0.132
-654.872	83.161	-0.072	-0.079
-653.857	800.000	-0.053	-0.181
-652.843	-75.354	-0.271	0.097
-651.828	-6.888	0.226	-0.155
-650.814	-139.955	0.078	0.008
-649.799	-200.000	0.011	-0.257
-648.784	4.669	0.178	-0.132
-647.770	-64.538	0.178	-0.073
-646.755	459.738	0.069	-0.155
-645.741	609.339	-0.052	-0.132
-644.726	324.941	0.069	-0.132
-643.711	-200.000	0.007	0.132
-642.697	681.663	0.124	0.326
-641.682	62.229	-0.090	0.091
-640.668	497.146	-0.094	-0.217
-639.653	-200.000	-0.055	0.308
-638.638	-13.040	0.238	0.156
-637.624	-200.000	0.018	-0.260
-636.609	-200.000	0.009	-0.328
-635.595	-14.355	0.247	0.161
-634.580	-200.000	-0.003	0.301
-633.565	-180.419	-0.202	-0.004
-632.551	-49.880	-0.405	-0.194
-631.536	284.730	0.151	0.274
-630.522	46.639	-0.150	-0.140
-629.507	800.000	0.016	-0.055
-628.492	-160.801	0.070	-0.004
-627.478	74.417	0.316	0.335
-626.463	-5.187	0.188	-0.130
-625.449	574.077	-0.110	-0.271
-624.434	-200.000	-0.007	-0.106
-623.419	800.000	-0.052	-0.186
-622.405	-86.483	-0.073	0.023
-621.390	-200.000	0.024	-0.253
-620.376	-137.149	0.215	0.025
-619.361	-135.130	-0.083	0.010
-618.346	-170.517	0.233	-0.008
-617.332	-108.609	0.115	0.025
-616.317	-18.064	-0.283	-0.179
-615.303	-57.908	0.325	-0.143
-614.288	-200.000	-0.067	-0.299
-613.273	800.000	-0.023	0.086
-612.259	-187.239	0.572	0.008
-611.244	-17.813	0.053	0.034
-610.230	800.000	-0.066	0.272
-609.215	-5.306	-0.179	-0.124
-608.201	253.467	0.058	-0.100
-607.186	-200.000	-0.018	-0.119
-606.171	800.000	0.078	-0.285
-605.157	371.123	0.122	0.249
-604.142	48.187	-0.193	0.182
-603.128	-200.000	0.049	-0.267
-602.113	36.329	0.265	0.236
-601.098	182.009	-0.091	0.136
-600.084	-71.892	-0.353	0.132
-599.069	-170.202	-0.119	0.004
-598.055	-159.756	-0.096	0.005
-597.040	329.685	-0.187	0.363
-596.025	533.752	0.095	-0.227
-595.011	122.762	0.042	0.053
-593.996	-107.386	0.131	0.029
-592.982	-128.598	-0.241	-0.034
-591.967	24.459	-0.310	-0.259
-590.952	-170.508	0.370	0.013
-589.938	-78.147	-0.251	-0.087
-588.923	305.687	-0.130	0.244
-587.909	-61.752	0.104	-0.044
-586.894	-200.000	-0.019	0.118
-585.879	-200.000	-0.015	-0.077
-584.865	155.725	-0.155	0.215
-583.850	250.107	-0.175	0.300
-582.836	63.551	-0.171	0.173
-581.821	-189.119	0.237	-0.003
-580.806	119.496	-0.170	0.212
-579.792	-32.663	-0.171	-0.096
-578.777	136.244	0.182	-0.239
-577.763	642.646	-0.130	-0.334
-576.748	-12.056	0.305	-0.201
-575.733	234.926	-0.187	-0.311
-574.719	-136.179	-0.371	-0.044
-573.704	145.108	-0.126	-0.170
-572.690	106.978	-0.103	0.123
-571.675	-98.812	0.275	-0.070
-570.661	800.000	-0.073	0.307
-569.646	-200.000	-0.029	0.436
-568.631	-146.304	-0.420	0.037
-567.617	-200.000	0.039	0.174
-566.602	-140.271	-0.109	-0.012
-565.588	41.361	0.078	0.071
-564.573	-200.000	-0.023	0.188
-563.558	159.935	-0.123	-0.173
-562.544	-200.000	-0.033	0.209
-561.529	-73.779	-0.117	0.043
-560.515	422.528	0.127	-0.275
-559.500	-200.000	0.006	-0.073
-558.485	97.357	0.410	0.474
-557.471	-88.200	0.352	0.106
-556.456	-124.024	-0.087	-0.014
-555.442	-153.510	0.157	0.011
-554.427	714.457	-0.026	-0.070
-553.412	0.506	0.194	0.140
-552.398	-53.299	-0.266	-0.123
-551.383	-200.000	0.035	0.399
-550.369	-124.736	-0.267	0.042
-549.354	-125.354	-0.181	-0.028
-548.339	-13.281	-0.089	0.058
-547.325	-91.993	-0.213	-0.061
-546.310	-132.136	-0.119	0.016
-545.296	-136.625	-0.388	-0.045
-544.281	-9.477	-0.165	-0.111
-543.266	2.548	0.171	0.125
-542.252	-94.406	0.256	0.070
-541.237	16.267	-0.063	0.050
-540.223	60.620	-0.211	-0.210
-539.208	17.219	0.035	0.028
-538.193	-191.718	0.052	0.001
-537.179	-200.000	0.003	-0.103
-536.164	-0.779	0.207	-0.147
-535.150	-41.368	-0.261	0.135
-534.135	54.107	-0.115	0.111
-533.121	-29.252	-0.408	0.235
-532.106	137.659	-0.147	-0.194
-531.091	23.452	-0.217	0.179
-530.077	331.667	-0.079	0.153
-529.062	-48.874	0.120	0.058
-528.048	39.235	-0.045	-0.040
-527.033	-50.251	0.355	0.169
-526.018	800.000	0.036	-0.106
-525.004	30.059	0.104	-0.090
-523.989	-125.002	-0.328	-0.051
-522.975	800.000	0.059	0.173
-521.960	-200.000	-0.087	-0.443
-520.945	103.140	-0.174	-0.205
-519.931	-140.096	-0.127	0.013
-518.916	-127.323	-0.066	0.010
-517.902	-96.689	0.203	-0.054
-516.887	-200.000	0.005	-0.050
-515.872	0.342	-0.022	0.016
-514.858	279.995	0.114	-0.204
-513.843	-200.000	-0.010	0.144
-512.829	800.000	-0.071	-0.212
-511.814	156.969	-0.035	-0.048
-510.799	-200.000	-0.004	0.080
-509.785	71.848	0.109	0.114
-508.770	-111.740	-0.177	-0.036
-507.756	163.215	0.117	0.165
-506.741	-200.000	0.011	-0.169
-505.726	-138.670	0.130	0.014
-504.712	-200.000	-0.008	0.280
-503.697	28.215	0.099	-0.084
-502.683	359.545	-0.210	-0.422
-501.668	517.229	0.086	-0.201
-500.653	-200.000	0.004	0.193
-499.639	800.000	-0.034	-0.143
-498.624	-95.402	-0.313	-0.084
-497.610	-80.579	0.424	0.142
-496.595	-11.286	0.174	0.115
-495.581	35.055	0.121	0.106
-494.566	800.000	-0.053	-0.213
-493.551	-82.245	-0.376	-0.123
-492.537	-52.670	-0.152	-0.071
-491.522	113.175	-0.344	0.419
-490.508	0.934	0.185	-0.133
-489.493	27.797	0.323	-0.273
-488.478	-16.242	0.050	0.032
-487.464	-28.513	0.057	0.033
-486.449	-166.090	0.307	-0.013
-485.435	-182.332	-0.132	-0.002
-484.420	-200.000	-0.028	-0.135
-483.405	-148.212	-0.134	-0.011
-482.391	358.989	-0.049	0.098
-481.376	-34.099	0.241	0.133
-480.362	41.470	-0.075	-0.068
-479.347	-200.000	0.015	0.141
-478.332	-177.151	0.260	0.006
-477.318	-200.000	0.049	0.327
-476.303	-25.967	-0.129	0.076
-475.289	-200.000	-0.005	0.153
-474.274	476.988	0.172	-0.390
-473.259	226.468	-0.142	-0.231
-472.245	-49.223	0.239	0.115
-471.230	26.548	-0.077	0.065
-470.216	25.782	-0.136	0.114
-469.201	681.446	0.113	-0.294
-468.186	-113.020	-0.188	-0.037
-467.172	-58.878	0.334	0.145
-466.157	-7.062	-0.215	0.146
-465.143	-143.287	-0.437	-0.042
-464.128	117.319	-0.073	-0.090
-463.113	8.468	0.190	0.144
-462.099	-2.033	-0.275	0.193
-461.084	-93.165	-0.182	-0.051
-460.070	800.000	0.116	-0.434
-459.055	-200.000	-0.056	0.408
-458.040	-200.000	0.010	0.101
-457.026	-45.236	-0.301	0.150
-456.011	800.000	0.032	-0.138
-454.997	-121.074	-0.174	0.029
-453.982	-97.172	0.240	0.063
-452.968	-64.419	0.159	-0.065
-451.953	-173.640	-0.308	-0.009
-450.938	-70.957	0.082	0.031
-449.924	-200.000	-0.023	0.118
-448.909	-4.049	-0.224	0.155
-447.895	75.630	0.079	0.083
-446.880	-154.990	-0.254	-0.017
-445.865	-46.104	-0.164	-0.081
-444.851	-191.032	0.035	0.000
-443.836	-200.000	0.011	0.102
-442.822	-55.731	0.229	-0.102
-441.807	-200.000	-0.054	0.271
-440.792	-200.000	-0.009	0.112
-439.778	-200.000	0.007	0.149
-438.763	388.705	0.026	-0.053
-437.749	399.705	-0.153	-0.322
-436.734	-200.000	-0.044	0.251
-435.719	-200.000	-0.002	-0.157
-434.705	-144.083	-0.371	0.035
-433.690	274.053	-0.025	0.044
-432.676	-145.362	-0.361	-0.033
-431.661	200.083	0.133	-0.204
-430.646	-106.866	-0.297	-0.066
-429.632	2.871	-0.210	0.153
-428.617	-78.128	0.254	-0.087
-427.603	-42.381	0.336	0.171
-426.588	-200.000	0.070	0.359
-425.573	-200.000	0.005	-0.261
-424.559	-61.764	0.126	-0.053
-423.544	-200.000	0.014	-0.185
-422.530	-200.000	0.032	-0.202
-421.515	86.387	-0.072	-0.080
-420.500	800.000	0.022	-0.083
-419.486	-24.826	0.221	-0.131
-418.471	498.452	0.126	-0.290
-417.457	243.088	0.073	0.122
-416.442	389.768	-0.089	-0.185
-415.428	2.548	-0.128	-0.093
-414.413	80.831	0.183	0.198
-413.398	326.810	0.178	-0.341
-412.384	78.322	-0.205	0.219
-411.369	-154.632	0.218	0.015
-410.355	-58.194	-0.088	-0.038
-409.340	800.000	0.028	0.103
-408.325	387.620	0.051	-0.106
-407.311	64.906	0.179	0.181
-406.296	-38.204	0.366	0.194
-405.282	691.180	0.067	0.176
-404.267	180.310	0.074	0.108
-403.252	-47.827	0.154	-0.075
-402.238	51.948	-0.172	-0.164
-401.223	-200.000	0.053	0.292
-400.209	-125.698	-0.204	0.031
-399.194	-95.530	-0.285	0.076
-398.179	-200.000	0.018	0.082
-397.165	-83.568	0.219	-0.070
-396.150	-30.469	0.234	-0.133
-395.136	-41.647	0.309	0.159
-394.121	440.230	-0.117	-0.255
-393.106	-11.786	-0.195	0.128
-392.092	-11.011	0.251	-0.166
-391.077	800.000	0.066	0.211
-390.063	103.824	-0.117	-0.138
-389.048	103.502	0.180	0.211
-388.033	26.108	-0.130	0.109
-387.019	-113.486	0.230	0.045
-386.004	134.835	-0.015	-0.019
-384.990	186.430	0.107	0.159
-383.975	800.000	-0.085	0.262
-382.960	-200.000	-0.003	-0.060
-381.946	-34.315	-0.057	0.031
-380.931	-200.000	0.009	0.090
-379.917	-117.394	-0.245	0.044
-378.902	-200.000	0.014	-0.135
-377.888	-200.000	0.017	-0.139
-376.873	800.000	-0.036	0.137
-375.858	-52.746	0.345	-0.159
-374.844	-200.000	0.017	-0.166
-373.829	53.695	-0.045	-0.043
-372.815	86.203	-0.074	-0.082
-371.800	-200.000	-0.014	0.138
-370.785	-79.305	0.073	0.025
-369.771	-156.251	-0.164	0.010
-368.756	6.638	0.121	0.090
-367.742	-57.061	0.221	0.097
-366.727	-78.419	0.268	0.092
-365.712	-32.178	-0.069	-0.039
-364.698	155.749	-0.152	-0.209
-363.683	-79.955	0.109	0.037
-362.669	-134.086	0.046	-0.006
-361.654	-200.000	-0.007	-0.304
-360.639	86.388	-0.156	0.172
-359.625	-200.000	0.024	0.175
-358.610	-5.840	-0.155	-0.106
-357.596	66.606	0.093	-0.095
-356.581	141.765	0.162	-0.215
-355.566	-64.757	-0.222	0.090
-354.552	-37.180	0.470	0.251
-353.537	-44.539	-0.319	0.159
-352.523	-120.368	-0.118	0.020
-351.508	-124.533	-0.541	0.084
-350.493	-112.322	-0.231	-0.046
-349.479	14.796	0.085	0.067
-348.464	25.112	0.132	0.110
-347.450	197.315	-0.267	-0.407
-346.435	-90.678	0.369	-0.106
-345.420	-126.943	-0.047	-0.007
-344.406	62.372	-0.151	-0.150
-343.391	-200.000	-0.037	-0.226
-342.377	333.517	-0.148	0.285
-341.362	-28.089	0.195	0.112
-340.348	109.493	-0.247	-0.295
-339.333	97.871	0.222	0.255
-338.318	-13.790	-0.116	-0.075
-337.304	-96.552	-0.085	-0.022
-336.289	-97.151	-0.254	0.066
-335.275	7.017	0.120	0.089
-334.260	-47.207	-0.078	-0.038
-333.245	168.855	0.083	-0.117
-332.231	-64.928	-0.430	0.173
-331.216	-151.675	-0.124	0.009
-330.202	-125.316	0.219	0.033
-329.187	317.415	-0.088	0.166
-328.172	244.469	-0.034	0.058
-327.158	-200.000	-0.006	-0.034
-326.143	-200.000	-0.034	-0.190
-325.129	33.399	0.038	-0.033
-324.114	20.332	-0.003	0.002
-323.099	222.408	0.086	0.138
-322.085	-200.000	0.021	0.277
-321.070	-12.899	-0.116	-0.075
-320.056	-123.123	0.330	-0.053
-319.041	800.000	0.077	-0.304
-318.026	-200.000	-0.041	0.292
-317.012	138.142	0.064	-0.083
-315.997	26.972	0.060	0.050
-314.983	82.585	0.104	0.112
-313.968	800.000	0.064	-0.243
-312.953	-24.980	-0.207	-0.123
-311.939	-200.000	-0.058	0.267
-310.924	-14.195	0.030	0.019
-309.910	-200.000	0.013	0.141
-308.895	-135.722	0.240	0.028
-307.880	-200.000	-0.005	0.284
-306.866	-29.538	-0.107	-0.061
-305.851	800.000	-0.055	0.161
-304.837	262.001	0.076	-0.132
-303.822	347.095	0.048	-0.094
-302.807	121.268	0.227	0.281
-301.793	-93.906	-0.284	0.078
-300.778	-117.508	-0.210	-0.038
-299.764	54.035	-0.108	-0.104
-298.749	276.285	0.208	-0.368
-297.735	-10.416	-0.361	0.238
-296.720	658.632	-0.085	-0.218
-295.705	-115.870	-0.013	0.002
-294.691	5.048	0.170	-0.125
-293.676	-28.598	0.141	-0.081
-292.662	535.291	-0.075	0.178
-291.647	449.639	0.115	0.253
-290.632	56.966	0.292	-0.283
-289.618	-76.773	0.298	-0.104
-288.603	-108.610	-0.369	0.079
-287.589	800.000	0.077	0.298
-286.574	-200.000	-0.196	-0.001
-285.559	195.785	0.031	-0.046
-284.545	531.207	-0.111	-0.261
-283.530	77.390	0.223	-0.236
-282.516	2.616	-0.220	0.159
-281.501	-50.536	0.125	0.058
-280.486	-81.877	0.263	-0.086
-279.472	19.228	-0.092	0.073
-278.457	78.367	-0.138	-0.147
-277.443	49.558	-0.089	-0.083
-276.428	-200.000	0.017	-0.188
-275.413	800.000	0.051	-0.145
-274.399	96.113	-0.251	-0.286
-273.384	29.122	-0.287	-0.242
-272.370	-8.429	-0.169	-0.113
-271.355	105.054	-0.225	0.264
-270.340	800.000	0.067	-0.215
-269.326	1.435	0.151	0.108
-268.311	171.105	0.238	-0.339
-267.297	-200.000	-0.058	-0.351
-266.282	201.248	0.242	0.371
-265.267	80.682	-0.155	-0.166
-264.253	-15.107	0.096	0.061
-263.238	-200.000	0.030	0.191
-262.224	482.843	0.035	-0.078
-261.209	336.101	-0.095	-0.183
-260.195	673.445	-0.098	-0.252
-259.180	800.000	-0.099	-0.393
-258.165	800.000	-0.040	0.150
-257.151	53.217	-0.185	0.176
-256.136	43.412	-0.189	-0.172
-255.122	59.569	0.385	-0.377
-254.107	301.308	-0.037	-0.068
-253.092	-105.949	0.169	0.038
-252.078	-200.000	-0.010	-0.045
-251.063	36.433	0.144	0.126
-250.049	-200.000	0.008	0.120
-249.034	172.969	0.165	0.237
-248.019	169.631	0.156	-0.221
-247.005	-15.807	-0.129	-0.082
-245.990	-200.000	-0.019	0.240
-244.976	-41.737	0.406	0.207
-243.961	-200.000	0.029	0.176
-242.946	-200.000	0.051	0.229
-241.932	203.908	0.125	0.192
-240.917	-130.831	-0.063	-0.008
-239.903	-1.726	0.230	-0.161
-238.888	144.779	0.120	-0.160
-237.873	-36.398	0.110	-0.059
-236.859	200.302	-0.035	0.053
-235.844	-171.868	0.291	-0.009
-234.830	-52.672	-0.375	0.172
-233.815	238.896	0.152	0.251
-232.800	-88.735	0.175	0.052
-231.786	-200.000	0.115	0.582
-230.771	-49.623	-0.165	0.078
-229.757	9.600	0.225	-0.169
-228.742	-200.000	0.019	-0.105
-227.727	15.759	-0.238	0.186
-226.713	190.652	-0.203	0.303
-225.698	-50.183	0.203	0.095
-224.684	70.727	0.215	-0.221
-223.669	800.000	0.042	-0.139
-222.655	-133.616	0.135	0.017
-221.640	20.468	-0.107	0.086
-220.625	143.968	0.063	-0.084
-219.611	24.831	-0.207	-0.171
-218.596	-80.273	0.199	-0.066
-217.582	12.843	0.108	-0.083
-216.567	-18.438	-0.254	0.158
-215.552	39.678	0.141	0.126
-214.538	-85.349	0.374	0.116
-213.523	-1.762	0.148	-0.103
-212.509	-200.000	0.013	-0.123
-211.494	1.672	0.238	0.170
-210.479	-6.556	0.288	-0.195
-209.465	-61.929	0.167	0.069
-208.450	540.263	0.043	-0.101
-207.436	240.797	0.133	0.221
-206.421	-52.359	-0.211	0.097
-205.406	362.517	0.117	0.234
-204.392	-200.000	-0.001	-0.114
-203.377	48.885	0.109	0.101
-202.363	-125.668	0.261	-0.039
-201.348	168.490	-0.084	0.119
-200.333	-58.230	0.251	0.109
-199.319	102.047	0.132	0.153
-198.304	-184.381	0.158	-0.003
-197.290	577.489	-0.054	0.131
-196.275	208.675	-0.155	0.240
-195.260	800.000	-0.076	-0.240
-194.246	-41.093	-0.203	-0.104
-193.231	-200.000	-0.011	0.546
-192.217	585.788	0.079	0.192
-191.202	-111.213	0.111	-0.022
-190.187	-115.004	-0.364	-0.069
-189.173	-141.070	0.195	-0.020
-188.158	-176.072	-0.211	-0.006
-187.144	465.554	0.027	0.061
-186.129	-112.938	-0.261	-0.051
-185.114	-36.401	0.246	-0.131
-184.100	57.692	0.171	0.166
-183.085	800.000	0.091	-0.305
-182.071	-200.000	-0.002	-0.189
-181.056	684.465	-0.104	-0.270
-180.042	137.993	0.129	-0.168
-179.027	800.000	0.054	0.183
-178.012	-4.198	0.072	0.049
-176.998	-57.399	0.154	-0.067
-175.983	96.229	0.057	-0.065
-174.969	-25.257	-0.085	0.050
-173.954	-74.448	-0.334	-0.119
-172.939	800.000	0.072	0.214
-171.925	321.190	0.065	0.123
-170.910	-200.000	-0.042	-0.202
-169.896	-34.274	-0.138	-0.075
-168.881	-27.882	-0.059	-0.034
-167.866	-86.902	-0.201	0.061
-166.852	-117.000	-0.094	-0.017
-165.837	-200.000	0.009	-0.076
-164.823	514.757	0.111	-0.258
-163.808	-200.000	-0.005	0.117
-162.793	-131.078	-0.267	-0.035
-161.779	800.000	-0.056	-0.177
-160.764	204.186	0.239	-0.367
-159.750	-59.655	-0.181	0.077
-158.735	-75.893	0.283	-0.099
-157.720	-89.932	-0.328	-0.095
-156.706	-95.429	-0.178	0.047
-155.691	-78.111	0.267	0.091
-154.677	800.000	-0.067	-0.200
-153.662	184.462	-0.140	-0.205
-152.647	182.397	0.123	-0.180
-151.633	800.000	-0.051	0.213
-150.618	87.035	-0.095	-0.104
-149.604	49.277	-0.046	0.043
-148.589	137.522	0.321	0.416
-147.574	25.488	-0.250	-0.206
-146.560	-69.888	0.006	0.002
-145.545	-20.103	0.235	-0.143
-144.531	-9.884	0.348	-0.229
-143.516	-145.036	0.342	0.031
-142.502	-200.000	0.004	-0.095
-141.487	190.257	-0.295	0.438
-140.472	-200.000	0.029	0.249
-139.458	203.151	0.219	-0.335
-138.443	-200.000	-0.056	0.347
-137.429	800.000	-0.035	-0.136
-136.414	125.874	0.226	0.283
-135.399	630.521	0.094	0.235
-134.385	-99.915	0.241	0.060
-133.370	276.627	-0.056	0.099
-132.356	-87.287	0.185	0.056
-131.341	-59.927	-0.226	-0.096
-130.326	43.850	0.170	-0.154
-129.312	-200.000	0.051	-0.230
-128.297	-50.504	-0.156	-0.073
-127.283	110.356	-0.219	-0.260
-126.268	-37.408	-0.116	-0.061
-125.253	-200.000	0.080	0.424
-124.239	241.151	0.216	-0.356
-123.224	-200.000	-0.011	-0.264
-122.210	695.643	0.072	0.186
-121.195	-96.396	0.099	-0.026
-120.180	-200.000	0.042	-0.441
-119.166	-115.406	-0.376	0.070
-118.151	630.867	0.060	0.150
-117.137	337.193	0.058	-0.111
-116.122	-87.520	-0.246	-0.074
-115.107	70.527	-0.093	-0.095
-114.093	658.002	-0.062	0.157
-113.078	686.810	-0.110	-0.285
-112.064	800.000	-0.061	0.207
-111.049	-200.000	0.011	0.233
-110.034	800.000	-0.074	0.267
-109.020	302.049	0.119	0.218
-108.005	150.046	0.102	0.137
-106.991	-200.000	0.017	-0.201
-105.976	-59.165	0.222	-0.094
-104.962	74.982	0.219	0.228
-103.947	-48.636	0.312	0.148
-102.932	-32.971	-0.204	0.112
-101.918	-105.669	-0.287	-0.064
-100.903	-120.870	0.058	-0.010
-99.889	8.136	-0.110	-0.082
-98.874	44.582	-0.303	0.275
-97.859	260.439	-0.127	0.217
-96.845	181.010	0.102	0.148
-95.830	-189.139	-0.295	0.003
-94.816	618.575	0.053	0.131
-93.801	411.080	-0.163	-0.341
-92.786	-35.240	0.113	0.061
-91.772	26.245	0.167	0.138
-90.757	-200.000	-0.029	0.145
-89.743	128.508	0.184	0.232
-88.728	-200.000	-0.004	0.151
-87.713	238.332	-0.133	-0.218
-86.699	-46.144	0.040	-0.020
-85.684	-2.058	-0.190	-0.132
-84.670	-3.147	-0.306	-0.210
-83.655	-1.243	0.261	-0.182
-82.640	-36.768	0.038	-0.020
-81.626	800.000	0.006	-0.020
-80.611	132.843	-0.144	-0.184
-79.597	800.000	0.012	-0.047
-78.582	77.986	-0.215	0.226
-77.567	260.773	-0.138	-0.236
-76.553	-61.489	0.186	-0.077
-75.538	-200.000	0.066	0.405
-74.524	-200.000	0.028	-0.124
-73.509	-200.000	-0.016	0.209
-72.494	52.613	0.254	-0.240
-71.480	-131.214	-0.152	-0.020
-70.465	-53.568	0.335	0.151
-69.451	-200.000	-0.031	0.348
-68.436	-5.109	-0.409	0.278
-67.422	800.000	0.061	0.256
-66.407	130.792	0.080	-0.101
-65.392	-200.000	-0.021	0.120
-64.378	800.000	-0.086	0.245
-63.363	221.142	-0.080	-0.127
-62.349	-30.275	0.468	0.263
-61.334	10.891	-0.966	-0.728
-60.319	130.680	0.233	0.294
-59.305	800.000	-0.288	-0.824
-58.290	118.112	0.601	0.731
-57.276	361.471	0.833	1.647
-56.261	-200.000	94.346	557.608
-55.246	643.938	1382.114	3477.673
-54.232	186.498	2612.238	3836.017
-53.217	117.385	2321.914	2816.591
-52.203	45.225	1932.874	1757.898
-51.188	38.548	1718.492	1511.543
-50.173	35.604	1672.976	1449.286
-49.159	51.865	1720.678	1615.350
-48.144	55.395	1738.238	1658.763
-47.130	38.185	1695.062	1487.932
-46.115	35.310	1679.734	1452.683
-45.100	34.964	1675.475	1446.324
-44.086	34.951	1673.009	1444.036
-43.071	34.982	1669.868	1441.501
-42.057	34.978	1667.463	1439.338
-41.042	35.047	1665.694	1438.274
-40.027	35.079	1663.981	1436.981
-39.013	35.095	1661.824	1435.183
-37.998	34.997	1659.987	1432.806
-36.984	34.991	1658.763	1431.644
-35.969	35.070	1657.449	1431.047
-34.954	35.144	1655.609	1429.953
-33.940	35.155	1653.479	1428.134
-32.925	35.186	1652.150	1427.164
-31.911	35.145	1650.442	1425.328
-30.896	35.137	1648.860	1423.846
-29.881	34.990	1647.159	1421.223
-28.867	35.126	1645.205	1420.496
-27.852	35.160	1643.533	1419.244
-26.838	35.084	1642.329	1417.583
-25.823	35.084	1641.041	1416.418
-24.809	35.152	1639.377	1415.430
-23.794	35.194	1637.770	1414.292
-22.779	35.186	1636.825	1413.366
-21.765	35.130	1635.326	1411.601
-20.750	35.174	1633.036	1409.892
-19.736	35.144	1632.011	1408.726
-18.721	35.171	1630.195	1407.303
-17.706	35.186	1628.025	1405.486
-16.692	35.176	1626.930	1404.414
-15.677	35.103	1625.556	1402.633
-14.663	35.106	1624.311	1401.526
-13.648	35.140	1623.335	1400.881
-12.633	35.189	1621.257	1399.390
-11.619	35.193	1619.592	1397.925
-10.604	35.223	1617.936	1396.658
-9.590	35.145	1617.077	1395.292
-8.575	35.212	1615.151	1394.063
-7.560	35.135	1614.322	1392.731
-6.546	35.013	1613.106	1390.739
-5.531	35.169	1611.639	1390.554
-4.517	35.259	1610.590	1390.243
-3.502	35.235	1609.404	1388.992
-2.487	35.252	1607.907	1387.772
-1.473	35.075	1596.750	1376.814
-0.458	32.235	1577.690	1340.109
0.556	30.500	1576.885	1302.050
1.571	27.629	1599.811	1300.416
2.586	26.295	1612.494	1301.017
3.600	23.017	1558.272	1234.309
4.615	14.051	1446.228	1087.080
5.629	6.061	1379.804	987.035
6.644	4.563	1371.286	971.494
7.659	4.525	1369.952	970.226
8.673	4.597	1369.042	969.949
9.688	4.635	1367.245	968.823
10.702	4.545	1364.971	966.570
11.717	8.265	1372.557	995.080
12.731	17.117	1388.294	1061.999
13.746	22.485	1396.382	1101.766
14.761	22.706	1395.685	1102.500
15.775	21.894	1393.179	1095.359
16.790	20.849	1390.753	1086.839
17.804	20.060	1388.519	1080.080
18.819	19.669	1387.352	1076.640
19.834	19.587	1385.908	1074.915
20.848	19.460	1385.182	1073.463
21.863	19.219	1384.005	1070.962
22.877	19.147	1382.714	1069.418
23.892	19.077	1381.742	1068.138
24.907	18.962	1381.475	1067.123
25.921	19.046	1380.050	1066.451
26.936	19.141	1379.323	1066.383
27.950	19.082	1378.443	1065.239
28.965	19.186	1377.105	1064.756
29.980	19.342	1375.734	1064.563
30.994	19.409	1375.116	1064.407
32.009	19.460	1373.931	1063.708
33.023	19.450	1372.673	1062.581
34.038	19.396	1371.084	1060.921
35.053	19.311	1369.930	1059.417
36.067	19.200	1369.116	1058.009
37.082	19.248	1368.123	1057.445
38.096	19.361	1367.026	1057.193
39.111	19.425	1366.242	1056.889
40.126	19.248	1365.334	1055.007
41.140	19.005	1364.064	1052.444
42.155	18.848	1363.743	1051.144
43.169	18.827	1363.377	1050.644
44.184	18.801	1363.183	1050.237
45.199	18.928	1362.156	1050.128
46.213	19.010	1362.076	1050.479
47.228	19.194	1361.360	1050.957
48.242	19.228	1360.831	1050.664
49.257	19.180	1359.132	1048.964
50.271	19.134	1357.763	1047.533
51.286	19.299	1356.101	1047.163
52.301	19.141	1354.813	1045.116
53.315	19.026	1353.944	1043.654
54.330	18.965	1352.531	1042.107
55.344	18.797	1351.705	1040.357
56.359	18.877	1350.560	1039.870
57.374	18.802	1349.567	1038.560
58.388	18.818	1348.713	1037.907
59.403	18.768	1348.241	1037.153
60.417	18.848	1347.360	1036.865
61.432	18.726	1346.423	1035.314
62.447	18.721	1345.478	1034.468
63.461	18.719	1344.009	1033.233
64.476	18.630	1343.421	1032.154
65.490	18.612	1341.930	1030.812
66.505	18.672	1340.310	1029.835
67.520	18.672	1339.105	1028.816
68.534	18.758	1337.966	1028.366
69.549	18.701	1337.291	1027.416
70.563	18.538	1336.414	1025.675
71.578	18.608	1334.683	1024.676
72.593	18.327	1334.053	1022.419
73.607	18.385	1333.729	1022.431
74.622	18.385	1332.844	1021.663
75.636	18.478	1332.532	1021.888
76.651	18.466	1331.651	1021.046
77.666	18.527	1331.021	1020.840
78.680	18.555	1330.417	1020.452
79.695	18.562	1330.424	1020.405
80.709	18.756	1329.086	1020.443
81.724	18.850	1328.331	1020.333
82.739	18.946	1327.906	1020.484
83.753	19.146	1326.923	1020.828
84.768	19.184	1326.410	1020.567
85.782	19.282	1325.384	1020.268
86.797	19.420	1323.962	1019.898
87.812	19.278	1322.678	1017.982
88.826	19.182	1321.834	1016.673
89.841	19.176	1320.803	1015.753
90.855	19.411	1319.913	1016.363
91.870	19.328	1319.133	1015.189
92.884	19.380	1318.257	1014.725
93.899	19.437	1317.473	1014.370
94.914	19.538	1316.965	1014.480
95.928	19.481	1315.838	1013.188
96.943	19.357	1315.102	1011.809
97.957	19.237	1314.190	1010.312
98.972	19.281	1313.276	1009.778
99.987	19.390	1312.204	1009.499
101.001	19.338	1310.780	1008.014
102.016	19.330	1310.018	1007.291
103.030	19.313	1309.313	1006.562
104.045	19.346	1308.454	1006.002
105.060	19.149	1306.875	1003.551
106.074	18.992	1305.500	1001.495
107.089	18.693	1304.129	998.616
108.103	18.539	1302.503	996.386
109.118	18.569	1301.371	995.607
110.133	18.614	1300.353	994.999
111.147	18.686	1298.532	993.936
112.162	18.807	1297.305	993.608
113.176	18.813	1296.874	993.226
114.191	18.839	1295.804	992.469
115.206	18.686	1295.083	990.941
116.220	18.742	1293.512	989.978
117.235	18.824	1292.219	989.375
118.249	18.831	1291.311	988.630
119.264	18.761	1290.486	987.509
120.279	18.576	1289.151	985.336
121.293	18.644	1288.108	984.841
122.308	18.518	1286.799	983.034
123.322	18.471	1286.067	982.118
124.337	18.465	1284.777	981.013
125.352	18.465	1283.409	979.877
126.366	18.446	1282.404	978.914
127.381	18.457	1281.589	978.273
128.395	18.497	1280.388	977.497
129.410	18.555	1279.348	976.944
130.424	18.533	1278.979	976.449
131.439	18.746	1277.923	976.770
132.454	18.873	1277.004	976.703
133.468	18.826	1276.215	975.749
134.483	18.862	1275.918	975.636
135.497	18.807	1274.774	974.363
136.512	18.872	1273.433	973.623
137.527	18.910	1272.232	972.834
138.541	19.006	1270.349	971.851
139.556	18.950	1269.203	970.570
140.570	19.093	1268.581	970.817
141.585	19.099	1267.820	970.183
142.600	19.284	1266.424	970.067
143.614	19.382	1265.653	969.945
144.629	19.397	1264.710	969.218
145.643	19.325	1263.549	967.840
146.658	19.236	1262.128	966.164
147.673	19.040	1260.885	964.031
148.687	18.983	1259.751	962.763
149.702	18.866	1257.966	960.658
150.716	18.830	1256.979	959.618
151.731	18.794	1255.546	958.238
152.746	18.902	1254.450	957.916
153.760	18.978	1253.134	957.250
154.775	18.995	1252.506	956.783
155.789	19.039	1251.680	956.312
156.804	19.190	1250.253	955.974
157.819	19.163	1249.475	955.144
158.833	19.224	1248.528	954.672
159.848	19.418	1247.670	955.008
160.862	19.388	1246.613	953.946
161.877	19.094	1245.481	951.373
162.892	18.846	1244.053	948.831
163.906	18.764	1243.486	947.863
164.921	18.889	1242.423	947.657
165.935	18.944	1242.076	947.610
166.950	19.121	1241.122	947.771
167.964	19.019	1240.353	946.539
168.979	18.947	1239.578	945.470
169.994	18.971	1238.656	944.814
171.008	19.136	1237.835	945.008
172.023	19.215	1237.097	944.794
173.037	19.254	1236.807	944.705
174.052	19.355	1235.563	944.226
175.067	19.154	1234.095	941.919
176.081	18.983	1232.924	940.009
177.096	18.896	1232.504	939.130
178.110	19.015	1231.117	938.640
179.125	19.000	1230.022	937.638
180.140	19.182	1228.713	937.551
181.154	19.243	1227.824	937.120
182.169	19.265	1226.867	936.424
183.183	19.318	1225.931	935.914
184.198	19.332	1224.956	935.164
185.213	19.436	1223.509	934.539
186.227	19.417	1222.595	933.658
187.242	19.614	1221.358	933.696
188.256	19.541	1220.375	932.465
189.271	19.662	1219.565	932.417
190.286	19.406	1218.415	930.076
191.300	18.932	1217.470	926.720
192.315	18.871	1216.613	925.653
193.329	18.921	1216.185	925.520
194.344	19.133	1215.536	926.084
195.359	19.253	1214.984	926.225
196.373	19.178	1214.607	925.450
197.388	19.305	1214.441	925.927
198.402	19.513	1214.652	927.123
199.417	19.573	1214.185	927.003
200.432	19.773	1212.929	927.038
201.446	19.737	1212.382	926.343
202.461	19.850	1211.813	926.433
203.475	19.931	1210.193	925.544
204.490	19.647	1209.304	923.268
205.504	19.582	1207.918	921.782
206.519	19.549	1206.544	920.471
207.534	19.496	1205.184	919.074
208.548	19.441	1204.516	918.191
209.563	19.503	1203.653	917.780
210.577	19.423	1203.034	916.802
211.592	19.555	1202.392	916.930
212.607	19.747	1201.584	917.253
213.621	19.775	1200.533	916.517
214.636	19.476	1200.172	914.580
215.650	19.712	1198.589	914.539
216.665	19.821	1197.982	914.570
217.680	20.012	1196.954	914.713
218.694	19.958	1196.407	913.929
219.709	19.923	1195.606	913.053
220.723	19.920	1194.813	912.351
221.738	19.795	1194.241	911.173
222.753	19.726	1193.760	910.361
223.767	19.950	1192.838	910.761
224.782	19.978	1192.033	910.211
225.796	20.113	1191.765	910.635
226.811	20.086	1190.718	909.611
227.826	19.910	1190.206	908.215
228.840	19.813	1189.251	906.901
229.855	19.869	1188.700	906.694
230.869	19.809	1187.930	905.712
231.884	19.771	1187.188	904.864
232.899	19.743	1185.742	903.538
233.913	19.552	1185.127	901.991
234.928	19.626	1184.483	901.809
235.942	19.628	1183.589	901.057
236.957	19.625	1182.671	900.265
237.972	19.641	1182.189	899.901
238.986	19.617	1181.455	899.138
240.001	19.617	1180.948	898.673
241.015	19.698	1179.662	898.035
242.030	19.863	1178.900	898.231
243.045	19.752	1178.686	897.412
244.059	19.849	1177.539	896.964
245.074	19.987	1177.007	897.196
246.088	19.998	1176.468	896.762
247.103	20.082	1175.433	896.327
248.117	20.129	1175.450	896.502
249.132	20.269	1174.893	896.724
250.147	20.565	1173.924	897.433
251.161	20.722	1173.501	897.840
252.176	20.560	1173.106	896.624
253.190	20.761	1171.912	896.663
254.205	20.891	1171.564	896.989
255.220	20.797	1170.984	895.981
256.234	20.789	1169.971	895.089
257.249	20.687	1169.712	894.285
258.263	20.776	1168.592	893.808
259.278	20.785	1168.482	893.691
260.293	20.752	1167.820	892.937
261.307	20.811	1167.536	892.943
262.322	20.836	1166.995	892.577
263.336	20.918	1165.864	892.053
264.351	20.882	1165.276	891.340
265.366	20.987	1164.361	891.094
266.380	20.873	1164.048	890.199
267.395	20.851	1162.482	888.808
268.409	20.766	1162.131	888.025
269.424	20.678	1161.060	886.683
270.439	20.822	1160.473	886.888
271.453	20.687	1159.921	885.700
272.468	20.615	1158.632	884.274
273.482	20.550	1157.990	883.375
274.497	20.501	1157.782	882.889
275.512	20.640	1157.130	883.016
276.526	20.494	1156.542	881.751
277.541	20.631	1155.230	881.368
278.555	20.716	1154.797	881.391
279.570	20.891	1154.412	881.903
280.585	21.032	1153.462	881.812
281.599	20.986	1152.865	881.044
282.614	20.832	1151.630	879.245
283.628	20.754	1150.221	877.699
284.643	20.716	1149.375	876.783
285.657	20.779	1148.377	876.262
286.672	20.796	1147.586	875.667
287.687	20.835	1146.607	875.040
288.701	20.889	1145.774	874.596
289.716	20.761	1145.568	873.718
290.730	20.753	1145.005	873.172
291.745	20.906	1143.620	872.806
292.760	20.874	1143.406	872.404
293.774	20.884	1143.138	872.171
294.789	21.081	1142.300	872.443
295.803	21.090	1141.493	871.794
296.818	21.025	1140.721	870.800
297.833	20.970	1139.727	869.690
298.847	20.793	1139.348	868.442
299.862	20.964	1138.259	868.387
300.876	20.846	1137.962	867.499
301.891	21.012	1137.201	867.664
302.906	21.079	1136.574	867.443
303.920	21.283	1136.107	868.025
304.935	21.311	1135.394	867.540
305.949	21.444	1134.568	867.494
306.964	21.305	1134.512	866.685
307.979	21.229	1133.230	865.251
308.993	21.132	1132.906	864.449
310.008	21.333	1131.894	864.596
311.022	21.489	1131.171	864.738
312.037	21.371	1130.098	863.256
313.052	21.196	1129.408	861.792
314.066	21.096	1127.894	860.064
315.081	20.927	1126.841	858.354
316.095	20.959	1126.292	858.019
317.110	20.916	1125.743	857.312
318.125	20.897	1125.098	856.650
319.139	20.918	1124.280	856.054
320.154	20.973	1123.725	855.825
321.168	20.994	1122.929	855.247
322.183	21.095	1122.245	855.149
323.197	21.110	1122.114	855.044
324.212	21.135	1121.294	854.465
325.227	21.100	1120.920	853.934
326.241	21.189	1120.076	853.652
327.256	21.028	1119.412	852.284
328.270	21.017	1118.519	851.476
329.285	21.038	1117.168	850.471
330.300	21.106	1116.409	850.152
331.314	21.014	1115.353	848.825
332.329	21.040	1114.281	848.059
333.343	21.032	1114.008	847.735
334.358	21.317	1112.606	847.980
335.373	21.400	1112.215	848.006
336.387	21.327	1111.729	847.206
337.402	21.471	1110.995	847.270
338.416	21.399	1110.323	846.336
339.431	21.551	1109.914	846.685
340.446	21.532	1109.073	845.877
341.460	21.730	1108.536	846.349
342.475	21.723	1107.810	845.686
343.489	21.830	1106.972	845.489
344.504	21.920	1105.900	845.026
345.519	21.910	1105.298	844.444
346.533	21.905	1104.377	843.642
347.548	22.001	1103.942	843.694
348.562	21.983	1102.638	842.539
349.577	21.698	1102.076	840.666
350.592	21.505	1101.211	839.006
351.606	21.411	1100.290	837.783
352.621	21.476	1099.373	837.321
353.635	21.322	1098.898	836.149
354.650	21.378	1098.317	835.898
355.665	21.499	1097.666	835.910
356.679	21.586	1097.082	835.806
357.694	21.620	1096.756	835.642
358.708	21.639	1096.109	835.166
359.723	21.657	1095.304	834.568
360.738	21.663	1094.811	834.147
361.752	21.790	1093.814	833.915
362.767	21.720	1093.641	833.376
363.781	21.850	1092.950	833.395
364.796	22.011	1092.478	833.727
365.810	22.072	1091.824	833.443
366.825	22.047	1091.506	833.006
367.840	22.213	1091.123	833.429
368.854	22.297	1090.455	833.245
369.869	22.195	1089.791	832.177
370.883	22.133	1088.756	831.021
371.898	22.062	1087.648	829.768
372.913	22.027	1087.503	829.419
373.927	22.158	1086.320	829.061
374.942	22.342	1085.982	829.595
375.956	22.233	1085.477	828.622
376.971	22.204	1084.631	827.768
377.986	22.219	1084.529	827.688
379.000	22.386	1084.283	828.211
380.015	22.460	1083.836	828.143
381.029	22.452	1083.069	827.450
382.044	22.490	1082.527	827.140
383.059	22.391	1081.660	825.941
384.073	22.443	1080.417	825.162
385.088	22.414	1079.868	824.530
386.102	22.464	1078.948	823.992
387.117	22.318	1077.602	822.210
388.132	22.262	1076.654	821.150
389.146	22.142	1075.818	819.882
390.161	22.046	1074.971	818.716
391.175	22.217	1073.987	818.688
392.190	22.208	1073.851	818.473
393.205	22.328	1073.267	818.510
394.219	22.389	1072.489	818.129
395.234	22.215	1071.515	816.506
396.248	22.166	1070.356	815.323
397.263	22.231	1068.984	814.508
398.278	22.000	1068.924	813.322
399.292	22.028	1067.753	812.484
400.307	21.971	1067.144	811.690
401.321	21.995	1066.162	810.979
402.336	22.015	1065.840	810.755
403.350	22.014	1065.165	810.165
404.365	22.057	1064.623	809.881
405.380	22.104	1064.268	809.755
406.394	22.161	1063.434	809.313
407.409	22.352	1062.472	809.387
408.423	22.439	1062.318	809.598
409.438	22.443	1061.565	808.971
410.453	22.544	1060.482	808.535
411.467	22.665	1059.830	808.525
412.482	22.573	1059.235	807.577
413.496	22.845	1058.496	808.189
414.511	22.839	1058.008	807.714
415.526	22.956	1057.622	807.885
416.540	23.057	1057.580	808.241
417.555	22.976	1056.830	807.227
418.569	22.844	1056.271	806.127
419.584	22.763	1055.969	805.454
420.599	22.879	1054.784	805.007
421.613	154.062	1400.514	1788.243
422.628	141.503	1450.890	1788.370
