DTS Sentinel unit serial number:	SN413079Multiplexer serial number:	ORYXHardware model number:	OX4-SRSoftware version number:	ORYX F/W v4.00 Oryx Data Collector v3.7.2.0data status	okinstallation	princeton_trtdifferential loss correction	single-endedforward channel	channel 2reverse channel	N/Adate	2019/09/11time	02:25:10forward acquisition time	60.00reverse acquisition time	0.00gamma	496.2192k internal	0.2331k external	0.2331temperature offset calibration	0.9941default loss term (dB/km)	0.3790temperature slope calibration	1.0000multiplexer offset coefficient	1.0000multiplexer slope coefficient	1.0000fibre end	0.00T internal ref (°C)	29.20T ext. ref 1 (°C)	-0.30T ext. ref 2 (°C)	23.52length (m)	temperature (°C)	Stokes	anti-Stokes-747.200	241.599	-0.086	0.145
-746.185	-72.714	-0.027	0.010
-745.171	-200.000	-0.027	0.335
-744.156	-173.287	0.298	-0.009
-743.142	-200.000	0.027	0.186
-742.127	-21.839	-0.190	-0.116
-741.112	-25.752	0.085	0.051
-740.098	219.107	0.114	0.183
-739.083	154.562	-0.311	-0.430
-738.069	-200.000	0.042	-0.252
-737.054	-24.793	-0.140	0.084
-736.039	181.024	-0.263	0.388
-735.025	176.284	-0.050	0.073
-734.010	714.009	0.110	-0.293
-732.996	-72.282	-0.295	-0.110
-731.981	-150.868	0.390	0.030
-730.966	-125.181	0.151	0.023
-729.952	-164.410	0.130	0.006
-728.937	726.081	-0.061	-0.164
-727.923	31.336	0.203	0.176
-726.908	-100.136	-0.222	0.055
-725.894	46.060	-0.052	0.049
-724.879	220.250	-0.061	-0.099
-723.864	-200.000	0.003	-0.341
-722.850	32.529	0.040	0.035
-721.835	30.150	-0.150	-0.129
-720.821	159.906	-0.073	0.102
-719.806	114.779	0.122	-0.149
-718.791	-200.000	-0.005	0.074
-717.777	414.961	0.172	-0.368
-716.762	800.000	0.049	-0.203
-715.748	-68.998	-0.249	-0.097
-714.733	109.137	0.241	-0.289
-713.718	206.909	-0.058	-0.091
-712.704	-136.112	-0.312	-0.037
-711.689	152.806	0.155	-0.213
-710.675	70.349	-0.055	0.057
-709.660	-200.000	-0.001	-0.016
-708.645	31.813	0.251	0.217
-707.631	-98.990	0.432	0.110
-706.616	-54.007	-0.353	-0.161
-705.602	-32.313	-0.105	0.059
-704.587	-79.679	-0.328	-0.111
-703.572	-24.766	-0.151	-0.090
-702.558	203.318	0.209	-0.324
-701.543	800.000	0.040	-0.116
-700.529	29.030	-0.207	0.177
-699.514	791.011	0.051	0.140
-698.499	-25.951	-0.230	-0.136
-697.485	99.643	-0.016	-0.019
-696.470	-200.000	-0.006	-0.113
-695.456	-81.130	-0.257	0.085
-694.441	115.351	-0.121	-0.148
-693.426	-49.339	-0.229	0.110
-692.412	-148.503	0.235	0.019
-691.397	31.563	0.038	0.033
-690.383	-17.152	-0.119	-0.075
-689.368	121.867	0.115	-0.144
-688.354	-22.306	0.331	0.201
-687.339	29.385	0.042	-0.036
-686.324	139.844	0.105	-0.140
-685.310	61.192	-0.054	-0.053
-684.295	800.000	0.053	-0.221
-683.281	-200.000	0.034	0.178
-682.266	58.345	0.128	0.126
-681.251	78.633	-0.079	-0.085
-680.237	-141.605	0.329	-0.033
-679.222	221.614	-0.141	0.227
-678.208	104.238	0.056	-0.067
-677.193	-172.308	-0.011	0.000
-676.178	800.000	0.042	0.130
-675.164	98.972	-0.065	0.075
-674.149	-143.657	0.033	0.003
-673.135	554.050	0.118	0.284
-672.120	228.291	-0.153	0.250
-671.105	23.821	0.092	-0.076
-670.091	120.274	0.224	-0.279
-669.076	158.916	-0.130	0.182
-668.062	-150.122	-0.332	-0.026
-667.047	-154.617	-0.356	0.024
-666.032	293.800	-0.207	-0.379
-665.018	141.714	-0.031	-0.041
-664.003	-96.295	-0.294	0.078
-662.989	-154.547	0.163	-0.011
-661.974	140.123	-0.101	-0.134
-660.959	-86.203	-0.210	0.065
-659.945	11.826	0.235	-0.181
-658.930	478.301	-0.068	0.154
-657.916	50.180	-0.257	0.244
-656.901	1.288	0.306	0.221
-655.886	65.254	-0.235	0.238
-654.872	-87.286	0.141	-0.043
-653.857	39.028	-0.145	-0.130
-652.843	800.000	0.044	0.179
-651.828	453.943	0.070	0.156
-650.814	174.649	-0.074	-0.108
-649.799	191.054	0.029	-0.043
-648.784	-118.205	-0.140	0.025
-647.770	-144.639	0.120	0.011
-646.755	-200.000	-0.013	-0.213
-645.741	42.245	-0.162	-0.148
-644.726	169.345	-0.137	-0.196
-643.711	90.480	0.042	0.047
-642.697	-200.000	-0.017	-0.320
-641.682	-66.287	-0.024	0.010
-640.668	-118.406	-0.071	-0.013
-639.653	-200.000	0.014	-0.119
-638.638	-42.884	-0.456	0.232
-637.624	215.809	-0.144	0.229
-636.609	122.405	0.277	0.347
-635.595	25.598	0.225	-0.188
-634.580	800.000	-0.067	0.279
-633.565	49.225	0.143	-0.135
-632.551	11.959	0.089	-0.068
-631.536	-31.175	-0.358	-0.202
-630.522	800.000	-0.037	-0.122
-629.507	-200.000	-0.000	-0.027
-628.492	-200.000	-0.027	0.172
-627.478	-166.546	0.135	-0.006
-626.463	1.063	-0.155	-0.111
-625.449	151.273	-0.088	-0.120
-624.434	122.687	-0.250	-0.313
-623.419	162.861	0.140	-0.197
-622.405	112.490	-0.246	0.298
-621.390	145.356	-0.184	-0.246
-620.376	304.277	-0.198	-0.368
-619.361	195.936	-0.016	-0.025
-618.346	-1.460	-0.077	-0.054
-617.332	-162.086	-0.233	-0.012
-616.317	-130.032	-0.289	0.040
-615.303	-200.000	0.019	0.120
-614.288	-200.000	0.007	-0.323
-613.273	-200.000	-0.028	0.160
-612.259	42.519	0.111	-0.101
-611.244	-122.526	-0.317	-0.052
-610.230	-61.448	0.240	0.101
-609.215	-151.393	0.374	0.028
-608.201	-70.529	-0.174	-0.066
-607.186	552.634	-0.014	-0.034
-606.171	184.261	0.174	-0.257
-605.157	52.833	-0.072	0.069
-604.142	-8.006	0.110	-0.074
-603.128	-109.382	-0.392	0.083
-602.113	26.027	0.316	-0.264
-601.098	-200.000	-0.048	-0.273
-600.084	41.797	-0.214	-0.194
-599.069	-136.248	-0.292	-0.034
-598.055	16.042	-0.123	0.097
-597.040	800.000	-0.081	-0.339
-596.025	-160.375	0.222	-0.012
-595.011	-189.686	-0.283	0.003
-593.996	-44.857	-0.077	-0.038
-592.982	-200.000	-0.112	-0.542
-591.967	-200.000	0.024	-0.604
-590.952	-107.306	0.164	0.036
-589.938	30.971	0.308	0.264
-588.923	284.265	-0.077	-0.139
-587.909	263.490	-0.032	0.055
-586.894	102.971	0.047	0.055
-585.879	-200.000	-0.004	0.115
-584.865	41.365	-0.243	-0.220
-583.850	327.921	-0.030	-0.059
-582.836	143.072	0.104	-0.139
-581.821	-200.000	-0.026	0.186
-580.806	-200.000	0.006	-0.286
-579.792	-50.273	-0.271	-0.128
-578.777	-200.000	-0.022	-0.109
-577.763	-200.000	-0.012	-0.098
-576.748	-41.807	-0.222	-0.114
-575.733	95.353	0.072	-0.082
-574.719	-79.027	-0.125	-0.043
-573.704	-56.674	-0.063	0.028
-572.690	-106.047	-0.131	-0.030
-571.675	-200.000	0.050	-0.296
-570.661	-85.465	-0.126	0.039
-569.646	-200.000	0.011	0.304
-568.631	-18.504	0.155	0.097
-567.617	-136.746	0.207	-0.024
-566.602	167.550	0.022	0.032
-565.588	-79.676	0.122	0.041
-564.573	136.681	-0.094	-0.122
-563.558	-26.731	-0.036	-0.021
-562.544	-200.000	0.002	-0.074
-561.529	118.921	-0.097	0.120
-560.515	800.000	-0.022	-0.091
-559.500	46.305	-0.093	0.086
-558.485	800.000	-0.027	-0.116
-557.471	-108.940	-0.285	0.061
-556.456	575.489	0.090	0.219
-555.442	123.755	0.326	-0.408
-554.427	1.794	-0.111	0.080
-553.412	-68.360	-0.126	-0.049
-552.398	-200.000	-0.064	-0.321
-551.383	197.576	0.347	-0.529
-550.369	489.237	-0.051	0.116
-549.354	285.584	0.040	0.071
-548.339	-200.000	0.008	0.189
-547.325	14.294	-0.194	-0.151
-546.310	62.746	-0.089	0.089
-545.296	-42.145	0.219	0.112
-544.281	800.000	0.006	-0.023
-543.266	14.719	0.044	-0.035
-542.252	800.000	0.043	-0.176
-541.237	-200.000	-0.399	-0.001
-540.223	-117.789	0.159	0.029
-539.208	800.000	0.071	-0.226
-538.193	800.000	-0.045	-0.170
-537.179	4.583	-0.172	0.126
-536.164	-200.000	-0.016	-0.548
-535.150	-15.461	0.287	-0.183
-534.135	560.456	-0.057	0.139
-533.121	-200.000	0.007	0.200
-532.106	-200.000	-0.015	0.097
-531.091	-61.183	-0.143	-0.060
-530.077	-200.000	0.006	-0.144
-529.062	729.310	-0.069	0.184
-528.048	106.383	0.121	-0.143
-527.033	-89.941	-0.230	-0.067
-526.018	110.114	0.098	-0.117
-525.004	24.112	-0.160	-0.131
-523.989	201.849	-0.066	0.101
-522.975	178.366	0.136	-0.198
-521.960	660.417	0.076	-0.195
-520.945	-72.985	-0.208	-0.076
-519.931	-200.000	-0.008	-0.176
-518.916	136.695	-0.085	0.111
-517.902	185.039	0.165	0.245
-516.887	-72.759	0.318	-0.117
-515.872	28.581	-0.103	0.087
-514.858	73.963	-0.180	-0.188
-513.843	-123.264	0.328	-0.052
-512.829	531.722	-0.060	0.140
-511.814	-26.087	0.207	0.122
-510.799	-200.000	0.027	0.168
-509.785	-111.681	-0.242	0.049
-508.770	374.286	0.054	-0.109
-507.756	77.893	0.030	0.032
-506.741	-92.881	-0.179	0.050
-505.726	227.516	-0.118	-0.191
-504.712	-200.000	0.053	0.407
-503.697	98.086	-0.033	-0.037
-502.683	-200.000	-0.007	-0.058
-501.668	800.000	-0.022	0.066
-500.653	-200.000	0.043	-0.421
-499.639	-103.581	-0.356	0.083
-498.624	-111.901	-0.132	-0.027
-497.610	-36.007	0.083	0.045
-496.595	37.264	0.167	0.148
-495.581	186.096	-0.070	-0.104
-494.566	-200.000	0.030	0.246
-493.551	402.936	0.070	0.147
-492.537	-200.000	0.006	-0.255
-491.522	-28.892	-0.116	-0.066
-490.508	-74.822	0.237	0.085
-489.493	-200.000	0.004	-0.045
-488.478	-127.006	-0.248	0.036
-487.464	-29.901	-0.095	-0.054
-486.449	-167.054	-0.195	0.008
-485.435	-98.985	0.031	0.008
-484.420	-102.928	-0.080	0.019
-483.405	1.911	0.272	0.195
-482.391	66.754	0.165	-0.168
-481.376	-82.252	0.269	-0.087
-480.362	446.014	-0.110	0.241
-479.347	-200.000	-0.007	0.133
-478.332	343.920	0.226	-0.441
-477.318	-9.265	0.217	0.144
-476.303	50.207	-0.067	-0.063
-475.289	-157.670	-0.150	0.009
-474.274	-1.035	0.108	0.076
-473.259	31.813	0.278	0.238
-472.245	89.981	-0.109	0.121
-471.230	-200.000	-0.021	0.360
-470.216	584.485	-0.050	0.122
-469.201	31.908	0.255	-0.219
-468.186	-125.175	0.378	0.058
-467.172	33.367	0.155	0.134
-466.157	-51.159	0.064	-0.030
-465.143	186.879	-0.142	0.210
-464.128	89.289	-0.139	0.155
-463.113	-200.000	-0.014	-0.097
-462.099	583.128	0.046	-0.113
-461.084	-153.835	-0.390	-0.027
-460.070	800.000	-0.062	0.260
-459.055	454.318	-0.020	-0.044
-458.040	300.735	0.032	0.059
-457.026	287.937	0.088	0.159
-456.011	122.390	-0.168	-0.209
-454.997	109.766	0.113	0.134
-453.982	-39.350	-0.357	0.186
-452.968	115.173	0.086	-0.105
-451.953	318.212	-0.233	-0.438
-450.938	-90.079	-0.271	-0.079
-449.924	-200.000	0.033	-0.242
-448.909	-23.062	0.184	-0.110
-447.895	-122.944	-0.383	0.061
-446.880	-81.097	-0.027	-0.009
-445.865	-200.000	0.050	0.262
-444.851	298.823	0.049	0.089
-443.836	111.428	0.168	0.202
-442.822	-42.627	0.300	0.152
-441.807	-26.366	-0.140	0.081
-440.792	-90.596	0.048	-0.014
-439.778	-200.000	-0.004	-0.026
-438.763	742.811	0.119	0.318
-437.749	-200.000	0.030	0.218
-436.734	38.384	-0.169	0.149
-435.719	-152.783	-0.083	0.006
-434.705	-200.000	-0.024	0.202
-433.690	-200.000	-0.028	0.161
-432.676	-107.285	0.096	0.021
-431.661	77.049	0.127	0.134
-430.646	-64.991	0.245	-0.098
-429.632	-99.653	0.175	-0.044
-428.617	-200.000	0.053	0.239
-427.603	-200.000	0.003	-0.189
-426.588	248.520	0.080	0.135
-425.573	800.000	0.083	0.231
-424.559	181.776	0.152	0.223
-423.544	-200.000	0.065	-0.557
-422.530	16.278	0.296	-0.232
-421.515	-31.714	-0.235	-0.131
-420.500	5.407	0.281	-0.206
-419.486	3.716	-0.331	-0.240
-418.471	-200.000	0.075	-0.457
-417.457	-200.000	0.046	0.297
-416.442	-71.911	-0.195	-0.072
-415.428	285.114	-0.158	-0.283
-414.413	-26.569	-0.202	-0.117
-413.398	3.008	-0.115	-0.083
-412.384	655.560	0.071	-0.181
-411.369	-200.000	-0.013	-0.088
-410.355	58.811	-0.171	-0.167
-409.340	84.062	0.012	0.013
-408.325	-200.000	0.040	-0.209
-407.311	-200.000	0.014	-0.203
-406.296	4.673	0.216	0.158
-405.282	-180.564	-0.387	0.008
-404.267	-61.727	-0.095	0.040
-403.252	682.450	-0.037	0.097
-402.238	800.000	0.033	0.137
-401.223	-122.205	0.315	0.051
-400.209	800.000	-0.031	-0.116
-399.194	85.381	-0.173	-0.189
-398.179	-64.424	0.226	-0.091
-397.165	-65.224	-0.058	-0.023
-396.150	70.620	-0.254	0.261
-395.136	-200.000	0.070	0.475
-394.121	19.577	0.200	0.160
-393.106	-59.344	0.132	0.056
-392.092	-103.597	0.202	0.047
-391.077	421.373	-0.055	-0.116
-390.063	-137.678	-0.080	-0.009
-389.048	119.917	0.213	-0.262
-388.033	-186.823	0.170	0.002
-387.019	363.371	0.034	0.068
-386.004	-4.067	-0.175	0.120
-384.990	-20.819	0.060	-0.037
-383.975	191.797	-0.164	0.245
-382.960	-200.000	-0.030	-0.305
-381.946	-139.963	0.055	0.006
-380.931	51.294	0.229	-0.215
-379.917	35.284	0.060	-0.052
-378.902	21.042	0.295	-0.238
-377.888	-200.000	0.057	0.293
-376.873	89.606	-0.416	0.461
-375.858	154.122	0.169	0.230
-374.844	-200.000	0.003	0.050
-373.829	16.733	0.337	0.264
-372.815	102.545	0.252	0.292
-371.800	-65.070	-0.118	0.047
-370.785	161.063	-0.087	0.121
-369.771	-198.972	-0.326	0.002
-368.756	-84.294	-0.247	-0.078
-367.742	-114.764	0.078	-0.015
-366.727	-200.000	-0.030	0.192
-365.712	356.003	-0.135	0.267
-364.698	99.378	-0.098	0.112
-363.683	800.000	0.031	0.090
-362.669	-77.063	0.117	-0.040
-361.654	-61.568	-0.466	0.194
-360.639	29.611	0.170	0.143
-359.625	-119.120	0.158	-0.027
-358.610	174.795	0.088	0.126
-357.596	-86.805	0.255	-0.077
-356.581	-200.000	0.037	0.323
-355.566	462.196	0.044	-0.097
-354.552	-88.944	-0.075	0.022
-353.537	-71.506	0.176	-0.065
-352.523	800.000	-0.075	-0.268
-351.508	20.013	-0.172	0.137
-350.493	-200.000	-0.017	-0.374
-349.479	-70.299	-0.036	0.013
-348.464	800.000	0.059	0.237
-347.450	-115.748	0.228	0.042
-346.435	-182.088	0.077	-0.001
-345.420	-200.000	0.004	-0.563
-344.406	-200.000	0.037	-0.170
-343.391	-58.965	-0.232	0.099
-342.377	42.353	0.124	0.111
-341.362	-200.000	0.059	-0.313
-340.348	340.121	-0.197	0.381
-339.333	133.818	-0.150	0.192
-338.318	800.000	0.125	-0.347
-337.304	-43.919	0.319	-0.159
-336.289	240.491	-0.072	0.119
-335.275	415.729	0.045	-0.094
-334.260	-200.000	0.194	0.000
-333.245	32.212	0.089	0.076
-332.231	-161.104	-0.211	-0.011
-331.216	-200.000	-0.015	0.285
-330.202	-146.365	0.249	0.022
-329.187	22.699	-0.192	-0.156
-328.172	-19.867	0.182	-0.111
-327.158	83.780	-0.363	-0.392
-326.143	-115.012	0.182	0.034
-325.129	-77.560	0.152	-0.052
-324.114	-108.370	-0.213	0.046
-323.099	320.077	-0.117	-0.219
-322.085	-5.656	-0.145	0.099
-321.070	325.384	-0.096	0.182
-320.056	-82.076	0.195	-0.063
-319.041	83.134	0.249	-0.269
-318.026	800.000	-0.079	0.302
-317.012	-32.556	0.196	0.108
-315.997	-25.305	0.288	-0.168
-314.983	-103.825	-0.249	0.058
-313.968	-102.688	0.142	0.034
-312.953	100.260	-0.179	0.205
-311.939	119.464	-0.194	0.237
-310.924	800.000	-0.066	-0.262
-309.910	482.944	-0.041	0.091
-308.895	-200.000	-0.006	0.128
-307.880	800.000	-0.023	-0.064
-306.866	-190.640	0.085	-0.001
-305.851	-60.475	0.357	0.150
-304.837	800.000	-0.134	0.433
-303.822	659.486	0.118	0.301
-302.807	-90.311	-0.217	-0.062
-301.793	467.542	0.073	0.163
-300.778	800.000	-0.057	0.158
-299.764	-110.671	0.185	0.038
-298.749	-21.436	-0.201	-0.121
-297.735	-200.000	-0.016	0.218
-296.720	-200.000	-0.017	-0.377
-295.705	800.000	-0.051	0.141
-294.691	-54.088	0.080	-0.036
-293.676	50.716	-0.232	-0.217
-292.662	-73.565	0.188	0.068
-291.647	171.477	-0.104	-0.148
-290.632	44.622	-0.199	-0.181
-289.618	-13.640	0.129	0.083
-288.603	-67.642	-0.114	0.044
-287.589	20.136	0.211	0.168
-286.574	152.695	-0.272	0.367
-285.559	464.999	-0.029	0.064
-284.545	-114.890	0.167	0.031
-283.530	-89.685	-0.473	0.137
-282.516	-200.000	0.000	0.124
-281.501	-64.275	0.072	0.029
-280.486	800.000	0.043	-0.136
-279.472	-125.123	0.085	0.013
-278.457	-55.366	0.076	0.033
-277.443	-200.000	-0.048	0.259
-276.428	87.538	0.061	0.067
-275.413	332.606	-0.187	0.358
-274.399	-77.743	0.056	0.019
-273.384	244.414	0.228	-0.379
-272.370	-65.640	-0.121	-0.048
-271.355	-200.000	0.041	-0.343
-270.340	353.641	0.040	-0.079
-269.326	-200.000	0.019	-0.353
-268.311	93.098	0.267	-0.298
-267.297	-200.000	-0.031	-0.159
-266.282	29.948	0.382	0.322
-265.267	-200.000	0.011	0.317
-264.253	800.000	-0.054	-0.177
-263.238	-200.000	-0.020	-0.154
-262.224	237.801	0.171	0.280
-261.209	-110.262	0.282	-0.058
-260.195	800.000	0.023	0.097
-259.180	800.000	0.123	-0.499
-258.165	-0.224	0.313	0.219
-257.151	97.812	0.109	0.124
-256.136	-103.072	-0.214	-0.050
-255.122	-17.604	0.260	0.161
-254.107	-76.710	0.130	-0.045
-253.092	-54.416	0.107	0.048
-252.078	-200.000	-0.047	0.378
-251.063	-156.440	0.235	-0.014
-250.049	237.451	0.172	-0.282
-249.034	-165.782	-0.270	0.011
-248.019	-17.949	-0.251	0.155
-247.005	-59.949	0.447	-0.188
-245.990	-200.000	-0.016	-0.099
-244.976	322.050	0.098	-0.184
-243.961	-4.268	-0.092	0.063
-242.946	20.713	0.035	-0.028
-241.932	13.899	0.285	0.219
-240.917	-93.262	-0.165	0.045
-239.903	480.835	-0.048	0.106
-238.888	352.467	-0.110	0.216
-237.873	-17.727	0.241	0.149
-236.859	800.000	-0.058	0.225
-235.844	37.131	-0.186	0.162
-234.830	-149.073	0.150	0.012
-233.815	-200.000	0.007	0.105
-232.800	-82.573	-0.265	0.085
-231.786	-200.000	-0.020	-0.134
-230.771	-200.000	0.003	-0.136
-229.757	-71.566	0.116	-0.043
-228.742	-59.248	-0.140	-0.060
-227.727	-123.589	-0.018	0.003
-226.713	645.924	-0.059	0.149
-225.698	97.627	-0.167	-0.190
-224.684	-200.000	-0.008	0.044
-223.669	-111.185	0.314	-0.063
-222.655	191.649	0.272	0.404
-221.640	-91.356	0.308	-0.087
-220.625	215.323	0.093	-0.145
-219.611	95.973	-0.267	-0.301
-218.596	800.000	0.061	0.190
-217.582	-26.753	-0.107	0.062
-216.567	-200.000	-0.015	0.329
-215.552	204.015	-0.085	0.130
-214.538	-153.366	0.505	0.035
-213.523	1.670	-0.051	-0.036
-212.509	-75.968	-0.079	0.027
-211.494	484.495	0.100	0.225
-210.479	509.008	0.030	0.069
-209.465	-172.269	0.126	0.004
-208.450	-130.947	-0.162	0.021
-207.436	800.000	-0.104	0.437
-206.421	-135.976	0.330	-0.038
-205.406	-20.732	-0.243	-0.147
-204.392	-200.000	0.000	0.063
-203.377	242.543	-0.094	-0.155
-202.363	-88.236	0.362	-0.107
-201.348	17.012	0.046	0.036
-200.333	763.345	-0.240	0.641
-199.319	-200.000	0.005	0.023
-198.304	-23.835	-0.092	-0.054
-197.290	-115.477	-0.182	0.034
-196.275	-100.497	-0.154	0.038
-195.260	-15.410	-0.033	0.021
-194.246	-88.834	0.270	0.079
-193.231	509.618	-0.088	-0.202
-192.217	-123.486	-0.222	0.035
-191.202	-29.070	-0.158	-0.089
-190.187	-7.109	0.172	0.115
-189.173	-200.000	-0.020	0.087
-188.158	165.328	0.121	-0.169
-187.144	301.717	0.229	0.416
-186.129	-131.741	0.369	0.048
-185.114	-187.585	-0.237	0.003
-184.100	-90.136	-0.122	0.035
-183.085	-200.000	0.055	-0.340
-182.071	-106.794	-0.158	0.034
-181.056	315.150	-0.084	-0.157
-180.042	-90.555	-0.204	-0.058
-179.027	-182.593	0.197	0.004
-178.012	81.561	0.157	-0.167
-176.998	126.263	0.076	-0.094
-175.983	-73.436	-0.192	0.069
-174.969	148.629	0.144	0.191
-173.954	336.860	0.130	0.248
-172.939	102.993	-0.027	0.032
-171.925	-97.751	-0.316	0.080
-170.910	800.000	0.060	0.247
-169.896	529.442	0.175	-0.407
-168.881	171.062	-0.046	0.065
-167.866	32.256	0.068	-0.057
-166.852	-10.191	-0.099	-0.065
-165.837	-200.000	-0.042	-0.261
-164.823	-42.417	0.227	0.114
-163.808	70.563	-0.057	0.058
-162.793	800.000	0.055	-0.191
-161.779	567.900	-0.083	-0.198
-160.764	-87.762	0.185	-0.055
-159.750	-100.771	-0.125	-0.030
-158.735	-25.287	-0.069	0.040
-157.720	149.791	-0.094	0.125
-156.706	-106.114	0.082	0.018
-155.691	13.877	0.296	0.227
-154.677	23.316	-0.364	0.294
-153.662	-49.206	-0.295	0.139
-152.647	800.000	-0.073	0.303
-151.633	800.000	0.019	0.065
-150.618	-200.000	0.030	-0.321
-149.604	162.879	-0.136	0.188
-148.589	17.212	0.267	0.208
-147.574	-118.278	-0.294	0.051
-146.560	-62.191	0.372	0.152
-145.545	141.749	0.206	0.268
-144.531	-35.658	-0.266	-0.142
-143.516	0.479	-0.074	-0.052
-142.502	-100.022	-0.123	-0.030
-141.487	107.096	-0.073	-0.086
-140.472	-68.820	0.463	-0.176
-139.458	-7.658	0.266	0.177
-138.443	-36.597	-0.342	-0.181
-137.429	515.907	-0.064	0.146
-136.414	676.408	-0.161	-0.412
-135.399	800.000	-0.036	0.102
-134.385	800.000	0.021	-0.090
-133.370	70.700	-0.150	-0.152
-132.356	-111.777	0.020	-0.004
-131.341	82.183	0.103	-0.110
-130.326	-179.613	0.422	0.009
-129.312	-70.930	-0.071	0.026
-128.297	800.000	0.034	0.111
-127.283	-122.559	0.167	0.027
-126.268	133.739	0.084	-0.106
-125.253	-200.000	0.071	0.408
-124.239	376.478	0.075	-0.150
-123.224	-48.533	0.235	-0.111
-122.210	800.000	0.115	0.365
-121.195	-68.716	0.560	0.213
-120.180	407.772	-0.114	0.236
-119.166	-200.000	0.037	0.191
-118.151	52.534	-0.028	-0.026
-117.137	-113.783	-0.059	-0.011
-116.122	-123.096	0.375	-0.059
-115.107	106.806	-0.229	0.267
-114.093	-153.015	0.339	0.023
-113.078	-45.743	-0.289	-0.140
-112.064	-38.870	-0.159	0.082
-111.049	58.310	0.115	0.111
-110.034	487.734	0.178	0.399
-109.020	-160.962	-0.163	-0.008
-108.005	9.218	-0.305	-0.227
-106.991	14.361	0.232	-0.178
-105.976	92.669	-0.265	0.293
-104.962	-61.112	0.145	0.060
-103.947	8.181	0.224	0.165
-102.932	-152.812	0.118	0.008
-101.918	224.263	-0.122	0.193
-100.903	89.148	0.128	-0.140
-99.889	-4.997	0.197	0.133
-98.874	574.333	-0.072	0.173
-97.859	800.000	-0.016	-0.059
-96.845	-177.262	0.156	-0.004
-95.830	202.809	-0.058	-0.088
-94.816	-48.907	0.325	0.153
-93.801	80.824	0.193	0.204
-92.786	717.516	-0.113	-0.293
-91.772	-142.920	0.234	-0.022
-90.757	170.629	0.022	-0.030
-89.743	732.857	0.022	-0.059
-88.728	-98.397	-0.086	0.022
-87.713	800.000	0.097	-0.295
-86.699	190.455	0.095	-0.139
-85.684	160.141	-0.326	0.446
-84.670	-85.285	0.241	-0.074
-83.655	-39.983	-0.266	-0.136
-82.640	-200.000	0.008	0.438
-81.626	-73.567	-0.185	-0.066
-80.611	70.084	0.089	-0.090
-79.597	-161.593	0.245	-0.012
-78.582	163.166	0.272	0.374
-77.567	644.743	-0.135	0.339
-76.553	-200.000	-0.051	0.303
-75.538	-81.273	-0.251	0.081
-74.524	-200.000	-0.034	0.198
-73.509	109.999	-0.073	0.086
-72.494	-78.682	0.018	-0.006
-71.480	97.429	-0.057	0.064
-70.465	137.780	0.129	-0.166
-69.451	-199.242	0.174	-0.001
-68.436	158.897	0.088	0.120
-67.422	-200.000	-0.007	0.071
-66.407	-122.943	0.199	0.031
-65.392	800.000	0.041	-0.123
-64.378	182.974	-0.085	0.123
-63.363	-200.000	-0.003	-0.064
-62.349	-121.540	-0.282	0.046
-61.334	110.636	-0.840	-0.989
-60.319	-30.767	0.799	0.443
-59.305	371.487	-0.487	-0.968
-58.290	154.787	0.703	0.947
-57.276	800.000	0.495	1.469
-56.261	-200.000	106.487	622.082
-55.246	516.273	1513.364	3464.291
-54.232	174.651	2713.332	3844.992
-53.217	104.516	2299.020	2651.835
-52.203	38.528	1903.591	1662.448
-51.188	32.470	1689.169	1429.305
-50.173	29.823	1645.523	1372.704
-49.159	48.872	1700.527	1562.850
-48.144	49.105	1715.370	1578.182
-47.130	32.024	1672.184	1411.354
-46.115	29.260	1658.237	1378.883
-45.100	29.175	1652.703	1373.589
-44.086	29.078	1650.225	1370.758
-43.071	29.104	1647.222	1368.402
-42.057	29.063	1645.181	1366.349
-41.042	29.081	1643.251	1364.823
-40.027	29.109	1641.227	1363.293
-39.013	29.092	1639.207	1361.438
-37.998	28.995	1638.113	1359.754
-36.984	29.108	1636.529	1359.223
-35.969	29.194	1635.278	1358.762
-34.954	29.186	1633.248	1356.967
-33.940	29.162	1631.726	1355.473
-32.925	29.149	1629.865	1353.773
-31.911	29.272	1627.966	1353.046
-30.896	29.184	1626.549	1351.166
-29.881	29.194	1624.493	1349.484
-28.867	29.187	1623.244	1348.341
-27.852	29.276	1621.526	1347.505
-26.838	29.179	1619.938	1345.429
-25.823	29.149	1618.925	1344.315
-24.809	29.244	1617.318	1343.620
-23.794	29.284	1616.014	1342.773
-22.779	29.239	1614.982	1341.533
-21.765	29.209	1613.062	1339.666
-20.750	29.182	1611.584	1338.193
-19.736	29.293	1609.875	1337.524
-18.721	29.270	1608.433	1336.110
-17.706	29.213	1607.145	1334.570
-16.692	29.066	1606.266	1332.726
-15.677	29.293	1604.172	1332.572
-14.663	29.188	1603.356	1331.086
-13.648	29.296	1601.859	1330.572
-12.633	29.257	1600.053	1328.734
-11.619	29.203	1598.640	1327.120
-10.604	29.240	1597.057	1326.023
-9.590	29.233	1596.094	1325.120
-8.575	29.272	1594.274	1323.834
-7.560	29.275	1593.425	1323.095
-6.546	29.255	1592.103	1321.805
-5.531	29.305	1590.943	1321.148
-4.517	29.242	1590.380	1320.178
-3.502	29.197	1589.249	1318.864
-2.487	29.277	1587.446	1317.883
-1.473	29.016	1575.681	1306.217
-0.458	26.293	1556.227	1270.914
0.556	20.739	1557.859	1242.207
1.571	18.595	1582.471	1246.158
2.586	18.392	1596.283	1255.441
3.600	16.773	1543.490	1202.327
4.615	8.867	1434.350	1064.873
5.629	1.231	1369.976	968.389
6.644	-0.238	1362.372	953.605
7.659	-0.344	1360.604	951.608
8.673	-0.341	1359.896	951.049
9.688	-0.267	1357.648	949.860
10.702	-0.562	1354.402	945.645
11.717	2.630	1361.129	970.489
12.731	11.796	1378.645	1041.460
13.746	19.426	1391.936	1100.260
14.761	21.312	1394.523	1114.242
15.775	21.651	1394.229	1116.070
16.790	21.715	1393.287	1115.623
17.804	21.771	1393.127	1115.757
18.819	21.989	1392.007	1116.147
19.834	22.049	1392.120	1116.517
20.848	22.042	1391.618	1115.974
21.863	22.065	1390.356	1115.008
22.877	22.147	1389.653	1114.866
23.892	22.139	1388.452	1113.755
24.907	22.059	1387.902	1112.707
25.921	22.021	1387.527	1112.065
26.936	22.140	1385.965	1111.470
27.950	22.095	1384.957	1110.275
28.965	22.078	1383.808	1109.151
29.980	22.121	1382.182	1108.020
30.994	22.124	1381.030	1107.021
32.009	22.148	1379.757	1106.053
33.023	22.151	1378.733	1105.150
34.038	22.145	1377.946	1104.387
35.053	22.150	1377.287	1103.792
36.067	22.154	1375.729	1102.473
37.082	22.032	1374.972	1101.002
38.096	22.241	1373.687	1101.182
39.111	22.130	1373.444	1100.198
40.126	22.162	1372.625	1099.640
41.140	22.086	1372.287	1098.801
42.155	22.170	1371.842	1098.872
43.169	22.198	1371.773	1098.896
44.184	22.182	1371.432	1098.421
45.199	22.022	1371.129	1097.084
46.213	22.123	1370.238	1096.904
47.228	22.219	1368.904	1096.338
48.242	22.164	1368.230	1095.360
49.257	22.058	1366.788	1093.444
50.271	22.136	1365.426	1092.747
51.286	22.141	1364.045	1091.577
52.301	22.098	1362.949	1090.333
53.315	22.055	1362.094	1089.290
54.330	22.150	1361.004	1088.905
55.344	22.095	1359.842	1087.539
56.359	22.153	1358.950	1087.091
57.374	22.102	1358.373	1086.215
58.388	22.070	1357.447	1085.181
59.403	22.146	1357.171	1085.338
60.417	22.104	1356.324	1084.301
61.432	22.119	1355.458	1083.609
62.447	22.121	1354.698	1082.917
63.461	22.094	1353.741	1081.891
64.476	22.087	1352.632	1080.863
65.490	22.064	1351.816	1079.974
66.505	22.172	1349.796	1078.929
67.520	22.088	1348.613	1077.371
68.534	22.235	1347.434	1077.239
69.549	22.146	1347.033	1076.274
70.563	22.170	1345.755	1075.303
71.578	22.177	1344.949	1074.607
72.593	22.150	1343.870	1073.489
73.607	22.093	1343.536	1072.776
74.622	22.197	1342.323	1072.349
75.636	22.141	1341.893	1071.571
76.651	22.093	1341.485	1070.851
77.666	22.154	1340.501	1070.344
78.680	22.149	1340.153	1069.943
79.695	22.086	1339.407	1068.869
80.709	22.159	1338.320	1068.352
81.724	22.236	1337.327	1067.930
82.739	22.101	1336.776	1066.576
83.753	22.121	1335.450	1065.544
84.768	22.126	1334.549	1064.762
85.782	22.087	1333.743	1063.791
86.797	22.167	1332.490	1063.183
87.812	22.129	1330.937	1061.615
88.826	22.251	1329.900	1061.433
89.841	22.263	1328.941	1060.648
90.855	22.123	1328.492	1059.352
91.870	22.172	1327.325	1058.620
92.884	22.239	1326.494	1058.269
93.899	22.102	1325.733	1056.743
94.914	22.191	1324.873	1056.497
95.928	22.305	1324.074	1056.456
96.943	22.175	1323.721	1055.299
97.957	22.160	1322.886	1054.449
98.972	22.229	1321.340	1053.538
99.987	22.247	1320.671	1053.016
101.001	22.147	1319.429	1051.335
102.016	22.260	1318.616	1051.271
103.030	22.176	1317.728	1049.965
104.045	22.204	1316.742	1049.255
105.060	22.172	1316.157	1048.504
106.074	22.181	1315.127	1047.648
107.089	22.239	1313.808	1046.850
108.103	22.167	1313.407	1046.006
109.118	22.265	1311.502	1044.982
110.133	22.187	1310.533	1043.651
111.147	22.244	1309.731	1043.258
112.162	22.343	1308.027	1042.397
113.176	22.288	1306.736	1040.950
114.191	22.204	1306.517	1040.190
115.206	22.212	1305.498	1039.331
116.220	22.189	1304.318	1038.163
117.235	22.313	1302.829	1037.620
118.249	22.252	1302.538	1036.933
119.264	22.270	1301.328	1035.988
120.279	22.360	1300.676	1035.903
121.293	22.320	1299.895	1034.954
122.308	22.276	1299.212	1034.060
123.322	22.385	1297.775	1033.467
124.337	22.460	1296.641	1032.912
125.352	22.398	1295.777	1031.769
126.366	22.405	1294.861	1030.987
127.381	22.392	1294.221	1030.314
128.395	22.340	1293.560	1029.390
129.410	22.325	1292.673	1028.508
130.424	22.362	1291.646	1027.814
131.439	22.232	1291.158	1026.578
132.454	22.169	1290.328	1025.460
133.468	22.293	1289.350	1025.311
134.483	22.422	1288.881	1025.603
135.497	22.329	1287.477	1023.854
136.512	22.363	1286.598	1023.258
137.527	22.287	1285.749	1022.051
138.541	22.229	1284.380	1020.534
139.556	22.319	1283.074	1019.930
140.570	22.261	1282.517	1019.064
141.585	22.248	1281.332	1017.956
142.600	22.334	1280.048	1017.339
143.614	22.301	1279.291	1016.459
144.629	22.293	1277.928	1015.239
145.643	22.186	1276.928	1013.742
146.658	22.145	1275.975	1012.657
147.673	22.312	1275.214	1012.924
148.687	22.309	1274.370	1012.146
149.702	22.194	1273.045	1010.346
150.716	22.164	1271.697	1009.012
151.731	22.285	1271.069	1009.118
152.746	22.331	1269.621	1008.142
153.760	22.358	1268.448	1007.276
154.775	22.347	1267.544	1006.411
155.789	22.200	1266.887	1004.957
156.804	22.325	1265.654	1004.603
157.819	22.402	1264.801	1004.279
158.833	22.479	1263.845	1003.867
159.848	22.408	1263.232	1002.889
160.862	22.432	1262.859	1002.643
161.877	22.478	1261.799	1001.972
162.892	22.352	1261.139	1000.644
163.906	22.434	1260.079	1000.177
164.921	22.541	1259.354	1000.123
165.935	22.403	1258.684	998.719
166.950	22.403	1258.412	998.416
167.964	22.581	1257.429	998.553
168.979	22.486	1256.913	997.517
169.994	22.502	1256.375	997.095
171.008	22.510	1255.126	996.062
172.023	22.491	1254.634	995.476
173.037	22.485	1253.922	994.790
174.052	22.426	1253.786	994.256
175.067	22.455	1252.554	993.354
176.081	22.422	1251.661	992.376
177.096	22.418	1251.307	991.984
178.110	22.513	1250.340	991.664
179.125	22.443	1249.218	990.294
180.140	22.453	1248.008	989.305
181.154	22.553	1246.832	988.843
182.169	22.497	1245.702	987.548
183.183	22.469	1245.043	986.777
184.198	22.571	1243.577	986.100
185.213	22.437	1243.001	984.808
186.227	22.578	1241.676	984.459
187.242	22.582	1240.817	983.715
188.256	22.520	1239.766	982.448
189.271	22.521	1239.294	981.993
190.286	22.553	1238.916	981.782
191.300	22.550	1238.305	981.194
192.315	22.366	1237.902	979.764
193.329	22.564	1237.026	980.087
194.344	22.673	1236.356	980.073
195.359	22.565	1235.978	979.088
196.373	22.491	1235.810	978.457
197.388	22.438	1235.838	978.100
198.402	22.470	1235.170	977.661
199.417	22.492	1234.967	977.537
200.432	22.611	1233.398	976.867
201.446	22.621	1232.889	976.431
202.461	22.493	1232.616	975.422
203.475	22.602	1231.600	975.131
204.490	22.524	1230.382	973.654
205.504	22.576	1229.933	973.499
206.519	22.675	1228.802	973.063
207.534	22.696	1227.596	972.138
208.548	22.573	1227.151	971.024
209.563	22.648	1226.195	970.593
210.577	22.623	1225.182	969.568
211.592	22.655	1224.793	969.348
212.607	22.652	1223.969	968.597
213.621	22.698	1222.929	967.939
214.636	22.689	1222.112	967.155
215.650	22.679	1221.078	966.200
216.665	22.670	1220.520	965.622
217.680	22.606	1219.634	964.483
218.694	22.776	1218.511	964.438
219.709	22.708	1218.304	963.820
220.723	22.645	1217.524	962.775
221.738	22.623	1216.591	961.830
222.753	22.560	1216.147	961.053
223.767	22.670	1215.148	960.774
224.782	22.705	1214.777	960.585
225.796	22.740	1214.269	960.293
226.811	22.684	1213.926	959.632
227.826	22.748	1213.208	959.326
228.840	22.727	1212.470	958.543
229.855	22.760	1211.735	958.057
230.869	22.699	1211.319	957.315
231.884	22.810	1210.275	957.004
232.899	22.788	1209.380	956.093
233.913	22.863	1208.607	955.805
234.928	22.852	1208.857	955.855
235.942	22.844	1207.966	955.022
236.957	22.866	1207.231	954.477
237.972	22.884	1206.164	953.644
238.986	22.854	1205.522	952.895
240.001	22.815	1205.254	952.387
241.015	22.926	1204.699	952.462
242.030	22.950	1203.624	951.658
243.045	22.892	1202.825	950.631
244.059	22.895	1202.318	950.159
245.074	22.979	1201.067	949.538
246.088	23.052	1200.292	949.233
247.103	22.974	1199.842	948.374
248.117	23.020	1198.750	947.676
249.132	22.916	1198.569	946.892
250.147	22.941	1198.301	946.728
251.161	22.988	1196.865	945.762
252.176	22.929	1196.248	944.877
253.190	23.016	1195.746	944.859
254.205	22.993	1194.872	943.964
255.220	23.019	1194.139	943.438
256.234	23.077	1193.598	943.241
257.249	23.015	1193.014	942.364
258.263	23.011	1192.765	942.064
259.278	23.145	1192.091	942.159
260.293	22.925	1192.002	940.832
261.307	23.066	1190.897	940.629
262.322	23.024	1190.384	939.917
263.336	22.989	1190.075	939.403
264.351	23.087	1189.192	939.146
265.366	23.024	1188.596	938.256
266.380	23.052	1188.403	938.168
267.395	22.959	1187.649	936.998
268.409	23.043	1186.304	936.298
269.424	23.129	1185.817	936.285
270.439	23.124	1185.629	936.029
271.453	23.122	1184.958	935.404
272.468	23.036	1184.052	934.154
273.482	23.049	1183.222	933.485
274.497	23.093	1182.778	933.282
275.512	23.248	1182.143	933.515
276.526	23.219	1181.516	932.788
277.541	23.164	1180.719	931.786
278.555	23.128	1179.856	930.835
279.570	23.207	1179.501	930.886
280.585	23.278	1178.628	930.486
281.599	23.215	1177.879	929.480
282.614	23.228	1176.865	928.666
283.628	23.231	1176.222	928.093
284.643	23.182	1175.563	927.236
285.657	23.193	1174.692	926.523
286.672	23.208	1173.782	925.803
287.687	23.298	1172.820	925.434
288.701	23.333	1172.600	925.362
289.716	23.305	1171.890	924.573
290.730	23.383	1170.861	924.085
291.745	23.390	1170.544	923.789
292.760	23.334	1169.925	922.927
293.774	23.358	1169.193	922.391
294.789	23.394	1168.783	922.177
295.803	23.331	1168.392	921.459
296.818	23.349	1167.401	920.690
297.833	23.408	1166.764	920.412
298.847	23.423	1165.782	919.635
299.862	23.349	1165.255	918.751
300.876	23.301	1164.965	918.193
301.891	23.440	1163.854	917.954
302.906	23.543	1163.224	917.909
303.920	23.482	1162.854	917.224
304.935	23.473	1162.172	916.558
305.949	23.376	1161.293	915.282
306.964	23.442	1160.933	915.257
307.979	23.582	1159.946	915.120
308.993	23.432	1159.698	914.068
310.008	23.621	1158.556	914.062
311.022	23.475	1157.933	912.739
312.037	23.458	1157.178	911.973
313.052	23.579	1156.164	911.716
314.066	23.501	1155.417	910.645
315.081	23.588	1154.822	910.543
316.095	23.504	1154.389	909.689
317.110	23.461	1153.869	908.980
318.125	23.541	1152.926	908.565
319.139	23.460	1152.587	907.804
320.154	23.591	1151.738	907.728
321.168	23.624	1151.240	907.422
322.183	23.749	1150.165	907.131
323.197	23.642	1149.968	906.351
324.212	23.522	1149.621	905.383
325.227	23.611	1149.208	905.434
326.241	23.628	1148.687	905.029
327.256	23.637	1147.812	904.304
328.270	23.584	1146.717	903.093
329.285	23.711	1145.826	902.957
330.300	23.729	1144.896	902.237
331.314	23.626	1144.281	901.150
332.329	23.799	1143.222	901.114
333.343	23.727	1142.871	900.389
334.358	23.754	1142.319	900.013
335.373	23.698	1141.373	898.906
336.387	23.917	1140.588	899.314
337.402	23.841	1139.841	898.260
338.416	23.790	1139.489	897.646
339.431	23.865	1138.390	897.081
340.446	23.874	1138.040	896.770
341.460	23.951	1137.249	896.456
342.475	23.942	1136.859	896.024
343.489	23.830	1136.128	894.802
344.504	23.915	1134.941	894.215
345.519	23.815	1134.527	893.310
346.533	23.772	1133.545	892.242
347.548	23.853	1132.747	891.942
348.562	23.869	1132.190	891.505
349.577	23.815	1132.105	891.086
350.592	23.736	1130.804	889.586
351.606	23.765	1130.090	889.091
352.621	23.994	1129.265	889.510
353.635	23.918	1129.065	888.896
354.650	23.859	1128.514	888.088
355.665	23.990	1127.874	888.161
356.679	23.991	1127.117	887.488
357.694	24.041	1126.585	887.239
358.708	24.053	1125.689	886.518
359.723	24.005	1125.085	885.725
360.738	24.006	1124.285	885.020
361.752	23.981	1124.051	884.633
362.767	24.099	1123.482	884.696
363.781	24.060	1122.961	884.012
364.796	24.147	1122.426	883.944
365.810	24.207	1121.544	883.471
366.825	24.067	1121.003	882.272
367.840	24.242	1120.556	882.705
368.854	24.272	1119.820	882.199
369.869	24.210	1119.086	881.238
370.883	24.200	1118.626	880.747
371.898	24.156	1117.520	879.579
372.913	24.241	1116.760	879.325
373.927	24.147	1116.769	878.790
374.942	24.206	1116.107	878.482
375.956	24.141	1115.657	877.730
376.971	24.280	1115.088	877.887
377.986	24.296	1114.222	877.205
379.000	24.516	1113.702	877.804
380.015	24.276	1113.436	876.333
381.029	24.216	1112.613	875.316
382.044	24.305	1112.168	875.324
383.059	24.350	1111.371	874.838
384.073	24.450	1110.645	874.682
385.088	24.334	1109.996	873.525
386.102	24.297	1109.337	872.745
387.117	24.255	1108.058	871.457
388.132	24.124	1107.870	870.593
389.146	24.388	1106.832	870.990
390.161	24.399	1106.163	870.442
391.175	24.460	1105.358	870.024
392.190	24.457	1104.743	869.452
393.205	24.329	1104.363	868.452
394.219	24.441	1103.620	868.336
395.234	24.392	1102.758	867.344
396.248	24.434	1101.954	866.836
397.263	24.463	1101.230	866.330
398.278	24.396	1100.401	865.280
399.292	24.551	1099.928	865.582
400.307	24.632	1098.952	865.127
401.321	24.494	1098.583	864.092
402.336	24.530	1097.745	863.530
403.350	24.553	1097.256	863.183
404.365	24.454	1096.986	862.414
405.380	24.508	1095.979	861.809
406.394	24.558	1095.221	861.377
407.409	24.653	1094.247	860.994
408.423	24.789	1093.566	861.035
409.438	24.657	1093.077	859.940
410.453	24.708	1092.383	859.560
411.467	24.658	1091.756	858.752
412.482	24.602	1091.001	857.812
413.496	24.608	1090.663	857.500
414.511	24.812	1089.369	857.384
415.526	24.629	1089.245	856.335
416.540	24.552	1088.993	855.690
417.555	24.687	1088.367	855.770
418.569	24.717	1087.980	855.533
419.584	24.806	1087.291	855.344
420.599	24.747	1087.129	854.856
421.613	148.544	1402.726	1798.549
422.628	137.347	1448.682	1798.638
