DTS Sentinel unit serial number:	SN413079Multiplexer serial number:	ORYXHardware model number:	OX4-SRSoftware version number:	ORYX F/W v4.00 Oryx Data Collector v3.7.2.0data status	okinstallation	princeton_trtdifferential loss correction	single-endedforward channel	channel 2reverse channel	N/Adate	2019/09/17time	07:19:35forward acquisition time	60.00reverse acquisition time	0.00gamma	496.2192k internal	0.2334k external	0.2334temperature offset calibration	0.9971default loss term (dB/km)	0.3790temperature slope calibration	1.0000multiplexer offset coefficient	1.0000multiplexer slope coefficient	1.0000fibre end	0.00T internal ref (°C)	27.25T ext. ref 1 (°C)	0.13T ext. ref 2 (°C)	21.40length (m)	temperature (°C)	Stokes	anti-Stokes-747.200	-45.562	-0.465	0.231
-746.185	263.457	-0.032	0.055
-745.171	800.000	-0.032	-0.108
-744.156	64.217	-0.100	0.101
-743.142	-49.508	0.098	0.047
-742.127	87.973	0.136	-0.152
-741.112	76.304	0.098	0.104
-740.098	288.410	-0.065	0.118
-739.083	105.909	0.239	-0.284
-738.069	-200.000	0.013	-0.094
-737.054	481.986	0.052	-0.119
-736.039	-32.070	-0.280	-0.157
-735.025	800.000	0.046	0.175
-734.010	-200.000	0.017	-0.126
-732.996	-123.093	-0.132	0.021
-731.981	719.218	0.085	0.228
-730.966	800.000	0.031	0.123
-729.952	156.334	-0.155	-0.215
-728.937	-3.171	0.143	-0.100
-727.923	94.137	0.217	0.247
-726.908	163.810	0.102	0.145
-725.894	800.000	-0.124	-0.361
-724.879	-200.000	-0.015	-0.145
-723.864	-66.316	-0.091	-0.036
-722.850	146.421	0.103	-0.139
-721.835	-128.413	-0.333	-0.047
-720.821	91.301	0.063	-0.071
-719.806	-12.861	-0.322	-0.210
-718.791	-120.080	0.282	0.048
-717.777	543.313	-0.033	-0.078
-716.762	192.557	-0.160	0.243
-715.748	19.618	0.056	0.046
-714.733	-156.216	-0.478	0.030
-713.718	-200.000	0.025	0.280
-712.704	122.025	0.158	-0.199
-711.689	-17.863	-0.095	0.060
-710.675	792.800	-0.059	-0.163
-709.660	79.310	0.172	-0.185
-708.645	-81.993	0.169	0.055
-707.631	-200.000	-0.090	-0.439
-706.616	-72.564	-0.162	0.060
-705.602	14.902	0.266	-0.209
-704.587	-200.000	-0.060	-0.362
-703.572	30.928	-0.085	-0.073
-702.558	-95.458	0.177	-0.048
-701.543	349.277	-0.093	-0.183
-700.529	-38.076	0.291	-0.155
-699.514	18.306	-0.124	0.099
-698.499	-182.504	-0.188	-0.003
-697.485	173.437	-0.182	-0.263
-696.470	55.386	0.210	0.203
-695.456	34.633	-0.102	0.090
-694.441	87.075	0.077	-0.085
-693.426	-200.000	-0.011	0.179
-692.412	800.000	-0.092	0.296
-691.397	-109.860	-0.330	0.070
-690.383	-2.301	-0.322	0.226
-689.368	36.643	0.069	0.061
-688.354	-84.196	-0.051	0.016
-687.339	-43.780	0.108	-0.055
-686.324	176.482	0.120	0.175
-685.310	31.662	0.270	-0.233
-684.295	-12.455	-0.233	0.153
-683.281	641.121	0.040	0.103
-682.266	800.000	-0.059	0.189
-681.251	26.151	-0.146	-0.123
-680.237	-200.000	0.032	-0.261
-679.222	800.000	-0.154	-0.440
-678.208	-102.010	-0.264	0.064
-677.193	-179.089	-0.073	-0.002
-676.178	-191.377	-0.151	-0.002
-675.164	800.000	-0.050	0.182
-674.149	-64.387	-0.140	-0.057
-673.135	293.939	0.051	-0.094
-672.120	472.423	0.052	-0.117
-671.105	59.738	0.092	-0.091
-670.091	-58.491	-0.240	-0.104
-669.076	423.122	0.120	-0.257
-668.062	11.110	-0.148	-0.114
-667.047	330.817	-0.071	0.137
-666.032	800.000	-0.073	0.298
-665.018	-109.907	0.170	-0.036
-664.003	72.096	0.064	0.067
-662.989	-17.453	-0.065	0.041
-661.974	42.448	0.136	-0.124
-660.959	-124.880	-0.183	-0.028
-659.945	164.793	-0.192	-0.271
-658.930	-200.000	0.019	0.133
-657.916	800.000	0.026	-0.086
-656.901	-200.000	0.020	-0.140
-655.886	192.877	-0.005	0.007
-654.872	2.501	-0.151	0.109
-653.857	800.000	0.061	-0.180
-652.843	108.851	-0.136	-0.163
-651.828	-200.000	0.020	0.090
-650.814	187.183	-0.094	-0.141
-649.799	-22.801	-0.349	0.211
-648.784	-63.943	-0.119	-0.049
-647.770	-16.226	0.290	0.184
-646.755	257.792	-0.117	0.202
-645.741	543.098	-0.179	0.427
-644.726	27.529	0.245	0.207
-643.711	-200.000	-0.084	-0.373
-642.697	-200.000	-0.018	-0.117
-641.682	391.623	0.051	-0.105
-640.668	-22.890	-0.313	-0.189
-639.653	-119.453	0.118	0.020
-638.638	-76.637	-0.319	-0.112
-637.624	200.959	0.144	-0.222
-636.609	-200.000	0.029	-0.181
-635.595	1.698	-0.126	0.091
-634.580	303.982	-0.075	-0.139
-633.565	800.000	0.043	0.157
-632.551	57.111	0.073	-0.071
-631.536	-200.000	0.040	-0.506
-630.522	282.115	0.115	0.206
-629.507	-200.000	0.016	-0.120
-628.492	800.000	-0.053	-0.174
-627.478	-183.129	0.081	0.001
-626.463	424.336	0.062	-0.133
-625.449	45.421	0.328	-0.303
-624.434	219.454	0.044	-0.071
-623.419	-1.732	-0.069	-0.049
-622.405	-200.000	-0.012	-0.164
-621.390	-89.913	-0.279	-0.082
-620.376	-84.970	-0.256	-0.080
-619.361	800.000	-0.066	0.241
-618.346	184.868	0.079	0.117
-617.332	800.000	0.040	-0.133
-616.317	-46.075	-0.201	-0.099
-615.303	329.890	0.104	-0.200
-614.288	84.830	0.177	-0.194
-613.273	-64.319	-0.157	-0.064
-612.259	16.203	0.109	-0.086
-611.244	800.000	0.064	0.179
-610.230	85.082	-0.131	-0.144
-609.215	229.139	-0.225	0.367
-608.201	-153.662	0.250	0.017
-607.186	125.215	0.131	0.165
-606.171	-20.400	0.228	0.140
-605.157	-182.909	0.345	0.006
-604.142	94.079	-0.186	-0.211
-603.128	-67.063	0.391	-0.154
-602.113	146.114	-0.115	0.154
-601.098	-97.006	0.140	-0.037
-600.084	297.544	-0.069	0.126
-599.069	-117.501	0.151	-0.027
-598.055	101.119	0.090	-0.105
-597.040	800.000	-0.085	0.244
-596.025	-200.000	0.018	-0.220
-595.011	142.356	0.303	-0.402
-593.996	-13.699	-0.214	-0.138
-592.982	193.240	-0.072	-0.108
-591.967	27.936	-0.130	0.109
-590.952	-200.000	-0.003	0.092
-589.938	-131.144	-0.030	-0.004
-588.923	-89.276	0.133	-0.039
-587.909	22.028	-0.229	-0.187
-586.894	-200.000	0.004	-0.045
-585.879	-97.657	0.574	-0.148
-584.865	-200.000	0.048	-0.295
-583.850	-90.796	0.220	-0.063
-582.836	-54.250	-0.397	-0.180
-581.821	800.000	-0.090	-0.354
-580.806	-200.000	-0.035	-0.368
-579.792	595.066	0.126	0.311
-578.777	-85.987	-0.206	-0.064
-577.763	-68.281	0.127	-0.049
-576.748	-14.395	0.424	-0.273
-575.733	271.956	-0.227	0.399
-574.719	80.887	-0.104	0.112
-573.704	800.000	0.092	0.271
-572.690	47.170	-0.160	-0.149
-571.675	800.000	-0.065	0.212
-570.661	-142.852	-0.187	0.018
-569.646	-49.379	0.244	0.116
-568.631	-200.000	-0.014	-0.136
-567.617	756.247	0.050	0.134
-566.602	-83.747	-0.096	0.031
-565.588	-59.564	-0.294	-0.126
-564.573	718.646	0.098	-0.260
-563.558	217.654	0.039	-0.063
-562.544	30.871	-0.095	0.081
-561.529	411.381	0.104	-0.219
-560.515	-81.577	-0.225	-0.074
-559.500	-110.710	-0.346	-0.071
-558.485	240.275	-0.068	-0.114
-557.471	57.228	-0.169	0.164
-556.456	152.349	-0.041	0.056
-555.442	-200.000	-0.097	-0.489
-554.427	-120.667	-0.087	-0.015
-553.412	-200.000	0.034	0.356
-552.398	-170.334	0.176	0.006
-551.383	-145.166	-0.359	-0.033
-550.369	-200.000	-0.004	-0.519
-549.354	-200.000	0.009	0.078
-548.339	-58.122	-0.667	0.290
-547.325	291.154	-0.100	0.181
-546.310	5.280	-0.136	0.100
-545.296	73.802	0.063	-0.065
-544.281	-90.920	0.155	0.044
-543.266	-121.824	0.259	-0.043
-542.252	620.933	-0.011	0.027
-541.237	-85.307	-0.332	0.103
-540.223	-3.958	0.075	0.052
-539.208	-149.230	-0.372	0.030
-538.193	800.000	-0.047	-0.137
-537.179	688.455	-0.099	-0.258
-536.164	-20.544	-0.392	0.240
-535.150	654.100	0.054	0.138
-534.135	-29.548	-0.298	-0.170
-533.121	-189.868	-0.301	0.003
-532.106	-11.568	-0.124	0.081
-531.091	-82.009	0.235	-0.076
-530.077	-200.000	0.072	-0.390
-529.062	35.180	0.214	0.187
-528.048	293.483	-0.125	0.228
-527.033	-200.000	0.365	-0.000
-526.018	179.449	-0.188	-0.274
-525.004	-181.173	-0.390	-0.008
-523.989	-18.161	-0.319	0.199
-522.975	-200.000	0.011	-0.325
-521.960	128.116	0.189	0.240
-520.945	415.828	0.065	-0.137
-519.931	443.572	0.117	0.255
-518.916	800.000	0.036	0.110
-517.902	-10.005	-0.164	0.109
-516.887	-133.488	-0.054	0.007
-515.872	300.712	0.184	-0.339
-514.858	113.976	-0.191	-0.231
-513.843	-200.000	0.019	0.313
-512.829	-200.000	0.016	0.089
-511.814	-43.939	0.241	-0.121
-510.799	122.842	-0.197	0.246
-509.785	374.914	0.066	-0.135
-508.770	14.906	0.285	0.222
-507.756	-184.899	0.088	-0.001
-506.741	-127.289	0.396	-0.058
-505.726	-164.712	-0.312	0.014
-504.712	678.366	0.058	0.150
-503.697	-200.000	-0.009	0.192
-502.683	33.425	-0.314	0.272
-501.668	-200.000	0.020	-0.351
-500.653	-172.615	0.165	0.005
-499.639	161.248	-0.085	-0.119
-498.624	18.239	0.102	-0.081
-497.610	-54.481	0.352	0.159
-496.595	212.669	0.075	-0.118
-495.581	800.000	-0.039	0.156
-494.566	-71.923	0.071	-0.026
-493.551	162.085	0.034	-0.048
-492.537	-10.088	-0.381	0.252
-491.522	8.092	0.131	0.098
-490.508	390.578	-0.140	-0.290
-489.493	-46.390	0.019	0.009
-488.478	-200.000	0.036	-0.177
-487.464	-89.426	0.227	0.066
-486.449	-77.418	0.015	0.005
-485.435	-78.617	-0.081	0.028
-484.420	-170.819	-0.318	-0.011
-483.405	615.680	-0.073	0.183
-482.391	197.856	0.136	-0.206
-481.376	-200.000	0.084	0.392
-480.362	800.000	0.043	-0.160
-479.347	112.477	0.115	-0.139
-478.332	99.654	0.120	-0.138
-477.318	-159.701	0.225	-0.012
-476.303	-200.000	0.015	0.102
-475.289	-128.522	0.088	0.012
-474.274	75.078	-0.049	0.051
-473.259	-200.000	0.004	-0.114
-472.245	364.106	0.058	0.115
-471.230	-111.890	0.145	0.029
-470.216	-200.000	0.004	0.039
-469.201	-200.000	0.011	-0.111
-468.186	-5.145	0.004	-0.003
-467.172	-200.000	0.076	0.400
-466.157	-46.797	0.252	0.123
-465.143	688.762	-0.022	-0.057
-464.128	96.090	-0.082	0.093
-463.113	-200.000	0.036	0.360
-462.099	113.775	-0.202	0.245
-461.084	-148.796	0.198	-0.016
-460.070	-157.423	0.141	0.008
-459.055	-103.396	-0.332	0.078
-458.040	-5.246	0.179	0.122
-457.026	62.544	0.224	0.223
-456.011	-67.430	0.394	0.154
-454.997	800.000	0.095	-0.377
-453.982	276.951	0.049	0.086
-452.968	78.972	0.201	0.214
-451.953	-65.845	0.097	-0.038
-450.938	62.648	-0.092	0.091
-449.924	-35.459	0.036	-0.019
-448.909	-103.218	-0.057	0.013
-447.895	-92.157	0.190	0.053
-446.880	26.293	0.138	-0.114
-445.865	-200.000	0.027	-0.190
-444.851	72.897	-0.130	0.135
-443.836	235.464	-0.067	0.110
-442.822	-200.000	0.003	-0.026
-441.807	-23.813	-0.277	0.165
-440.792	60.575	0.279	0.275
-439.778	110.016	0.116	-0.138
-438.763	229.661	-0.128	-0.208
-437.749	43.483	0.113	0.102
-436.734	-200.000	0.036	0.226
-435.719	-130.168	-0.295	0.040
-434.705	452.693	-0.069	-0.151
-433.690	-107.941	0.303	-0.065
-432.676	-200.000	0.024	0.258
-431.661	643.359	-0.095	-0.240
-430.646	-85.330	-0.391	0.121
-429.632	-200.000	-0.008	0.238
-428.617	-117.525	0.148	-0.027
-427.603	-106.045	-0.094	0.021
-426.588	800.000	0.031	0.127
-425.573	-200.000	0.007	0.439
-424.559	-62.534	0.253	-0.104
-423.544	-23.480	-0.137	0.081
-422.530	35.703	-0.134	-0.117
-421.515	-9.239	-0.364	0.241
-420.500	-200.000	0.071	0.363
-419.486	669.037	0.026	-0.066
-418.471	800.000	0.054	-0.222
-417.457	-29.794	-0.054	-0.031
-416.442	203.836	0.107	-0.165
-415.428	-97.491	-0.082	-0.021
-414.413	-87.556	-0.188	-0.056
-413.398	424.487	-0.091	0.195
-412.384	568.835	0.064	0.154
-411.369	-106.286	0.238	0.053
-410.355	270.336	-0.092	-0.160
-409.340	800.000	-0.060	-0.244
-408.325	107.217	0.176	-0.207
-407.311	182.051	0.295	0.431
-406.296	-56.934	0.168	0.074
-405.282	-46.344	0.198	-0.097
-404.267	-200.000	-0.032	0.349
-403.252	43.117	0.153	-0.138
-402.238	-131.506	0.112	-0.015
-401.223	47.619	-0.172	0.159
-400.209	405.910	-0.138	0.289
-399.194	-117.529	0.066	0.012
-398.179	9.275	-0.218	0.164
-397.165	-200.000	0.000	-0.072
-396.150	55.523	0.214	-0.205
-395.136	-4.808	0.081	0.055
-394.121	-200.000	0.014	0.104
-393.106	475.493	0.144	0.321
-392.092	-64.308	-0.270	0.109
-391.077	-158.774	0.016	-0.001
-390.063	98.015	0.069	0.079
-389.048	121.855	0.188	-0.232
-388.033	-42.990	-0.181	-0.091
-387.019	-200.000	-0.012	-0.545
-386.004	-9.380	-0.259	0.172
-384.990	-135.519	0.222	0.026
-383.975	174.960	0.302	0.434
-382.960	-51.928	0.205	0.094
-381.946	-103.488	-0.202	-0.047
-380.931	19.581	-0.027	0.022
-379.917	33.753	0.124	-0.107
-378.902	-120.057	-0.271	0.046
-377.888	-200.000	0.011	0.073
-376.873	-200.000	0.004	0.102
-375.858	-58.722	-0.084	0.036
-374.844	-44.128	-0.181	-0.090
-373.829	73.783	-0.110	-0.115
-372.815	4.173	-0.268	-0.194
-371.800	169.246	0.142	-0.201
-370.785	-49.485	0.145	-0.068
-369.771	-200.000	-0.039	0.320
-368.756	202.018	0.180	0.275
-367.742	-200.000	-0.028	-0.145
-366.727	-78.263	-0.107	0.036
-365.712	43.253	-0.097	-0.087
-364.698	-132.870	-0.351	0.044
-363.683	507.871	-0.036	-0.083
-362.669	-95.549	-0.182	-0.048
-361.654	127.771	0.204	0.257
-360.639	-125.301	-0.204	-0.031
-359.625	-200.000	-0.048	-0.222
-358.610	-134.558	0.332	-0.040
-357.596	247.095	0.069	-0.116
-356.581	-9.555	-0.475	0.314
-355.566	-200.000	0.006	0.217
-354.552	-200.000	0.030	-0.175
-353.537	800.000	-0.045	-0.142
-352.523	-69.927	0.416	-0.157
-351.508	-144.582	-0.444	0.041
-350.493	-200.000	0.030	0.155
-349.479	114.776	0.072	0.087
-348.464	525.315	0.097	-0.225
-347.450	800.000	-0.023	0.086
-346.435	186.985	-0.036	0.053
-345.420	189.038	-0.035	-0.052
-344.406	-200.000	0.008	-0.193
-343.391	34.239	-0.062	0.053
-342.377	-50.113	-0.449	0.210
-341.362	344.311	-0.082	0.160
-340.348	50.621	0.191	0.178
-339.333	140.310	0.105	-0.137
-338.318	-200.000	0.030	-0.264
-337.304	-13.600	-0.017	0.011
-336.289	-140.990	-0.336	0.034
-335.275	178.750	0.209	0.303
-334.260	-123.826	0.130	-0.020
-333.245	-73.000	-0.204	-0.074
-332.231	-69.097	0.257	-0.098
-331.216	671.846	0.094	-0.241
-330.202	-191.086	0.302	0.003
-329.187	77.909	0.018	0.019
-328.172	-118.159	0.285	0.050
-327.158	-5.093	-0.448	-0.305
-326.143	-18.232	-0.145	0.090
-325.129	149.927	-0.147	0.197
-324.114	39.855	-0.075	0.067
-323.099	183.223	-0.148	0.216
-322.085	-200.000	0.002	-0.104
-321.070	-51.163	0.248	0.115
-320.056	800.000	0.105	-0.322
-319.041	25.884	-0.106	0.088
-318.026	326.647	0.071	-0.134
-317.012	-200.000	-0.016	-0.282
-315.997	-92.645	0.199	-0.055
-314.983	800.000	0.042	0.149
-313.968	-195.408	-0.205	-0.002
-312.953	286.815	0.078	0.139
-311.939	-46.547	0.102	0.050
-310.924	-200.000	0.000	0.213
-309.910	280.882	0.114	0.201
-308.895	85.527	0.178	0.193
-307.880	-72.627	0.104	-0.038
-306.866	-54.319	0.171	0.076
-305.851	134.667	-0.161	-0.206
-304.837	-6.768	-0.077	0.052
-303.822	-200.000	-0.012	0.101
-302.807	-60.469	-0.200	-0.084
-301.793	237.200	0.141	0.231
-300.778	121.544	0.198	0.244
-299.764	-53.338	-0.044	-0.020
-298.749	-200.000	-0.010	0.064
-297.735	-111.929	-0.240	0.048
-296.720	-77.182	-0.205	0.071
-295.705	332.546	-0.127	0.241
-294.691	-161.535	0.414	0.021
-293.676	95.457	0.151	-0.170
-292.662	55.596	-0.158	-0.151
-291.647	32.202	-0.064	0.055
-290.632	246.008	-0.120	-0.200
-289.618	-80.801	-0.112	0.037
-288.603	-72.801	0.115	0.042
-287.589	226.240	0.243	0.390
-286.574	42.781	-0.148	0.133
-285.559	-192.854	0.164	0.001
-284.545	-128.136	0.305	-0.043
-283.530	6.770	-0.212	0.156
-282.516	-45.637	0.350	0.171
-281.501	-92.173	0.118	-0.033
-280.486	-200.000	0.004	-0.041
-279.472	-161.166	0.262	0.013
-278.457	-200.000	0.030	0.234
-277.443	800.000	0.066	-0.214
-276.428	-200.000	0.017	0.221
-275.413	546.526	-0.067	-0.158
-274.399	-200.000	0.030	0.287
-273.384	-200.000	-0.002	0.107
-272.370	-102.099	-0.412	-0.098
-271.355	800.000	0.094	-0.285
-270.340	-114.552	0.350	-0.066
-269.326	50.752	-0.111	0.103
-268.311	800.000	0.094	-0.298
-267.297	630.330	-0.066	-0.166
-266.282	-105.496	0.562	-0.126
-265.267	-26.050	0.225	0.130
-264.253	-79.455	-0.112	-0.037
-263.238	368.517	-0.205	-0.409
-262.224	-200.000	-0.139	-0.000
-261.209	-200.000	0.059	-0.263
-260.195	-150.592	-0.078	0.006
-259.180	-120.350	-0.186	-0.031
-258.165	50.712	-0.115	-0.107
-257.151	246.523	-0.134	0.223
-256.136	-43.970	0.229	-0.114
-255.122	-150.568	0.252	-0.019
-254.107	-51.796	0.344	0.158
-253.092	-200.000	0.041	-0.413
-252.078	88.415	0.285	-0.312
-251.063	247.846	0.227	0.379
-250.049	-91.268	-0.392	0.111
-249.034	-200.000	0.089	-0.496
-248.019	-164.004	0.148	0.007
-247.005	195.677	-0.152	-0.228
-245.990	27.356	-0.144	0.120
-244.976	352.677	0.113	0.222
-243.961	44.100	0.186	-0.168
-242.946	264.558	-0.159	-0.272
-241.932	-72.910	0.097	0.035
-240.917	-89.892	0.220	-0.063
-239.903	-187.854	-0.085	-0.001
-238.888	800.000	-0.074	-0.255
-237.873	-95.446	-0.295	-0.078
-236.859	253.341	-0.180	-0.302
-235.844	-200.000	0.001	-0.179
-234.830	-145.266	0.108	0.010
-233.815	800.000	0.162	-0.473
-232.800	71.127	-0.196	-0.200
-231.786	-200.000	-0.001	-0.099
-230.771	754.074	0.071	0.190
-229.757	4.936	0.174	-0.126
-228.742	-54.701	0.258	-0.115
-227.727	-200.000	-0.011	-0.570
-226.713	-200.000	0.008	-0.129
-225.698	-200.000	-0.059	0.322
-224.684	-200.000	0.009	0.055
-223.669	-63.404	0.056	-0.023
-222.655	-200.000	0.006	0.192
-221.640	429.009	-0.024	0.052
-220.625	180.366	-0.159	-0.229
-219.611	-200.000	-0.015	-0.105
-218.596	765.139	-0.014	0.037
-217.582	303.940	-0.164	-0.299
-216.567	-184.427	-0.396	0.006
-215.552	-45.298	-0.164	-0.080
-214.538	-200.000	0.022	0.185
-213.523	267.474	-0.236	-0.407
-212.509	86.022	-0.035	0.038
-211.494	49.995	-0.160	0.149
-210.479	800.000	0.058	0.214
-209.465	-132.641	0.124	0.016
-208.450	38.701	-0.273	-0.240
-207.436	-195.030	0.210	0.002
-206.421	127.358	0.170	0.213
-205.406	-57.871	-0.149	0.064
-204.392	-95.490	-0.287	-0.076
-203.377	-169.973	0.158	-0.006
-202.363	800.000	-0.059	0.160
-201.348	86.671	0.084	-0.091
-200.333	-11.578	0.206	-0.134
-199.319	65.906	0.095	0.094
-198.304	-87.639	-0.168	0.050
-197.290	800.000	0.056	0.184
-196.275	-200.000	-0.015	0.287
-195.260	128.013	-0.157	0.196
-194.246	-34.452	-0.065	-0.035
-193.231	373.740	-0.119	0.237
-192.217	512.418	-0.103	0.237
-191.202	-63.185	-0.067	0.027
-190.187	54.309	0.265	-0.251
-189.173	-200.000	0.072	-0.479
-188.158	-20.277	-0.098	0.059
-187.144	-63.146	0.286	-0.116
-186.129	-34.657	0.147	-0.079
-185.114	-63.485	-0.354	0.143
-184.100	646.782	0.058	-0.146
-183.085	-76.591	-0.026	0.009
-182.071	159.425	-0.268	0.367
-181.056	-17.440	-0.206	-0.127
-180.042	-66.452	0.114	0.044
-179.027	709.965	-0.058	-0.151
-178.012	-68.144	-0.349	0.134
-176.998	-123.365	-0.309	0.048
-175.983	-200.000	-0.043	-0.215
-174.969	800.000	-0.091	0.254
-173.954	-120.517	0.512	-0.085
-172.939	64.844	-0.303	-0.301
-171.925	526.517	0.109	0.253
-170.910	-99.707	0.260	0.064
-169.896	31.606	0.291	0.246
-168.881	68.682	-0.372	0.376
-167.866	-64.465	-0.206	0.082
-166.852	-200.000	0.006	0.156
-165.837	87.722	-0.248	0.270
-164.823	407.205	0.096	0.200
-163.808	-139.948	0.123	-0.013
-162.793	38.106	0.226	0.197
-161.779	-200.000	-0.051	0.239
-160.764	186.841	-0.086	0.125
-159.750	-90.594	0.162	0.046
-158.735	-200.000	0.008	-0.536
-157.720	-135.700	0.125	-0.015
-156.706	330.958	0.130	-0.246
-155.691	-36.805	0.271	-0.143
-154.677	-89.323	0.233	-0.067
-153.662	311.268	-0.128	0.235
-152.647	-168.507	0.077	-0.003
-151.633	60.266	-0.119	-0.115
-150.618	-32.117	0.276	-0.151
-149.604	21.238	-0.209	-0.166
-148.589	-24.479	0.083	0.049
-147.574	-138.285	0.091	0.010
-146.560	69.539	0.136	-0.138
-145.545	589.721	0.060	0.144
-144.531	-200.000	-0.037	-0.308
-143.516	-38.747	0.132	0.068
-142.502	-200.000	0.012	0.486
-141.487	407.344	0.146	0.302
-140.472	388.756	-0.114	-0.232
-139.458	-89.990	0.394	0.113
-138.443	-88.758	0.263	0.077
-137.429	-95.302	0.138	-0.037
-136.414	-78.646	0.286	0.096
-135.399	-94.274	-0.201	0.054
-134.385	-200.000	0.023	-0.220
-133.370	-17.883	-0.239	-0.147
-132.356	-200.000	-0.012	-0.082
-131.341	-93.705	-0.489	-0.132
-130.326	131.997	0.213	-0.269
-129.312	-46.548	-0.082	-0.039
-128.297	-145.527	-0.306	0.027
-127.283	-136.036	0.080	0.009
-126.268	-7.680	0.128	0.085
-125.253	78.455	0.256	0.268
-124.239	179.013	-0.129	0.185
-123.224	369.181	-0.019	-0.038
-122.210	-95.776	-0.126	0.033
-121.195	30.013	0.112	0.094
-120.180	101.161	-0.138	0.158
-119.166	-200.000	0.001	-0.018
-118.151	61.224	-0.185	0.180
-117.137	-96.907	-0.299	0.077
-116.122	629.680	0.028	0.070
-115.107	-29.397	0.144	0.081
-114.093	800.000	-0.022	0.088
-113.078	42.670	-0.094	-0.084
-112.064	-200.000	0.004	-0.139
-111.049	-200.000	0.052	0.257
-110.034	-200.000	-0.005	0.353
-109.020	-72.191	-0.194	0.070
-108.005	323.351	0.162	0.303
-106.991	-129.707	0.177	0.024
-105.976	9.662	0.189	-0.141
-104.962	-76.279	-0.235	-0.081
-103.947	423.711	-0.076	0.161
-102.932	8.496	-0.310	-0.228
-101.918	-200.000	-0.023	0.248
-100.903	800.000	0.049	-0.143
-99.889	-200.000	0.099	-0.428
-98.874	598.191	-0.099	-0.240
-97.859	5.590	-0.214	0.155
-96.845	20.872	-0.193	0.153
-95.830	-5.807	-0.049	0.033
-94.816	800.000	0.102	0.346
-93.801	-200.000	0.019	0.125
-92.786	-20.061	0.352	-0.213
-91.772	-137.723	-0.261	-0.029
-90.757	282.909	-0.141	-0.247
-89.743	706.086	-0.030	0.079
-88.728	162.422	-0.094	0.129
-87.713	-200.000	-0.019	0.378
-86.699	-92.827	-0.158	-0.043
-85.684	102.488	0.177	-0.203
-84.670	150.644	0.117	0.155
-83.655	161.471	0.127	0.174
-82.640	-200.000	-0.005	-0.124
-81.626	-200.000	-0.014	0.254
-80.611	-109.792	-0.298	-0.061
-79.597	-60.312	0.244	-0.102
-78.582	800.000	0.026	-0.092
-77.567	139.826	0.104	0.134
-76.553	-152.779	-0.152	-0.011
-75.538	341.848	-0.017	0.033
-74.524	-78.776	0.052	0.017
-73.509	-66.996	-0.272	-0.105
-72.494	-152.891	0.195	-0.014
-71.480	75.965	-0.187	-0.194
-70.465	-83.118	-0.438	0.138
-69.451	156.047	0.094	0.127
-68.436	67.703	-0.078	-0.078
-67.422	17.936	0.159	-0.124
-66.407	369.782	0.023	-0.046
-65.392	-200.000	-0.001	0.024
-64.378	-81.776	-0.054	-0.017
-63.363	28.277	0.237	-0.196
-62.349	-200.000	0.014	-0.206
-61.334	74.988	-0.932	-0.961
-60.319	54.896	0.696	0.658
-59.305	800.000	-0.298	-1.068
-58.290	89.765	0.895	0.978
-57.276	800.000	0.566	1.945
-56.261	-200.000	115.044	646.410
-55.246	469.423	1509.134	3315.953
-54.232	146.986	2679.721	3525.536
-53.217	96.379	2285.197	2557.380
-52.203	36.219	1896.971	1634.963
-51.188	30.301	1688.381	1410.309
-50.173	27.987	1646.194	1357.845
-49.159	49.530	1701.926	1567.009
-48.144	48.122	1716.125	1569.410
-47.130	29.975	1674.720	1396.223
-46.115	27.301	1660.567	1364.346
-45.100	27.202	1655.150	1359.097
-44.086	27.162	1652.469	1356.547
-43.071	27.028	1650.417	1353.805
-42.057	26.999	1648.160	1351.686
-41.042	27.157	1645.392	1350.535
-40.027	27.190	1643.688	1349.330
-39.013	27.126	1641.683	1347.157
-37.998	27.032	1640.527	1345.455
-36.984	27.152	1638.510	1344.638
-35.969	27.180	1637.279	1343.781
-34.954	27.321	1635.810	1343.562
-33.940	27.223	1634.346	1341.585
-32.925	27.319	1632.099	1340.392
-31.911	27.231	1630.807	1338.634
-30.896	27.274	1628.795	1337.244
-29.881	27.225	1627.344	1335.636
-28.867	27.226	1625.762	1334.298
-27.852	27.215	1623.978	1332.696
-26.838	27.266	1622.526	1331.827
-25.823	27.282	1621.260	1330.853
-24.809	27.246	1620.312	1329.756
-23.794	27.285	1618.843	1328.781
-22.779	27.329	1616.924	1327.474
-21.765	27.171	1615.867	1325.407
-20.750	27.249	1614.127	1324.490
-19.736	27.335	1612.446	1323.689
-18.721	27.295	1611.138	1322.266
-17.706	27.260	1609.662	1320.748
-16.692	27.202	1608.446	1319.281
-15.677	27.223	1607.146	1318.311
-14.663	27.390	1605.536	1318.149
-13.648	27.374	1604.131	1316.827
-12.633	27.263	1603.030	1315.071
-11.619	27.270	1601.324	1313.672
-10.604	27.244	1600.006	1312.351
-9.590	27.289	1598.413	1311.314
-8.575	27.304	1596.978	1310.195
-7.560	27.320	1595.958	1309.416
-6.546	27.348	1594.599	1308.451
-5.531	27.278	1593.687	1307.151
-4.517	27.267	1592.731	1306.233
-3.502	27.235	1592.007	1305.360
-2.487	27.382	1589.813	1304.562
-1.473	27.006	1577.606	1291.818
-0.458	23.983	1558.336	1254.706
0.556	18.486	1559.399	1221.991
1.571	15.974	1582.942	1222.127
2.586	15.574	1595.145	1228.517
3.600	14.356	1541.981	1178.852
4.615	8.016	1434.550	1054.765
5.629	1.515	1373.033	968.144
6.644	0.288	1364.755	954.456
7.659	0.126	1364.081	952.871
8.673	0.089	1362.957	951.771
9.688	0.007	1361.366	950.058
10.702	-0.160	1358.442	946.881
11.717	3.010	1363.384	970.273
12.731	10.795	1374.765	1027.692
13.746	16.265	1382.685	1068.224
14.761	17.018	1382.776	1072.965
15.775	16.119	1380.687	1065.571
16.790	15.127	1377.546	1056.794
17.804	14.305	1375.798	1050.183
18.819	14.117	1374.098	1047.604
19.834	13.790	1372.862	1044.514
20.848	13.504	1371.572	1041.638
21.863	13.293	1370.203	1039.179
22.877	13.085	1369.335	1037.128
23.892	13.073	1367.839	1035.826
24.907	13.152	1366.906	1035.525
25.921	13.057	1366.888	1034.818
26.936	13.141	1365.921	1034.526
27.950	13.182	1364.379	1033.524
28.965	13.167	1363.956	1033.017
29.980	13.329	1362.369	1032.731
30.994	13.360	1361.706	1032.334
32.009	13.384	1360.821	1031.719
33.023	13.305	1360.062	1030.559
34.038	13.341	1358.715	1029.674
35.053	13.272	1357.587	1028.296
36.067	13.254	1356.512	1027.279
37.082	13.208	1355.599	1026.216
38.096	13.304	1354.902	1026.191
39.111	13.301	1353.903	1025.326
40.126	13.291	1352.799	1024.339
41.140	13.170	1352.175	1023.026
42.155	13.026	1352.264	1022.111
43.169	13.012	1352.255	1021.927
44.184	13.100	1351.513	1021.819
45.199	12.999	1351.202	1020.869
46.213	13.204	1350.567	1021.567
47.228	13.246	1349.361	1020.820
48.242	13.259	1348.024	1019.801
49.257	13.134	1346.862	1018.062
50.271	13.186	1345.305	1017.117
51.286	13.273	1344.059	1016.618
52.301	13.270	1342.516	1015.340
53.315	13.203	1341.473	1014.053
54.330	13.163	1340.796	1013.202
55.344	13.034	1339.657	1011.463
56.359	13.181	1338.151	1011.139
57.374	13.017	1337.455	1009.517
58.388	13.006	1337.125	1009.114
59.403	12.998	1336.613	1008.591
60.417	13.072	1335.246	1007.917
61.432	12.981	1334.729	1006.882
62.447	12.973	1333.816	1006.059
63.461	12.993	1332.099	1004.793
64.476	13.113	1331.068	1004.657
65.490	12.933	1330.426	1002.994
66.505	13.037	1329.020	1002.473
67.520	13.102	1327.817	1001.875
68.534	13.192	1326.016	1000.968
69.549	13.082	1325.500	999.824
70.563	12.947	1324.247	997.973
71.578	13.054	1323.159	997.715
72.593	12.997	1322.233	996.582
73.607	12.864	1321.793	995.360
74.622	12.936	1320.865	995.008
75.636	12.989	1319.979	994.572
76.651	12.792	1319.848	993.197
77.666	12.963	1318.337	993.004
78.680	12.959	1318.317	992.873
79.695	12.920	1317.321	991.805
80.709	13.100	1316.258	991.997
81.724	13.071	1315.600	991.241
82.739	13.117	1314.906	990.905
83.753	13.167	1313.904	990.361
84.768	13.228	1312.915	989.891
85.782	13.270	1311.566	989.037
86.797	13.190	1310.388	987.583
87.812	13.078	1309.201	985.932
88.826	13.224	1307.689	985.580
89.841	13.217	1306.828	984.804
90.855	13.276	1305.439	984.021
91.870	13.293	1304.921	983.645
92.884	13.183	1304.041	982.237
93.899	13.230	1303.646	982.130
94.914	13.247	1303.028	981.683
95.928	13.371	1301.474	981.161
96.943	13.394	1300.191	980.244
97.957	13.333	1299.998	979.647
98.972	13.326	1298.958	978.738
99.987	13.245	1297.929	977.396
101.001	13.333	1296.827	977.002
102.016	13.246	1295.978	975.763
103.030	13.248	1295.423	975.267
104.045	13.323	1294.074	974.608
105.060	13.196	1293.058	973.009
106.074	13.203	1291.476	971.774
107.089	13.133	1290.087	970.229
108.103	13.032	1288.965	968.711
109.118	13.110	1287.773	968.183
110.133	13.061	1286.481	966.841
111.147	13.016	1285.622	965.846
112.162	13.083	1284.209	965.093
113.176	13.200	1282.797	964.629
114.191	13.204	1282.094	964.034
115.206	13.206	1281.053	963.183
116.220	13.229	1279.851	962.324
117.235	13.095	1278.838	960.697
118.249	13.127	1277.887	960.083
119.264	13.266	1276.701	959.915
120.279	13.191	1275.377	958.400
121.293	13.122	1274.847	957.520
122.308	13.070	1273.765	956.317
123.322	13.073	1272.960	955.649
124.337	13.020	1271.788	954.375
125.352	13.072	1270.622	953.718
126.366	13.142	1269.521	953.212
127.381	13.127	1268.526	952.296
128.395	13.136	1267.367	951.389
129.410	13.124	1266.293	950.429
130.424	13.242	1265.924	950.748
131.439	13.250	1264.446	949.600
132.454	13.146	1264.024	948.602
133.468	13.191	1263.079	948.066
134.483	13.233	1262.208	947.573
135.497	13.342	1261.043	947.238
136.512	13.193	1259.898	945.440
137.527	13.153	1258.598	944.152
138.541	13.132	1257.359	943.022
139.556	13.128	1256.500	942.269
140.570	13.227	1254.853	941.515
141.585	13.333	1253.716	941.182
142.600	13.308	1252.546	940.078
143.614	13.356	1251.658	939.603
144.629	13.307	1250.839	938.626
145.643	13.393	1249.867	938.299
146.658	13.241	1249.144	936.814
147.673	13.261	1247.096	935.306
148.687	13.177	1245.835	933.806
149.702	13.277	1244.583	933.347
150.716	13.184	1243.268	931.753
151.731	13.207	1241.955	930.815
152.746	13.257	1240.700	930.075
153.760	13.304	1239.892	929.652
154.775	13.237	1239.016	928.535
155.789	13.424	1237.280	928.201
156.804	13.413	1236.291	927.315
157.819	13.448	1235.572	926.889
158.833	13.548	1234.200	926.340
159.848	13.550	1233.670	925.873
160.862	13.458	1232.958	924.739
161.877	13.417	1231.374	923.244
162.892	13.405	1230.431	922.384
163.906	13.477	1229.308	921.866
164.921	13.464	1228.539	921.131
165.935	13.399	1227.798	920.134
166.950	13.508	1227.047	920.096
167.964	13.506	1226.318	919.457
168.979	13.500	1225.450	918.690
169.994	13.513	1224.796	918.194
171.008	13.520	1223.942	917.512
172.023	13.533	1222.937	916.744
173.037	13.571	1222.248	916.358
174.052	13.631	1221.380	915.961
175.067	13.594	1219.997	914.635
176.081	13.591	1219.052	913.833
177.096	13.519	1218.495	912.936
178.110	13.572	1216.969	912.004
179.125	13.616	1216.308	911.669
180.140	13.562	1214.815	910.171
181.154	13.535	1213.797	909.179
182.169	13.610	1212.337	908.421
183.183	13.562	1211.397	907.372
184.198	13.672	1210.238	907.024
185.213	13.713	1209.093	906.312
186.227	13.677	1208.033	905.236
187.242	13.734	1206.491	904.313
188.256	13.759	1205.999	904.003
189.271	13.783	1204.753	903.116
190.286	13.794	1203.568	902.208
191.300	13.608	1202.849	900.582
192.315	13.544	1202.556	899.935
193.329	13.622	1201.994	899.857
194.344	13.685	1201.136	899.476
195.359	13.662	1200.683	898.931
196.373	13.879	1199.804	899.370
197.388	13.836	1199.490	898.823
198.402	13.883	1199.558	899.047
199.417	13.828	1198.717	898.042
200.432	13.923	1197.592	897.631
201.446	14.022	1196.728	897.442
202.461	14.014	1195.835	896.648
203.475	14.039	1194.657	895.821
204.490	13.998	1193.851	894.917
205.504	13.910	1192.255	893.169
206.519	13.932	1191.110	892.347
207.534	13.899	1190.293	891.478
208.548	13.968	1189.148	890.913
209.563	14.004	1188.685	890.683
210.577	13.970	1187.724	889.701
211.592	14.104	1186.481	889.408
212.607	14.135	1185.600	888.832
213.621	14.172	1184.912	888.438
214.636	14.190	1183.654	887.510
215.650	14.131	1183.107	886.710
216.665	14.130	1182.140	885.901
217.680	14.095	1181.169	884.905
218.694	14.277	1180.497	885.291
219.709	14.161	1180.145	884.334
220.723	14.204	1179.094	883.695
221.738	14.281	1178.291	883.426
222.753	14.267	1177.429	882.627
223.767	14.262	1176.795	882.047
224.782	14.236	1176.518	881.626
225.796	14.351	1175.407	881.321
226.811	14.389	1174.687	880.903
227.826	14.342	1174.239	880.241
228.840	14.380	1173.454	879.779
229.855	14.230	1172.801	878.416
230.869	14.423	1171.425	878.326
231.884	14.296	1170.990	877.256
232.899	14.237	1170.253	876.314
233.913	14.224	1169.776	875.808
234.928	14.356	1168.943	875.805
235.942	14.198	1168.340	874.443
236.957	14.228	1166.987	873.510
237.972	14.294	1166.627	873.508
238.986	14.272	1165.795	872.696
240.001	14.289	1165.329	872.359
241.015	14.335	1164.308	871.756
242.030	14.425	1163.526	871.565
243.045	14.490	1162.756	871.252
244.059	14.582	1161.518	870.727
245.074	14.500	1160.985	869.821
246.088	14.425	1160.834	869.242
247.103	14.385	1159.760	868.152
248.117	14.515	1159.052	868.223
249.132	14.722	1157.758	868.250
250.147	14.690	1157.829	868.060
251.161	14.712	1156.979	867.461
252.176	14.637	1156.059	866.309
253.190	14.846	1155.280	866.730
254.205	14.858	1155.212	866.665
255.220	14.852	1154.501	866.023
256.234	14.830	1153.762	865.275
257.249	14.894	1152.456	864.553
258.263	14.771	1152.562	863.922
259.278	14.791	1152.170	863.653
260.293	14.850	1151.370	863.282
261.307	15.019	1150.647	863.533
262.322	14.893	1150.080	862.382
263.336	15.042	1148.900	862.189
264.351	15.037	1148.929	862.110
265.366	15.039	1147.839	861.224
266.380	14.995	1147.285	860.509
267.395	15.004	1146.394	859.807
268.409	14.996	1145.876	859.304
269.424	14.996	1145.164	858.692
270.439	14.961	1144.590	858.009
271.453	14.981	1144.040	857.621
272.468	14.949	1142.874	856.508
273.482	15.021	1141.889	856.061
274.497	15.027	1141.661	855.847
275.512	15.067	1140.646	855.212
276.526	15.096	1139.999	854.802
277.541	15.019	1138.986	853.572
278.555	15.133	1138.442	853.672
279.570	15.129	1137.952	853.207
280.585	15.164	1137.064	852.643
281.599	15.217	1136.063	852.089
282.614	15.184	1135.676	851.557
283.628	15.276	1134.048	850.727
284.643	15.059	1133.184	848.903
285.657	15.137	1132.393	848.629
286.672	15.240	1131.339	848.288
287.687	15.331	1130.410	847.973
288.701	15.285	1129.818	847.223
289.716	15.286	1128.973	846.521
290.730	15.294	1128.240	845.937
291.745	15.255	1127.984	845.470
292.760	15.346	1127.220	845.283
293.774	15.368	1126.456	844.746
294.789	15.358	1125.969	844.254
295.803	15.359	1125.337	843.714
296.818	15.340	1124.641	843.021
297.833	15.418	1123.596	842.553
298.847	15.447	1123.137	842.280
299.862	15.408	1122.108	841.238
300.876	15.410	1121.915	841.032
301.891	15.503	1120.686	840.502
302.906	15.558	1120.245	840.371
303.920	15.545	1119.504	839.676
304.935	15.545	1119.001	839.225
305.949	15.595	1117.947	838.609
306.964	15.692	1117.385	838.596
307.979	15.546	1116.808	837.362
308.993	15.597	1116.024	836.953
310.008	15.653	1115.007	836.397
311.022	15.705	1114.332	836.073
312.037	15.748	1113.291	835.434
313.052	15.690	1112.727	834.649
314.066	15.610	1111.532	833.281
315.081	15.698	1110.763	833.066
316.095	15.549	1110.524	832.074
317.110	15.556	1109.531	831.291
318.125	15.597	1108.630	830.745
319.139	15.618	1108.003	830.304
320.154	15.530	1107.640	829.524
321.168	15.599	1107.140	829.420
322.183	15.666	1106.177	828.953
323.197	15.702	1105.638	828.657
324.212	15.711	1104.925	828.093
325.227	15.692	1104.410	827.539
326.241	15.776	1103.313	827.056
327.256	15.657	1102.756	825.981
328.270	15.706	1101.652	825.320
329.285	15.719	1101.061	824.869
330.300	15.809	1100.329	824.689
331.314	15.811	1099.145	823.739
332.329	15.867	1098.072	823.137
333.343	15.763	1097.536	822.154
334.358	15.941	1096.441	822.130
335.373	15.929	1096.142	821.775
336.387	15.907	1095.064	820.787
337.402	15.965	1094.574	820.628
338.416	15.951	1093.759	819.875
339.431	15.902	1093.675	819.500
340.446	16.119	1092.342	819.483
341.460	15.932	1092.313	818.481
342.475	16.056	1091.161	818.146
343.489	16.009	1090.458	817.319
344.504	16.130	1089.529	817.138
345.519	16.148	1088.463	816.356
346.533	16.264	1087.760	816.317
347.548	16.227	1087.212	815.652
348.562	16.199	1086.380	814.821
349.577	16.262	1085.396	814.316
350.592	16.079	1085.166	813.186
351.606	16.087	1084.027	812.300
352.621	16.117	1083.309	811.833
353.635	16.163	1082.627	811.476
354.650	16.112	1082.195	810.831
355.665	16.128	1081.513	810.330
356.679	16.188	1080.794	810.004
357.694	16.252	1079.977	809.630
358.708	16.312	1079.391	809.405
359.723	16.239	1078.824	808.556
360.738	16.299	1078.270	808.359
361.752	16.253	1077.852	807.753
362.767	16.313	1077.393	807.627
363.781	16.398	1076.384	807.202
364.796	16.374	1076.179	806.866
365.810	16.428	1075.585	806.607
366.825	16.333	1075.068	805.692
367.840	16.479	1074.492	805.885
368.854	16.463	1073.576	805.052
369.869	16.605	1072.249	804.659
370.883	16.558	1071.791	804.022
371.898	16.450	1071.138	802.946
372.913	16.473	1070.699	802.659
373.927	16.506	1070.039	802.245
374.942	16.582	1069.626	802.227
375.956	16.607	1069.224	801.975
376.971	16.624	1068.538	801.471
377.986	16.534	1068.305	800.795
379.000	16.546	1067.469	800.156
380.015	16.686	1066.538	800.047
381.029	16.743	1066.160	799.965
382.044	16.631	1065.502	798.872
383.059	16.779	1064.656	798.865
384.073	16.756	1063.837	798.068
385.088	16.854	1062.708	797.614
386.102	16.775	1062.273	796.845
387.117	16.855	1060.897	796.116
388.132	16.765	1060.345	795.209
389.146	16.685	1059.532	794.154
390.161	16.626	1058.887	793.324
391.175	16.703	1058.029	792.974
392.190	16.862	1057.238	793.054
393.205	16.826	1056.409	792.195
394.219	16.912	1055.769	792.043
395.234	16.901	1054.849	791.233
396.248	16.835	1053.843	790.103
397.263	16.723	1053.444	789.209
398.278	16.754	1052.593	788.649
399.292	16.788	1051.644	788.025
400.307	16.772	1050.857	787.291
401.321	16.863	1050.191	787.146
402.336	16.812	1049.717	786.484
403.350	16.804	1049.383	786.127
404.365	16.842	1048.305	785.425
405.380	16.940	1047.562	785.252
406.394	16.958	1047.003	784.848
407.409	16.943	1046.608	784.414
408.423	17.009	1045.197	783.591
409.438	17.107	1044.638	783.556
410.453	17.171	1044.225	783.472
411.467	17.198	1043.175	782.737
412.482	17.218	1042.528	782.277
413.496	17.273	1041.887	781.978
414.511	17.263	1041.442	781.530
415.526	17.180	1041.205	780.902
416.540	17.250	1040.837	780.876
417.555	17.256	1040.035	780.234
418.569	17.092	1040.028	779.408
419.584	17.297	1039.241	779.687
420.599	17.310	1038.616	779.210
421.613	105.041	1325.459	1477.882
422.628	96.340	1367.223	1477.939
