DTS Sentinel unit serial number:	SN413079Multiplexer serial number:	ORYXHardware model number:	OX4-SRSoftware version number:	ORYX F/W v4.00 Oryx Data Collector v3.7.2.0data status	okinstallation	princeton_trtdifferential loss correction	single-endedforward channel	channel 2reverse channel	N/Adate	2019/09/13time	06:43:35forward acquisition time	60.00reverse acquisition time	0.00gamma	496.2192k internal	0.2338k external	0.2338temperature offset calibration	1.0194default loss term (dB/km)	0.3790temperature slope calibration	1.0000multiplexer offset coefficient	1.0000multiplexer slope coefficient	1.0000fibre end	0.00T internal ref (°C)	26.00T ext. ref 1 (°C)	4.11T ext. ref 2 (°C)	20.65length (m)	temperature (°C)	Stokes	anti-Stokes-747.200	800.000	0.048	0.163
-746.185	-200.000	0.007	-0.219
-745.171	11.006	-0.307	-0.236
-744.156	-200.000	-0.036	0.188
-743.142	-33.483	0.226	-0.125
-742.127	-200.000	0.020	0.198
-741.112	-99.081	0.219	0.056
-740.098	800.000	-0.063	0.263
-739.083	-146.041	0.311	-0.028
-738.069	-200.000	-0.019	0.308
-737.054	-181.511	-0.149	0.003
-736.039	-58.441	-0.339	0.148
-735.025	-115.457	0.398	0.075
-734.010	-108.807	-0.217	-0.047
-732.996	-23.272	0.145	0.088
-731.981	-17.047	-0.045	0.028
-730.966	-200.000	-0.015	-0.119
-729.952	-85.159	0.157	0.049
-728.937	-141.294	0.296	-0.030
-727.923	-31.145	-0.329	0.186
-726.908	-49.886	-0.303	-0.144
-725.894	57.674	0.194	0.190
-724.879	199.417	-0.156	0.239
-723.864	249.013	0.074	-0.126
-722.850	247.699	-0.137	-0.232
-721.835	148.027	-0.066	0.090
-720.821	-200.000	-0.050	-0.496
-719.806	52.087	-0.177	-0.169
-718.791	-49.505	-0.130	-0.062
-717.777	800.000	0.041	-0.116
-716.762	-120.317	0.074	-0.013
-715.748	134.344	-0.076	-0.099
-714.733	105.409	0.185	-0.219
-713.718	556.957	-0.114	0.275
-712.704	235.770	-0.115	0.190
-711.689	-145.577	-0.253	-0.023
-710.675	116.106	-0.051	0.063
-709.660	-20.301	0.396	0.244
-708.645	-200.000	0.012	0.054
-707.631	4.634	0.217	0.160
-706.616	800.000	0.065	-0.192
-705.602	-115.607	0.146	-0.027
-704.587	-200.000	-0.013	0.265
-703.572	547.675	-0.101	-0.243
-702.558	800.000	-0.031	-0.101
-701.543	-144.741	-0.085	-0.008
-700.529	312.509	0.166	-0.311
-699.514	182.836	0.239	-0.354
-698.499	-114.077	0.215	0.042
-697.485	312.411	-0.323	-0.607
-696.470	62.229	0.144	-0.144
-695.456	1.209	-0.118	-0.085
-694.441	-84.964	0.141	-0.044
-693.426	202.701	-0.010	-0.015
-692.412	-200.000	0.016	0.091
-691.397	310.936	-0.025	0.047
-690.383	800.000	-0.100	-0.335
-689.368	37.632	-0.139	0.123
-688.354	-200.000	-0.024	-0.121
-687.339	134.578	-0.198	0.258
-686.324	-44.197	0.164	-0.082
-685.310	-200.000	-0.032	0.341
-684.295	181.173	-0.044	0.064
-683.281	81.126	0.125	-0.135
-682.266	-189.110	-0.206	0.002
-681.251	65.476	0.033	-0.033
-680.237	800.000	0.050	0.181
-679.222	62.638	-0.042	0.042
-678.208	444.239	0.073	0.161
-677.193	-81.489	-0.315	-0.104
-676.178	-200.000	-0.045	-0.238
-675.164	467.188	0.077	0.172
-674.149	-121.725	-0.073	0.012
-673.135	-66.022	-0.127	-0.051
-672.120	21.487	-0.094	-0.076
-671.105	324.790	0.162	-0.309
-670.091	730.775	-0.075	-0.202
-669.076	180.634	-0.144	0.212
-668.062	15.770	-0.251	-0.198
-667.047	317.413	0.082	0.155
-666.032	518.683	0.104	0.242
-665.018	60.059	-0.173	-0.171
-664.003	64.008	-0.086	-0.087
-662.989	421.499	0.075	-0.160
-661.974	-200.000	-0.026	0.212
-660.959	201.431	-0.026	0.040
-659.945	103.462	-0.214	-0.252
-658.930	8.300	-0.279	-0.209
-657.916	-200.000	0.005	-0.074
-656.901	47.325	0.129	0.120
-655.886	5.599	0.265	-0.196
-654.872	-12.548	0.120	0.078
-653.857	95.259	0.253	0.289
-652.843	220.441	0.083	-0.133
-651.828	-94.801	0.098	-0.026
-650.814	-91.459	-0.115	-0.033
-649.799	800.000	0.048	-0.196
-648.784	800.000	0.053	-0.223
-647.770	-200.000	0.026	0.126
-646.755	-92.570	0.211	0.059
-645.741	-58.734	-0.173	-0.075
-644.726	66.137	-0.165	0.168
-643.711	-5.938	0.167	0.114
-642.697	72.144	0.164	-0.171
-641.682	-200.000	0.005	0.176
-640.668	-50.599	-0.265	0.125
-639.653	33.625	-0.306	-0.266
-638.638	-131.528	-0.017	-0.002
-637.624	487.448	0.181	0.413
-636.609	800.000	-0.066	0.242
-635.595	17.703	0.054	0.043
-634.580	-67.408	-0.116	-0.045
-633.565	58.351	-0.224	0.219
-632.551	90.985	-0.273	0.305
-631.536	-58.008	-0.325	0.142
-630.522	-28.513	0.209	0.120
-629.507	-200.000	-0.114	0.001
-628.492	424.265	0.097	0.209
-627.478	-35.436	-0.099	-0.054
-626.463	-200.000	0.013	0.177
-625.449	-200.000	0.029	0.171
-624.434	-39.001	0.184	-0.097
-623.419	800.000	0.130	-0.381
-622.405	706.104	0.062	-0.162
-621.390	-125.932	0.327	0.049
-620.376	34.778	0.080	0.070
-619.361	77.198	0.093	0.099
-618.346	-70.339	-0.191	-0.072
-617.332	-72.623	0.468	-0.172
-616.317	414.030	-0.101	0.215
-615.303	-75.386	0.270	0.096
-614.288	-77.219	-0.227	-0.079
-613.273	-200.000	-0.002	0.033
-612.259	-200.000	0.023	0.113
-611.244	-200.000	-0.008	0.065
-610.230	-200.000	-0.066	-0.532
-609.215	-89.184	-0.050	-0.015
-608.201	-200.000	-0.020	0.181
-607.186	67.514	-0.277	-0.282
-606.171	-98.370	-0.221	-0.056
-605.157	169.436	-0.275	-0.393
-604.142	-135.728	-0.046	-0.005
-603.128	298.154	0.074	-0.136
-602.113	413.650	0.056	0.119
-601.098	-97.511	0.166	0.043
-600.084	-200.000	-0.025	-0.198
-599.069	384.309	-0.039	-0.080
-598.055	-119.991	-0.192	0.033
-597.040	800.000	-0.012	-0.048
-596.025	800.000	-0.113	-0.345
-595.011	-200.000	0.062	0.273
-593.996	-84.822	-0.278	0.087
-592.982	-15.949	-0.010	-0.007
-591.967	-97.783	0.149	-0.038
-590.952	800.000	0.020	-0.078
-589.938	75.471	0.278	-0.293
-588.923	-200.000	-0.025	0.191
-587.909	108.534	0.138	-0.164
-586.894	-200.000	-0.014	0.077
-585.879	101.641	0.138	-0.160
-584.865	211.904	0.072	0.114
-583.850	-106.142	-0.189	0.042
-582.836	-154.801	-0.053	-0.003
-581.821	-105.167	0.317	-0.072
-580.806	133.255	-0.056	0.073
-579.792	-200.000	0.018	0.119
-578.777	269.143	-0.106	0.186
-577.763	800.000	0.166	-0.496
-576.748	-147.204	-0.123	-0.010
-575.733	800.000	-0.074	-0.293
-574.719	-200.000	-0.041	-0.464
-573.704	15.937	-0.270	0.212
-572.690	-200.000	-0.002	0.420
-571.675	5.918	-0.177	-0.131
-570.661	460.137	0.059	0.130
-569.646	-200.000	0.007	0.171
-568.631	-167.717	-0.367	0.014
-567.617	800.000	0.088	-0.340
-566.602	291.033	0.083	-0.150
-565.588	753.770	-0.072	0.193
-564.573	799.179	0.111	-0.306
-563.558	2.066	-0.147	-0.106
-562.544	-200.000	-0.016	-0.149
-561.529	-200.000	0.015	0.223
-560.515	463.500	-0.070	-0.156
-559.500	800.000	0.117	0.429
-558.485	800.000	-0.062	-0.193
-557.471	-155.252	-0.069	0.004
-556.456	274.778	0.034	0.059
-555.442	-21.558	0.092	0.056
-554.427	-51.958	-0.421	0.195
-553.412	279.574	-0.264	-0.469
-552.398	27.150	0.096	-0.080
-551.383	111.818	-0.154	-0.185
-550.369	21.409	-0.056	0.046
-549.354	-95.187	-0.040	0.011
-548.339	-77.737	0.051	-0.017
-547.325	118.441	-0.095	0.117
-546.310	-0.359	-0.267	-0.189
-545.296	-100.020	-0.110	-0.027
-544.281	18.111	0.100	0.079
-543.266	-133.423	-0.142	-0.018
-542.252	-127.253	-0.317	0.046
-541.237	800.000	-0.035	-0.106
-540.223	-200.000	-0.031	0.320
-539.208	-200.000	0.011	0.378
-538.193	-200.000	-0.027	-0.167
-537.179	-135.143	0.224	0.027
-536.164	-8.373	0.114	-0.076
-535.150	-64.105	-0.212	-0.086
-534.135	-28.190	-0.177	-0.102
-533.121	256.712	0.111	0.189
-532.106	-200.000	0.044	-0.368
-531.091	220.521	-0.124	-0.198
-530.077	204.415	-0.031	-0.048
-529.062	62.004	0.250	0.248
-528.048	800.000	0.144	-0.427
-527.033	800.000	-0.090	0.301
-526.018	1.122	0.267	-0.191
-525.004	198.479	-0.206	-0.313
-523.989	-53.706	0.138	0.063
-522.975	-198.339	-0.356	-0.002
-521.960	290.193	0.046	0.082
-520.945	-200.000	-0.045	0.297
-519.931	-200.000	0.015	0.195
-518.916	-200.000	0.072	0.596
-517.902	722.114	0.069	0.182
-516.887	186.371	-0.107	-0.158
-515.872	-92.773	-0.094	-0.026
-514.858	-58.066	-0.328	0.142
-513.843	-200.000	0.006	0.157
-512.829	-200.000	-0.014	0.084
-511.814	-200.000	-0.013	0.081
-510.799	800.000	0.069	0.222
-509.785	196.273	-0.119	-0.180
-508.770	255.687	-0.082	-0.140
-507.756	244.136	-0.017	0.029
-506.741	-54.825	-0.033	-0.015
-505.726	-136.420	0.220	-0.025
-504.712	454.965	0.135	-0.298
-503.697	65.284	0.097	-0.097
-502.683	-137.171	-0.403	0.046
-501.668	431.406	-0.162	-0.349
-500.653	-198.324	-0.356	-0.002
-499.639	-69.986	-0.382	0.145
-498.624	-4.306	-0.238	0.163
-497.610	-85.576	0.063	-0.019
-496.595	221.035	-0.087	-0.138
-495.581	-64.387	-0.143	-0.058
-494.566	606.855	0.177	-0.438
-493.551	-6.324	-0.087	0.059
-492.537	534.388	0.161	-0.378
-491.522	-58.985	0.476	-0.204
-490.508	114.255	-0.079	0.095
-489.493	-200.000	-0.048	-0.361
-488.478	-165.648	-0.228	0.010
-487.464	-1.749	0.219	0.153
-486.449	-68.317	0.276	-0.107
-485.435	-33.185	-0.183	0.101
-484.420	-110.338	-0.175	-0.036
-483.405	800.000	-0.022	-0.066
-482.391	367.340	-0.237	-0.476
-481.376	-94.403	0.140	0.038
-480.362	14.390	-0.090	0.069
-479.347	-98.533	-0.200	0.051
-478.332	-134.166	0.343	-0.042
-477.318	107.638	-0.223	0.264
-476.303	800.000	0.078	-0.247
-475.289	89.426	0.059	-0.065
-474.274	-200.000	-0.015	0.128
-473.259	-134.925	-0.046	0.006
-472.245	453.084	0.158	-0.347
-471.230	407.199	-0.124	-0.260
-470.216	199.101	-0.132	-0.201
-469.201	395.974	0.098	0.203
-468.186	-185.468	-0.198	0.003
-467.172	293.607	0.009	0.016
-466.157	100.019	0.220	0.254
-465.143	-66.019	-0.274	-0.109
-464.128	-130.358	0.274	0.037
-463.113	74.267	0.082	-0.085
-462.099	686.090	0.128	-0.332
-461.084	-97.174	-0.331	0.086
-460.070	800.000	-0.071	-0.220
-459.055	-138.952	-0.486	-0.052
-458.040	115.685	0.139	0.168
-457.026	-32.881	0.164	-0.090
-456.011	-165.378	0.146	-0.006
-454.997	-82.400	0.219	0.071
-453.982	-91.507	0.296	0.084
-452.968	-200.000	0.021	0.155
-451.953	23.953	0.195	0.159
-450.938	304.946	0.067	0.124
-449.924	351.608	0.077	0.151
-448.909	55.085	0.084	-0.081
-447.895	-14.319	-0.093	-0.059
-446.880	202.754	0.068	0.104
-445.865	497.532	0.140	-0.320
-444.851	-71.012	0.148	-0.055
-443.836	-139.535	-0.195	0.021
-442.822	-130.687	0.122	-0.016
-441.807	84.161	-0.342	0.370
-440.792	293.822	-0.064	0.116
-439.778	-32.884	0.081	0.045
-438.763	-19.124	0.180	-0.111
-437.749	-200.000	0.017	0.112
-436.734	-200.000	-0.023	0.165
-435.719	-200.000	0.014	-0.256
-434.705	27.825	0.171	-0.143
-433.690	800.000	0.046	-0.137
-432.676	800.000	0.104	0.331
-431.661	123.200	0.085	0.105
-430.646	800.000	-0.051	-0.177
-429.632	-200.000	-0.004	-0.080
-428.617	267.831	-0.133	0.231
-427.603	-9.934	0.063	-0.041
-426.588	367.142	-0.180	0.360
-425.573	-130.010	0.385	0.052
-424.559	426.018	-0.052	-0.111
-423.544	7.165	0.237	-0.175
-422.530	-35.248	-0.270	-0.146
-421.515	800.000	0.041	0.153
-420.500	-55.795	-0.068	-0.030
-419.486	3.013	-0.293	-0.211
-418.471	-200.000	-0.024	0.146
-417.457	800.000	0.040	0.111
-416.442	19.371	0.180	0.143
-415.428	-83.276	0.232	-0.074
-414.413	359.311	0.118	0.233
-413.398	-88.465	0.316	-0.094
-412.384	116.271	-0.116	0.141
-411.369	509.398	-0.029	-0.066
-410.355	-86.109	0.196	0.060
-409.340	-73.593	0.231	-0.084
-408.325	-177.242	-0.329	-0.008
-407.311	-200.000	0.030	-0.157
-406.296	-82.184	0.191	-0.062
-405.282	-200.000	-0.027	-0.251
-404.267	656.341	-0.024	0.062
-403.252	-200.000	0.041	0.205
-402.238	800.000	-0.025	0.084
-401.223	-76.969	-0.295	-0.102
-400.209	-104.640	0.296	-0.067
-399.194	353.596	-0.138	-0.272
-398.179	152.909	-0.086	0.116
-397.165	-65.389	0.284	0.113
-396.150	259.373	0.022	-0.037
-395.136	103.648	-0.142	0.165
-394.121	-19.837	0.106	-0.065
-393.106	-53.286	-0.065	-0.030
-392.092	-200.000	-0.002	0.237
-391.077	-43.613	0.304	0.152
-390.063	-193.189	0.160	-0.001
-389.048	329.143	0.080	0.152
-388.033	-200.000	-0.003	0.129
-387.019	-34.399	0.242	0.131
-386.004	346.824	-0.137	-0.266
-384.990	139.754	0.150	0.196
-383.975	-21.029	0.268	-0.163
-382.960	-101.422	0.492	0.119
-381.946	440.678	0.032	-0.070
-380.931	38.470	0.138	-0.122
-379.917	-200.000	-0.030	-0.139
-378.902	800.000	0.137	-0.496
-377.888	-200.000	-0.002	0.104
-376.873	124.528	0.090	0.112
-375.858	-44.819	-0.042	0.021
-374.844	-34.393	-0.183	-0.099
-373.829	-25.074	-0.043	-0.025
-372.815	-39.329	-0.150	0.078
-371.800	453.194	0.059	0.129
-370.785	291.625	-0.088	-0.158
-369.771	222.177	0.057	0.091
-368.756	-12.835	0.119	-0.077
-367.742	-83.728	-0.163	-0.051
-366.727	-83.449	0.245	0.078
-365.712	154.131	0.114	0.155
-364.698	-92.861	0.083	0.023
-363.683	-200.000	-0.038	-0.232
-362.669	64.977	-0.119	-0.119
-361.654	-118.481	-0.119	-0.021
-360.639	-115.281	-0.231	-0.043
-359.625	69.908	0.134	0.136
-358.610	49.944	-0.151	0.141
-357.596	582.517	0.162	0.393
-356.581	-97.676	0.086	-0.022
-355.566	245.009	-0.079	-0.131
-354.552	-200.000	-0.011	0.072
-353.537	507.210	0.042	-0.097
-352.523	800.000	-0.110	-0.407
-351.508	-200.000	0.008	-0.158
-350.493	-200.000	0.005	0.087
-349.479	-45.257	-0.279	-0.137
-348.464	9.221	-0.142	0.106
-347.450	-117.494	0.208	0.037
-346.435	-8.319	-0.061	0.041
-345.420	18.233	-0.393	-0.310
-344.406	-200.000	0.064	0.338
-343.391	-52.785	0.042	-0.019
-342.377	-71.171	-0.309	0.115
-341.362	149.146	0.186	0.248
-340.348	27.519	0.167	0.139
-339.333	-38.985	-0.131	0.068
-338.318	84.807	-0.113	0.122
-337.304	597.805	0.129	0.316
-336.289	-66.189	0.145	-0.057
-335.275	604.360	-0.079	0.194
-334.260	32.956	0.256	-0.219
-333.245	-200.000	-0.049	-0.236
-332.231	800.000	-0.058	0.171
-331.216	91.636	-0.044	-0.049
-330.202	245.344	-0.117	0.194
-329.187	-9.193	-0.209	-0.138
-328.172	74.388	-0.249	-0.258
-327.158	-26.026	0.381	-0.221
-326.143	-200.000	0.050	0.289
-325.129	-200.000	0.040	0.465
-324.114	-31.039	-0.098	0.055
-323.099	800.000	-0.064	-0.227
-322.085	-55.936	0.099	0.044
-321.070	395.644	-0.026	-0.054
-320.056	-149.946	0.207	0.016
-319.041	-200.000	0.012	0.368
-318.026	-36.853	-0.459	0.243
-317.012	-200.000	-0.009	-0.355
-315.997	-182.530	0.367	-0.007
-314.983	-53.067	-0.043	-0.020
-313.968	-200.000	-0.068	-0.298
-312.953	687.289	0.072	0.185
-311.939	-200.000	-0.064	-0.428
-310.924	37.529	-0.176	-0.154
-309.910	53.140	0.153	-0.145
-308.895	-2.547	-0.164	0.113
-307.880	732.694	-0.106	0.279
-306.866	75.477	-0.207	-0.216
-305.851	-40.418	0.277	-0.142
-304.837	800.000	0.073	0.209
-303.822	-18.130	0.150	-0.093
-302.807	-200.000	-0.043	-0.231
-301.793	123.417	-0.078	-0.096
-300.778	137.685	0.129	0.166
-299.764	48.637	-0.141	0.130
-298.749	-200.000	-0.005	0.056
-297.735	20.442	0.369	0.294
-296.720	68.677	0.068	-0.069
-295.705	204.965	0.125	-0.191
-294.691	64.222	0.267	-0.265
-293.676	-200.000	-0.035	-0.173
-292.662	800.000	-0.048	-0.142
-291.647	-94.153	0.148	-0.040
-290.632	72.462	-0.206	-0.212
-289.618	-200.000	-0.011	-0.094
-288.603	-141.783	-0.142	0.014
-287.589	-113.952	-0.517	0.099
-286.574	800.000	-0.080	-0.225
-285.559	-89.689	-0.178	-0.051
-284.545	-61.820	0.285	0.117
-283.530	-68.551	-0.155	-0.059
-282.516	36.214	-0.139	-0.121
-281.501	-3.060	-0.058	0.040
-280.486	-113.501	-0.143	0.028
-279.472	800.000	0.146	0.437
-278.457	405.779	0.012	0.026
-277.443	105.986	0.091	-0.106
-276.428	-200.000	0.043	0.336
-275.413	-101.530	-0.300	0.072
-274.399	-38.111	0.291	-0.152
-273.384	91.370	-0.087	0.096
-272.370	166.129	-0.113	0.158
-271.355	-200.000	-0.025	0.127
-270.340	-55.031	-0.231	-0.102
-269.326	373.220	-0.109	0.219
-268.311	-135.967	0.054	-0.006
-267.297	-125.798	0.168	0.025
-266.282	310.960	0.205	-0.378
-265.267	-200.000	0.273	-0.000
-264.253	-93.603	0.056	0.015
-263.238	303.916	-0.109	-0.198
-262.224	303.490	-0.041	0.075
-261.209	-88.788	0.298	0.087
-260.195	-54.996	-0.178	0.079
-259.180	29.379	-0.181	0.151
-258.165	-136.393	0.111	0.013
-257.151	-95.675	-0.272	-0.072
-256.136	-165.805	0.300	0.013
-255.122	94.547	-0.196	-0.219
-254.107	-20.671	-0.076	0.046
-253.092	-200.000	-0.077	0.382
-252.078	294.056	-0.122	0.219
-251.063	-10.844	-0.209	-0.136
-250.049	-200.000	-0.002	0.096
-249.034	-143.285	0.470	-0.044
-248.019	-159.578	0.227	-0.012
-247.005	-127.618	-0.046	-0.006
-245.990	-22.819	-0.063	-0.037
-244.976	800.000	0.148	0.461
-243.961	-200.000	0.014	0.101
-242.946	568.525	0.101	-0.241
-241.932	11.450	-0.175	-0.132
-240.917	800.000	-0.101	-0.308
-239.903	142.083	0.280	0.365
-238.888	-200.000	-0.018	-0.125
-237.873	-200.000	-0.062	-0.295
-236.859	7.672	-0.107	-0.079
-235.844	255.221	0.118	0.198
-234.830	85.784	0.237	0.257
-233.815	-200.000	-0.022	-0.300
-232.800	-200.000	0.000	0.072
-231.786	-107.554	0.317	-0.068
-230.771	-115.978	-0.119	0.022
-229.757	-153.931	-0.130	0.009
-228.742	-5.498	-0.100	0.068
-227.727	800.000	-0.061	-0.208
-226.713	560.679	-0.056	-0.134
-225.698	75.391	0.347	0.360
-224.684	301.532	-0.203	0.369
-223.669	105.851	-0.038	-0.044
-222.655	117.215	0.144	-0.174
-221.640	70.614	0.082	-0.083
-220.625	341.064	0.010	0.020
-219.611	205.608	-0.057	0.087
-218.596	-86.598	0.112	0.034
-217.582	144.371	0.177	0.232
-216.567	27.366	0.369	0.305
-215.552	30.423	-0.251	-0.211
-214.538	-57.232	-0.268	-0.116
-213.523	-13.924	-0.111	0.071
-212.509	9.280	0.116	-0.086
-211.494	270.096	0.220	0.380
-210.479	345.693	0.132	-0.254
-209.465	179.439	0.134	-0.193
-208.450	472.033	0.095	-0.211
-207.436	2.426	0.253	-0.180
-206.421	-13.078	-0.113	0.072
-205.406	-75.590	0.250	-0.087
-204.392	-171.699	-0.134	0.004
-203.377	-200.000	-0.010	0.057
-202.363	-44.081	-0.129	0.064
-201.348	95.559	-0.115	0.129
-200.333	-34.604	-0.392	0.211
-199.319	18.811	0.342	-0.269
-198.304	-146.967	0.140	-0.012
-197.290	1.857	-0.505	-0.358
-196.275	102.352	0.272	-0.312
-195.260	-78.124	0.176	-0.060
-194.246	417.752	-0.036	-0.075
-193.231	74.643	-0.129	0.133
-192.217	264.139	0.116	0.198
-191.202	10.676	0.229	0.172
-190.187	9.460	-0.139	-0.103
-189.173	-90.785	-0.179	-0.051
-188.158	5.042	0.143	0.103
-187.144	-69.834	-0.275	0.103
-186.129	800.000	-0.032	0.121
-185.114	253.571	0.101	0.170
-184.100	38.876	-0.102	0.090
-183.085	-113.153	0.306	0.059
-182.071	-103.394	0.131	0.030
-181.056	545.120	-0.044	-0.102
-180.042	450.633	0.112	0.242
-179.027	18.779	0.125	-0.098
-178.012	-74.459	0.134	0.048
-176.998	517.926	0.090	0.208
-175.983	-200.000	-0.002	-0.166
-174.969	800.000	0.055	0.212
-173.954	-200.000	-0.014	0.240
-172.939	110.350	-0.093	0.109
-171.925	-200.000	0.027	0.342
-170.910	170.700	0.123	0.172
-169.896	-200.000	-0.017	0.145
-168.881	800.000	-0.136	-0.386
-167.866	-21.760	0.181	0.108
-166.852	54.879	-0.068	0.065
-165.837	-200.000	0.017	-0.191
-164.823	800.000	-0.098	0.328
-163.808	800.000	0.081	0.255
-162.793	370.113	-0.086	-0.172
-161.779	56.555	-0.055	0.052
-160.764	-102.181	0.099	0.023
-159.750	800.000	0.012	-0.042
-158.735	132.691	0.067	-0.085
-157.720	104.012	-0.082	-0.095
-156.706	-82.756	-0.315	0.100
-155.691	316.684	-0.147	0.272
-154.677	800.000	0.103	-0.315
-153.662	-58.847	0.214	0.091
-152.647	-200.000	-0.023	0.112
-151.633	800.000	0.044	-0.175
-150.618	-147.078	-0.252	-0.021
-149.604	19.257	0.146	0.115
-148.589	123.440	0.234	0.288
-147.574	-61.382	0.118	0.049
-146.560	163.116	-0.075	-0.103
-145.545	-96.080	-0.253	-0.066
-144.531	62.601	0.245	-0.240
-143.516	-200.000	-0.003	-0.068
-142.502	-130.615	-0.286	0.038
-141.487	-200.000	-0.002	0.112
-140.472	800.000	0.047	-0.195
-139.458	91.527	0.163	-0.179
-138.443	-6.434	-0.063	0.042
-137.429	86.837	0.195	0.211
-136.414	-102.913	0.316	0.073
-135.399	-74.367	0.212	-0.075
-134.385	38.729	0.241	0.210
-133.370	-149.865	-0.192	0.015
-132.356	-76.391	-0.176	-0.060
-131.341	800.000	-0.038	0.157
-130.326	0.500	0.253	0.177
-129.312	-20.141	0.379	0.229
-128.297	4.729	-0.080	-0.057
-127.283	800.000	0.135	-0.454
-126.268	-97.840	-0.218	0.055
-125.253	800.000	0.048	-0.130
-124.239	800.000	-0.067	-0.255
-123.224	-69.284	-0.174	0.065
-122.210	241.167	-0.121	-0.199
-121.195	-154.631	-0.018	-0.001
-120.180	-200.000	-0.055	-0.248
-119.166	-54.813	0.225	-0.099
-118.151	20.636	0.145	0.115
-117.137	-132.507	-0.178	-0.022
-116.122	7.163	0.151	-0.111
-115.107	177.178	-0.108	0.154
-114.093	-116.616	-0.364	0.066
-113.078	800.000	0.057	0.181
-112.064	276.549	-0.079	-0.137
-111.049	-114.952	0.361	-0.067
-110.034	57.493	-0.080	-0.076
-109.020	-199.463	0.342	-0.002
-108.005	64.589	-0.085	-0.084
-106.991	96.081	-0.227	0.254
-105.976	-130.249	0.118	-0.016
-104.962	-200.000	-0.031	-0.394
-103.947	169.632	-0.197	0.276
-102.932	110.594	-0.147	-0.173
-101.918	-40.952	0.411	-0.208
-100.903	654.291	0.096	0.240
-99.889	84.049	-0.187	-0.200
-98.874	287.831	-0.053	-0.093
-97.859	-113.137	0.231	0.044
-96.845	-59.439	-0.171	0.072
-95.830	-1.511	0.142	-0.098
-94.816	371.219	0.191	-0.379
-93.801	32.003	-0.387	-0.327
-92.786	-200.000	-0.072	-0.389
-91.772	-194.593	-0.507	-0.004
-90.757	800.000	0.095	0.344
-89.743	23.190	-0.153	0.123
-88.728	-200.000	-0.100	-0.629
-87.713	-121.296	0.313	0.051
-86.699	335.761	0.095	-0.180
-85.684	181.562	0.125	0.179
-84.670	5.467	0.170	0.122
-83.655	-24.819	0.636	-0.370
-82.640	-19.050	-0.293	0.178
-81.626	153.834	0.228	-0.306
-80.611	-200.000	-0.001	-0.192
-79.597	16.747	-0.438	-0.339
-78.582	-35.194	0.054	0.029
-77.567	800.000	-0.027	-0.109
-76.553	-138.981	-0.062	0.007
-75.538	-28.982	0.131	0.074
-74.524	-111.107	-0.257	0.052
-73.509	-200.000	-0.013	0.198
-72.494	-104.417	-0.301	-0.068
-71.480	263.365	-0.113	-0.193
-70.465	-0.833	0.121	-0.084
-69.451	-63.442	0.283	-0.114
-68.436	107.275	-0.196	0.227
-67.422	-200.000	0.027	-0.300
-66.407	135.800	-0.069	0.087
-65.392	463.714	-0.073	0.159
-64.378	800.000	0.032	0.134
-63.363	182.929	0.169	0.244
-62.349	800.000	-0.080	0.262
-61.334	563.908	-0.572	-1.352
-60.319	53.623	0.620	0.581
-59.305	-200.000	-0.150	-1.274
-58.290	128.664	0.843	1.050
-57.276	272.276	0.744	1.281
-56.261	-200.000	117.837	636.425
-55.246	476.193	1556.531	3435.325
-54.232	172.335	2734.932	3842.182
-53.217	98.097	2298.032	2583.647
-52.203	35.116	1902.840	1628.034
-51.188	29.135	1697.252	1406.561
-50.173	26.709	1656.228	1354.405
-49.159	46.529	1715.505	1554.392
-48.144	45.342	1728.610	1557.168
-47.130	28.672	1685.222	1392.857
-46.115	26.045	1670.930	1361.198
-45.100	25.909	1665.983	1356.091
-44.086	25.875	1663.305	1353.607
-43.071	25.886	1660.755	1351.557
-42.057	25.851	1658.257	1349.208
-41.042	25.894	1656.119	1347.739
-40.027	25.903	1654.284	1346.257
-39.013	25.854	1651.933	1343.929
-37.998	25.856	1650.848	1343.001
-36.984	25.860	1649.588	1341.955
-35.969	25.906	1648.348	1341.239
-34.954	25.996	1646.374	1340.245
-33.940	25.975	1644.740	1338.705
-32.925	26.060	1642.611	1337.554
-31.911	26.022	1641.448	1336.270
-30.896	25.950	1639.857	1334.389
-29.881	25.934	1638.170	1332.844
-28.867	26.043	1636.370	1332.133
-27.852	25.949	1635.565	1330.729
-26.838	25.937	1634.206	1329.484
-25.823	26.031	1632.209	1328.496
-24.809	26.067	1631.588	1328.207
-23.794	26.036	1629.877	1326.530
-22.779	26.031	1628.424	1325.259
-21.765	25.976	1626.976	1323.623
-20.750	25.989	1625.194	1322.220
-19.736	25.962	1623.985	1320.981
-18.721	26.040	1621.667	1319.614
-17.706	26.094	1620.304	1318.846
-16.692	26.039	1618.971	1317.307
-15.677	25.996	1618.007	1316.160
-14.663	25.986	1616.438	1314.759
-13.648	26.033	1615.049	1313.922
-12.633	26.040	1613.496	1312.657
-11.619	26.083	1611.628	1311.397
-10.604	26.181	1610.232	1310.919
-9.590	26.041	1608.884	1308.756
-8.575	26.081	1607.251	1307.662
-7.560	26.058	1606.440	1306.787
-6.546	26.041	1605.927	1306.189
-5.531	26.099	1603.951	1304.955
-4.517	26.018	1603.304	1303.790
-3.502	25.948	1602.284	1302.404
-2.487	26.088	1600.632	1302.018
-1.473	25.663	1588.510	1289.061
-0.458	22.830	1569.395	1253.418
0.556	21.325	1570.312	1221.667
1.571	18.978	1594.252	1223.501
2.586	18.476	1607.079	1229.638
3.600	16.755	1552.576	1175.887
4.615	10.657	1445.328	1055.044
5.629	5.087	1385.982	976.835
6.644	4.072	1379.113	965.583
7.659	4.111	1377.892	964.887
8.673	4.104	1376.952	964.099
9.688	4.172	1375.545	963.450
10.702	4.107	1372.294	960.685
11.717	6.652	1377.462	980.040
12.731	13.992	1390.556	1035.148
13.746	20.622	1401.488	1084.684
14.761	22.580	1403.290	1098.197
15.775	22.046	1401.425	1093.319
16.790	21.117	1399.407	1085.870
17.804	20.374	1397.334	1079.542
18.819	20.060	1396.024	1076.485
19.834	20.040	1395.568	1075.917
20.848	19.922	1394.426	1074.210
21.863	19.867	1392.804	1072.521
22.877	19.651	1392.215	1070.634
23.892	19.585	1391.191	1069.347
24.907	19.504	1389.791	1067.673
25.921	19.629	1388.677	1067.497
26.936	19.684	1387.985	1067.206
27.950	19.722	1386.873	1066.491
28.965	19.826	1386.646	1066.866
29.980	19.969	1385.371	1066.670
30.994	20.005	1384.446	1066.084
32.009	19.945	1383.422	1064.836
33.023	20.041	1382.248	1064.424
34.038	20.020	1380.614	1062.947
35.053	19.807	1379.671	1060.818
36.067	19.846	1378.510	1060.073
37.082	19.838	1377.441	1059.108
38.096	19.869	1376.888	1058.779
39.111	19.814	1376.762	1058.248
40.126	19.748	1374.765	1056.221
41.140	19.480	1373.568	1053.572
42.155	19.312	1373.380	1052.307
43.169	19.228	1373.289	1051.632
44.184	19.340	1372.504	1051.623
45.199	19.310	1372.199	1051.113
46.213	19.476	1371.824	1051.741
47.228	19.693	1371.000	1052.338
48.242	19.728	1370.679	1052.214
49.257	19.537	1369.264	1049.872
50.271	19.643	1367.329	1048.936
51.286	19.745	1366.190	1048.593
52.301	19.663	1364.547	1046.741
53.315	19.498	1363.506	1044.849
54.330	19.465	1362.245	1043.591
55.344	19.380	1361.291	1042.252
56.359	19.332	1360.348	1041.150
57.374	19.301	1359.351	1040.108
58.388	19.230	1358.516	1038.952
59.403	19.103	1358.475	1038.059
60.417	19.188	1357.496	1037.733
61.432	19.079	1356.175	1035.976
62.447	19.056	1355.341	1035.107
63.461	18.971	1353.906	1033.407
64.476	18.871	1353.311	1032.264
65.490	19.033	1351.230	1031.554
66.505	19.032	1350.074	1030.580
67.520	18.958	1349.190	1029.368
68.534	19.045	1347.818	1028.753
69.549	19.031	1347.024	1027.970
70.563	18.987	1345.779	1026.663
71.578	18.852	1344.403	1024.720
72.593	18.737	1344.119	1023.729
73.607	18.695	1343.406	1022.840
74.622	18.705	1342.695	1022.273
75.636	18.835	1341.980	1022.411
76.651	18.816	1341.010	1021.465
77.666	18.960	1340.583	1021.905
78.680	19.159	1340.063	1022.602
79.695	19.020	1340.257	1021.837
80.709	19.162	1339.023	1021.646
81.724	19.352	1337.732	1021.698
82.739	19.383	1337.328	1021.480
83.753	19.478	1337.372	1021.986
84.768	19.756	1336.067	1022.544
85.782	19.936	1334.991	1022.693
86.797	19.850	1333.868	1021.236
87.812	19.753	1332.353	1019.414
88.826	19.841	1331.215	1018.969
89.841	19.844	1330.419	1018.288
90.855	19.880	1329.595	1017.777
91.870	19.949	1328.962	1017.610
92.884	20.006	1327.934	1017.070
93.899	20.011	1327.147	1016.405
94.914	20.108	1326.184	1016.146
95.928	20.068	1325.564	1015.349
96.943	19.920	1324.643	1013.684
97.957	19.868	1323.923	1012.742
98.972	19.876	1322.503	1011.609
99.987	19.827	1322.034	1010.875
101.001	19.911	1321.015	1010.496
102.016	19.841	1319.732	1009.018
103.030	19.897	1319.351	1008.967
104.045	19.975	1317.745	1008.100
105.060	19.693	1316.476	1005.401
106.074	19.455	1314.542	1002.453
107.089	19.204	1312.836	999.607
108.103	18.949	1312.091	997.470
109.118	19.051	1310.703	996.922
110.133	19.023	1309.559	995.797
111.147	19.082	1308.121	994.958
112.162	19.166	1307.329	994.751
113.176	19.160	1305.828	993.487
114.191	19.275	1304.643	993.163
115.206	19.249	1303.890	992.350
116.220	19.109	1302.757	990.595
117.235	19.235	1301.103	989.974
118.249	19.118	1300.685	988.895
119.264	18.990	1299.309	987.027
120.279	18.900	1298.457	985.777
121.293	18.888	1296.917	984.454
122.308	18.749	1296.262	983.074
123.322	18.758	1294.793	981.923
124.337	18.645	1294.156	980.705
125.352	18.696	1292.567	979.707
126.366	18.772	1291.278	979.076
127.381	18.847	1290.248	978.634
128.395	18.722	1289.275	977.101
129.410	18.851	1288.551	977.201
130.424	18.906	1288.111	977.091
131.439	19.049	1287.432	977.301
132.454	19.099	1286.283	976.628
133.468	19.114	1285.789	976.251
134.483	19.138	1285.344	975.964
135.497	19.241	1283.742	975.242
136.512	19.207	1283.209	974.562
137.527	19.203	1281.824	973.397
138.541	19.360	1279.658	972.553
139.556	19.439	1278.898	972.336
140.570	19.508	1277.987	971.947
141.585	19.550	1277.511	971.736
142.600	19.708	1276.264	971.585
143.614	19.724	1275.673	971.143
144.629	19.775	1274.457	970.415
145.643	19.823	1273.425	969.814
146.658	19.591	1272.127	967.439
147.673	19.475	1270.553	965.509
148.687	19.341	1269.343	963.756
149.702	19.235	1267.688	961.818
150.716	19.176	1266.309	960.361
151.731	19.298	1265.073	960.017
152.746	19.275	1263.505	958.612
153.760	19.254	1263.343	958.292
154.775	19.423	1262.006	958.131
155.789	19.520	1260.952	957.786
156.804	19.537	1260.500	957.448
157.819	19.507	1259.624	956.535
158.833	19.776	1258.582	957.147
159.848	19.915	1257.772	957.217
160.862	19.794	1256.834	955.746
161.877	19.516	1255.160	952.856
162.892	19.201	1254.043	950.184
163.906	19.204	1252.999	949.325
164.921	19.302	1251.800	948.874
165.935	19.383	1251.474	948.990
166.950	19.428	1251.038	948.822
167.964	19.459	1250.027	948.144
168.979	19.390	1249.395	947.200
169.994	19.317	1248.386	945.952
171.008	19.432	1247.694	945.972
172.023	19.550	1247.096	946.083
173.037	19.713	1246.176	946.196
174.052	19.630	1245.853	945.409
175.067	19.347	1244.213	942.533
176.081	19.274	1242.851	941.019
177.096	19.253	1241.852	940.067
178.110	19.333	1241.191	939.919
179.125	19.352	1239.830	938.908
180.140	19.507	1238.648	938.776
181.154	19.525	1237.820	938.162
182.169	19.711	1236.861	938.359
183.183	19.744	1235.654	937.541
184.198	19.836	1234.639	937.189
185.213	19.803	1233.550	936.098
186.227	19.876	1232.472	935.595
187.242	20.059	1231.256	935.574
188.256	20.021	1230.804	934.941
189.271	20.039	1229.725	934.140
190.286	19.779	1228.470	931.699
191.300	19.428	1227.057	928.656
192.315	19.213	1226.293	926.843
193.329	19.328	1225.707	926.935
194.344	19.493	1225.112	927.287
195.359	19.406	1225.174	926.785
196.373	19.612	1224.210	927.083
197.388	19.686	1224.302	927.465
198.402	19.970	1223.868	928.577
199.417	20.103	1223.287	928.766
200.432	20.213	1222.997	929.056
201.446	20.268	1222.276	928.718
202.461	20.430	1221.118	928.627
203.475	20.371	1220.297	927.603
204.490	20.010	1219.240	924.789
205.504	19.903	1217.149	922.551
206.519	19.854	1216.307	921.568
207.534	19.808	1215.236	920.435
208.548	19.775	1214.052	919.280
209.563	19.775	1213.438	918.735
210.577	19.787	1212.411	917.938
211.592	19.938	1211.947	918.307
212.607	20.078	1211.056	918.294
213.621	20.100	1209.983	917.513
214.636	20.046	1209.227	916.575
215.650	20.073	1208.402	916.012
216.665	20.133	1208.044	915.975
217.680	20.379	1207.139	916.506
218.694	20.434	1206.003	915.850
219.709	20.361	1205.388	914.919
220.723	20.163	1204.509	913.127
221.738	20.371	1203.609	913.459
222.753	20.181	1202.390	911.457
223.767	20.225	1202.691	911.833
224.782	20.419	1201.556	911.914
225.796	20.566	1200.935	912.130
226.811	20.505	1200.221	911.191
227.826	20.345	1199.304	909.575
228.840	20.285	1198.663	908.692
229.855	20.125	1198.088	907.340
230.869	20.296	1196.811	907.185
231.884	20.034	1196.275	905.331
232.899	20.011	1194.921	904.107
233.913	19.948	1194.521	903.395
234.928	19.968	1193.613	902.731
235.942	19.702	1192.837	900.680
236.957	19.804	1192.054	900.541
237.972	19.944	1191.204	900.545
238.986	19.844	1190.533	899.439
240.001	19.868	1190.310	899.312
241.015	19.950	1188.987	898.662
242.030	19.966	1188.866	898.571
243.045	20.156	1187.557	898.487
244.059	20.152	1186.760	897.784
245.074	20.271	1185.885	897.661
246.088	20.363	1185.541	897.798
247.103	20.402	1185.244	897.692
248.117	20.559	1184.331	897.735
249.132	20.787	1183.904	898.506
250.147	20.934	1183.538	898.909
251.161	21.114	1182.569	899.018
252.176	21.108	1182.551	898.897
253.190	21.275	1181.366	898.776
254.205	21.276	1181.441	898.758
255.220	21.258	1180.541	897.903
256.234	21.277	1179.562	897.173
257.249	21.244	1178.908	896.428
258.263	21.182	1178.314	895.577
259.278	21.112	1177.989	894.895
260.293	21.255	1177.594	895.250
261.307	21.335	1176.658	894.866
262.322	21.458	1175.792	894.759
263.336	21.364	1175.336	893.851
264.351	21.404	1175.028	893.744
265.366	21.458	1174.399	893.462
266.380	21.374	1173.542	892.303
267.395	21.324	1172.354	891.065
268.409	21.210	1171.628	889.853
269.424	21.045	1171.547	888.873
270.439	21.180	1170.450	888.648
271.453	21.024	1169.487	887.042
272.468	20.945	1168.502	885.815
273.482	20.842	1167.525	884.475
274.497	20.841	1166.840	883.875
275.512	20.913	1166.242	883.706
276.526	20.936	1165.297	883.030
277.541	20.865	1164.664	882.112
278.555	21.049	1163.826	882.329
279.570	21.232	1163.648	883.042
280.585	21.466	1162.779	883.486
281.599	21.308	1161.952	881.980
282.614	21.088	1160.909	880.003
283.628	21.049	1159.273	878.488
284.643	21.125	1158.259	878.026
285.657	21.120	1157.718	877.511
286.672	20.985	1156.869	876.114
287.687	20.962	1156.216	875.423
288.701	21.140	1155.241	875.501
289.716	21.202	1154.296	875.020
290.730	21.106	1153.768	874.060
291.745	21.229	1153.113	874.103
292.760	21.247	1152.768	873.855
293.774	21.296	1152.362	873.716
294.789	21.403	1151.974	873.875
295.803	21.406	1151.046	873.109
296.818	21.172	1149.839	870.950
297.833	21.231	1149.152	870.650
298.847	21.177	1148.288	869.650
299.862	21.173	1147.502	868.954
300.876	21.261	1147.149	869.050
301.891	21.307	1146.417	868.647
302.906	21.396	1145.989	868.688
303.920	21.737	1145.298	869.778
304.935	21.629	1144.868	868.840
305.949	21.785	1144.187	869.020
306.964	21.762	1143.822	868.553
307.979	21.503	1143.139	866.672
308.993	21.543	1141.786	865.768
310.008	21.645	1141.239	865.782
311.022	21.690	1140.779	865.578
312.037	21.582	1140.119	864.468
313.052	21.429	1138.808	862.644
314.066	21.294	1137.481	860.897
315.081	21.156	1136.124	859.111
316.095	21.079	1135.565	858.235
317.110	21.103	1134.983	857.840
318.125	21.215	1134.092	857.637
319.139	21.083	1133.735	856.648
320.154	21.277	1132.880	856.875
321.168	21.167	1132.616	856.061
322.183	21.154	1131.901	855.379
323.197	21.246	1131.435	855.403
324.212	21.339	1130.450	855.039
325.227	21.404	1129.742	854.745
326.241	21.494	1129.180	854.681
327.256	21.360	1128.300	853.289
328.270	21.282	1127.274	852.054
329.285	21.175	1126.554	850.915
330.300	21.155	1125.859	850.216
331.314	21.294	1124.648	849.904
332.329	21.353	1123.822	849.492
333.343	21.270	1123.192	848.533
334.358	21.496	1122.522	849.051
335.373	21.583	1121.792	848.844
336.387	21.627	1120.562	848.052
337.402	21.546	1120.264	847.359
338.416	21.663	1119.512	847.281
339.431	21.806	1119.026	847.529
340.446	21.947	1118.793	847.961
341.460	22.052	1117.983	847.781
342.475	22.205	1117.373	847.978
343.489	22.238	1116.347	847.285
344.504	22.272	1115.634	846.831
345.519	22.167	1114.833	845.644
346.533	22.419	1113.879	846.057
347.548	22.243	1113.570	844.902
348.562	22.281	1112.381	844.106
349.577	22.144	1111.225	842.497
350.592	21.880	1110.182	840.369
351.606	21.657	1109.602	838.786
352.621	21.639	1108.743	837.979
353.635	21.676	1107.911	837.454
354.650	21.673	1107.251	836.862
355.665	21.806	1106.605	836.938
356.679	21.890	1106.284	837.019
357.694	21.872	1105.635	836.371
358.708	22.033	1105.276	836.795
359.723	22.064	1104.455	836.242
360.738	21.985	1103.898	835.374
361.752	21.951	1103.283	834.671
362.767	21.947	1102.378	833.896
363.781	22.044	1102.437	834.327
364.796	22.201	1101.950	834.630
365.810	22.295	1101.391	834.580
366.825	22.486	1101.153	835.229
367.840	22.669	1100.766	835.730
368.854	22.658	1100.000	835.020
369.869	22.568	1099.205	833.920
370.883	22.402	1098.438	832.475
371.898	22.413	1097.193	831.510
372.913	22.432	1096.463	830.973
373.927	22.563	1096.121	831.262
374.942	22.631	1095.464	831.009
375.956	22.536	1094.901	830.061
376.971	22.519	1094.268	829.427
377.986	22.600	1094.089	829.600
379.000	22.793	1093.483	829.976
380.015	22.850	1092.864	829.701
381.029	22.969	1092.114	829.616
382.044	22.863	1091.348	828.462
383.059	22.664	1090.701	826.963
384.073	22.650	1090.035	826.322
385.088	22.756	1089.232	826.135
386.102	22.719	1088.011	824.965
387.117	22.504	1086.831	822.990
388.132	22.357	1085.796	821.447
389.146	22.361	1084.876	820.697
390.161	22.289	1084.223	819.798
391.175	22.374	1083.554	819.614
392.190	22.482	1083.139	819.729
393.205	22.669	1082.531	820.065
394.219	22.544	1081.950	818.972
395.234	22.552	1080.540	817.870
396.248	22.493	1079.403	816.664
397.263	22.380	1078.309	815.243
398.278	22.312	1077.368	814.143
399.292	22.226	1076.659	813.138
400.307	22.168	1076.272	812.506
401.321	22.123	1075.433	811.591
402.336	22.077	1075.050	811.020
403.350	22.205	1074.047	810.779
404.365	22.289	1073.651	810.799
405.380	22.489	1072.671	810.904
406.394	22.446	1072.272	810.336
407.409	22.609	1071.663	810.554
408.423	22.778	1071.258	810.950
409.438	22.828	1070.286	810.374
410.453	22.918	1069.764	810.318
411.467	22.900	1069.066	809.637
412.482	23.078	1068.411	809.883
413.496	23.029	1068.129	809.372
414.511	23.178	1067.597	809.581
415.526	23.379	1067.022	809.993
416.540	23.409	1066.627	809.757
417.555	23.228	1066.025	808.402
418.569	23.151	1065.203	807.358
419.584	23.017	1064.976	806.503
420.599	23.162	1064.457	806.697
421.613	157.723	1405.528	1796.870
422.628	145.158	1455.201	1796.959
