DTS Sentinel unit serial number:	SN413079Multiplexer serial number:	ORYXHardware model number:	OX4-SRSoftware version number:	ORYX F/W v4.00 Oryx Data Collector v3.7.2.0data status	okinstallation	princeton_trtdifferential loss correction	single-endedforward channel	channel 2reverse channel	N/Adate	2019/09/13time	16:27:34forward acquisition time	60.00reverse acquisition time	0.00gamma	496.2192k internal	0.2314k external	0.2314temperature offset calibration	1.0215default loss term (dB/km)	0.3790temperature slope calibration	1.0000multiplexer offset coefficient	1.0000multiplexer slope coefficient	1.0000fibre end	0.00T internal ref (°C)	35.02T ext. ref 1 (°C)	4.87T ext. ref 2 (°C)	30.92length (m)	temperature (°C)	Stokes	anti-Stokes-747.200	-200.000	0.018	0.124
-746.185	115.946	0.070	0.087
-745.171	-60.597	0.287	0.123
-744.156	800.000	0.067	-0.222
-743.142	97.964	-0.103	-0.120
-742.127	-150.868	-0.156	0.012
-741.112	214.930	-0.062	0.100
-740.098	49.812	-0.378	0.362
-739.083	-200.000	0.007	0.191
-738.069	273.840	0.073	0.131
-737.054	-18.006	0.109	0.070
-736.039	121.214	-0.050	0.063
-735.025	-158.125	0.203	-0.012
-734.010	-200.000	-0.022	-0.147
-732.996	-76.585	-0.200	-0.071
-731.981	-60.070	-0.287	0.124
-730.966	7.439	-0.270	0.205
-729.952	431.950	-0.049	0.107
-728.937	-200.000	-0.040	-0.203
-727.923	63.067	0.022	-0.022
-726.908	-135.532	0.197	0.024
-725.894	244.701	0.151	-0.257
-724.879	597.677	0.133	-0.334
-723.864	227.715	0.168	-0.276
-722.850	-80.497	-0.283	-0.096
-721.835	-122.513	0.215	0.035
-720.821	-10.853	0.172	-0.115
-719.806	-200.000	-0.040	-0.284
-718.791	-200.000	-0.005	-0.139
-717.777	-121.380	-0.207	0.035
-716.762	-56.422	0.103	-0.046
-715.748	71.621	-0.159	-0.167
-714.733	-158.195	0.175	0.010
-713.718	-200.000	-0.082	0.373
-712.704	-200.000	0.036	0.319
-711.689	137.992	0.175	0.233
-710.675	277.316	-0.119	0.214
-709.660	65.118	-0.172	-0.176
-708.645	-85.763	0.376	0.118
-707.631	-129.583	-0.179	-0.025
-706.616	425.207	-0.123	0.268
-705.602	46.260	-0.218	-0.205
-704.587	56.623	-0.070	0.069
-703.572	-200.000	-0.015	0.096
-702.558	-75.395	-0.207	-0.075
-701.543	-121.295	0.372	-0.063
-700.529	800.000	0.053	-0.174
-699.514	800.000	0.038	0.166
-698.499	55.436	-0.136	-0.133
-697.485	-200.000	0.024	-0.171
-696.470	394.446	-0.044	-0.093
-695.456	-33.696	0.134	0.075
-694.441	700.432	0.037	-0.099
-693.426	-84.703	-0.432	-0.137
-692.412	-200.000	-0.046	-0.216
-691.397	-200.000	0.010	-0.391
-690.383	-95.926	0.178	0.048
-689.368	-89.880	0.120	-0.036
-688.354	-81.360	-0.225	0.075
-687.339	57.071	-0.111	0.110
-686.324	-87.269	-0.123	-0.038
-685.310	-108.624	-0.286	0.062
-684.295	709.135	0.023	0.060
-683.281	-19.200	-0.236	0.148
-682.266	618.862	-0.129	0.327
-681.251	-200.000	0.006	-0.273
-680.237	-113.394	0.226	0.045
-679.222	800.000	0.009	0.040
-678.208	-2.245	0.351	-0.249
-677.193	-6.947	-0.262	-0.180
-676.178	-46.175	0.480	0.239
-675.164	-4.983	-0.260	0.181
-674.149	-100.932	-0.059	0.015
-673.135	363.885	-0.210	-0.428
-672.120	171.869	-0.072	0.105
-671.105	3.137	0.250	0.184
-670.091	-102.939	-0.164	-0.039
-669.076	-200.000	0.003	0.305
-668.062	421.741	0.165	0.357
-667.047	-132.299	-0.238	0.031
-666.032	-72.729	-0.211	0.078
-665.018	800.000	0.044	0.167
-664.003	262.704	-0.035	0.061
-662.989	-77.070	-0.228	0.081
-661.974	60.128	0.163	-0.162
-660.959	800.000	-0.065	-0.222
-659.945	-45.686	-0.086	0.043
-658.930	-118.037	0.052	0.009
-657.916	-20.511	-0.381	-0.237
-656.901	442.937	-0.030	-0.066
-655.886	-200.000	-0.039	-0.361
-654.872	-200.000	-0.003	-0.050
-653.857	167.889	-0.282	-0.405
-652.843	698.833	-0.120	-0.318
-651.828	800.000	-0.044	0.179
-650.814	-50.801	0.313	-0.149
-649.799	20.780	-0.087	0.071
-648.784	-123.076	-0.369	-0.060
-647.770	758.622	-0.130	0.355
-646.755	-90.383	0.270	0.079
-645.741	-109.916	-0.099	0.021
-644.726	-124.208	-0.297	0.047
-643.711	104.165	0.058	-0.069
-642.697	706.595	-0.012	0.031
-641.682	800.000	-0.031	-0.122
-640.668	-156.398	0.016	0.001
-639.653	-200.000	-0.047	-0.300
-638.638	-83.132	0.071	0.023
-637.624	-65.561	-0.250	-0.101
-636.609	-200.000	-0.050	0.232
-635.595	-200.000	0.042	-0.197
-634.580	-84.368	-0.170	0.054
-633.565	-2.538	-0.209	-0.148
-632.551	-17.082	0.305	0.194
-631.536	-51.728	0.342	0.161
-630.522	310.151	-0.050	0.094
-629.507	-103.462	0.112	0.027
-628.492	-39.259	0.144	-0.076
-627.478	-200.000	0.123	-0.576
-626.463	114.695	-0.155	-0.190
-625.449	212.107	-0.125	-0.199
-624.434	13.864	-0.049	-0.038
-623.419	-13.728	-0.253	0.165
-622.405	-113.295	0.058	0.012
-621.390	-42.125	-0.163	-0.084
-620.376	385.535	0.088	0.182
-619.361	800.000	-0.065	0.209
-618.346	264.778	-0.300	-0.528
-617.332	-15.147	-0.158	-0.102
-616.317	800.000	0.022	0.082
-615.303	-200.000	0.005	0.275
-614.288	606.581	-0.022	0.056
-613.273	-144.272	0.233	0.022
-612.259	23.421	0.062	0.051
-611.244	32.162	-0.140	0.122
-610.230	298.132	-0.104	0.193
-609.215	-156.589	0.285	-0.018
-608.201	-121.924	-0.226	0.038
-607.186	-200.000	0.015	0.105
-606.171	220.605	0.168	-0.272
-605.157	73.814	-0.066	-0.069
-604.142	-71.430	0.191	-0.072
-603.128	82.455	0.129	-0.141
-602.113	-57.428	-0.306	0.136
-601.098	91.355	-0.066	-0.075
-600.084	147.288	0.110	0.150
-599.069	-7.843	-0.247	-0.168
-598.055	80.944	-0.135	0.147
-597.040	800.000	-0.039	-0.170
-596.025	-10.031	0.330	-0.221
-595.011	-141.808	-0.302	0.031
-593.996	-200.000	-0.014	0.115
-592.982	111.608	-0.160	0.194
-591.967	-200.000	-0.016	-0.166
-590.952	-65.918	-0.232	-0.093
-589.938	716.455	0.069	-0.184
-588.923	-136.898	-0.322	-0.037
-587.909	800.000	-0.043	-0.179
-586.894	27.582	-0.136	-0.116
-585.879	-100.359	0.226	-0.057
-584.865	-109.051	-0.185	0.040
-583.850	301.766	0.068	0.126
-582.836	661.771	-0.064	0.166
-581.821	250.261	-0.068	-0.117
-580.806	-200.000	-0.020	0.243
-579.792	-83.304	-0.238	-0.077
-578.777	232.964	0.216	-0.358
-577.763	-72.526	0.097	0.036
-576.748	800.000	0.026	0.087
-575.733	118.241	-0.223	-0.277
-574.719	-62.382	-0.070	-0.029
-573.704	-64.321	-0.487	-0.200
-572.690	-200.000	-0.005	-0.290
-571.675	-82.121	0.269	0.088
-570.661	-11.988	0.249	-0.164
-569.646	800.000	0.048	-0.145
-568.631	135.186	0.075	0.098
-567.617	364.689	0.107	-0.217
-566.602	-54.517	0.090	0.041
-565.588	12.607	-0.076	0.059
-564.573	190.560	-0.193	0.292
-563.558	23.360	0.284	0.235
-562.544	135.925	0.063	0.083
-561.529	-200.000	0.014	0.118
-560.515	-152.273	0.045	0.003
-559.500	-200.000	0.002	0.187
-558.485	79.244	-0.162	-0.175
-557.471	42.944	-0.164	-0.151
-556.456	-25.422	0.122	-0.073
-555.442	-200.000	-0.045	-0.313
-554.427	238.003	0.078	0.131
-553.412	451.905	0.036	0.081
-552.398	-168.201	0.079	0.003
-551.383	103.732	-0.214	-0.253
-550.369	-74.750	0.278	-0.100
-549.354	-200.000	-0.035	0.248
-548.339	-200.000	-0.003	-0.375
-547.325	-46.892	0.191	0.094
-546.310	75.236	-0.224	0.237
-545.296	-35.213	-0.208	0.114
-544.281	-103.551	0.078	0.019
-543.266	-118.234	-0.306	-0.055
-542.252	800.000	0.077	0.241
-541.237	210.247	0.223	0.351
-540.223	-37.369	0.198	0.106
-539.208	-20.067	-0.120	0.074
-538.193	-200.000	0.050	0.332
-537.179	112.765	0.079	0.096
-536.164	800.000	-0.091	0.399
-535.150	-1.905	-0.060	0.043
-534.135	-200.000	-0.052	-0.258
-533.121	33.340	-0.273	0.238
-532.106	-200.000	0.021	0.094
-531.091	800.000	-0.080	0.241
-530.077	491.833	-0.034	0.078
-529.062	-7.377	0.031	0.021
-528.048	21.689	-0.039	0.032
-527.033	34.645	-0.209	0.184
-526.018	23.072	0.211	0.174
-525.004	-200.000	-0.027	-0.119
-523.989	125.060	0.203	-0.257
-522.975	-71.496	0.088	-0.033
-521.960	-200.000	0.007	-0.082
-520.945	800.000	-0.055	-0.215
-519.931	-61.385	-0.338	-0.143
-518.916	314.015	0.091	0.173
-517.902	-200.000	-0.013	0.067
-516.887	172.192	0.135	0.195
-515.872	-93.957	0.375	0.103
-514.858	-74.246	0.267	0.097
-513.843	800.000	-0.071	-0.227
-512.829	800.000	-0.115	-0.447
-511.814	-50.219	-0.205	0.098
-510.799	-118.272	-0.083	0.015
-509.785	-200.000	0.046	-0.309
-508.770	-25.698	0.092	0.055
-507.756	-15.527	0.046	0.030
-506.741	-164.430	0.145	0.007
-505.726	-10.559	0.184	-0.122
-504.712	-69.088	0.149	0.058
-503.697	246.613	0.139	-0.235
-502.683	-2.013	-0.163	0.115
-501.668	-200.000	-0.006	0.069
-500.653	-161.753	0.290	-0.015
-499.639	-122.252	-0.179	0.029
-498.624	-143.727	-0.337	-0.032
-497.610	-33.977	-0.173	0.096
-496.595	-200.000	-0.002	0.295
-495.581	-200.000	0.041	-0.267
-494.566	-46.061	0.285	0.141
-493.551	-88.814	0.176	0.052
-492.537	-55.461	-0.427	-0.192
-491.522	-200.000	0.179	0.001
-490.508	-70.785	-0.050	0.019
-489.493	111.367	-0.092	0.112
-488.478	8.753	0.184	-0.140
-487.464	-37.006	-0.088	0.047
-486.449	-200.000	0.077	0.360
-485.435	303.809	-0.085	0.159
-484.420	-33.606	-0.182	0.101
-483.405	179.386	-0.158	-0.232
-482.391	52.396	-0.147	-0.141
-481.376	-123.072	0.238	0.038
-480.362	-200.000	0.049	0.226
-479.347	-32.244	0.229	-0.129
-478.332	-40.944	-0.118	-0.061
-477.318	800.000	0.106	-0.372
-476.303	173.709	0.174	0.253
-475.289	247.526	0.155	0.262
-474.274	-22.834	-0.292	0.177
-473.259	-200.000	-0.033	0.392
-472.245	800.000	0.053	-0.214
-471.230	78.427	-0.180	0.193
-470.216	286.539	0.162	0.293
-469.201	131.724	0.153	-0.197
-468.186	-200.000	0.010	-0.084
-467.172	-50.842	-0.152	0.072
-466.157	-26.810	0.141	-0.083
-465.143	33.022	-0.225	0.196
-464.128	800.000	-0.135	-0.453
-463.113	34.314	0.037	0.032
-462.099	-141.247	-0.065	0.007
-461.084	14.440	0.376	-0.294
-460.070	-200.000	0.050	-0.232
-459.055	85.253	0.075	-0.083
-458.040	-43.297	-0.141	0.072
-457.026	-146.737	0.179	0.016
-456.011	107.288	-0.168	-0.201
-454.997	199.164	-0.202	-0.310
-453.982	800.000	0.078	-0.277
-452.968	2.121	0.133	-0.096
-451.953	252.420	0.154	0.262
-450.938	-200.000	0.004	-0.060
-449.924	-61.469	-0.113	-0.048
-448.909	640.139	0.151	0.384
-447.895	239.223	0.296	-0.494
-446.880	-60.027	0.146	-0.062
-445.865	-34.037	0.061	0.034
-444.851	-25.501	0.247	0.146
-443.836	-79.742	0.247	0.083
-442.822	-200.000	-0.036	-0.168
-441.807	-5.692	0.349	-0.240
-440.792	167.362	-0.173	-0.246
-439.778	-148.597	0.475	0.039
-438.763	-200.000	0.356	0.002
-437.749	-35.487	-0.375	-0.204
-436.734	-200.000	0.005	0.035
-435.719	-200.000	-0.026	-0.155
-434.705	-163.181	-0.280	0.013
-433.690	800.000	-0.108	-0.318
-432.676	-200.000	0.013	-0.087
-431.661	380.009	0.115	0.236
-430.646	-65.288	-0.150	0.061
-429.632	492.362	-0.041	-0.093
-428.617	-79.542	-0.118	-0.040
-427.603	148.125	0.122	0.165
-426.588	72.707	0.078	0.082
-425.573	-154.135	0.203	0.014
-424.559	403.349	0.074	0.157
-423.544	216.190	-0.133	0.211
-422.530	-38.707	0.223	0.118
-421.515	-186.213	-0.223	0.003
-420.500	-200.000	0.039	0.286
-419.486	67.800	-0.171	-0.175
-418.471	-58.991	0.188	0.081
-417.457	-37.230	0.221	-0.118
-416.442	-18.612	-0.058	-0.036
-415.428	3.483	-0.039	0.028
-414.413	-200.000	-0.018	-0.229
-413.398	57.825	-0.336	-0.330
-412.384	800.000	0.033	-0.127
-411.369	70.352	-0.121	-0.125
-410.355	-90.106	-0.271	0.079
-409.340	800.000	-0.015	0.042
-408.325	99.530	0.192	-0.222
-407.311	-200.000	-0.044	-0.239
-406.296	-15.802	-0.311	-0.198
-405.282	-92.214	-0.214	0.060
-404.267	-145.308	0.401	-0.036
-403.252	-163.561	0.335	-0.016
-402.238	-87.723	0.157	-0.047
-401.223	94.307	-0.336	0.382
-400.209	-90.877	-0.343	0.099
-399.194	800.000	0.075	-0.207
-398.179	-111.771	-0.108	-0.022
-397.165	424.320	-0.024	0.052
-396.150	-200.000	-0.033	0.164
-395.136	-151.381	-0.185	0.014
-394.121	-35.947	-0.130	0.070
-393.106	269.055	-0.214	-0.376
-392.092	40.237	-0.080	0.072
-391.077	800.000	-0.080	0.337
-390.063	170.402	0.049	0.071
-389.048	-81.918	-0.209	0.068
-388.033	47.931	-0.149	0.139
-387.019	-102.692	-0.049	0.012
-386.004	122.218	-0.095	0.118
-384.990	-129.547	-0.292	-0.040
-383.975	129.331	0.179	0.228
-382.960	-137.998	-0.132	-0.015
-381.946	40.532	-0.210	-0.189
-380.931	-176.095	0.208	0.005
-379.917	-49.063	-0.210	0.100
-378.902	219.502	0.058	-0.092
-377.888	16.233	0.090	0.071
-376.873	-128.516	0.340	-0.048
-375.858	52.607	0.223	0.213
-374.844	50.265	-0.099	0.093
-373.829	-54.202	0.270	0.123
-372.815	-57.287	0.117	-0.052
-371.800	-37.310	-0.093	0.050
-370.785	662.769	0.166	-0.428
-369.771	-200.000	0.030	-0.384
-368.756	-200.000	-0.018	-0.107
-367.742	103.957	0.283	-0.332
-366.727	-95.560	0.104	0.028
-365.712	-200.000	-0.027	-0.494
-364.698	299.391	0.111	-0.204
-363.683	178.506	-0.156	-0.227
-362.669	152.664	0.109	-0.149
-361.654	-111.760	-0.333	-0.067
-360.639	800.000	-0.027	0.085
-359.625	-128.488	0.154	0.022
-358.610	-200.000	-0.020	-0.130
-357.596	153.018	-0.059	-0.081
-356.581	193.949	-0.051	0.077
-355.566	-10.338	0.189	0.125
-354.552	276.773	0.236	0.418
-353.537	-85.854	-0.266	-0.082
-352.523	800.000	-0.028	0.098
-351.508	-66.038	0.142	0.057
-350.493	-200.000	-0.029	0.131
-349.479	56.390	0.207	0.201
-348.464	800.000	-0.065	-0.190
-347.450	-37.273	0.170	-0.091
-346.435	36.956	0.147	0.130
-345.420	-200.000	0.032	0.357
-344.406	440.066	0.061	-0.133
-343.391	-104.728	-0.050	-0.011
-342.377	800.000	0.049	-0.165
-341.362	-105.043	-0.328	0.075
-340.348	-73.116	0.316	0.116
-339.333	182.354	0.051	0.074
-338.318	800.000	-0.103	0.402
-337.304	173.026	0.061	0.087
-336.289	-63.781	0.080	-0.033
-335.275	-30.187	-0.190	-0.108
-334.260	-106.182	-0.263	0.059
-333.245	-163.739	-0.364	-0.017
-332.231	-94.363	0.093	-0.025
-331.216	206.077	-0.155	0.241
-330.202	-102.629	-0.193	-0.046
-329.187	42.794	0.127	-0.115
-328.172	63.969	0.197	0.197
-327.158	259.908	0.069	0.119
-326.143	-107.426	0.203	0.044
-325.129	800.000	-0.094	0.334
-324.114	52.728	-0.096	0.091
-323.099	-200.000	-0.026	0.217
-322.085	577.691	0.027	-0.066
-321.070	-200.000	-0.038	-0.313
-320.056	-75.715	0.334	-0.118
-319.041	204.410	-0.074	0.115
-318.026	241.196	-0.021	0.035
-317.012	525.838	0.088	-0.206
-315.997	-200.000	0.006	0.346
-314.983	231.636	0.135	0.220
-313.968	-22.672	-0.253	0.152
-312.953	800.000	0.051	0.196
-311.939	-132.466	0.229	0.029
-310.924	-142.277	0.364	0.036
-309.910	327.122	0.078	-0.149
-308.895	-200.000	-0.015	-0.251
-307.880	-200.000	-0.024	-0.110
-306.866	139.469	-0.104	-0.137
-305.851	122.113	-0.109	-0.135
-304.837	-181.952	-0.085	0.002
-303.822	303.104	-0.218	-0.403
-302.807	-17.511	0.090	-0.057
-301.793	-200.000	-0.031	0.247
-300.778	103.887	-0.063	-0.073
-299.764	-86.862	-0.094	0.029
-298.749	364.219	-0.152	-0.305
-297.735	-200.000	0.007	-0.081
-296.720	-160.165	0.330	-0.018
-295.705	800.000	-0.087	0.257
-294.691	-200.000	0.050	0.295
-293.676	50.074	0.082	0.077
-292.662	96.331	0.143	-0.162
-291.647	-90.338	-0.261	-0.075
-290.632	-200.000	0.024	-0.262
-289.618	-156.366	-0.550	-0.034
-288.603	430.173	-0.090	0.194
-287.589	-6.977	0.259	-0.175
-286.574	-65.212	0.060	-0.024
-285.559	-195.779	0.437	-0.003
-284.545	-18.489	-0.134	0.084
-283.530	22.030	-0.074	-0.060
-282.516	10.959	0.187	-0.142
-281.501	-106.414	0.242	-0.054
-280.486	-16.397	0.362	0.228
-279.472	-86.362	0.171	0.052
-278.457	-200.000	-0.062	-0.303
-277.443	-63.663	-0.037	0.015
-276.428	-74.742	0.167	-0.060
-275.413	-200.000	-0.008	-0.043
-274.399	-112.911	-0.122	0.024
-273.384	-86.591	-0.163	-0.050
-272.370	800.000	0.042	-0.129
-271.355	-61.792	0.212	-0.088
-270.340	-41.129	-0.026	0.013
-269.326	-6.082	0.341	-0.232
-268.311	232.403	-0.191	0.313
-267.297	213.943	-0.096	0.152
-266.282	199.634	-0.075	0.115
-265.267	425.607	0.129	0.277
-264.253	800.000	-0.028	0.083
-263.238	-112.023	-0.150	-0.030
-262.224	-1.479	-0.076	0.053
-261.209	-21.434	-0.137	-0.083
-260.195	-39.324	0.263	0.137
-259.180	-46.839	-0.167	0.081
-258.165	-51.609	-0.150	-0.070
-257.151	-134.763	-0.352	0.043
-256.136	-200.000	-0.012	0.222
-255.122	170.077	-0.193	0.275
-254.107	695.509	0.075	-0.196
-253.092	89.521	0.252	-0.280
-252.078	-72.845	0.302	-0.111
-251.063	448.988	-0.129	-0.283
-250.049	319.417	0.091	-0.172
-249.034	-87.742	0.101	-0.030
-248.019	-118.839	0.066	0.012
-247.005	-155.511	0.173	0.011
-245.990	612.900	0.045	0.112
-244.976	-121.599	-0.231	-0.038
-243.961	-106.595	-0.175	0.039
-242.946	340.677	0.138	-0.267
-241.932	-44.342	0.141	-0.070
-240.917	-97.001	0.183	-0.048
-239.903	-200.000	0.068	-0.371
-238.888	299.658	0.076	0.138
-237.873	9.767	0.323	0.243
-236.859	176.001	0.167	0.241
-235.844	24.374	0.141	0.116
-234.830	148.188	-0.127	0.171
-233.815	44.377	-0.178	0.163
-232.800	536.333	0.098	-0.231
-231.786	800.000	0.091	0.278
-230.771	-1.303	-0.279	0.195
-229.757	177.487	-0.181	0.263
-228.742	-98.633	-0.396	0.100
-227.727	158.413	0.069	-0.094
-226.713	-61.220	0.303	0.127
-225.698	-114.047	0.263	0.051
-224.684	-200.000	-0.055	-0.344
-223.669	1.134	-0.128	0.091
-222.655	-46.449	0.435	0.212
-221.640	242.475	-0.099	-0.164
-220.625	-200.000	0.038	-0.472
-219.611	186.882	-0.079	-0.117
-218.596	-200.000	0.001	-0.209
-217.582	-5.160	-0.155	-0.106
-216.567	-81.072	0.327	0.108
-215.552	-163.748	-0.096	-0.004
-214.538	800.000	-0.044	-0.130
-213.523	39.483	-0.147	0.131
-212.509	-73.278	0.170	-0.062
-211.494	-23.674	-0.200	0.119
-210.479	-135.697	0.275	-0.032
-209.465	324.793	-0.034	-0.065
-208.450	73.190	-0.096	0.100
-207.436	800.000	-0.053	0.201
-206.421	-200.000	0.021	-0.131
-205.406	-200.000	0.002	-0.195
-204.392	138.767	-0.078	-0.102
-203.377	328.374	-0.142	0.271
-202.363	63.326	-0.100	0.100
-201.348	375.788	-0.075	-0.152
-200.333	-200.000	0.048	0.303
-199.319	372.467	-0.127	0.255
-198.304	60.848	-0.172	0.169
-197.290	-200.000	0.016	0.191
-196.275	-200.000	-0.076	0.345
-195.260	-27.387	-0.259	0.149
-194.246	800.000	0.044	0.138
-193.231	-200.000	-0.009	0.079
-192.217	222.898	0.095	0.151
-191.202	75.330	0.070	-0.073
-190.187	-200.000	-0.040	-0.213
-189.173	800.000	0.028	0.086
-188.158	-200.000	-0.060	0.417
-187.144	-146.105	-0.015	0.001
-186.129	243.533	0.137	-0.228
-185.114	66.254	-0.119	0.120
-184.100	-37.918	-0.158	-0.083
-183.085	-104.472	-0.413	-0.095
-182.071	-38.046	0.255	-0.134
-181.056	-181.556	0.352	0.007
-180.042	-200.000	-0.012	0.301
-179.027	800.000	0.036	0.129
-178.012	-74.123	-0.255	-0.092
-176.998	-112.277	-0.265	0.053
-175.983	1.866	0.230	0.164
-174.969	72.307	0.139	-0.144
-173.954	29.164	0.155	-0.131
-172.939	-200.000	0.027	-0.166
-171.925	-74.867	0.171	-0.061
-170.910	131.228	0.103	-0.131
-169.896	-200.000	0.026	0.164
-168.881	800.000	-0.044	-0.148
-167.866	335.104	-0.085	-0.163
-166.852	75.957	-0.154	-0.162
-165.837	-143.584	0.319	0.030
-164.823	40.536	0.089	0.079
-163.808	-122.011	-0.201	-0.033
-162.793	-56.786	0.115	0.050
-161.779	201.209	0.161	-0.245
-160.764	-200.000	-0.066	-0.389
-159.750	-55.967	-0.115	0.051
-158.735	-60.773	0.284	0.119
-157.720	-100.245	-0.228	0.056
-156.706	-20.544	-0.261	-0.159
-155.691	343.598	0.288	0.559
-154.677	-134.091	0.206	0.025
-153.662	-13.547	-0.167	0.107
-152.647	800.000	0.053	0.193
-151.633	-118.383	-0.354	0.062
-150.618	800.000	0.081	0.317
-149.604	800.000	-0.019	0.061
-148.589	48.105	0.120	-0.112
-147.574	-10.468	0.005	0.003
-146.560	250.804	-0.095	-0.160
-145.545	-200.000	-0.001	0.078
-144.531	-76.915	-0.253	0.088
-143.516	-200.000	0.054	-0.350
-142.502	-77.950	0.226	-0.077
-141.487	8.248	-0.281	0.209
-140.472	449.389	-0.147	0.321
-139.458	132.496	0.299	-0.382
-138.443	56.183	-0.227	-0.218
-137.429	-92.667	0.083	0.023
-136.414	391.276	0.085	-0.175
-135.399	-10.221	0.232	-0.152
-134.385	317.178	-0.158	0.296
-133.370	295.694	0.207	-0.375
-132.356	-121.737	-0.131	0.021
-131.341	-101.001	-0.350	0.085
-130.326	338.930	0.077	0.149
-129.312	-200.000	0.019	0.173
-128.297	-106.088	-0.355	0.079
-127.283	10.742	-0.153	0.116
-126.268	-22.528	0.151	0.090
-125.253	-62.366	0.190	0.078
-124.239	70.013	-0.077	0.078
-123.224	-104.034	-0.064	0.015
-122.210	-93.780	-0.114	0.031
-121.195	-66.363	0.238	-0.094
-120.180	-186.504	0.376	0.005
-119.166	33.308	0.115	0.099
-118.151	96.313	-0.132	-0.150
-117.137	-165.239	0.102	0.004
-116.122	-86.932	0.415	0.125
-115.107	-130.481	-0.340	0.046
-114.093	-159.042	-0.124	0.007
-113.078	-78.188	-0.108	0.037
-112.064	800.000	-0.117	-0.420
-111.049	-3.533	-0.147	0.101
-110.034	-108.411	0.112	-0.024
-109.020	43.280	-0.109	-0.098
-108.005	-125.175	0.235	-0.036
-106.991	-135.355	-0.236	0.028
-105.976	800.000	-0.043	-0.126
-104.962	138.231	0.136	-0.177
-103.947	-42.694	0.061	0.031
-102.932	-200.000	-0.038	-0.250
-101.918	-200.000	-0.051	-0.237
-100.903	-164.901	-0.288	-0.013
-99.889	14.980	0.308	-0.238
-98.874	-159.710	-0.250	-0.014
-97.859	-99.074	0.371	0.093
-96.845	41.617	-0.254	0.227
-95.830	-173.583	0.171	-0.005
-94.816	542.192	-0.120	-0.282
-93.801	800.000	-0.073	-0.215
-92.786	800.000	0.074	-0.246
-91.772	59.442	0.194	-0.189
-90.757	10.573	-0.083	0.063
-89.743	-67.813	-0.099	0.038
-88.728	-99.224	-0.109	-0.027
-87.713	-200.000	-0.015	-0.158
-86.699	-7.039	0.181	-0.121
-85.684	800.000	-0.080	0.252
-84.670	-70.856	-0.147	0.055
-83.655	189.395	0.165	0.245
-82.640	48.035	-0.182	-0.168
-81.626	588.915	0.062	-0.152
-80.611	-200.000	0.281	-0.000
-79.597	-59.929	0.231	-0.097
-78.582	-47.102	0.209	0.101
-77.567	276.568	-0.085	-0.148
-76.553	482.140	0.114	0.257
-75.538	-160.299	0.386	0.021
-74.524	-200.000	-0.026	-0.490
-73.509	48.001	-0.240	-0.222
-72.494	24.219	0.321	-0.262
-71.480	-107.324	0.095	-0.021
-70.465	-67.875	0.305	0.118
-69.451	8.092	0.187	-0.139
-68.436	-116.066	0.232	0.043
-67.422	800.000	-0.075	0.312
-66.407	-0.867	-0.208	-0.145
-65.392	129.595	-0.098	-0.123
-64.378	372.959	-0.037	0.074
-63.363	800.000	-0.015	0.056
-62.349	352.915	-0.118	0.231
-61.334	126.247	-0.917	-1.145
-60.319	-97.888	0.165	0.042
-59.305	-200.000	-0.104	-0.734
-58.290	54.529	0.798	0.759
-57.276	800.000	0.604	1.663
-56.261	-200.000	93.959	560.001
-55.246	649.726	1377.610	3479.754
-54.232	187.887	2603.308	3837.153
-53.217	117.709	2310.596	2807.138
-52.203	44.812	1923.678	1746.813
-51.188	38.378	1709.857	1503.344
-50.173	35.455	1664.765	1441.727
-49.159	52.042	1712.152	1609.439
-48.144	55.643	1730.567	1654.100
-47.130	38.051	1686.337	1479.956
-46.115	35.022	1671.315	1443.903
-45.100	34.926	1666.675	1439.116
-44.086	34.894	1664.005	1436.515
-43.071	34.909	1661.438	1434.353
-42.057	34.811	1658.915	1431.386
-41.042	34.899	1656.924	1430.268
-40.027	34.849	1655.292	1428.431
-39.013	34.952	1652.809	1426.999
-37.998	34.854	1651.513	1425.087
-36.984	34.965	1650.581	1425.057
-35.969	35.033	1648.680	1423.866
-34.954	35.060	1647.317	1422.828
-33.940	35.025	1645.158	1420.652
-32.925	35.054	1643.219	1419.137
-31.911	35.073	1641.542	1417.775
-30.896	34.991	1639.887	1415.677
-29.881	34.965	1638.151	1413.931
-28.867	34.924	1636.614	1412.245
-27.852	35.013	1635.118	1411.556
-26.838	35.063	1633.287	1410.286
-25.823	35.097	1631.814	1409.211
-24.809	35.037	1631.109	1408.101
-23.794	35.090	1629.318	1406.895
-22.779	35.052	1627.995	1405.412
-21.765	34.988	1626.369	1403.484
-20.750	35.058	1624.253	1402.117
-19.736	35.141	1622.682	1401.315
-18.721	35.065	1621.761	1399.903
-17.706	35.034	1620.316	1398.376
-16.692	34.974	1618.069	1395.947
-15.677	34.995	1616.972	1395.099
-14.663	34.999	1615.991	1394.223
-13.648	35.060	1614.337	1393.184
-12.633	35.021	1613.063	1391.742
-11.619	34.991	1611.585	1390.194
-10.604	35.025	1609.828	1388.875
-9.590	35.110	1607.909	1387.780
-8.575	35.031	1607.142	1386.487
-7.560	34.945	1605.750	1384.611
-6.546	35.077	1604.359	1384.312
-5.531	35.020	1603.349	1382.972
-4.517	35.063	1602.509	1382.504
-3.502	35.069	1601.304	1381.453
-2.487	35.051	1599.586	1379.784
-1.473	34.940	1588.375	1369.267
-0.458	32.107	1569.260	1332.665
0.556	30.591	1567.956	1294.934
1.571	27.344	1591.204	1291.027
2.586	26.169	1603.546	1292.522
3.600	22.835	1549.811	1225.984
4.615	14.102	1439.479	1082.029
5.629	6.318	1373.742	984.017
6.644	4.852	1364.691	968.340
7.659	4.806	1363.433	967.079
8.673	4.873	1362.856	966.999
9.688	4.968	1361.047	966.220
10.702	4.919	1358.480	964.010
11.717	8.630	1365.470	991.918
12.731	16.949	1380.873	1054.973
13.746	22.335	1389.114	1094.786
14.761	22.712	1388.056	1096.197
15.775	21.824	1385.850	1088.846
16.790	20.692	1383.661	1080.008
17.804	19.937	1380.972	1073.136
18.819	19.569	1380.177	1070.143
19.834	19.360	1378.626	1067.551
20.848	19.241	1377.737	1066.032
21.863	19.160	1376.229	1064.267
22.877	18.894	1375.572	1062.022
23.892	18.891	1374.575	1061.144
24.907	18.913	1373.258	1060.166
25.921	18.810	1372.799	1059.083
26.936	18.944	1371.419	1058.749
27.950	18.955	1371.041	1058.430
28.965	19.073	1369.992	1058.252
29.980	19.226	1368.674	1058.086
30.994	19.221	1367.690	1057.196
32.009	19.366	1366.491	1057.064
33.023	19.303	1365.180	1055.576
34.038	19.123	1364.088	1053.532
35.053	19.095	1362.648	1052.155
36.067	19.102	1361.768	1051.427
37.082	19.139	1360.773	1050.790
38.096	19.149	1359.894	1050.080
39.111	19.170	1359.193	1049.575
40.126	19.056	1357.919	1047.804
41.140	18.855	1356.987	1045.770
42.155	18.639	1356.460	1043.955
43.169	18.615	1356.135	1043.468
44.184	18.570	1355.898	1042.919
45.199	18.653	1355.130	1042.740
46.213	18.808	1354.808	1043.340
47.228	18.973	1354.577	1044.073
48.242	19.084	1352.747	1043.245
49.257	19.003	1351.533	1041.724
50.271	19.009	1350.105	1040.568
51.286	19.075	1348.954	1039.989
52.301	19.014	1347.513	1038.418
53.315	18.864	1346.848	1036.907
54.330	18.807	1345.592	1035.508
55.344	18.840	1343.874	1034.289
56.359	18.758	1342.925	1032.973
57.374	18.700	1342.310	1032.059
58.388	18.694	1341.245	1031.119
59.403	18.648	1340.828	1030.431
60.417	18.603	1339.902	1029.353
61.432	18.551	1339.213	1028.423
62.447	18.542	1338.206	1027.506
63.461	18.426	1337.015	1025.807
64.476	18.482	1335.858	1025.159
65.490	18.466	1334.484	1023.924
66.505	18.560	1332.702	1023.022
67.520	18.433	1332.328	1021.892
68.534	18.553	1331.013	1021.504
69.549	18.514	1329.676	1020.156
70.563	18.464	1328.420	1018.805
71.578	18.346	1327.649	1017.423
72.593	18.276	1326.908	1016.349
73.607	18.240	1326.247	1015.538
74.622	18.321	1325.319	1015.219
75.636	18.304	1324.718	1014.568
76.651	18.348	1323.976	1014.172
77.666	18.479	1323.369	1014.393
78.680	18.379	1323.623	1013.902
79.695	18.460	1322.474	1013.412
80.709	18.541	1321.766	1013.262
81.724	18.685	1321.255	1013.631
82.739	18.738	1320.415	1013.206
83.753	18.932	1319.552	1013.599
84.768	19.124	1318.544	1013.867
85.782	19.201	1317.739	1013.612
86.797	19.111	1316.588	1012.109
87.812	18.980	1314.920	1009.964
88.826	19.067	1313.978	1009.666
89.841	19.042	1312.890	1008.592
90.855	19.061	1312.323	1008.178
91.870	19.194	1310.972	1007.828
92.884	19.177	1310.472	1007.255
93.899	19.246	1309.848	1007.088
94.914	19.286	1309.073	1006.642
95.928	19.268	1308.434	1005.954
96.943	19.384	1306.764	1005.260
97.957	19.082	1306.606	1003.286
98.972	19.174	1305.039	1002.529
99.987	19.144	1304.027	1001.490
101.001	19.110	1303.517	1000.812
102.016	19.168	1302.231	1000.072
103.030	19.036	1301.742	998.841
104.045	19.092	1301.348	998.778
105.060	18.933	1299.621	996.441
106.074	18.829	1297.691	994.269
107.089	18.519	1296.449	991.437
108.103	18.479	1295.171	990.141
109.118	18.511	1293.712	989.123
110.133	18.544	1292.025	987.937
111.147	18.613	1290.820	987.326
112.162	18.728	1289.743	987.079
113.176	18.710	1288.758	986.130
114.191	18.746	1288.001	985.670
115.206	18.643	1286.989	984.218
116.220	18.610	1285.361	982.698
117.235	18.641	1284.161	981.869
118.249	18.529	1283.544	980.672
119.264	18.536	1282.162	979.568
120.279	18.583	1281.007	978.872
121.293	18.447	1280.098	977.313
122.308	18.354	1279.086	975.923
123.322	18.398	1277.884	975.167
124.337	18.351	1276.869	974.041
125.352	18.369	1276.039	973.422
126.366	18.383	1274.526	972.263
127.381	18.361	1273.694	971.418
128.395	18.378	1272.929	970.847
129.410	18.372	1272.100	970.091
130.424	18.495	1271.312	970.102
131.439	18.561	1270.123	969.482
132.454	18.666	1269.205	969.290
133.468	18.608	1268.847	968.603
134.483	18.664	1268.001	968.185
135.497	18.597	1267.224	967.131
136.512	18.730	1265.510	966.487
137.527	18.693	1264.871	965.702
138.541	18.761	1262.936	964.522
139.556	18.879	1261.663	964.128
140.570	18.876	1261.153	963.634
141.585	19.095	1259.628	963.612
142.600	19.011	1258.662	962.314
143.614	19.211	1257.831	962.716
144.629	19.204	1256.577	961.628
145.643	19.191	1255.605	960.732
146.658	19.097	1254.546	959.312
147.673	18.979	1253.105	957.464
148.687	18.689	1252.027	954.947
149.702	18.701	1250.429	953.709
150.716	18.712	1248.819	952.456
151.731	18.836	1247.587	952.120
152.746	18.680	1246.491	950.338
153.760	18.756	1245.400	949.837
154.775	18.880	1244.841	950.018
155.789	19.054	1243.511	949.875
156.804	18.923	1242.791	948.520
157.819	19.028	1241.568	948.081
158.833	19.126	1240.920	948.043
159.848	19.297	1239.812	948.052
160.862	19.216	1239.236	947.085
161.877	18.938	1237.502	944.148
162.892	18.822	1236.543	942.694
163.906	18.801	1235.621	941.796
164.921	18.822	1234.605	941.054
165.935	18.933	1233.730	940.910
166.950	18.908	1233.482	940.499
167.964	19.143	1232.050	940.609
168.979	18.824	1232.130	938.842
169.994	18.903	1231.143	938.442
171.008	18.889	1230.423	937.732
172.023	19.004	1230.034	937.981
173.037	19.157	1229.279	938.155
174.052	19.006	1228.381	936.566
175.067	18.893	1226.780	934.644
176.081	18.735	1225.886	933.024
177.096	18.906	1224.653	932.933
178.110	18.773	1224.000	931.631
179.125	18.914	1222.588	931.236
180.140	18.943	1221.646	930.596
181.154	18.946	1220.695	929.802
182.169	19.124	1219.523	929.790
183.183	19.192	1218.571	929.349
184.198	19.315	1217.269	928.935
185.213	19.219	1216.210	927.531
186.227	19.340	1215.094	927.245
187.242	19.319	1214.631	926.697
188.256	19.446	1213.712	926.595
189.271	19.338	1212.392	924.928
190.286	19.190	1211.237	923.174
191.300	18.895	1210.016	920.580
192.315	18.776	1209.209	919.246
193.329	18.881	1208.694	919.336
194.344	18.976	1207.766	919.058
195.359	19.024	1207.328	918.897
196.373	19.016	1207.064	918.576
197.388	19.132	1206.572	918.736
198.402	19.338	1206.469	919.678
199.417	19.465	1205.971	919.893
200.432	19.573	1205.181	919.786
201.446	19.610	1204.718	919.548
202.461	19.713	1204.029	919.485
203.475	19.642	1202.805	918.093
204.490	19.497	1201.080	915.926
205.504	19.378	1199.763	914.212
206.519	19.350	1198.574	913.073
207.534	19.221	1197.505	911.496
208.548	19.272	1196.583	910.982
209.563	19.402	1195.666	910.893
210.577	19.357	1194.736	909.864
211.592	19.433	1193.837	909.502
212.607	19.575	1193.247	909.721
213.621	19.629	1192.772	909.560
214.636	19.494	1191.859	908.073
215.650	19.549	1190.504	907.252
216.665	19.725	1189.483	907.314
217.680	19.760	1189.330	907.305
218.694	19.769	1188.300	906.486
219.709	19.868	1187.243	906.117
220.723	19.709	1186.841	904.895
221.738	19.760	1185.648	904.172
222.753	19.783	1184.907	903.651
223.767	19.746	1184.204	902.840
224.782	19.848	1183.891	903.053
225.796	20.031	1183.315	903.491
226.811	19.841	1182.820	902.039
227.826	19.709	1181.931	900.597
228.840	19.732	1180.831	899.796
229.855	19.768	1180.195	899.418
230.869	19.703	1179.561	898.521
231.884	19.573	1178.654	897.074
232.899	19.587	1177.958	896.536
233.913	19.551	1176.768	895.363
234.928	19.494	1175.946	894.365
235.942	19.390	1175.362	893.304
236.957	19.406	1174.747	892.839
237.972	19.480	1173.912	892.508
238.986	19.453	1173.553	892.019
240.001	19.541	1172.477	891.576
241.015	19.536	1171.665	890.851
242.030	19.656	1170.974	890.869
243.045	19.774	1170.109	890.737
244.059	19.664	1169.719	889.797
245.074	19.796	1168.640	889.573
246.088	19.824	1168.135	889.258
247.103	19.887	1167.345	888.898
248.117	20.074	1166.696	889.285
249.132	20.220	1166.036	889.452
250.147	20.261	1165.802	889.405
251.161	20.422	1165.026	889.559
252.176	20.476	1164.225	889.145
253.190	20.576	1163.853	889.294
254.205	20.646	1163.471	889.280
255.220	20.649	1162.717	888.642
256.234	20.607	1161.938	887.754
257.249	20.492	1161.344	886.636
258.263	20.528	1160.602	886.175
259.278	20.439	1159.899	885.106
260.293	20.636	1159.588	885.792
261.307	20.640	1158.713	885.069
262.322	20.766	1158.123	885.177
263.336	20.785	1157.432	884.671
264.351	20.598	1157.255	883.507
265.366	20.743	1156.401	883.511
266.380	20.720	1155.734	882.804
267.395	20.697	1154.608	881.750
268.409	20.540	1153.717	880.197
269.424	20.596	1152.955	879.821
270.439	20.640	1152.226	879.412
271.453	20.560	1151.549	878.413
272.468	20.381	1150.886	876.925
273.482	20.439	1149.792	876.305
274.497	20.546	1149.242	876.349
275.512	20.420	1148.716	875.235
276.526	20.453	1148.025	874.796
277.541	20.443	1147.361	874.165
278.555	20.589	1146.368	874.066
279.570	20.636	1146.253	874.137
280.585	20.768	1145.597	874.220
281.599	20.819	1144.352	873.448
282.614	20.641	1143.113	871.536
283.628	20.515	1142.506	870.365
284.643	20.654	1140.965	869.807
285.657	20.601	1140.449	869.071
286.672	20.491	1139.920	868.043
287.687	20.752	1138.564	868.236
288.701	20.607	1138.137	867.111
289.716	20.725	1137.074	866.813
290.730	20.694	1136.476	866.123
291.745	20.569	1136.122	865.155
292.760	20.720	1135.277	865.185
293.774	20.846	1134.681	865.281
294.789	20.858	1134.491	865.120
295.803	20.898	1133.389	864.401
296.818	20.764	1132.607	863.063
297.833	20.659	1131.727	861.799
298.847	20.681	1131.202	861.431
299.862	20.722	1130.465	860.998
300.876	20.825	1129.518	860.705
301.891	20.790	1129.345	860.323
302.906	20.958	1128.723	860.605
303.920	21.105	1128.058	860.749
304.935	21.132	1127.560	860.425
305.949	21.297	1126.701	860.505
306.964	21.199	1126.141	859.517
307.979	21.063	1125.665	858.411
308.993	21.016	1124.939	857.550
310.008	21.161	1123.712	857.252
311.022	21.247	1123.255	857.248
312.037	21.186	1122.659	856.417
313.052	21.065	1121.099	854.561
314.066	20.862	1120.201	852.805
315.081	20.764	1119.302	851.566
316.095	20.695	1118.812	850.779
317.110	20.881	1117.300	850.466
318.125	20.875	1116.959	850.102
319.139	20.783	1116.406	849.155
320.154	20.816	1115.585	848.617
321.168	20.766	1115.086	847.919
322.183	20.767	1114.508	847.411
323.197	20.827	1113.917	847.179
324.212	20.866	1113.078	846.651
325.227	20.942	1112.811	846.745
326.241	20.908	1112.289	846.107
327.256	20.925	1111.342	845.396
328.270	20.853	1110.223	844.120
329.285	20.935	1109.600	843.967
330.300	20.852	1108.684	842.797
331.314	20.810	1107.643	841.728
332.329	20.937	1106.662	841.518
333.343	20.954	1106.031	841.048
334.358	21.208	1105.218	841.581
335.373	21.314	1104.520	841.483
336.387	21.341	1103.626	840.859
337.402	21.202	1103.232	839.815
338.416	21.292	1102.413	839.548
339.431	21.412	1102.216	839.903
340.446	21.595	1101.139	839.886
341.460	21.653	1100.788	839.822
342.475	21.569	1100.329	838.996
343.489	21.615	1099.398	838.428
344.504	21.732	1098.224	838.021
345.519	21.771	1097.476	837.563
346.533	21.921	1096.680	837.594
347.548	21.835	1096.217	836.755
348.562	21.714	1095.441	835.512
349.577	21.538	1094.364	833.779
350.592	21.558	1093.054	832.802
351.606	21.369	1092.474	831.390
352.621	21.352	1091.772	830.699
353.635	21.431	1090.603	830.114
354.650	21.405	1090.429	829.786
355.665	21.409	1089.949	829.366
356.679	21.395	1089.121	828.593
357.694	21.494	1088.715	828.681
358.708	21.569	1088.084	828.482
359.723	21.489	1087.724	827.756
360.738	21.559	1086.643	827.191
361.752	21.500	1086.322	826.597
362.767	21.598	1085.641	826.466
363.781	21.578	1085.465	826.165
364.796	21.872	1084.790	826.966
365.810	21.811	1083.948	825.961
366.825	21.959	1083.674	826.375
367.840	22.027	1083.031	826.134
368.854	22.133	1082.883	826.444
369.869	22.121	1081.908	825.573
370.883	21.935	1081.285	824.152
371.898	21.942	1080.188	823.277
372.913	21.961	1079.447	822.724
373.927	22.110	1078.778	822.843
374.942	22.064	1078.536	822.368
375.956	22.078	1077.681	821.711
376.971	22.074	1077.327	821.346
377.986	22.040	1076.876	820.773
379.000	22.266	1075.983	821.073
380.015	22.208	1075.971	820.722
381.029	22.250	1075.134	820.206
382.044	22.322	1074.324	819.850
383.059	22.154	1073.683	818.508
384.073	22.172	1073.156	818.118
385.088	22.280	1072.054	817.707
386.102	22.324	1070.630	816.751
387.117	22.109	1069.751	815.010
388.132	22.102	1068.956	814.300
389.146	22.048	1068.035	813.279
390.161	21.877	1067.365	811.903
391.175	21.999	1066.565	811.786
392.190	22.118	1066.486	812.208
393.205	22.267	1065.447	812.031
394.219	22.262	1064.617	811.306
395.234	22.230	1063.651	810.347
396.248	22.104	1062.427	808.764
397.263	22.023	1061.499	807.616
398.278	22.011	1060.943	807.064
399.292	21.882	1060.247	805.869
400.307	21.761	1059.454	804.643
401.321	21.897	1059.222	805.020
402.336	21.876	1058.243	804.106
403.350	21.845	1057.550	803.368
404.365	21.917	1057.128	803.307
405.380	22.040	1056.205	803.096
406.394	22.188	1055.147	802.898
407.409	22.252	1054.831	802.878
408.423	22.323	1054.631	802.978
409.438	22.458	1053.705	802.818
410.453	22.476	1053.244	802.477
411.467	22.596	1051.986	801.992
412.482	22.555	1051.520	801.380
413.496	22.604	1051.259	801.334
414.511	22.753	1050.301	801.207
415.526	22.723	1050.289	800.994
416.540	22.880	1049.761	801.228
417.555	22.747	1049.551	800.396
418.569	22.610	1048.663	799.027
419.584	22.692	1047.762	798.641
420.599	22.747	1047.388	798.536
421.613	154.440	1400.380	1789.393
422.628	141.607	1451.801	1789.509
