DTS Sentinel unit serial number:	SN413079Multiplexer serial number:	ORYXHardware model number:	OX4-SRSoftware version number:	ORYX F/W v4.00 Oryx Data Collector v3.7.2.0data status	okinstallation	princeton_trtdifferential loss correction	single-endedforward channel	channel 2reverse channel	N/Adate	2019/09/13time	06:07:34forward acquisition time	60.00reverse acquisition time	0.00gamma	496.2192k internal	0.2337k external	0.2337temperature offset calibration	1.0193default loss term (dB/km)	0.3790temperature slope calibration	1.0000multiplexer offset coefficient	1.0000multiplexer slope coefficient	1.0000fibre end	0.00T internal ref (°C)	26.12T ext. ref 1 (°C)	4.09T ext. ref 2 (°C)	20.90length (m)	temperature (°C)	Stokes	anti-Stokes-747.200	-37.463	-0.205	-0.110
-746.185	177.460	0.059	0.086
-745.171	273.320	0.189	-0.334
-744.156	-75.775	-0.136	-0.048
-743.142	-127.174	-0.203	-0.030
-742.127	210.108	-0.105	0.166
-741.112	-79.121	0.069	-0.024
-740.098	780.837	-0.066	0.182
-739.083	-160.627	-0.102	0.005
-738.069	28.792	-0.245	0.209
-737.054	-22.856	0.061	-0.037
-736.039	241.537	-0.130	0.219
-735.025	96.642	0.171	-0.197
-734.010	-72.800	0.167	-0.062
-732.996	-111.898	-0.388	-0.079
-731.981	-89.157	-0.257	0.076
-730.966	-31.835	-0.138	-0.078
-729.952	-189.479	-0.494	0.006
-728.937	-200.000	-0.003	0.192
-727.923	800.000	0.068	-0.253
-726.908	-84.749	0.210	-0.066
-725.894	800.000	0.072	-0.310
-724.879	-200.000	0.013	0.163
-723.864	-31.185	0.206	-0.116
-722.850	-111.225	0.227	-0.046
-721.835	36.838	-0.221	-0.196
-720.821	5.940	-0.255	-0.189
-719.806	206.408	-0.062	-0.096
-718.791	-200.000	0.027	0.250
-717.777	-175.231	-0.194	-0.005
-716.762	-65.285	-0.260	0.105
-715.748	92.889	0.097	0.110
-714.733	-66.568	-0.203	0.081
-713.718	-129.180	0.476	-0.067
-712.704	135.774	-0.198	0.259
-711.689	-200.000	0.005	-0.081
-710.675	2.582	-0.056	0.041
-709.660	-128.444	-0.298	0.042
-708.645	-52.751	0.126	0.058
-707.631	-200.000	-0.021	0.196
-706.616	707.808	0.080	0.213
-705.602	800.000	-0.017	0.069
-704.587	-111.528	-0.109	-0.022
-703.572	31.994	-0.166	-0.144
-702.558	-200.000	-0.016	-0.175
-701.543	-200.000	0.023	-0.293
-700.529	181.237	0.123	-0.181
-699.514	-200.000	-0.016	0.251
-698.499	1.990	0.074	0.053
-697.485	371.499	-0.017	-0.035
-696.470	-58.413	0.161	0.070
-695.456	100.611	0.046	-0.053
-694.441	99.915	0.125	0.145
-693.426	-107.098	-0.238	-0.053
-692.412	78.052	-0.236	0.253
-691.397	-24.969	-0.355	-0.211
-690.383	12.131	-0.234	-0.181
-689.368	694.981	-0.140	0.367
-688.354	800.000	-0.070	-0.288
-687.339	-29.641	-0.157	-0.090
-686.324	-13.008	0.217	-0.141
-685.310	-168.207	0.226	-0.009
-684.295	-163.106	-0.207	-0.010
-683.281	-52.336	-0.046	0.021
-682.266	485.412	0.117	-0.267
-681.251	800.000	-0.063	0.225
-680.237	137.746	0.194	0.254
-679.222	-200.000	-0.006	0.041
-678.208	-200.000	0.008	-0.138
-677.193	-200.000	-0.014	-0.190
-676.178	90.271	-0.246	-0.276
-675.164	201.657	-0.203	0.314
-674.149	716.895	-0.075	0.200
-673.135	114.772	-0.179	0.219
-672.120	-37.193	-0.144	-0.077
-671.105	66.747	0.072	0.073
-670.091	104.451	0.229	0.270
-669.076	-111.936	-0.556	0.112
-668.062	-200.000	-0.012	0.056
-667.047	-200.000	0.021	-0.213
-666.032	-94.290	-0.284	-0.078
-665.018	587.288	-0.060	0.147
-664.003	-67.094	0.303	-0.120
-662.989	-200.000	-0.041	0.332
-661.974	-200.000	0.006	0.242
-660.959	-98.426	0.294	-0.075
-659.945	-200.000	-0.028	0.358
-658.930	590.378	0.090	0.222
-657.916	-200.000	0.026	-0.538
-656.901	-200.000	0.035	-0.301
-655.886	676.818	0.057	-0.148
-654.872	14.621	-0.247	-0.193
-653.857	800.000	0.157	0.496
-652.843	-1.092	-0.270	0.191
-651.828	-200.000	-0.072	0.321
-650.814	253.626	0.145	-0.247
-649.799	-138.095	-0.206	0.023
-648.784	-30.548	-0.106	-0.060
-647.770	-200.000	0.005	-0.077
-646.755	-36.495	0.077	0.042
-645.741	800.000	-0.006	-0.025
-644.726	149.040	-0.124	0.168
-643.711	754.807	-0.039	-0.106
-642.697	85.147	0.007	-0.007
-641.682	407.592	-0.089	-0.189
-640.668	-59.215	0.207	0.089
-639.653	800.000	0.034	-0.131
-638.638	331.179	-0.045	0.087
-637.624	93.532	-0.064	0.073
-636.609	-68.882	0.196	0.075
-635.595	344.219	-0.021	0.040
-634.580	230.372	-0.144	-0.235
-633.565	-59.182	0.176	-0.076
-632.551	250.152	0.218	0.370
-631.536	272.103	0.051	0.089
-630.522	-131.755	0.261	-0.034
-629.507	224.371	0.217	-0.350
-628.492	288.934	-0.126	-0.229
-627.478	317.804	-0.040	0.076
-626.463	-136.825	0.199	-0.023
-625.449	223.316	0.148	-0.239
-624.434	576.451	-0.086	-0.210
-623.419	-94.833	0.291	0.079
-622.405	-65.140	-0.458	0.184
-621.390	55.091	-0.104	-0.100
-620.376	68.209	-0.076	0.078
-619.361	164.594	0.172	-0.242
-618.346	499.251	0.201	0.464
-617.332	-200.000	-0.050	0.262
-616.317	368.018	0.221	0.445
-615.303	-200.000	-0.025	-0.235
-614.288	-17.981	0.221	-0.138
-613.273	3.705	-0.180	0.131
-612.259	-200.000	0.005	0.317
-611.244	-140.633	0.350	-0.036
-610.230	-136.885	-0.235	0.027
-609.215	38.572	-0.236	-0.210
-608.201	-173.934	-0.216	0.006
-607.186	-26.927	0.262	0.153
-606.171	-200.000	-0.005	0.080
-605.157	149.621	-0.151	0.204
-604.142	-159.808	-0.238	-0.013
-603.128	-81.315	-0.260	-0.086
-602.113	83.778	-0.118	0.128
-601.098	-166.749	0.285	-0.012
-600.084	33.775	0.238	-0.207
-599.069	-48.331	0.255	0.123
-598.055	32.152	-0.119	0.102
-597.040	4.091	-0.350	0.256
-596.025	-200.000	0.009	-0.064
-595.011	-200.000	0.005	-0.224
-593.996	5.112	0.098	0.072
-592.982	-131.010	-0.216	-0.029
-591.967	-118.056	-0.132	0.024
-590.952	-54.763	-0.231	-0.104
-589.938	-125.399	-0.167	-0.025
-588.923	467.822	-0.073	0.164
-587.909	-161.657	0.299	0.015
-586.894	-124.183	0.165	0.026
-585.879	60.307	0.168	-0.166
-584.865	-136.391	-0.341	0.040
-583.850	55.826	-0.172	0.167
-582.836	-200.000	0.030	0.222
-581.821	-46.350	0.166	0.081
-580.806	74.425	-0.141	-0.147
-579.792	-170.505	0.307	0.011
-578.777	800.000	-0.095	-0.365
-577.763	-159.035	-0.061	-0.003
-576.748	245.069	-0.038	-0.063
-575.733	350.079	-0.037	0.073
-574.719	16.332	-0.147	-0.116
-573.704	-6.200	-0.157	-0.107
-572.690	-11.425	0.222	0.146
-571.675	641.964	0.102	-0.258
-570.661	77.586	-0.161	-0.171
-569.646	28.065	0.106	-0.089
-568.631	-78.477	-0.118	-0.040
-567.617	-125.425	-0.223	-0.034
-566.602	-123.346	-0.045	-0.007
-565.588	40.886	0.136	0.122
-564.573	137.103	-0.119	-0.155
-563.558	800.000	0.028	0.120
-562.544	-58.303	0.289	-0.125
-561.529	800.000	0.018	0.073
-560.515	-43.393	0.180	0.091
-559.500	800.000	0.112	0.396
-558.485	-117.661	-0.275	-0.049
-557.471	-153.904	-0.068	-0.005
-556.456	4.753	-0.134	-0.098
-555.442	-58.987	0.214	0.092
-554.427	-121.053	-0.230	0.038
-553.412	800.000	0.113	0.375
-552.398	-200.000	-0.018	0.141
-551.383	-10.233	-0.287	-0.190
-550.369	-53.173	0.329	0.150
-549.354	-200.000	-0.033	-0.203
-548.339	-88.637	0.294	0.087
-547.325	-140.910	-0.093	-0.010
-546.310	-114.972	0.286	0.054
-545.296	-106.476	-0.195	-0.043
-544.281	-200.000	0.017	0.179
-543.266	800.000	-0.049	0.152
-542.252	49.998	-0.177	-0.167
-541.237	-93.058	0.376	-0.104
-540.223	27.067	0.166	-0.139
-539.208	800.000	-0.132	-0.395
-538.193	111.783	0.310	-0.373
-537.179	227.681	-0.376	0.609
-536.164	165.517	-0.132	-0.185
-535.150	-153.166	0.117	0.008
-534.135	-61.910	0.249	0.104
-533.121	174.921	0.082	0.118
-532.106	-39.527	0.174	-0.091
-531.091	-141.254	0.190	0.019
-530.077	-38.381	-0.191	-0.100
-529.062	464.802	0.080	-0.179
-528.048	-200.000	-0.010	0.199
-527.033	414.888	0.150	0.317
-526.018	-146.736	-0.268	-0.023
-525.004	463.357	-0.098	-0.219
-523.989	211.513	0.178	-0.279
-522.975	-69.121	0.160	-0.061
-521.960	642.556	0.106	0.269
-520.945	330.514	0.012	0.023
-519.931	-179.965	0.319	0.007
-518.916	135.440	0.396	0.513
-517.902	-200.000	-0.027	-0.128
-516.887	-121.821	-0.094	-0.015
-515.872	228.160	-0.132	0.214
-514.858	800.000	0.027	0.109
-513.843	-37.828	-0.339	-0.179
-512.829	-200.000	0.034	-0.336
-511.814	-97.644	-0.175	0.045
-510.799	-9.603	-0.374	-0.248
-509.785	-90.858	-0.104	0.030
-508.770	-48.534	0.150	-0.072
-507.756	-49.114	-0.274	-0.131
-506.741	800.000	-0.093	-0.263
-505.726	-92.201	0.134	-0.038
-504.712	46.288	-0.189	-0.174
-503.697	43.522	-0.252	-0.229
-502.683	-28.827	0.195	0.111
-501.668	-164.983	0.325	-0.014
-500.653	662.201	0.043	0.110
-499.639	173.613	-0.245	0.352
-498.624	-139.432	-0.184	0.020
-497.610	583.874	0.060	0.147
-496.595	-134.440	-0.070	-0.008
-495.581	-20.545	0.402	0.245
-494.566	-163.655	-0.307	-0.014
-493.551	5.072	-0.153	0.112
-492.537	21.513	0.241	-0.194
-491.522	-200.000	-0.019	0.221
-490.508	-200.000	-0.005	-0.299
-489.493	-78.643	-0.311	0.106
-488.478	-138.643	-0.333	-0.036
-487.464	46.934	0.057	-0.052
-486.449	68.824	-0.330	-0.336
-485.435	-72.613	-0.182	0.067
-484.420	577.891	-0.120	-0.292
-483.405	183.264	-0.148	-0.217
-482.391	64.755	-0.122	-0.123
-481.376	148.887	-0.242	0.326
-480.362	161.959	-0.263	-0.366
-479.347	-151.666	0.020	0.001
-478.332	-200.000	0.022	-0.255
-477.318	-32.234	0.302	-0.167
-476.303	-101.694	0.152	-0.037
-475.289	-83.585	-0.064	0.020
-474.274	177.235	0.099	-0.144
-473.259	-94.129	0.186	0.051
-472.245	154.155	0.194	-0.264
-471.230	-141.316	-0.088	0.009
-470.216	54.218	-0.154	-0.147
-469.201	102.430	-0.061	-0.071
-468.186	800.000	-0.115	-0.426
-467.172	-94.971	-0.125	-0.034
-466.157	800.000	0.087	-0.352
-465.143	384.716	-0.095	0.194
-464.128	-81.703	0.380	-0.124
-463.113	-117.141	0.503	0.091
-462.099	-22.602	0.100	0.060
-461.084	800.000	-0.066	-0.185
-460.070	240.221	0.116	0.192
-459.055	-200.000	-0.030	0.460
-458.040	-114.762	-0.261	-0.049
-457.026	-32.174	-0.311	0.173
-456.011	-169.381	0.321	0.012
-454.997	-156.376	0.133	0.008
-453.982	561.081	0.102	0.244
-452.968	-61.031	0.288	0.121
-451.953	266.090	0.119	0.206
-450.938	-71.054	-0.166	0.062
-449.924	253.535	0.142	0.240
-448.909	-200.000	0.031	0.194
-447.895	-7.490	0.175	0.117
-446.880	-93.857	0.189	0.052
-445.865	246.039	0.275	-0.460
-444.851	694.688	0.048	0.126
-443.836	-200.000	0.035	0.303
-442.822	-200.000	0.009	-0.305
-441.807	800.000	-0.065	-0.236
-440.792	-43.470	0.166	-0.083
-439.778	-124.256	0.245	-0.038
-438.763	-43.900	-0.204	-0.102
-437.749	17.733	-0.225	-0.178
-436.734	-28.176	0.309	0.177
-435.719	-9.911	-0.288	0.190
-434.705	29.656	-0.224	-0.189
-433.690	53.276	0.068	0.065
-432.676	-71.033	-0.050	-0.019
-431.661	-200.000	0.016	0.434
-430.646	146.883	0.155	-0.207
-429.632	279.168	0.075	0.133
-428.617	-83.563	-0.178	0.056
-427.603	-200.000	0.008	0.186
-426.588	-200.000	0.032	0.151
-425.573	-112.079	0.245	-0.049
-424.559	-69.220	0.167	-0.064
-423.544	600.223	-0.106	-0.262
-422.530	66.247	0.157	-0.158
-421.515	-35.691	0.185	0.099
-420.500	800.000	0.095	0.299
-419.486	-200.000	0.025	-0.138
-418.471	88.326	0.099	-0.109
-417.457	-200.000	-0.004	0.227
-416.442	-200.000	-0.034	-0.189
-415.428	21.180	-0.101	-0.081
-414.413	-58.400	-0.133	0.057
-413.398	-200.000	-0.006	0.122
-412.384	673.812	0.123	0.317
-411.369	-200.000	0.023	0.403
-410.355	491.746	0.095	-0.214
-409.340	-200.000	0.079	0.639
-408.325	800.000	-0.028	-0.117
-407.311	-132.781	-0.368	-0.047
-406.296	-14.020	-0.155	0.099
-405.282	62.546	0.229	-0.226
-404.267	-54.174	-0.333	0.150
-403.252	-200.000	0.024	-0.153
-402.238	-67.780	0.326	0.126
-401.223	800.000	0.034	-0.127
-400.209	234.046	0.031	0.050
-399.194	376.198	-0.170	-0.344
-398.179	-108.217	0.308	0.066
-397.165	-166.923	-0.186	0.008
-396.150	153.182	-0.031	-0.042
-395.136	32.970	0.058	-0.050
-394.121	-47.958	-0.056	-0.027
-393.106	-134.569	0.302	0.036
-392.092	-148.607	0.132	0.011
-391.077	281.463	-0.153	0.271
-390.063	-101.637	0.522	0.125
-389.048	-86.435	-0.363	0.110
-388.033	-104.620	-0.237	0.054
-387.019	800.000	-0.129	-0.359
-386.004	205.204	-0.210	-0.323
-384.990	-73.812	0.173	-0.062
-383.975	99.495	-0.281	0.322
-382.960	62.514	-0.198	-0.196
-381.946	-163.851	0.222	-0.010
-380.931	340.613	0.101	-0.196
-379.917	800.000	0.030	-0.115
-378.902	216.602	-0.043	-0.067
-377.888	-161.885	0.193	-0.010
-376.873	-92.844	-0.317	0.088
-375.858	-114.499	0.380	-0.072
-374.844	238.617	0.124	-0.204
-373.829	-119.514	0.122	0.021
-372.815	-30.040	0.095	-0.053
-371.800	45.979	-0.143	-0.131
-370.785	-103.260	0.297	-0.069
-369.771	-98.362	-0.055	0.014
-368.756	50.935	0.062	0.058
-367.742	182.127	0.096	-0.140
-366.727	-148.575	-0.059	0.005
-365.712	132.904	-0.111	-0.142
-364.698	-103.356	-0.208	-0.049
-363.683	90.868	-0.280	0.310
-362.669	800.000	-0.042	-0.153
-361.654	-85.541	-0.148	-0.045
-360.639	-55.378	0.301	0.133
-359.625	93.830	-0.145	0.163
-358.610	11.400	-0.304	-0.230
-357.596	-200.000	-0.007	0.227
-356.581	-200.000	-0.010	-0.101
-355.566	-200.000	0.012	-0.077
-354.552	738.476	-0.077	0.203
-353.537	-138.305	0.469	-0.051
-352.523	-200.000	0.022	0.183
-351.508	170.861	0.229	0.324
-350.493	-26.277	0.292	0.169
-349.479	30.069	-0.251	0.212
-348.464	-200.000	-0.005	-0.224
-347.450	238.462	-0.149	-0.244
-346.435	47.067	0.263	0.242
-345.420	-112.304	-0.268	0.053
-344.406	7.461	0.145	-0.107
-343.391	103.377	0.033	-0.038
-342.377	213.255	-0.127	0.198
-341.362	-200.000	-0.074	-0.388
-340.348	-200.000	0.026	-0.157
-339.333	-164.658	0.187	-0.008
-338.318	185.884	-0.261	0.383
-337.304	-24.804	-0.311	-0.183
-336.289	467.154	-0.104	-0.231
-335.275	159.022	0.125	0.172
-334.260	-68.354	-0.114	0.044
-333.245	528.658	0.076	-0.178
-332.231	96.280	-0.178	0.201
-331.216	8.871	0.352	0.262
-330.202	-180.920	0.246	-0.005
-329.187	582.077	-0.074	-0.179
-328.172	-56.461	-0.093	-0.041
-327.158	306.341	0.108	-0.199
-326.143	-113.509	-0.157	-0.030
-325.129	-127.840	-0.193	-0.027
-324.114	-64.708	-0.053	-0.021
-323.099	-138.705	-0.264	-0.029
-322.085	101.014	0.035	0.040
-321.070	-16.037	0.157	0.098
-320.056	231.249	0.259	0.419
-319.041	494.991	0.055	-0.125
-318.026	487.577	-0.123	0.277
-317.012	-135.552	-0.045	-0.005
-315.997	-200.000	-0.062	0.389
-314.983	87.108	0.152	-0.165
-313.968	-136.212	0.469	-0.054
-312.953	800.000	-0.070	0.196
-311.939	-32.398	-0.061	0.034
-310.924	-143.475	0.078	-0.007
-309.910	-200.000	-0.002	0.149
-308.895	-172.622	0.404	0.013
-307.880	61.682	0.056	-0.055
-306.866	46.225	0.117	0.107
-305.851	-114.306	0.257	0.049
-304.837	372.574	-0.035	-0.070
-303.822	180.721	0.160	0.232
-302.807	-113.129	-0.185	-0.036
-301.793	800.000	0.057	-0.213
-300.778	-90.918	0.276	0.078
-299.764	23.047	-0.257	0.208
-298.749	264.084	0.046	0.079
-297.735	-53.148	-0.207	-0.094
-296.720	800.000	0.039	-0.125
-295.705	-19.693	0.115	-0.070
-294.691	800.000	0.042	0.129
-293.676	410.987	-0.072	0.150
-292.662	-60.643	-0.148	0.062
-291.647	-118.310	-0.242	-0.042
-290.632	-77.228	-0.282	0.097
-289.618	424.195	0.088	-0.186
-288.603	268.052	0.084	0.146
-287.589	-72.828	0.196	0.071
-286.574	-72.089	-0.107	-0.039
-285.559	-200.000	0.004	-0.179
-284.545	-109.782	0.199	-0.041
-283.530	800.000	0.044	-0.128
-282.516	45.373	0.018	0.016
-281.501	21.313	-0.177	0.142
-280.486	22.267	0.217	0.175
-279.472	-200.000	0.008	0.063
-278.457	301.765	0.188	-0.342
-277.443	800.000	-0.067	-0.244
-276.428	-58.244	0.158	0.068
-275.413	27.944	0.302	-0.251
-274.399	800.000	-0.076	0.242
-273.384	-200.000	-0.009	0.288
-272.370	184.643	-0.036	-0.053
-271.355	14.973	-0.226	0.174
-270.340	-99.439	-0.093	0.023
-269.326	169.016	-0.157	-0.221
-268.311	-108.386	-0.234	0.050
-267.297	-200.000	0.053	-0.255
-266.282	-200.000	-0.016	0.138
-265.267	526.244	0.043	0.100
-264.253	249.782	0.190	-0.317
-263.238	15.799	-0.127	0.098
-262.224	-93.661	0.227	-0.062
-261.209	258.458	-0.152	0.258
-260.195	800.000	-0.046	0.164
-259.180	-151.268	0.159	-0.012
-258.165	144.588	-0.146	-0.192
-257.151	60.497	-0.085	0.083
-256.136	212.694	-0.128	-0.199
-255.122	320.314	-0.156	-0.292
-254.107	182.155	0.112	-0.163
-253.092	126.201	0.197	-0.245
-252.078	68.070	-0.149	-0.150
-251.063	198.191	-0.074	0.111
-250.049	-48.224	-0.108	0.051
-249.034	389.089	0.047	-0.096
-248.019	-53.786	-0.310	0.139
-247.005	553.199	-0.042	0.099
-245.990	-117.489	0.180	-0.032
-244.976	142.039	0.166	0.216
-243.961	-96.454	-0.111	0.029
-242.946	-26.278	0.233	-0.135
-241.932	113.749	-0.169	-0.202
-240.917	3.843	-0.215	-0.154
-239.903	38.484	-0.172	0.150
-238.888	-102.775	0.171	0.040
-237.873	218.977	0.057	0.090
-236.859	82.297	-0.131	0.140
-235.844	-200.000	-0.004	0.214
-234.830	-200.000	-0.003	0.201
-233.815	-200.000	-0.009	0.117
-232.800	50.720	0.309	0.288
-231.786	42.344	-0.165	-0.147
-230.771	800.000	-0.055	0.216
-229.757	-193.456	0.204	0.002
-228.742	-67.044	-0.019	-0.007
-227.727	-115.093	-0.324	-0.061
-226.713	-62.673	-0.177	-0.072
-225.698	24.024	-0.094	0.076
-224.684	601.033	0.034	-0.083
-223.669	-200.000	-0.026	-0.183
-222.655	-11.286	0.055	0.036
-221.640	-200.000	-0.021	-0.361
-220.625	557.810	-0.129	-0.306
-219.611	-13.599	-0.113	-0.072
-218.596	800.000	0.055	0.167
-217.582	-58.347	-0.277	-0.118
-216.567	-106.741	-0.247	0.054
-215.552	313.291	-0.208	0.384
-214.538	487.828	0.137	-0.307
-213.523	60.610	-0.059	-0.057
-212.509	-200.000	0.023	0.160
-211.494	-107.717	0.102	0.022
-210.479	-122.238	-0.108	0.017
-209.465	-152.911	-0.309	0.021
-208.450	-200.000	0.007	-0.030
-207.436	-133.917	0.054	0.007
-206.421	-200.000	0.014	0.083
-205.406	-109.965	0.072	0.015
-204.392	166.948	-0.163	0.228
-203.377	-37.579	-0.062	-0.033
-202.363	-37.132	0.154	0.081
-201.348	-12.931	-0.268	-0.172
-200.333	110.828	0.177	-0.209
-199.319	37.010	-0.130	-0.113
-198.304	130.794	-0.248	0.312
-197.290	800.000	0.027	-0.109
-196.275	119.392	-0.225	-0.274
-195.260	800.000	0.089	-0.365
-194.246	-56.197	-0.181	0.079
-193.231	227.720	0.112	0.179
-192.217	197.382	-0.017	-0.025
-191.202	-118.154	-0.060	0.010
-190.187	102.168	0.280	-0.322
-189.173	243.422	0.331	0.545
-188.158	129.027	0.209	-0.262
-187.144	92.229	-0.100	0.111
-186.129	301.387	-0.038	-0.070
-185.114	430.672	0.119	-0.254
-184.100	-53.587	-0.238	-0.107
-183.085	-200.000	0.019	-0.094
-182.071	-65.870	0.074	0.029
-181.056	-200.000	-0.018	0.085
-180.042	-124.611	-0.150	0.023
-179.027	-2.679	-0.227	0.156
-178.012	136.408	-0.200	-0.256
-176.998	56.292	0.169	0.161
-175.983	-78.807	-0.252	-0.084
-174.969	-200.000	-0.002	-0.017
-173.954	171.985	-0.296	-0.417
-172.939	-200.000	-0.022	0.219
-171.925	423.358	-0.092	-0.194
-170.910	1.489	-0.152	0.107
-169.896	-55.216	-0.369	-0.163
-168.881	324.534	0.075	0.140
-167.866	800.000	0.048	0.143
-166.852	800.000	0.011	-0.031
-165.837	-186.480	0.200	0.003
-164.823	-60.142	0.356	-0.149
-163.808	-200.000	-0.092	0.600
-162.793	-125.250	0.090	0.013
-161.779	800.000	0.033	-0.105
-160.764	-79.231	-0.052	-0.017
-159.750	-200.000	-0.006	0.238
-158.735	-95.149	0.357	-0.095
-157.720	-14.340	0.478	-0.302
-156.706	1.687	-0.225	0.159
-155.691	-104.855	0.163	-0.037
-154.677	-200.000	0.038	-0.179
-153.662	800.000	0.079	-0.326
-152.647	-200.000	-0.011	0.227
-151.633	-200.000	-0.049	0.327
-150.618	-200.000	0.019	0.091
-149.604	-200.000	-0.044	-0.295
-148.589	-200.000	0.034	0.290
-147.574	-116.529	0.325	0.059
-146.560	800.000	0.056	0.238
-145.545	-200.000	0.035	-0.316
-144.531	-26.301	0.169	-0.097
-143.516	46.518	0.202	0.184
-142.502	68.735	0.198	0.199
-141.487	800.000	-0.090	0.322
-140.472	-132.417	-0.172	-0.022
-139.458	-37.577	-0.187	-0.098
-138.443	49.836	0.185	0.171
-137.429	97.465	0.120	0.135
-136.414	-115.374	0.088	-0.016
-135.399	-56.865	-0.515	-0.223
-134.385	800.000	-0.049	0.212
-133.370	-200.000	0.012	-0.340
-132.356	-200.000	-0.027	-0.164
-131.341	-200.000	-0.032	0.152
-130.326	-74.209	-0.238	0.084
-129.312	-121.692	0.239	0.039
-128.297	94.873	0.155	0.173
-127.283	120.017	-0.039	-0.047
-126.268	-16.303	0.110	0.068
-125.253	80.824	-0.188	0.199
-124.239	135.884	0.229	0.292
-123.224	-22.898	0.164	-0.097
-122.210	24.147	0.342	0.277
-121.195	322.814	-0.188	0.352
-120.180	-160.859	0.299	-0.015
-119.166	-88.554	-0.550	0.161
-118.151	21.812	0.120	0.096
-117.137	67.822	-0.199	0.199
-116.122	-41.614	-0.090	-0.045
-115.107	-140.643	-0.237	-0.024
-114.093	28.180	-0.173	-0.143
-113.078	-23.908	0.189	0.111
-112.064	-36.222	0.256	0.135
-111.049	-52.777	0.351	-0.158
-110.034	-200.000	-0.019	-0.106
-109.020	260.086	0.176	-0.298
-108.005	-82.934	-0.191	0.060
-106.991	110.387	-0.116	0.136
-105.976	194.249	-0.161	0.238
-104.962	-200.000	-0.031	-0.149
-103.947	354.364	-0.162	-0.315
-102.932	-200.000	-0.013	-0.208
-101.918	800.000	0.017	-0.049
-100.903	-200.000	-0.031	0.154
-99.889	-141.339	-0.136	-0.014
-98.874	-136.755	0.148	0.017
-97.859	-200.000	-0.056	0.375
-96.845	-200.000	0.016	0.182
-95.830	800.000	0.055	0.192
-94.816	-200.000	0.029	-0.248
-93.801	73.187	0.136	0.139
-92.786	41.238	0.075	-0.067
-91.772	-200.000	0.027	-0.163
-90.757	-93.883	0.154	0.042
-89.743	-200.000	-0.017	0.162
-88.728	-35.579	-0.123	-0.065
-87.713	-200.000	-0.012	-0.313
-86.699	800.000	0.059	-0.173
-85.684	-19.367	0.118	0.072
-84.670	800.000	0.079	-0.244
-83.655	57.632	0.212	0.203
-82.640	40.738	-0.107	0.094
-81.626	-83.125	0.030	0.009
-80.611	726.286	-0.021	0.054
-79.597	126.652	0.167	0.207
-78.582	165.365	0.096	-0.133
-77.567	-26.577	0.188	0.107
-76.553	455.996	-0.015	0.032
-75.538	108.096	0.175	-0.204
-74.524	301.472	-0.115	0.208
-73.509	-92.647	-0.450	-0.123
-72.494	-116.300	0.128	0.023
-71.480	-88.012	-0.288	0.085
-70.465	-200.000	0.047	0.222
-69.451	284.994	-0.125	-0.220
-68.436	800.000	0.065	0.232
-67.422	32.139	-0.168	-0.141
-66.407	-200.000	0.014	0.314
-65.392	133.802	0.015	-0.019
-64.378	97.580	-0.125	0.140
-63.363	272.712	0.166	0.286
-62.349	360.681	0.184	0.360
-61.334	44.571	-1.011	-0.908
-60.319	151.090	0.312	0.415
-59.305	-200.000	-0.251	-1.172
-58.290	414.635	0.559	1.163
-57.276	-200.000	0.305	1.487
-56.261	-200.000	117.280	643.419
-55.246	485.371	1552.559	3455.300
-54.232	172.998	2729.438	3842.114
-53.217	96.857	2295.203	2569.808
-52.203	35.052	1901.222	1626.664
-51.188	29.222	1695.381	1406.155
-50.173	26.869	1654.428	1354.585
-49.159	46.506	1712.749	1552.249
-48.144	45.476	1725.552	1555.961
-47.130	28.746	1683.040	1392.089
-46.115	26.101	1668.893	1360.421
-45.100	25.943	1664.196	1355.356
-44.086	26.035	1660.948	1353.343
-43.071	25.904	1659.346	1351.007
-42.057	25.953	1656.429	1348.939
-41.042	26.018	1654.013	1347.405
-40.027	26.049	1652.519	1346.368
-39.013	25.906	1650.391	1343.512
-37.998	25.932	1648.857	1342.404
-36.984	25.965	1647.551	1341.533
-35.969	26.045	1646.038	1340.847
-34.954	26.075	1644.411	1339.685
-33.940	26.060	1642.677	1338.112
-32.925	26.092	1641.186	1337.080
-31.911	26.061	1639.499	1335.423
-30.896	26.158	1637.363	1334.349
-29.881	26.147	1635.905	1333.027
-28.867	26.083	1634.676	1331.496
-27.852	26.088	1633.315	1330.371
-26.838	26.125	1631.710	1329.285
-25.823	26.173	1630.447	1328.555
-24.809	26.203	1629.048	1327.588
-23.794	26.185	1627.599	1326.223
-22.779	26.141	1626.444	1324.908
-21.765	26.140	1624.140	1322.966
-20.750	26.150	1622.890	1321.968
-19.736	26.189	1621.208	1320.832
-18.721	26.165	1619.845	1319.496
-17.706	26.272	1618.084	1318.789
-16.692	26.109	1616.924	1316.600
-15.677	26.257	1615.315	1316.315
-14.663	26.249	1614.270	1315.355
-13.648	26.139	1612.728	1313.249
-12.633	26.236	1610.940	1312.447
-11.619	26.189	1609.422	1310.813
-10.604	26.163	1607.909	1309.339
-9.590	26.160	1606.767	1308.340
-8.575	26.151	1605.683	1307.335
-7.560	26.135	1604.196	1305.956
-6.546	26.218	1602.979	1305.520
-5.531	26.141	1602.306	1304.362
-4.517	26.052	1601.253	1302.807
-3.502	26.079	1600.468	1302.312
-2.487	26.247	1598.002	1301.462
-1.473	25.852	1586.311	1289.067
-0.458	22.949	1567.578	1253.239
0.556	21.593	1568.666	1222.697
1.571	19.188	1592.825	1224.338
2.586	18.777	1605.086	1230.713
3.600	17.099	1551.039	1177.538
4.615	10.817	1444.334	1055.736
5.629	5.131	1384.335	976.301
6.644	4.062	1377.250	964.563
7.659	3.945	1377.028	963.596
8.673	4.033	1375.833	963.219
9.688	4.301	1373.264	962.999
10.702	4.073	1370.906	959.846
11.717	6.869	1375.608	980.420
12.731	14.220	1388.710	1035.570
13.746	20.770	1399.262	1084.279
14.761	22.630	1401.940	1097.850
15.775	22.121	1400.561	1093.506
16.790	21.119	1397.875	1085.085
17.804	20.388	1396.131	1079.092
18.819	20.139	1394.621	1076.288
19.834	20.114	1393.965	1075.526
20.848	20.019	1393.046	1074.134
21.863	19.893	1391.478	1072.049
22.877	19.693	1390.457	1069.932
23.892	19.796	1389.097	1069.424
24.907	19.563	1388.926	1067.763
25.921	19.668	1387.192	1066.982
26.936	19.737	1386.497	1066.777
27.950	19.720	1385.832	1066.066
28.965	19.819	1384.961	1065.911
29.980	19.994	1383.726	1065.947
30.994	20.163	1382.644	1066.055
32.009	20.184	1381.767	1065.416
33.023	20.130	1380.597	1064.090
34.038	19.987	1379.473	1062.250
35.053	19.848	1378.135	1060.273
36.067	19.791	1376.692	1058.722
37.082	19.761	1376.489	1058.288
38.096	19.929	1375.558	1058.508
39.111	19.984	1374.358	1057.827
40.126	19.824	1373.858	1056.368
41.140	19.621	1371.929	1053.554
42.155	19.413	1371.137	1051.585
43.169	19.238	1371.520	1050.718
44.184	19.344	1370.860	1050.764
45.199	19.289	1370.953	1050.410
46.213	19.557	1370.673	1051.735
47.228	19.762	1369.711	1052.148
48.242	19.779	1368.642	1051.339
49.257	19.722	1367.290	1049.864
50.271	19.701	1365.929	1048.597
51.286	19.748	1364.228	1047.484
52.301	19.823	1362.824	1046.767
53.315	19.651	1362.018	1045.014
54.330	19.468	1360.768	1042.858
55.344	19.505	1359.397	1041.940
56.359	19.474	1358.350	1040.855
57.374	19.408	1357.798	1039.944
58.388	19.245	1356.896	1038.176
59.403	19.197	1356.531	1037.519
60.417	19.177	1356.003	1036.898
61.432	19.166	1355.073	1036.032
62.447	19.049	1353.900	1034.340
63.461	18.918	1352.984	1032.762
64.476	18.986	1351.845	1032.207
65.490	19.138	1349.889	1031.536
66.505	19.041	1348.791	1030.025
67.520	19.065	1347.875	1029.379
68.534	19.114	1346.686	1028.670
69.549	19.095	1345.717	1027.726
70.563	18.955	1344.385	1025.784
71.578	18.837	1343.151	1024.048
72.593	18.803	1342.482	1023.246
73.607	18.866	1341.683	1022.919
74.622	18.856	1340.724	1022.036
75.636	19.002	1340.055	1022.304
76.651	18.943	1339.691	1021.589
77.666	18.978	1338.989	1021.166
78.680	19.133	1338.926	1021.950
79.695	19.249	1338.047	1021.880
80.709	19.314	1337.451	1021.719
81.724	19.332	1336.513	1021.019
82.739	19.474	1335.800	1021.223
83.753	19.682	1334.650	1021.483
84.768	19.848	1334.639	1022.364
85.782	20.039	1333.683	1022.670
86.797	20.036	1331.979	1021.252
87.812	19.741	1331.064	1018.724
88.826	19.881	1329.202	1018.034
89.841	19.949	1328.234	1017.602
90.855	19.969	1327.857	1017.343
91.870	20.072	1327.240	1017.381
92.884	20.072	1326.212	1016.503
93.899	20.144	1325.206	1016.064
94.914	20.152	1325.087	1015.932
95.928	20.102	1323.892	1014.630
96.943	20.101	1322.461	1013.437
97.957	19.950	1322.188	1012.258
98.972	19.936	1320.935	1011.129
99.987	19.815	1320.379	1009.909
101.001	19.934	1319.520	1009.853
102.016	20.054	1317.759	1009.117
103.030	19.952	1317.479	1008.215
104.045	19.891	1316.640	1007.130
105.060	19.796	1315.282	1005.455
106.074	19.486	1313.145	1001.927
107.089	19.115	1311.407	998.366
108.103	19.023	1310.166	996.796
109.118	19.174	1308.681	996.455
110.133	19.147	1307.659	995.432
111.147	19.154	1306.231	994.297
112.162	19.204	1305.505	993.947
113.176	19.287	1304.062	993.238
114.191	19.378	1303.197	993.012
115.206	19.274	1302.489	991.788
116.220	19.255	1301.201	990.611
117.235	19.204	1300.064	989.364
118.249	19.146	1299.405	988.439
119.264	19.169	1297.881	987.329
120.279	19.091	1296.588	985.809
121.293	18.981	1295.294	984.111
122.308	18.808	1294.698	982.580
123.322	18.865	1293.470	981.883
124.337	18.834	1292.342	980.767
125.352	18.799	1291.131	979.563
126.366	18.833	1289.788	978.650
127.381	18.779	1289.441	977.990
128.395	18.830	1288.373	977.384
129.410	18.740	1287.663	976.248
130.424	18.856	1286.814	976.176
131.439	19.126	1285.908	976.936
132.454	19.285	1284.606	976.760
133.468	19.308	1284.156	976.461
134.483	19.262	1283.647	975.729
135.497	19.239	1283.224	975.194
136.512	19.279	1281.392	973.941
137.527	19.407	1280.144	973.625
138.541	19.404	1278.842	972.535
139.556	19.420	1277.883	971.810
140.570	19.491	1277.244	971.636
141.585	19.624	1276.179	971.490
142.600	19.721	1274.893	970.967
143.614	19.978	1273.860	971.535
144.629	19.837	1273.360	970.279
145.643	19.878	1272.583	969.832
146.658	19.691	1270.518	967.125
147.673	19.603	1268.741	965.193
148.687	19.364	1267.898	963.132
149.702	19.268	1266.694	961.597
150.716	19.394	1264.825	960.795
151.731	19.321	1263.534	959.322
152.746	19.336	1263.069	958.969
153.760	19.498	1261.660	958.719
154.775	19.502	1261.201	958.303
155.789	19.662	1259.750	958.005
156.804	19.677	1259.478	957.797
157.819	19.669	1258.434	956.874
158.833	19.820	1257.308	956.767
159.848	19.937	1256.885	957.007
160.862	19.829	1256.174	955.786
161.877	19.553	1253.987	952.513
162.892	19.275	1253.037	950.177
163.906	19.225	1252.297	949.252
164.921	19.342	1251.126	948.925
165.935	19.377	1250.564	948.608
166.950	19.512	1250.121	948.932
167.964	19.537	1248.775	947.964
168.979	19.501	1248.357	947.366
169.994	19.430	1247.389	946.159
171.008	19.409	1246.862	945.560
172.023	19.645	1246.035	946.140
173.037	19.779	1245.619	946.475
174.052	19.715	1244.606	945.272
175.067	19.381	1243.427	942.466
176.081	19.292	1242.024	940.832
177.096	19.334	1241.201	940.357
178.110	19.362	1240.372	939.796
179.125	19.384	1239.075	938.852
180.140	19.517	1237.779	938.507
181.154	19.631	1236.746	938.261
182.169	19.782	1236.147	938.542
183.183	19.918	1234.613	938.034
184.198	19.959	1233.704	937.480
185.213	19.877	1232.638	936.148
186.227	19.819	1231.986	935.255
187.242	20.022	1230.543	935.174
188.256	19.996	1230.146	934.647
189.271	20.027	1228.956	933.826
190.286	19.886	1227.530	931.901
191.300	19.428	1226.436	928.527
192.315	19.236	1225.560	926.746
193.329	19.363	1225.186	927.063
194.344	19.469	1224.577	927.091
195.359	19.508	1224.060	926.830
196.373	19.548	1223.964	926.890
197.388	19.769	1223.501	927.642
198.402	20.006	1223.307	928.684
199.417	20.203	1222.957	929.389
200.432	20.261	1222.350	929.160
201.446	20.455	1221.876	929.754
202.461	20.525	1220.668	929.124
203.475	20.458	1219.358	927.688
204.490	20.184	1218.155	925.228
205.504	19.956	1216.605	922.756
206.519	19.911	1215.504	921.597
207.534	19.838	1214.383	920.282
208.548	19.915	1213.246	919.746
209.563	19.915	1212.485	919.089
210.577	19.785	1212.026	917.969
211.592	19.886	1211.280	917.855
212.607	20.198	1210.507	918.845
213.621	20.135	1209.486	917.653
214.636	20.126	1208.391	916.692
215.650	20.126	1207.305	915.792
216.665	20.167	1207.200	915.847
217.680	20.445	1206.226	916.493
218.694	20.545	1205.152	916.124
219.709	20.434	1204.172	914.714
220.723	20.297	1203.523	913.415
221.738	20.329	1203.084	913.172
222.753	20.291	1202.011	912.077
223.767	20.235	1201.664	911.440
224.782	20.524	1200.767	912.192
225.796	20.562	1200.484	912.095
226.811	20.510	1199.154	910.733
227.826	20.381	1198.646	909.590
228.840	20.364	1197.515	908.562
229.855	20.220	1196.914	907.277
230.869	20.302	1196.001	906.929
231.884	20.263	1194.924	905.828
232.899	20.004	1194.306	903.931
233.913	19.963	1193.347	902.911
234.928	19.952	1192.567	902.185
235.942	19.883	1192.069	901.369
236.957	19.835	1191.361	900.502
237.972	19.854	1190.518	899.883
238.986	19.894	1190.035	899.649
240.001	20.009	1188.607	899.085
241.015	20.113	1187.951	899.048
242.030	20.215	1187.322	899.022
243.045	20.329	1186.712	899.070
244.059	20.266	1186.177	898.259
245.074	20.324	1185.403	897.896
246.088	20.494	1184.578	898.070
247.103	20.552	1184.023	897.870
248.117	20.761	1183.168	898.221
249.132	20.741	1183.171	898.038
250.147	21.091	1182.209	899.034
251.161	21.198	1181.730	899.139
252.176	21.229	1181.689	899.187
253.190	21.392	1180.781	899.256
254.205	21.271	1180.254	898.156
255.220	21.475	1179.472	898.527
256.234	21.236	1179.226	897.031
257.249	21.275	1178.547	896.637
258.263	21.158	1177.641	895.270
259.278	21.264	1176.528	894.887
260.293	21.277	1176.414	894.789
261.307	21.399	1175.613	894.721
262.322	21.421	1174.980	894.272
263.336	21.560	1174.269	894.362
264.351	21.399	1173.839	893.137
265.366	21.408	1173.169	892.591
266.380	21.370	1172.673	891.942
267.395	21.378	1171.769	891.214
268.409	21.187	1170.663	889.321
269.424	21.145	1169.808	888.379
270.439	21.282	1169.177	888.522
271.453	21.047	1168.969	887.091
272.468	20.957	1167.505	885.440
273.482	21.030	1166.355	884.864
274.497	21.004	1166.225	884.554
275.512	21.026	1165.430	883.984
276.526	20.989	1165.042	883.422
277.541	20.988	1164.334	882.806
278.555	21.014	1163.893	882.524
279.570	21.255	1163.158	883.107
280.585	21.373	1162.415	883.062
281.599	21.348	1161.224	881.952
282.614	21.223	1159.844	880.194
283.628	21.159	1158.613	878.859
284.643	21.159	1157.644	878.047
285.657	21.289	1156.845	878.015
286.672	21.191	1155.816	876.667
287.687	21.140	1155.462	876.063
288.701	21.154	1154.521	875.342
289.716	21.182	1153.650	874.746
290.730	21.131	1153.455	874.268
291.745	21.226	1152.550	873.977
292.760	21.302	1151.630	873.583
293.774	21.311	1151.484	873.442
294.789	21.498	1150.640	873.656
295.803	21.504	1149.945	873.081
296.818	21.290	1149.341	871.480
297.833	21.204	1148.088	870.024
298.847	21.192	1147.516	869.452
299.862	21.299	1146.804	869.370
300.876	21.273	1146.068	868.604
301.891	21.431	1145.722	869.052
302.906	21.488	1145.285	868.927
303.920	21.729	1144.449	869.410
304.935	21.695	1144.337	869.079
305.949	21.847	1143.659	869.242
306.964	21.848	1143.002	868.669
307.979	21.708	1141.966	867.111
308.993	21.543	1141.419	865.804
310.008	21.661	1140.483	865.599
311.022	21.654	1139.858	865.015
312.037	21.784	1138.836	864.803
313.052	21.490	1138.029	862.665
314.066	21.304	1136.865	860.788
315.081	21.188	1135.867	859.390
316.095	21.136	1134.875	858.305
317.110	21.206	1134.300	858.141
318.125	21.217	1133.462	857.480
319.139	21.232	1132.526	856.771
320.154	21.278	1132.012	856.531
321.168	21.209	1131.625	855.825
322.183	21.291	1131.081	855.741
323.197	21.352	1130.386	855.440
324.212	21.397	1129.875	855.194
325.227	21.364	1129.366	854.574
326.241	21.385	1128.731	854.121
327.256	21.403	1127.464	853.174
328.270	21.302	1126.804	852.104
329.285	21.261	1125.882	851.135
330.300	21.328	1125.020	850.732
331.314	21.184	1124.043	849.219
332.329	21.290	1122.916	848.805
333.343	21.548	1121.834	849.165
334.358	21.643	1121.280	849.132
335.373	21.698	1120.840	848.989
336.387	21.748	1120.370	848.800
337.402	21.767	1119.637	848.262
338.416	21.875	1119.331	848.476
339.431	21.924	1118.294	847.856
340.446	22.145	1117.855	848.514
341.460	22.207	1116.908	848.019
342.475	22.194	1116.682	847.711
343.489	22.246	1115.970	847.342
344.504	22.369	1115.016	847.136
345.519	22.347	1114.011	846.193
346.533	22.393	1113.275	845.777
347.548	22.478	1112.894	845.825
348.562	22.468	1111.790	844.862
349.577	22.074	1110.888	842.215
350.592	21.841	1109.919	840.287
351.606	21.673	1109.247	838.900
352.621	21.635	1108.328	837.950
353.635	21.688	1107.312	837.359
354.650	21.673	1106.936	836.931
355.665	21.876	1106.282	837.329
356.679	21.943	1105.165	836.731
357.694	21.926	1105.196	836.598
358.708	22.077	1104.262	836.535
359.723	22.163	1103.511	836.302
360.738	22.077	1102.971	835.413
361.752	22.042	1102.627	834.908
362.767	22.067	1102.060	834.527
363.781	22.069	1101.832	834.288
364.796	22.175	1101.076	834.146
365.810	22.452	1100.673	835.078
366.825	22.507	1100.516	835.148
367.840	22.750	1099.518	835.468
368.854	22.790	1099.490	835.563
369.869	22.703	1098.312	834.178
370.883	22.584	1097.217	832.715
371.898	22.463	1096.649	831.637
372.913	22.479	1095.697	830.915
373.927	22.432	1095.775	830.683
374.942	22.668	1094.856	831.021
375.956	22.584	1094.498	830.282
376.971	22.523	1093.942	829.498
377.986	22.656	1093.189	829.479
379.000	22.711	1092.990	829.515
380.015	22.961	1092.204	830.018
381.029	22.912	1091.572	829.234
382.044	22.889	1090.792	828.463
383.059	22.754	1090.324	827.400
384.073	22.857	1089.431	827.132
385.088	22.881	1088.496	826.462
386.102	22.707	1087.846	825.080
387.117	22.625	1086.244	823.412
388.132	22.517	1084.932	821.836
389.146	22.459	1084.254	820.983
390.161	22.259	1084.021	819.802
391.175	22.312	1082.962	819.173
392.190	22.559	1082.359	819.794
393.205	22.646	1081.989	819.845
394.219	22.706	1081.218	819.466
395.234	22.590	1080.087	818.000
396.248	22.506	1078.649	816.451
397.263	22.550	1077.436	815.663
398.278	22.306	1077.299	814.359
399.292	22.248	1076.341	813.294
400.307	22.128	1075.930	812.355
401.321	22.330	1074.936	812.468
402.336	22.232	1074.180	811.371
403.350	22.310	1073.147	810.877
404.365	22.296	1072.574	810.311
405.380	22.422	1072.384	810.674
406.394	22.417	1071.910	810.221
407.409	22.732	1070.663	810.653
408.423	22.761	1070.325	810.461
409.438	22.904	1069.854	810.689
410.453	22.943	1069.551	810.567
411.467	23.068	1068.866	810.550
412.482	23.049	1068.337	809.988
413.496	23.135	1067.752	809.866
414.511	23.104	1067.022	809.097
415.526	23.408	1066.686	810.163
416.540	23.443	1066.076	809.786
417.555	23.397	1065.719	809.234
418.569	23.190	1065.034	807.700
419.584	23.157	1064.086	806.757
420.599	23.177	1063.736	806.511
421.613	157.974	1404.618	1797.560
422.628	145.402	1454.228	1797.646
