DTS Sentinel unit serial number:	SN413079Multiplexer serial number:	ORYXHardware model number:	OX4-SRSoftware version number:	ORYX F/W v4.00 Oryx Data Collector v3.7.2.0data status	okinstallation	princeton_trtdifferential loss correction	single-endedforward channel	channel 2reverse channel	N/Adate	2019/09/12time	15:01:11forward acquisition time	60.00reverse acquisition time	0.00gamma	496.2192k internal	0.2300k external	0.2300temperature offset calibration	1.0087default loss term (dB/km)	0.3790temperature slope calibration	1.0000multiplexer offset coefficient	1.0000multiplexer slope coefficient	1.0000fibre end	0.00T internal ref (°C)	40.44T ext. ref 1 (°C)	2.35T ext. ref 2 (°C)	37.17length (m)	temperature (°C)	Stokes	anti-Stokes-747.200	-162.587	-0.302	0.015
-746.185	682.770	-0.088	0.233
-745.171	-200.000	0.012	0.054
-744.156	800.000	0.073	0.233
-743.142	-90.949	-0.097	-0.029
-742.127	-67.410	-0.077	-0.031
-741.112	148.697	0.144	-0.198
-740.098	504.785	-0.148	0.349
-739.083	-200.000	-0.018	-0.097
-738.069	467.277	-0.093	0.213
-737.054	-74.806	-0.273	-0.100
-736.039	-130.657	0.152	-0.021
-735.025	-19.265	0.252	0.160
-734.010	-200.000	-0.001	-0.450
-732.996	64.035	0.084	-0.086
-731.981	800.000	-0.019	-0.073
-730.966	-128.917	-0.135	-0.019
-729.952	-31.885	-0.130	0.074
-728.937	60.262	-0.244	-0.246
-727.923	-200.000	-0.009	-0.078
-726.908	-200.000	0.010	-0.054
-725.894	-119.339	-0.218	0.039
-724.879	167.837	-0.097	-0.141
-723.864	-163.412	-0.288	0.014
-722.850	-200.000	0.032	0.315
-721.835	-151.844	0.276	-0.021
-720.821	229.599	-0.139	-0.231
-719.806	-200.000	0.046	-0.245
-718.791	-3.558	-0.144	-0.102
-717.777	-103.123	0.114	0.028
-716.762	205.653	-0.096	-0.153
-715.748	164.494	-0.032	-0.046
-714.733	153.831	-0.197	0.275
-713.718	800.000	-0.057	0.184
-712.704	-75.782	-0.239	0.086
-711.689	417.114	-0.115	-0.251
-710.675	188.679	0.096	-0.146
-709.660	62.223	0.156	0.159
-708.645	-200.000	-0.068	0.692
-707.631	4.983	-0.234	-0.176
-706.616	-103.109	0.180	0.043
-705.602	59.904	-0.214	-0.215
-704.587	105.167	0.078	0.094
-703.572	-23.935	-0.073	0.044
-702.558	3.026	0.092	0.068
-701.543	203.826	-0.104	-0.164
-700.529	-142.343	-0.101	-0.010
-699.514	-64.850	-0.241	-0.099
-698.499	162.264	-0.119	0.170
-697.485	800.000	-0.112	0.354
-696.470	27.520	0.252	0.216
-695.456	-94.900	-0.143	0.039
-694.441	800.000	0.052	-0.162
-693.426	476.852	0.061	-0.140
-692.412	-98.565	-0.079	0.021
-691.397	-146.327	0.216	0.019
-690.383	387.836	-0.019	-0.039
-689.368	-53.052	0.436	0.204
-688.354	-91.323	0.052	-0.015
-687.339	417.493	0.150	0.325
-686.324	75.875	0.098	-0.106
-685.310	-12.912	-0.237	-0.157
-684.295	-200.000	0.015	0.189
-683.281	800.000	-0.124	-0.350
-682.266	23.415	-0.305	-0.255
-681.251	-198.462	-0.201	-0.001
-680.237	-200.000	0.017	-0.299
-679.222	800.000	0.057	-0.206
-678.208	396.978	-0.039	-0.083
-677.193	-194.860	-0.035	-0.000
-676.178	-111.224	0.232	0.048
-675.164	178.585	-0.126	0.187
-674.149	-125.547	0.186	-0.029
-673.135	186.499	0.011	0.016
-672.120	-110.392	-0.156	-0.033
-671.105	-164.524	-0.166	-0.008
-670.091	-200.000	-0.006	0.236
-669.076	143.447	0.093	0.126
-668.062	351.700	0.033	-0.066
-667.047	152.678	-0.075	0.104
-666.032	220.332	-0.165	0.269
-665.018	-200.000	-0.016	0.083
-664.003	-56.064	0.272	-0.123
-662.989	-48.438	-0.222	0.109
-661.974	-101.835	0.348	-0.086
-660.959	0.739	-0.101	0.073
-659.945	-69.576	-0.182	0.071
-658.930	-44.432	-0.201	0.102
-657.916	58.677	-0.209	-0.209
-656.901	-66.958	-0.198	-0.080
-655.886	469.367	0.066	-0.151
-654.872	800.000	0.065	-0.213
-653.857	124.797	0.210	0.268
-652.843	151.075	-0.017	-0.023
-651.828	-142.579	-0.502	0.050
-650.814	69.978	0.153	-0.160
-649.799	-61.928	0.082	0.035
-648.784	-200.000	0.026	0.431
-647.770	-62.676	-0.214	0.090
-646.755	-74.523	0.175	-0.064
-645.741	30.628	-0.111	0.096
-644.726	800.000	-0.012	0.052
-643.711	24.379	-0.135	0.113
-642.697	-109.308	0.132	-0.028
-641.682	78.742	-0.065	-0.071
-640.668	-49.370	0.216	0.105
-639.653	123.892	-0.122	-0.155
-638.638	-147.245	0.347	0.030
-637.624	-74.892	0.298	0.108
-636.609	58.909	0.314	0.314
-635.595	-55.471	0.209	0.095
-634.580	-130.355	-0.424	-0.058
-633.565	-38.012	-0.122	-0.066
-632.551	368.156	-0.065	-0.134
-631.536	-200.000	-0.019	-0.309
-630.522	84.683	-0.173	0.193
-629.507	-94.939	0.227	0.062
-628.492	209.648	0.073	-0.116
-627.478	-200.000	0.015	-0.259
-626.463	-109.084	-0.069	0.015
-625.449	12.350	-0.104	-0.081
-624.434	-89.713	0.239	0.071
-623.419	420.119	0.088	-0.192
-622.405	800.000	0.024	0.069
-621.390	-168.310	0.124	-0.005
-620.376	-103.452	-0.056	0.013
-619.361	-69.181	-0.321	-0.125
-618.346	185.792	0.048	-0.072
-617.332	125.725	0.126	-0.161
-616.317	-200.000	0.007	0.107
-615.303	-127.518	0.047	0.007
-614.288	126.980	0.191	0.245
-613.273	96.252	-0.105	-0.122
-612.259	-75.851	-0.174	-0.063
-611.244	162.340	0.078	-0.111
-610.230	-46.480	0.093	0.046
-609.215	-103.163	-0.202	0.049
-608.201	701.122	0.067	-0.178
-607.186	800.000	-0.044	-0.156
-606.171	78.382	-0.313	-0.339
-605.157	-41.307	-0.133	0.069
-604.142	-89.977	-0.036	0.011
-603.128	121.887	0.090	-0.114
-602.113	293.052	-0.212	-0.392
-601.098	-110.388	-0.189	0.040
-600.084	800.000	-0.016	-0.064
-599.069	-200.000	0.002	0.091
-598.055	-33.784	-0.208	0.116
-597.040	-10.944	0.250	-0.168
-596.025	-187.033	-0.065	0.001
-595.011	-84.921	-0.088	0.028
-593.996	-87.425	-0.464	-0.143
-592.982	-8.218	-0.096	0.066
-591.967	-126.371	-0.262	-0.040
-590.952	-200.000	0.042	-0.426
-589.938	-101.289	-0.103	0.026
-588.923	118.361	0.145	-0.181
-587.909	140.770	0.091	-0.122
-586.894	800.000	0.038	0.139
-585.879	-159.098	-0.096	0.006
-584.865	57.702	0.239	0.237
-583.850	145.553	-0.093	0.127
-582.836	-200.000	0.047	-0.327
-581.821	-200.000	-0.003	0.055
-580.806	44.742	-0.184	-0.172
-579.792	-83.121	0.201	-0.066
-578.777	79.924	0.228	-0.249
-577.763	-147.908	-0.109	-0.009
-576.748	-82.064	-0.277	0.092
-575.733	-97.148	0.287	-0.076
-574.719	93.997	0.200	0.229
-573.704	-166.686	0.181	0.008
-572.690	302.428	0.087	0.163
-571.675	-61.504	-0.318	-0.135
-570.661	-82.506	0.135	0.044
-569.646	61.197	0.212	-0.213
-568.631	800.000	-0.107	-0.382
-567.617	-91.368	0.414	-0.120
-566.602	-200.000	0.015	0.165
-565.588	371.553	-0.073	-0.149
-564.573	109.792	0.060	0.073
-563.558	137.116	-0.031	0.041
-562.544	-63.692	-0.319	0.132
-561.529	84.379	0.078	0.086
-560.515	154.869	0.198	-0.275
-559.500	-114.047	-0.124	-0.024
-558.485	-169.047	0.156	-0.006
-557.471	-200.000	0.036	0.171
-556.456	14.294	-0.049	-0.039
-555.442	559.579	0.098	-0.241
-554.427	71.084	0.187	-0.196
-553.412	-0.611	0.207	-0.149
-552.398	303.094	0.106	0.199
-551.383	106.679	-0.062	-0.075
-550.369	-126.570	0.128	-0.019
-549.354	-137.348	0.257	-0.029
-548.339	-92.087	0.092	-0.026
-547.325	-200.000	-0.048	0.218
-546.310	17.807	-0.115	0.093
-545.296	-151.098	-0.296	-0.023
-544.281	-19.515	0.106	-0.067
-543.266	-72.129	-0.197	0.074
-542.252	-126.092	-0.259	-0.039
-541.237	-71.932	0.091	-0.034
-540.223	-21.957	0.431	0.265
-539.208	-70.197	-0.115	0.044
-538.193	440.004	0.097	0.216
-537.179	303.507	0.160	0.299
-536.164	8.710	0.145	0.110
-535.150	-168.946	0.226	-0.009
-534.135	-172.736	0.448	-0.014
-533.121	800.000	0.027	0.090
-532.106	-24.335	-0.207	-0.125
-531.091	471.855	0.049	-0.111
-530.077	217.080	0.113	-0.182
-529.062	800.000	0.093	-0.395
-528.048	-82.729	-0.135	-0.044
-527.033	-28.072	-0.261	-0.153
-526.018	274.231	-0.069	-0.124
-525.004	424.813	-0.119	-0.260
-523.989	-200.000	-0.007	-0.141
-522.975	-107.199	-0.189	0.042
-521.960	-125.777	0.286	-0.044
-520.945	185.160	0.061	-0.091
-519.931	-70.636	-0.285	-0.109
-518.916	109.929	-0.143	0.173
-517.902	-99.859	-0.111	0.028
-516.887	47.370	-0.155	-0.146
-515.872	2.950	-0.149	0.109
-514.858	-123.261	-0.080	-0.013
-513.843	116.484	-0.055	0.068
-512.829	-3.366	0.184	0.130
-511.814	-53.805	-0.218	-0.101
-510.799	106.943	-0.044	-0.053
-509.785	-148.697	-0.279	-0.023
-508.770	210.849	0.115	0.183
-507.756	-22.116	-0.089	0.054
-506.741	800.000	-0.084	0.306
-505.726	-200.000	-0.002	-0.039
-504.712	80.320	0.181	0.197
-503.697	-36.333	-0.248	0.135
-502.683	-169.199	0.269	-0.010
-501.668	49.171	-0.189	-0.179
-500.653	691.472	-0.124	-0.329
-499.639	-44.091	0.256	0.130
-498.624	-200.000	0.025	0.320
-497.610	-200.000	0.023	-0.116
-496.595	800.000	-0.053	0.216
-495.581	-200.000	0.055	-0.242
-494.566	258.310	-0.057	-0.100
-493.551	488.884	0.103	0.239
-492.537	154.093	0.220	-0.305
-491.522	270.781	0.038	0.068
-490.508	-107.668	-0.202	0.045
-489.493	456.267	-0.147	0.330
-488.478	-34.932	-0.238	0.131
-487.464	648.718	-0.065	0.168
-486.449	-200.000	0.014	-0.394
-485.435	104.983	-0.127	-0.152
-484.420	-56.659	-0.296	0.132
-483.405	-112.461	-0.221	-0.045
-482.391	-36.044	0.179	-0.097
-481.376	800.000	-0.080	0.322
-480.362	-20.115	0.239	0.149
-479.347	800.000	0.097	-0.391
-478.332	84.901	-0.302	0.335
-477.318	-59.899	-0.067	0.029
-476.303	655.107	-0.103	0.266
-475.289	719.830	0.032	-0.086
-474.274	623.025	0.095	-0.241
-473.259	-200.000	0.044	-0.410
-472.245	698.269	-0.059	0.158
-471.230	-200.000	0.004	-0.087
-470.216	-116.554	-0.146	-0.027
-469.201	-200.000	0.037	-0.226
-468.186	386.234	-0.142	0.295
-467.172	-159.519	0.225	0.013
-466.157	-25.505	-0.062	0.037
-465.143	76.537	0.055	0.059
-464.128	201.652	0.086	-0.134
-463.113	-32.969	-0.106	0.059
-462.099	-11.572	0.157	0.104
-461.084	-200.000	0.023	-0.327
-460.070	-23.248	-0.071	-0.043
-459.055	7.710	0.239	0.180
-458.040	-75.967	0.178	-0.064
-457.026	-19.696	0.277	0.173
-456.011	-141.917	0.330	0.033
-454.997	0.026	0.116	0.084
-453.982	625.217	-0.009	-0.023
-452.968	-69.220	-0.189	-0.073
-451.953	-68.022	-0.057	0.022
-450.938	24.716	0.317	0.265
-449.924	149.729	-0.103	0.140
-448.909	300.271	0.059	-0.110
-447.895	216.551	-0.069	-0.111
-446.880	-200.000	0.027	0.433
-445.865	-2.991	0.073	0.051
-444.851	-190.505	0.635	-0.007
-443.836	-126.895	0.287	0.043
-442.822	800.000	-0.066	0.287
-441.807	-108.439	-0.196	0.043
-440.792	-200.000	-0.025	0.227
-439.778	-54.504	-0.136	-0.062
-438.763	-136.260	0.177	-0.021
-437.749	800.000	-0.015	-0.046
-436.734	1.687	-0.230	0.167
-435.719	-168.767	-0.241	-0.009
-434.705	-200.000	0.005	-0.302
-433.690	257.006	0.089	-0.155
-432.676	-200.000	0.048	-0.383
-431.661	-55.015	0.146	0.066
-430.646	388.505	-0.045	0.093
-429.632	-28.507	-0.072	-0.042
-428.617	800.000	0.045	-0.152
-427.603	-200.000	0.027	0.213
-426.588	14.722	0.268	-0.211
-425.573	25.951	0.219	-0.184
-424.559	102.519	-0.080	-0.094
-423.544	27.643	0.214	-0.181
-422.530	47.817	-0.055	-0.052
-421.515	-100.834	0.192	0.047
-420.500	-200.000	-0.011	0.070
-419.486	-152.080	0.270	0.020
-418.471	-200.000	-0.036	-0.283
-417.457	309.450	-0.098	0.185
-416.442	367.793	0.127	0.259
-415.428	577.635	0.056	0.139
-414.413	-72.754	-0.144	-0.053
-413.398	16.126	-0.208	-0.165
-412.384	-132.584	0.278	-0.036
-411.369	357.483	-0.130	0.261
-410.355	52.616	-0.196	0.188
-409.340	-114.378	-0.490	-0.095
-408.325	-57.962	-0.107	0.047
-407.311	95.239	-0.187	-0.215
-406.296	58.965	0.203	-0.201
-405.282	-200.000	0.013	-0.183
-404.267	-200.000	0.017	0.114
-403.252	58.018	0.100	0.098
-402.238	-200.000	0.002	0.071
-401.223	-69.589	0.027	-0.010
-400.209	93.290	0.173	-0.197
-399.194	-130.108	-0.205	-0.028
-398.179	62.699	0.221	-0.222
-397.165	-200.000	-0.040	-0.250
-396.150	179.763	-0.226	-0.334
-395.136	45.029	0.184	-0.171
-394.121	-200.000	0.007	0.059
-393.106	54.906	-0.116	-0.113
-392.092	800.000	-0.040	0.171
-391.077	800.000	-0.070	0.303
-390.063	488.188	0.095	0.217
-389.048	335.928	0.057	-0.112
-388.033	-23.959	0.129	-0.078
-387.019	489.414	-0.142	-0.326
-386.004	107.695	0.093	-0.111
-384.990	-146.236	0.132	-0.012
-383.975	287.683	0.103	0.187
-382.960	800.000	0.064	0.235
-381.946	-61.557	-0.150	-0.063
-380.931	-189.151	0.060	-0.001
-379.917	-15.740	-0.125	0.080
-378.902	-19.275	0.093	-0.058
-377.888	-52.690	-0.159	-0.074
-376.873	-91.055	-0.169	0.049
-375.858	-200.000	0.018	-0.257
-374.844	-200.000	0.032	0.182
-373.829	240.800	0.106	0.178
-372.815	240.082	-0.116	-0.195
-371.800	-200.000	0.003	-0.081
-370.785	40.297	-0.092	0.083
-369.771	46.695	-0.104	0.097
-368.756	140.156	0.135	0.179
-367.742	35.844	-0.229	0.203
-366.727	800.000	0.058	-0.254
-365.712	-90.042	-0.079	-0.023
-364.698	800.000	-0.110	-0.417
-363.683	153.461	-0.090	-0.124
-362.669	-200.000	0.073	0.333
-361.654	-200.000	0.029	-0.214
-360.639	-105.790	0.220	-0.050
-359.625	3.481	-0.217	-0.159
-358.610	-146.685	-0.111	-0.010
-357.596	-160.296	-0.352	-0.019
-356.581	-106.838	0.194	0.043
-355.566	112.953	0.183	0.222
-354.552	663.373	-0.101	0.262
-353.537	-180.415	0.215	0.004
-352.523	-97.489	-0.228	-0.059
-351.508	412.478	-0.121	0.259
-350.493	-58.596	-0.123	-0.054
-349.479	800.000	-0.047	0.167
-348.464	-74.283	-0.160	-0.058
-347.450	-24.382	-0.136	0.081
-346.435	-119.173	0.250	0.044
-345.420	291.329	0.058	-0.106
-344.406	28.205	-0.096	-0.081
-343.391	415.608	-0.149	-0.318
-342.377	512.250	-0.105	0.245
-341.362	56.138	0.077	0.075
-340.348	-1.854	0.088	0.062
-339.333	55.224	-0.154	0.150
-338.318	588.663	0.077	0.190
-337.304	236.357	0.048	-0.079
-336.289	79.393	0.262	0.282
-335.275	-42.648	0.245	0.125
-334.260	-33.981	0.202	0.111
-333.245	64.733	-0.198	-0.200
-332.231	-200.000	-0.024	-0.160
-331.216	-189.257	-0.221	-0.003
-330.202	-66.021	0.122	-0.049
-329.187	-200.000	0.008	-0.409
-328.172	171.583	0.046	-0.066
-327.158	-200.000	0.010	-0.083
-326.143	468.534	-0.081	-0.182
-325.129	-70.023	-0.164	-0.063
-324.114	-200.000	-0.034	-0.257
-323.099	3.755	-0.141	0.103
-322.085	-200.000	-0.034	-0.194
-321.070	-144.251	-0.487	0.046
-320.056	72.100	0.197	-0.206
-319.041	58.298	0.118	0.116
-318.026	183.990	0.101	0.150
-317.012	-143.690	-0.063	-0.006
-315.997	-200.000	-0.004	-0.160
-314.983	709.749	0.059	0.157
-313.968	700.143	0.057	-0.151
-312.953	800.000	0.037	0.131
-311.939	-17.959	-0.172	-0.108
-310.924	-89.541	-0.209	-0.061
-309.910	185.507	-0.174	0.259
-308.895	-194.129	0.060	0.000
-307.880	-200.000	0.013	-0.220
-306.866	18.737	0.070	-0.056
-305.851	200.862	0.110	0.170
-304.837	85.820	-0.193	-0.213
-303.822	47.894	0.158	0.148
-302.807	-69.230	0.157	-0.061
-301.793	-21.424	-0.351	-0.215
-300.778	-200.000	-0.036	0.188
-299.764	0.706	-0.156	0.112
-298.749	-200.000	0.063	0.386
-297.735	637.830	0.099	0.252
-296.720	77.416	-0.155	0.166
-295.705	-10.434	-0.251	-0.167
-294.691	-84.665	-0.122	-0.039
-293.676	3.605	0.091	-0.067
-292.662	-153.161	-0.102	0.007
-291.647	8.632	-0.551	-0.416
-290.632	38.336	-0.195	-0.174
-289.618	47.716	-0.222	0.208
-288.603	566.915	0.167	0.407
-287.589	300.802	-0.110	0.203
-286.574	12.941	-0.207	0.161
-285.559	-118.243	-0.215	0.038
-284.545	-115.752	0.074	0.014
-283.530	452.062	0.138	-0.307
-282.516	-114.210	-0.177	0.034
-281.501	-130.852	0.280	-0.038
-280.486	-73.518	0.175	0.064
-279.472	165.291	0.215	0.305
-278.457	-200.000	-0.074	0.390
-277.443	283.391	0.045	0.082
-276.428	453.742	0.136	0.302
-275.413	-80.110	-0.132	-0.044
-274.399	800.000	-0.080	0.286
-273.384	11.601	0.192	0.148
-272.370	746.645	-0.077	0.209
-271.355	-40.176	-0.136	-0.071
-270.340	800.000	0.045	-0.192
-269.326	-161.142	-0.252	-0.013
-268.311	-15.459	0.227	-0.145
-267.297	-36.675	0.166	0.090
-266.282	39.635	-0.267	-0.240
-265.267	61.714	-0.110	-0.110
-264.253	525.183	-0.065	0.153
-263.238	800.000	-0.049	-0.202
-262.224	226.582	-0.073	0.119
-261.209	-189.807	0.246	-0.003
-260.195	-200.000	0.058	-0.395
-259.180	-118.779	0.449	-0.079
-258.165	300.142	0.087	-0.161
-257.151	-111.480	-0.155	0.032
-256.136	-85.918	0.357	0.111
-255.122	156.982	-0.088	0.122
-254.107	-79.496	0.170	0.058
-253.092	177.866	-0.116	0.169
-252.078	461.616	0.124	0.277
-251.063	-117.123	0.212	0.039
-250.049	-184.312	0.051	-0.001
-249.034	15.975	-0.188	0.148
-248.019	-156.030	0.125	0.008
-247.005	156.004	-0.107	0.147
-245.990	-35.881	0.253	0.137
-244.976	83.659	-0.034	0.037
-243.961	-31.656	-0.176	0.099
-242.946	-33.745	0.055	0.031
-241.932	-200.000	-0.053	-0.245
-240.917	671.305	0.090	0.234
-239.903	-146.682	0.252	0.022
-238.888	-140.006	0.083	0.009
-237.873	153.851	0.186	-0.255
-236.859	-106.525	-0.279	-0.062
-235.844	-27.048	-0.243	0.142
-234.830	4.422	0.092	0.067
-233.815	349.097	0.075	0.148
-232.800	-108.107	0.597	0.129
-231.786	-200.000	0.104	0.520
-230.771	117.494	-0.133	-0.164
-229.757	-166.285	-0.082	0.003
-228.742	-200.000	-0.006	-0.304
-227.727	21.270	0.122	0.099
-226.713	159.972	-0.150	-0.208
-225.698	169.745	-0.068	0.097
-224.684	599.576	-0.034	0.085
-223.669	195.233	0.014	-0.022
-222.655	-47.237	0.150	0.073
-221.640	-105.543	-0.336	0.076
-220.625	-43.598	0.195	-0.098
-219.611	-188.287	-0.266	-0.003
-218.596	174.294	0.067	-0.097
-217.582	0.037	-0.277	-0.197
-216.567	87.123	0.019	-0.021
-215.552	6.394	0.130	-0.096
-214.538	35.214	-0.066	-0.058
-213.523	367.566	-0.032	0.064
-212.509	95.715	-0.026	-0.030
-211.494	-97.860	-0.153	0.039
-210.479	-200.000	-0.009	-0.085
-209.465	-75.804	0.073	-0.026
-208.450	-152.878	0.168	-0.012
-207.436	29.121	0.106	0.090
-206.421	-97.494	0.119	-0.031
-205.406	-79.626	-0.348	-0.117
-204.392	250.397	0.115	0.195
-203.377	800.000	0.054	-0.189
-202.363	198.390	0.035	0.053
-201.348	-200.000	0.007	-0.228
-200.333	329.127	0.028	0.054
-199.319	356.260	0.106	-0.211
-198.304	-200.000	0.011	-0.097
-197.290	507.069	0.031	-0.073
-196.275	57.019	0.244	-0.238
-195.260	-109.717	-0.220	0.046
-194.246	-78.784	0.095	-0.032
-193.231	-200.000	-0.071	0.326
-192.217	-127.474	-0.151	-0.022
-191.202	-79.933	-0.294	0.099
-190.187	76.766	-0.117	-0.124
-189.173	35.459	0.213	0.187
-188.158	-200.000	-0.003	-0.352
-187.144	-70.142	0.190	0.072
-186.129	144.270	-0.144	0.192
-185.114	-200.000	-0.024	0.180
-184.100	-200.000	-0.016	0.288
-183.085	185.470	-0.015	0.022
-182.071	-4.090	-0.142	-0.098
-181.056	-50.570	0.261	-0.123
-180.042	800.000	-0.009	-0.036
-179.027	776.666	0.119	-0.324
-178.012	-52.447	0.335	0.154
-176.998	357.774	-0.228	-0.453
-175.983	-90.706	0.281	0.081
-174.969	-158.082	0.510	0.030
-173.954	776.227	-0.064	0.174
-172.939	-66.486	0.167	0.066
-171.925	-200.000	0.001	-0.033
-170.910	-3.713	0.198	-0.137
-169.896	-73.646	0.159	0.058
-168.881	-44.884	0.118	0.059
-167.866	33.261	-0.224	0.194
-166.852	209.169	0.054	0.084
-165.837	800.000	-0.025	-0.087
-164.823	87.827	-0.228	-0.252
-163.808	-119.860	0.107	-0.018
-162.793	-82.710	-0.180	0.058
-161.779	-64.397	0.113	0.046
-160.764	-200.000	0.011	0.529
-159.750	-118.143	0.129	-0.023
-158.735	116.020	-0.147	0.179
-157.720	143.283	-0.257	0.341
-156.706	413.999	-0.089	0.188
-155.691	118.776	-0.206	-0.254
-154.677	-97.944	0.064	-0.017
-153.662	470.739	-0.110	0.246
-152.647	132.378	-0.162	0.208
-151.633	356.582	-0.058	0.115
-150.618	-137.983	0.374	0.042
-149.604	-116.610	0.249	0.046
-148.589	534.938	0.093	-0.220
-147.574	800.000	-0.045	-0.192
-146.560	-200.000	-0.004	-0.026
-145.545	-134.442	0.130	-0.016
-144.531	-200.000	-0.011	-0.094
-143.516	-141.868	0.314	-0.031
-142.502	-79.389	0.204	-0.069
-141.487	-20.974	-0.372	0.227
-140.472	-155.677	0.196	0.013
-139.458	-200.000	0.012	0.209
-138.443	35.910	-0.362	0.317
-137.429	75.583	0.197	-0.207
-136.414	45.591	0.044	-0.040
-135.399	-100.434	0.239	0.059
-134.385	257.590	-0.100	-0.171
-133.370	554.979	-0.046	0.111
-132.356	-37.057	-0.476	-0.254
-131.341	-200.000	-0.022	-0.122
-130.326	-162.968	0.076	-0.004
-129.312	202.728	-0.070	-0.107
-128.297	305.428	-0.190	0.352
-127.283	35.311	-0.074	0.065
-126.268	-1.558	0.199	0.140
-125.253	-200.000	0.058	0.304
-124.239	-3.187	0.179	-0.124
-123.224	-102.441	-0.101	0.024
-122.210	-200.000	0.007	0.040
-121.195	141.253	0.044	-0.058
-120.180	800.000	-0.031	-0.126
-119.166	224.003	0.142	-0.228
-118.151	54.908	0.101	-0.097
-117.137	627.697	-0.111	-0.279
-116.122	-35.638	0.123	0.067
-115.107	-200.000	0.012	-0.125
-114.093	251.995	0.051	0.087
-113.078	800.000	-0.060	-0.222
-112.064	375.770	0.153	0.311
-111.049	139.257	-0.117	-0.154
-110.034	-146.869	-0.115	0.010
-109.020	127.014	0.196	0.248
-108.005	-79.546	0.218	-0.073
-106.991	15.378	-0.240	0.188
-105.976	609.237	0.019	-0.047
-104.962	-110.828	0.210	-0.043
-103.947	392.510	-0.028	0.058
-102.932	-15.826	0.198	-0.125
-101.918	724.269	0.037	-0.098
-100.903	287.033	-0.101	0.182
-99.889	-99.677	0.435	0.109
-98.874	-89.589	-0.257	0.075
-97.859	-113.939	0.183	-0.035
-96.845	-106.865	0.297	0.066
-95.830	687.328	0.078	-0.203
-94.816	323.234	0.149	0.283
-93.801	-106.188	0.154	0.034
-92.786	800.000	0.091	-0.368
-91.772	75.382	0.316	0.332
-90.757	-17.530	0.516	0.322
-89.743	140.696	0.122	-0.161
-88.728	-200.000	-0.023	0.333
-87.713	-51.446	-0.258	-0.120
-86.699	0.181	0.051	0.036
-85.684	18.964	0.247	0.197
-84.670	-200.000	-0.027	0.265
-83.655	800.000	0.014	0.045
-82.640	519.447	0.050	-0.117
-81.626	-50.012	0.120	0.057
-80.611	-53.996	-0.087	-0.039
-79.597	-149.238	0.266	0.021
-78.582	-200.000	0.031	0.284
-77.567	-200.000	0.061	0.281
-76.553	397.852	-0.201	-0.417
-75.538	-200.000	0.009	0.047
-74.524	-91.222	-0.154	0.044
-73.509	-200.000	-0.006	0.189
-72.494	50.778	0.062	0.058
-71.480	1.721	0.210	0.151
-70.465	-200.000	0.008	-0.175
-69.451	-200.000	-0.307	-0.001
-68.436	-200.000	0.008	-0.198
-67.422	-194.573	0.013	-0.000
-66.407	-143.654	-0.310	-0.029
-65.392	-102.932	-0.368	-0.087
-64.378	-200.000	0.031	0.422
-63.363	-29.840	0.160	-0.091
-62.349	-130.754	0.137	-0.018
-61.334	31.629	-0.528	-0.451
-60.319	-200.000	-0.009	0.610
-59.305	776.074	-0.279	-0.756
-58.290	230.479	0.413	0.671
-57.276	431.483	0.661	1.422
-56.261	-200.000	76.441	512.704
-55.246	519.702	1329.752	3094.161
-54.232	147.224	2564.510	3427.028
-53.217	110.573	2341.581	2795.373
-52.203	49.669	1955.400	1828.913
-51.188	43.669	1744.459	1584.737
-50.173	40.806	1699.214	1521.689
-49.159	55.369	1733.675	1665.164
-48.144	60.806	1752.378	1724.958
-47.130	43.771	1716.316	1559.713
-46.115	40.445	1702.537	1521.647
-45.100	40.336	1697.829	1516.545
-44.086	40.344	1695.523	1514.490
-43.071	40.293	1692.843	1511.642
-42.057	40.254	1690.756	1509.423
-41.042	40.247	1688.183	1507.010
-40.027	40.184	1686.632	1505.093
-39.013	40.299	1684.438	1503.947
-37.998	40.283	1683.249	1502.700
-36.984	40.308	1681.773	1501.517
-35.969	40.401	1680.169	1500.728
-34.954	40.603	1677.865	1500.140
-33.940	40.418	1676.325	1497.304
-32.925	40.429	1674.708	1495.884
-31.911	40.425	1672.704	1494.002
-30.896	40.476	1671.149	1492.942
-29.881	40.448	1669.398	1491.103
-28.867	40.407	1667.777	1489.290
-27.852	40.467	1666.224	1488.298
-26.838	40.422	1664.640	1486.483
-25.823	40.470	1663.655	1485.905
-24.809	40.505	1661.868	1484.514
-23.794	40.499	1660.481	1483.172
-22.779	40.498	1658.947	1481.736
-21.765	40.423	1658.000	1480.269
-20.750	40.447	1655.753	1478.384
-19.736	40.472	1654.621	1477.500
-18.721	40.491	1653.133	1476.256
-17.706	40.521	1651.514	1474.972
-16.692	40.442	1649.876	1472.865
-15.677	40.456	1648.671	1471.837
-14.663	40.558	1647.018	1471.057
-13.648	40.428	1646.129	1469.243
-12.633	40.538	1643.958	1468.056
-11.619	40.399	1643.110	1466.213
-10.604	40.420	1641.106	1464.526
-9.590	40.404	1639.964	1463.327
-8.575	40.462	1638.820	1462.675
-7.560	40.468	1637.665	1461.636
-6.546	40.405	1636.359	1459.947
-5.531	40.429	1635.267	1459.086
-4.517	40.388	1634.300	1457.863
-3.502	40.437	1632.764	1456.798
-2.487	40.480	1631.325	1455.774
-1.473	40.421	1619.866	1445.062
-0.458	37.901	1600.157	1409.236
0.556	34.386	1598.656	1372.670
1.571	31.756	1622.975	1374.168
2.586	30.881	1637.402	1379.786
3.600	26.790	1581.735	1303.415
4.615	14.827	1462.374	1124.920
5.629	4.365	1388.343	1000.714
6.644	2.464	1378.326	981.226
7.659	2.373	1376.674	979.382
8.673	2.298	1376.139	978.438
9.688	2.256	1373.920	976.502
10.702	1.988	1371.110	972.709
11.717	5.794	1379.380	1002.869
12.731	16.925	1400.589	1090.127
13.746	25.419	1414.821	1156.025
14.761	26.978	1416.410	1167.251
15.775	27.077	1416.262	1167.666
16.790	27.239	1415.574	1168.036
17.804	27.331	1415.057	1168.098
18.819	27.557	1414.567	1169.036
19.834	27.610	1414.185	1168.958
20.848	27.681	1412.820	1168.181
21.863	27.531	1412.461	1166.817
22.877	27.608	1411.525	1166.435
23.892	27.586	1411.101	1165.840
24.907	27.540	1409.962	1164.504
25.921	27.601	1409.041	1164.027
26.936	27.632	1407.959	1163.229
27.950	27.637	1406.821	1162.217
28.965	27.544	1406.183	1160.998
29.980	27.563	1404.607	1159.714
30.994	27.602	1403.205	1158.701
32.009	27.596	1401.999	1157.566
33.023	27.538	1401.121	1156.372
34.038	27.644	1399.935	1155.962
35.053	27.526	1399.160	1154.471
36.067	27.507	1398.032	1153.319
37.082	27.623	1396.611	1152.778
38.096	27.572	1395.710	1151.607
39.111	27.550	1395.198	1150.948
40.126	27.533	1394.583	1150.231
41.140	27.636	1393.863	1150.182
42.155	27.504	1393.886	1149.267
43.169	27.454	1394.142	1149.063
44.184	27.572	1393.658	1149.308
45.199	27.590	1393.064	1148.830
46.213	27.603	1392.179	1148.076
47.228	27.546	1391.477	1147.037
48.242	27.585	1390.050	1146.003
49.257	27.661	1388.627	1145.207
50.271	27.615	1387.041	1143.509
51.286	27.586	1385.590	1142.031
52.301	27.631	1384.501	1141.317
53.315	27.524	1384.082	1140.199
54.330	27.481	1383.354	1139.228
55.344	27.536	1382.038	1138.389
56.359	27.559	1380.754	1137.372
57.374	27.653	1379.669	1136.967
58.388	27.611	1379.357	1136.348
59.403	27.430	1379.539	1135.265
60.417	27.527	1378.188	1134.655
61.432	27.641	1377.515	1134.715
62.447	27.675	1376.334	1133.851
63.461	27.682	1375.425	1133.044
64.476	27.639	1374.187	1131.656
65.490	27.669	1372.917	1130.696
66.505	27.609	1371.842	1129.341
67.520	27.543	1370.821	1127.996
68.534	27.628	1369.610	1127.419
69.549	27.588	1368.683	1126.313
70.563	27.536	1367.505	1124.920
71.578	27.583	1366.647	1124.408
72.593	27.686	1365.525	1124.021
73.607	27.573	1365.288	1123.029
74.622	27.534	1364.430	1121.984
75.636	27.635	1363.794	1121.985
76.651	27.607	1363.141	1121.172
77.666	27.634	1362.544	1120.750
78.680	27.575	1361.996	1119.837
79.695	27.646	1361.266	1119.572
80.709	27.640	1360.389	1118.714
81.724	27.555	1359.961	1117.744
82.739	27.572	1358.854	1116.839
83.753	27.476	1358.170	1115.589
84.768	27.604	1356.664	1115.038
85.782	27.605	1355.559	1114.036
86.797	27.627	1354.615	1113.296
87.812	27.598	1353.325	1111.960
88.826	27.612	1352.500	1111.272
89.841	27.678	1350.907	1110.263
90.855	27.624	1350.121	1109.191
91.870	27.630	1349.376	1108.521
92.884	27.595	1348.562	1107.537
93.899	27.664	1347.912	1107.325
94.914	27.684	1346.995	1106.598
95.928	27.653	1346.259	1105.707
96.943	27.601	1345.816	1104.927
97.957	27.587	1345.272	1104.297
98.972	27.721	1343.736	1103.755
99.987	27.611	1342.925	1102.324
101.001	27.635	1341.793	1101.441
102.016	27.610	1341.114	1100.635
103.030	27.680	1339.860	1099.930
104.045	27.680	1339.030	1099.155
105.060	27.670	1337.939	1098.102
106.074	27.652	1337.516	1097.549
107.089	27.615	1336.563	1096.445
108.103	27.787	1334.827	1095.955
109.118	27.593	1334.509	1094.436
110.133	27.761	1332.938	1094.055
111.147	27.779	1331.759	1093.102
112.162	27.628	1331.153	1091.599
113.176	27.724	1330.003	1091.137
114.191	27.720	1329.293	1090.434
115.206	27.738	1327.929	1089.326
116.220	27.705	1326.611	1087.948
117.235	27.699	1325.760	1087.120
118.249	27.609	1324.869	1085.760
119.264	27.763	1323.779	1085.684
120.279	27.714	1323.079	1084.722
121.293	27.649	1322.938	1084.128
122.308	27.771	1321.729	1083.764
123.322	27.747	1321.224	1083.110
124.337	27.709	1320.327	1082.052
125.352	27.793	1319.178	1081.515
126.366	27.815	1318.261	1080.800
127.381	27.846	1317.491	1080.256
128.395	27.764	1316.778	1079.087
129.410	27.840	1315.648	1078.516
130.424	27.793	1315.298	1077.857
131.439	27.832	1314.029	1076.953
132.454	27.685	1313.743	1075.754
133.468	27.759	1313.283	1075.720
134.483	27.827	1312.489	1075.373
135.497	27.813	1311.615	1074.479
136.512	27.785	1310.735	1073.499
137.527	27.776	1309.572	1072.402
138.541	27.736	1308.296	1071.022
139.556	27.760	1307.007	1070.014
140.570	27.749	1306.381	1069.342
141.585	27.743	1305.155	1068.210
142.600	27.774	1303.729	1067.128
143.614	27.831	1302.948	1066.731
144.629	27.735	1301.924	1065.234
145.643	27.696	1300.923	1064.098
146.658	27.698	1299.877	1063.160
147.673	27.759	1298.763	1062.510
148.687	27.617	1297.960	1060.929
149.702	27.668	1296.480	1059.922
150.716	27.712	1296.009	1059.701
151.731	27.713	1294.841	1058.658
152.746	27.696	1293.740	1057.565
153.760	27.732	1292.664	1056.803
154.775	27.768	1291.564	1056.017
155.789	27.680	1290.771	1054.766
156.804	27.654	1289.964	1053.865
157.819	27.699	1289.003	1053.241
158.833	27.779	1288.151	1052.913
159.848	27.762	1287.584	1052.263
160.862	27.813	1286.971	1051.961
161.877	27.820	1285.923	1051.053
162.892	27.835	1285.020	1050.307
163.906	27.835	1284.682	1049.936
164.921	27.800	1283.866	1048.976
165.935	27.757	1283.378	1048.238
166.950	27.748	1282.675	1047.517
167.964	27.810	1281.770	1047.042
168.979	27.897	1281.247	1047.021
169.994	27.786	1280.806	1045.934
171.008	27.811	1280.161	1045.458
172.023	27.855	1279.307	1044.917
173.037	27.835	1278.761	1044.266
174.052	27.841	1278.273	1043.811
175.067	27.808	1277.376	1042.798
176.081	27.889	1276.137	1042.158
177.096	27.909	1275.454	1041.618
178.110	27.833	1274.255	1040.115
179.125	27.886	1273.518	1039.723
180.140	27.918	1272.434	1038.926
181.154	27.865	1271.242	1037.559
182.169	27.770	1270.442	1036.279
183.183	27.872	1269.075	1035.649
184.198	27.846	1268.499	1034.940
185.213	27.873	1267.286	1034.011
186.227	27.911	1266.406	1033.416
187.242	27.903	1265.595	1032.616
188.256	27.883	1264.839	1031.798
189.271	27.900	1263.732	1030.901
190.286	27.904	1263.472	1030.620
191.300	27.874	1262.563	1029.616
192.315	27.925	1261.907	1029.276
193.329	27.979	1261.549	1029.198
194.344	27.994	1261.169	1028.881
195.359	27.929	1260.685	1028.033
196.373	27.869	1260.420	1027.386
197.388	27.792	1260.061	1026.569
198.402	27.929	1259.270	1026.602
199.417	27.917	1259.401	1026.554
200.432	27.882	1258.340	1025.401
201.446	28.015	1257.466	1025.340
202.461	27.927	1257.054	1024.422
203.475	27.950	1256.607	1024.095
204.490	27.935	1255.148	1022.736
205.504	27.887	1254.498	1021.847
206.519	27.970	1253.422	1021.340
207.534	28.026	1252.260	1020.616
208.548	27.976	1251.480	1019.609
209.563	28.022	1250.531	1019.005
210.577	27.981	1249.769	1018.063
211.592	27.958	1249.203	1017.389
212.607	28.106	1248.558	1017.597
213.621	28.038	1247.542	1016.298
214.636	28.076	1246.750	1015.772
215.650	28.077	1245.651	1014.796
216.665	28.120	1244.745	1014.207
217.680	28.028	1244.282	1013.228
218.694	27.981	1243.210	1012.008
219.709	27.974	1242.965	1011.675
220.723	28.110	1241.575	1011.207
221.738	27.928	1241.331	1009.917
222.753	27.964	1240.744	1009.546
223.767	27.957	1240.345	1009.092
224.782	28.076	1239.584	1009.040
225.796	28.088	1239.059	1008.593
226.811	28.200	1237.939	1008.209
227.826	28.235	1237.375	1007.851
228.840	28.132	1236.916	1006.824
229.855	28.079	1236.859	1006.393
230.869	28.180	1235.547	1005.792
231.884	28.172	1234.771	1005.029
232.899	28.271	1233.959	1004.824
233.913	28.217	1233.339	1003.933
234.928	28.363	1232.600	1004.043
235.942	28.246	1232.540	1003.262
236.957	28.219	1231.779	1002.407
237.972	28.187	1230.952	1001.473
238.986	28.107	1230.671	1000.718
240.001	28.312	1229.724	1000.978
241.015	28.365	1228.846	1000.464
242.030	28.332	1228.202	999.671
243.045	28.331	1227.567	999.058
244.059	28.391	1226.422	998.368
245.074	28.426	1225.521	997.735
246.088	28.464	1225.039	997.463
247.103	28.331	1224.356	996.095
248.117	28.387	1223.547	995.652
249.132	28.319	1222.919	994.684
250.147	28.356	1222.181	994.195
251.161	28.424	1221.064	993.566
252.176	28.413	1220.560	993.011
253.190	28.409	1219.982	992.429
254.205	28.364	1219.286	991.536
255.220	28.481	1218.621	991.536
256.234	28.416	1217.962	990.565
257.249	28.498	1217.486	990.533
258.263	28.455	1217.095	989.894
259.278	28.422	1216.668	989.280
260.293	28.476	1216.361	989.234
261.307	28.432	1215.741	988.407
262.322	28.484	1214.800	987.831
263.336	28.496	1214.037	987.189
264.351	28.352	1213.784	986.118
265.366	28.443	1212.731	985.669
266.380	28.528	1212.220	985.622
267.395	28.612	1211.004	984.999
268.409	28.423	1210.783	983.717
269.424	28.390	1210.418	983.155
270.439	28.526	1209.654	983.176
271.453	28.596	1208.780	982.756
272.468	28.508	1208.405	981.891
273.482	28.436	1207.720	980.861
274.497	28.431	1207.311	980.415
275.512	28.585	1206.366	980.385
276.526	28.607	1205.709	979.880
277.541	28.547	1205.373	979.203
278.555	28.600	1204.522	978.707
279.570	28.614	1203.570	977.921
280.585	28.599	1202.992	977.287
281.599	28.507	1202.453	976.274
282.614	28.584	1201.455	975.781
283.628	28.695	1200.150	975.228
284.643	28.694	1199.381	974.510
285.657	28.552	1198.886	973.267
286.672	28.599	1197.480	972.289
287.687	28.646	1196.737	971.848
288.701	28.667	1196.332	971.547
289.716	28.717	1195.310	970.896
290.730	28.652	1195.157	970.341
291.745	28.712	1194.386	969.946
292.760	28.732	1193.851	969.532
293.774	28.753	1192.905	968.786
294.789	28.870	1192.414	968.919
295.803	28.856	1191.870	968.318
296.818	28.677	1191.346	966.863
297.833	28.889	1190.541	967.242
298.847	28.887	1190.156	966.834
299.862	28.752	1189.307	965.346
300.876	28.729	1188.620	964.585
301.891	28.890	1188.128	964.946
302.906	28.897	1187.339	964.253
303.920	28.950	1186.660	963.895
304.935	28.951	1185.799	963.119
305.949	28.819	1185.541	962.131
306.964	28.895	1184.787	961.831
307.979	28.973	1184.267	961.733
308.993	28.909	1183.465	960.659
310.008	28.951	1182.588	960.084
311.022	28.942	1182.212	959.646
312.037	28.995	1181.077	958.918
313.052	28.937	1180.208	957.825
314.066	28.917	1179.628	957.163
315.081	28.847	1178.856	956.089
316.095	28.862	1178.427	955.737
317.110	28.906	1177.815	955.384
318.125	29.057	1176.832	955.283
319.139	28.941	1176.436	954.274
320.154	28.904	1176.009	953.654
321.168	28.953	1175.380	953.313
322.183	28.928	1175.031	952.816
323.197	29.005	1174.049	952.336
324.212	29.044	1173.244	951.801
325.227	29.019	1173.085	951.457
326.241	29.150	1172.055	951.213
327.256	29.100	1171.813	950.673
328.270	29.061	1170.663	949.457
329.285	29.136	1169.881	949.124
330.300	29.037	1169.030	947.840
331.314	28.999	1168.461	947.099
332.329	29.229	1167.427	947.362
333.343	29.113	1167.030	946.361
334.358	29.135	1166.342	945.828
335.373	29.168	1165.212	945.000
336.387	29.319	1164.603	945.196
337.402	29.266	1163.985	944.336
338.416	29.212	1163.103	943.264
339.431	29.272	1162.624	943.099
340.446	29.286	1161.799	942.418
341.460	29.257	1161.580	942.007
342.475	29.216	1160.763	941.051
343.489	29.219	1159.865	940.255
344.504	29.249	1158.782	939.446
345.519	29.306	1157.933	938.966
346.533	29.388	1157.053	938.588
347.548	29.212	1156.922	937.503
348.562	29.355	1155.771	937.215
349.577	29.324	1154.866	936.239
350.592	29.202	1154.301	935.078
351.606	29.204	1153.825	934.619
352.621	29.250	1153.170	934.243
353.635	29.340	1152.619	934.167
354.650	29.387	1151.966	933.797
355.665	29.353	1151.725	933.344
356.679	29.518	1150.087	932.770
357.694	29.420	1149.912	932.050
358.708	29.466	1149.299	931.699
359.723	29.351	1148.835	930.662
360.738	29.383	1148.181	930.214
361.752	29.486	1147.571	930.154
362.767	29.418	1147.175	929.410
363.781	29.456	1146.780	929.199
364.796	29.505	1146.001	928.731
365.810	29.469	1145.072	927.717
366.825	29.569	1144.534	927.697
367.840	29.585	1144.509	927.677
368.854	29.646	1143.617	927.176
369.869	29.525	1142.878	925.892
370.883	29.604	1142.015	925.508
371.898	29.644	1141.503	925.208
372.913	29.642	1140.642	924.419
373.927	29.737	1139.898	924.210
374.942	29.674	1139.680	923.634
375.956	29.651	1139.201	923.050
376.971	29.639	1138.926	922.684
377.986	29.567	1138.301	921.741
379.000	29.725	1137.586	921.866
380.015	29.757	1137.340	921.747
381.029	29.720	1136.272	920.613
382.044	29.641	1135.831	919.780
383.059	29.706	1134.921	919.288
384.073	29.672	1134.464	918.664
385.088	29.626	1133.209	917.342
386.102	29.719	1132.856	917.435
387.117	29.824	1131.765	916.992
388.132	29.681	1131.201	915.744
389.146	29.754	1130.214	915.228
390.161	29.787	1129.888	915.043
391.175	29.764	1128.958	914.094
392.190	29.897	1128.270	914.112
393.205	29.852	1127.735	913.376
394.219	29.811	1126.858	912.384
395.234	29.815	1126.276	911.852
396.248	29.874	1125.177	911.173
397.263	29.976	1124.389	910.956
398.278	29.934	1123.833	910.220
399.292	29.911	1123.283	909.578
400.307	30.030	1122.507	909.454
401.321	29.998	1122.061	908.858
402.336	29.812	1121.871	907.711
403.350	29.910	1120.986	907.395
404.365	30.022	1120.491	907.461
405.380	29.972	1119.580	906.397
406.394	29.987	1118.683	905.663
407.409	30.079	1117.840	905.353
408.423	30.015	1117.382	904.588
409.438	30.063	1116.642	904.141
410.453	30.076	1115.883	903.513
411.467	30.026	1115.459	902.846
412.482	30.161	1114.404	902.570
413.496	30.095	1113.882	901.743
414.511	30.174	1113.148	901.452
415.526	30.081	1113.207	900.971
416.540	30.146	1112.528	900.658
417.555	30.084	1112.161	899.981
418.569	30.187	1111.201	899.620
419.584	30.144	1111.366	899.466
420.599	30.159	1110.704	898.927
421.613	89.573	1303.384	1378.929
422.628	84.050	1331.503	1379.069
