DTS Sentinel unit serial number:	SN413079Multiplexer serial number:	ORYXHardware model number:	OX4-SRSoftware version number:	ORYX F/W v4.00 Oryx Data Collector v3.7.2.0data status	okinstallation	princeton_trtdifferential loss correction	single-endedforward channel	channel 2reverse channel	N/Adate	2019/09/15time	22:03:35forward acquisition time	60.00reverse acquisition time	0.00gamma	496.2192k internal	0.2335k external	0.2335temperature offset calibration	0.9944default loss term (dB/km)	0.3790temperature slope calibration	1.0000multiplexer offset coefficient	1.0000multiplexer slope coefficient	1.0000fibre end	0.00T internal ref (°C)	29.78T ext. ref 1 (°C)	8.56T ext. ref 2 (°C)	22.95length (m)	temperature (°C)	Stokes	anti-Stokes-747.200	297.047	-0.150	-0.277
-746.185	467.565	-0.131	0.295
-745.171	198.094	0.045	0.069
-744.156	-200.000	-0.048	0.297
-743.142	139.775	0.128	-0.170
-742.127	-200.000	-0.040	0.215
-741.112	31.539	-0.054	0.047
-740.098	-95.330	-0.360	-0.097
-739.083	480.808	0.120	0.274
-738.069	800.000	-0.028	0.116
-737.054	76.510	-0.173	0.184
-736.039	-38.864	-0.210	-0.111
-735.025	-55.106	0.070	0.031
-734.010	-46.843	-0.126	-0.062
-732.996	-6.418	-0.201	-0.138
-731.981	-96.960	0.199	-0.052
-730.966	-200.000	0.029	0.141
-729.952	-200.000	-0.009	-0.050
-728.937	-200.000	0.021	-0.181
-727.923	-71.640	-0.134	-0.050
-726.908	-166.737	-0.257	0.011
-725.894	-120.807	-0.207	0.035
-724.879	-155.951	-0.169	0.011
-723.864	-80.419	-0.321	0.108
-722.850	-33.924	0.315	0.174
-721.835	-90.086	0.168	-0.049
-720.821	-200.000	-0.016	-0.293
-719.806	49.746	-0.070	-0.067
-718.791	-18.202	0.148	-0.093
-717.777	-39.611	0.108	0.057
-716.762	800.000	-0.034	0.125
-715.748	-106.017	-0.236	-0.053
-714.733	-200.000	0.005	-0.252
-713.718	170.025	-0.082	-0.118
-712.704	-101.818	-0.187	0.045
-711.689	72.900	0.184	0.193
-710.675	8.232	-0.110	0.083
-709.660	-10.728	0.132	-0.087
-708.645	-158.568	0.080	-0.005
-707.631	551.627	-0.158	0.380
-706.616	56.551	-0.157	0.154
-705.602	11.343	0.345	0.265
-704.587	-35.126	-0.116	-0.064
-703.572	-149.609	-0.131	-0.010
-702.558	-45.270	-0.118	-0.059
-701.543	169.385	-0.044	-0.064
-700.529	-172.084	0.338	0.011
-699.514	-41.915	0.349	0.180
-698.499	-2.588	0.051	-0.035
-697.485	13.388	-0.306	0.238
-696.470	58.324	-0.220	0.216
-695.456	-200.000	0.013	0.143
-694.441	292.434	0.140	-0.256
-693.426	324.984	-0.091	0.175
-692.412	-29.761	0.176	-0.101
-691.397	-200.000	-0.002	-0.310
-690.383	-71.311	0.121	0.045
-689.368	135.328	-0.134	-0.175
-688.354	217.765	-0.118	-0.189
-687.339	800.000	-0.060	0.199
-686.324	564.708	0.130	0.315
-685.310	-64.794	0.330	-0.134
-684.295	374.980	0.104	-0.213
-683.281	312.188	-0.143	-0.268
-682.266	51.322	-0.287	0.273
-681.251	223.639	0.148	0.240
-680.237	449.578	-0.021	0.045
-679.222	800.000	0.061	-0.255
-678.208	-200.000	-0.019	-0.209
-677.193	-200.000	-0.024	0.133
-676.178	232.824	0.098	-0.162
-675.164	800.000	0.042	0.133
-674.149	79.343	0.082	0.088
-673.135	35.178	-0.443	0.389
-672.120	161.904	-0.122	-0.171
-671.105	-200.000	0.028	-0.145
-670.091	-161.166	-0.068	0.004
-669.076	256.417	-0.200	-0.343
-668.062	-200.000	0.016	-0.325
-667.047	-200.000	0.006	-0.129
-666.032	-111.798	0.309	0.063
-665.018	-200.000	-0.051	0.326
-664.003	-89.597	0.219	-0.064
-662.989	-33.905	-0.115	-0.064
-661.974	106.832	0.193	-0.229
-660.959	-200.000	0.040	-0.254
-659.945	1.184	0.059	-0.042
-658.930	-85.094	0.084	0.026
-657.916	-81.890	0.071	0.023
-656.901	-18.919	0.093	-0.058
-655.886	-87.596	-0.371	-0.112
-654.872	-138.519	-0.312	0.034
-653.857	-200.000	0.007	0.030
-652.843	-86.676	-0.041	-0.013
-651.828	470.117	0.070	-0.157
-650.814	145.247	-0.272	0.364
-649.799	93.738	-0.143	0.162
-648.784	13.138	-0.376	0.292
-647.770	172.770	-0.217	0.313
-646.755	0.565	0.210	-0.150
-645.741	71.181	0.069	-0.071
-644.726	464.481	-0.126	0.281
-643.711	800.000	-0.002	-0.007
-642.697	800.000	-0.095	-0.277
-641.682	-119.842	0.231	0.040
-640.668	800.000	0.138	-0.513
-639.653	-20.528	-0.274	0.168
-638.638	47.974	-0.303	-0.283
-637.624	136.367	0.187	-0.245
-636.609	-52.164	0.056	0.026
-635.595	323.441	-0.095	-0.181
-634.580	-200.000	-0.007	0.107
-633.565	-85.232	0.194	-0.061
-632.551	-126.273	0.210	0.031
-631.536	17.458	-0.173	-0.137
-630.522	-184.741	-0.299	0.005
-629.507	-21.375	-0.131	0.080
-628.492	800.000	0.075	0.209
-627.478	31.507	0.252	-0.217
-626.463	-200.000	0.069	0.343
-625.449	128.129	-0.345	-0.439
-624.434	-200.000	0.008	-0.265
-623.419	-139.559	0.107	-0.011
-622.405	181.494	-0.132	0.194
-621.390	70.027	-0.123	0.127
-620.376	-69.738	0.104	-0.040
-619.361	-136.627	-0.183	0.021
-618.346	-124.973	-0.153	-0.024
-617.332	120.688	0.201	0.249
-616.317	-200.000	-0.002	0.014
-615.303	800.000	0.052	-0.186
-614.288	70.602	-0.262	-0.271
-613.273	-200.000	-0.004	0.023
-612.259	637.298	0.021	0.054
-611.244	121.415	-0.119	-0.148
-610.230	100.919	-0.150	0.174
-609.215	-200.000	0.000	0.029
-608.201	124.258	-0.126	0.158
-607.186	586.857	-0.029	0.072
-606.171	175.215	-0.177	-0.256
-605.157	-200.000	-0.024	0.151
-604.142	-18.949	0.114	-0.071
-603.128	-85.935	-0.082	-0.025
-602.113	-186.373	-0.271	0.004
-601.098	-200.000	-0.069	-0.327
-600.084	-142.016	-0.191	0.019
-599.069	63.611	0.175	-0.176
-598.055	-200.000	-0.029	-0.315
-597.040	-43.367	-0.254	0.128
-596.025	800.000	0.057	0.182
-595.011	-33.029	-0.239	-0.133
-593.996	-54.742	-0.374	-0.169
-592.982	-108.770	-0.314	-0.067
-591.967	166.857	-0.216	0.306
-590.952	313.722	0.031	0.058
-589.938	112.617	0.104	-0.125
-588.923	105.753	-0.112	0.132
-587.909	-131.056	0.168	-0.022
-586.894	465.065	0.107	-0.239
-585.879	490.602	-0.078	-0.177
-584.865	-13.725	-0.195	0.126
-583.850	252.174	0.061	0.104
-582.836	387.287	0.160	-0.331
-581.821	-174.038	0.125	-0.004
-580.806	-166.179	-0.273	0.012
-579.792	-2.064	0.092	-0.065
-578.777	203.408	0.068	-0.105
-577.763	108.055	0.179	0.213
-576.748	-200.000	0.026	0.170
-575.733	767.691	0.190	-0.515
-574.719	4.346	0.191	-0.140
-573.704	427.454	-0.107	0.230
-572.690	-52.325	0.212	0.098
-571.675	19.855	0.028	0.023
-570.661	432.199	-0.111	0.241
-569.646	13.392	0.242	0.187
-568.631	555.948	-0.071	0.172
-567.617	-132.208	0.236	-0.031
-566.602	-70.378	-0.125	0.047
-565.588	33.364	0.255	-0.221
-564.573	136.923	-0.083	-0.108
-563.558	-94.460	0.223	0.061
-562.544	-200.000	0.007	0.076
-561.529	155.556	0.098	-0.135
-560.515	-117.409	0.052	-0.009
-559.500	-51.691	-0.265	-0.123
-558.485	118.484	0.218	-0.268
-557.471	-200.000	0.032	-0.508
-556.456	-70.334	0.130	0.049
-555.442	800.000	0.047	0.196
-554.427	-136.145	-0.047	0.005
-553.412	259.988	-0.059	-0.102
-552.398	368.012	-0.072	-0.145
-551.383	800.000	-0.060	0.249
-550.369	-200.000	-0.039	-0.192
-549.354	-200.000	0.029	-0.224
-548.339	77.198	0.180	-0.190
-547.325	321.609	-0.075	0.143
-546.310	74.012	-0.260	-0.272
-545.296	-128.090	-0.128	-0.018
-544.281	800.000	-0.075	0.293
-543.266	80.957	0.076	-0.082
-542.252	636.119	0.126	-0.318
-541.237	800.000	-0.023	-0.066
-540.223	-155.414	0.172	0.011
-539.208	35.023	-0.118	0.103
-538.193	398.221	-0.056	0.116
-537.179	-159.610	-0.272	0.015
-536.164	-200.000	0.064	0.340
-535.150	-40.930	0.201	-0.104
-534.135	-200.000	0.024	0.189
-533.121	-150.655	0.130	-0.010
-532.106	-66.163	0.384	0.152
-531.091	340.620	-0.043	-0.084
-530.077	-159.927	-0.277	0.015
-529.062	800.000	-0.010	0.032
-528.048	-164.964	0.287	-0.013
-527.033	-165.034	-0.089	-0.004
-526.018	347.992	0.055	0.107
-525.004	-144.742	-0.227	0.021
-523.989	800.000	0.083	-0.310
-522.975	-63.866	-0.234	-0.095
-521.960	-39.692	0.477	0.249
-520.945	166.720	0.216	0.306
-519.931	-143.986	0.196	0.018
-518.916	-65.370	0.163	-0.065
-517.902	-165.697	-0.028	-0.001
-516.887	237.497	-0.118	0.195
-515.872	-52.558	0.111	0.051
-514.858	162.597	-0.215	-0.301
-513.843	-200.000	-0.005	-0.350
-512.829	171.969	0.103	0.148
-511.814	-200.000	-0.008	-0.078
-510.799	-160.794	-0.154	-0.008
-509.785	61.794	0.382	0.378
-508.770	124.694	0.087	-0.109
-507.756	-200.000	-0.005	-0.263
-506.741	-160.009	-0.144	-0.008
-505.726	-9.504	0.150	-0.100
-504.712	-200.000	-0.066	0.326
-503.697	384.329	0.102	0.209
-502.683	-136.700	0.583	0.067
-501.668	90.416	-0.174	0.194
-500.653	7.826	-0.431	0.321
-499.639	23.896	0.165	0.135
-498.624	24.529	0.226	0.186
-497.610	-164.779	-0.262	-0.012
-496.595	-120.458	0.358	0.061
-495.581	-200.000	0.032	0.240
-494.566	800.000	-0.054	-0.151
-493.551	-52.293	-0.307	0.142
-492.537	800.000	-0.047	0.153
-491.522	-123.066	0.221	0.035
-490.508	800.000	0.082	-0.292
-489.493	59.013	0.102	0.100
-488.478	-82.583	-0.238	-0.077
-487.464	-72.169	-0.144	0.053
-486.449	179.248	-0.147	-0.214
-485.435	-200.000	0.025	-0.476
-484.420	72.269	0.031	0.033
-483.405	-95.088	-0.288	0.077
-482.391	-117.961	-0.136	-0.024
-481.376	-34.302	0.210	-0.115
-480.362	321.072	-0.107	-0.202
-479.347	34.380	0.208	0.181
-478.332	-65.579	0.198	-0.079
-477.318	-7.259	0.164	0.110
-476.303	105.280	-0.195	-0.229
-475.289	-111.106	-0.256	0.052
-474.274	359.004	-0.057	-0.113
-473.259	242.020	-0.185	0.307
-472.245	144.995	-0.019	0.025
-471.230	191.632	0.067	0.100
-470.216	800.000	0.122	-0.482
-469.201	26.752	0.073	-0.061
-468.186	83.925	0.034	0.037
-467.172	115.902	0.125	-0.152
-466.157	-200.000	-0.058	-0.325
-465.143	212.982	-0.066	0.104
-464.128	114.312	-0.097	0.118
-463.113	494.602	-0.056	0.129
-462.099	196.350	-0.036	-0.054
-461.084	-200.000	-0.049	-0.395
-460.070	-132.503	-0.094	-0.012
-459.055	-200.000	-0.007	0.222
-458.040	235.202	-0.121	-0.198
-457.026	-200.000	-0.038	0.241
-456.011	-200.000	0.022	0.558
-454.997	-85.154	-0.504	0.157
-453.982	800.000	0.107	0.311
-452.968	67.569	0.217	0.220
-451.953	-200.000	-0.094	-0.414
-450.938	-84.344	-0.192	0.060
-449.924	-105.775	0.076	0.017
-448.909	-38.910	-0.192	-0.100
-447.895	9.908	-0.182	0.137
-446.880	800.000	-0.061	-0.166
-445.865	-200.000	-0.016	0.310
-444.851	-45.704	-0.257	-0.126
-443.836	-115.271	0.100	0.019
-442.822	-67.803	-0.293	-0.114
-441.807	-91.802	-0.054	0.015
-440.792	-62.541	0.148	-0.061
-439.778	-92.755	-0.130	-0.036
-438.763	-200.000	-0.033	-0.216
-437.749	745.876	-0.050	-0.133
-436.734	800.000	-0.060	0.227
-435.719	-106.189	0.210	-0.047
-434.705	-140.106	0.118	0.012
-433.690	245.002	0.152	-0.253
-432.676	-78.007	-0.194	0.066
-431.661	-91.829	0.248	-0.070
-430.646	-28.869	-0.252	-0.144
-429.632	-69.140	-0.068	0.026
-428.617	-200.000	0.024	-0.164
-427.603	228.517	0.205	0.331
-426.588	-19.223	-0.085	0.052
-425.573	13.877	0.322	-0.249
-424.559	800.000	-0.013	0.055
-423.544	-135.238	0.373	0.044
-422.530	-200.000	-0.045	0.226
-421.515	-104.238	0.350	0.081
-420.500	365.119	0.095	0.191
-419.486	-51.306	-0.168	0.078
-418.471	-200.000	-0.019	0.194
-417.457	19.515	0.213	-0.169
-416.442	-57.321	-0.083	0.036
-415.428	-200.000	0.035	-0.328
-414.413	800.000	-0.032	-0.114
-413.398	138.029	-0.163	0.211
-412.384	-200.000	0.011	0.120
-411.369	-3.919	-0.255	0.176
-410.355	222.767	-0.158	0.252
-409.340	800.000	0.026	-0.101
-408.325	800.000	0.041	0.124
-407.311	-90.530	0.306	0.088
-406.296	-34.206	-0.326	-0.178
-405.282	-77.856	0.140	-0.048
-404.267	-68.964	-0.385	-0.147
-403.252	-200.000	-0.007	-0.261
-402.238	-183.125	-0.323	-0.006
-401.223	-200.000	-0.067	-0.314
-400.209	-200.000	0.103	0.496
-399.194	-22.189	-0.411	0.247
-398.179	-109.564	0.250	-0.052
-397.165	27.812	-0.238	0.198
-396.150	-154.435	0.357	0.024
-395.136	-80.213	0.117	0.039
-394.121	71.519	0.220	0.226
-393.106	-200.000	-0.019	0.236
-392.092	196.702	-0.132	-0.199
-391.077	-145.860	-0.247	-0.022
-390.063	510.116	-0.085	-0.197
-389.048	800.000	-0.064	0.211
-388.033	61.046	-0.194	0.191
-387.019	74.272	0.235	0.245
-386.004	276.392	0.062	-0.109
-384.990	-200.000	0.061	-0.287
-383.975	18.968	0.252	-0.200
-382.960	800.000	-0.098	-0.291
-381.946	-140.003	-0.342	-0.036
-380.931	-200.000	0.040	0.329
-379.917	800.000	0.074	-0.292
-378.902	-75.230	-0.263	0.093
-377.888	-142.708	0.412	0.040
-376.873	-200.000	0.044	-0.234
-375.858	141.580	-0.216	-0.284
-374.844	-110.442	0.037	-0.008
-373.829	5.831	0.275	-0.201
-372.815	-52.034	-0.046	0.021
-371.800	-18.087	-0.072	0.045
-370.785	106.245	0.083	-0.098
-369.771	-130.560	-0.277	0.037
-368.756	-126.879	-0.131	0.019
-367.742	-200.000	-0.015	-0.143
-366.727	-200.000	-0.021	-0.110
-365.712	291.628	0.209	-0.376
-364.698	639.536	0.153	-0.386
-363.683	531.060	0.166	-0.388
-362.669	58.635	-0.274	-0.266
-361.654	327.971	0.345	0.656
-360.639	-181.517	-0.387	0.007
-359.625	123.407	-0.175	-0.218
-358.610	800.000	0.052	0.224
-357.596	-33.497	0.484	-0.264
-356.581	-132.627	-0.322	-0.041
-355.566	800.000	-0.063	-0.236
-354.552	200.518	0.190	0.289
-353.537	-130.995	0.306	0.040
-352.523	679.070	-0.156	-0.401
-351.508	38.256	0.346	0.305
-350.493	125.656	0.115	-0.144
-349.479	495.994	0.078	0.178
-348.464	-10.151	0.411	0.270
-347.450	-156.222	-0.060	-0.004
-346.435	308.600	0.168	-0.311
-345.420	10.135	0.072	-0.054
-344.406	-23.947	-0.124	-0.073
-343.391	-200.000	-0.049	-0.487
-342.377	150.217	0.091	-0.122
-341.362	-200.000	-0.025	0.463
-340.348	-85.240	0.021	-0.007
-339.333	-144.545	-0.472	-0.043
-338.318	-200.000	0.044	0.190
-337.304	800.000	0.016	-0.060
-336.289	-200.000	-0.061	0.287
-335.275	68.947	0.193	-0.196
-334.260	-118.812	-0.163	-0.028
-333.245	800.000	0.061	-0.237
-332.231	-200.000	0.010	-0.124
-331.216	-90.241	-0.318	0.091
-330.202	498.783	0.154	-0.351
-329.187	-178.585	-0.196	-0.004
-328.172	-93.143	-0.279	0.077
-327.158	2.165	0.136	0.097
-326.143	-61.226	-0.018	0.007
-325.129	43.392	0.168	0.152
-324.114	165.059	0.096	0.134
-323.099	-200.000	0.004	-0.017
-322.085	-31.868	0.081	0.045
-321.070	-200.000	0.002	0.167
-320.056	-115.632	-0.073	-0.014
-319.041	-21.386	-0.229	0.138
-318.026	21.884	0.175	0.141
-317.012	2.550	-0.203	-0.145
-315.997	-1.835	0.411	0.286
-314.983	-200.000	-0.002	-0.028
-313.968	-14.788	0.255	-0.162
-312.953	9.877	0.041	-0.030
-311.939	58.817	0.017	0.017
-310.924	800.000	0.036	0.098
-309.910	-144.924	-0.395	0.036
-308.895	-19.593	0.186	-0.114
-307.880	40.115	-0.216	-0.192
-306.866	175.463	0.037	0.053
-305.851	52.545	0.122	-0.116
-304.837	-144.277	0.304	0.028
-303.822	85.476	-0.093	-0.101
-302.807	-18.782	0.191	0.117
-301.793	17.876	-0.006	0.005
-300.778	-0.715	0.074	-0.052
-299.764	800.000	-0.056	0.178
-298.749	800.000	0.063	-0.249
-297.735	800.000	0.034	-0.127
-296.720	-42.730	0.349	0.175
-295.705	483.270	-0.091	0.205
-294.691	800.000	-0.078	-0.266
-293.676	-143.396	0.258	0.024
-292.662	-200.000	0.023	0.135
-291.647	-200.000	0.036	0.317
-290.632	-108.334	-0.201	-0.043
-289.618	800.000	-0.084	0.285
-288.603	-166.037	0.222	0.009
-287.589	-117.614	0.006	-0.001
-286.574	-200.000	0.030	-0.217
-285.559	-37.181	0.061	0.032
-284.545	66.401	0.135	-0.135
-283.530	310.094	-0.196	0.361
-282.516	120.791	-0.235	0.288
-281.501	800.000	0.066	0.200
-280.486	246.550	0.085	-0.141
-279.472	37.212	0.052	0.046
-278.457	176.168	-0.047	0.067
-277.443	-200.000	-0.004	0.238
-276.428	20.733	-0.193	-0.154
-275.413	397.520	0.096	-0.198
-274.399	17.614	0.095	-0.074
-273.384	26.459	-0.128	-0.105
-272.370	-31.992	0.056	-0.031
-271.355	47.466	-0.140	0.129
-270.340	66.826	-0.065	-0.065
-269.326	-200.000	0.058	-0.292
-268.311	122.367	0.050	0.062
-267.297	-200.000	0.027	0.157
-266.282	44.077	-0.176	0.159
-265.267	-169.037	-0.418	-0.015
-264.253	-200.000	-0.028	0.189
-263.238	140.562	0.128	0.166
-262.224	800.000	-0.037	-0.118
-261.209	-191.112	0.193	0.002
-260.195	-54.122	0.185	0.083
-259.180	222.421	0.110	0.174
-258.165	100.772	0.203	0.232
-257.151	207.966	0.180	0.277
-256.136	-50.932	-0.120	0.055
-255.122	800.000	0.074	-0.267
-254.107	37.204	0.212	0.185
-253.092	305.477	-0.052	0.094
-252.078	506.545	-0.102	0.233
-251.063	-200.000	-0.004	-0.191
-250.049	-200.000	0.017	0.173
-249.034	664.356	-0.060	0.152
-248.019	800.000	0.043	0.171
-247.005	218.883	-0.063	0.099
-245.990	-26.195	-0.218	-0.126
-244.976	800.000	-0.038	-0.161
-243.961	282.957	0.132	0.234
-242.946	800.000	0.050	0.209
-241.932	465.122	-0.124	-0.273
-240.917	588.747	0.097	0.234
-239.903	143.983	-0.277	0.364
-238.888	290.484	-0.176	0.315
-237.873	-87.053	0.107	-0.032
-236.859	800.000	0.084	-0.265
-235.844	193.699	-0.096	-0.143
-234.830	-70.106	0.139	-0.052
-233.815	-200.000	0.014	-0.072
-232.800	80.196	-0.189	0.201
-231.786	149.286	0.327	-0.436
-230.771	-46.408	0.300	-0.145
-229.757	-40.004	-0.398	-0.204
-228.742	82.117	0.103	0.110
-227.727	-200.000	-0.015	-0.150
-226.713	170.161	0.090	0.126
-225.698	52.816	0.063	0.059
-224.684	-96.130	0.333	-0.087
-223.669	800.000	-0.153	0.472
-222.655	78.126	0.206	-0.217
-221.640	-200.000	0.004	-0.350
-220.625	74.623	-0.263	0.273
-219.611	-122.578	0.125	-0.020
-218.596	122.480	-0.145	0.178
-217.582	788.513	-0.044	0.118
-216.567	49.055	0.226	-0.209
-215.552	-30.328	-0.138	0.077
-214.538	13.678	0.129	0.098
-213.523	-145.384	-0.206	-0.018
-212.509	-19.289	0.141	0.086
-211.494	800.000	0.106	0.354
-210.479	236.224	-0.100	0.162
-209.465	-183.979	-0.370	-0.006
-208.450	-200.000	-0.023	-0.122
-207.436	-159.466	0.355	-0.019
-206.421	336.204	-0.118	-0.225
-205.406	-5.925	-0.182	-0.123
-204.392	-35.663	0.217	-0.116
-203.377	140.328	0.067	0.087
-202.363	-7.924	-0.244	0.162
-201.348	27.211	0.173	-0.143
-200.333	-200.000	-0.002	0.167
-199.319	-200.000	0.023	-0.234
-198.304	-35.180	0.204	-0.109
-197.290	-74.064	0.210	-0.075
-196.275	-200.000	-0.070	-0.305
-195.260	9.116	0.192	-0.143
-194.246	-200.000	-0.002	0.067
-193.231	63.275	0.112	0.110
-192.217	73.734	0.224	-0.231
-191.202	-60.485	-0.069	0.029
-190.187	-200.000	-0.013	-0.128
-189.173	50.078	-0.048	-0.044
-188.158	-21.974	0.131	0.078
-187.144	-60.655	-0.057	0.024
-186.129	32.143	-0.199	-0.168
-185.114	-89.683	-0.266	0.077
-184.100	133.733	-0.022	-0.028
-183.085	-145.081	0.239	0.021
-182.071	800.000	-0.031	0.089
-181.056	-200.000	-0.022	-0.232
-180.042	-200.000	-0.012	0.000
-179.027	800.000	-0.017	-0.062
-178.012	-200.000	0.021	-0.247
-176.998	-189.592	0.181	0.002
-175.983	300.326	-0.262	0.475
-174.969	800.000	0.072	0.227
-173.954	-43.758	-0.145	-0.072
-172.939	-45.095	0.104	0.051
-171.925	-200.000	-0.019	0.193
-170.910	-41.489	-0.289	0.146
-169.896	-67.120	-0.177	0.068
-168.881	0.731	0.057	-0.040
-167.866	123.265	0.147	0.181
-166.852	82.116	-0.218	0.233
-165.837	-17.220	0.242	0.150
-164.823	-200.000	0.000	-0.144
-163.808	-200.000	0.003	0.078
-162.793	-90.764	-0.270	0.076
-161.779	104.866	-0.080	-0.093
-160.764	-119.882	0.287	-0.049
-159.750	-200.000	0.029	0.151
-158.735	-200.000	0.005	0.306
-157.720	-126.368	0.206	0.030
-156.706	800.000	0.095	-0.383
-155.691	257.456	-0.199	-0.335
-154.677	-200.000	-0.012	0.201
-153.662	800.000	0.010	0.036
-152.647	118.487	0.110	-0.133
-151.633	-103.211	0.230	0.053
-150.618	-200.000	-0.024	0.207
-149.604	604.203	-0.037	0.090
-148.589	185.166	-0.061	-0.089
-147.574	-103.411	0.139	0.032
-146.560	800.000	0.063	-0.248
-145.545	-161.924	0.685	0.034
-144.531	-56.455	-0.257	-0.112
-143.516	-128.093	-0.215	-0.030
-142.502	-46.291	-0.215	0.104
-141.487	18.355	0.097	0.076
-140.472	-37.514	0.239	-0.125
-139.458	-200.000	0.032	0.241
-138.443	-24.836	-0.089	-0.052
-137.429	-166.528	-0.334	0.014
-136.414	141.953	-0.088	-0.115
-135.399	-178.732	-0.348	-0.008
-134.385	-200.000	-0.005	0.162
-133.370	-96.711	0.305	-0.079
-132.356	-25.222	-0.114	-0.066
-131.341	-38.226	0.257	0.133
-130.326	-200.000	-0.017	0.269
-129.312	131.148	0.208	-0.262
-128.297	345.234	0.085	0.164
-127.283	-200.000	-0.010	0.232
-126.268	-45.115	0.183	-0.089
-125.253	800.000	0.126	-0.478
-124.239	426.631	0.013	-0.027
-123.224	106.349	-0.084	-0.097
-122.210	-128.865	0.096	-0.013
-121.195	538.575	0.091	-0.211
-120.180	-200.000	0.026	0.113
-119.166	651.205	0.142	-0.358
-118.151	187.187	0.072	0.106
-117.137	84.284	0.110	-0.117
-116.122	778.142	0.173	0.465
-115.107	800.000	-0.085	0.265
-114.093	-200.000	-0.032	0.177
-113.078	-200.000	-0.008	0.156
-112.064	556.246	-0.041	0.096
-111.049	314.860	0.179	-0.330
-110.034	243.360	0.081	0.133
-109.020	-51.950	0.024	0.011
-108.005	94.496	0.056	-0.062
-106.991	-200.000	-0.032	0.292
-105.976	46.741	0.127	0.116
-104.962	-84.964	-0.183	-0.056
-103.947	-63.477	-0.120	-0.049
-102.932	15.523	0.268	-0.207
-101.918	800.000	0.012	0.050
-100.903	-127.515	0.059	-0.008
-99.889	-152.564	-0.209	0.015
-98.874	-96.201	0.229	-0.059
-97.859	-200.000	0.039	0.218
-96.845	350.481	0.098	-0.190
-95.830	321.917	-0.106	0.198
-94.816	672.254	-0.192	0.489
-93.801	-46.494	0.211	0.101
-92.786	15.790	0.288	0.222
-91.772	800.000	0.087	0.279
-90.757	31.844	0.367	0.309
-89.743	741.851	0.100	0.263
-88.728	-52.086	0.303	0.138
-87.713	-116.954	-0.198	0.035
-86.699	436.346	-0.103	0.220
-85.684	-200.000	-0.075	0.337
-84.670	-6.927	-0.055	-0.037
-83.655	260.856	0.098	-0.167
-82.640	135.513	-0.098	-0.125
-81.626	3.728	-0.415	-0.297
-80.611	-68.685	0.081	-0.031
-79.597	800.000	-0.025	0.084
-78.582	-2.664	-0.128	-0.088
-77.567	-200.000	-0.008	0.332
-76.553	-24.273	-0.495	0.289
-75.538	-200.000	-0.010	-0.135
-74.524	-200.000	-0.019	-0.210
-73.509	522.371	0.076	0.174
-72.494	-68.443	-0.138	-0.052
-71.480	-200.000	0.012	-0.091
-70.465	1.210	-0.230	-0.161
-69.451	93.038	0.192	0.213
-68.436	-101.570	0.155	-0.037
-67.422	-200.000	0.029	0.200
-66.407	800.000	0.087	0.257
-65.392	-200.000	0.028	-0.164
-64.378	621.602	0.140	0.345
-63.363	78.693	-0.290	0.304
-62.349	163.053	0.119	0.163
-61.334	44.890	-1.002	-0.902
-60.319	-24.727	0.525	0.305
-59.305	547.817	-0.430	-1.006
-58.290	187.043	0.685	0.999
-57.276	504.887	0.607	1.375
-56.261	-200.000	108.648	603.854
-55.246	461.029	1482.136	3231.048
-54.232	148.257	2666.257	3519.469
-53.217	101.028	2271.596	2584.292
-52.203	38.789	1886.872	1647.487
-51.188	33.101	1678.567	1422.881
-50.173	30.491	1635.834	1367.427
-49.159	50.177	1690.289	1560.705
-48.144	50.469	1705.724	1577.076
-47.130	32.545	1663.860	1406.041
-46.115	29.820	1649.099	1373.318
-45.100	29.712	1644.206	1368.387
-44.086	29.700	1641.246	1365.779
-43.071	29.726	1638.658	1363.762
-42.057	29.667	1636.304	1361.317
-41.042	29.656	1635.152	1360.222
-40.027	29.701	1632.710	1358.466
-39.013	29.659	1630.426	1356.207
-37.998	29.611	1629.200	1354.781
-36.984	29.677	1627.620	1353.897
-35.969	29.840	1626.173	1353.835
-34.954	29.764	1624.608	1351.922
-33.940	29.835	1622.636	1350.744
-32.925	29.742	1621.336	1348.927
-31.911	29.694	1619.723	1347.184
-30.896	29.706	1618.597	1346.282
-29.881	29.765	1616.413	1344.840
-28.867	29.783	1614.881	1343.645
-27.852	29.770	1613.152	1342.053
-26.838	29.735	1611.906	1340.715
-25.823	29.728	1610.941	1339.807
-24.809	29.851	1609.181	1339.179
-23.794	29.725	1607.872	1337.123
-22.779	29.909	1606.108	1336.937
-21.765	29.781	1604.642	1334.738
-20.750	29.765	1603.384	1333.521
-19.736	29.824	1602.131	1332.854
-18.721	29.745	1600.903	1331.210
-17.706	29.891	1599.010	1330.630
-16.692	29.896	1596.966	1328.916
-15.677	29.875	1595.856	1327.787
-14.663	29.880	1594.764	1326.862
-13.648	29.812	1593.333	1325.131
-12.633	29.848	1591.597	1323.895
-11.619	29.766	1590.630	1322.449
-10.604	29.794	1589.218	1321.427
-9.590	29.823	1587.792	1320.392
-8.575	29.806	1586.491	1319.137
-7.560	29.792	1585.548	1318.202
-6.546	29.874	1583.858	1317.326
-5.531	29.838	1583.170	1316.448
-4.517	29.771	1582.003	1314.950
-3.502	29.800	1580.994	1314.261
-2.487	29.824	1579.401	1313.059
-1.473	29.390	1567.147	1299.762
-0.458	26.201	1547.591	1261.255
0.556	20.053	1548.024	1227.221
1.571	17.462	1570.885	1226.583
2.586	16.978	1582.785	1232.252
3.600	15.963	1533.004	1186.246
4.615	12.723	1434.037	1088.190
5.629	9.320	1378.294	1024.158
6.644	8.518	1371.056	1013.605
7.659	8.660	1369.741	1013.445
8.673	8.566	1368.848	1012.100
9.688	8.486	1366.254	1009.584
10.702	8.376	1363.253	1006.582
11.717	9.982	1365.599	1018.359
12.731	13.805	1373.065	1048.020
13.746	16.847	1376.855	1070.062
14.761	17.106	1376.985	1071.700
15.775	16.233	1373.808	1063.632
16.790	15.096	1371.385	1054.507
17.804	14.289	1368.676	1047.258
18.819	13.790	1367.606	1043.211
19.834	13.576	1365.991	1040.542
20.848	13.323	1364.836	1037.983
21.863	13.058	1363.635	1035.313
22.877	12.977	1362.631	1033.951
23.892	12.965	1361.649	1033.039
24.907	12.902	1361.082	1032.125
25.921	12.981	1359.800	1031.555
26.936	12.917	1359.130	1030.554
27.950	13.039	1357.960	1030.340
28.965	13.115	1356.950	1029.954
29.980	13.125	1355.871	1029.109
30.994	13.217	1354.613	1028.636
32.009	13.254	1353.550	1027.967
33.023	13.125	1352.350	1026.162
34.038	13.144	1351.253	1025.356
35.053	13.144	1349.795	1024.161
36.067	13.031	1348.990	1022.760
37.082	13.156	1347.623	1022.407
38.096	13.160	1346.507	1021.490
39.111	13.076	1346.324	1020.743
40.126	13.084	1345.143	1019.806
41.140	12.789	1344.659	1017.531
42.155	12.875	1343.872	1017.374
43.169	12.820	1344.042	1017.071
44.184	12.805	1343.596	1016.554
45.199	12.929	1342.655	1016.514
46.213	12.970	1342.011	1016.188
47.228	12.961	1341.306	1015.513
48.242	13.092	1339.802	1015.086
49.257	13.079	1338.651	1014.045
50.271	13.026	1337.317	1012.622
51.286	13.056	1335.930	1011.668
52.301	13.039	1334.495	1010.385
53.315	12.983	1333.549	1009.240
54.330	12.974	1332.617	1008.384
55.344	12.986	1331.463	1007.499
56.359	12.927	1330.114	1006.029
57.374	12.859	1329.532	1005.084
58.388	12.769	1328.970	1004.020
59.403	12.853	1328.045	1003.749
60.417	12.845	1327.383	1003.107
61.432	12.878	1326.442	1002.510
62.447	12.805	1325.703	1001.419
63.461	12.749	1324.329	999.954
64.476	12.713	1323.359	998.911
65.490	12.801	1321.831	998.206
66.505	12.785	1320.866	997.288
67.520	12.802	1319.610	996.356
68.534	12.808	1318.463	995.437
69.549	12.770	1317.884	994.686
70.563	12.780	1316.091	993.306
71.578	12.779	1315.438	992.716
72.593	12.720	1314.629	991.665
73.607	12.743	1313.940	991.195
74.622	12.746	1312.667	990.161
75.636	12.743	1312.310	989.786
76.651	12.740	1311.579	989.133
77.666	12.701	1310.779	988.206
78.680	12.625	1311.374	988.111
79.695	12.724	1309.887	987.499
80.709	12.778	1309.402	987.367
81.724	12.879	1308.224	986.997
82.739	12.980	1307.258	986.785
83.753	12.964	1306.789	986.248
84.768	13.013	1305.030	985.128
85.782	13.168	1303.891	985.101
86.797	13.068	1303.060	983.792
87.812	12.988	1301.605	982.132
88.826	12.979	1300.783	981.369
89.841	13.080	1299.278	980.749
90.855	13.111	1298.335	980.133
91.870	13.034	1297.659	979.080
92.884	13.093	1296.973	978.825
93.899	13.178	1296.097	978.582
94.914	13.179	1295.457	978.015
95.928	13.172	1294.394	977.086
96.943	13.171	1293.764	976.520
97.957	13.048	1292.717	974.918
98.972	13.077	1291.665	974.207
99.987	13.085	1290.966	973.638
101.001	13.127	1289.449	972.658
102.016	13.057	1288.243	971.251
103.030	13.125	1287.695	971.149
104.045	13.135	1286.877	970.505
105.060	13.024	1285.778	968.940
106.074	12.910	1284.686	967.361
107.089	12.875	1282.890	965.722
108.103	12.907	1281.612	964.861
109.118	12.810	1280.478	963.351
110.133	12.776	1279.192	962.104
111.147	12.885	1277.597	961.455
112.162	12.879	1276.352	960.395
113.176	12.944	1275.370	959.953
114.191	13.003	1274.725	959.723
115.206	12.960	1273.233	958.263
116.220	12.868	1272.247	956.904
117.235	12.940	1271.069	956.351
118.249	12.910	1270.382	955.578
119.264	12.941	1268.483	954.240
120.279	12.811	1268.130	953.138
121.293	12.910	1266.647	952.515
122.308	12.879	1265.586	951.455
123.322	12.858	1264.240	950.233
124.337	12.822	1263.915	949.699
125.352	12.850	1262.580	948.776
126.366	12.836	1261.547	947.832
127.381	12.853	1260.694	947.206
128.395	12.784	1259.503	945.829
129.410	12.927	1258.028	945.461
130.424	12.901	1257.993	945.199
131.439	12.894	1256.907	944.263
132.454	12.862	1256.114	943.398
133.468	13.015	1254.855	943.246
134.483	12.985	1254.409	942.652
135.497	12.932	1253.117	941.297
136.512	12.960	1252.063	940.584
137.527	12.932	1250.752	939.354
138.541	13.018	1249.165	938.567
139.556	12.919	1247.931	936.997
140.570	13.096	1247.269	937.424
141.585	13.180	1245.914	936.794
142.600	13.212	1244.427	935.775
143.614	13.194	1243.532	934.918
144.629	13.212	1242.685	934.302
145.643	13.181	1241.471	933.132
146.658	13.009	1240.636	931.452
147.673	12.997	1239.195	930.215
148.687	13.099	1237.701	929.588
149.702	13.096	1236.217	928.375
150.716	13.018	1235.348	927.200
151.731	12.992	1234.013	925.970
152.746	13.013	1232.818	925.109
153.760	13.085	1231.370	924.348
154.775	13.122	1230.844	924.075
155.789	13.160	1229.269	923.025
156.804	13.155	1228.516	922.348
157.819	13.273	1227.265	921.989
158.833	13.206	1226.649	921.066
159.848	13.288	1225.830	920.827
160.862	13.303	1225.010	920.216
161.877	13.180	1223.622	918.407
162.892	13.168	1222.357	917.311
163.906	13.087	1221.838	916.390
164.921	13.092	1220.864	915.606
165.935	13.143	1219.963	915.132
166.950	13.237	1218.939	914.805
167.964	13.204	1218.483	914.195
168.979	13.229	1217.909	913.825
169.994	13.152	1217.451	912.974
171.008	13.265	1215.856	912.322
172.023	13.395	1215.802	912.916
173.037	13.267	1215.343	911.788
174.052	13.313	1214.141	911.054
175.067	13.245	1212.688	909.509
176.081	13.166	1212.031	908.504
177.096	13.305	1210.931	908.364
178.110	13.275	1209.719	907.209
179.125	13.394	1208.179	906.624
180.140	13.397	1207.172	905.806
181.154	13.399	1205.993	904.852
182.169	13.427	1204.542	903.838
183.183	13.394	1203.786	903.008
184.198	13.553	1202.466	902.806
185.213	13.529	1201.769	902.071
186.227	13.507	1200.825	901.162
187.242	13.449	1199.846	900.031
188.256	13.596	1198.802	899.967
189.271	13.588	1198.088	899.311
190.286	13.471	1196.848	897.664
191.300	13.291	1196.176	896.106
192.315	13.146	1195.573	894.791
193.329	13.219	1194.632	894.401
194.344	13.279	1193.877	894.079
195.359	13.395	1193.285	894.189
196.373	13.463	1192.839	894.138
197.388	13.499	1192.472	893.982
198.402	13.542	1192.193	893.923
199.417	13.774	1191.391	894.495
200.432	13.699	1190.977	893.701
201.446	13.815	1189.536	893.162
202.461	13.760	1188.817	892.248
203.475	13.720	1188.134	891.441
204.490	13.697	1186.403	889.941
205.504	13.695	1184.882	888.711
206.519	13.669	1184.317	888.068
207.534	13.680	1182.894	886.983
208.548	13.699	1181.832	886.211
209.563	13.747	1181.029	885.784
210.577	13.749	1180.559	885.367
211.592	13.727	1179.462	884.350
212.607	13.915	1178.500	884.548
213.621	13.785	1177.925	883.349
214.636	13.792	1177.164	882.737
215.650	13.811	1176.183	882.024
216.665	13.920	1175.418	881.952
217.680	13.995	1174.267	881.407
218.694	13.954	1173.723	880.702
219.709	14.016	1172.554	880.078
220.723	14.075	1171.839	879.774
221.738	14.017	1171.201	878.913
222.753	14.026	1170.689	878.494
223.767	13.993	1169.780	877.564
224.782	14.074	1169.579	877.761
225.796	14.079	1168.624	876.995
226.811	14.035	1167.934	876.163
227.826	13.995	1167.045	875.211
228.840	14.022	1166.411	874.801
229.855	14.068	1165.722	874.446
230.869	13.980	1164.954	873.333
231.884	14.045	1164.030	872.904
232.899	13.981	1163.175	871.851
233.913	14.057	1162.436	871.615
234.928	13.902	1161.782	870.236
235.942	13.917	1160.941	869.605
236.957	13.910	1160.381	869.073
237.972	13.923	1160.106	868.858
238.986	13.936	1158.992	868.014
240.001	14.058	1158.327	868.079
241.015	14.030	1157.651	867.350
242.030	14.164	1156.315	866.968
243.045	14.115	1155.707	866.181
244.059	14.116	1155.020	865.597
245.074	14.271	1154.073	865.613
246.088	14.311	1153.276	865.151
247.103	14.240	1152.508	864.125
248.117	14.292	1152.043	863.971
249.132	14.402	1151.406	863.987
250.147	14.437	1150.899	863.715
251.161	14.468	1150.223	863.290
252.176	14.621	1148.909	863.016
253.190	14.577	1148.380	862.317
254.205	14.560	1148.361	862.140
255.220	14.487	1147.773	861.245
256.234	14.532	1147.157	860.939
257.249	14.608	1146.105	860.463
258.263	14.534	1145.530	859.574
259.278	14.608	1144.845	859.367
260.293	14.793	1144.258	859.800
261.307	14.726	1143.676	858.942
262.322	14.715	1142.974	858.283
263.336	14.750	1142.466	858.008
264.351	14.769	1142.053	857.720
265.366	14.762	1141.399	857.112
266.380	14.798	1140.330	856.418
267.395	14.786	1139.813	855.894
268.409	14.721	1138.777	854.711
269.424	14.776	1138.027	854.353
270.439	14.704	1137.866	853.789
271.453	14.703	1136.763	852.881
272.468	14.732	1136.173	852.509
273.482	14.762	1135.420	852.019
274.497	14.761	1134.767	851.451
275.512	14.821	1134.115	851.190
276.526	14.831	1133.294	850.550
277.541	14.874	1132.206	849.877
278.555	14.911	1131.844	849.721
279.570	14.933	1131.069	849.176
280.585	14.891	1130.657	848.574
281.599	15.021	1129.125	848.009
282.614	14.785	1129.139	846.748
283.628	14.958	1127.424	846.264
284.643	15.034	1126.338	845.756
285.657	14.976	1125.794	844.982
286.672	14.896	1125.156	844.023
287.687	14.929	1124.331	843.496
288.701	15.013	1123.484	843.211
289.716	15.018	1122.481	842.406
290.730	15.001	1121.726	841.682
291.745	15.006	1120.924	841.032
292.760	15.148	1120.408	841.282
293.774	15.063	1119.983	840.463
294.789	15.155	1119.661	840.607
295.803	15.226	1118.699	840.167
296.818	15.141	1117.928	839.087
297.833	15.102	1116.962	838.093
298.847	15.117	1116.221	837.538
299.862	15.200	1115.481	837.326
300.876	15.022	1115.032	836.023
301.891	15.275	1114.072	836.494
302.906	15.241	1113.504	835.820
303.920	15.314	1113.168	835.857
304.935	15.282	1112.740	835.307
305.949	15.325	1111.910	834.821
306.964	15.389	1111.017	834.396
307.979	15.340	1110.544	833.725
308.993	15.461	1109.287	833.305
310.008	15.401	1108.626	832.441
311.022	15.474	1108.075	832.314
312.037	15.424	1106.870	831.085
313.052	15.405	1106.102	830.344
314.066	15.378	1105.422	829.623
315.081	15.258	1104.596	828.340
316.095	15.306	1103.931	828.005
317.110	15.354	1102.824	827.335
318.125	15.331	1102.295	826.754
319.139	15.201	1102.113	825.903
320.154	15.402	1101.066	826.036
321.168	15.393	1100.246	825.302
322.183	15.272	1099.576	824.133
323.197	15.262	1099.271	823.782
324.212	15.501	1098.267	824.127
325.227	15.427	1098.205	823.649
326.241	15.445	1097.645	823.242
327.256	15.430	1096.577	822.293
328.270	15.405	1095.601	821.366
329.285	15.481	1094.794	821.064
330.300	15.427	1094.072	820.182
331.314	15.549	1092.795	819.750
332.329	15.487	1092.004	818.784
333.343	15.590	1090.940	818.414
334.358	15.514	1090.410	817.574
335.373	15.605	1089.541	817.291
336.387	15.616	1088.624	816.583
337.402	15.588	1088.535	816.308
338.416	15.571	1087.681	815.512
339.431	15.702	1086.950	815.530
340.446	15.801	1086.159	815.345
341.460	15.811	1085.397	814.746
342.475	15.815	1084.633	814.122
343.489	15.842	1083.547	813.365
344.504	15.908	1082.972	813.178
345.519	15.772	1082.045	811.758
346.533	15.969	1081.231	812.024
347.548	15.952	1080.506	811.323
348.562	15.989	1079.756	810.868
349.577	15.944	1079.349	810.275
350.592	15.923	1078.204	809.241
351.606	15.843	1077.733	808.431
352.621	15.815	1077.103	807.754
353.635	15.891	1076.216	807.381
354.650	15.813	1075.710	806.557
355.665	15.834	1075.186	806.192
356.679	15.836	1074.577	805.677
357.694	15.988	1073.761	805.719
358.708	15.864	1073.214	804.646
359.723	15.956	1072.518	804.490
360.738	15.960	1072.058	804.094
361.752	15.947	1071.244	803.349
362.767	16.040	1070.507	803.169
363.781	16.034	1070.134	802.790
364.796	16.133	1069.352	802.603
365.810	16.073	1069.108	802.066
366.825	16.203	1068.374	802.062
367.840	16.277	1068.234	802.236
368.854	16.340	1067.090	801.604
369.869	16.192	1066.555	800.432
370.883	16.158	1065.442	799.360
371.898	16.336	1064.917	799.742
372.913	16.270	1064.684	799.184
373.927	16.198	1064.282	798.471
374.942	16.272	1063.356	798.055
375.956	16.288	1062.857	797.685
376.971	16.284	1062.243	797.132
377.986	16.382	1061.455	796.935
379.000	16.344	1061.529	796.741
380.015	16.423	1060.585	796.336
381.029	16.568	1059.770	796.336
382.044	16.564	1059.075	795.723
383.059	16.524	1058.719	795.195
384.073	16.562	1057.810	794.625
385.088	16.481	1056.669	793.316
386.102	16.489	1056.023	792.797
387.117	16.599	1054.549	792.135
388.132	16.464	1054.249	791.208
389.146	16.568	1053.155	790.802
390.161	16.371	1052.881	789.607
391.175	16.442	1052.022	789.222
392.190	16.449	1051.669	788.922
393.205	16.633	1050.926	789.152
394.219	16.560	1050.027	788.067
395.234	16.579	1048.848	787.200
396.248	16.473	1047.895	785.925
397.263	16.384	1047.180	784.907
398.278	16.470	1046.361	784.619
399.292	16.510	1045.601	784.166
400.307	16.469	1044.977	783.440
401.321	16.443	1044.409	782.826
402.336	16.538	1043.451	782.479
403.350	16.525	1043.098	782.081
404.365	16.578	1042.355	781.700
405.380	16.608	1041.483	781.114
406.394	16.587	1041.218	780.753
407.409	16.721	1039.969	780.362
408.423	16.780	1039.605	780.293
409.438	16.847	1038.658	779.821
410.453	16.901	1038.248	779.692
411.467	16.855	1037.113	778.559
412.482	16.828	1036.779	778.117
413.496	16.818	1036.247	777.604
414.511	16.910	1035.407	777.325
415.526	16.972	1035.022	777.251
416.540	17.012	1034.758	777.169
417.555	17.168	1033.667	776.993
418.569	16.950	1033.617	775.890
419.584	16.954	1033.438	775.707
420.599	16.959	1032.557	774.999
421.613	103.568	1323.269	1471.563
422.628	94.813	1365.605	1471.654
