DTS Sentinel unit serial number:	SN413079Multiplexer serial number:	ORYXHardware model number:	OX4-SRSoftware version number:	ORYX F/W v4.00 Oryx Data Collector v3.7.2.0data status	okinstallation	princeton_trtdifferential loss correction	single-endedforward channel	channel 2reverse channel	N/Adate	2019/09/13time	01:31:34forward acquisition time	60.00reverse acquisition time	0.00gamma	496.2192k internal	0.2334k external	0.2334temperature offset calibration	1.0171default loss term (dB/km)	0.3790temperature slope calibration	1.0000multiplexer offset coefficient	1.0000multiplexer slope coefficient	1.0000fibre end	0.00T internal ref (°C)	27.81T ext. ref 1 (°C)	3.73T ext. ref 2 (°C)	22.43length (m)	temperature (°C)	Stokes	anti-Stokes-747.200	-200.000	-0.010	-0.269
-746.185	-17.089	-0.267	0.169
-745.171	-200.000	-0.036	-0.181
-744.156	-95.081	0.350	-0.095
-743.142	-152.815	0.223	-0.016
-742.127	600.733	-0.102	0.255
-741.112	-56.939	0.227	-0.101
-740.098	377.364	-0.014	-0.029
-739.083	800.000	0.166	0.528
-738.069	800.000	0.130	0.426
-737.054	-142.339	0.313	-0.031
-736.039	-6.564	0.059	-0.040
-735.025	409.781	-0.047	-0.100
-734.010	9.262	-0.062	0.047
-732.996	-200.000	0.006	0.046
-731.981	231.509	-0.214	0.353
-730.966	-55.604	0.292	0.131
-729.952	-86.004	-0.182	0.056
-728.937	-8.613	0.076	0.051
-727.923	-89.222	-0.071	0.021
-726.908	-200.000	0.032	0.191
-725.894	-17.704	-0.332	-0.209
-724.879	800.000	0.029	-0.079
-723.864	-200.000	0.003	0.169
-722.850	800.000	-0.005	-0.022
-721.835	19.396	0.077	0.062
-720.821	-188.942	-0.015	-0.000
-719.806	-145.495	-0.332	0.030
-718.791	141.922	-0.147	0.196
-717.777	-52.168	0.236	0.110
-716.762	-8.125	0.324	0.219
-715.748	-190.897	-0.380	-0.004
-714.733	-37.186	-0.364	0.195
-713.718	62.693	-0.160	-0.161
-712.704	800.000	0.022	0.074
-711.689	-72.179	-0.170	0.063
-710.675	-200.000	-0.047	-0.227
-709.660	-200.000	-0.009	-0.112
-708.645	297.671	-0.145	-0.267
-707.631	-87.067	-0.130	0.040
-706.616	-169.189	-0.219	0.008
-705.602	-99.191	0.218	0.055
-704.587	631.656	0.099	-0.251
-703.572	-46.323	0.065	-0.032
-702.558	800.000	0.145	0.565
-701.543	-103.657	-0.401	0.094
-700.529	23.457	0.188	0.155
-699.514	-20.553	0.109	0.067
-698.499	-200.000	0.013	-0.610
-697.485	-164.653	0.340	-0.015
-696.470	800.000	-0.047	0.192
-695.456	336.206	-0.190	-0.369
-694.441	800.000	0.053	0.180
-693.426	51.567	0.121	-0.115
-692.412	-98.745	-0.255	0.065
-691.397	-200.000	0.020	-0.110
-690.383	-200.000	0.064	-0.506
-689.368	-27.871	-0.318	0.185
-688.354	-189.966	-0.042	-0.000
-687.339	-95.392	-0.238	-0.064
-686.324	800.000	0.066	0.266
-685.310	-104.350	-0.235	-0.055
-684.295	33.183	-0.061	-0.053
-683.281	-99.956	-0.134	-0.034
-682.266	-100.761	-0.245	-0.061
-681.251	-149.532	-0.273	0.022
-680.237	391.184	-0.133	0.278
-679.222	-140.850	0.306	0.032
-678.208	571.938	-0.098	0.240
-677.193	212.064	-0.156	0.246
-676.178	-154.366	-0.091	-0.006
-675.164	-153.513	-0.299	0.021
-674.149	-71.006	0.099	0.037
-673.135	335.583	-0.055	0.107
-672.120	-141.402	0.418	-0.042
-671.105	-200.000	-0.008	0.167
-670.091	800.000	0.046	-0.137
-669.076	-73.473	0.132	0.048
-668.062	-200.000	0.033	-0.384
-667.047	-200.000	0.073	-0.000
-666.032	209.547	-0.119	-0.187
-665.018	387.017	-0.108	-0.223
-664.003	163.479	-0.164	0.230
-662.989	193.851	0.122	-0.185
-661.974	-200.000	-0.007	-0.401
-660.959	-200.000	0.042	-0.449
-659.945	-53.300	0.284	0.130
-658.930	40.032	-0.153	-0.137
-657.916	173.185	0.196	0.282
-656.901	-109.129	0.072	0.015
-655.886	738.575	-0.075	-0.202
-654.872	-200.000	0.045	0.383
-653.857	-85.809	-0.128	-0.040
-652.843	800.000	0.089	0.313
-651.828	-200.000	-0.001	-0.228
-650.814	271.454	0.170	-0.301
-649.799	-24.280	-0.317	0.189
-648.784	-85.494	-0.264	0.082
-647.770	6.621	0.149	-0.111
-646.755	-200.000	-0.003	-0.044
-645.741	0.162	0.216	0.154
-644.726	-200.000	0.002	0.102
-643.711	-88.937	0.091	-0.027
-642.697	-27.570	-0.084	0.049
-641.682	-39.286	0.149	-0.078
-640.668	283.082	0.101	-0.182
-639.653	-70.431	0.091	-0.034
-638.638	531.261	0.076	-0.179
-637.624	-200.000	-0.031	-0.339
-636.609	-77.113	0.200	0.070
-635.595	-23.659	-0.242	0.145
-634.580	53.818	-0.119	-0.114
-633.565	172.679	0.092	-0.132
-632.551	-46.547	-0.081	0.040
-631.536	371.838	0.164	-0.334
-630.522	-25.846	0.079	-0.046
-629.507	-79.781	0.158	0.053
-628.492	144.013	-0.196	0.261
-627.478	-33.322	0.246	0.136
-626.463	133.896	-0.091	-0.118
-625.449	-69.669	0.077	0.030
-624.434	2.394	-0.194	-0.141
-623.419	26.756	-0.242	0.202
-622.405	-115.467	0.077	0.015
-621.390	51.587	-0.029	-0.027
-620.376	42.411	0.174	-0.158
-619.361	-28.785	0.167	-0.096
-618.346	-20.060	-0.143	-0.088
-617.332	480.610	0.129	-0.293
-616.317	-17.215	0.180	0.114
-615.303	-35.850	-0.143	-0.077
-614.288	-200.000	-0.068	0.311
-613.273	-102.443	0.208	-0.050
-612.259	234.151	-0.102	-0.168
-611.244	-197.361	-0.383	-0.002
-610.230	-7.610	0.316	-0.214
-609.215	-200.000	0.004	-0.364
-608.201	276.743	-0.052	-0.092
-607.186	66.262	0.214	-0.217
-606.171	80.104	-0.275	-0.295
-605.157	3.193	0.042	-0.030
-604.142	-24.880	0.289	0.171
-603.128	-114.205	-0.377	-0.073
-602.113	-200.000	0.007	0.069
-601.098	-63.541	0.081	0.033
-600.084	-115.377	-0.274	-0.052
-599.069	-65.353	-0.136	0.055
-598.055	242.852	0.082	0.137
-597.040	177.142	-0.042	0.061
-596.025	-65.210	-0.323	0.130
-595.011	-200.000	0.021	0.097
-593.996	27.537	-0.219	0.184
-592.982	-200.000	-0.051	0.305
-591.967	-200.000	-0.030	0.175
-590.952	-73.679	0.410	-0.149
-589.938	83.380	-0.148	-0.161
-588.923	-19.766	-0.327	-0.202
-587.909	48.013	0.123	0.115
-586.894	409.798	-0.056	0.119
-585.879	-135.281	0.191	-0.023
-584.865	-200.000	-0.001	0.098
-583.850	180.922	-0.104	-0.152
-582.836	-200.000	0.004	-0.117
-581.821	99.877	0.083	0.096
-580.806	25.498	-0.251	-0.209
-579.792	-51.191	-0.055	-0.026
-578.777	48.927	0.192	-0.180
-577.763	-64.535	-0.234	-0.095
-576.748	238.862	0.011	-0.018
-575.733	800.000	-0.043	0.174
-574.719	146.339	0.180	0.241
-573.704	-68.877	0.313	-0.121
-572.690	-200.000	0.066	0.341
-571.675	-200.000	-0.003	0.072
-570.661	296.081	-0.172	0.314
-569.646	14.429	0.090	-0.070
-568.631	800.000	0.029	0.099
-567.617	274.507	-0.043	-0.077
-566.602	-176.533	-0.235	0.006
-565.588	95.047	-0.143	0.162
-564.573	-83.105	-0.107	-0.034
-563.558	248.098	-0.033	0.055
-562.544	694.137	0.039	-0.101
-561.529	800.000	-0.012	-0.048
-560.515	-104.208	0.310	0.072
-559.500	-200.000	-0.007	0.312
-558.485	87.152	-0.109	-0.120
-557.471	739.351	-0.071	-0.190
-556.456	-66.627	0.101	-0.040
-555.442	-174.820	0.095	0.003
-554.427	-200.000	0.010	-0.084
-553.412	-27.269	-0.023	-0.013
-552.398	-180.156	-0.132	0.003
-551.383	-200.000	-0.048	0.245
-550.369	-140.770	-0.409	-0.042
-549.354	800.000	-0.030	0.095
-548.339	-64.779	-0.172	-0.069
-547.325	800.000	-0.035	0.121
-546.310	-200.000	0.031	0.164
-545.296	-134.550	-0.326	-0.040
-544.281	-200.000	0.013	-0.149
-543.266	-121.623	-0.155	-0.026
-542.252	97.096	-0.075	-0.085
-541.237	193.062	0.178	-0.269
-540.223	-71.711	-0.294	-0.109
-539.208	800.000	-0.063	-0.200
-538.193	-62.955	0.109	0.045
-537.179	-53.272	-0.233	-0.106
-536.164	253.855	-0.077	-0.132
-535.150	17.411	0.028	-0.023
-534.135	-200.000	0.003	-0.340
-533.121	-200.000	-0.056	0.301
-532.106	-125.081	0.228	0.035
-531.091	-153.373	-0.287	-0.020
-530.077	-0.816	-0.089	-0.063
-529.062	-200.000	0.000	0.014
-528.048	-62.291	-0.119	-0.049
-527.033	-19.072	0.261	0.162
-526.018	265.921	-0.043	-0.076
-525.004	-200.000	0.019	0.458
-523.989	-86.226	0.296	-0.091
-522.975	6.289	0.186	0.137
-521.960	-5.654	-0.097	-0.066
-520.945	99.596	-0.180	-0.208
-519.931	-34.588	-0.163	-0.089
-518.916	-150.395	-0.135	0.010
-517.902	49.486	-0.200	0.187
-516.887	-129.606	0.288	0.040
-515.872	382.227	0.163	-0.334
-514.858	-123.277	-0.238	-0.038
-513.843	800.000	-0.009	0.031
-512.829	322.631	0.098	0.187
-511.814	29.836	0.131	0.111
-510.799	-70.191	0.137	0.052
-509.785	-167.076	0.193	0.008
-508.770	-34.305	0.235	-0.128
-507.756	800.000	0.112	-0.419
-506.741	-200.000	-0.013	0.176
-505.726	-87.351	-0.575	0.174
-504.712	-152.005	-0.033	0.002
-503.697	-98.766	0.177	-0.045
-502.683	501.583	-0.102	-0.235
-501.668	-67.487	0.030	0.012
-500.653	254.660	0.016	-0.027
-499.639	-49.565	0.202	-0.096
-498.624	-200.000	-0.073	-0.548
-497.610	99.990	-0.272	0.314
-496.595	-126.538	0.219	-0.032
-495.581	422.477	-0.037	0.079
-494.566	694.714	-0.046	0.120
-493.551	316.001	0.215	0.405
-492.537	-161.828	-0.200	-0.010
-491.522	123.242	0.226	-0.281
-490.508	-200.000	0.048	0.221
-489.493	-137.858	-0.159	-0.018
-488.478	800.000	-0.053	-0.213
-487.464	444.290	-0.119	0.260
-486.449	-15.924	-0.110	-0.069
-485.435	173.771	-0.115	0.165
-484.420	-113.795	0.525	0.102
-483.405	-200.000	-0.039	0.569
-482.391	4.206	-0.222	0.161
-481.376	-200.000	-0.003	0.091
-480.362	76.982	-0.202	-0.214
-479.347	800.000	-0.113	-0.470
-478.332	-200.000	-0.020	-0.252
-477.318	59.284	0.213	0.209
-476.303	388.339	0.087	-0.178
-475.289	-8.984	-0.376	0.250
-474.274	234.353	0.194	0.318
-473.259	-52.229	-0.136	-0.063
-472.245	191.890	0.154	0.231
-471.230	-200.000	-0.057	-0.289
-470.216	800.000	-0.119	0.507
-469.201	257.885	0.044	-0.075
-468.186	-200.000	0.012	0.449
-467.172	-137.802	-0.349	-0.039
-466.157	-22.616	-0.109	0.065
-465.143	-200.000	-0.023	-0.222
-464.128	800.000	-0.044	-0.190
-463.113	-200.000	0.011	0.170
-462.099	28.014	0.091	0.076
-461.084	800.000	-0.083	0.340
-460.070	8.124	0.124	-0.093
-459.055	-145.982	-0.282	-0.025
-458.040	289.205	-0.096	-0.173
-457.026	513.087	0.062	0.145
-456.011	696.313	-0.040	-0.104
-454.997	15.544	0.266	0.208
-453.982	399.636	-0.027	0.056
-452.968	232.240	0.024	-0.039
-451.953	102.148	-0.214	-0.249
-450.938	800.000	0.139	-0.489
-449.924	465.237	-0.066	-0.146
-448.909	-163.226	-0.093	0.004
-447.895	-200.000	0.078	-0.383
-446.880	800.000	0.053	0.166
-445.865	-35.410	-0.151	-0.081
-444.851	800.000	0.073	-0.247
-443.836	800.000	0.071	0.278
-442.822	-182.348	0.195	-0.004
-441.807	-139.944	0.236	-0.025
-440.792	-8.875	0.281	0.187
-439.778	-56.027	0.220	0.097
-438.763	-64.046	0.502	-0.204
-437.749	76.192	0.171	-0.179
-436.734	71.927	-0.096	-0.100
-435.719	-167.393	-0.308	0.012
-434.705	670.693	-0.125	-0.323
-433.690	800.000	0.022	0.076
-432.676	254.112	-0.161	-0.274
-431.661	-33.245	-0.174	-0.096
-430.646	-200.000	-0.047	0.279
-429.632	776.833	0.143	0.386
-428.617	-55.497	-0.030	0.013
-427.603	302.013	0.152	0.280
-426.588	364.623	-0.087	-0.174
-425.573	-200.000	-0.020	0.331
-424.559	158.021	0.007	-0.009
-423.544	-158.637	-0.197	0.011
-422.530	306.804	-0.069	-0.127
-421.515	104.562	-0.156	-0.183
-420.500	-200.000	0.047	0.229
-419.486	-200.000	0.022	0.111
-418.471	-17.866	-0.294	-0.183
-417.457	-200.000	-0.015	-0.136
-416.442	-200.000	0.059	-0.345
-415.428	-57.852	0.256	-0.111
-414.413	-136.362	-0.112	-0.013
-413.398	-139.858	-0.013	-0.001
-412.384	-175.635	0.181	0.005
-411.369	95.409	-0.034	0.038
-410.355	-135.419	-0.131	0.016
-409.340	-71.560	0.214	-0.079
-408.325	-107.306	0.342	0.075
-407.311	-200.000	-0.015	0.177
-406.296	786.769	0.129	-0.352
-405.282	77.367	0.189	0.199
-404.267	-102.348	0.050	-0.012
-403.252	49.335	0.099	0.093
-402.238	261.646	-0.150	0.258
-401.223	-200.000	-0.033	-0.237
-400.209	-148.018	0.162	-0.013
-399.194	-187.477	-0.336	-0.004
-398.179	741.160	0.134	-0.358
-397.165	575.808	-0.115	-0.279
-396.150	715.231	0.120	-0.315
-395.136	-199.727	0.177	-0.001
-394.121	-200.000	0.013	-0.135
-393.106	-200.000	-0.018	-0.299
-392.092	134.920	0.164	0.212
-391.077	316.027	0.195	-0.365
-390.063	-40.393	-0.214	-0.110
-389.048	-131.786	0.061	0.008
-388.033	530.380	-0.070	-0.163
-387.019	509.037	-0.126	0.290
-386.004	-116.461	-0.419	-0.077
-384.990	89.119	0.219	0.241
-383.975	206.976	-0.095	-0.146
-382.960	-200.000	-0.025	-0.155
-381.946	-106.816	0.045	-0.010
-380.931	-83.197	0.330	-0.105
-379.917	-200.000	0.048	0.293
-378.902	-96.495	-0.125	-0.033
-377.888	181.685	-0.127	-0.186
-376.873	110.287	-0.169	0.202
-375.858	800.000	-0.023	-0.086
-374.844	660.408	-0.178	-0.453
-373.829	-200.000	0.012	-0.111
-372.815	6.016	0.052	-0.038
-371.800	-19.853	-0.046	0.028
-370.785	-200.000	-0.010	-0.079
-369.771	-200.000	0.033	0.164
-368.756	54.130	-0.132	0.126
-367.742	461.425	-0.098	0.216
-366.727	-72.896	0.226	-0.082
-365.712	-200.000	0.019	0.206
-364.698	-151.902	-0.256	-0.019
-363.683	-158.108	-0.206	0.012
-362.669	-200.000	0.009	0.294
-361.654	-200.000	0.038	0.217
-360.639	-200.000	0.057	0.293
-359.625	-30.690	-0.145	0.081
-358.610	183.808	0.048	0.071
-357.596	-80.706	0.161	-0.053
-356.581	127.937	-0.069	-0.087
-355.566	70.632	0.053	0.054
-354.552	43.288	0.113	0.102
-353.537	-0.268	-0.205	-0.144
-352.523	20.672	0.019	0.016
-351.508	-173.258	0.085	-0.003
-350.493	-47.367	-0.257	-0.124
-349.479	-116.822	0.204	0.037
-348.464	-105.187	0.025	0.006
-347.450	-200.000	0.017	0.374
-346.435	102.324	-0.221	-0.256
-345.420	24.382	0.108	-0.088
-344.406	49.045	0.101	-0.094
-343.391	-178.378	0.288	0.007
-342.377	800.000	0.020	-0.079
-341.362	-27.118	0.053	0.031
-340.348	7.834	0.278	0.206
-339.333	-42.063	0.241	0.122
-338.318	-134.215	-0.222	-0.027
-337.304	-88.238	-0.203	-0.060
-336.289	318.601	0.031	-0.057
-335.275	800.000	0.045	-0.142
-334.260	800.000	0.062	-0.217
-333.245	-28.257	-0.370	-0.211
-332.231	172.790	0.145	-0.206
-331.216	-131.892	-0.270	-0.035
-330.202	190.256	-0.040	0.059
-329.187	-178.132	0.230	-0.005
-328.172	-83.407	-0.235	-0.074
-327.158	-86.825	0.243	0.074
-326.143	-22.320	0.080	0.048
-325.129	751.419	-0.082	0.220
-324.114	-71.257	0.214	0.079
-323.099	-200.000	-0.013	0.264
-322.085	-59.287	-0.302	-0.128
-321.070	-64.332	0.285	-0.115
-320.056	41.118	-0.369	-0.329
-319.041	-144.518	-0.257	-0.023
-318.026	330.925	0.108	0.205
-317.012	-27.575	0.349	0.201
-315.997	-107.328	0.303	-0.066
-314.983	-16.726	-0.213	-0.133
-313.968	-200.000	0.067	0.342
-312.953	-11.363	-0.440	0.286
-311.939	-48.514	0.127	0.060
-310.924	110.856	-0.170	-0.202
-309.910	-131.826	-0.116	0.015
-308.895	-179.744	-0.207	0.004
-307.880	79.318	-0.350	0.371
-306.866	800.000	-0.082	-0.349
-305.851	-127.061	-0.549	-0.080
-304.837	-121.456	0.242	-0.040
-303.822	216.056	-0.124	0.195
-302.807	800.000	0.029	-0.087
-301.793	-200.000	0.044	-0.279
-300.778	98.481	-0.191	0.218
-299.764	-200.000	0.036	0.211
-298.749	800.000	0.077	0.239
-297.735	435.826	-0.071	0.152
-296.720	-105.737	0.143	0.032
-295.705	-71.297	0.211	0.078
-294.691	800.000	0.034	0.116
-293.676	-15.783	0.120	0.076
-292.662	614.464	-0.160	-0.395
-291.647	413.418	-0.010	0.022
-290.632	-169.505	-0.178	-0.006
-289.618	-0.745	0.143	-0.100
-288.603	688.461	-0.100	-0.258
-287.589	757.639	0.060	0.161
-286.574	353.891	0.171	0.336
-285.559	-89.524	-0.186	0.054
-284.545	-70.443	0.249	0.093
-283.530	-200.000	0.011	0.310
-282.516	-200.000	-0.037	-0.332
-281.501	443.567	0.004	0.010
-280.486	349.485	-0.059	-0.116
-279.472	-99.163	0.218	0.054
-278.457	-200.000	-0.008	0.158
-277.443	800.000	0.072	-0.234
-276.428	-119.222	0.263	-0.045
-275.413	-200.000	-0.017	0.230
-274.399	-109.075	0.103	-0.022
-273.384	-6.321	-0.294	-0.198
-272.370	-37.640	0.275	-0.144
-271.355	87.193	-0.041	-0.045
-270.340	800.000	-0.087	0.317
-269.326	-16.363	0.144	-0.090
-268.311	-200.000	0.020	-0.230
-267.297	61.178	0.103	-0.101
-266.282	327.769	0.106	0.200
-265.267	306.338	-0.057	-0.104
-264.253	-200.000	0.004	-0.033
-263.238	336.307	-0.090	0.173
-262.224	-200.000	0.012	0.101
-261.209	-200.000	0.055	-0.296
-260.195	396.669	-0.186	0.383
-259.180	-134.180	0.121	0.015
-258.165	-91.716	-0.100	-0.028
-257.151	-30.112	0.099	0.055
-256.136	800.000	0.074	0.248
-255.122	-116.867	0.239	-0.043
-254.107	490.217	-0.072	0.161
-253.092	-77.327	-0.183	0.063
-252.078	102.452	0.058	0.067
-251.063	236.164	-0.057	0.094
-250.049	51.552	-0.144	0.134
-249.034	-46.914	0.142	-0.069
-248.019	-70.298	0.211	-0.079
-247.005	800.000	0.113	-0.392
-245.990	-108.514	-0.067	0.014
-244.976	19.817	-0.097	0.077
-243.961	-3.666	0.092	0.063
-242.946	800.000	-0.092	-0.285
-241.932	-119.699	-0.288	0.049
-240.917	380.520	0.084	0.169
-239.903	-200.000	0.094	0.508
-238.888	-200.000	-0.039	0.213
-237.873	-200.000	-0.029	-0.190
-236.859	270.937	0.083	0.144
-235.844	-113.895	0.080	0.015
-234.830	800.000	0.075	-0.241
-233.815	-200.000	0.001	0.112
-232.800	41.754	0.332	-0.297
-231.786	-200.000	0.063	0.276
-230.771	-143.335	-0.261	0.025
-229.757	361.818	-0.130	-0.256
-228.742	-82.449	0.073	-0.023
-227.727	-127.711	-0.333	-0.047
-226.713	7.424	0.168	-0.124
-225.698	8.155	0.308	0.228
-224.684	43.591	0.239	0.215
-223.669	-90.625	0.216	-0.061
-222.655	-143.788	0.052	0.005
-221.640	-23.452	-0.302	0.178
-220.625	223.829	0.037	-0.059
-219.611	-66.597	-0.275	-0.107
-218.596	800.000	0.157	0.539
-217.582	-162.633	-0.096	-0.005
-216.567	121.939	-0.110	-0.136
-215.552	210.812	0.036	-0.055
-214.538	341.842	-0.026	0.049
-213.523	282.636	-0.154	0.272
-212.509	70.757	0.086	-0.088
-211.494	-63.570	0.242	0.098
-210.479	-200.000	0.059	-0.380
-209.465	109.391	-0.134	0.158
-208.450	-163.074	0.331	-0.016
-207.436	-72.365	0.233	-0.085
-206.421	-12.779	0.204	0.131
-205.406	580.982	0.033	0.080
-204.392	-200.000	-0.003	-0.137
-203.377	800.000	0.021	0.089
-202.363	-1.568	0.066	0.046
-201.348	122.530	-0.280	0.344
-200.333	-73.441	0.167	0.060
-199.319	800.000	-0.022	0.087
-198.304	-0.935	0.037	-0.026
-197.290	132.599	0.209	0.265
-196.275	-200.000	0.072	-0.577
-195.260	243.254	-0.081	-0.134
-194.246	-200.000	-0.010	-0.268
-193.231	152.843	0.202	-0.271
-192.217	64.197	-0.237	0.234
-191.202	-20.949	0.162	-0.097
-190.187	-200.000	0.012	-0.096
-189.173	638.824	0.043	0.108
-188.158	-154.630	-0.145	-0.009
-187.144	54.396	0.250	-0.237
-186.129	-200.000	0.035	-0.203
-185.114	800.000	-0.062	0.181
-184.100	212.795	0.083	-0.129
-183.085	-13.973	0.109	0.070
-182.071	45.350	-0.109	0.098
-181.056	800.000	0.144	-0.408
-180.042	-200.000	-0.016	0.123
-179.027	-66.256	0.335	-0.131
-178.012	800.000	-0.006	-0.020
-176.998	-65.277	-0.089	0.035
-175.983	-192.977	0.370	-0.003
-174.969	-200.000	-0.023	-0.296
-173.954	-200.000	0.049	-0.321
-172.939	-200.000	-0.025	0.118
-171.925	-15.600	0.329	0.206
-170.910	-63.072	0.214	0.087
-169.896	-119.778	-0.488	-0.083
-168.881	800.000	-0.021	-0.072
-167.866	-144.928	0.188	0.017
-166.852	800.000	-0.099	0.331
-165.837	-8.342	0.104	-0.069
-164.823	-90.671	0.054	-0.015
-163.808	45.702	-0.150	0.136
-162.793	425.968	-0.132	0.280
-161.779	-163.367	0.139	0.007
-160.764	122.587	0.105	-0.129
-159.750	436.685	-0.135	0.289
-158.735	-130.408	0.010	-0.001
-157.720	469.717	0.108	0.237
-156.706	162.497	0.267	-0.368
-155.691	-97.259	-0.178	0.046
-154.677	96.665	-0.065	0.074
-153.662	178.370	0.020	-0.029
-152.647	-200.000	0.041	0.239
-151.633	-89.090	-0.434	0.126
-150.618	79.391	-0.137	0.144
-149.604	-102.032	0.050	-0.012
-148.589	-125.577	0.035	-0.005
-147.574	-63.001	0.452	0.183
-146.560	800.000	0.045	0.187
-145.545	800.000	-0.073	0.201
-144.531	285.472	0.051	0.090
-143.516	-158.357	-0.338	0.019
-142.502	-8.570	-0.073	-0.048
-141.487	467.855	-0.165	-0.363
-140.472	17.090	0.072	0.056
-139.458	-60.441	-0.344	-0.144
-138.443	800.000	0.062	0.197
-137.429	23.534	0.072	-0.058
-136.414	331.865	-0.102	-0.194
-135.399	183.064	-0.219	0.317
-134.385	-142.948	0.308	0.029
-133.370	686.943	-0.144	0.369
-132.356	-200.000	-0.006	0.321
-131.341	800.000	-0.104	0.331
-130.326	506.882	-0.157	-0.357
-129.312	-25.686	0.339	0.196
-128.297	42.271	0.271	-0.241
-127.283	-25.139	0.077	0.044
-126.268	373.383	0.101	-0.201
-125.253	-72.392	-0.366	-0.133
-124.239	-26.139	0.135	0.078
-123.224	-143.869	0.069	-0.006
-122.210	209.944	0.061	-0.094
-121.195	393.127	-0.142	0.290
-120.180	800.000	0.067	0.227
-119.166	-86.607	0.172	0.052
-118.151	66.706	-0.110	-0.110
-117.137	273.705	-0.204	0.353
-116.122	-104.640	0.225	0.051
-115.107	-97.060	-0.106	0.027
-114.093	512.479	0.094	-0.215
-113.078	-200.000	-0.006	0.205
-112.064	338.049	0.057	-0.108
-111.049	-200.000	-0.058	-0.366
-110.034	-109.233	0.120	-0.025
-109.020	-84.888	-0.363	0.112
-108.005	89.077	0.071	-0.078
-106.991	368.795	0.173	-0.343
-105.976	-5.984	0.197	0.132
-104.962	-13.818	0.068	-0.043
-103.947	459.232	-0.197	0.429
-102.932	-200.000	-0.071	0.381
-101.918	-200.000	-0.039	-0.179
-100.903	-200.000	0.014	0.201
-99.889	-200.000	0.009	0.195
-98.874	800.000	-0.075	0.308
-97.859	-45.183	-0.280	0.136
-96.845	-70.547	0.211	-0.078
-95.830	450.827	0.072	-0.157
-94.816	800.000	-0.033	0.109
-93.801	-200.000	-0.294	-0.001
-92.786	-200.000	-0.023	0.225
-91.772	800.000	0.080	-0.270
-90.757	90.055	0.025	0.027
-89.743	-184.763	-0.163	-0.003
-88.728	800.000	-0.058	0.179
-87.713	-110.739	-0.083	0.017
-86.699	-127.979	-0.373	-0.053
-85.684	-112.726	-0.021	-0.004
-84.670	-136.844	0.091	-0.010
-83.655	-39.825	0.314	0.161
-82.640	555.158	0.161	0.379
-81.626	111.189	-0.126	-0.149
-80.611	-11.015	0.262	0.170
-79.597	40.042	0.139	0.122
-78.582	233.069	0.083	0.133
-77.567	30.950	0.156	0.131
-76.553	9.143	-0.256	0.190
-75.538	-21.043	0.152	-0.091
-74.524	-200.000	0.075	0.340
-73.509	-15.762	-0.064	0.040
-72.494	115.207	0.168	0.200
-71.480	-93.664	0.220	0.059
-70.465	105.829	0.152	-0.176
-69.451	3.244	0.197	-0.141
-68.436	36.925	0.103	-0.089
-67.422	68.437	0.179	-0.180
-66.407	-200.000	-0.006	-0.196
-65.392	-7.937	-0.293	-0.193
-64.378	-172.860	0.166	-0.005
-63.363	-143.729	0.086	0.008
-62.349	441.409	0.063	-0.135
-61.334	108.646	-1.103	-1.290
-60.319	-33.262	0.849	0.460
-59.305	729.174	-0.423	-1.104
-58.290	386.739	0.554	1.120
-57.276	553.999	0.718	1.689
-56.261	-200.000	113.684	649.698
-55.246	541.651	1520.340	3544.629
-54.232	178.254	2692.911	3845.140
-53.217	103.733	2283.849	2623.865
-52.203	37.020	1891.873	1637.421
-51.188	31.029	1681.398	1410.062
-50.173	28.461	1638.659	1355.209
-49.159	50.083	1694.320	1564.202
-48.144	49.208	1708.750	1570.899
-47.130	30.595	1666.310	1393.935
-46.115	27.901	1652.111	1361.944
-45.100	27.793	1646.968	1356.847
-44.086	27.704	1644.040	1353.721
-43.071	27.561	1642.054	1350.968
-42.057	27.626	1639.213	1349.060
-41.042	27.551	1637.600	1347.123
-40.027	27.626	1635.456	1345.866
-39.013	27.676	1632.990	1344.147
-37.998	27.618	1631.692	1342.600
-36.984	27.668	1630.666	1342.068
-35.969	27.782	1628.785	1341.309
-34.954	27.867	1626.946	1340.363
-33.940	27.728	1625.628	1338.205
-32.925	27.796	1623.682	1337.051
-31.911	27.820	1621.870	1335.682
-30.896	27.872	1619.902	1334.382
-29.881	27.823	1618.289	1332.648
-28.867	27.783	1617.216	1331.417
-27.852	27.853	1615.463	1330.431
-26.838	27.759	1614.212	1328.662
-25.823	27.788	1612.821	1327.674
-24.809	27.810	1611.433	1326.642
-23.794	27.720	1610.220	1324.935
-22.779	27.818	1608.478	1324.164
-21.765	27.822	1606.964	1322.888
-20.750	27.763	1605.406	1321.126
-19.736	27.864	1604.027	1320.672
-18.721	27.916	1602.788	1319.978
-17.706	27.889	1600.919	1318.187
-16.692	27.840	1599.632	1316.722
-15.677	27.864	1598.740	1316.108
-14.663	27.913	1596.824	1314.834
-13.648	27.822	1595.391	1312.945
-12.633	27.918	1593.936	1312.386
-11.619	27.792	1592.545	1310.283
-10.604	27.910	1591.074	1309.873
-9.590	27.831	1590.272	1308.595
-8.575	27.913	1588.703	1307.833
-7.560	27.882	1587.423	1306.506
-6.546	27.864	1586.715	1305.747
-5.531	27.876	1585.398	1304.697
-4.517	27.974	1583.760	1303.997
-3.502	27.831	1582.921	1302.232
-2.487	27.961	1581.034	1301.557
-1.473	27.616	1568.937	1289.107
-0.458	24.717	1549.722	1252.988
0.556	22.815	1551.257	1221.852
1.571	20.382	1574.927	1223.272
2.586	19.895	1587.411	1229.400
3.600	17.942	1533.785	1174.349
4.615	10.977	1428.078	1048.566
5.629	4.754	1367.871	965.753
6.644	3.670	1360.824	953.999
7.659	3.769	1358.863	953.155
8.673	3.749	1358.378	952.603
9.688	3.752	1356.620	951.306
10.702	3.717	1352.883	948.387
11.717	6.638	1359.030	970.601
12.731	14.638	1372.729	1029.840
13.746	21.272	1384.681	1079.863
14.761	23.200	1386.102	1092.795
15.775	22.554	1384.426	1087.396
16.790	21.685	1382.207	1080.201
17.804	20.869	1380.736	1073.924
18.819	20.807	1378.974	1072.075
19.834	20.748	1378.369	1071.152
20.848	20.759	1377.818	1070.692
21.863	20.636	1376.546	1068.855
22.877	20.507	1375.242	1066.956
23.892	20.479	1374.380	1066.021
24.907	20.358	1373.821	1064.751
25.921	20.364	1372.455	1063.634
26.936	20.326	1371.695	1062.719
27.950	20.491	1370.904	1063.021
28.965	20.653	1369.983	1063.205
29.980	20.722	1368.832	1062.636
30.994	20.816	1367.900	1062.394
32.009	20.784	1366.805	1061.253
33.023	20.821	1365.908	1060.691
34.038	20.684	1364.280	1058.497
35.053	20.569	1363.069	1056.767
36.067	20.575	1362.122	1055.972
37.082	20.443	1361.405	1054.521
38.096	20.571	1360.375	1054.411
39.111	20.636	1359.913	1054.353
40.126	20.495	1358.847	1052.576
41.140	20.195	1357.264	1049.445
42.155	20.026	1356.760	1047.941
43.169	19.997	1356.377	1047.373
44.184	20.071	1356.038	1047.468
45.199	20.058	1356.257	1047.465
46.213	20.323	1355.879	1048.683
47.228	20.477	1354.822	1048.699
48.242	20.611	1354.014	1048.790
49.257	20.402	1352.622	1046.363
50.271	20.446	1350.726	1045.067
51.286	20.545	1349.452	1044.584
52.301	20.325	1348.581	1042.494
53.315	20.315	1347.114	1041.212
54.330	20.113	1346.505	1039.436
55.344	20.234	1344.046	1038.172
56.359	20.143	1343.483	1037.097
57.374	19.975	1342.867	1035.529
58.388	19.987	1342.591	1035.293
59.403	19.897	1341.738	1034.004
60.417	19.823	1340.987	1032.895
61.432	19.665	1340.286	1031.320
62.447	19.694	1338.755	1030.226
63.461	19.679	1337.818	1029.322
64.476	19.623	1336.770	1028.091
65.490	19.623	1335.625	1027.122
66.505	19.588	1334.185	1025.716
67.520	19.635	1333.071	1025.046
68.534	19.639	1332.384	1024.448
69.549	19.630	1331.068	1023.292
70.563	19.595	1329.751	1021.986
71.578	19.511	1328.535	1020.462
72.593	19.414	1327.426	1018.950
73.607	19.415	1327.191	1018.684
74.622	19.479	1326.513	1018.448
75.636	19.572	1325.763	1018.332
76.651	19.493	1325.572	1017.628
77.666	19.643	1325.038	1018.012
78.680	19.657	1324.489	1017.583
79.695	19.858	1323.551	1017.954
80.709	19.891	1323.263	1017.838
81.724	19.962	1322.657	1017.701
82.739	20.189	1321.449	1018.012
83.753	20.323	1321.085	1018.430
84.768	20.516	1320.446	1018.980
85.782	20.778	1319.112	1019.390
86.797	20.685	1318.426	1018.226
87.812	20.516	1317.372	1016.335
88.826	20.554	1316.095	1015.485
89.841	20.587	1314.997	1014.739
90.855	20.656	1314.080	1014.346
91.870	20.843	1313.273	1014.723
92.884	20.781	1312.815	1013.917
93.899	20.826	1311.789	1013.295
94.914	20.842	1310.912	1012.622
95.928	20.802	1310.366	1011.877
96.943	20.774	1309.781	1011.172
97.957	20.664	1308.266	1009.277
98.972	20.730	1307.465	1008.953
99.987	20.719	1306.654	1008.171
101.001	20.741	1305.635	1007.424
102.016	20.707	1304.300	1006.111
103.030	20.677	1304.289	1005.840
104.045	20.579	1302.982	1004.177
105.060	20.416	1301.906	1002.315
106.074	20.110	1299.800	998.843
107.089	19.868	1298.335	996.234
108.103	19.802	1296.978	994.727
109.118	19.767	1295.280	993.134
110.133	19.688	1294.589	992.066
111.147	19.805	1293.425	991.753
112.162	19.921	1292.322	991.486
113.176	19.959	1290.799	990.445
114.191	19.958	1290.152	989.856
115.206	19.932	1288.958	988.706
116.220	19.979	1287.805	988.004
117.235	19.755	1287.170	986.152
118.249	19.790	1285.753	985.177
119.264	19.714	1284.366	983.596
120.279	19.669	1283.589	982.653
121.293	19.549	1282.110	980.757
122.308	19.395	1281.126	979.041
123.322	19.378	1280.002	977.998
124.337	19.372	1278.985	977.105
125.352	19.390	1277.571	976.039
126.366	19.331	1276.844	975.062
127.381	19.324	1276.203	974.446
128.395	19.322	1274.661	973.174
129.410	19.396	1274.020	973.016
130.424	19.456	1273.480	972.856
131.439	19.663	1272.879	973.474
132.454	19.690	1272.294	973.093
133.468	19.751	1271.606	972.825
134.483	19.827	1271.016	972.712
135.497	19.865	1269.939	972.020
136.512	19.830	1268.991	971.007
137.527	19.894	1267.629	970.237
138.541	19.885	1266.239	969.041
139.556	20.028	1265.109	968.889
140.570	20.130	1264.442	968.861
141.585	20.302	1263.139	968.737
142.600	20.395	1262.171	968.431
143.614	20.564	1262.041	969.189
144.629	20.566	1260.836	968.189
145.643	20.712	1259.265	967.704
146.658	20.455	1258.236	965.402
147.673	20.207	1256.814	962.850
148.687	20.051	1255.613	960.977
149.702	19.858	1254.065	958.639
150.716	19.788	1252.644	957.081
151.731	19.859	1251.692	956.660
152.746	19.821	1250.612	955.543
153.760	20.033	1249.326	955.643
154.775	20.146	1248.276	955.380
155.789	20.105	1248.175	954.993
156.804	20.289	1246.929	954.964
157.819	20.440	1245.708	954.774
158.833	20.457	1245.429	954.571
159.848	20.623	1244.933	955.020
160.862	20.519	1244.286	953.867
161.877	20.194	1241.923	950.189
162.892	19.830	1240.834	947.282
163.906	19.726	1240.163	946.118
164.921	19.792	1239.110	945.590
165.935	19.828	1238.729	945.414
166.950	20.068	1238.135	946.186
167.964	20.062	1237.518	945.600
168.979	20.091	1236.641	945.000
169.994	19.991	1236.041	943.915
171.008	19.942	1235.278	942.982
172.023	20.289	1233.858	943.702
173.037	20.392	1233.629	944.002
174.052	20.379	1232.759	943.182
175.067	20.059	1231.148	940.130
176.081	19.874	1229.702	937.941
177.096	19.811	1229.340	937.242
178.110	19.844	1228.288	936.535
179.125	20.030	1227.086	936.542
180.140	20.070	1226.502	936.229
181.154	20.306	1225.367	936.550
182.169	20.395	1224.479	936.273
183.183	20.494	1223.195	935.741
184.198	20.639	1221.917	935.461
185.213	20.528	1221.090	934.146
186.227	20.572	1220.434	933.798
187.242	20.687	1219.340	933.498
188.256	20.728	1218.773	933.197
189.271	20.757	1217.618	932.386
190.286	20.543	1215.926	929.867
191.300	19.988	1215.164	926.232
192.315	19.769	1214.649	924.589
193.329	19.949	1213.897	924.892
194.344	19.927	1213.281	924.227
195.359	20.009	1212.678	924.123
196.373	20.070	1212.647	924.341
197.388	20.257	1212.012	924.771
198.402	20.589	1211.732	926.248
199.417	20.666	1211.855	926.671
200.432	20.837	1211.397	927.146
201.446	20.992	1210.797	927.429
202.461	21.085	1209.880	927.140
203.475	20.980	1208.835	925.697
204.490	20.656	1207.281	922.710
205.504	20.419	1205.688	920.154
206.519	20.476	1204.748	919.655
207.534	20.340	1202.971	917.503
208.548	20.414	1202.175	917.206
209.563	20.338	1201.923	916.531
210.577	20.355	1200.717	915.617
211.592	20.533	1199.798	915.773
212.607	20.701	1199.598	916.427
213.621	20.749	1198.818	916.003
214.636	20.618	1197.819	914.465
215.650	20.644	1196.908	913.830
216.665	20.786	1196.716	914.344
217.680	21.040	1195.728	914.842
218.694	21.143	1194.575	914.419
219.709	20.956	1194.195	913.066
220.723	21.024	1192.771	912.254
221.738	20.860	1192.407	911.039
222.753	20.832	1191.338	909.993
223.767	20.782	1191.142	909.504
224.782	21.134	1190.520	910.785
225.796	21.254	1190.085	910.995
226.811	21.050	1189.087	909.088
227.826	20.858	1187.732	906.975
228.840	20.830	1187.115	906.278
229.855	20.699	1186.606	905.123
230.869	20.749	1185.923	904.785
231.884	20.644	1184.760	903.271
232.899	20.572	1184.081	902.301
233.913	20.394	1182.964	900.446
234.928	20.346	1182.387	899.677
235.942	20.347	1181.088	898.616
236.957	20.257	1180.708	897.780
237.972	20.283	1179.993	897.291
238.986	20.310	1179.455	896.946
240.001	20.280	1178.827	896.231
241.015	20.369	1177.714	895.768
242.030	20.499	1177.533	896.222
243.045	20.725	1176.154	896.256
244.059	20.764	1175.711	896.039
245.074	20.902	1174.935	896.080
246.088	20.777	1174.255	894.840
247.103	21.010	1173.740	895.562
248.117	21.100	1173.064	895.430
249.132	21.333	1172.774	896.325
250.147	21.638	1172.502	897.598
251.161	21.815	1172.017	898.054
252.176	21.919	1171.185	897.870
253.190	21.895	1170.775	897.353
254.205	21.929	1170.636	897.342
255.220	22.063	1169.857	897.353
256.234	22.011	1169.001	896.348
257.249	21.855	1168.693	895.236
258.263	21.881	1167.531	894.402
259.278	21.975	1166.702	894.168
260.293	21.884	1166.726	893.642
261.307	21.960	1166.362	893.669
262.322	22.041	1165.777	893.558
263.336	22.038	1165.037	892.892
264.351	22.019	1164.384	892.219
265.366	22.213	1163.547	892.481
266.380	22.024	1163.032	891.049
267.395	21.993	1162.175	890.159
268.409	21.792	1160.771	887.985
269.424	21.679	1160.457	887.094
270.439	21.686	1159.917	886.639
271.453	21.784	1158.715	886.139
272.468	21.570	1157.529	884.069
273.482	21.470	1156.647	882.814
274.497	21.418	1156.058	882.024
275.512	21.583	1155.724	882.525
276.526	21.536	1154.750	881.464
277.541	21.571	1154.180	881.126
278.555	21.649	1153.458	880.888
279.570	21.921	1153.239	882.011
280.585	21.941	1152.727	881.643
281.599	22.023	1151.683	881.176
282.614	21.825	1150.223	878.991
283.628	21.597	1149.360	877.111
284.643	21.565	1148.304	876.070
285.657	21.667	1147.266	875.708
286.672	21.537	1146.638	874.504
287.687	21.604	1145.938	874.224
288.701	21.664	1145.078	873.794
289.716	21.651	1144.421	873.148
290.730	21.663	1143.374	872.330
291.745	21.752	1142.878	872.318
292.760	21.721	1142.257	871.615
293.774	21.803	1141.869	871.651
294.789	22.047	1141.160	872.242
295.803	21.959	1140.549	871.260
296.818	21.753	1139.740	869.541
297.833	21.716	1138.445	868.298
298.847	21.757	1137.953	868.045
299.862	21.731	1137.226	867.287
300.876	21.715	1136.862	866.851
301.891	21.720	1136.707	866.684
302.906	22.006	1135.690	867.241
303.920	22.215	1135.369	867.956
304.935	22.327	1134.527	867.784
305.949	22.336	1134.688	867.875
306.964	22.287	1133.884	866.943
307.979	22.317	1132.144	865.685
308.993	22.192	1131.361	864.394
310.008	22.325	1130.878	864.601
311.022	22.216	1130.544	863.733
312.037	22.123	1129.474	862.386
313.052	22.025	1128.399	861.007
314.066	21.882	1127.079	859.224
315.081	21.552	1126.192	856.855
316.095	21.442	1125.733	855.890
317.110	21.573	1124.562	855.566
318.125	21.581	1123.914	855.038
319.139	21.541	1123.268	854.274
320.154	21.614	1122.361	853.864
321.168	21.704	1121.588	853.642
322.183	21.585	1121.720	853.084
323.197	21.747	1120.889	853.167
324.212	21.703	1120.573	852.638
325.227	21.842	1119.785	852.639
326.241	21.788	1119.409	852.014
327.256	21.802	1117.939	850.889
328.270	21.702	1117.228	849.785
329.285	21.684	1116.357	848.962
330.300	21.644	1115.617	848.127
331.314	21.586	1114.602	847.001
332.329	21.630	1113.201	846.076
333.343	21.848	1112.743	846.703
334.358	21.939	1112.088	846.568
335.373	22.048	1111.840	846.831
336.387	22.214	1110.601	846.612
337.402	22.073	1110.466	845.757
338.416	22.229	1110.222	846.244
339.431	22.337	1109.081	845.822
340.446	22.551	1108.789	846.553
341.460	22.651	1108.290	846.576
342.475	22.682	1107.759	846.245
343.489	22.913	1106.696	846.464
344.504	22.763	1105.741	844.942
345.519	22.890	1105.051	844.944
346.533	23.057	1104.174	844.998
347.548	23.060	1103.787	844.643
348.562	22.805	1103.202	842.902
349.577	22.582	1101.614	840.553
350.592	22.314	1100.237	838.148
351.606	22.142	1099.588	836.760
352.621	22.120	1098.715	835.921
353.635	22.036	1097.899	834.826
354.650	22.215	1097.015	834.931
355.665	22.131	1097.022	834.460
356.679	22.215	1096.617	834.477
357.694	22.281	1095.793	834.091
358.708	22.409	1095.598	834.475
359.723	22.530	1094.915	834.453
360.738	22.402	1094.068	833.126
361.752	22.374	1093.677	832.627
362.767	22.500	1092.772	832.459
363.781	22.473	1092.632	832.151
364.796	22.638	1092.250	832.563
365.810	22.886	1092.119	833.560
366.825	22.972	1091.465	833.393
367.840	23.191	1090.928	833.941
368.854	23.316	1090.330	834.000
369.869	23.398	1089.207	833.452
370.883	23.094	1088.539	831.438
371.898	22.842	1087.566	829.439
372.913	22.814	1087.228	828.978
373.927	22.945	1086.672	829.093
374.942	23.062	1086.109	829.137
375.956	23.144	1085.490	828.979
376.971	22.932	1084.755	827.351
377.986	23.090	1084.185	827.580
379.000	23.263	1083.718	827.962
380.015	23.473	1083.805	828.937
381.029	23.526	1082.604	828.193
382.044	23.350	1082.117	826.923
383.059	23.276	1081.572	826.091
384.073	23.237	1080.574	825.074
385.088	23.424	1079.631	825.149
386.102	23.311	1078.991	824.064
387.117	22.994	1077.566	821.428
388.132	22.891	1075.999	819.682
389.146	22.736	1075.877	818.800
390.161	22.859	1074.834	818.502
391.175	22.850	1073.907	817.684
392.190	22.976	1073.654	818.000
393.205	23.233	1073.037	818.645
394.219	23.164	1072.274	817.672
395.234	22.861	1071.322	815.474
396.248	22.925	1070.223	814.862
397.263	22.781	1069.289	813.414
398.278	22.673	1068.406	812.177
399.292	22.519	1067.702	810.858
400.307	22.451	1066.687	809.702
401.321	22.617	1065.871	809.774
402.336	22.508	1065.242	808.727
403.350	22.574	1064.354	808.282
404.365	22.693	1064.327	808.736
405.380	22.784	1063.751	808.642
406.394	22.805	1063.132	808.198
407.409	23.093	1062.686	809.106
408.423	23.241	1062.131	809.287
409.438	23.466	1061.264	809.583
410.453	23.539	1060.489	809.251
411.467	23.503	1060.207	808.801
412.482	23.520	1059.969	808.628
413.496	23.685	1058.838	808.445
414.511	23.718	1058.510	808.269
415.526	23.757	1058.319	808.230
416.540	23.932	1057.939	808.663
417.555	23.753	1057.388	807.362
418.569	23.649	1056.281	805.972
419.584	23.545	1055.906	805.139
420.599	23.568	1055.544	804.899
421.613	157.201	1403.418	1798.635
422.628	144.414	1454.055	1798.722
