DTS Sentinel unit serial number:	SN413079Multiplexer serial number:	ORYXHardware model number:	OX4-SRSoftware version number:	ORYX F/W v4.00 Oryx Data Collector v3.7.2.0data status	okinstallation	princeton_trtdifferential loss correction	single-endedforward channel	channel 2reverse channel	N/Adate	2019/09/12time	15:57:11forward acquisition time	60.00reverse acquisition time	0.00gamma	496.2192k internal	0.2309k external	0.2309temperature offset calibration	1.0104default loss term (dB/km)	0.3790temperature slope calibration	1.0000multiplexer offset coefficient	1.0000multiplexer slope coefficient	1.0000fibre end	0.00T internal ref (°C)	39.20T ext. ref 1 (°C)	2.48T ext. ref 2 (°C)	32.18length (m)	temperature (°C)	Stokes	anti-Stokes-747.200	-74.182	0.315	-0.116
-746.185	-32.987	0.070	0.039
-745.171	-70.140	0.271	0.105
-744.156	-107.611	-0.113	-0.025
-743.142	433.579	0.088	0.194
-742.127	140.673	-0.085	-0.114
-741.112	392.133	-0.165	0.347
-740.098	-200.000	0.013	-0.178
-739.083	-84.547	0.317	0.102
-738.069	800.000	-0.023	0.102
-737.054	-57.073	0.407	-0.182
-736.039	280.825	0.145	-0.264
-735.025	-71.929	0.192	-0.072
-734.010	117.950	-0.223	-0.279
-732.996	-200.000	-0.027	-0.340
-731.981	64.512	-0.178	-0.182
-730.966	-6.426	0.209	-0.145
-729.952	153.622	-0.068	-0.094
-728.937	31.349	-0.063	-0.055
-727.923	340.693	-0.104	0.207
-726.908	800.000	0.033	0.106
-725.894	-33.024	0.251	-0.141
-724.879	800.000	-0.055	-0.204
-723.864	-102.312	0.075	-0.018
-722.850	65.120	0.093	-0.095
-721.835	703.874	-0.117	-0.313
-720.821	-200.000	0.074	-0.614
-719.806	-200.000	0.038	0.210
-718.791	-200.000	0.039	0.444
-717.777	257.669	-0.172	-0.301
-716.762	203.721	0.019	-0.030
-715.748	272.993	-0.045	-0.080
-714.733	603.588	-0.052	0.131
-713.718	800.000	-0.045	-0.132
-712.704	-168.562	-0.289	-0.011
-711.689	1.037	0.173	-0.126
-710.675	-200.000	-0.059	-0.266
-709.660	-200.000	-0.046	-0.209
-708.645	-200.000	-0.029	-0.147
-707.631	487.085	0.020	-0.046
-706.616	-200.000	-0.016	0.083
-705.602	-2.448	-0.220	-0.156
-704.587	22.754	-0.020	0.016
-703.572	-120.076	0.139	0.024
-702.558	-30.082	-0.222	0.128
-701.543	150.727	-0.213	-0.294
-700.529	-149.037	0.205	0.017
-699.514	-135.553	0.080	0.010
-698.499	21.141	-0.225	-0.185
-697.485	800.000	-0.086	0.318
-696.470	800.000	-0.038	0.134
-695.456	-69.484	-0.148	-0.058
-694.441	800.000	-0.083	-0.346
-693.426	-96.664	-0.068	-0.018
-692.412	-78.415	0.128	0.044
-691.397	138.931	-0.223	-0.297
-690.383	393.353	-0.030	-0.064
-689.368	800.000	-0.037	0.107
-688.354	33.699	0.346	-0.305
-687.339	-200.000	0.007	0.295
-686.324	292.215	-0.053	-0.098
-685.310	-2.418	-0.243	0.172
-684.295	26.295	-0.279	-0.236
-683.281	-200.000	0.020	-0.447
-682.266	107.158	0.040	-0.048
-681.251	760.439	-0.041	-0.113
-680.237	69.865	-0.070	-0.073
-679.222	800.000	-0.097	-0.307
-678.208	800.000	-0.052	-0.226
-677.193	-77.089	0.192	0.068
-676.178	-37.742	-0.230	0.124
-675.164	62.906	0.048	0.049
-674.149	313.761	-0.094	0.179
-673.135	-171.946	-0.326	-0.011
-672.120	-152.311	0.031	-0.002
-671.105	-150.742	-0.178	-0.014
-670.091	-200.000	-0.010	0.077
-669.076	356.875	-0.158	0.318
-668.062	-38.673	-0.305	0.163
-667.047	-27.393	0.063	0.037
-666.032	800.000	-0.021	0.065
-665.018	-96.140	-0.122	-0.033
-664.003	239.142	-0.218	0.367
-662.989	-200.000	-0.016	-0.195
-661.974	-200.000	-0.007	-0.253
-660.959	29.688	-0.052	0.045
-659.945	65.642	-0.106	-0.109
-658.930	-200.000	-0.001	0.023
-657.916	-170.275	-0.231	0.008
-656.901	419.066	-0.141	0.304
-655.886	-38.117	-0.305	0.164
-654.872	-200.000	-0.011	-0.083
-653.857	-101.909	-0.114	0.028
-652.843	540.385	0.121	0.292
-651.828	800.000	-0.056	-0.184
-650.814	-200.000	-0.029	0.150
-649.799	-22.258	-0.238	-0.146
-648.784	70.211	-0.083	-0.086
-647.770	755.617	0.089	0.245
-646.755	-133.725	0.153	-0.019
-645.741	-54.063	-0.230	-0.106
-644.726	-32.809	0.143	-0.080
-643.711	-200.000	-0.004	-0.256
-642.697	-76.635	0.228	-0.081
-641.682	-200.000	0.005	-0.044
-640.668	398.056	-0.159	-0.336
-639.653	62.907	0.041	0.042
-638.638	-176.392	-0.115	-0.003
-637.624	-200.000	-0.001	0.093
-636.609	-172.383	0.305	-0.010
-635.595	113.176	0.111	-0.136
-634.580	-54.022	-0.076	-0.035
-633.565	-182.231	-0.382	0.007
-632.551	-92.627	-0.265	-0.075
-631.536	30.693	-0.120	0.104
-630.522	800.000	0.139	0.500
-629.507	47.873	-0.176	-0.167
-628.492	678.857	-0.105	-0.275
-627.478	143.855	-0.093	-0.125
-626.463	-90.728	0.233	-0.068
-625.449	800.000	0.044	-0.191
-624.434	373.595	0.019	-0.038
-623.419	-200.000	0.029	-0.171
-622.405	639.177	0.184	-0.474
-621.390	129.087	0.111	0.143
-620.376	590.310	0.149	0.372
-619.361	77.880	-0.266	0.287
-618.346	-98.200	-0.149	-0.039
-617.332	778.693	-0.056	-0.154
-616.317	-111.652	0.183	-0.037
-615.303	54.804	-0.160	0.156
-614.288	-91.412	0.166	-0.048
-613.273	-200.000	-0.015	-0.140
-612.259	-200.000	0.001	0.067
-611.244	365.134	0.102	0.208
-610.230	167.772	-0.037	0.054
-609.215	-13.564	0.305	0.200
-608.201	-78.747	0.208	-0.072
-607.186	-65.799	-0.334	-0.135
-606.171	0.287	0.172	-0.124
-605.157	-88.615	-0.180	-0.054
-604.142	35.039	-0.074	0.065
-603.128	-107.419	-0.128	-0.028
-602.113	12.604	-0.202	0.158
-601.098	-43.004	0.266	0.136
-600.084	-200.000	0.014	0.100
-599.069	175.909	0.257	-0.376
-598.055	-200.000	-0.002	0.098
-597.040	-66.967	0.546	0.218
-596.025	-48.940	-0.183	-0.089
-595.011	66.960	-0.268	-0.276
-593.996	120.281	-0.047	0.059
-592.982	172.137	-0.180	0.261
-591.967	-200.000	0.004	0.241
-590.952	-13.867	0.234	0.153
-589.938	-130.776	-0.064	-0.009
-588.923	10.739	0.180	-0.139
-587.909	-117.082	0.072	-0.013
-586.894	558.205	-0.103	0.250
-585.879	-200.000	0.039	-0.369
-584.865	19.130	-0.053	-0.043
-583.850	800.000	0.036	0.150
-582.836	191.907	-0.087	-0.132
-581.821	132.407	-0.095	-0.123
-580.806	9.884	-0.243	0.186
-579.792	800.000	-0.082	0.287
-578.777	800.000	-0.029	0.105
-577.763	800.000	-0.078	0.253
-576.748	-102.366	0.217	0.052
-575.733	110.345	0.037	0.045
-574.719	88.641	-0.134	-0.151
-573.704	-4.953	0.090	0.062
-572.690	-51.927	0.112	-0.053
-571.675	800.000	0.076	0.285
-570.661	-137.428	0.243	-0.028
-569.646	18.224	-0.328	-0.264
-568.631	229.285	-0.160	0.264
-567.617	472.877	-0.026	-0.060
-566.602	-27.596	0.173	0.101
-565.588	259.829	-0.035	0.060
-564.573	90.623	-0.190	-0.214
-563.558	-112.257	-0.159	-0.032
-562.544	-23.778	0.135	0.082
-561.529	137.821	0.192	-0.253
-560.515	800.000	0.075	0.250
-559.500	-55.331	-0.236	-0.107
-558.485	320.480	-0.086	-0.164
-557.471	-21.552	-0.166	-0.102
-556.456	-124.243	-0.103	-0.016
-555.442	211.184	-0.174	0.276
-554.427	172.364	0.101	0.147
-553.412	508.746	-0.043	-0.102
-552.398	35.501	0.092	0.082
-551.383	-116.752	0.294	-0.054
-550.369	-118.453	0.364	0.065
-549.354	-200.000	0.023	-0.139
-548.339	-124.369	-0.090	0.014
-547.325	-132.163	0.110	0.014
-546.310	172.699	-0.061	0.088
-545.296	-200.000	-0.006	0.286
-544.281	29.406	-0.166	-0.143
-543.266	-200.000	-0.008	-0.162
-542.252	-24.045	-0.163	0.098
-541.237	79.655	0.072	0.077
-540.223	-42.941	0.065	0.033
-539.208	-94.663	0.197	-0.054
-538.193	145.210	0.152	-0.205
-537.179	-27.432	0.244	-0.143
-536.164	-50.865	0.056	0.027
-535.150	-33.686	0.208	0.116
-534.135	-78.861	0.230	0.079
-533.121	-200.000	-0.013	0.220
-532.106	239.902	0.127	0.213
-531.091	128.937	-0.087	0.112
-530.077	293.315	0.025	-0.045
-529.062	800.000	0.152	-0.441
-528.048	-139.711	-0.359	-0.038
-527.033	-200.000	0.044	-0.354
-526.018	359.407	0.076	0.153
-525.004	-33.736	-0.118	-0.066
-523.989	-41.819	0.198	-0.102
-522.975	-35.870	0.191	0.104
-521.960	-71.197	0.364	-0.138
-520.945	5.093	-0.170	-0.126
-519.931	-121.115	0.013	-0.002
-518.916	-200.000	-0.066	-0.345
-517.902	-48.854	-0.208	0.100
-516.887	147.024	0.062	0.084
-515.872	-200.000	-0.036	-0.261
-514.858	800.000	-0.107	-0.357
-513.843	175.983	-0.213	-0.312
-512.829	16.487	0.259	0.206
-511.814	317.051	-0.125	-0.238
-510.799	-31.646	-0.276	-0.156
-509.785	-39.600	-0.199	-0.105
-508.770	-120.905	0.210	-0.036
-507.756	109.982	0.108	-0.130
-506.741	319.855	-0.055	0.105
-505.726	-73.323	-0.190	0.070
-504.712	-94.095	-0.105	0.029
-503.697	324.407	-0.058	0.111
-502.683	-169.898	-0.153	-0.006
-501.668	800.000	-0.023	0.101
-500.653	-109.242	-0.132	0.028
-499.639	-103.482	0.203	-0.048
-498.624	323.348	0.104	0.199
-497.610	117.714	-0.212	0.262
-496.595	122.272	-0.291	0.365
-495.581	411.499	-0.051	0.109
-494.566	-187.553	-0.218	0.003
-493.551	153.414	-0.225	-0.310
-492.537	-26.453	0.198	0.117
-491.522	44.318	-0.055	-0.051
-490.508	161.135	-0.066	0.093
-489.493	-200.000	0.036	0.250
-488.478	-200.000	0.003	-0.091
-487.464	299.331	-0.097	-0.180
-486.449	83.330	-0.241	-0.264
-485.435	0.699	-0.292	0.210
-484.420	-119.390	0.414	-0.072
-483.405	91.367	0.216	0.244
-482.391	-31.828	0.232	0.131
-481.376	-55.907	0.184	0.083
-480.362	800.000	0.023	0.086
-479.347	-10.414	0.144	0.096
-478.332	84.522	-0.127	0.139
-477.318	-200.000	0.023	-0.125
-476.303	662.073	0.096	-0.248
-475.289	-63.501	0.111	0.046
-474.274	-200.000	0.022	-0.139
-473.259	136.600	-0.112	-0.147
-472.245	132.344	-0.109	0.141
-471.230	-14.376	0.267	0.173
-470.216	800.000	0.043	0.142
-469.201	-52.020	0.211	0.099
-468.186	-200.000	0.053	0.254
-467.172	-80.521	-0.228	0.077
-466.157	246.208	0.090	0.152
-465.143	88.725	0.345	0.385
-464.128	-60.284	-0.367	0.157
-463.113	401.164	-0.035	0.074
-462.099	-200.000	0.042	0.235
-461.084	800.000	-0.068	0.294
-460.070	378.413	-0.033	-0.068
-459.055	3.938	0.256	-0.188
-458.040	-12.557	0.169	-0.111
-457.026	800.000	-0.063	-0.229
-456.011	-106.359	-0.250	-0.056
-454.997	1.848	0.167	-0.121
-453.982	179.547	0.037	-0.055
-452.968	25.081	0.166	-0.138
-451.953	800.000	0.069	-0.264
-450.938	-33.127	-0.164	0.091
-449.924	44.590	0.204	0.188
-448.909	229.825	0.277	0.454
-447.895	66.169	0.055	-0.056
-446.880	-112.577	0.335	0.067
-445.865	-200.000	0.053	0.331
-444.851	-65.895	-0.195	-0.078
-443.836	557.062	-0.023	-0.057
-442.822	-52.079	0.159	-0.074
-441.807	800.000	-0.109	0.331
-440.792	-200.000	-0.007	0.270
-439.778	-10.925	-0.320	-0.212
-438.763	132.137	0.364	0.471
-437.749	0.227	0.233	-0.167
-436.734	237.695	-0.137	-0.228
-435.719	-200.000	0.052	0.230
-434.705	40.501	-0.253	-0.229
-433.690	278.071	-0.027	-0.048
-432.676	-117.799	-0.208	0.037
-431.661	68.922	-0.279	-0.287
-430.646	-129.502	0.124	-0.017
-429.632	-14.610	-0.247	-0.159
-428.617	70.750	-0.254	0.264
-427.603	195.785	0.122	0.186
-426.588	-147.460	-0.187	0.016
-425.573	232.803	-0.083	0.138
-424.559	7.356	0.081	0.061
-423.544	14.460	0.174	0.136
-422.530	800.000	-0.108	0.336
-421.515	62.524	-0.312	-0.313
-420.500	-33.301	0.108	-0.060
-419.486	113.463	-0.245	0.298
-418.471	-55.707	0.195	0.087
-417.457	23.874	-0.115	0.095
-416.442	77.076	-0.224	-0.239
-415.428	-102.920	0.009	-0.002
-414.413	-0.450	0.122	-0.087
-413.398	-200.000	-0.046	0.269
-412.384	-74.251	-0.143	0.052
-411.369	-79.502	0.434	-0.147
-410.355	-78.307	0.063	0.022
-409.340	-200.000	0.042	0.247
-408.325	-200.000	-0.086	-0.401
-407.311	163.605	0.078	-0.110
-406.296	89.200	-0.134	-0.149
-405.282	265.532	0.163	0.286
-404.267	800.000	-0.045	-0.158
-403.252	-48.141	-0.087	0.042
-402.238	-91.967	-0.268	-0.076
-401.223	649.044	0.037	0.094
-400.209	-29.668	-0.205	-0.117
-399.194	800.000	-0.120	-0.518
-398.179	-3.623	-0.326	-0.227
-397.165	-20.765	0.211	0.130
-396.150	91.313	-0.045	-0.051
-395.136	800.000	-0.017	0.065
-394.121	-86.333	-0.198	-0.061
-393.106	268.422	-0.100	0.176
-392.092	313.939	0.139	0.261
-391.077	-138.152	0.098	-0.011
-390.063	-200.000	-0.027	0.163
-389.048	106.694	-0.272	0.324
-388.033	277.091	0.024	-0.043
-387.019	78.745	0.196	0.210
-386.004	-16.668	-0.191	-0.121
-384.990	7.671	-0.487	-0.365
-383.975	540.280	-0.042	0.101
-382.960	800.000	0.045	-0.147
-381.946	485.268	0.064	-0.146
-380.931	-165.018	0.079	0.004
-379.917	43.634	-0.338	0.310
-378.902	520.552	-0.135	0.316
-377.888	83.074	0.220	-0.240
-376.873	-50.332	0.099	0.047
-375.858	42.211	-0.151	-0.137
-374.844	-200.000	0.045	-0.198
-373.829	23.583	0.090	-0.074
-372.815	800.000	-0.134	-0.416
-371.800	105.764	0.158	-0.187
-370.785	-113.072	0.290	-0.057
-369.771	317.827	-0.092	-0.175
-368.756	2.577	-0.061	-0.045
-367.742	-53.761	-0.118	0.054
-366.727	-200.000	-0.016	-0.150
-365.712	800.000	-0.149	-0.439
-364.698	183.205	0.115	0.170
-363.683	540.892	0.044	-0.105
-362.669	-188.776	-0.161	-0.002
-361.654	-102.802	-0.143	-0.034
-360.639	-200.000	0.033	-0.164
-359.625	-70.934	-0.241	-0.091
-358.610	-141.838	-0.233	-0.023
-357.596	726.834	0.125	-0.334
-356.581	-15.244	-0.098	-0.063
-355.566	-200.000	-0.000	-0.151
-354.552	709.094	0.134	0.355
-353.537	-120.778	-0.368	-0.062
-352.523	-41.545	-0.141	-0.072
-351.508	-199.653	0.387	-0.002
-350.493	157.614	-0.197	0.273
-349.479	-17.880	0.136	0.085
-348.464	-114.301	0.392	-0.076
-347.450	-169.674	0.141	-0.005
-346.435	-30.116	-0.075	-0.043
-345.420	-15.851	0.143	-0.091
-344.406	8.779	-0.296	-0.223
-343.391	-76.221	-0.151	-0.053
-342.377	-135.878	0.332	-0.039
-341.362	-106.784	-0.211	-0.047
-340.348	-43.948	-0.145	-0.073
-339.333	-94.126	0.221	-0.060
-338.318	632.126	-0.112	-0.284
-337.304	800.000	0.116	-0.483
-336.289	9.654	-0.156	-0.118
-335.275	46.410	-0.091	-0.084
-334.260	-200.000	0.005	0.259
-333.245	-94.718	0.219	-0.060
-332.231	260.147	0.159	-0.275
-331.216	-9.256	-0.313	0.209
-330.202	10.227	-0.037	-0.028
-329.187	588.255	-0.084	0.206
-328.172	314.178	0.122	0.230
-327.158	-200.000	0.023	-0.110
-326.143	643.422	-0.077	0.196
-325.129	-118.119	0.072	-0.013
-324.114	800.000	-0.087	-0.309
-323.099	800.000	0.028	-0.111
-322.085	-200.000	0.057	0.256
-321.070	33.281	0.133	-0.115
-320.056	-200.000	-0.009	0.150
-319.041	26.254	0.125	0.105
-318.026	341.247	-0.042	-0.083
-317.012	310.257	0.167	0.312
-315.997	47.116	0.073	0.068
-314.983	-59.410	-0.310	-0.133
-313.968	667.786	-0.060	0.155
-312.953	-25.937	0.170	-0.100
-311.939	-200.000	0.005	-0.224
-310.924	-37.895	-0.075	0.040
-309.910	-200.000	-0.005	-0.233
-308.895	-52.323	0.200	-0.092
-307.880	-62.439	0.262	-0.109
-306.866	-200.000	-0.002	-0.101
-305.851	44.670	-0.145	-0.133
-304.837	-56.170	-0.159	0.071
-303.822	-200.000	-0.006	0.108
-302.807	-18.312	-0.161	0.101
-301.793	30.395	0.268	-0.229
-300.778	-200.000	0.020	0.159
-299.764	358.763	0.025	-0.051
-298.749	99.455	-0.174	0.201
-297.735	-59.227	0.184	0.079
-296.720	-104.551	0.318	0.073
-295.705	-74.800	0.118	-0.042
-294.691	800.000	0.010	-0.028
-293.676	240.321	-0.080	-0.133
-292.662	369.827	-0.046	0.093
-291.647	12.808	-0.182	0.140
-290.632	-26.595	0.246	0.144
-289.618	229.577	-0.159	-0.259
-288.603	800.000	0.030	0.126
-287.589	20.373	0.101	-0.082
-286.574	484.751	0.164	0.373
-285.559	-20.383	-0.126	-0.077
-284.545	-200.000	-0.015	-0.119
-283.530	379.574	-0.056	0.114
-282.516	-126.114	0.223	0.033
-281.501	88.092	-0.102	0.113
-280.486	-108.410	0.256	0.055
-279.472	800.000	0.044	0.178
-278.457	-34.419	-0.244	0.133
-277.443	267.758	0.054	0.095
-276.428	158.213	0.125	-0.174
-275.413	-200.000	-0.004	0.221
-274.399	257.056	-0.097	0.167
-273.384	-200.000	-0.008	-0.077
-272.370	-29.848	-0.221	0.126
-271.355	-77.037	0.144	-0.050
-270.340	19.164	-0.037	0.029
-269.326	-51.075	-0.207	0.097
-268.311	112.255	0.083	0.100
-267.297	199.379	-0.130	-0.198
-266.282	-43.244	0.304	-0.154
-265.267	-200.000	0.035	0.304
-264.253	-43.370	0.093	0.047
-263.238	-200.000	0.038	-0.315
-262.224	-168.552	0.470	-0.018
-261.209	-29.666	-0.035	-0.020
-260.195	75.356	0.229	-0.241
-259.180	-82.903	0.111	0.036
-258.165	-200.000	0.033	0.188
-257.151	-99.221	-0.073	0.019
-256.136	-20.195	0.222	-0.136
-255.122	-67.408	0.352	0.138
-254.107	34.500	0.094	-0.082
-253.092	-32.740	-0.320	-0.177
-252.078	378.485	-0.164	-0.333
-251.063	284.605	-0.070	0.126
-250.049	236.999	0.172	0.285
-249.034	296.779	-0.090	0.165
-248.019	563.295	0.077	0.187
-247.005	285.736	0.059	-0.106
-245.990	69.016	-0.287	-0.294
-244.976	-10.175	-0.205	0.136
-243.961	-135.356	0.213	-0.025
-242.946	188.952	-0.031	0.047
-241.932	800.000	-0.014	0.042
-240.917	56.881	0.143	0.139
-239.903	-123.379	0.147	0.023
-238.888	-9.380	0.147	-0.098
-237.873	175.843	-0.080	-0.116
-236.859	-43.777	0.069	-0.034
-235.844	-200.000	-0.001	-0.191
-234.830	-69.075	0.239	0.092
-233.815	236.587	-0.126	0.208
-232.800	432.812	0.097	0.210
-231.786	-22.818	0.225	0.135
-230.771	-80.127	0.109	-0.036
-229.757	456.845	0.035	0.078
-228.742	-200.000	0.009	0.213
-227.727	403.199	0.051	0.106
-226.713	-200.000	-0.011	-0.052
-225.698	-200.000	0.001	-0.230
-224.684	-16.321	-0.125	-0.079
-223.669	-200.000	0.021	0.105
-222.655	-200.000	-0.019	-0.123
-221.640	99.736	-0.062	-0.071
-220.625	16.949	0.176	0.139
-219.611	-38.802	-0.239	0.126
-218.596	-178.609	-0.186	0.004
-217.582	-41.301	-0.287	0.147
-216.567	-200.000	0.029	0.426
-215.552	552.883	-0.055	-0.133
-214.538	90.474	-0.237	-0.264
-213.523	-40.828	0.086	-0.044
-212.509	26.292	-0.307	0.255
-211.494	-200.000	-0.041	-0.295
-210.479	117.057	-0.091	-0.111
-209.465	213.359	0.087	0.137
-208.450	-109.524	-0.090	-0.019
-207.436	635.278	-0.066	-0.166
-206.421	-65.066	0.249	-0.100
-205.406	-154.090	-0.333	-0.022
-204.392	338.221	0.072	-0.138
-203.377	-56.237	-0.067	0.029
-202.363	46.197	0.202	-0.186
-201.348	-188.182	0.203	-0.003
-200.333	49.712	-0.046	0.043
-199.319	-200.000	-0.074	0.329
-198.304	-145.897	0.442	0.039
-197.290	80.805	-0.036	-0.038
-196.275	-200.000	0.026	0.163
-195.260	-200.000	0.006	0.152
-194.246	800.000	0.021	0.075
-193.231	-200.000	0.005	-0.024
-192.217	-94.898	-0.135	-0.036
-191.202	-56.955	-0.255	-0.112
-190.187	-45.747	0.337	0.165
-189.173	-200.000	0.065	0.310
-188.158	800.000	0.135	-0.392
-187.144	118.430	-0.267	0.328
-186.129	-113.776	-0.336	0.065
-185.114	800.000	0.078	-0.328
-184.100	-102.052	-0.174	-0.042
-183.085	-49.818	0.386	0.182
-182.071	459.135	-0.086	-0.190
-181.056	800.000	0.087	-0.336
-180.042	34.632	-0.079	-0.068
-179.027	129.587	0.092	0.117
-178.012	583.973	-0.097	-0.236
-176.998	192.774	0.135	0.202
-175.983	-200.000	0.016	0.111
-174.969	57.998	0.125	-0.122
-173.954	-163.900	0.203	-0.009
-172.939	-62.728	-0.175	-0.072
-171.925	-10.321	-0.292	-0.193
-170.910	631.528	-0.131	0.331
-169.896	-26.907	0.093	-0.054
-168.881	441.618	-0.129	0.281
-167.866	-88.243	0.403	-0.120
-166.852	-200.000	-0.008	0.168
-165.837	-200.000	0.005	0.351
-164.823	56.613	-0.065	-0.063
-163.808	-200.000	0.055	-0.358
-162.793	-94.318	0.085	-0.023
-161.779	-59.073	-0.255	0.109
-160.764	254.034	0.161	-0.274
-159.750	-27.592	-0.138	0.079
-158.735	328.194	0.014	-0.027
-157.720	129.386	-0.174	-0.221
-156.706	-200.000	0.029	-0.303
-155.691	131.125	-0.176	0.225
-154.677	-62.932	-0.373	0.153
-153.662	-10.436	0.304	0.200
-152.647	800.000	0.066	-0.227
-151.633	-111.712	0.208	0.042
-150.618	-55.473	-0.074	0.033
-149.604	756.454	-0.121	0.326
-148.589	156.351	-0.030	0.041
-147.574	-88.912	-0.144	-0.042
-146.560	-111.720	-0.208	-0.042
-145.545	306.924	-0.111	-0.204
-144.531	-111.157	0.379	-0.077
-143.516	-0.027	0.176	0.124
-142.502	202.356	0.060	-0.092
-141.487	800.000	0.128	0.365
-140.472	206.270	-0.291	-0.449
-139.458	-71.694	-0.124	-0.046
-138.443	292.280	0.115	0.209
-137.429	682.895	-0.047	-0.121
-136.414	-200.000	0.002	-0.021
-135.399	-200.000	0.040	0.180
-134.385	52.775	-0.200	-0.190
-133.370	-200.000	0.045	-0.217
-132.356	-161.376	0.494	0.025
-131.341	-200.000	0.061	0.388
-130.326	271.571	0.072	0.126
-129.312	-52.438	-0.055	0.025
-128.297	382.999	-0.099	0.201
-127.283	187.659	-0.051	0.076
-126.268	800.000	-0.068	0.218
-125.253	-6.536	0.305	0.206
-124.239	5.919	-0.278	-0.204
-123.224	56.923	0.178	0.172
-122.210	-200.000	-0.091	0.446
-121.195	800.000	0.050	0.173
-120.180	-13.124	0.087	0.056
-119.166	10.343	0.052	0.039
-118.151	-88.950	0.156	-0.046
-117.137	-58.057	-0.251	0.109
-116.122	-168.812	0.228	-0.009
-115.107	-200.000	0.035	-0.248
-114.093	71.972	-0.101	-0.104
-113.078	-24.961	0.161	0.095
-112.064	32.594	-0.203	-0.174
-111.049	69.937	-0.324	-0.332
-110.034	12.984	0.231	-0.177
-109.020	-200.000	0.055	-0.302
-108.005	-149.489	0.273	-0.021
-106.991	-200.000	0.008	0.074
-105.976	-13.740	0.408	-0.262
-104.962	9.899	0.150	-0.113
-103.947	-51.679	0.265	0.123
-102.932	-117.818	0.100	-0.018
-101.918	-25.842	0.211	0.123
-100.903	-39.016	0.208	0.109
-99.889	-46.399	-0.171	0.083
-98.874	-200.000	-0.001	0.132
-97.859	34.611	-0.049	-0.043
-96.845	-96.905	0.294	0.077
-95.830	43.883	-0.223	0.203
-94.816	-63.319	-0.112	0.046
-93.801	-48.563	0.219	0.105
-92.786	-71.679	-0.275	0.102
-91.772	-40.238	-0.140	0.072
-90.757	87.362	-0.093	0.101
-89.743	800.000	-0.096	0.363
-88.728	-157.557	-0.186	-0.011
-87.713	800.000	0.030	0.094
-86.699	-129.632	0.183	-0.025
-85.684	281.255	-0.099	0.175
-84.670	350.573	-0.072	0.141
-83.655	-131.899	-0.317	-0.041
-82.640	-131.298	-0.236	0.031
-81.626	-200.000	0.128	0.567
-80.611	86.690	0.158	-0.172
-79.597	-63.079	-0.139	-0.057
-78.582	-90.282	0.090	-0.026
-77.567	101.960	0.082	-0.095
-76.553	-200.000	0.021	-0.227
-75.538	-102.941	-0.474	-0.111
-74.524	219.413	0.088	0.139
-73.509	-48.742	0.115	-0.055
-72.494	800.000	-0.067	0.233
-71.480	-66.466	-0.206	-0.081
-70.465	-7.170	0.053	0.036
-69.451	308.730	0.197	0.364
-68.436	-200.000	0.000	-0.127
-67.422	-76.993	0.150	0.052
-66.407	-100.524	0.294	-0.072
-65.392	542.245	-0.095	0.223
-64.378	116.204	-0.085	0.103
-63.363	-200.000	-0.007	0.055
-62.349	61.962	0.068	0.067
-61.334	34.025	-0.901	-0.776
-60.319	554.722	0.219	0.521
-59.305	800.000	-0.205	-0.761
-58.290	649.003	0.348	0.881
-57.276	800.000	0.471	1.626
-56.261	-200.000	83.562	510.330
-55.246	510.381	1354.739	3116.723
-54.232	149.902	2575.804	3454.425
-53.217	108.469	2331.786	2753.137
-52.203	48.047	1948.576	1801.390
-51.188	42.417	1737.481	1562.509
-50.173	39.680	1691.636	1500.436
-49.159	54.224	1732.359	1648.680
-48.144	58.742	1750.615	1700.719
-47.130	42.276	1711.295	1537.638
-46.115	39.268	1697.009	1501.821
-45.100	39.133	1692.375	1496.633
-44.086	39.087	1689.932	1494.059
-43.071	39.099	1687.280	1491.750
-42.057	38.990	1684.680	1488.563
-41.042	39.098	1682.287	1487.207
-40.027	39.052	1680.781	1485.472
-39.013	39.108	1678.421	1483.746
-37.998	38.988	1677.025	1481.550
-36.984	39.140	1676.011	1481.742
-35.969	39.185	1674.123	1480.352
-34.954	39.281	1672.374	1479.471
-33.940	39.204	1670.437	1477.115
-32.925	39.251	1668.654	1475.835
-31.911	39.262	1666.938	1474.343
-30.896	39.249	1665.062	1472.525
-29.881	39.212	1663.445	1470.758
-28.867	39.179	1661.978	1469.161
-27.852	39.262	1660.242	1468.189
-26.838	39.125	1659.452	1466.408
-25.823	39.223	1658.021	1465.813
-24.809	39.267	1656.484	1464.726
-23.794	39.287	1654.735	1463.268
-22.779	39.205	1653.824	1461.797
-21.765	39.205	1651.705	1459.868
-20.750	39.150	1650.559	1458.387
-19.736	39.218	1648.574	1457.076
-18.721	39.273	1647.223	1456.231
-17.706	39.254	1645.994	1454.950
-16.692	39.235	1644.282	1453.235
-15.677	39.212	1643.104	1451.966
-14.663	39.292	1641.857	1451.402
-13.648	39.171	1640.254	1449.031
-12.633	39.258	1638.984	1448.497
-11.619	39.235	1636.944	1446.467
-10.604	39.243	1635.693	1445.362
-9.590	39.271	1634.127	1444.125
-8.575	39.209	1633.107	1442.712
-7.560	39.208	1631.727	1441.426
-6.546	39.129	1630.615	1439.811
-5.531	39.164	1629.030	1438.608
-4.517	39.222	1627.541	1437.659
-3.502	39.199	1626.880	1436.855
-2.487	39.217	1624.705	1435.006
-1.473	38.649	1613.276	1420.737
-0.458	35.217	1590.425	1375.972
0.556	31.155	1588.165	1332.986
1.571	28.061	1611.111	1329.666
2.586	27.277	1624.082	1334.504
3.600	23.836	1571.588	1266.777
4.615	13.572	1455.835	1105.250
5.629	4.226	1384.829	991.697
6.644	2.555	1375.310	974.174
7.659	2.485	1373.584	972.424
8.673	2.512	1372.450	971.705
9.688	2.388	1371.073	969.857
10.702	2.208	1368.629	966.905
11.717	5.946	1376.053	995.812
12.731	16.711	1396.170	1079.242
13.746	25.239	1411.259	1145.504
14.761	27.133	1413.402	1159.238
15.775	27.457	1413.019	1160.886
16.790	27.543	1412.710	1161.076
17.804	27.553	1412.068	1160.514
18.819	27.802	1411.570	1161.586
19.834	27.798	1411.200	1161.150
20.848	27.779	1410.596	1160.431
21.863	27.856	1409.841	1160.197
22.877	27.771	1408.859	1158.744
23.892	27.849	1407.669	1158.161
24.907	27.884	1406.468	1157.290
25.921	27.895	1406.036	1156.903
26.936	27.792	1404.790	1155.125
27.950	27.784	1404.209	1154.495
28.965	27.799	1402.558	1153.127
29.980	27.838	1401.219	1152.171
30.994	27.853	1399.855	1151.042
32.009	27.774	1399.011	1149.746
33.023	27.961	1397.436	1149.531
34.038	27.897	1396.680	1148.406
35.053	27.863	1395.800	1147.364
36.067	27.927	1394.636	1146.705
37.082	27.777	1394.076	1145.203
38.096	27.692	1393.518	1144.112
39.111	27.830	1392.553	1144.085
40.126	27.807	1391.650	1143.098
41.140	27.787	1391.133	1142.447
42.155	27.782	1390.675	1141.935
43.169	27.807	1390.896	1142.172
44.184	27.799	1390.703	1141.862
45.199	27.842	1390.242	1141.655
46.213	27.825	1389.425	1140.775
47.228	27.902	1388.267	1140.202
48.242	27.767	1387.502	1138.632
49.257	27.855	1386.022	1137.867
50.271	27.860	1384.345	1136.420
51.286	27.890	1383.092	1135.479
52.301	27.765	1382.203	1133.871
53.315	27.787	1381.008	1132.923
54.330	27.841	1380.347	1132.617
55.344	27.797	1379.172	1131.280
56.359	27.844	1378.122	1130.610
57.374	27.836	1377.520	1129.968
58.388	27.762	1376.740	1128.772
59.403	27.825	1376.560	1128.911
60.417	27.804	1375.071	1127.459
61.432	27.768	1374.992	1127.076
62.447	27.876	1373.974	1126.809
63.461	27.778	1372.687	1125.048
64.476	27.905	1371.577	1124.818
65.490	27.966	1370.142	1123.916
66.505	27.833	1368.964	1122.038
67.520	27.872	1368.038	1121.419
68.534	27.771	1366.957	1119.809
69.549	27.858	1365.937	1119.414
70.563	27.979	1364.363	1118.762
71.578	27.914	1363.918	1117.901
72.593	27.802	1363.338	1116.644
73.607	27.844	1362.400	1116.034
74.622	27.774	1361.984	1115.166
75.636	27.883	1361.125	1115.026
76.651	27.923	1360.067	1114.305
77.666	27.845	1360.218	1113.857
78.680	27.922	1359.090	1113.300
79.695	27.778	1358.604	1111.929
80.709	27.804	1357.996	1111.491
81.724	27.775	1356.944	1110.355
82.739	27.839	1355.862	1109.759
83.753	27.899	1354.882	1109.223
84.768	27.840	1354.024	1108.067
85.782	27.903	1352.643	1107.217
86.797	27.959	1351.006	1106.123
87.812	27.953	1350.384	1105.475
88.826	27.815	1349.574	1103.882
89.841	27.908	1348.385	1103.371
90.855	27.894	1347.915	1102.808
91.870	27.855	1347.028	1101.747
92.884	27.907	1345.868	1101.016
93.899	27.848	1345.174	1099.996
94.914	27.884	1344.409	1099.489
95.928	27.875	1343.482	1098.578
96.943	27.881	1343.302	1098.372
97.957	27.858	1342.244	1097.272
98.972	27.898	1341.354	1096.687
99.987	27.933	1340.228	1095.878
101.001	27.914	1338.981	1094.645
102.016	27.882	1338.536	1093.996
103.030	27.871	1337.416	1092.915
104.045	27.977	1336.811	1092.957
105.060	27.919	1335.842	1091.722
106.074	27.857	1334.881	1090.470
107.089	28.003	1333.323	1089.972
108.103	27.976	1332.698	1089.209
109.118	27.872	1331.554	1087.554
110.133	27.867	1330.699	1086.731
111.147	27.991	1329.250	1086.186
112.162	27.996	1328.354	1085.392
113.176	27.981	1327.347	1084.380
114.191	28.012	1326.249	1083.570
115.206	27.955	1325.207	1082.288
116.220	27.998	1324.560	1081.920
117.235	27.956	1323.434	1080.655
118.249	27.894	1322.687	1079.584
119.264	27.922	1321.477	1078.663
120.279	27.968	1320.948	1078.410
121.293	27.975	1320.084	1077.649
122.308	27.994	1319.641	1077.307
123.322	28.084	1318.578	1076.874
124.337	28.019	1317.882	1075.822
125.352	28.184	1316.733	1075.764
126.366	28.098	1315.958	1074.531
127.381	28.078	1315.272	1073.758
128.395	28.060	1314.225	1072.703
129.410	28.116	1313.431	1072.287
130.424	28.083	1313.007	1071.650
131.439	28.066	1311.870	1070.529
132.454	28.111	1310.730	1069.767
133.468	28.027	1310.806	1069.240
134.483	28.094	1309.880	1068.787
135.497	27.934	1309.382	1067.347
136.512	27.991	1308.348	1066.743
137.527	28.039	1307.270	1066.050
138.541	27.988	1306.218	1064.804
139.556	27.947	1304.898	1063.393
140.570	28.107	1303.297	1062.926
141.585	27.982	1303.006	1061.864
142.600	27.959	1301.955	1060.784
143.614	28.009	1301.246	1060.403
144.629	27.958	1299.762	1058.801
145.643	28.005	1298.826	1058.220
146.658	27.825	1298.384	1056.720
147.673	27.925	1297.015	1056.091
148.687	27.941	1296.006	1055.271
149.702	27.907	1294.990	1054.154
150.716	28.085	1293.552	1053.917
151.731	27.967	1292.731	1052.472
152.746	27.948	1291.798	1051.510
153.760	28.111	1290.590	1051.370
154.775	28.081	1289.447	1050.177
155.789	27.965	1288.814	1048.903
156.804	28.051	1287.929	1048.584
157.819	28.015	1287.175	1047.672
158.833	28.015	1286.143	1046.736
159.848	28.100	1285.511	1046.618
160.862	28.009	1285.265	1045.804
161.877	28.099	1283.736	1044.978
162.892	28.094	1282.763	1044.065
163.906	28.126	1282.761	1044.157
164.921	28.150	1281.990	1043.571
165.935	28.147	1281.121	1042.758
166.950	28.110	1280.543	1041.983
167.964	28.096	1279.703	1041.126
168.979	28.171	1279.102	1040.974
169.994	28.154	1278.598	1040.374
171.008	28.219	1277.206	1039.520
172.023	28.150	1276.942	1038.817
173.037	28.151	1275.942	1037.920
174.052	28.214	1275.453	1037.786
175.067	28.179	1274.726	1036.904
176.081	28.172	1274.171	1036.325
177.096	28.064	1273.104	1034.755
178.110	28.221	1272.028	1034.673
179.125	28.188	1271.120	1033.656
180.140	28.183	1270.211	1032.797
181.154	28.173	1269.098	1031.748
182.169	28.157	1267.881	1030.577
183.183	28.167	1266.897	1029.739
184.198	28.297	1265.605	1029.331
185.213	28.187	1265.108	1028.219
186.227	28.269	1264.194	1027.841
187.242	28.163	1263.642	1026.707
188.256	28.229	1262.126	1025.756
189.271	28.260	1261.366	1025.222
190.286	28.276	1260.280	1024.338
191.300	28.202	1260.266	1023.822
192.315	28.168	1259.910	1023.250
193.329	28.254	1259.431	1023.250
194.344	28.215	1259.290	1022.830
195.359	28.214	1258.619	1022.190
196.373	28.071	1258.505	1021.204
197.388	28.191	1257.791	1021.206
198.402	28.164	1257.644	1020.845
199.417	28.164	1256.851	1020.114
200.432	28.206	1256.544	1020.004
201.446	28.179	1256.036	1019.351
202.461	28.296	1254.853	1018.952
203.475	28.216	1254.340	1018.003
204.490	28.282	1253.013	1017.202
205.504	28.192	1252.058	1015.840
206.519	28.276	1251.156	1015.483
207.534	28.316	1250.149	1014.796
208.548	28.275	1249.127	1013.651
209.563	28.160	1248.672	1012.556
210.577	28.264	1247.758	1012.299
211.592	28.247	1247.261	1011.709
212.607	28.355	1245.969	1011.171
213.621	28.397	1245.404	1010.856
214.636	28.444	1244.500	1010.288
215.650	28.490	1243.641	1009.757
216.665	28.406	1242.440	1008.229
217.680	28.405	1241.752	1007.577
218.694	28.388	1241.283	1007.016
219.709	28.431	1240.573	1006.582
220.723	28.369	1239.850	1005.567
221.738	28.327	1239.212	1004.734
222.753	28.324	1238.209	1003.815
223.767	28.344	1237.821	1003.522
224.782	28.367	1237.489	1003.290
225.796	28.426	1236.962	1003.093
226.811	28.439	1236.076	1002.359
227.826	28.503	1235.629	1002.257
228.840	28.432	1235.102	1001.351
229.855	28.468	1234.283	1000.798
230.869	28.463	1233.597	1000.125
231.884	28.489	1232.813	999.544
232.899	28.325	1232.584	998.376
233.913	28.466	1231.130	997.878
234.928	28.530	1230.909	997.954
235.942	28.630	1230.244	997.870
236.957	28.440	1230.066	996.609
237.972	28.494	1229.235	996.141
238.986	28.415	1228.673	995.166
240.001	28.495	1228.002	994.970
241.015	28.672	1226.720	994.804
242.030	28.662	1226.132	994.183
243.045	28.558	1225.425	992.956
244.059	28.640	1224.531	992.592
245.074	28.768	1223.464	992.326
246.088	28.720	1222.749	991.404
247.103	28.604	1222.486	990.473
248.117	28.719	1221.148	989.921
249.132	28.767	1220.902	989.896
250.147	28.681	1220.235	988.805
251.161	28.743	1219.252	988.253
252.176	28.720	1218.617	987.525
253.190	28.664	1218.507	987.050
254.205	28.762	1217.558	986.718
255.220	28.656	1216.953	985.571
256.234	28.793	1216.160	985.577
257.249	28.722	1215.671	984.716
258.263	28.768	1214.894	984.242
259.278	28.773	1214.135	983.569
260.293	28.844	1213.500	983.348
261.307	28.787	1213.128	982.653
262.322	28.817	1212.418	982.154
263.336	28.673	1212.065	981.012
264.351	28.748	1211.684	981.016
265.366	28.767	1210.753	980.273
266.380	28.772	1210.046	979.644
267.395	28.748	1209.650	979.109
268.409	28.672	1208.894	978.003
269.424	28.732	1208.396	977.833
270.439	28.807	1207.979	977.809
271.453	28.829	1207.100	977.129
272.468	28.767	1206.176	975.963
273.482	28.844	1205.218	975.513
274.497	28.799	1205.259	975.223
275.512	28.874	1204.794	975.157
276.526	28.873	1203.862	974.308
277.541	28.932	1203.134	973.947
278.555	28.892	1202.638	973.246
279.570	28.897	1201.651	972.390
280.585	28.879	1200.953	971.643
281.599	28.888	1200.114	970.924
282.614	29.015	1199.024	970.630
283.628	29.001	1198.412	969.971
284.643	28.931	1197.622	968.877
285.657	28.908	1196.650	967.888
286.672	28.866	1196.238	967.247
287.687	29.012	1194.866	966.820
288.701	28.895	1194.871	966.123
289.716	29.046	1193.652	965.846
290.730	28.930	1193.231	964.806
291.745	28.983	1192.511	964.421
292.760	28.967	1192.168	963.974
293.774	29.086	1191.701	964.135
294.789	29.049	1190.907	963.214
295.803	29.070	1190.412	962.838
296.818	28.979	1189.549	961.578
297.833	29.137	1188.927	961.814
298.847	29.083	1188.452	961.065
299.862	29.087	1187.429	960.174
300.876	29.049	1186.927	959.481
301.891	29.111	1186.311	959.224
302.906	29.230	1185.651	959.225
303.920	29.146	1185.221	958.356
304.935	29.126	1184.397	957.497
305.949	29.190	1183.758	957.227
306.964	29.123	1183.084	956.253
307.979	29.230	1182.300	956.088
308.993	29.195	1181.770	955.396
310.008	29.352	1180.823	955.358
311.022	29.143	1180.135	953.634
312.037	29.131	1179.533	953.001
313.052	29.180	1178.751	952.538
314.066	29.235	1177.998	952.130
315.081	29.079	1177.334	950.702
316.095	29.267	1176.664	951.050
317.110	29.226	1176.005	950.219
318.125	29.343	1175.218	950.103
319.139	29.349	1174.207	949.230
320.154	29.266	1173.674	948.292
321.168	29.310	1173.419	948.228
322.183	29.265	1172.786	947.403
323.197	29.294	1172.465	947.205
324.212	29.358	1171.680	946.818
325.227	29.297	1171.475	946.253
326.241	29.380	1170.474	945.788
327.256	29.361	1169.834	945.088
328.270	29.385	1169.135	944.565
329.285	29.372	1168.235	943.684
330.300	29.402	1167.358	943.050
331.314	29.343	1166.737	942.160
332.329	29.315	1166.055	941.386
333.343	29.435	1165.039	941.096
334.358	29.539	1164.358	940.991
335.373	29.468	1163.906	940.180
336.387	29.516	1163.100	939.690
337.402	29.645	1162.346	939.654
338.416	29.578	1161.532	938.570
339.431	29.482	1161.404	937.897
340.446	29.491	1160.611	937.221
341.460	29.538	1160.130	936.987
342.475	29.579	1159.432	936.548
343.489	29.479	1158.569	935.264
344.504	29.494	1157.745	934.591
345.519	29.530	1156.556	933.731
346.533	29.725	1155.498	933.778
347.548	29.586	1155.125	932.691
348.562	29.566	1154.460	931.972
349.577	29.681	1153.403	931.616
350.592	29.662	1152.744	930.907
351.606	29.577	1151.782	929.616
352.621	29.646	1151.662	929.784
353.635	29.605	1151.314	929.219
354.650	29.624	1150.440	928.527
355.665	29.696	1149.593	928.120
356.679	29.825	1149.132	928.314
357.694	29.768	1148.476	927.414
358.708	29.739	1148.214	926.977
359.723	29.561	1147.629	925.532
360.738	29.612	1146.686	924.944
361.752	29.761	1145.756	924.857
362.767	29.762	1145.563	924.622
363.781	29.696	1144.842	923.630
364.796	29.728	1144.367	923.324
365.810	29.860	1143.738	923.396
366.825	29.797	1143.216	922.574
367.840	29.896	1142.685	922.561
368.854	29.978	1142.033	922.360
369.869	29.925	1141.016	921.192
370.883	29.946	1140.441	920.753
371.898	29.844	1139.707	919.573
372.913	29.940	1139.237	919.586
373.927	29.939	1138.734	919.097
374.942	29.895	1138.559	918.656
375.956	29.905	1137.696	917.927
376.971	29.914	1137.312	917.582
377.986	29.969	1136.526	917.139
379.000	29.967	1136.213	916.795
380.015	29.982	1135.774	916.432
381.029	29.900	1135.125	915.422
382.044	29.970	1134.457	915.151
383.059	30.146	1133.373	915.060
384.073	30.055	1132.856	914.117
385.088	30.062	1131.857	913.264
386.102	29.902	1131.346	911.980
387.117	30.085	1130.146	911.836
388.132	29.982	1129.162	910.451
389.146	30.065	1128.847	910.524
390.161	30.001	1128.163	909.577
391.175	30.164	1127.475	909.744
392.190	30.147	1127.014	909.207
393.205	30.100	1126.329	908.346
394.219	30.033	1125.566	907.320
395.234	30.220	1124.678	907.438
396.248	30.193	1123.932	906.627
397.263	30.207	1123.055	905.908
398.278	30.093	1122.771	905.040
399.292	30.193	1122.151	904.949
400.307	30.284	1121.242	904.578
401.321	30.212	1120.607	903.635
402.336	30.144	1120.354	903.020
403.350	30.273	1119.255	902.682
404.365	30.266	1119.173	902.501
405.380	30.292	1118.084	901.673
406.394	30.234	1117.434	900.786
407.409	30.345	1116.841	900.766
408.423	30.411	1115.975	900.306
409.438	30.346	1115.226	899.312
410.453	30.433	1114.422	899.001
411.467	30.409	1113.607	898.147
412.482	30.429	1113.002	897.681
413.496	30.502	1112.428	897.487
414.511	30.297	1111.939	896.023
415.526	30.454	1111.700	896.513
416.540	30.380	1111.315	895.765
417.555	30.491	1110.548	895.603
418.569	30.317	1110.236	894.433
419.584	30.484	1109.269	894.381
420.599	30.540	1109.040	894.384
421.613	94.788	1311.155	1406.384
422.628	88.877	1340.575	1406.502
