DTS Sentinel unit serial number:	SN413079Multiplexer serial number:	ORYXHardware model number:	OX4-SRSoftware version number:	ORYX F/W v4.00 Oryx Data Collector v3.7.2.0data status	okinstallation	princeton_trtdifferential loss correction	single-endedforward channel	channel 2reverse channel	N/Adate	2019/09/13time	01:59:35forward acquisition time	60.00reverse acquisition time	0.00gamma	496.2192k internal	0.2334k external	0.2334temperature offset calibration	1.0178default loss term (dB/km)	0.3790temperature slope calibration	1.0000multiplexer offset coefficient	1.0000multiplexer slope coefficient	1.0000fibre end	0.00T internal ref (°C)	27.62T ext. ref 1 (°C)	3.86T ext. ref 2 (°C)	22.25length (m)	temperature (°C)	Stokes	anti-Stokes-747.200	-200.000	-0.008	-0.138
-746.185	800.000	0.163	0.468
-745.171	216.010	-0.046	0.074
-744.156	152.970	-0.106	0.146
-743.142	166.799	-0.228	-0.326
-742.127	-95.066	-0.188	-0.051
-741.112	469.335	-0.136	-0.307
-740.098	-1.907	-0.067	-0.047
-739.083	-11.739	0.257	-0.169
-738.069	-200.000	-0.006	0.213
-737.054	21.358	0.137	0.112
-736.039	-200.000	-0.004	0.099
-735.025	-98.834	0.459	-0.117
-734.010	20.097	-0.195	-0.158
-732.996	-67.806	0.161	0.063
-731.981	-200.000	0.018	-0.277
-730.966	-174.813	0.241	0.007
-729.952	-71.169	0.115	0.043
-728.937	364.515	-0.072	-0.146
-727.923	-62.239	0.038	-0.016
-726.908	-98.767	-0.229	0.059
-725.894	-55.994	0.124	-0.056
-724.879	-134.103	-0.371	0.046
-723.864	618.882	0.133	-0.336
-722.850	-148.220	-0.404	0.034
-721.835	-200.000	-0.079	-0.373
-720.821	-10.571	-0.098	-0.065
-719.806	-152.497	-0.185	-0.013
-718.791	499.857	-0.093	-0.215
-717.777	-15.730	-0.259	-0.166
-716.762	-200.000	0.016	0.070
-715.748	-117.898	0.184	-0.033
-714.733	-129.736	0.171	0.024
-713.718	91.027	0.109	-0.123
-712.704	-46.718	-0.025	0.012
-711.689	49.727	0.132	0.125
-710.675	-9.002	0.117	-0.079
-709.660	-200.000	0.002	-0.204
-708.645	800.000	-0.076	0.308
-707.631	-19.301	-0.261	-0.163
-706.616	175.341	-0.168	-0.245
-705.602	-130.635	-0.229	0.031
-704.587	-200.000	0.026	0.252
-703.572	-200.000	-0.002	-0.188
-702.558	-68.498	-0.263	-0.102
-701.543	-200.000	-0.006	0.035
-700.529	800.000	0.086	-0.247
-699.514	-13.546	-0.144	-0.094
-698.499	-200.000	0.025	-0.140
-697.485	-200.000	0.028	-0.323
-696.470	-6.907	-0.215	-0.147
-695.456	84.095	-0.068	-0.075
-694.441	86.440	-0.032	-0.036
-693.426	493.125	0.081	-0.187
-692.412	32.592	-0.174	0.151
-691.397	-200.000	0.013	0.202
-690.383	15.286	-0.346	-0.272
-689.368	-81.416	-0.146	-0.048
-688.354	800.000	-0.135	-0.383
-687.339	-32.088	0.230	0.129
-686.324	-200.000	0.001	0.089
-685.310	800.000	0.041	-0.136
-684.295	25.643	-0.066	-0.055
-683.281	100.463	0.086	-0.101
-682.266	-2.884	-0.292	0.204
-681.251	-200.000	0.001	-0.038
-680.237	8.825	0.142	-0.108
-679.222	-90.071	-0.270	-0.079
-678.208	-5.798	-0.048	-0.033
-677.193	-116.284	-0.297	0.055
-676.178	-200.000	-0.012	-0.076
-675.164	68.030	-0.348	-0.357
-674.149	623.495	0.113	-0.286
-673.135	-55.228	0.080	-0.036
-672.120	429.938	0.055	-0.120
-671.105	-60.251	-0.255	0.109
-670.091	47.806	-0.064	0.060
-669.076	-114.836	0.347	-0.066
-668.062	-151.186	-0.409	-0.031
-667.047	-61.447	0.171	0.072
-666.032	-200.000	-0.013	-0.130
-665.018	-29.833	0.051	0.029
-664.003	800.000	-0.022	-0.067
-662.989	-200.000	-0.036	-0.205
-661.974	-135.839	-0.127	-0.015
-660.959	40.901	-0.143	-0.130
-659.945	-50.276	-0.126	0.060
-658.930	800.000	0.066	0.185
-657.916	209.098	-0.096	0.150
-656.901	800.000	-0.006	-0.024
-655.886	645.079	-0.090	0.231
-654.872	-25.734	-0.215	0.127
-653.857	-200.000	0.013	-0.099
-652.843	-3.107	0.077	0.054
-651.828	78.440	-0.200	0.214
-650.814	-155.947	-0.245	0.016
-649.799	639.523	0.029	0.073
-648.784	710.087	0.040	0.105
-647.770	-136.941	0.346	-0.040
-646.755	-20.982	0.234	0.143
-645.741	212.268	-0.033	0.051
-644.726	-25.116	-0.086	0.051
-643.711	-29.990	0.051	-0.029
-642.697	330.092	-0.114	0.219
-641.682	547.741	0.062	-0.149
-640.668	-200.000	0.053	-0.249
-639.653	257.777	-0.070	-0.120
-638.638	457.593	-0.061	-0.136
-637.624	-95.526	-0.154	0.041
-636.609	-200.000	0.008	0.125
-635.595	152.929	-0.214	0.293
-634.580	-200.000	-0.038	-0.434
-633.565	-106.020	-0.058	-0.013
-632.551	-47.821	0.115	-0.056
-631.536	-66.863	0.236	0.093
-630.522	80.077	-0.323	-0.347
-629.507	-134.455	-0.176	0.022
-628.492	120.382	0.098	-0.121
-627.478	31.941	-0.225	0.194
-626.463	262.163	0.119	-0.206
-625.449	-200.000	0.037	-0.352
-624.434	800.000	0.064	-0.272
-623.419	344.720	-0.112	-0.219
-622.405	-127.147	-0.262	-0.038
-621.390	337.651	0.119	0.232
-620.376	-69.817	0.367	0.140
-619.361	800.000	0.025	-0.092
-618.346	267.733	-0.181	-0.317
-617.332	40.915	0.166	0.150
-616.317	-92.073	0.058	0.016
-615.303	-63.473	-0.079	0.032
-614.288	343.033	0.059	0.115
-613.273	-157.255	0.191	0.012
-612.259	-169.964	0.410	-0.015
-611.244	-41.311	-0.453	-0.234
-610.230	-200.000	0.020	-0.220
-609.215	124.937	-0.070	-0.088
-608.201	800.000	-0.109	0.301
-607.186	-17.724	-0.161	-0.101
-606.171	-3.846	-0.250	0.173
-605.157	-200.000	0.337	0.001
-604.142	70.952	0.115	-0.119
-603.128	228.967	0.073	0.118
-602.113	244.535	-0.163	-0.274
-601.098	-200.000	-0.008	0.040
-600.084	-152.095	-0.088	0.006
-599.069	268.260	0.105	-0.184
-598.055	-111.695	0.153	0.031
-597.040	-200.000	0.020	-0.311
-596.025	25.352	-0.139	-0.115
-595.011	161.463	0.248	-0.346
-593.996	-200.000	-0.023	-0.189
-592.982	42.994	0.144	-0.131
-591.967	-88.299	-0.039	-0.012
-590.952	-70.279	0.042	-0.016
-589.938	250.793	-0.153	-0.260
-588.923	-146.388	0.297	0.026
-587.909	800.000	-0.048	-0.156
-586.894	-110.962	0.228	0.047
-585.879	-109.084	0.252	-0.054
-584.865	-90.473	-0.230	-0.067
-583.850	105.586	0.073	-0.086
-582.836	-200.000	0.026	0.408
-581.821	-200.000	-0.033	-0.271
-580.806	800.000	-0.096	-0.304
-579.792	8.315	-0.043	-0.032
-578.777	-153.245	0.181	0.013
-577.763	-200.000	-0.011	0.128
-576.748	155.143	-0.062	-0.086
-575.733	10.108	0.140	0.106
-574.719	-65.978	-0.112	-0.045
-573.704	128.989	-0.271	-0.345
-572.690	-142.892	-0.173	-0.017
-571.675	-47.920	0.273	0.132
-570.661	162.754	0.159	-0.222
-569.646	-79.250	-0.059	-0.020
-568.631	-95.573	-0.234	0.063
-567.617	150.771	0.217	0.294
-566.602	-200.000	0.004	-0.109
-565.588	-150.642	0.043	-0.003
-564.573	-200.000	-0.003	0.017
-563.558	-83.481	-0.337	-0.108
-562.544	-137.991	-0.277	-0.031
-561.529	97.513	0.094	-0.107
-560.515	-29.515	0.230	-0.131
-559.500	516.059	-0.021	-0.050
-558.485	178.230	-0.092	-0.135
-557.471	800.000	0.057	-0.176
-556.456	282.822	-0.100	0.180
-555.442	800.000	0.061	-0.256
-554.427	-186.047	-0.222	-0.003
-553.412	-18.637	-0.260	0.162
-552.398	302.354	-0.114	-0.210
-551.383	-46.750	0.181	-0.088
-550.369	-154.733	0.298	-0.020
-549.354	-10.446	0.210	0.139
-548.339	-96.820	-0.294	-0.077
-547.325	800.000	-0.081	-0.341
-546.310	209.258	0.252	0.394
-545.296	-52.770	-0.295	-0.136
-544.281	-195.045	0.156	-0.001
-543.266	-121.037	0.318	-0.053
-542.252	-71.012	-0.338	-0.127
-541.237	679.252	-0.060	0.156
-540.223	-93.672	0.179	-0.049
-539.208	-200.000	0.004	0.131
-538.193	-127.546	0.323	-0.047
-537.179	-31.507	0.238	-0.133
-536.164	94.535	0.205	0.233
-535.150	-105.270	-0.172	0.039
-534.135	-200.000	0.024	-0.133
-533.121	-176.551	0.184	-0.005
-532.106	416.929	0.065	0.138
-531.091	306.642	0.097	0.180
-530.077	13.007	0.086	0.066
-529.062	97.783	-0.270	0.309
-528.048	-46.867	0.088	0.043
-527.033	-118.458	0.257	0.045
-526.018	43.802	0.117	0.107
-525.004	99.592	0.055	0.063
-523.989	75.753	-0.247	-0.260
-522.975	-119.255	0.019	0.003
-521.960	-47.216	-0.112	-0.054
-520.945	84.195	0.201	-0.219
-519.931	-63.428	-0.121	0.049
-518.916	84.021	0.170	0.185
-517.902	48.811	-0.111	0.104
-516.887	-181.698	-0.302	0.006
-515.872	-74.397	0.057	-0.020
-514.858	-20.827	-0.387	-0.236
-513.843	-2.424	-0.256	0.179
-512.829	-26.024	-0.111	-0.065
-511.814	-111.208	-0.412	-0.084
-510.799	-200.000	-0.022	0.226
-509.785	-75.918	0.201	-0.071
-508.770	499.616	-0.087	0.200
-507.756	-108.027	-0.177	-0.038
-506.741	-108.976	0.393	-0.083
-505.726	3.712	-0.221	-0.160
-504.712	-200.000	-0.034	0.190
-503.697	131.458	-0.136	0.174
-502.683	41.191	-0.232	0.208
-501.668	73.770	-0.120	-0.125
-500.653	-200.000	-0.012	0.221
-499.639	-89.467	0.060	0.017
-498.624	14.792	-0.198	0.154
-497.610	-137.493	-0.075	-0.008
-496.595	-94.471	0.264	-0.072
-495.581	181.919	-0.047	0.068
-494.566	349.787	-0.132	0.260
-493.551	133.202	0.186	-0.239
-492.537	380.500	-0.140	-0.285
-491.522	693.433	-0.059	-0.153
-490.508	-39.509	0.205	0.107
-489.493	800.000	-0.080	-0.297
-488.478	-200.000	-0.013	0.158
-487.464	283.754	-0.071	0.128
-486.449	65.837	0.083	0.083
-485.435	-1.052	0.056	0.039
-484.420	-131.440	0.201	0.026
-483.405	-200.000	-0.028	-0.202
-482.391	-176.072	0.321	-0.008
-481.376	26.803	-0.141	0.117
-480.362	4.474	-0.050	-0.036
-479.347	338.798	0.008	-0.015
-478.332	-200.000	-0.030	-0.201
-477.318	800.000	0.067	-0.246
-476.303	334.815	-0.122	0.234
-475.289	-175.063	0.252	-0.007
-474.274	-58.163	0.183	-0.079
-473.259	9.490	-0.287	-0.216
-472.245	-174.521	-0.359	-0.010
-471.230	-138.238	-0.128	-0.014
-470.216	22.549	0.178	0.145
-469.201	176.877	-0.060	-0.087
-468.186	-114.306	-0.231	-0.044
-467.172	206.077	-0.047	0.072
-466.157	-80.803	0.201	0.066
-465.143	118.664	-0.042	-0.051
-464.128	21.148	-0.377	-0.304
-463.113	-38.970	0.171	-0.090
-462.099	800.000	-0.034	0.145
-461.084	-200.000	-0.010	-0.086
-460.070	137.657	-0.152	0.198
-459.055	246.040	0.216	0.362
-458.040	131.306	0.127	0.162
-457.026	800.000	0.013	-0.047
-456.011	-200.000	0.024	0.178
-454.997	-200.000	-0.016	-0.278
-453.982	64.601	0.276	-0.277
-452.968	-22.144	-0.074	-0.045
-451.953	-200.000	0.009	-0.125
-450.938	-62.256	-0.143	-0.059
-449.924	-200.000	-0.019	-0.126
-448.909	-200.000	0.084	0.437
-447.895	-39.096	-0.243	0.127
-446.880	26.012	-0.177	-0.147
-445.865	-26.474	0.045	-0.026
-444.851	800.000	0.115	0.347
-443.836	-200.000	0.065	0.284
-442.822	22.859	0.138	-0.112
-441.807	-43.063	-0.065	-0.033
-440.792	60.966	0.226	0.223
-439.778	-8.150	-0.173	0.116
-438.763	800.000	-0.031	-0.096
-437.749	-72.657	0.371	0.136
-436.734	-145.715	0.159	-0.014
-435.719	-10.572	0.200	0.131
-434.705	119.642	0.209	-0.257
-433.690	-200.000	0.029	-0.197
-432.676	291.608	-0.087	0.158
-431.661	-164.550	-0.246	-0.011
-430.646	-153.326	0.165	-0.011
-429.632	134.862	0.132	-0.170
-428.617	611.428	0.107	-0.265
-427.603	61.438	-0.238	-0.235
-426.588	-153.631	0.490	0.034
-425.573	-200.000	0.088	0.395
-424.559	199.282	0.166	-0.252
-423.544	291.848	0.027	0.049
-422.530	156.687	-0.175	-0.240
-421.515	30.514	0.188	-0.160
-420.500	612.864	-0.056	0.138
-419.486	-31.901	0.293	0.163
-418.471	-83.489	-0.082	-0.026
-417.457	-109.008	0.220	0.046
-416.442	-115.573	-0.359	0.067
-415.428	-200.000	-0.022	-0.205
-414.413	113.758	0.133	-0.160
-413.398	-200.000	0.034	-0.147
-412.384	113.582	-0.134	0.161
-411.369	515.395	0.131	0.303
-410.355	-177.269	0.169	0.004
-409.340	-43.189	-0.115	0.058
-408.325	-81.473	0.166	0.054
-407.311	-51.733	0.229	0.106
-406.296	362.958	0.227	0.452
-405.282	278.119	-0.022	0.039
-404.267	6.490	0.043	-0.032
-403.252	-200.000	-0.032	0.173
-402.238	87.983	-0.017	-0.018
-401.223	327.330	-0.039	0.075
-400.209	-200.000	0.011	0.143
-399.194	-72.978	-0.287	-0.104
-398.179	-152.515	0.276	-0.020
-397.165	387.149	0.037	-0.075
-396.150	800.000	-0.081	0.270
-395.136	42.118	0.341	-0.307
-394.121	-200.000	-0.002	0.011
-393.106	111.936	0.229	0.274
-392.092	-75.551	-0.245	0.086
-391.077	290.032	-0.083	-0.150
-390.063	229.252	0.145	0.235
-389.048	12.712	0.225	-0.172
-388.033	154.910	-0.210	-0.286
-387.019	482.942	0.097	0.219
-386.004	-200.000	-0.013	-0.116
-384.990	442.830	0.036	-0.077
-383.975	-136.700	-0.268	0.031
-382.960	800.000	0.099	-0.352
-381.946	800.000	-0.031	-0.108
-380.931	-38.163	-0.185	0.097
-379.917	800.000	0.042	0.124
-378.902	-124.623	-0.131	0.020
-377.888	206.960	0.128	-0.198
-376.873	-79.878	-0.241	0.080
-375.858	326.637	0.045	0.086
-374.844	-97.998	-0.242	-0.062
-373.829	-200.000	0.028	-0.235
-372.815	-133.616	-0.127	-0.016
-371.800	-41.336	0.272	-0.139
-370.785	-200.000	-0.044	-0.342
-369.771	-200.000	0.004	0.079
-368.756	256.705	-0.195	0.331
-367.742	253.245	-0.037	-0.062
-366.727	-120.738	0.339	0.057
-365.712	800.000	-0.144	0.432
-364.698	-200.000	-0.002	0.296
-363.683	-56.748	0.089	0.039
-362.669	-0.318	0.001	-0.001
-361.654	800.000	0.053	0.188
-360.639	-200.000	0.051	0.298
-359.625	534.372	0.049	0.115
-358.610	-200.000	-0.037	0.214
-357.596	-133.634	-0.133	0.016
-356.581	114.797	-0.141	-0.171
-355.566	78.016	-0.051	0.054
-354.552	548.693	0.052	-0.124
-353.537	-200.000	-0.004	0.264
-352.523	-157.059	-0.064	0.004
-351.508	527.507	0.137	-0.320
-350.493	212.320	-0.094	0.146
-349.479	253.492	0.081	-0.137
-348.464	22.765	0.221	0.179
-347.450	31.463	-0.113	0.096
-346.435	-20.199	0.069	-0.042
-345.420	92.190	0.136	0.151
-344.406	-200.000	-0.008	-0.216
-343.391	198.957	-0.079	-0.120
-342.377	-200.000	-0.069	0.301
-341.362	8.123	-0.114	0.085
-340.348	-17.248	0.155	0.097
-339.333	-109.857	-0.149	-0.031
-338.318	303.305	-0.263	-0.483
-337.304	-66.896	-0.162	-0.063
-336.289	800.000	0.054	-0.197
-335.275	10.467	0.203	0.153
-334.260	800.000	-0.083	-0.266
-333.245	336.211	-0.095	0.183
-332.231	27.962	-0.285	0.238
-331.216	-200.000	-0.032	-0.255
-330.202	313.462	-0.149	-0.278
-329.187	70.709	-0.102	-0.105
-328.172	36.380	0.249	0.217
-327.158	-200.000	-0.032	0.180
-326.143	-200.000	0.015	-0.200
-325.129	-41.012	-0.062	0.032
-324.114	-3.078	-0.178	-0.123
-323.099	25.057	0.068	-0.056
-322.085	-200.000	-0.008	-0.083
-321.070	13.369	0.168	-0.129
-320.056	-142.734	0.184	-0.018
-319.041	689.610	0.138	0.357
-318.026	-68.205	-0.256	0.098
-317.012	-21.232	0.506	0.305
-315.997	-200.000	-0.033	0.224
-314.983	-90.754	-0.025	0.007
-313.968	800.000	-0.101	-0.282
-312.953	698.745	-0.090	-0.234
-311.939	-34.514	0.287	-0.155
-310.924	-85.170	0.240	-0.074
-309.910	68.946	-0.190	-0.193
-308.895	-200.000	0.077	-0.372
-307.880	-49.905	0.286	0.134
-306.866	-26.753	-0.169	0.098
-305.851	-50.913	0.150	-0.070
-304.837	29.604	0.146	0.123
-303.822	243.271	0.144	0.238
-302.807	92.235	0.160	-0.178
-301.793	-125.846	0.399	0.059
-300.778	519.977	0.035	0.081
-299.764	-200.000	-0.057	-0.403
-298.749	-200.000	-0.117	-0.575
-297.735	154.721	-0.123	0.167
-296.720	-97.857	-0.253	-0.065
-295.705	-24.273	0.296	0.174
-294.691	45.225	0.196	0.178
-293.676	-23.123	-0.112	0.066
-292.662	-44.592	-0.112	0.055
-291.647	431.290	-0.029	-0.063
-290.632	-200.000	-0.060	0.345
-289.618	17.283	-0.184	0.144
-288.603	145.098	-0.194	0.256
-287.589	-78.462	-0.611	0.207
-286.574	-59.325	-0.115	-0.049
-285.559	82.800	-0.068	-0.072
-284.545	111.560	0.183	0.217
-283.530	-95.729	-0.447	-0.118
-282.516	15.208	-0.197	-0.153
-281.501	-16.237	-0.318	0.200
-280.486	-64.658	-0.036	0.015
-279.472	165.913	0.140	0.196
-278.457	-20.371	0.150	0.091
-277.443	800.000	0.053	-0.151
-276.428	-23.214	0.259	0.154
-275.413	-56.257	-0.208	-0.091
-274.399	-54.352	0.275	0.123
-273.384	71.111	0.128	0.131
-272.370	63.386	0.087	0.086
-271.355	-55.483	0.461	0.204
-270.340	800.000	-0.065	0.184
-269.326	93.516	-0.179	-0.200
-268.311	-135.269	-0.183	-0.022
-267.297	800.000	-0.026	-0.109
-266.282	189.126	0.077	0.114
-265.267	-75.722	0.261	-0.091
-264.253	-118.149	-0.276	-0.048
-263.238	-122.543	-0.013	-0.002
-262.224	-57.859	0.194	-0.084
-261.209	4.657	-0.147	-0.107
-260.195	-117.128	-0.145	0.026
-259.180	-108.675	-0.226	-0.048
-258.165	69.479	-0.060	-0.061
-257.151	-76.059	-0.088	-0.031
-256.136	-73.323	0.110	0.040
-255.122	201.185	0.049	-0.075
-254.107	-71.577	-0.035	-0.013
-253.092	124.708	-0.099	0.123
-252.078	800.000	-0.040	-0.163
-251.063	-200.000	0.014	-0.234
-250.049	-43.703	0.304	0.151
-249.034	-76.963	-0.027	-0.009
-248.019	-200.000	-0.006	0.162
-247.005	800.000	-0.057	0.211
-245.990	21.438	-0.149	0.120
-244.976	-78.153	-0.278	0.094
-243.961	93.271	0.098	-0.109
-242.946	428.402	0.040	0.084
-241.932	-200.000	0.037	0.199
-240.917	162.998	-0.139	0.193
-239.903	-115.919	0.120	0.022
-238.888	-22.096	0.059	-0.035
-237.873	-144.448	-0.273	0.025
-236.859	-200.000	0.000	0.087
-235.844	8.263	-0.321	-0.238
-234.830	-200.000	-0.020	-0.122
-233.815	-11.526	0.056	-0.036
-232.800	402.867	-0.105	0.218
-231.786	-162.094	-0.219	-0.011
-230.771	47.216	0.051	-0.047
-229.757	-163.437	-0.139	0.007
-228.742	58.458	0.462	-0.446
-227.727	-39.563	-0.255	0.131
-226.713	-200.000	-0.002	-0.122
-225.698	-113.349	0.373	0.072
-224.684	-131.682	-0.311	0.040
-223.669	-200.000	-0.002	-0.022
-222.655	-200.000	-0.049	0.281
-221.640	319.784	0.136	-0.253
-220.625	-54.328	-0.188	-0.084
-219.611	207.096	-0.066	-0.102
-218.596	-125.711	0.126	0.019
-217.582	49.345	0.207	0.191
-216.567	28.470	-0.097	0.081
-215.552	91.329	-0.101	-0.112
-214.538	-190.861	0.145	0.002
-213.523	312.678	-0.127	0.235
-212.509	431.442	0.024	0.051
-211.494	-200.000	0.085	0.497
-210.479	103.368	0.096	-0.110
-209.465	124.331	0.198	-0.245
-208.450	-200.000	0.008	0.070
-207.436	800.000	0.088	-0.250
-206.421	-40.310	0.143	0.073
-205.406	800.000	0.167	0.513
-204.392	338.592	-0.094	0.179
-203.377	291.597	0.103	-0.184
-202.363	-200.000	-0.039	0.300
-201.348	-117.185	0.192	0.034
-200.333	18.472	0.069	0.054
-199.319	609.270	0.121	-0.297
-198.304	-200.000	-0.036	-0.189
-197.290	-35.829	-0.171	-0.091
-196.275	-89.004	-0.300	-0.087
-195.260	800.000	-0.091	0.334
-194.246	153.637	-0.146	0.197
-193.231	246.350	0.143	-0.237
-192.217	126.892	0.123	0.154
-191.202	-130.218	-0.341	-0.046
-190.187	-30.357	0.319	-0.178
-189.173	800.000	-0.019	0.073
-188.158	-5.868	0.053	-0.036
-187.144	800.000	0.018	-0.073
-186.129	-73.689	0.265	-0.095
-185.114	137.580	0.071	-0.092
-184.100	-47.522	0.285	-0.136
-183.085	183.653	-0.104	-0.151
-182.071	657.048	-0.142	-0.360
-181.056	711.896	-0.079	0.206
-180.042	-200.000	-0.015	0.177
-179.027	-82.217	0.106	0.034
-178.012	-120.834	-0.281	0.047
-176.998	-122.295	0.122	0.020
-175.983	800.000	0.052	-0.218
-174.969	84.458	0.183	-0.197
-173.954	14.259	0.180	0.138
-172.939	129.224	0.114	0.143
-171.925	-200.000	-0.004	0.324
-170.910	-60.848	0.154	-0.064
-169.896	800.000	-0.101	-0.302
-168.881	-74.997	-0.253	-0.089
-167.866	800.000	0.077	0.277
-166.852	157.914	-0.202	0.275
-165.837	-200.000	0.009	0.199
-164.823	-119.783	-0.158	-0.027
-163.808	71.727	0.125	0.127
-162.793	800.000	0.044	0.184
-161.779	249.878	0.236	0.393
-160.764	199.856	0.045	-0.067
-159.750	221.151	-0.241	-0.380
-158.735	-22.327	-0.319	0.190
-157.720	44.370	0.085	-0.077
-156.706	-97.495	-0.220	-0.056
-155.691	-102.148	-0.210	0.050
-154.677	-38.705	-0.418	-0.217
-153.662	-68.512	-0.347	-0.132
-152.647	233.577	-0.221	0.358
-151.633	800.000	0.162	0.448
-150.618	291.717	-0.088	-0.158
-149.604	-200.000	-0.077	0.386
-148.589	-200.000	-0.010	-0.103
-147.574	-58.762	0.086	0.037
-146.560	46.441	-0.443	0.403
-145.545	-200.000	0.018	0.566
-144.531	800.000	-0.017	0.053
-143.516	-66.592	-0.113	0.044
-142.502	43.548	0.160	-0.143
-141.487	-152.662	-0.117	0.008
-140.472	60.760	-0.176	0.171
-139.458	-112.916	-0.237	0.046
-138.443	47.946	0.250	0.230
-137.429	-200.000	0.004	-0.065
-136.414	-82.289	-0.326	0.104
-135.399	-200.000	0.023	-0.271
-134.385	18.929	0.290	0.228
-133.370	-78.723	-0.150	-0.050
-132.356	-50.912	0.147	-0.068
-131.341	-80.256	-0.135	-0.044
-130.326	-141.919	-0.221	0.022
-129.312	186.258	0.127	0.185
-128.297	-200.000	-0.053	0.472
-127.283	-200.000	0.032	0.394
-126.268	161.780	0.079	0.109
-125.253	800.000	-0.041	0.133
-124.239	161.083	0.114	0.156
-123.224	-200.000	0.029	0.222
-122.210	-138.971	0.393	0.042
-121.195	-72.145	-0.082	-0.030
-120.180	293.486	0.148	-0.265
-119.166	153.022	0.049	0.066
-118.151	-183.326	-0.052	0.001
-117.137	164.752	0.140	-0.193
-116.122	-66.975	0.213	-0.082
-115.107	-8.486	-0.203	-0.134
-114.093	-104.762	0.519	0.117
-113.078	101.365	-0.129	0.147
-112.064	-106.715	0.290	-0.063
-111.049	513.480	0.241	0.550
-110.034	527.788	0.051	0.117
-109.020	-191.096	-0.247	-0.003
-108.005	-108.717	0.244	0.051
-106.991	800.000	-0.049	0.159
-105.976	131.993	0.203	0.256
-104.962	-135.724	0.363	-0.042
-103.947	-200.000	0.025	-0.275
-102.932	-200.000	-0.009	-0.078
-101.918	800.000	0.085	0.321
-100.903	-107.605	-0.174	0.037
-99.889	-200.000	-0.006	0.353
-98.874	21.617	-0.071	0.057
-97.859	-200.000	-0.038	0.254
-96.845	49.158	-0.052	0.047
-95.830	-200.000	-0.021	-0.166
-94.816	151.000	0.242	-0.323
-93.801	32.735	0.154	-0.130
-92.786	-55.740	-0.130	0.057
-91.772	-108.936	-0.306	0.064
-90.757	-200.000	0.012	-0.149
-89.743	224.077	-0.117	-0.185
-88.728	234.931	-0.167	0.269
-87.713	-10.570	0.156	0.101
-86.699	-200.000	0.013	0.467
-85.684	222.854	-0.110	0.173
-84.670	-24.694	0.267	0.156
-83.655	64.200	0.137	-0.135
-82.640	800.000	-0.049	-0.204
-81.626	-116.838	0.327	0.059
-80.611	-20.567	-0.173	-0.104
-79.597	-200.000	0.080	-0.346
-78.582	-200.000	0.001	0.279
-77.567	121.541	0.048	0.059
-76.553	-165.114	-0.041	-0.002
-75.538	473.482	-0.070	0.154
-74.524	-62.349	0.197	-0.080
-73.509	389.214	0.089	0.180
-72.494	-200.000	0.006	0.056
-71.480	221.756	0.059	0.093
-70.465	-129.926	-0.239	0.032
-69.451	-44.605	-0.169	0.083
-68.436	239.276	-0.101	0.164
-67.422	-200.000	-0.042	-0.273
-66.407	12.693	0.216	0.163
-65.392	-97.792	-0.192	0.048
-64.378	-53.129	0.060	-0.027
-63.363	-200.000	-0.033	0.184
-62.349	-2.936	-0.168	0.115
-61.334	118.291	-0.931	-1.124
-60.319	-69.755	0.887	0.331
-59.305	800.000	-0.276	-0.919
-58.290	661.833	0.477	1.203
-57.276	800.000	0.418	1.332
-56.261	-200.000	113.691	648.393
-55.246	539.949	1520.657	3540.720
-54.232	178.049	2694.266	3845.009
-53.217	102.785	2284.735	2616.086
-52.203	36.901	1891.829	1636.320
-51.188	30.893	1682.013	1409.499
-50.173	28.334	1639.878	1355.232
-49.159	49.836	1695.742	1563.615
-48.144	48.811	1709.614	1568.655
-47.130	30.361	1667.979	1393.520
-46.115	27.757	1652.953	1361.511
-45.100	27.474	1648.322	1355.540
-44.086	27.545	1645.427	1353.635
-43.071	27.454	1642.658	1350.623
-42.057	27.481	1640.344	1348.868
-41.042	27.539	1637.957	1347.284
-40.027	27.495	1636.621	1345.800
-39.013	27.484	1634.252	1343.719
-37.998	27.479	1633.171	1342.745
-36.984	27.507	1631.678	1341.664
-35.969	27.644	1630.008	1341.246
-34.954	27.681	1627.987	1339.807
-33.940	27.607	1626.940	1338.345
-32.925	27.592	1624.732	1336.367
-31.911	27.671	1622.420	1334.989
-30.896	27.641	1620.919	1333.483
-29.881	27.589	1619.962	1332.265
-28.867	27.652	1617.302	1330.481
-27.852	27.635	1616.345	1329.515
-26.838	27.538	1615.353	1327.944
-25.823	27.619	1613.670	1327.094
-24.809	27.593	1612.414	1325.818
-23.794	27.589	1611.610	1325.081
-22.779	27.700	1609.438	1324.046
-21.765	27.583	1608.022	1321.979
-20.750	27.584	1606.405	1320.606
-19.736	27.684	1605.067	1320.180
-18.721	27.604	1604.218	1318.851
-17.706	27.595	1602.609	1317.408
-16.692	27.594	1600.766	1315.836
-15.677	27.630	1599.282	1314.820
-14.663	27.694	1597.877	1314.072
-13.648	27.698	1596.799	1313.164
-12.633	27.770	1594.400	1311.659
-11.619	27.656	1593.194	1309.793
-10.604	27.636	1592.166	1308.752
-9.590	27.683	1590.724	1307.857
-8.575	27.742	1589.345	1307.089
-7.560	27.699	1588.277	1305.849
-6.546	27.661	1587.400	1304.810
-5.531	27.766	1585.998	1304.351
-4.517	27.625	1585.721	1303.069
-3.502	27.691	1584.046	1302.110
-2.487	27.784	1581.961	1301.005
-1.473	27.399	1569.954	1288.359
-0.458	24.478	1551.198	1252.451
0.556	22.708	1552.295	1221.006
1.571	20.279	1575.446	1222.027
2.586	19.832	1587.551	1228.132
3.600	17.937	1534.544	1174.005
4.615	11.015	1428.832	1048.576
5.629	4.925	1368.670	966.647
6.644	3.921	1361.083	955.010
7.659	3.894	1359.763	953.830
8.673	3.733	1359.906	952.858
9.688	3.892	1357.316	951.937
10.702	3.847	1354.481	949.585
11.717	6.687	1359.567	970.551
12.731	14.635	1374.041	1030.027
13.746	21.440	1385.055	1080.380
14.761	23.134	1387.315	1092.517
15.775	22.574	1385.200	1087.303
16.790	21.692	1382.859	1079.935
17.804	20.938	1380.931	1073.687
18.819	20.790	1379.659	1071.695
19.834	20.726	1379.085	1070.758
20.848	20.674	1378.441	1069.846
21.863	20.621	1377.277	1068.520
22.877	20.534	1375.993	1066.900
23.892	20.393	1374.572	1064.839
24.907	20.350	1374.049	1064.076
25.921	20.283	1373.389	1063.055
26.936	20.355	1372.318	1062.573
27.950	20.558	1370.928	1062.644
28.965	20.555	1370.460	1062.172
29.980	20.735	1369.063	1062.092
30.994	20.791	1368.257	1061.717
32.009	20.873	1367.217	1061.313
33.023	20.852	1366.763	1060.738
34.038	20.734	1365.028	1058.582
35.053	20.639	1363.489	1056.715
36.067	20.464	1362.779	1055.008
37.082	20.573	1362.225	1055.150
38.096	20.651	1361.037	1054.608
39.111	20.650	1360.024	1053.722
40.126	20.551	1359.132	1052.340
41.140	20.240	1357.735	1049.284
42.155	20.044	1357.365	1047.722
43.169	20.033	1356.627	1046.993
44.184	19.948	1356.941	1046.630
45.199	20.105	1356.461	1047.115
46.213	20.342	1356.032	1048.119
47.228	20.491	1355.631	1048.620
48.242	20.466	1354.126	1047.213
49.257	20.417	1352.878	1045.857
50.271	20.602	1351.249	1045.616
51.286	20.393	1350.290	1043.525
52.301	20.395	1348.839	1042.323
53.315	20.270	1348.055	1040.876
54.330	20.279	1346.392	1039.556
55.344	20.117	1345.241	1037.605
56.359	20.070	1344.273	1036.489
57.374	20.140	1343.216	1035.996
58.388	19.842	1342.909	1033.891
59.403	19.909	1341.982	1033.485
60.417	19.962	1341.158	1033.075
61.432	19.831	1340.191	1031.458
62.447	19.791	1339.209	1030.370
63.461	19.592	1338.390	1028.463
64.476	19.623	1336.970	1027.466
65.490	19.574	1336.064	1026.387
66.505	19.663	1334.428	1025.572
67.520	19.716	1333.310	1024.932
68.534	19.751	1332.368	1024.324
69.549	19.621	1331.526	1022.817
70.563	19.608	1329.850	1021.365
71.578	19.532	1328.748	1019.979
72.593	19.405	1327.817	1018.422
73.607	19.417	1327.231	1017.954
74.622	19.451	1327.129	1017.988
75.636	19.532	1326.378	1017.799
76.651	19.557	1325.624	1017.276
77.666	19.608	1325.181	1017.150
78.680	19.659	1324.494	1016.833
79.695	19.686	1324.230	1016.695
80.709	20.002	1323.322	1017.765
81.724	20.047	1323.089	1017.763
82.739	20.186	1322.248	1017.838
83.753	20.328	1321.891	1018.311
84.768	20.508	1321.033	1018.612
85.782	20.721	1319.637	1018.695
86.797	20.664	1318.392	1017.311
87.812	20.647	1316.786	1015.879
88.826	20.521	1316.417	1014.772
89.841	20.496	1315.157	1013.567
90.855	20.599	1314.630	1013.668
91.870	20.707	1313.613	1013.421
92.884	20.831	1312.882	1013.491
93.899	20.736	1312.144	1012.281
94.914	20.855	1311.308	1012.236
95.928	20.778	1310.775	1011.290
96.943	20.703	1309.860	1010.056
97.957	20.591	1308.781	1008.487
98.972	20.597	1307.956	1007.799
99.987	20.559	1307.344	1007.015
101.001	20.643	1305.399	1005.916
102.016	20.615	1304.820	1005.216
103.030	20.621	1304.273	1004.739
104.045	20.618	1303.011	1003.664
105.060	20.401	1301.862	1001.440
106.074	20.098	1300.140	998.278
107.089	19.797	1298.378	995.107
108.103	19.683	1296.987	993.296
109.118	19.762	1295.336	992.401
110.133	19.756	1294.646	991.745
111.147	19.679	1293.270	990.168
112.162	19.836	1292.013	990.011
113.176	19.825	1291.274	989.297
114.191	19.861	1290.544	988.853
115.206	19.898	1289.432	988.128
116.220	19.982	1287.792	987.264
117.235	19.865	1286.974	985.880
118.249	19.744	1285.757	984.172
119.264	19.698	1284.604	982.942
120.279	19.601	1283.490	981.450
121.293	19.529	1282.584	980.261
122.308	19.446	1281.199	978.645
123.322	19.365	1280.489	977.557
124.337	19.366	1279.163	976.465
125.352	19.227	1278.287	974.923
126.366	19.343	1276.784	974.349
127.381	19.255	1275.788	973.001
128.395	19.134	1275.054	971.674
129.410	19.352	1274.108	972.099
130.424	19.395	1273.387	971.701
131.439	19.625	1272.591	972.304
132.454	19.725	1272.384	972.625
133.468	19.746	1271.527	971.998
134.483	19.772	1270.766	971.481
135.497	19.877	1269.517	971.024
136.512	19.838	1268.660	970.066
137.527	19.861	1267.494	969.220
138.541	19.943	1266.331	968.702
139.556	19.910	1265.477	967.776
140.570	20.075	1264.359	967.759
141.585	20.318	1263.357	968.262
142.600	20.363	1262.395	967.692
143.614	20.521	1261.928	968.129
144.629	20.679	1260.084	967.504
145.643	20.577	1259.097	966.097
146.658	20.280	1258.131	963.622
147.673	20.162	1256.393	961.550
148.687	20.084	1255.057	960.008
149.702	19.911	1253.701	957.931
150.716	19.811	1252.520	956.388
151.731	19.856	1251.798	956.003
152.746	19.904	1250.630	955.291
153.760	20.063	1249.364	955.114
154.775	20.085	1248.596	954.565
155.789	20.094	1247.834	953.949
156.804	20.203	1246.635	953.545
157.819	20.263	1245.737	953.103
158.833	20.474	1244.902	953.540
159.848	20.650	1244.447	954.074
160.862	20.482	1243.356	952.229
161.877	20.218	1241.345	949.160
162.892	19.807	1240.857	946.454
163.906	19.805	1239.299	945.173
164.921	19.847	1238.783	944.927
165.935	19.903	1238.036	944.575
166.950	20.023	1237.738	944.919
167.964	20.099	1237.031	944.711
168.979	20.055	1235.980	943.585
169.994	19.982	1235.392	942.654
171.008	19.946	1234.805	941.929
172.023	20.176	1233.643	942.211
173.037	20.378	1233.600	943.189
174.052	20.265	1232.798	941.883
175.067	20.029	1231.314	939.384
176.081	19.825	1229.990	937.188
177.096	19.773	1228.971	936.044
178.110	19.787	1228.538	935.706
179.125	19.990	1226.914	935.484
180.140	20.167	1225.964	935.630
181.154	20.336	1224.852	935.612
182.169	20.354	1224.370	935.259
183.183	20.393	1223.083	934.404
184.198	20.364	1221.904	933.263
185.213	20.485	1220.798	932.987
186.227	20.451	1220.176	932.247
187.242	20.634	1219.136	932.348
188.256	20.721	1218.295	932.092
189.271	20.780	1217.733	931.891
190.286	20.534	1216.342	929.432
191.300	20.015	1215.252	925.743
192.315	19.846	1214.188	923.948
193.329	19.911	1214.052	924.112
194.344	20.037	1212.893	923.819
195.359	20.169	1212.092	923.830
196.373	20.022	1212.273	923.102
197.388	20.224	1212.356	924.161
198.402	20.555	1212.076	925.628
199.417	20.702	1212.055	926.314
200.432	20.945	1211.133	926.818
201.446	20.985	1210.617	926.553
202.461	21.085	1209.649	926.263
203.475	21.016	1208.726	925.105
204.490	20.759	1206.789	922.182
205.504	20.433	1205.741	919.574
206.519	20.545	1203.978	918.741
207.534	20.315	1202.909	916.628
208.548	20.387	1202.332	916.488
209.563	20.427	1201.514	915.995
210.577	20.468	1200.396	915.275
211.592	20.577	1199.918	915.403
212.607	20.729	1199.631	915.903
213.621	20.766	1198.491	915.147
214.636	20.652	1197.406	913.640
215.650	20.695	1196.606	913.176
216.665	20.811	1195.943	913.196
217.680	20.950	1195.566	913.555
218.694	21.156	1194.460	913.708
219.709	20.893	1193.984	911.885
220.723	20.951	1193.283	911.576
221.738	20.776	1192.368	909.878
222.753	20.760	1191.513	909.062
223.767	20.808	1190.672	908.589
224.782	21.077	1190.185	909.542
225.796	21.153	1190.034	909.740
226.811	21.191	1189.013	909.078
227.826	20.882	1188.164	906.742
228.840	20.822	1187.082	905.526
229.855	20.603	1186.939	904.195
230.869	20.715	1185.766	903.805
231.884	20.645	1184.382	902.308
232.899	20.514	1183.238	900.675
233.913	20.491	1182.812	900.155
234.928	20.457	1181.882	899.192
235.942	20.378	1181.276	898.241
236.957	20.330	1180.535	897.350
237.972	20.363	1179.844	896.913
238.986	20.389	1178.881	896.237
240.001	20.452	1178.713	896.353
241.015	20.522	1177.482	895.701
242.030	20.596	1176.550	895.296
243.045	20.643	1176.281	895.250
244.059	20.673	1175.758	894.929
245.074	20.715	1174.947	894.445
246.088	20.949	1174.236	895.031
247.103	21.158	1173.160	895.202
248.117	21.310	1172.775	895.608
249.132	21.388	1172.334	895.593
250.147	21.506	1172.427	896.188
251.161	21.740	1172.054	897.020
252.176	21.833	1171.368	896.892
253.190	21.858	1170.705	896.436
254.205	22.083	1170.196	897.112
255.220	22.083	1169.864	896.781
256.234	22.058	1169.121	896.003
257.249	21.924	1168.370	894.666
258.263	21.743	1167.749	893.189
259.278	21.768	1167.035	892.692
260.293	21.912	1166.202	892.705
261.307	21.938	1165.958	892.572
262.322	21.930	1165.483	892.091
263.336	21.990	1164.482	891.551
264.351	21.982	1163.739	890.864
265.366	22.053	1163.315	890.818
266.380	22.089	1162.434	890.245
267.395	22.027	1161.340	889.017
268.409	21.879	1160.520	887.562
269.424	21.795	1159.847	886.541
270.439	21.671	1159.909	885.883
271.453	21.641	1158.829	884.830
272.468	21.543	1157.361	883.135
273.482	21.419	1156.500	881.778
274.497	21.573	1156.241	882.277
275.512	21.485	1155.584	881.255
276.526	21.420	1154.750	880.213
277.541	21.635	1154.426	880.969
278.555	21.639	1153.929	880.535
279.570	21.894	1153.215	881.193
280.585	22.027	1152.578	881.294
281.599	22.044	1151.518	880.493
282.614	21.762	1150.302	878.069
283.628	21.584	1148.940	876.065
284.643	21.644	1147.593	875.258
285.657	21.621	1147.462	874.968
286.672	21.677	1146.569	874.487
287.687	21.626	1145.649	873.454
288.701	21.718	1144.914	873.273
289.716	21.711	1143.992	872.458
290.730	21.724	1143.195	871.837
291.745	21.738	1142.598	871.374
292.760	21.762	1142.343	871.226
293.774	21.897	1141.511	871.180
294.789	22.077	1141.577	872.051
295.803	21.975	1140.850	870.909
296.818	21.742	1139.641	868.757
297.833	21.699	1138.750	867.787
298.847	21.748	1137.706	867.156
299.862	21.750	1137.213	866.713
300.876	21.958	1135.968	866.717
301.891	21.817	1136.535	866.377
302.906	22.118	1135.730	867.173
303.920	22.145	1135.348	866.936
304.935	22.432	1134.661	867.751
305.949	22.456	1134.343	867.549
306.964	22.441	1133.878	867.044
307.979	22.317	1132.634	865.405
308.993	22.169	1131.891	864.033
310.008	22.269	1130.893	863.686
311.022	22.296	1130.445	863.399
312.037	22.199	1129.707	862.284
313.052	22.035	1128.470	860.458
314.066	21.799	1127.069	858.159
315.081	21.596	1126.153	856.394
316.095	21.510	1125.492	855.392
317.110	21.699	1124.998	855.867
318.125	21.776	1123.487	855.019
319.139	21.668	1123.460	854.391
320.154	21.632	1122.615	853.498
321.168	21.539	1122.332	852.755
322.183	21.644	1121.573	852.616
323.197	21.777	1121.109	852.834
324.212	21.863	1120.593	852.784
325.227	21.816	1120.138	852.135
326.241	21.871	1119.235	851.639
327.256	21.792	1118.576	850.676
328.270	21.794	1117.214	849.577
329.285	21.696	1116.544	848.518
330.300	21.778	1115.522	848.064
331.314	21.655	1114.807	846.850
332.329	21.722	1113.968	846.464
333.343	21.885	1113.285	846.656
334.358	22.015	1112.698	846.760
335.373	22.082	1111.771	846.305
336.387	22.203	1110.916	846.158
337.402	22.266	1110.589	846.137
338.416	22.288	1110.054	845.763
339.431	22.330	1109.826	845.714
340.446	22.486	1109.180	845.896
341.460	22.751	1108.405	846.504
342.475	22.811	1107.823	846.272
343.489	22.835	1106.889	845.598
344.504	22.952	1106.056	845.448
345.519	22.898	1105.441	844.645
346.533	22.900	1104.997	844.240
347.548	23.033	1104.402	844.346
348.562	22.910	1103.130	842.711
349.577	22.681	1102.046	840.717
350.592	22.269	1101.146	837.995
351.606	22.171	1100.022	836.595
352.621	22.085	1099.105	835.415
353.635	21.974	1098.765	834.557
354.650	22.144	1097.790	834.548
355.665	22.333	1096.850	834.657
356.679	22.317	1096.644	834.351
357.694	22.360	1096.497	834.372
358.708	22.489	1095.995	834.524
359.723	22.416	1095.135	833.450
360.738	22.388	1094.414	832.694
361.752	22.458	1093.734	832.434
362.767	22.532	1093.191	832.299
363.781	22.540	1092.627	831.831
364.796	22.716	1092.548	832.528
365.810	22.948	1092.052	833.173
366.825	23.105	1091.409	833.349
367.840	23.236	1091.422	833.902
368.854	23.294	1090.788	833.616
369.869	23.282	1089.909	832.814
370.883	23.156	1088.535	831.098
371.898	22.908	1087.794	829.294
372.913	22.732	1087.521	828.189
373.927	23.078	1086.764	829.161
374.942	23.144	1086.830	829.446
375.956	23.150	1085.734	828.565
376.971	22.941	1085.492	827.330
377.986	23.103	1084.579	827.317
379.000	23.206	1084.534	827.693
380.015	23.314	1083.943	827.674
381.029	23.574	1083.287	828.312
382.044	23.399	1082.600	826.895
383.059	23.324	1081.553	825.676
384.073	23.373	1080.548	825.060
385.088	23.415	1079.758	824.583
386.102	23.368	1078.708	823.490
387.117	23.119	1077.778	821.549
388.132	22.836	1076.556	819.233
389.146	22.791	1075.825	818.394
390.161	22.824	1075.060	817.894
391.175	22.778	1074.826	817.428
392.190	23.008	1073.995	817.789
393.205	23.188	1073.675	818.308
394.219	23.255	1072.661	817.770
395.234	23.100	1071.469	816.074
396.248	22.916	1070.322	814.280
397.263	22.734	1070.008	813.133
398.278	22.825	1068.589	812.397
399.292	22.584	1067.770	810.598
400.307	22.633	1066.973	810.143
401.321	22.577	1066.589	809.522
402.336	22.477	1066.083	808.607
403.350	22.527	1065.300	808.172
404.365	22.656	1064.482	808.074
405.380	22.850	1064.064	808.573
406.394	22.947	1063.355	808.404
407.409	23.074	1063.306	808.876
408.423	23.215	1062.311	808.694
409.438	23.279	1061.964	808.649
410.453	23.489	1061.288	809.024
411.467	23.447	1060.586	808.224
412.482	23.605	1059.795	808.268
413.496	23.729	1059.597	808.612
414.511	23.715	1058.961	807.991
415.526	23.824	1058.458	808.032
416.540	23.895	1058.319	808.178
417.555	23.910	1057.575	807.605
418.569	23.828	1056.658	806.461
419.584	23.693	1056.207	805.434
420.599	23.721	1055.952	805.294
421.613	157.380	1403.844	1798.685
422.628	144.591	1454.487	1798.798
