DTS Sentinel unit serial number:	SN413079Multiplexer serial number:	ORYXHardware model number:	OX4-SRSoftware version number:	ORYX F/W v4.00 Oryx Data Collector v3.7.2.0data status	okinstallation	princeton_trtdifferential loss correction	single-endedforward channel	channel 2reverse channel	N/Adate	2019/09/12time	09:25:11forward acquisition time	60.00reverse acquisition time	0.00gamma	496.2192k internal	0.2315k external	0.2315temperature offset calibration	1.0062default loss term (dB/km)	0.3790temperature slope calibration	1.0000multiplexer offset coefficient	1.0000multiplexer slope coefficient	1.0000fibre end	0.00T internal ref (°C)	35.27T ext. ref 1 (°C)	1.80T ext. ref 2 (°C)	33.71length (m)	temperature (°C)	Stokes	anti-Stokes-747.200	800.000	-0.076	0.282
-746.185	31.993	0.065	-0.056
-745.171	-200.000	-0.071	0.354
-744.156	-160.623	0.138	0.007
-743.142	5.765	0.292	0.219
-742.127	-200.000	0.052	0.320
-741.112	180.453	-0.121	-0.180
-740.098	-61.212	-0.182	-0.078
-739.083	107.718	0.243	-0.293
-738.069	800.000	-0.003	-0.009
-737.054	-113.078	0.066	-0.013
-736.039	-23.160	-0.149	-0.091
-735.025	8.916	0.316	-0.242
-734.010	69.773	-0.155	0.162
-732.996	800.000	-0.101	-0.333
-731.981	415.329	-0.142	-0.307
-730.966	-200.000	0.084	-0.465
-729.952	313.763	0.094	-0.180
-728.937	402.307	-0.141	-0.301
-727.923	260.913	0.095	-0.167
-726.908	-48.603	-0.200	-0.097
-725.894	367.877	-0.164	-0.336
-724.879	178.438	0.141	-0.208
-723.864	-68.629	-0.137	-0.054
-722.850	800.000	0.101	-0.380
-721.835	3.975	-0.084	0.062
-720.821	84.021	0.194	0.214
-719.806	-70.990	0.055	0.021
-718.791	-34.775	0.114	0.063
-717.777	800.000	-0.028	0.096
-716.762	-123.925	-0.319	-0.051
-715.748	-113.638	0.314	-0.062
-714.733	436.744	-0.013	0.030
-713.718	-125.534	-0.283	0.043
-712.704	-106.215	-0.239	-0.054
-711.689	124.029	-0.062	0.079
-710.675	-189.514	-0.322	0.004
-709.660	718.245	-0.116	-0.311
-708.645	-64.061	-0.350	-0.145
-707.631	-156.274	-0.224	-0.014
-706.616	-14.774	0.240	-0.156
-705.602	-200.000	0.011	-0.132
-704.587	800.000	-0.064	-0.185
-703.572	31.159	-0.178	-0.154
-702.558	-131.621	0.056	-0.007
-701.543	-200.000	-0.034	-0.152
-700.529	773.681	-0.102	-0.281
-699.514	-200.000	-0.037	0.222
-698.499	800.000	-0.033	-0.098
-697.485	-96.474	0.187	0.050
-696.470	9.365	-0.272	-0.208
-695.456	-200.000	-0.000	-0.072
-694.441	-200.000	0.029	0.137
-693.426	99.059	-0.051	0.060
-692.412	32.706	0.069	-0.060
-691.397	-200.000	-0.032	-0.209
-690.383	-200.000	-0.038	-0.173
-689.368	-53.168	-0.194	-0.090
-688.354	-125.391	0.242	0.037
-687.339	-168.110	-0.170	0.007
-686.324	-200.000	-0.097	-0.531
-685.310	470.483	0.075	-0.171
-684.295	800.000	0.110	-0.367
-683.281	-30.891	-0.187	-0.107
-682.266	796.320	0.051	-0.142
-681.251	-150.632	0.388	-0.030
-680.237	-104.684	-0.317	0.074
-679.222	-100.898	-0.272	-0.068
-678.208	703.653	0.119	-0.318
-677.193	-200.000	0.050	-0.237
-676.178	-85.813	0.079	-0.025
-675.164	367.865	0.110	0.224
-674.149	156.154	-0.354	0.493
-673.135	-200.000	-0.043	0.229
-672.120	161.347	0.076	-0.108
-671.105	-91.190	-0.344	0.100
-670.091	800.000	-0.055	0.169
-669.076	82.260	-0.071	0.078
-668.062	-44.851	0.333	0.168
-667.047	124.824	-0.151	-0.192
-666.032	800.000	0.100	-0.375
-665.018	221.230	0.163	-0.264
-664.003	-36.080	0.198	0.108
-662.989	147.520	-0.119	-0.162
-661.974	148.042	0.014	-0.019
-660.959	-12.560	0.268	0.177
-659.945	-200.000	-0.045	-0.240
-658.930	-80.889	-0.251	0.084
-657.916	-44.812	0.172	0.087
-656.901	112.631	0.266	-0.325
-655.886	-21.620	0.166	0.102
-654.872	370.363	-0.093	-0.189
-653.857	-163.499	0.051	0.002
-652.843	800.000	-0.051	-0.177
-651.828	-82.653	-0.039	-0.013
-650.814	-200.000	-0.024	-0.202
-649.799	800.000	0.037	-0.114
-648.784	-172.198	-0.379	-0.012
-647.770	800.000	0.103	0.302
-646.755	-200.000	-0.007	0.185
-645.741	668.399	-0.032	-0.083
-644.726	-200.000	-0.023	-0.489
-643.711	481.242	0.122	0.278
-642.697	-200.000	-0.037	0.342
-641.682	29.767	0.096	0.083
-640.668	45.369	-0.207	0.192
-639.653	-200.000	-0.021	0.315
-638.638	-129.607	-0.221	-0.031
-637.624	-120.243	-0.112	-0.019
-636.609	800.000	-0.062	0.208
-635.595	-200.000	0.021	-0.126
-634.580	618.080	-0.121	-0.308
-633.565	476.801	-0.129	0.294
-632.551	-95.033	0.243	0.066
-631.536	188.721	-0.050	0.075
-630.522	-102.271	0.239	-0.058
-629.507	-99.926	-0.196	-0.049
-628.492	800.000	0.085	-0.270
-627.478	215.849	-0.048	0.077
-626.463	-90.528	-0.217	-0.063
-625.449	-52.250	0.250	-0.117
-624.434	-200.000	0.063	0.454
-623.419	251.907	0.087	0.150
-622.405	-200.000	0.020	-0.239
-621.390	124.964	-0.381	-0.484
-620.376	-200.000	0.041	0.319
-619.361	38.115	0.123	0.110
-618.346	-109.595	0.118	-0.025
-617.332	800.000	0.064	0.207
-616.317	-200.000	-0.002	-0.123
-615.303	-115.533	-0.252	-0.048
-614.288	488.660	-0.139	0.320
-613.273	-82.529	-0.315	0.103
-612.259	1.840	0.104	0.075
-611.244	800.000	-0.084	-0.280
-610.230	39.718	-0.024	0.022
-609.215	-26.442	0.191	0.113
-608.201	216.903	-0.230	-0.369
-607.186	-145.473	-0.449	0.041
-606.171	-7.061	0.140	-0.095
-605.157	-200.000	-0.031	-0.211
-604.142	-168.648	-0.116	-0.004
-603.128	-134.446	-0.122	-0.015
-602.113	88.040	0.117	-0.131
-601.098	-9.858	0.357	-0.239
-600.084	-112.899	0.209	-0.042
-599.069	-97.733	-0.173	0.045
-598.055	-200.000	-0.040	-0.192
-597.040	561.681	-0.086	-0.209
-596.025	106.189	0.222	0.265
-595.011	180.671	-0.208	-0.307
-593.996	-3.830	-0.281	-0.197
-592.982	-90.279	-0.278	-0.081
-591.967	-88.838	0.163	-0.049
-590.952	-92.280	0.228	-0.065
-589.938	-174.824	-0.393	0.011
-588.923	-200.000	-0.026	0.153
-587.909	6.319	-0.141	-0.105
-586.894	800.000	-0.028	0.119
-585.879	-170.085	-0.241	0.009
-584.865	120.991	-0.209	-0.262
-583.850	112.735	-0.293	0.357
-582.836	-104.091	0.281	0.066
-581.821	29.181	0.048	-0.041
-580.806	-163.742	0.108	0.005
-579.792	-85.421	-0.128	-0.040
-578.777	800.000	-0.173	-0.518
-577.763	397.280	-0.050	-0.105
-576.748	758.738	-0.043	0.117
-575.733	100.538	-0.241	-0.282
-574.719	52.244	-0.122	-0.117
-573.704	66.318	0.053	0.054
-572.690	800.000	0.013	-0.047
-571.675	-53.014	0.301	0.140
-570.661	232.365	-0.052	0.086
-569.646	679.358	-0.073	0.191
-568.631	-64.524	0.104	0.042
-567.617	143.007	-0.176	0.235
-566.602	800.000	-0.089	-0.316
-565.588	-4.256	-0.034	-0.024
-564.573	-200.000	-0.000	-0.024
-563.558	-200.000	0.027	-0.133
-562.544	-123.217	-0.500	0.080
-561.529	800.000	0.022	0.095
-560.515	-128.310	0.383	-0.055
-559.500	183.317	-0.079	0.118
-558.485	-37.649	0.217	-0.116
-557.471	-68.518	0.157	-0.061
-556.456	800.000	0.058	-0.177
-555.442	-113.807	-0.309	0.061
-554.427	39.433	0.175	-0.158
-553.412	117.054	0.215	0.266
-552.398	-114.363	0.284	-0.055
-551.383	-138.580	0.246	0.027
-550.369	-44.393	0.156	-0.079
-549.354	3.587	0.100	-0.074
-548.339	-78.992	-0.124	-0.042
-547.325	77.514	0.314	-0.336
-546.310	-200.000	0.011	-0.174
-545.296	614.196	-0.144	-0.362
-544.281	14.961	0.088	-0.070
-543.266	-200.000	0.031	0.223
-542.252	-147.801	-0.105	-0.009
-541.237	7.374	0.141	0.106
-540.223	-62.591	-0.090	0.038
-539.208	-100.700	0.345	-0.086
-538.193	-200.000	-0.018	0.134
-537.179	164.879	-0.038	-0.053
-536.164	79.664	-0.071	-0.077
-535.150	-200.000	0.031	0.276
-534.135	-120.912	0.325	0.055
-533.121	800.000	-0.057	-0.163
-532.106	-50.077	-0.073	-0.035
-531.091	81.116	-0.159	0.172
-530.077	-53.682	0.039	-0.018
-529.062	461.203	-0.114	-0.254
-528.048	63.664	-0.247	0.249
-527.033	-200.000	-0.006	0.106
-526.018	106.101	-0.134	0.160
-525.004	66.475	-0.083	-0.085
-523.989	-55.662	-0.237	0.107
-522.975	-1.017	0.178	-0.126
-521.960	-83.491	-0.194	-0.063
-520.945	74.717	0.184	-0.194
-519.931	800.000	0.083	-0.336
-518.916	-19.206	-0.205	-0.128
-517.902	-122.015	-0.207	0.034
-516.887	45.177	-0.204	0.189
-515.872	140.836	0.086	-0.114
-514.858	-66.210	0.053	-0.021
-513.843	206.304	-0.170	-0.265
-512.829	-200.000	-0.059	-0.374
-511.814	258.376	-0.163	0.282
-510.799	800.000	0.142	0.403
-509.785	40.617	0.069	0.062
-508.770	116.700	0.156	0.192
-507.756	-200.000	0.003	0.569
-506.741	0.794	0.276	0.199
-505.726	405.531	0.171	0.362
-504.712	-128.052	-0.224	0.032
-503.697	242.528	-0.209	0.351
-502.683	-51.307	-0.051	0.024
-501.668	-200.000	0.001	-0.172
-500.653	-200.000	-0.003	0.422
-499.639	391.712	0.147	-0.307
-498.624	-115.508	-0.126	0.024
-497.610	117.090	-0.335	0.414
-496.595	5.917	-0.186	-0.138
-495.581	-133.886	-0.303	-0.038
-494.566	64.628	0.196	-0.198
-493.551	-133.208	0.271	0.034
-492.537	404.564	0.233	0.492
-491.522	-200.000	0.118	0.560
-490.508	-3.634	0.166	0.116
-489.493	-120.912	0.164	-0.028
-488.478	78.804	0.083	0.089
-487.464	107.336	-0.244	-0.291
-486.449	609.670	-0.159	-0.398
-485.435	14.692	0.275	-0.216
-484.420	-126.098	0.384	0.058
-483.405	-200.000	-0.022	-0.130
-482.391	-20.908	0.300	0.184
-481.376	426.779	-0.149	-0.322
-480.362	-189.348	0.178	0.002
-479.347	136.224	0.024	-0.032
-478.332	638.343	0.123	0.313
-477.318	-165.132	0.122	0.005
-476.303	603.289	-0.031	0.078
-475.289	33.870	0.164	-0.143
-474.274	-72.240	-0.121	0.045
-473.259	198.887	0.053	-0.082
-472.245	-81.474	0.169	-0.056
-471.230	-49.950	0.290	0.138
-470.216	256.240	-0.097	-0.167
-469.201	170.697	0.077	0.111
-468.186	-200.000	0.011	0.185
-467.172	448.327	-0.134	-0.295
-466.157	90.395	-0.276	-0.310
-465.143	-103.001	0.298	-0.071
-464.128	669.611	-0.051	0.132
-463.113	-19.179	0.083	-0.052
-462.099	278.339	-0.130	-0.233
-461.084	465.995	0.091	-0.204
-460.070	-200.000	-0.000	-0.512
-459.055	242.182	-0.025	-0.043
-458.040	-200.000	-0.037	-0.337
-457.026	59.147	0.011	0.011
-456.011	313.292	0.231	0.435
-454.997	-200.000	0.040	0.297
-453.982	364.299	0.054	-0.110
-452.968	-104.286	-0.250	-0.058
-451.953	480.517	0.046	0.105
-450.938	-200.000	-0.032	0.374
-449.924	-113.763	0.169	-0.033
-448.909	-23.925	0.415	0.248
-447.895	800.000	0.115	0.490
-446.880	262.834	0.132	0.230
-445.865	184.624	-0.158	-0.234
-444.851	78.874	0.165	-0.177
-443.836	-132.565	-0.317	0.041
-442.822	367.369	0.043	0.088
-441.807	-130.868	-0.458	0.061
-440.792	-181.027	-0.233	0.005
-439.778	410.428	0.106	0.225
-438.763	322.113	-0.066	0.125
-437.749	-21.983	-0.118	-0.072
-436.734	800.000	-0.103	-0.397
-435.719	-200.000	-0.026	-0.260
-434.705	-76.324	0.180	-0.063
-433.690	6.186	0.204	-0.151
-432.676	-200.000	0.006	0.032
-431.661	-200.000	-0.082	0.449
-430.646	-66.668	-0.119	-0.047
-429.632	57.363	0.137	0.133
-428.617	-200.000	0.020	-0.299
-427.603	24.934	0.069	0.057
-426.588	602.511	-0.136	0.338
-425.573	-127.139	0.165	-0.024
-424.559	539.436	0.048	0.114
-423.544	-48.795	-0.064	-0.031
-422.530	5.246	-0.083	-0.061
-421.515	-49.050	0.065	-0.031
-420.500	75.590	-0.162	-0.171
-419.486	-200.000	-0.015	-0.263
-418.471	-125.115	0.143	0.022
-417.457	-120.037	-0.077	-0.013
-416.442	-200.000	-0.027	0.372
-415.428	-132.686	-0.226	-0.029
-414.413	131.449	0.009	0.011
-413.398	-11.881	0.469	0.308
-412.384	716.678	-0.141	-0.373
-411.369	800.000	-0.081	0.283
-410.355	-2.182	-0.178	-0.125
-409.340	-26.417	0.056	0.033
-408.325	800.000	0.055	-0.216
-407.311	43.905	-0.205	0.188
-406.296	-90.754	-0.080	0.023
-405.282	31.066	-0.182	-0.156
-404.267	-136.417	-0.194	0.023
-403.252	-58.584	-0.328	-0.142
-402.238	3.584	0.254	-0.185
-401.223	800.000	-0.041	-0.159
-400.209	1.697	0.311	0.224
-399.194	-49.671	-0.329	-0.156
-398.179	-200.000	0.058	0.473
-397.165	-200.000	-0.001	-0.024
-396.150	-112.289	-0.502	-0.101
-395.136	114.729	0.097	-0.118
-394.121	34.338	0.063	-0.055
-393.106	2.739	-0.068	0.050
-392.092	264.413	-0.053	-0.093
-391.077	-200.000	0.014	0.279
-390.063	12.312	-0.092	0.071
-389.048	-200.000	-0.003	-0.128
-388.033	-134.537	-0.275	0.034
-387.019	800.000	-0.076	-0.333
-386.004	-200.000	-0.036	-0.376
-384.990	-200.000	-0.020	0.157
-383.975	-63.386	0.052	-0.021
-382.960	-94.195	0.306	0.084
-381.946	800.000	0.098	0.270
-380.931	335.553	0.144	0.279
-379.917	800.000	0.082	-0.296
-378.902	7.850	-0.175	-0.131
-377.888	-75.896	0.218	-0.077
-376.873	-200.000	-0.086	-0.425
-375.858	-200.000	0.047	-0.382
-374.844	-99.910	-0.191	0.048
-373.829	73.646	0.125	-0.130
-372.815	50.667	-0.022	-0.021
-371.800	-200.000	0.027	0.386
-370.785	-98.087	0.217	-0.056
-369.771	800.000	-0.052	0.153
-368.756	65.049	-0.167	-0.168
-367.742	515.884	0.101	-0.236
-366.727	-37.066	0.131	0.070
-365.712	-200.000	-0.011	0.113
-364.698	34.347	0.104	0.090
-363.683	-42.249	0.306	-0.156
-362.669	6.808	0.208	-0.155
-361.654	44.628	0.227	0.209
-360.639	58.691	0.075	0.074
-359.625	44.621	-0.204	0.187
-358.610	-200.000	-0.001	0.057
-357.596	-93.596	-0.254	-0.070
-356.581	-200.000	0.021	0.222
-355.566	-22.114	-0.138	-0.083
-354.552	-200.000	-0.019	0.200
-353.537	-78.018	0.061	-0.021
-352.523	-10.443	-0.115	0.076
-351.508	-200.000	-0.021	0.194
-350.493	45.004	0.131	-0.120
-349.479	-200.000	-0.063	0.559
-348.464	-102.203	-0.083	-0.020
-347.450	364.632	0.028	0.056
-346.435	-200.000	0.003	0.058
-345.420	115.857	-0.193	0.236
-344.406	82.363	0.115	-0.124
-343.391	-27.219	-0.468	-0.272
-342.377	-124.775	-0.218	0.034
-341.362	800.000	-0.095	-0.283
-340.348	-81.843	0.203	-0.066
-339.333	-76.532	0.242	-0.085
-338.318	247.910	-0.260	-0.438
-337.304	97.177	-0.064	-0.073
-336.289	11.122	-0.269	-0.206
-335.275	64.570	0.248	0.249
-334.260	-200.000	-0.015	0.556
-333.245	-200.000	0.063	0.307
-332.231	750.259	-0.042	0.112
-331.216	-70.036	-0.149	-0.057
-330.202	496.220	0.071	-0.163
-329.187	-66.479	0.207	0.082
-328.172	379.733	0.030	-0.062
-327.158	-112.958	0.206	-0.041
-326.143	487.991	-0.146	-0.331
-325.129	388.278	0.070	0.144
-324.114	800.000	0.057	-0.175
-323.099	800.000	-0.088	0.356
-322.085	-96.937	-0.234	0.061
-321.070	46.539	-0.120	-0.111
-320.056	433.453	0.108	-0.235
-319.041	68.515	-0.047	0.048
-318.026	-58.264	-0.103	0.045
-317.012	-94.070	-0.087	0.024
-315.997	-31.398	-0.170	0.096
-314.983	-45.123	0.140	-0.069
-313.968	-25.819	0.234	-0.137
-312.953	-200.000	0.032	-0.162
-311.939	190.584	0.025	0.038
-310.924	264.031	-0.065	-0.113
-309.910	-200.000	-0.038	0.193
-308.895	-78.457	-0.211	-0.072
-307.880	173.097	-0.097	0.140
-306.866	-200.000	0.043	0.204
-305.851	800.000	0.028	0.089
-304.837	-200.000	0.007	0.369
-303.822	800.000	0.078	0.224
-302.807	234.554	0.075	0.123
-301.793	-95.058	-0.246	-0.066
-300.778	-95.085	0.113	0.030
-299.764	-134.197	-0.042	-0.005
-298.749	243.361	-0.205	-0.343
-297.735	-200.000	0.030	0.000
-296.720	-200.000	-0.013	-0.144
-295.705	-200.000	0.007	-0.192
-294.691	42.319	-0.126	-0.114
-293.676	83.658	0.232	0.252
-292.662	351.539	0.090	0.178
-291.647	-33.309	0.123	-0.068
-290.632	-65.750	-0.168	-0.067
-289.618	-200.000	0.022	0.100
-288.603	800.000	-0.133	0.460
-287.589	-78.045	0.034	-0.012
-286.574	-58.004	-0.169	0.073
-285.559	115.736	0.076	-0.093
-284.545	-103.610	-0.033	0.008
-283.530	-139.447	0.057	0.006
-282.516	800.000	0.072	0.251
-281.501	-92.796	0.156	0.043
-280.486	86.074	0.149	0.163
-279.472	-28.354	0.371	0.213
-278.457	180.589	0.236	-0.345
-277.443	67.223	-0.141	-0.143
-276.428	386.774	-0.122	-0.250
-275.413	-96.024	-0.183	0.049
-274.399	-157.359	-0.211	-0.013
-273.384	128.889	0.059	-0.075
-272.370	-21.966	0.254	-0.154
-271.355	-65.333	0.169	0.067
-270.340	-200.000	-0.023	0.169
-269.326	800.000	-0.010	-0.039
-268.311	-159.453	-0.429	-0.024
-267.297	84.533	-0.173	-0.188
-266.282	-200.000	-0.004	-0.091
-265.267	19.688	0.124	-0.099
-264.253	212.188	0.109	-0.171
-263.238	408.558	-0.082	-0.173
-262.224	800.000	-0.097	-0.291
-261.209	130.786	0.227	0.290
-260.195	-200.000	-0.016	0.369
-259.180	-144.969	-0.516	-0.047
-258.165	-75.477	0.127	0.045
-257.151	53.286	-0.047	-0.045
-256.136	-32.802	0.178	-0.098
-255.122	62.640	-0.139	0.138
-254.107	-146.553	0.145	0.013
-253.092	365.961	0.040	0.079
-252.078	-200.000	-0.005	-0.163
-251.063	-67.567	-0.086	-0.033
-250.049	-145.038	0.186	-0.017
-249.034	661.519	0.162	-0.415
-248.019	-0.370	0.376	-0.265
-247.005	335.900	-0.121	0.233
-245.990	-143.847	-0.274	0.026
-244.976	140.237	0.055	-0.072
-243.961	-171.809	0.185	-0.006
-242.946	69.540	-0.165	-0.168
-241.932	800.000	0.067	-0.226
-240.917	-200.000	-0.020	0.122
-239.903	408.476	-0.044	-0.093
-238.888	-62.896	-0.159	0.065
-237.873	-200.000	0.022	-0.107
-236.859	21.786	0.125	-0.101
-235.844	-200.000	0.082	0.417
-234.830	-40.895	0.174	-0.090
-233.815	-88.890	0.279	-0.082
-232.800	-200.000	-0.038	0.280
-231.786	-91.217	-0.065	-0.018
-230.771	800.000	0.081	-0.259
-229.757	360.266	0.056	0.111
-228.742	-19.906	0.324	-0.199
-227.727	-200.000	-0.038	0.306
-226.713	101.137	0.244	0.282
-225.698	-200.000	0.046	-0.208
-224.684	-200.000	0.012	-0.278
-223.669	-200.000	-0.020	-0.161
-222.655	-200.000	0.025	-0.312
-221.640	373.393	0.088	0.178
-220.625	-83.160	-0.185	0.059
-219.611	25.866	0.126	-0.104
-218.596	-129.229	-0.246	0.034
-217.582	-200.000	0.022	0.188
-216.567	351.412	0.065	-0.128
-215.552	263.741	0.141	0.243
-214.538	483.061	-0.132	-0.299
-213.523	-92.031	-0.256	0.072
-212.509	800.000	-0.117	0.353
-211.494	-113.640	-0.277	-0.054
-210.479	-71.488	0.064	0.024
-209.465	-200.000	0.006	0.182
-208.450	128.639	0.070	0.088
-207.436	104.784	0.119	-0.139
-206.421	19.633	0.165	-0.132
-205.406	-8.103	0.038	-0.025
-204.392	-6.054	-0.225	-0.153
-203.377	32.156	-0.158	0.135
-202.363	-40.934	0.246	0.126
-201.348	-33.831	0.074	-0.040
-200.333	-18.562	-0.135	-0.084
-199.319	-77.948	0.232	0.079
-198.304	239.785	0.070	0.115
-197.290	-81.384	-0.145	-0.047
-196.275	-101.884	0.031	-0.008
-195.260	-141.774	0.265	0.026
-194.246	-26.396	0.148	0.086
-193.231	-100.685	0.479	-0.117
-192.217	87.867	-0.110	-0.121
-191.202	-61.821	-0.397	-0.165
-190.187	37.595	0.139	-0.122
-189.173	-107.508	-0.163	0.036
-188.158	-49.918	0.422	0.198
-187.144	-49.508	-0.160	-0.076
-186.129	71.636	0.137	-0.141
-185.114	513.374	0.143	0.331
-184.100	800.000	-0.034	-0.123
-183.085	214.735	0.041	0.065
-182.071	-27.543	0.152	-0.087
-181.056	90.563	0.097	-0.108
-180.042	-8.301	-0.088	0.059
-179.027	47.488	-0.164	0.151
-178.012	163.884	0.137	0.192
-176.998	196.330	0.263	-0.397
-175.983	-99.717	-0.222	-0.055
-174.969	-90.103	0.133	0.038
-173.954	96.458	0.238	0.270
-172.939	800.000	-0.009	-0.036
-171.925	-114.946	0.340	-0.064
-170.910	458.678	0.145	-0.320
-169.896	-41.157	-0.205	0.105
-168.881	-87.682	-0.184	0.055
-167.866	-200.000	0.018	0.194
-166.852	-200.000	-0.030	0.144
-165.837	243.588	0.164	-0.272
-164.823	-140.790	-0.227	-0.023
-163.808	-108.958	-0.256	0.054
-162.793	670.857	0.128	0.328
-161.779	416.722	0.029	0.061
-160.764	112.995	-0.075	-0.090
-159.750	356.724	-0.131	-0.258
-158.735	215.784	0.149	0.235
-157.720	110.686	-0.077	0.092
-156.706	-123.986	-0.020	-0.003
-155.691	800.000	-0.064	0.243
-154.677	587.257	0.101	-0.247
-153.662	-118.754	-0.128	0.022
-152.647	-133.341	0.290	0.036
-151.633	-180.794	0.193	0.004
-150.618	10.781	0.208	0.157
-149.604	44.120	0.050	-0.046
-148.589	-178.479	0.320	0.007
-147.574	-63.464	-0.096	-0.039
-146.560	-107.320	-0.052	-0.011
-145.545	194.148	-0.070	-0.105
-144.531	-63.576	-0.119	0.048
-143.516	179.737	-0.128	-0.185
-142.502	800.000	-0.054	0.153
-141.487	-122.102	-0.183	0.030
-140.472	114.483	0.088	0.106
-139.458	689.390	-0.040	-0.103
-138.443	205.175	0.141	-0.216
-137.429	-164.001	-0.081	0.004
-136.414	479.807	0.057	0.128
-135.399	361.094	-0.078	-0.154
-134.385	-200.000	-0.015	0.104
-133.370	800.000	-0.101	0.348
-132.356	-31.243	-0.282	0.157
-131.341	136.928	0.259	-0.335
-130.326	800.000	-0.057	0.189
-129.312	-200.000	0.042	0.380
-128.297	800.000	0.080	-0.258
-127.283	-61.498	-0.286	0.119
-126.268	-21.729	0.334	-0.201
-125.253	481.422	0.081	-0.183
-124.239	8.481	-0.174	-0.130
-123.224	78.346	0.039	-0.041
-122.210	612.120	0.076	0.187
-121.195	-61.781	0.089	0.037
-120.180	9.539	0.159	0.119
-119.166	-28.285	0.068	0.039
-118.151	-163.775	-0.081	-0.004
-117.137	-50.234	-0.253	-0.118
-116.122	28.318	-0.237	-0.198
-115.107	1.940	-0.060	0.043
-114.093	-77.169	0.178	-0.061
-113.078	-73.254	0.175	0.063
-112.064	14.530	-0.257	-0.198
-111.049	-76.173	0.126	0.044
-110.034	147.121	0.037	0.049
-109.020	-58.503	-0.481	-0.206
-108.005	800.000	-0.050	0.156
-106.991	-40.680	-0.207	0.106
-105.976	-115.412	0.269	0.050
-104.962	-66.218	0.165	0.065
-103.947	800.000	0.009	0.029
-102.932	536.837	0.108	-0.254
-101.918	-169.964	0.023	-0.001
-100.903	-200.000	-0.062	-0.322
-99.889	-69.560	0.392	-0.148
-98.874	-200.000	0.050	-0.326
-97.859	19.324	-0.159	0.126
-96.845	800.000	0.093	-0.300
-95.830	55.091	-0.245	-0.234
-94.816	800.000	0.125	-0.366
-93.801	800.000	0.059	0.242
-92.786	-27.587	-0.130	0.075
-91.772	800.000	0.089	-0.263
-90.757	-200.000	-0.015	0.210
-89.743	-65.401	0.234	-0.093
-88.728	300.146	-0.070	-0.127
-87.713	28.003	0.192	-0.160
-86.699	-200.000	-0.091	-0.396
-85.684	-200.000	-0.031	-0.272
-84.670	-200.000	-0.032	-0.159
-83.655	-200.000	0.061	0.549
-82.640	87.192	0.256	0.279
-81.626	-151.026	-0.328	0.024
-80.611	-80.576	0.062	0.020
-79.597	800.000	0.115	-0.345
-78.582	-28.506	-0.282	-0.160
-77.567	193.731	-0.087	-0.130
-76.553	-200.000	-0.001	0.228
-75.538	-200.000	0.058	0.301
-74.524	21.578	0.051	0.041
-73.509	800.000	-0.058	-0.177
-72.494	62.263	0.089	0.087
-71.480	140.449	-0.185	-0.240
-70.465	-200.000	0.025	0.236
-69.451	-54.068	0.153	0.069
-68.436	104.563	0.090	0.105
-67.422	-200.000	0.002	-0.078
-66.407	-37.866	-0.230	-0.121
-65.392	-200.000	0.023	-0.182
-64.378	247.304	-0.207	-0.345
-63.363	-101.113	0.273	-0.066
-62.349	186.721	-0.128	0.188
-61.334	170.289	-0.627	-0.885
-60.319	479.762	0.087	0.195
-59.305	-200.000	0.018	-0.957
-58.290	459.312	0.529	1.161
-57.276	249.730	0.706	1.182
-56.261	-200.000	90.824	536.742
-55.246	523.822	1379.012	3197.842
-54.232	150.458	2602.588	3486.141
-53.217	107.642	2318.189	2721.881
-52.203	44.759	1929.086	1750.288
-51.188	38.644	1713.510	1507.763
-50.173	35.649	1668.516	1445.625
-49.159	51.816	1714.845	1609.361
-48.144	55.215	1732.774	1652.025
-47.130	38.305	1689.586	1483.903
-46.115	35.329	1674.828	1448.447
-45.100	35.213	1670.184	1443.498
-44.086	35.108	1667.277	1440.141
-43.071	35.193	1664.761	1438.550
-42.057	35.169	1661.930	1435.869
-41.042	35.102	1660.652	1434.205
-40.027	35.174	1658.701	1432.997
-39.013	35.151	1656.972	1431.277
-37.998	35.096	1655.231	1429.307
-36.984	35.035	1654.154	1427.863
-35.969	35.291	1652.600	1428.371
-34.954	35.214	1651.238	1426.570
-33.940	35.296	1649.038	1425.221
-32.925	35.321	1646.599	1423.240
-31.911	35.294	1645.480	1422.020
-30.896	35.309	1643.432	1420.300
-29.881	35.161	1642.092	1417.993
-28.867	35.223	1640.525	1417.044
-27.852	35.276	1639.239	1416.266
-26.838	35.291	1637.194	1414.551
-25.823	35.278	1636.152	1413.499
-24.809	35.338	1634.514	1412.471
-23.794	35.302	1633.719	1411.461
-22.779	35.255	1632.032	1409.603
-21.765	35.241	1630.202	1407.866
-20.750	35.286	1628.206	1406.418
-19.736	35.418	1626.982	1406.269
-18.721	35.307	1625.789	1404.367
-17.706	35.349	1623.745	1402.854
-16.692	35.189	1622.758	1400.775
-15.677	35.270	1621.120	1399.901
-14.663	35.265	1619.784	1398.655
-13.648	35.310	1618.233	1397.587
-12.633	35.308	1616.620	1396.124
-11.619	35.257	1615.080	1394.368
-10.604	35.388	1613.166	1393.612
-9.590	35.363	1611.642	1392.060
-8.575	35.334	1610.609	1390.898
-7.560	35.244	1609.892	1389.573
-6.546	35.311	1608.620	1388.908
-5.531	35.319	1607.216	1387.699
-4.517	35.281	1606.770	1386.981
-3.502	35.267	1605.704	1385.907
-2.487	35.429	1603.834	1385.405
-1.473	35.422	1593.090	1376.023
-0.458	33.243	1575.051	1344.915
0.556	30.021	1575.965	1316.550
1.571	27.869	1600.454	1321.337
2.586	27.207	1614.244	1327.771
3.600	23.462	1559.155	1255.878
4.615	12.578	1442.373	1089.983
5.629	3.421	1373.381	979.769
6.644	1.968	1364.752	964.347
7.659	1.804	1363.162	962.101
8.673	1.779	1362.057	961.077
9.688	1.669	1360.525	959.219
10.702	1.437	1357.198	955.328
11.717	5.022	1364.157	982.765
12.731	15.590	1384.773	1064.833
13.746	24.329	1399.105	1131.461
14.761	26.194	1402.058	1145.598
15.775	26.480	1401.650	1146.975
16.790	26.588	1401.137	1147.138
17.804	26.684	1400.696	1147.280
18.819	26.883	1400.271	1148.092
19.834	27.051	1399.760	1148.636
20.848	27.020	1399.117	1147.808
21.863	27.075	1397.664	1146.866
22.877	26.912	1397.642	1145.714
23.892	26.984	1396.151	1144.844
24.907	27.003	1395.316	1144.179
25.921	26.997	1394.342	1143.242
26.936	26.953	1393.990	1142.575
27.950	27.080	1392.224	1141.822
28.965	27.050	1390.941	1140.481
29.980	27.017	1390.046	1139.440
30.994	27.022	1388.616	1138.198
32.009	27.012	1387.615	1137.213
33.023	26.960	1386.669	1136.016
34.038	26.938	1385.447	1134.774
35.053	27.032	1384.642	1134.599
36.067	26.897	1383.627	1132.827
37.082	27.048	1382.570	1132.804
38.096	27.014	1381.870	1131.918
39.111	27.032	1381.154	1131.342
40.126	27.042	1380.151	1130.481
41.140	26.984	1380.066	1129.956
42.155	27.003	1379.529	1129.530
43.169	27.064	1380.023	1130.213
44.184	27.009	1379.334	1129.209
45.199	26.931	1379.105	1128.440
46.213	26.855	1378.687	1127.519
47.228	26.973	1377.141	1126.891
48.242	26.891	1376.417	1125.688
49.257	26.967	1374.532	1124.520
50.271	27.084	1372.662	1123.613
51.286	26.923	1372.149	1122.100
52.301	26.989	1370.805	1121.309
53.315	26.954	1370.191	1120.489
54.330	26.988	1369.079	1119.691
55.344	26.985	1367.846	1118.566
56.359	26.911	1367.372	1117.621
57.374	26.970	1366.374	1117.070
58.388	26.934	1366.302	1116.694
59.403	26.985	1365.566	1116.307
60.417	26.946	1364.789	1115.331
61.432	26.832	1363.972	1113.864
62.447	26.958	1363.039	1113.779
63.461	26.981	1362.032	1112.996
64.476	26.942	1361.220	1112.001
65.490	26.944	1359.870	1110.805
66.505	26.990	1358.227	1109.652
67.520	26.969	1357.559	1108.875
68.534	26.933	1356.369	1107.591
69.549	26.937	1355.309	1106.651
70.563	27.002	1354.303	1106.122
71.578	26.981	1353.327	1105.100
72.593	27.027	1352.144	1104.318
73.607	27.037	1351.844	1104.037
74.622	27.045	1351.065	1103.348
75.636	27.053	1350.247	1102.634
76.651	26.980	1349.885	1101.795
77.666	26.953	1349.414	1101.152
78.680	26.948	1349.216	1100.862
79.695	27.050	1348.101	1100.475
80.709	27.101	1347.290	1100.020
81.724	26.987	1346.306	1098.434
82.739	27.012	1345.070	1097.481
83.753	26.999	1344.049	1096.469
84.768	26.996	1343.057	1095.546
85.782	26.964	1342.009	1094.400
86.797	26.990	1341.135	1093.747
87.812	27.038	1339.990	1093.004
88.826	27.021	1338.844	1091.869
89.841	27.082	1338.011	1091.465
90.855	26.999	1337.089	1090.116
91.870	27.052	1335.993	1089.444
92.884	27.021	1335.286	1088.587
93.899	27.019	1334.640	1087.947
94.914	27.057	1333.921	1087.497
95.928	27.061	1333.105	1086.757
96.943	27.040	1332.424	1085.983
97.957	27.059	1331.712	1085.417
98.972	27.062	1330.959	1084.724
99.987	27.005	1329.877	1083.405
101.001	26.962	1329.152	1082.467
102.016	26.915	1328.461	1081.526
103.030	26.972	1327.262	1080.795
104.045	27.077	1326.370	1080.596
105.060	27.032	1325.330	1079.387
106.074	27.086	1324.231	1078.715
107.089	27.097	1323.464	1078.058
108.103	27.107	1322.396	1077.157
109.118	27.097	1321.254	1076.069
110.133	27.020	1320.605	1074.990
111.147	27.182	1318.806	1074.389
112.162	27.183	1317.744	1073.433
113.176	27.109	1316.820	1072.148
114.191	27.042	1316.172	1071.132
115.206	26.988	1315.445	1070.131
116.220	27.002	1314.027	1068.964
117.235	27.033	1313.372	1068.518
118.249	27.145	1312.557	1068.418
119.264	27.124	1311.329	1067.203
120.279	27.183	1310.781	1067.006
121.293	27.263	1309.938	1066.697
122.308	27.172	1309.570	1065.770
123.322	27.168	1308.363	1064.670
124.337	27.241	1307.708	1064.470
125.352	27.296	1306.572	1063.772
126.366	27.267	1305.806	1062.885
127.381	27.227	1305.260	1062.111
128.395	27.125	1304.263	1060.612
129.410	27.194	1303.333	1060.163
130.424	27.273	1302.393	1059.763
131.439	27.245	1301.846	1059.065
132.454	27.159	1301.221	1057.957
133.468	27.166	1300.511	1057.327
134.483	27.146	1300.231	1056.889
135.497	27.137	1298.845	1055.618
136.512	27.148	1297.982	1054.888
137.527	27.152	1296.750	1053.820
138.541	27.254	1295.442	1053.251
139.556	27.165	1294.319	1051.734
140.570	27.115	1293.770	1050.900
141.585	27.301	1291.967	1050.418
142.600	27.140	1291.435	1048.966
143.614	27.080	1290.754	1047.974
144.629	27.082	1290.011	1047.288
145.643	26.966	1288.762	1045.511
146.658	27.045	1287.384	1044.755
147.673	27.061	1286.604	1044.124
148.687	27.089	1285.667	1043.433
149.702	27.079	1284.611	1042.426
150.716	27.049	1283.169	1040.993
151.731	27.073	1282.402	1040.412
152.746	27.126	1281.355	1039.774
153.760	27.204	1280.264	1039.243
154.775	27.186	1279.192	1038.177
155.789	27.181	1277.963	1037.059
156.804	27.191	1277.620	1036.747
157.819	27.078	1276.919	1035.446
158.833	27.134	1276.245	1035.123
159.848	27.224	1274.971	1034.511
160.862	27.211	1274.633	1034.073
161.877	27.162	1273.599	1032.863
162.892	27.177	1272.716	1032.142
163.906	27.233	1272.051	1031.830
164.921	27.198	1271.303	1030.933
165.935	27.083	1271.187	1030.095
166.950	27.197	1270.058	1029.734
167.964	27.233	1269.563	1029.443
168.979	27.255	1268.555	1028.664
169.994	27.335	1268.349	1028.856
171.008	27.300	1267.795	1028.115
172.023	27.330	1266.871	1027.449
173.037	27.133	1266.342	1025.811
174.052	27.350	1265.180	1026.003
175.067	27.330	1264.526	1025.272
176.081	27.282	1263.862	1024.375
177.096	27.348	1262.483	1023.536
178.110	27.334	1261.469	1022.543
179.125	27.303	1261.028	1021.925
180.140	27.337	1260.378	1021.498
181.154	27.363	1258.909	1020.359
182.169	27.285	1258.012	1019.105
183.183	27.359	1256.762	1018.416
184.198	27.312	1255.752	1017.249
185.213	27.423	1254.716	1016.940
186.227	27.288	1254.064	1015.567
187.242	27.413	1252.763	1015.119
188.256	27.360	1252.305	1014.361
189.271	27.416	1251.184	1013.675
190.286	27.438	1250.258	1012.957
191.300	27.383	1249.818	1012.207
192.315	27.286	1249.897	1011.642
193.329	27.374	1249.391	1011.632
194.344	27.385	1248.999	1011.289
195.359	27.349	1248.355	1010.479
196.373	27.384	1247.511	1009.896
197.388	27.275	1247.526	1009.216
198.402	27.267	1247.435	1009.009
199.417	27.314	1246.241	1008.214
200.432	27.424	1245.730	1008.322
201.446	27.401	1244.942	1007.467
202.461	27.336	1244.787	1006.894
203.475	27.353	1243.984	1006.247
204.490	27.243	1242.991	1004.746
205.504	27.391	1242.036	1004.705
206.519	27.433	1240.810	1003.853
207.534	27.449	1239.788	1003.029
208.548	27.518	1238.804	1002.520
209.563	27.446	1238.122	1001.485
210.577	27.472	1237.224	1000.813
211.592	27.453	1236.451	999.993
212.607	27.503	1235.987	999.805
213.621	27.440	1235.012	998.584
214.636	27.489	1234.689	998.499
215.650	27.470	1233.613	997.437
216.665	27.418	1232.446	996.123
217.680	27.384	1231.920	995.425
218.694	27.488	1231.085	995.228
219.709	27.450	1230.590	994.533
220.723	27.425	1229.664	993.559
221.738	27.449	1228.604	992.747
222.753	27.430	1228.583	992.537
223.767	27.532	1227.306	991.975
224.782	27.517	1227.348	991.837
225.796	27.592	1226.670	991.611
226.811	27.585	1225.854	990.825
227.826	27.550	1225.266	990.070
228.840	27.571	1224.630	989.586
229.855	27.633	1223.797	989.161
230.869	27.574	1223.209	988.277
231.884	27.494	1222.437	987.134
232.899	27.487	1221.863	986.546
233.913	27.539	1221.412	986.372
234.928	27.681	1220.366	986.210
235.942	27.632	1220.438	985.918
236.957	27.529	1219.488	984.504
237.972	27.707	1218.558	984.625
238.986	27.640	1218.113	983.822
240.001	27.628	1217.808	983.420
241.015	27.727	1216.889	983.125
242.030	27.742	1215.963	982.374
243.045	27.681	1215.192	981.335
244.059	27.703	1214.077	980.462
245.074	27.749	1213.712	980.332
246.088	27.694	1213.108	979.462
247.103	27.719	1211.866	978.505
248.117	27.784	1210.959	978.034
249.132	27.793	1210.398	977.544
250.147	27.774	1209.693	976.787
251.161	27.893	1209.340	977.049
252.176	27.779	1208.421	975.613
253.190	27.906	1207.651	975.583
254.205	27.829	1206.935	974.506
255.220	27.875	1206.271	974.129
256.234	27.829	1206.164	973.711
257.249	27.866	1205.332	973.152
258.263	27.811	1204.816	972.356
259.278	27.830	1204.389	972.027
260.293	27.802	1203.749	971.276
261.307	27.905	1203.003	971.136
262.322	27.913	1202.324	970.542
263.336	27.895	1201.592	969.768
264.351	27.871	1201.397	969.402
265.366	27.893	1200.739	968.900
266.380	27.981	1199.932	968.630
267.395	27.993	1199.304	968.102
268.409	27.834	1198.799	966.766
269.424	27.968	1198.312	966.995
270.439	27.969	1197.402	966.183
271.453	27.912	1197.490	965.867
272.468	27.908	1196.586	965.031
273.482	27.916	1195.336	963.981
274.497	27.956	1194.986	963.822
275.512	27.945	1194.604	963.373
276.526	27.944	1194.011	962.804
277.541	27.947	1192.986	961.905
278.555	28.022	1192.493	961.820
279.570	28.091	1191.629	961.399
280.585	28.008	1190.934	960.315
281.599	28.029	1190.103	959.673
282.614	28.005	1189.226	958.753
283.628	28.017	1188.285	957.976
284.643	27.922	1187.842	957.033
285.657	28.064	1186.845	956.890
286.672	27.963	1185.823	955.452
287.687	28.071	1185.176	955.413
288.701	28.039	1184.636	954.725
289.716	28.132	1184.140	954.725
290.730	28.145	1183.004	953.792
291.745	28.114	1182.493	953.134
292.760	28.166	1182.078	952.988
293.774	28.094	1181.785	952.294
294.789	28.200	1180.948	952.086
295.803	28.336	1179.927	951.883
296.818	28.248	1179.567	951.050
297.833	28.131	1179.423	950.246
298.847	28.237	1178.554	950.009
299.862	28.259	1177.435	949.135
300.876	28.201	1176.910	948.328
301.891	28.280	1176.273	948.141
302.906	28.318	1175.686	947.783
303.920	28.282	1174.979	946.940
304.935	28.252	1174.380	946.222
305.949	28.297	1173.710	945.829
306.964	28.307	1172.716	944.996
307.979	28.398	1172.749	945.411
308.993	28.234	1171.874	943.773
310.008	28.344	1170.941	943.505
311.022	28.415	1170.436	943.381
312.037	28.378	1169.581	942.419
313.052	28.346	1168.779	941.523
314.066	28.411	1167.433	940.687
315.081	28.400	1167.144	940.315
316.095	28.261	1166.635	939.113
317.110	28.380	1166.221	939.302
318.125	28.453	1165.169	938.749
319.139	28.431	1164.775	938.235
320.154	28.373	1164.494	937.630
321.168	28.409	1163.647	937.048
322.183	28.368	1163.039	936.263
323.197	28.394	1162.417	935.816
324.212	28.396	1161.754	935.208
325.227	28.475	1161.382	935.229
326.241	28.423	1161.258	934.783
327.256	28.522	1160.435	934.542
328.270	28.559	1159.299	933.730
329.285	28.551	1158.305	932.808
330.300	28.493	1157.658	931.907
331.314	28.596	1156.608	931.504
332.329	28.558	1156.391	931.056
333.343	28.581	1155.549	930.408
334.358	28.639	1154.404	929.700
335.373	28.641	1154.041	929.334
336.387	28.494	1153.478	928.055
337.402	28.615	1152.384	927.708
338.416	28.643	1151.704	927.220
339.431	28.602	1151.695	926.920
340.446	28.692	1150.660	926.460
341.460	28.713	1149.968	925.927
342.475	28.647	1149.478	925.118
343.489	28.715	1148.437	924.541
344.504	28.693	1147.196	923.350
345.519	28.657	1146.933	922.872
346.533	28.595	1146.205	921.898
347.548	28.678	1145.294	921.500
348.562	28.838	1144.266	921.390
349.577	28.713	1144.064	920.522
350.592	28.614	1143.328	919.350
351.606	28.674	1142.179	918.648
352.621	28.739	1141.491	918.335
353.635	28.631	1141.502	917.724
354.650	28.784	1140.596	917.679
355.665	28.746	1140.484	917.318
356.679	28.892	1139.508	917.182
357.694	28.827	1139.175	916.505
358.708	28.783	1138.134	915.372
359.723	28.756	1137.401	914.566
360.738	28.688	1136.705	913.586
361.752	28.918	1136.204	914.245
362.767	28.920	1135.396	913.523
363.781	28.909	1134.976	913.051
364.796	28.952	1134.469	912.778
365.810	28.918	1134.201	912.311
366.825	28.932	1133.267	911.546
367.840	28.927	1132.991	911.220
368.854	29.113	1132.361	911.554
369.869	28.936	1131.894	910.223
370.883	28.949	1131.046	909.523
371.898	28.977	1130.309	908.991
372.913	29.105	1129.321	908.747
373.927	29.159	1128.882	908.576
374.942	29.029	1128.684	907.697
375.956	29.236	1127.806	907.931
376.971	29.125	1127.282	906.881
377.986	29.154	1126.680	906.461
379.000	29.160	1126.462	906.232
380.015	29.066	1126.286	905.550
381.029	29.125	1125.035	904.752
382.044	29.139	1124.398	904.229
383.059	29.011	1124.281	903.427
384.073	29.265	1123.089	903.636
385.088	29.091	1122.311	902.079
386.102	29.163	1121.500	901.699
387.117	29.192	1120.696	901.115
388.132	29.130	1119.996	900.166
389.146	29.198	1119.362	899.910
390.161	29.262	1118.501	899.451
391.175	29.120	1118.181	898.422
392.190	29.134	1117.437	897.813
393.205	29.200	1116.587	897.369
394.219	29.301	1115.961	897.282
395.234	29.274	1115.410	896.627
396.248	29.336	1114.287	895.944
397.263	29.317	1113.440	895.094
398.278	29.388	1113.050	895.047
399.292	29.386	1112.467	894.490
400.307	29.348	1112.049	893.890
401.321	29.262	1111.342	892.827
402.336	29.358	1110.571	892.591
403.350	29.272	1110.104	891.720
404.365	29.391	1109.426	891.674
405.380	29.401	1108.686	891.046
406.394	29.437	1107.861	890.477
407.409	29.390	1107.054	889.524
408.423	29.465	1106.370	889.256
409.438	29.561	1105.756	889.146
410.453	29.503	1104.939	888.133
411.467	29.660	1104.346	888.334
412.482	29.498	1103.654	886.920
413.496	29.439	1103.108	886.117
414.511	29.559	1102.467	886.102
415.526	29.489	1102.120	885.410
416.540	29.470	1101.795	884.979
417.555	29.717	1100.765	885.256
418.569	29.614	1100.615	884.564
419.584	29.684	1099.935	884.272
420.599	29.701	1099.940	884.281
421.613	99.123	1317.955	1438.075
422.628	92.641	1349.703	1438.206
