DTS Sentinel unit serial number:	SN413079Multiplexer serial number:	ORYXHardware model number:	OX4-SRSoftware version number:	ORYX F/W v4.00 Oryx Data Collector v3.7.2.0data status	okinstallation	princeton_trtdifferential loss correction	single-endedforward channel	channel 2reverse channel	N/Adate	2019/09/16time	09:39:34forward acquisition time	60.00reverse acquisition time	0.00gamma	496.2192k internal	0.2324k external	0.2324temperature offset calibration	0.9965default loss term (dB/km)	0.3790temperature slope calibration	1.0000multiplexer offset coefficient	1.0000multiplexer slope coefficient	1.0000fibre end	0.00T internal ref (°C)	32.30T ext. ref 1 (°C)	12.26T ext. ref 2 (°C)	30.29length (m)	temperature (°C)	Stokes	anti-Stokes-747.200	513.460	0.130	0.305
-746.185	56.310	-0.241	0.236
-745.171	438.594	-0.106	0.233
-744.156	-200.000	0.025	0.151
-743.142	-200.000	0.016	-0.090
-742.127	-8.633	-0.367	-0.249
-741.112	-11.018	-0.149	-0.100
-740.098	229.903	-0.069	0.114
-739.083	488.844	0.062	0.144
-738.069	2.348	-0.284	0.207
-737.054	413.161	-0.129	-0.278
-736.039	-24.364	0.296	-0.178
-735.025	-13.812	-0.145	0.095
-734.010	-127.920	-0.336	0.049
-732.996	85.804	-0.113	-0.125
-731.981	-180.980	-0.338	-0.007
-730.966	-43.316	-0.078	-0.040
-729.952	4.867	-0.284	0.211
-728.937	488.502	-0.166	-0.383
-727.923	-140.553	-0.096	0.010
-726.908	800.000	-0.065	0.244
-725.894	65.241	-0.123	-0.125
-724.879	-90.066	0.112	0.033
-723.864	-38.225	0.266	0.142
-722.850	-99.027	-0.097	-0.025
-721.835	-88.197	-0.157	-0.047
-720.821	248.465	-0.067	-0.114
-719.806	-42.288	-0.473	0.243
-718.791	-151.027	0.149	-0.011
-717.777	-80.600	-0.080	-0.027
-716.762	-165.244	-0.112	-0.005
-715.748	56.312	-0.114	-0.111
-714.733	-28.004	0.250	0.146
-713.718	-200.000	0.031	0.333
-712.704	-86.489	0.196	0.061
-711.689	-200.000	-0.002	-0.025
-710.675	-200.000	0.035	-0.161
-709.660	-147.435	0.220	-0.019
-708.645	-136.146	0.080	0.009
-707.631	-2.405	0.068	0.048
-706.616	195.399	0.113	0.174
-705.602	-200.000	0.003	-0.057
-704.587	-68.805	-0.215	-0.084
-703.572	-155.854	0.164	-0.011
-702.558	124.076	-0.252	0.318
-701.543	773.616	0.097	0.266
-700.529	-162.971	-0.150	0.007
-699.514	-163.529	0.282	0.013
-698.499	-27.036	0.064	0.038
-697.485	652.467	0.085	0.220
-696.470	-108.394	0.008	-0.002
-695.456	800.000	0.031	0.125
-694.441	74.651	0.272	0.288
-693.426	31.488	0.076	-0.066
-692.412	-24.105	0.312	-0.188
-691.397	18.959	-0.059	0.048
-690.383	800.000	-0.058	-0.189
-689.368	7.115	0.062	-0.047
-688.354	-1.368	0.234	0.166
-687.339	-21.626	0.041	0.025
-686.324	206.600	0.119	-0.187
-685.310	205.453	-0.166	-0.260
-684.295	-115.963	0.222	-0.042
-683.281	-200.000	0.048	-0.547
-682.266	59.868	0.247	-0.245
-681.251	22.427	0.053	0.044
-680.237	-63.663	0.031	0.013
-679.222	-41.149	0.461	-0.240
-678.208	-39.147	-0.071	-0.037
-677.193	-89.303	-0.076	0.023
-676.178	730.273	0.057	-0.154
-675.164	142.799	0.073	-0.097
-674.149	-200.000	0.012	-0.399
-673.135	-152.793	0.222	0.016
-672.120	-86.336	-0.265	-0.082
-671.105	-109.030	-0.401	-0.086
-670.091	-11.147	0.233	0.155
-669.076	-162.954	-0.139	0.007
-668.062	-99.335	-0.028	0.007
-667.047	-152.011	-0.136	-0.010
-666.032	-200.000	0.042	-0.194
-665.018	-200.000	0.011	-0.284
-664.003	168.422	0.097	-0.140
-662.989	-200.000	-0.012	-0.133
-661.974	-61.482	0.175	0.074
-660.959	163.313	-0.201	-0.284
-659.945	40.259	0.129	-0.116
-658.930	-200.000	0.006	-0.231
-657.916	-200.000	0.052	0.367
-656.901	-98.265	-0.155	-0.040
-655.886	18.919	0.122	-0.098
-654.872	11.966	-0.229	-0.177
-653.857	-200.000	0.031	-0.247
-652.843	-200.000	-0.005	0.300
-651.828	-32.603	0.189	-0.106
-650.814	84.667	-0.116	0.127
-649.799	-103.811	0.286	-0.067
-648.784	83.135	-0.257	0.282
-647.770	404.213	0.168	-0.356
-646.755	103.224	-0.154	-0.181
-645.741	-112.813	-0.398	0.079
-644.726	54.454	-0.176	0.170
-643.711	-100.752	-0.279	-0.069
-642.697	350.106	0.089	0.176
-641.682	800.000	0.068	-0.239
-640.668	-107.517	-0.286	0.063
-639.653	598.040	0.118	-0.295
-638.638	800.000	0.042	0.164
-637.624	495.530	-0.109	0.251
-636.609	-80.617	0.190	0.064
-635.595	800.000	0.125	-0.349
-634.580	800.000	-0.082	0.289
-633.565	406.943	0.108	0.229
-632.551	152.891	-0.156	-0.215
-631.536	-163.901	-0.017	-0.001
-630.522	-43.140	-0.144	-0.073
-629.507	245.094	0.093	0.156
-628.492	-200.000	0.018	0.169
-627.478	182.668	0.171	0.253
-626.463	-200.000	0.059	-0.346
-625.449	-200.000	-0.018	-0.130
-624.434	800.000	0.102	-0.302
-623.419	259.243	0.134	-0.233
-622.405	610.610	0.065	0.162
-621.390	7.098	-0.120	-0.090
-620.376	-21.384	0.100	-0.061
-619.361	94.465	-0.108	-0.123
-618.346	-200.000	0.050	0.341
-617.332	546.146	0.181	-0.436
-616.317	-200.000	0.015	0.194
-615.303	90.932	-0.097	0.109
-614.288	-113.791	0.232	-0.045
-613.273	800.000	0.058	0.216
-612.259	800.000	-0.033	0.109
-611.244	-75.271	0.186	-0.067
-610.230	160.748	-0.185	-0.260
-609.215	-24.739	-0.226	0.135
-608.201	55.255	0.265	-0.257
-607.186	76.637	0.189	0.201
-606.171	-27.051	-0.112	-0.066
-605.157	-200.000	0.021	0.154
-604.142	123.452	0.117	0.148
-603.128	22.519	-0.146	-0.120
-602.113	-200.000	0.054	-0.322
-601.098	-135.552	-0.227	-0.027
-600.084	-136.463	-0.096	0.011
-599.069	-114.595	0.435	-0.084
-598.055	238.885	0.116	-0.194
-597.040	72.474	0.162	0.169
-596.025	12.095	-0.242	-0.187
-595.011	-198.692	-0.225	-0.001
-593.996	800.000	-0.067	0.237
-592.982	243.112	-0.043	-0.073
-591.967	-89.205	-0.209	-0.062
-590.952	-200.000	-0.023	-0.291
-589.938	-68.571	-0.193	-0.075
-588.923	-200.000	-0.024	0.120
-587.909	-4.816	0.106	0.073
-586.894	-200.000	0.031	0.233
-585.879	-49.936	0.193	0.092
-584.865	627.360	-0.055	0.138
-583.850	503.640	0.068	-0.159
-582.836	-119.762	0.141	-0.024
-581.821	379.305	-0.050	0.102
-580.806	-28.659	-0.089	0.051
-579.792	462.313	-0.160	0.358
-578.777	-200.000	-0.051	-0.289
-577.763	-49.143	-0.161	-0.077
-576.748	-107.904	0.163	-0.036
-575.733	-200.000	-0.007	-0.093
-574.719	159.693	0.061	0.085
-573.704	294.193	-0.019	0.035
-572.690	-34.316	0.158	0.087
-571.675	-66.751	0.107	-0.042
-570.661	-28.478	0.146	-0.085
-569.646	-21.666	0.099	-0.060
-568.631	-115.907	-0.301	0.056
-567.617	-143.930	0.272	-0.026
-566.602	239.230	-0.203	-0.339
-565.588	-200.000	-0.080	-0.361
-564.573	462.876	-0.009	-0.020
-563.558	-200.000	-0.009	-0.042
-562.544	-171.637	0.258	0.009
-561.529	14.891	0.064	0.050
-560.515	-118.156	0.093	0.017
-559.500	253.660	-0.101	0.173
-558.485	-200.000	0.007	-0.169
-557.471	-44.319	-0.204	-0.102
-556.456	194.988	0.162	0.247
-555.442	534.123	-0.171	0.406
-554.427	-114.226	0.105	-0.020
-553.412	66.158	0.061	-0.062
-552.398	558.595	-0.149	0.359
-551.383	-100.692	-0.212	0.052
-550.369	-64.511	-0.271	-0.110
-549.354	362.182	-0.136	0.274
-548.339	-46.664	0.136	-0.067
-547.325	-65.155	-0.261	0.105
-546.310	-31.910	-0.379	0.212
-545.296	187.434	-0.062	0.093
-544.281	75.308	-0.124	-0.131
-543.266	-36.327	0.446	-0.241
-542.252	-200.000	-0.087	-0.493
-541.237	19.525	-0.215	-0.173
-540.223	-52.690	-0.374	0.173
-539.208	-200.000	-0.012	-0.175
-538.193	-200.000	0.023	-0.155
-537.179	193.451	-0.172	-0.261
-536.164	-200.000	0.011	-0.087
-535.150	217.252	0.288	0.460
-534.135	-146.674	-0.115	-0.010
-533.121	800.000	0.090	-0.288
-532.106	-200.000	-0.012	-0.189
-531.091	-84.154	-0.075	-0.024
-530.077	710.969	0.055	0.147
-529.062	-19.153	-0.118	0.073
-528.048	173.706	0.182	-0.263
-527.033	-200.000	-0.000	-0.281
-526.018	800.000	-0.083	-0.240
-525.004	194.244	-0.081	0.122
-523.989	220.527	-0.199	0.320
-522.975	-200.000	-0.021	-0.115
-521.960	800.000	0.091	-0.349
-520.945	-200.000	-0.016	0.164
-519.931	27.700	-0.090	-0.076
-518.916	-200.000	0.046	-0.332
-517.902	-200.000	-0.007	-0.046
-516.887	50.356	-0.105	-0.099
-515.872	114.286	-0.081	0.099
-514.858	-52.494	0.386	0.178
-513.843	5.929	-0.227	-0.168
-512.829	-200.000	0.012	0.080
-511.814	560.287	-0.058	0.141
-510.799	-147.163	-0.136	-0.012
-509.785	-39.262	0.312	0.164
-508.770	-112.601	-0.160	0.032
-507.756	-21.780	0.068	-0.041
-506.741	-200.000	-0.009	0.299
-505.726	583.803	0.101	0.249
-504.712	-2.324	0.269	-0.188
-503.697	-27.918	0.187	0.108
-502.683	-114.853	0.207	0.040
-501.668	65.895	-0.154	-0.156
-500.653	161.579	0.165	0.231
-499.639	800.000	0.042	0.132
-498.624	89.496	0.134	-0.150
-497.610	800.000	0.084	0.257
-496.595	136.432	0.117	-0.153
-495.581	-200.000	-0.013	-0.109
-494.566	-81.732	0.152	0.050
-493.551	800.000	-0.047	0.160
-492.537	193.095	0.135	0.204
-491.522	-169.190	-0.503	0.019
-490.508	596.325	0.055	0.136
-489.493	20.490	-0.030	0.024
-488.478	800.000	-0.078	0.245
-487.464	-200.000	-0.004	-0.025
-486.449	71.487	0.130	-0.135
-485.435	-200.000	-0.017	-0.147
-484.420	106.874	-0.160	-0.189
-483.405	-78.490	-0.317	-0.108
-482.391	353.612	0.047	-0.093
-481.376	564.165	0.036	-0.087
-480.362	193.090	0.050	-0.075
-479.347	41.711	-0.100	0.090
-478.332	232.155	-0.133	-0.218
-477.318	108.336	-0.037	-0.045
-476.303	800.000	0.113	0.341
-475.289	59.560	0.211	0.208
-474.274	-78.453	0.182	-0.062
-473.259	136.366	0.178	0.232
-472.245	800.000	0.028	-0.111
-471.230	73.656	0.120	-0.126
-470.216	628.049	-0.041	-0.103
-469.201	-73.524	0.135	0.049
-468.186	800.000	0.066	0.193
-467.172	47.708	0.075	0.070
-466.157	800.000	-0.143	-0.445
-465.143	800.000	0.066	-0.287
-464.128	82.932	-0.076	0.083
-463.113	202.746	0.043	0.066
-462.099	800.000	-0.101	0.360
-461.084	-84.731	-0.239	0.075
-460.070	-200.000	-0.111	0.000
-459.055	217.339	0.154	-0.244
-458.040	-200.000	-0.020	-0.154
-457.026	-200.000	0.014	0.142
-456.011	228.648	-0.070	0.114
-454.997	-200.000	0.042	0.244
-453.982	-77.136	-0.212	-0.074
-452.968	81.117	-0.056	0.061
-451.953	800.000	-0.072	-0.224
-450.938	-5.554	-0.197	-0.135
-449.924	-200.000	-0.153	-0.000
-448.909	350.500	-0.136	-0.268
-447.895	1.580	0.194	0.140
-446.880	-200.000	-0.017	0.192
-445.865	800.000	0.073	-0.252
-444.851	165.285	0.102	-0.144
-443.836	800.000	-0.109	-0.304
-442.822	-200.000	0.016	0.411
-441.807	83.332	-0.151	0.164
-440.792	24.933	0.175	-0.144
-439.778	61.926	-0.359	-0.357
-438.763	800.000	-0.074	-0.228
-437.749	-107.592	-0.444	0.097
-436.734	800.000	0.045	0.164
-435.719	266.153	0.139	0.242
-434.705	-24.457	0.118	-0.070
-433.690	800.000	0.068	0.218
-432.676	-124.286	-0.289	-0.045
-431.661	-16.944	0.014	-0.009
-430.646	-90.743	0.413	-0.119
-429.632	206.088	0.027	-0.042
-428.617	800.000	0.016	0.068
-427.603	-56.201	0.092	-0.041
-426.588	12.596	-0.124	-0.095
-425.573	-12.478	-0.151	-0.098
-424.559	-41.123	-0.177	0.091
-423.544	-200.000	-0.041	0.198
-422.530	-42.549	0.143	0.073
-421.515	124.822	-0.278	0.349
-420.500	0.429	0.130	0.093
-419.486	-48.597	-0.222	-0.106
-418.471	-200.000	-0.028	0.227
-417.457	95.819	-0.146	-0.166
-416.442	-88.301	0.212	-0.063
-415.428	-73.687	-0.122	-0.044
-414.413	105.345	0.272	-0.320
-413.398	90.158	-0.109	-0.121
-412.384	150.687	-0.046	0.062
-411.369	-29.396	0.258	-0.147
-410.355	-125.185	-0.338	0.052
-409.340	-82.386	0.265	0.086
-408.325	163.354	0.059	-0.083
-407.311	266.275	-0.034	-0.059
-406.296	-54.971	-0.116	-0.052
-405.282	-72.366	-0.092	0.034
-404.267	4.830	0.253	-0.185
-403.252	215.616	-0.122	0.194
-402.238	-139.654	0.318	0.034
-401.223	-24.005	0.030	-0.018
-400.209	800.000	0.037	-0.118
-399.194	-63.445	0.277	0.114
-398.179	-9.413	-0.099	0.066
-397.165	105.638	-0.270	0.318
-396.150	5.931	-0.268	0.197
-395.136	800.000	0.045	-0.171
-394.121	257.026	0.111	-0.190
-393.106	-140.121	0.170	0.018
-392.092	305.911	-0.186	-0.344
-391.077	173.824	0.114	-0.164
-390.063	393.140	-0.100	0.208
-389.048	277.100	-0.082	0.145
-388.033	-40.470	0.175	0.091
-387.019	669.707	0.099	0.255
-386.004	-194.781	-0.067	-0.001
-384.990	-66.650	-0.154	0.061
-383.975	3.414	-0.043	0.032
-382.960	-142.166	0.281	-0.028
-381.946	-122.141	0.242	-0.040
-380.931	59.369	-0.399	-0.391
-379.917	-181.733	0.081	-0.002
-378.902	-123.320	-0.221	0.035
-377.888	7.803	-0.101	0.075
-376.873	-134.657	-0.139	0.017
-375.858	236.463	-0.069	0.113
-374.844	84.039	-0.229	0.249
-373.829	-69.630	0.204	0.078
-372.815	-124.768	0.167	-0.026
-371.800	-200.000	-0.050	-0.239
-370.785	31.314	-0.124	0.106
-369.771	252.233	0.161	0.272
-368.756	-170.246	0.221	-0.008
-367.742	-200.000	-0.006	0.204
-366.727	-107.952	-0.239	0.052
-365.712	16.263	-0.287	0.225
-364.698	-6.353	0.538	-0.365
-363.683	-88.323	-0.287	0.085
-362.669	117.026	0.151	-0.185
-361.654	103.026	-0.188	0.219
-360.639	139.124	0.212	-0.277
-359.625	-9.668	-0.130	0.086
-358.610	-162.851	-0.460	-0.022
-357.596	4.520	0.099	0.072
-356.581	35.085	0.198	-0.172
-355.566	-37.431	-0.299	0.159
-354.552	51.614	-0.260	0.246
-353.537	-200.000	0.010	0.173
-352.523	79.332	0.156	-0.166
-351.508	-85.485	0.192	-0.059
-350.493	-200.000	0.016	-0.195
-349.479	384.457	-0.137	-0.281
-348.464	12.603	0.346	-0.266
-347.450	66.378	0.175	0.177
-346.435	84.511	-0.033	-0.036
-345.420	-200.000	0.026	-0.280
-344.406	-200.000	-0.017	0.165
-343.391	615.986	-0.169	0.420
-342.377	308.852	-0.210	-0.389
-341.362	-200.000	0.045	-0.247
-340.348	-129.355	0.304	-0.042
-339.333	58.311	0.204	-0.199
-338.318	-200.000	-0.018	0.327
-337.304	-149.364	-0.127	0.010
-336.289	-200.000	-0.012	-0.232
-335.275	31.575	-0.201	0.172
-334.260	-107.166	0.270	-0.059
-333.245	-107.295	-0.261	0.057
-332.231	800.000	0.016	-0.066
-331.216	800.000	0.073	0.318
-330.202	-85.485	0.278	-0.086
-329.187	-15.007	0.160	0.102
-328.172	675.416	-0.028	-0.072
-327.158	726.782	-0.063	-0.167
-326.143	-59.677	0.275	0.117
-325.129	72.140	0.024	-0.025
-324.114	-166.680	-0.242	-0.010
-323.099	-200.000	0.008	-0.167
-322.085	-37.440	0.117	0.062
-321.070	80.212	-0.205	-0.219
-320.056	-83.625	0.149	-0.047
-319.041	-25.144	0.207	0.122
-318.026	-200.000	-0.041	0.192
-317.012	800.000	-0.024	0.076
-315.997	12.261	-0.163	0.125
-314.983	-200.000	-0.108	0.001
-313.968	-191.308	-0.201	0.002
-312.953	-117.536	-0.549	0.098
-311.939	-200.000	0.036	0.273
-310.924	-200.000	0.018	0.176
-309.910	-200.000	-0.036	-0.315
-308.895	227.045	0.194	-0.313
-307.880	-34.519	-0.141	0.077
-306.866	-200.000	0.079	-0.452
-305.851	-136.476	0.105	-0.012
-304.837	-39.345	-0.384	-0.200
-303.822	-98.489	0.275	-0.070
-302.807	800.000	-0.048	-0.177
-301.793	-83.747	0.178	-0.056
-300.778	214.307	-0.067	0.105
-299.764	-89.204	0.174	-0.051
-298.749	96.714	-0.117	-0.133
-297.735	-200.000	0.036	-0.191
-296.720	33.291	0.060	0.052
-295.705	-99.981	-0.236	0.058
-294.691	-9.676	-0.169	0.111
-293.676	-100.508	0.217	-0.053
-292.662	-200.000	0.025	0.165
-291.647	-86.455	0.274	-0.084
-290.632	226.212	-0.172	0.276
-289.618	418.180	-0.284	0.602
-288.603	-200.000	0.010	0.089
-287.589	-70.288	-0.344	-0.130
-286.574	216.278	0.068	-0.108
-285.559	-85.504	-0.158	-0.049
-284.545	-174.737	0.230	-0.006
-283.530	-50.844	0.459	0.214
-282.516	800.000	-0.041	-0.137
-281.501	800.000	0.033	-0.095
-280.486	-200.000	-0.064	0.334
-279.472	800.000	0.084	-0.289
-278.457	800.000	-0.003	0.013
-277.443	-163.388	-0.191	0.009
-276.428	252.338	-0.152	0.257
-275.413	-200.000	-0.043	0.198
-274.399	472.967	-0.166	0.370
-273.384	800.000	-0.068	0.290
-272.370	-200.000	0.022	-0.114
-271.355	-13.093	-0.428	-0.276
-270.340	800.000	-0.055	0.182
-269.326	-6.622	0.144	-0.097
-268.311	10.659	0.134	0.102
-267.297	-153.257	-0.273	-0.019
-266.282	139.328	-0.300	0.391
-265.267	-95.404	0.091	0.024
-264.253	800.000	0.028	-0.085
-263.238	-131.350	0.195	0.026
-262.224	-200.000	-0.014	-0.216
-261.209	221.821	0.067	-0.107
-260.195	-200.000	0.022	-0.248
-259.180	440.611	0.091	0.197
-258.165	-12.304	-0.152	0.098
-257.151	-200.000	0.002	-0.082
-256.136	-63.052	0.280	-0.115
-255.122	157.765	0.079	0.108
-254.107	441.343	-0.032	0.070
-253.092	44.932	0.064	-0.058
-252.078	-137.774	-0.353	-0.039
-251.063	800.000	0.077	0.313
-250.049	-6.735	0.211	0.142
-249.034	130.820	-0.142	-0.181
-248.019	60.563	0.256	0.251
-247.005	687.202	-0.098	-0.254
-245.990	-200.000	0.028	0.278
-244.976	-162.411	0.476	0.023
-243.961	267.577	0.068	0.118
-242.946	1.033	-0.192	0.136
-241.932	-200.000	0.010	-0.252
-240.917	52.374	-0.139	0.131
-239.903	28.492	-0.188	0.157
-238.888	181.232	0.101	-0.147
-237.873	-200.000	0.034	-0.178
-236.859	800.000	-0.069	0.224
-235.844	141.791	-0.141	0.185
-234.830	-52.276	0.396	0.182
-233.815	72.256	-0.128	0.132
-232.800	-148.729	-0.115	-0.009
-231.786	659.251	0.165	-0.419
-230.771	47.068	0.303	0.279
-229.757	-200.000	0.022	-0.273
-228.742	116.845	0.194	0.236
-227.727	24.363	0.069	0.056
-226.713	-200.000	0.019	-0.228
-225.698	-175.614	-0.308	-0.008
-224.684	-144.821	-0.376	-0.034
-223.669	-63.279	0.171	0.070
-222.655	-200.000	0.039	0.434
-221.640	-200.000	-0.040	-0.315
-220.625	150.486	0.140	-0.189
-219.611	85.887	-0.104	0.113
-218.596	63.316	0.104	-0.103
-217.582	-13.209	0.231	0.149
-216.567	266.904	-0.037	0.064
-215.552	-120.104	-0.121	-0.021
-214.538	800.000	-0.157	-0.435
-213.523	800.000	0.063	0.226
-212.509	-200.000	-0.070	0.316
-211.494	97.730	0.114	0.129
-210.479	-170.973	-0.300	-0.010
-209.465	800.000	0.053	0.169
-208.450	50.488	0.147	0.137
-207.436	32.661	0.333	-0.285
-206.421	-91.472	0.115	-0.033
-205.406	-200.000	0.000	-0.162
-204.392	800.000	-0.078	0.322
-203.377	-94.405	-0.056	0.015
-202.363	-34.165	0.092	0.050
-201.348	633.066	0.095	-0.237
-200.333	-200.000	0.008	-0.152
-199.319	800.000	0.068	0.255
-198.304	-200.000	0.010	-0.338
-197.290	-24.699	0.217	-0.127
-196.275	-6.665	-0.226	0.152
-195.260	-55.170	-0.168	0.075
-194.246	21.713	-0.184	0.148
-193.231	-200.000	-0.049	0.220
-192.217	800.000	-0.078	0.261
-191.202	-155.914	0.093	0.006
-190.187	-150.459	-0.151	-0.011
-189.173	-51.822	0.286	-0.131
-188.158	-64.303	0.218	-0.088
-187.144	120.190	0.162	0.199
-186.129	-8.508	0.213	0.141
-185.114	-21.169	0.173	-0.104
-184.100	58.539	0.131	-0.127
-183.085	392.497	0.072	-0.147
-182.071	510.101	0.039	0.090
-181.056	218.050	-0.123	-0.193
-180.042	447.492	0.044	0.095
-179.027	-200.000	-0.026	-0.174
-178.012	3.946	0.331	0.239
-176.998	-96.600	0.184	-0.048
-175.983	-116.409	-0.272	0.050
-174.969	-200.000	0.004	-0.213
-173.954	-200.000	0.022	0.098
-172.939	-93.082	0.109	-0.030
-171.925	800.000	0.137	0.427
-170.910	9.642	0.182	-0.136
-169.896	-116.268	0.228	0.042
-168.881	137.846	0.223	0.288
-167.866	800.000	0.022	-0.074
-166.852	384.874	-0.105	-0.214
-165.837	-89.324	0.102	-0.030
-164.823	273.373	-0.017	-0.029
-163.808	-69.230	0.163	0.062
-162.793	-64.049	0.181	0.073
-161.779	68.554	-0.280	-0.283
-160.764	106.608	-0.103	0.121
-159.750	800.000	-0.041	0.126
-158.735	800.000	0.065	-0.194
-157.720	-200.000	-0.051	-0.440
-156.706	-70.282	0.096	0.036
-155.691	140.571	0.099	-0.128
-154.677	543.026	0.090	0.212
-153.662	-200.000	0.026	-0.260
-152.647	113.549	0.066	-0.079
-151.633	223.855	-0.069	-0.110
-150.618	800.000	-0.114	-0.426
-149.604	234.736	-0.046	-0.074
-148.589	-102.728	0.326	-0.077
-147.574	409.977	-0.023	-0.047
-146.560	134.874	0.138	-0.176
-145.545	800.000	0.010	-0.041
-144.531	-200.000	-0.001	-0.161
-143.516	-169.024	-0.186	-0.007
-142.502	42.537	0.312	-0.280
-141.487	95.850	-0.173	-0.194
-140.472	-52.356	0.267	0.122
-139.458	-152.692	0.076	0.005
-138.443	-55.582	-0.221	0.097
-137.429	-87.299	0.155	0.046
-136.414	-18.781	0.139	-0.085
-135.399	214.065	-0.107	0.167
-134.385	800.000	0.068	0.269
-133.370	-200.000	0.033	0.244
-132.356	-59.649	-0.262	0.111
-131.341	-128.548	0.151	0.021
-130.326	251.561	0.075	0.127
-129.312	122.114	0.093	0.114
-128.297	38.595	0.116	-0.102
-127.283	-165.516	0.229	-0.010
-126.268	-4.562	0.277	-0.188
-125.253	-200.000	-0.028	-0.124
-124.239	-200.000	0.021	0.110
-123.224	287.892	-0.090	-0.160
-122.210	777.716	-0.056	0.151
-121.195	42.338	-0.014	0.013
-120.180	25.724	-0.189	0.155
-119.166	-5.347	0.157	0.106
-118.151	-171.042	0.211	0.007
-117.137	-200.000	0.023	0.314
-116.122	-16.710	0.154	0.096
-115.107	800.000	-0.047	0.177
-114.093	-24.123	-0.264	0.155
-113.078	-200.000	0.003	-0.037
-112.064	-9.314	0.086	-0.057
-111.049	-200.000	0.142	0.000
-110.034	800.000	-0.038	-0.114
-109.020	5.648	-0.353	-0.257
-108.005	-119.402	-0.022	0.004
-106.991	-54.254	-0.124	0.055
-105.976	-200.000	0.020	0.178
-104.962	259.185	-0.084	-0.143
-103.947	78.610	0.228	0.240
-102.932	33.357	0.250	0.214
-101.918	-200.000	0.049	0.406
-100.903	63.311	0.232	0.229
-99.889	-166.322	0.242	0.010
-98.874	269.282	-0.102	0.176
-97.859	-200.000	0.015	-0.184
-96.845	31.649	0.122	-0.103
-95.830	-52.388	0.112	0.051
-94.816	-200.000	0.004	-0.088
-93.801	53.667	0.132	0.125
-92.786	79.276	0.072	0.076
-91.772	800.000	0.026	0.107
-90.757	-200.000	0.004	0.290
-89.743	101.531	0.158	-0.182
-88.728	616.506	-0.056	-0.139
-87.713	433.038	0.113	0.241
-86.699	-155.315	0.265	-0.017
-85.684	-200.000	0.004	-0.338
-84.670	800.000	-0.053	0.154
-83.655	38.495	0.251	-0.220
-82.640	456.609	0.228	-0.497
-81.626	-10.702	0.066	0.043
-80.611	-161.825	-0.327	-0.016
-79.597	-52.791	0.205	0.093
-78.582	800.000	-0.070	-0.234
-77.567	-76.424	0.321	-0.111
-76.553	31.563	-0.048	0.041
-75.538	50.729	-0.167	-0.155
-74.524	-99.739	0.053	0.013
-73.509	-96.819	0.161	0.042
-72.494	71.892	-0.321	0.328
-71.480	-30.719	0.208	0.116
-70.465	-174.738	0.060	-0.002
-69.451	-47.396	-0.102	0.049
-68.436	114.689	0.109	-0.131
-67.422	290.625	0.145	-0.258
-66.407	-54.502	0.092	-0.041
-65.392	800.000	-0.043	0.171
-64.378	800.000	-0.108	-0.305
-63.363	157.460	-0.042	-0.057
-62.349	-200.000	-0.000	0.068
-61.334	-5.910	-0.933	-0.628
-60.319	-4.915	0.575	0.390
-59.305	-200.000	-0.140	-0.927
-58.290	226.443	0.765	1.220
-57.276	800.000	0.332	1.277
-56.261	-200.000	95.712	569.731
-55.246	518.551	1426.149	3280.690
-54.232	150.783	2622.862	3502.812
-53.217	104.924	2321.689	2690.092
-52.203	41.659	1935.052	1722.216
-51.188	35.560	1721.879	1485.444
-50.173	32.837	1677.181	1426.281
-49.159	50.556	1722.357	1600.595
-48.144	52.154	1738.861	1628.083
-47.130	35.216	1700.662	1464.279
-46.115	32.386	1686.037	1430.156
-45.100	32.254	1681.023	1424.843
-44.086	32.368	1678.009	1423.094
-43.071	32.201	1675.563	1419.698
-42.057	32.130	1673.449	1417.321
-41.042	32.222	1671.201	1416.049
-40.027	32.230	1669.575	1414.680
-39.013	32.160	1667.569	1412.395
-37.998	32.151	1666.197	1411.108
-36.984	32.140	1665.156	1410.090
-35.969	32.260	1663.324	1409.381
-34.954	32.340	1661.295	1408.207
-33.940	32.332	1659.750	1406.780
-32.925	32.337	1657.996	1405.277
-31.911	32.301	1656.338	1403.542
-30.896	32.290	1654.524	1401.870
-29.881	32.342	1652.740	1400.693
-28.867	32.214	1651.637	1398.752
-27.852	32.365	1649.395	1397.913
-26.838	32.340	1647.973	1396.469
-25.823	32.180	1646.951	1394.364
-24.809	32.235	1645.741	1393.688
-23.794	32.384	1643.975	1393.240
-22.779	32.280	1643.064	1391.642
-21.765	32.353	1640.916	1390.313
-20.750	32.371	1638.948	1388.720
-19.736	32.314	1638.043	1387.479
-18.721	32.366	1636.270	1386.303
-17.706	32.326	1635.204	1385.053
-16.692	32.346	1633.032	1383.305
-15.677	32.250	1632.076	1381.735
-14.663	32.367	1630.190	1380.944
-13.648	32.341	1629.202	1379.855
-12.633	32.322	1627.339	1378.084
-11.619	32.364	1625.853	1377.083
-10.604	32.386	1624.279	1375.857
-9.590	32.360	1623.314	1374.791
-8.575	32.358	1622.084	1373.680
-7.560	32.324	1621.014	1372.474
-6.546	32.299	1619.650	1371.083
-5.531	32.237	1618.916	1369.950
-4.517	32.316	1617.408	1369.198
-3.502	32.345	1615.865	1368.046
-2.487	32.432	1614.085	1367.120
-1.473	32.405	1603.387	1357.806
-0.458	30.529	1585.328	1329.061
0.556	25.660	1587.118	1302.126
1.571	23.582	1611.462	1306.696
2.586	23.097	1624.731	1313.736
3.600	21.789	1573.801	1263.026
4.615	17.270	1470.396	1149.448
5.629	13.143	1410.514	1075.714
6.644	12.410	1402.078	1064.438
7.659	12.251	1401.218	1062.659
8.673	12.242	1399.834	1061.458
9.688	12.148	1398.205	1059.522
10.702	12.007	1395.278	1056.300
11.717	14.159	1398.308	1072.389
12.731	17.864	1405.409	1101.704
13.746	19.030	1405.119	1108.898
14.761	17.745	1402.057	1098.113
15.775	16.599	1399.191	1088.403
16.790	15.530	1396.061	1079.010
17.804	14.682	1394.322	1072.124
18.819	14.207	1392.536	1067.609
19.834	13.962	1390.731	1064.563
20.848	13.602	1389.791	1061.440
21.863	13.448	1388.443	1059.332
22.877	13.297	1387.224	1057.341
23.892	13.227	1385.900	1055.794
24.907	13.154	1385.851	1055.195
25.921	13.197	1384.674	1054.481
26.936	13.308	1384.005	1054.590
27.950	13.291	1382.868	1053.519
28.965	13.388	1381.714	1053.162
29.980	13.505	1380.413	1052.823
30.994	13.529	1379.334	1052.062
32.009	13.487	1378.384	1050.977
33.023	13.459	1376.850	1049.537
34.038	13.459	1375.377	1048.318
35.053	13.394	1374.546	1047.184
36.067	13.403	1373.143	1046.075
37.082	13.463	1371.984	1045.482
38.096	13.466	1370.790	1044.495
39.111	13.382	1370.648	1043.769
40.126	13.281	1369.923	1042.487
41.140	13.261	1368.604	1041.265
42.155	13.181	1368.149	1040.325
43.169	13.110	1368.284	1039.884
44.184	13.109	1368.024	1039.589
45.199	13.248	1367.047	1039.631
46.213	13.208	1366.540	1038.903
47.228	13.333	1365.583	1038.865
48.242	13.359	1364.474	1038.092
49.257	13.323	1362.726	1036.449
50.271	13.301	1361.648	1035.395
51.286	13.322	1359.978	1034.166
52.301	13.311	1358.603	1032.962
53.315	13.303	1357.700	1032.132
54.330	13.209	1356.611	1030.629
55.344	13.320	1355.265	1030.203
56.359	13.265	1354.582	1029.255
57.374	13.228	1353.707	1028.265
58.388	13.030	1353.066	1026.458
59.403	13.073	1352.615	1026.291
60.417	13.076	1352.007	1025.761
61.432	13.223	1350.535	1025.463
62.447	13.129	1349.926	1024.325
63.461	13.032	1348.195	1022.325
64.476	13.062	1347.368	1021.789
65.490	13.093	1346.027	1020.872
66.505	13.096	1344.722	1019.813
67.520	13.197	1343.127	1019.139
68.534	13.148	1342.630	1018.365
69.549	13.167	1341.964	1017.888
70.563	13.083	1340.816	1016.408
71.578	13.034	1339.763	1015.222
72.593	13.018	1338.192	1013.841
73.607	13.038	1337.715	1013.512
74.622	12.987	1337.089	1012.638
75.636	13.049	1336.560	1012.526
76.651	13.031	1335.739	1011.706
77.666	12.984	1335.110	1010.854
78.680	13.097	1334.780	1011.207
79.695	13.101	1333.888	1010.463
80.709	13.121	1332.860	1009.719
81.724	13.136	1332.052	1009.107
82.739	13.216	1330.963	1008.683
83.753	13.240	1330.403	1008.312
84.768	13.308	1329.495	1007.949
85.782	13.430	1328.332	1007.722
86.797	13.365	1327.002	1006.229
87.812	13.272	1325.259	1004.253
88.826	13.230	1324.284	1003.175
89.841	13.314	1323.241	1002.806
90.855	13.383	1322.231	1002.365
91.870	13.403	1321.363	1001.739
92.884	13.361	1320.989	1001.117
93.899	13.388	1320.122	1000.535
94.914	13.429	1319.009	999.846
95.928	13.381	1318.512	999.092
96.943	13.393	1317.223	998.101
97.957	13.409	1315.988	997.173
98.972	13.358	1315.600	996.483
99.987	13.318	1314.466	995.298
101.001	13.357	1313.525	994.726
102.016	13.283	1312.478	993.402
103.030	13.339	1311.647	993.024
104.045	13.430	1309.977	992.217
105.060	13.327	1309.214	990.935
106.074	13.285	1307.770	989.501
107.089	13.132	1306.685	987.676
108.103	13.038	1305.566	986.185
109.118	13.111	1304.397	985.649
110.133	13.214	1302.482	984.728
111.147	13.203	1300.972	983.432
112.162	13.199	1300.053	982.632
113.176	13.296	1298.664	982.069
114.191	13.324	1298.201	981.800
115.206	13.308	1296.868	980.607
116.220	13.208	1295.910	979.202
117.235	13.291	1294.486	978.532
118.249	13.172	1294.084	977.440
119.264	13.188	1292.958	976.595
120.279	13.224	1291.620	975.710
121.293	13.202	1290.112	974.359
122.308	13.125	1289.139	973.082
123.322	13.202	1287.992	972.585
124.337	13.179	1287.233	971.786
125.352	13.206	1285.897	970.853
126.366	13.119	1285.143	969.689
127.381	13.118	1283.732	968.529
128.395	13.059	1282.953	967.513
129.410	13.201	1281.746	967.345
130.424	13.288	1280.581	966.890
131.439	13.283	1279.630	966.059
132.454	13.235	1278.764	965.036
133.468	13.327	1277.932	964.862
134.483	13.219	1277.345	963.701
135.497	13.290	1276.168	963.141
136.512	13.284	1274.800	961.991
137.527	13.377	1273.449	961.427
138.541	13.268	1271.977	959.596
139.556	13.354	1270.238	958.700
140.570	13.509	1269.302	958.806
141.585	13.375	1268.211	957.119
142.600	13.363	1267.353	956.322
143.614	13.395	1266.579	955.837
144.629	13.499	1265.089	955.230
145.643	13.389	1264.519	954.077
146.658	13.472	1262.590	953.018
147.673	13.348	1261.177	951.151
148.687	13.318	1260.092	950.075
149.702	13.384	1258.708	949.330
150.716	13.490	1257.309	948.799
151.731	13.369	1256.477	947.391
152.746	13.417	1255.052	946.511
153.760	13.473	1253.703	945.725
154.775	13.548	1252.981	945.530
155.789	13.452	1251.768	943.980
156.804	13.461	1251.019	943.383
157.819	13.574	1249.756	942.993
158.833	13.520	1249.157	942.151
159.848	13.599	1248.122	941.736
160.862	13.603	1247.365	941.099
161.877	13.560	1245.178	939.125
162.892	13.499	1244.584	938.245
163.906	13.374	1244.031	937.040
164.921	13.498	1243.040	936.910
165.935	13.530	1242.561	936.650
166.950	13.661	1240.922	936.072
167.964	13.525	1240.792	935.123
168.979	13.467	1240.559	934.536
169.994	13.537	1239.316	933.912
171.008	13.553	1238.746	933.489
172.023	13.633	1237.864	933.192
173.037	13.673	1237.103	932.762
174.052	13.681	1236.024	931.914
175.067	13.536	1235.024	930.263
176.081	13.438	1234.314	929.090
177.096	13.514	1233.050	928.484
178.110	13.568	1231.657	927.657
179.125	13.618	1230.580	927.046
180.140	13.609	1229.412	926.029
181.154	13.769	1227.969	925.756
182.169	13.695	1227.145	924.637
183.183	13.779	1225.621	923.875
184.198	13.870	1224.326	923.325
185.213	13.751	1223.471	921.937
186.227	13.852	1222.482	921.672
187.242	13.770	1221.547	920.431
188.256	13.905	1220.220	920.097
189.271	13.849	1219.311	919.022
190.286	13.807	1218.363	917.992
191.300	13.664	1217.685	916.608
192.315	13.650	1217.053	915.973
193.329	13.621	1216.384	915.232
194.344	13.635	1215.702	914.715
195.359	13.661	1214.973	914.230
196.373	13.738	1214.643	914.322
197.388	13.958	1213.952	914.934
198.402	13.947	1213.962	914.798
199.417	14.009	1212.814	914.196
200.432	13.994	1212.282	913.632
201.446	14.097	1211.616	913.612
202.461	14.108	1210.611	912.836
203.475	14.203	1209.437	912.391
204.490	14.200	1207.844	911.089
205.504	14.050	1207.204	909.708
206.519	14.110	1205.528	908.690
207.534	14.034	1204.396	907.342
208.548	14.123	1203.461	907.046
209.563	14.101	1202.453	906.082
210.577	14.071	1202.100	905.572
211.592	14.129	1201.054	905.024
212.607	14.142	1200.224	904.385
213.621	14.255	1199.077	904.056
214.636	14.280	1197.916	903.239
215.650	14.104	1197.134	901.611
216.665	14.243	1196.143	901.538
217.680	14.322	1195.478	901.388
218.694	14.183	1194.749	900.004
219.709	14.273	1193.994	899.841
220.723	14.234	1193.338	899.056
221.738	14.175	1192.641	898.137
222.753	14.326	1191.478	897.993
223.767	14.336	1191.098	897.681
224.782	14.317	1189.975	896.653
225.796	14.452	1189.550	896.982
226.811	14.400	1188.982	896.193
227.826	14.310	1188.181	895.026
228.840	14.435	1187.189	894.872
229.855	14.465	1186.723	894.602
230.869	14.374	1185.978	893.473
231.884	14.452	1184.926	893.020
232.899	14.367	1184.251	891.975
233.913	14.351	1183.615	891.335
234.928	14.398	1182.702	890.819
235.942	14.419	1181.974	890.301
236.957	14.390	1180.801	889.185
237.972	14.275	1180.524	888.287
238.986	14.227	1180.568	887.982
240.001	14.487	1179.067	888.162
241.015	14.345	1178.298	886.750
242.030	14.489	1177.009	886.463
243.045	14.519	1176.300	886.011
244.059	14.485	1175.681	885.288
245.074	14.604	1174.858	885.219
246.088	14.415	1174.360	883.762
247.103	14.602	1173.302	883.880
248.117	14.671	1172.428	883.506
249.132	14.713	1172.091	883.397
250.147	14.713	1171.153	882.616
251.161	14.745	1170.823	882.457
252.176	14.828	1169.845	882.081
253.190	15.002	1169.459	882.627
254.205	14.982	1168.155	881.462
255.220	14.920	1168.064	880.989
256.234	15.043	1167.251	880.943
257.249	14.984	1166.848	880.252
258.263	14.979	1166.100	879.583
259.278	14.994	1165.125	878.850
260.293	15.050	1164.515	878.605
261.307	15.053	1164.014	878.161
262.322	15.047	1163.501	877.666
263.336	15.040	1163.020	877.192
264.351	15.040	1162.229	876.517
265.366	15.081	1161.269	875.932
266.380	14.994	1160.718	874.980
267.395	15.007	1159.691	874.198
268.409	15.121	1158.917	874.134
269.424	15.094	1158.334	873.474
270.439	15.172	1157.949	873.511
271.453	15.072	1157.073	872.255
272.468	15.106	1156.307	871.779
273.482	15.145	1155.448	871.255
274.497	15.031	1155.031	870.269
275.512	15.062	1153.913	869.511
276.526	15.067	1153.105	868.851
277.541	15.124	1152.662	868.735
278.555	15.151	1151.965	868.273
279.570	15.329	1151.168	868.518
280.585	15.364	1150.407	868.047
281.599	15.345	1149.401	867.114
282.614	15.299	1148.686	866.259
283.628	15.227	1147.245	864.728
284.643	15.252	1146.210	863.997
285.657	15.289	1145.372	863.480
286.672	15.308	1144.414	862.782
287.687	15.232	1143.826	861.870
288.701	15.256	1143.282	861.504
289.716	15.311	1142.207	860.904
290.730	15.397	1141.190	860.502
291.745	15.304	1141.189	859.949
292.760	15.466	1139.951	859.768
293.774	15.322	1139.784	858.830
294.789	15.437	1139.512	859.138
295.803	15.562	1138.487	858.928
296.818	15.448	1137.737	857.703
297.833	15.589	1136.195	857.183
298.847	15.446	1135.783	856.070
299.862	15.422	1135.467	855.632
300.876	15.519	1134.566	855.369
301.891	15.547	1133.645	854.746
302.906	15.624	1132.944	854.530
303.920	15.669	1132.422	854.290
304.935	15.703	1131.730	853.866
305.949	15.565	1131.591	852.985
306.964	15.675	1130.807	852.877
307.979	15.599	1129.991	851.800
308.993	15.700	1129.032	851.514
310.008	15.750	1128.112	850.996
311.022	15.769	1127.377	850.461
312.037	15.730	1126.574	849.585
313.052	15.606	1125.757	848.268
314.066	15.697	1124.891	848.001
315.081	15.649	1123.693	846.781
316.095	15.624	1123.196	846.202
317.110	15.722	1122.289	845.939
318.125	15.633	1121.725	844.992
319.139	15.606	1121.110	844.319
320.154	15.677	1120.336	844.018
321.168	15.666	1119.522	843.274
322.183	15.667	1119.188	842.950
323.197	15.761	1118.353	842.721
324.212	15.783	1118.145	842.600
325.227	15.807	1117.468	842.135
326.241	15.754	1116.803	841.295
327.256	15.813	1115.404	840.461
328.270	15.691	1114.971	839.450
329.285	15.755	1114.058	839.006
330.300	15.792	1113.092	838.390
331.314	15.810	1111.981	837.566
332.329	15.761	1110.849	836.399
333.343	15.833	1110.310	836.277
334.358	15.857	1109.374	835.618
335.373	15.814	1109.343	835.305
336.387	15.895	1108.213	834.780
337.402	15.915	1107.355	834.160
338.416	15.999	1106.724	834.029
339.431	16.046	1106.165	833.767
340.446	16.106	1105.449	833.450
341.460	16.048	1104.814	832.607
342.475	16.169	1103.755	832.335
343.489	16.195	1103.511	832.205
344.504	16.167	1102.412	831.163
345.519	16.124	1101.363	830.090
346.533	16.254	1100.645	830.114
347.548	16.347	1099.613	829.717
348.562	16.360	1099.044	829.282
349.577	16.258	1098.231	828.094
350.592	16.217	1097.484	827.255
351.606	16.132	1096.501	826.025
352.621	16.159	1095.977	825.688
353.635	16.121	1095.425	825.015
354.650	16.139	1094.664	824.456
355.665	16.220	1093.940	824.233
356.679	16.167	1093.726	823.739
357.694	16.307	1092.638	823.532
358.708	16.370	1091.844	823.166
359.723	16.400	1091.184	822.744
360.738	16.306	1090.920	822.011
361.752	16.468	1090.297	822.258
362.767	16.385	1089.654	821.296
363.781	16.383	1089.214	820.885
364.796	16.401	1088.798	820.585
365.810	16.559	1087.439	820.253
366.825	16.619	1087.010	820.146
367.840	16.564	1086.853	819.689
368.854	16.587	1086.240	819.267
369.869	16.633	1085.346	818.745
370.883	16.570	1084.578	817.788
371.898	16.564	1083.764	817.073
372.913	16.424	1083.356	816.018
373.927	16.680	1082.465	816.508
374.942	16.592	1082.287	815.877
375.956	16.651	1081.459	815.463
376.971	16.587	1081.425	815.059
377.986	16.584	1080.786	814.491
379.000	16.778	1079.837	814.636
380.015	16.821	1079.152	814.255
381.029	16.813	1078.465	813.627
382.044	16.808	1078.197	813.325
383.059	16.777	1077.247	812.389
384.073	16.836	1076.248	811.847
385.088	16.770	1075.560	810.939
386.102	16.847	1074.158	810.182
387.117	16.873	1073.040	809.390
388.132	16.761	1072.649	808.490
389.146	16.794	1071.630	807.807
390.161	16.835	1071.087	807.519
391.175	16.835	1070.495	807.001
392.190	16.708	1069.877	805.862
393.205	16.936	1069.195	806.359
394.219	16.975	1067.888	805.487
395.234	16.915	1066.992	804.455
396.248	16.851	1066.342	803.593
397.263	16.893	1065.376	802.990
398.278	16.820	1064.623	802.010
399.292	16.912	1063.763	801.722
400.307	16.842	1063.155	800.866
401.321	16.833	1062.672	800.389
402.336	16.926	1061.360	799.765
403.350	16.969	1060.607	799.331
404.365	16.996	1059.864	798.829
405.380	17.024	1059.394	798.534
406.394	17.020	1058.768	797.972
407.409	17.124	1057.943	797.771
408.423	17.019	1057.400	796.795
409.438	17.168	1056.974	797.105
410.453	17.152	1056.040	796.255
411.467	17.267	1055.163	796.061
412.482	17.207	1054.660	795.329
413.496	17.336	1053.967	795.339
414.511	17.246	1053.629	794.594
415.526	17.236	1053.685	794.519
416.540	17.347	1052.649	794.187
417.555	17.398	1051.825	793.731
418.569	17.331	1051.369	793.005
419.584	17.340	1051.117	792.789
420.599	17.397	1050.636	792.620
421.613	100.475	1319.163	1454.789
422.628	92.478	1358.267	1454.896
