DTS Sentinel unit serial number:	SN413079Multiplexer serial number:	ORYXHardware model number:	OX4-SRSoftware version number:	ORYX F/W v4.00 Oryx Data Collector v3.7.2.0data status	okinstallation	princeton_trtdifferential loss correction	single-endedforward channel	channel 2reverse channel	N/Adate	2019/09/14time	20:39:34forward acquisition time	60.00reverse acquisition time	0.00gamma	496.2192k internal	0.2322k external	0.2322temperature offset calibration	1.0083default loss term (dB/km)	0.3790temperature slope calibration	1.0000multiplexer offset coefficient	1.0000multiplexer slope coefficient	1.0000fibre end	0.00T internal ref (°C)	33.41T ext. ref 1 (°C)	4.79T ext. ref 2 (°C)	28.05length (m)	temperature (°C)	Stokes	anti-Stokes-747.200	-108.517	0.158	0.034
-746.185	159.812	-0.245	0.345
-745.171	445.828	-0.066	0.147
-744.156	70.503	0.098	-0.102
-743.142	9.830	-0.201	0.154
-742.127	539.137	-0.094	0.226
-741.112	800.000	-0.074	0.207
-740.098	-58.963	-0.305	0.133
-739.083	800.000	-0.044	0.179
-738.069	800.000	-0.108	0.450
-737.054	-109.779	-0.266	-0.056
-736.039	-62.763	-0.172	0.072
-735.025	38.425	-0.137	0.123
-734.010	-71.591	-0.233	0.088
-732.996	46.596	-0.488	-0.457
-731.981	396.527	-0.023	0.049
-730.966	-70.904	0.167	0.064
-729.952	-90.241	-0.290	-0.085
-728.937	28.557	-0.203	0.174
-727.923	-107.110	-0.128	0.028
-726.908	-133.719	0.112	0.014
-725.894	164.697	0.139	-0.198
-724.879	800.000	-0.022	-0.064
-723.864	13.161	0.282	-0.221
-722.850	800.000	0.049	0.174
-721.835	-136.884	-0.361	-0.042
-720.821	-88.649	0.187	-0.056
-719.806	61.238	-0.112	-0.112
-718.791	-129.363	-0.080	-0.011
-717.777	-83.339	-0.079	0.026
-716.762	1.315	-0.199	-0.144
-715.748	-85.928	-0.116	-0.036
-714.733	-15.570	0.180	-0.116
-713.718	-116.489	0.063	0.012
-712.704	-164.124	-0.270	0.013
-711.689	139.656	-0.293	0.390
-710.675	-20.015	0.252	-0.157
-709.660	6.530	-0.379	-0.284
-708.645	-200.000	-0.030	-0.147
-707.631	-200.000	-0.023	0.175
-706.616	800.000	-0.146	0.453
-705.602	-75.673	0.137	0.049
-704.587	642.189	0.106	0.273
-703.572	-2.751	0.156	0.110
-702.558	-59.904	0.203	0.088
-701.543	-132.510	0.340	-0.044
-700.529	-116.336	0.189	0.035
-699.514	-61.432	0.161	-0.068
-698.499	592.115	0.078	0.195
-697.485	416.346	0.114	0.246
-696.470	245.966	-0.117	0.199
-695.456	387.415	-0.117	-0.244
-694.441	47.521	0.264	0.248
-693.426	800.000	-0.021	0.064
-692.412	-56.571	0.129	0.058
-691.397	-153.434	-0.210	-0.015
-690.383	-73.602	-0.095	0.035
-689.368	488.422	-0.126	-0.290
-688.354	-92.449	0.243	0.069
-687.339	-68.179	-0.304	-0.119
-686.324	49.843	-0.098	-0.093
-685.310	800.000	-0.142	0.424
-684.295	6.295	0.037	-0.027
-683.281	-103.845	-0.028	-0.007
-682.266	-128.331	0.583	-0.084
-681.251	-200.000	-0.040	-0.719
-680.237	-139.822	-0.139	0.015
-679.222	-94.760	-0.289	0.079
-678.208	800.000	0.100	-0.330
-677.193	-200.000	-0.041	-0.249
-676.178	-33.035	-0.139	0.078
-675.164	-90.848	0.185	-0.054
-674.149	183.775	0.129	0.192
-673.135	-63.653	0.299	0.123
-672.120	434.671	0.115	-0.253
-671.105	800.000	-0.066	-0.217
-670.091	-161.693	-0.107	-0.006
-669.076	116.600	0.105	-0.130
-668.062	-127.388	-0.189	-0.028
-667.047	-81.811	0.249	-0.082
-666.032	-107.502	-0.255	-0.056
-665.018	-168.115	-0.286	0.011
-664.003	-200.000	0.033	0.383
-662.989	-200.000	-0.032	0.220
-661.974	-50.601	-0.088	0.042
-660.959	-43.405	-0.373	0.190
-659.945	-21.318	-0.017	0.011
-658.930	800.000	-0.094	-0.364
-657.916	-79.796	-0.218	-0.074
-656.901	-200.000	0.004	0.118
-655.886	-35.338	-0.042	0.023
-654.872	-159.359	0.383	0.022
-653.857	400.580	-0.071	-0.149
-652.843	-31.392	-0.171	0.097
-651.828	-126.572	-0.195	0.029
-650.814	-18.722	-0.312	-0.196
-649.799	-161.414	-0.088	0.005
-648.784	415.127	-0.188	-0.404
-647.770	59.797	-0.162	0.161
-646.755	-22.873	-0.183	-0.111
-645.741	-158.626	0.279	0.016
-644.726	-200.000	-0.028	-0.237
-643.711	85.223	0.101	0.111
-642.697	-22.041	-0.068	0.042
-641.682	447.239	-0.028	-0.062
-640.668	-200.000	0.066	0.350
-639.653	195.000	-0.092	0.140
-638.638	-49.808	-0.047	0.022
-637.624	-200.000	0.038	0.195
-636.609	-200.000	-0.020	-0.127
-635.595	48.480	0.126	-0.119
-634.580	120.957	0.185	0.232
-633.565	718.668	-0.038	-0.102
-632.551	-161.741	-0.021	-0.001
-631.536	654.264	-0.062	-0.160
-630.522	-63.757	0.294	-0.121
-629.507	-30.265	-0.365	-0.209
-628.492	-200.000	-0.053	0.286
-627.478	70.245	-0.108	-0.112
-626.463	800.000	-0.059	0.230
-625.449	-54.791	-0.084	0.038
-624.434	-141.033	-0.306	-0.031
-623.419	-148.355	0.135	-0.011
-622.405	234.608	-0.069	-0.115
-621.390	-45.124	-0.262	0.131
-620.376	-109.533	0.158	0.034
-619.361	-82.462	-0.175	0.057
-618.346	-14.877	0.257	-0.166
-617.332	-200.000	0.009	-0.160
-616.317	-8.094	-0.122	0.082
-615.303	-12.078	-0.496	-0.327
-614.288	-174.924	0.312	-0.009
-613.273	-200.000	0.022	-0.275
-612.259	-121.048	0.459	0.077
-611.244	-200.000	-0.036	0.165
-610.230	49.924	0.141	-0.134
-609.215	112.192	-0.162	-0.196
-608.201	77.410	0.085	0.091
-607.186	118.818	0.218	0.271
-606.171	-147.317	-0.357	-0.030
-605.157	-4.932	0.126	0.087
-604.142	800.000	-0.011	0.039
-603.128	-68.739	0.184	0.071
-602.113	-200.000	0.025	-0.148
-601.098	-93.772	-0.088	0.024
-600.084	-200.000	0.015	-0.195
-599.069	168.917	0.048	0.069
-598.055	-139.231	0.063	0.007
-597.040	-133.739	0.201	0.025
-596.025	-200.000	-0.008	0.194
-595.011	-95.965	-0.366	0.098
-593.996	-114.705	0.230	0.044
-592.982	-25.610	0.274	-0.162
-591.967	-200.000	0.017	-0.267
-590.952	245.553	-0.164	0.277
-589.938	5.160	0.098	0.073
-588.923	-17.536	-0.076	-0.048
-587.909	21.620	0.082	-0.067
-586.894	-200.000	0.008	0.404
-585.879	-162.008	0.274	0.014
-584.865	-49.589	-0.304	0.145
-583.850	-200.000	0.019	-0.203
-582.836	432.915	-0.104	-0.227
-581.821	-162.646	0.100	-0.005
-580.806	773.715	-0.094	-0.258
-579.792	-22.681	-0.182	0.111
-578.777	-43.436	-0.154	0.078
-577.763	121.170	0.036	0.044
-576.748	-175.470	-0.380	-0.010
-575.733	-69.427	-0.242	-0.093
-574.719	188.532	-0.130	0.195
-573.704	43.098	0.162	0.149
-572.690	94.188	0.224	-0.255
-571.675	-200.000	0.039	-0.401
-570.661	-74.285	-0.245	-0.089
-569.646	-200.000	0.031	0.340
-568.631	363.533	0.155	0.313
-567.617	-200.000	-0.011	0.202
-566.602	8.522	0.233	-0.176
-565.588	-24.128	0.078	-0.046
-564.573	-54.312	0.102	0.046
-563.558	-91.865	-0.094	0.027
-562.544	-200.000	0.024	0.187
-561.529	-200.000	0.020	0.135
-560.515	195.502	0.097	0.148
-559.500	-2.110	0.244	-0.172
-558.485	800.000	-0.048	0.164
-557.471	-200.000	-0.081	0.500
-556.456	12.842	-0.171	0.132
-555.442	259.434	-0.049	-0.084
-554.427	-112.936	-0.050	0.010
-553.412	-130.758	-0.168	0.023
-552.398	-200.000	0.023	0.163
-551.383	-200.000	0.048	0.215
-550.369	-90.224	0.420	0.122
-549.354	-107.583	-0.101	0.022
-548.339	-34.942	0.164	0.090
-547.325	281.962	0.099	0.178
-546.310	113.539	-0.060	0.073
-545.296	244.559	0.072	-0.121
-544.281	282.809	-0.129	0.232
-543.266	800.000	-0.025	0.091
-542.252	800.000	0.070	0.279
-541.237	-137.337	-0.206	0.023
-540.223	23.989	0.207	-0.171
-539.208	-90.670	-0.230	0.067
-538.193	-140.119	0.189	-0.020
-537.179	-46.877	-0.278	-0.136
-536.164	-200.000	-0.028	-0.274
-535.150	800.000	-0.053	0.213
-534.135	496.887	-0.146	-0.337
-533.121	-106.998	-0.337	0.075
-532.106	800.000	0.034	0.139
-531.091	-200.000	0.029	0.184
-530.077	232.855	0.378	-0.622
-529.062	800.000	0.071	-0.207
-528.048	22.469	0.369	-0.302
-527.033	-70.701	0.037	0.014
-526.018	800.000	-0.057	-0.235
-525.004	-15.988	-0.400	-0.255
-523.989	-200.000	0.043	0.263
-522.975	-26.964	-0.041	-0.024
-521.960	102.006	-0.038	-0.044
-520.945	-153.945	0.177	-0.012
-519.931	82.965	-0.140	-0.152
-518.916	652.722	-0.006	-0.016
-517.902	-11.007	0.086	-0.057
-516.887	-122.685	-0.304	0.049
-515.872	201.917	0.036	0.055
-514.858	-200.000	-0.029	0.145
-513.843	-15.484	-0.197	-0.126
-512.829	-118.131	0.163	0.029
-511.814	20.062	-0.115	-0.093
-510.799	17.447	0.169	-0.135
-509.785	-200.000	-0.051	-0.344
-508.770	-200.000	-0.046	-0.256
-507.756	231.754	-0.134	-0.220
-506.741	800.000	0.075	-0.238
-505.726	74.614	-0.242	-0.255
-504.712	713.959	-0.049	-0.130
-503.697	800.000	-0.050	0.172
-502.683	-79.816	0.118	-0.040
-501.668	-200.000	0.004	-0.019
-500.653	-200.000	0.018	0.221
-499.639	-64.309	0.156	0.063
-498.624	193.815	-0.116	0.176
-497.610	-200.000	0.002	0.312
-496.595	-74.024	-0.152	0.055
-495.581	-173.161	-0.285	0.009
-494.566	-124.978	0.083	0.013
-493.551	-200.000	0.009	-0.273
-492.537	319.436	-0.113	-0.214
-491.522	437.832	-0.069	-0.151
-490.508	-164.617	-0.312	-0.014
-489.493	124.508	-0.189	-0.238
-488.478	157.499	0.136	-0.188
-487.464	-102.997	-0.298	-0.071
-486.449	-200.000	0.029	0.315
-485.435	-48.071	0.225	0.109
-484.420	253.424	0.109	-0.187
-483.405	-49.131	0.287	-0.137
-482.391	-43.731	0.316	0.159
-481.376	-98.962	-0.085	0.021
-480.362	-128.161	-0.205	-0.029
-479.347	-114.395	-0.375	0.072
-478.332	-69.898	-0.138	-0.053
-477.318	152.794	-0.269	-0.368
-476.303	-58.470	-0.210	0.091
-475.289	-200.000	-0.020	-0.208
-474.274	66.425	0.033	-0.033
-473.259	12.920	-0.163	0.126
-472.245	-106.482	0.386	0.086
-471.230	249.162	0.168	-0.285
-470.216	0.309	-0.203	-0.145
-469.201	-10.905	-0.069	0.046
-468.186	101.402	0.163	0.190
-467.172	44.889	0.145	0.134
-466.157	9.795	-0.150	-0.113
-465.143	-1.999	0.089	0.062
-464.128	-85.636	0.138	-0.043
-463.113	150.307	0.155	-0.210
-462.099	82.633	0.086	-0.093
-461.084	-132.484	-0.047	-0.006
-460.070	-200.000	-0.082	0.378
-459.055	-143.252	-0.198	-0.019
-458.040	409.829	-0.118	0.250
-457.026	-108.975	-0.477	0.102
-456.011	-200.000	-0.034	0.162
-454.997	-117.482	0.513	0.093
-453.982	800.000	0.022	-0.071
-452.968	800.000	-0.070	-0.196
-451.953	-84.796	-0.111	0.035
-450.938	-109.813	0.301	0.063
-449.924	262.356	0.124	-0.214
-448.909	-128.771	-0.068	0.010
-447.895	800.000	0.095	0.331
-446.880	48.947	-0.204	0.191
-445.865	-144.770	-0.026	-0.002
-444.851	204.023	0.095	-0.147
-443.836	-125.541	0.355	-0.054
-442.822	-77.501	-0.269	0.093
-441.807	800.000	-0.135	-0.382
-440.792	383.763	-0.105	0.215
-439.778	156.320	-0.107	-0.148
-438.763	71.797	-0.035	0.037
-437.749	40.346	0.063	0.057
-436.734	800.000	0.055	0.207
-435.719	-200.000	0.058	0.266
-434.705	124.990	0.181	0.228
-433.690	89.485	-0.183	0.203
-432.676	100.697	-0.146	0.169
-431.661	166.137	-0.162	-0.228
-430.646	332.662	0.058	0.113
-429.632	-200.000	-0.033	0.164
-428.617	596.996	0.071	-0.175
-427.603	-200.000	-0.023	0.254
-426.588	550.309	-0.080	0.191
-425.573	-200.000	0.067	0.000
-424.559	351.344	-0.105	-0.207
-423.544	19.259	-0.081	-0.065
-422.530	-200.000	0.022	0.218
-421.515	-72.236	-0.094	0.035
-420.500	16.533	-0.382	-0.301
-419.486	-200.000	0.014	-0.216
-418.471	-48.252	-0.346	-0.166
-417.457	86.801	0.207	-0.228
-416.442	90.647	-0.209	0.233
-415.428	-21.467	-0.170	0.103
-414.413	55.412	-0.101	-0.097
-413.398	201.798	-0.082	-0.126
-412.384	-140.474	-0.097	0.010
-411.369	-127.937	-0.180	-0.026
-410.355	135.005	0.174	0.225
-409.340	-5.407	-0.100	-0.069
-408.325	197.714	0.044	-0.067
-407.311	-200.000	-0.025	0.248
-406.296	-200.000	0.050	0.218
-405.282	-56.738	-0.108	0.048
-404.267	452.050	0.128	0.283
-403.252	335.174	-0.134	-0.258
-402.238	757.065	0.070	-0.189
-401.223	-185.327	0.158	-0.002
-400.209	-196.595	0.291	-0.002
-399.194	292.580	-0.027	0.050
-398.179	-142.996	0.122	-0.012
-397.165	398.068	-0.020	0.041
-396.150	148.669	-0.070	-0.094
-395.136	-200.000	0.017	-0.087
-394.121	-96.873	0.382	-0.100
-393.106	-33.583	-0.207	0.114
-392.092	183.100	0.133	0.195
-391.077	-19.761	-0.167	0.103
-390.063	-49.215	0.323	-0.154
-389.048	-97.315	-0.261	-0.068
-388.033	-200.000	-0.002	-0.204
-387.019	-105.520	0.243	-0.055
-386.004	289.281	-0.068	-0.123
-384.990	-200.000	-0.047	0.209
-383.975	-47.293	-0.072	-0.035
-382.960	-106.373	0.236	-0.053
-381.946	53.223	0.276	0.264
-380.931	48.251	-0.097	0.091
-379.917	800.000	-0.107	0.321
-378.902	-200.000	0.030	-0.426
-377.888	-10.049	-0.229	0.152
-376.873	93.332	-0.016	0.018
-375.858	655.385	-0.069	-0.176
-374.844	-127.465	0.110	0.016
-373.829	-95.609	0.223	-0.059
-372.815	-200.000	-0.038	0.293
-371.800	-83.618	0.221	0.070
-370.785	-6.763	-0.296	-0.200
-369.771	800.000	0.122	-0.376
-368.756	168.664	0.056	-0.080
-367.742	-200.000	0.006	-0.064
-366.727	-28.427	0.235	-0.135
-365.712	-200.000	0.002	0.095
-364.698	-113.339	-0.294	-0.057
-363.683	293.637	0.058	0.105
-362.669	-53.014	0.287	0.131
-361.654	-200.000	-0.034	0.219
-360.639	94.925	0.058	0.066
-359.625	-8.047	-0.113	-0.076
-358.610	-77.323	-0.062	0.021
-357.596	231.133	0.099	-0.162
-356.581	124.566	0.128	0.160
-355.566	4.992	-0.231	0.169
-354.552	278.069	0.108	0.192
-353.537	-35.391	0.215	0.116
-352.523	-124.876	-0.458	0.070
-351.508	-156.019	0.156	-0.010
-350.493	-128.853	0.323	-0.045
-349.479	214.134	-0.033	0.052
-348.464	800.000	0.023	0.094
-347.450	196.601	-0.079	-0.120
-346.435	-25.576	0.096	0.057
-345.420	267.186	-0.271	0.472
-344.406	244.802	0.046	-0.077
-343.391	-167.425	-0.145	-0.006
-342.377	439.759	0.109	-0.236
-341.362	800.000	0.049	-0.191
-340.348	-121.804	0.128	0.021
-339.333	-174.204	-0.083	-0.002
-338.318	19.278	0.226	-0.181
-337.304	691.045	-0.033	-0.085
-336.289	-183.811	0.234	0.004
-335.275	-200.000	-0.029	-0.338
-334.260	-200.000	-0.012	0.080
-333.245	-146.304	-0.305	-0.027
-332.231	800.000	0.046	0.152
-331.216	-150.626	-0.306	0.023
-330.202	-36.862	0.088	0.047
-329.187	377.860	0.085	0.172
-328.172	455.465	0.017	0.037
-327.158	-0.565	-0.158	-0.111
-326.143	-78.438	0.335	0.114
-325.129	272.528	0.039	-0.069
-324.114	514.911	-0.080	0.186
-323.099	-96.524	0.172	0.045
-322.085	25.597	-0.287	-0.238
-321.070	-131.670	0.301	0.039
-320.056	-122.430	-0.216	-0.035
-319.041	-56.510	0.177	-0.078
-318.026	-200.000	0.046	-0.208
-317.012	-16.179	0.142	-0.090
-315.997	320.096	-0.068	-0.128
-314.983	116.591	-0.065	-0.079
-313.968	-127.808	0.212	0.030
-312.953	800.000	0.027	-0.092
-311.939	-200.000	-0.023	0.404
-310.924	242.373	0.094	0.157
-309.910	-200.000	-0.017	-0.109
-308.895	105.042	0.116	-0.136
-307.880	-61.966	0.192	-0.080
-306.866	800.000	-0.069	-0.239
-305.851	-109.815	-0.261	-0.054
-304.837	194.455	-0.091	0.138
-303.822	56.385	-0.109	0.105
-302.807	-80.443	0.115	0.038
-301.793	642.632	-0.051	0.130
-300.778	800.000	-0.090	0.296
-299.764	-37.551	0.183	-0.097
-298.749	-200.000	0.014	0.167
-297.735	-32.220	-0.252	0.140
-296.720	-181.668	0.279	-0.005
-295.705	-200.000	-0.039	-0.230
-294.691	-200.000	0.243	0.001
-293.676	91.678	0.032	0.035
-292.662	-35.612	-0.079	0.042
-291.647	-200.000	-0.002	0.057
-290.632	147.446	0.173	-0.231
-289.618	-200.000	-0.018	0.109
-288.603	74.246	-0.185	0.193
-287.589	-7.547	0.171	0.115
-286.574	-200.000	0.007	0.306
-285.559	4.537	0.179	-0.130
-284.545	-120.545	-0.230	0.039
-283.530	-200.000	-0.003	0.017
-282.516	-137.604	-0.171	0.019
-281.501	-103.857	-0.141	-0.033
-280.486	-66.183	0.004	-0.002
-279.472	-29.029	-0.076	0.043
-278.457	128.678	-0.207	-0.261
-277.443	-40.704	-0.221	0.114
-276.428	174.763	0.052	-0.075
-275.413	144.993	0.202	0.269
-274.399	800.000	0.080	-0.245
-273.384	-27.684	-0.183	-0.105
-272.370	-77.861	0.198	0.068
-271.355	-41.126	0.191	-0.098
-270.340	-132.673	0.269	0.034
-269.326	-43.131	-0.191	-0.096
-268.311	800.000	-0.093	-0.260
-267.297	67.282	-0.066	-0.067
-266.282	-200.000	0.010	0.237
-265.267	-47.477	0.128	-0.062
-264.253	-74.518	0.079	-0.028
-263.238	-72.736	-0.260	-0.095
-262.224	-140.324	0.076	0.008
-261.209	-62.048	-0.231	-0.096
-260.195	96.695	-0.097	0.111
-259.180	800.000	0.066	0.219
-258.165	-200.000	-0.059	-0.259
-257.151	-1.811	0.349	-0.243
-256.136	-200.000	0.028	0.198
-255.122	199.868	-0.171	-0.260
-254.107	167.303	-0.053	-0.075
-253.092	47.994	-0.272	0.252
-252.078	-31.611	0.142	0.079
-251.063	-200.000	0.035	0.215
-250.049	6.218	0.099	-0.073
-249.034	148.646	-0.098	-0.131
-248.019	581.050	-0.057	-0.139
-247.005	215.982	0.228	0.360
-245.990	80.479	-0.106	0.113
-244.976	78.253	-0.119	0.126
-243.961	-67.060	0.350	-0.137
-242.946	-111.015	0.168	0.034
-241.932	499.709	0.081	-0.186
-240.917	578.703	-0.093	-0.226
-239.903	-58.363	-0.161	-0.069
-238.888	41.147	-0.215	-0.192
-237.873	-68.723	-0.102	-0.039
-236.859	28.878	-0.114	-0.096
-235.844	-109.804	0.196	0.041
-234.830	-1.751	-0.119	0.083
-233.815	-173.562	0.249	0.007
-232.800	-200.000	-0.016	0.083
-231.786	17.383	0.186	0.146
-230.771	-22.915	-0.233	0.139
-229.757	-79.905	0.164	-0.054
-228.742	170.606	-0.166	-0.235
-227.727	-56.247	0.208	0.092
-226.713	-46.290	0.104	0.051
-225.698	221.918	0.079	-0.125
-224.684	-125.214	0.104	0.016
-223.669	-6.121	0.380	-0.257
-222.655	-20.651	0.030	0.018
-221.640	198.076	-0.133	-0.201
-220.625	-200.000	-0.004	-0.031
-219.611	304.366	0.090	0.166
-218.596	689.693	0.044	0.113
-217.582	30.775	0.113	0.096
-216.567	-200.000	-0.031	0.221
-215.552	-109.672	0.425	0.089
-214.538	-200.000	-0.007	-0.035
-213.523	-200.000	-0.054	-0.251
-212.509	-84.184	-0.155	0.049
-211.494	10.662	0.175	0.132
-210.479	371.317	-0.039	-0.077
-209.465	-200.000	0.029	0.211
-208.450	800.000	0.059	-0.191
-207.436	-200.000	0.030	-0.399
-206.421	-97.009	-0.140	0.036
-205.406	-71.033	-0.271	0.101
-204.392	287.496	0.066	0.118
-203.377	317.758	-0.037	0.069
-202.363	-200.000	-0.001	-0.013
-201.348	-20.553	-0.260	-0.158
-200.333	800.000	-0.037	-0.106
-199.319	-154.087	-0.135	-0.009
-198.304	258.406	-0.165	0.281
-197.290	-111.395	-0.125	-0.025
-196.275	-200.000	-0.029	-0.145
-195.260	19.810	0.205	0.163
-194.246	-36.857	0.356	-0.189
-193.231	-10.200	0.178	-0.117
-192.217	-200.000	-0.019	-0.285
-191.202	451.522	0.029	-0.063
-190.187	-149.234	0.224	-0.018
-189.173	-30.569	-0.273	-0.153
-188.158	503.457	0.094	-0.214
-187.144	800.000	-0.034	0.126
-186.129	53.641	0.164	-0.155
-185.114	800.000	0.099	0.288
-184.100	416.700	0.213	-0.450
-183.085	-18.215	0.055	-0.034
-182.071	800.000	-0.053	-0.186
-181.056	20.587	-0.285	-0.228
-180.042	-160.093	-0.394	0.021
-179.027	-200.000	0.053	0.253
-178.012	272.091	0.170	0.296
-176.998	400.538	-0.096	0.199
-175.983	-200.000	0.007	0.164
-174.969	-173.149	-0.215	0.007
-173.954	211.909	0.122	-0.191
-172.939	-200.000	0.041	-0.000
-171.925	-146.221	-0.110	-0.010
-170.910	-72.284	0.209	0.077
-169.896	-115.937	0.265	-0.049
-168.881	-1.617	-0.035	0.024
-167.866	-49.887	0.291	-0.136
-166.852	-72.910	-0.268	-0.097
-165.837	-200.000	0.003	0.076
-164.823	-83.307	0.048	-0.015
-163.808	20.679	-0.004	-0.003
-162.793	800.000	-0.059	0.198
-161.779	-126.729	0.187	0.027
-160.764	800.000	-0.128	0.470
-159.750	462.607	0.057	0.126
-158.735	-74.529	0.228	0.081
-157.720	-138.197	0.167	-0.018
-156.706	68.828	0.104	0.106
-155.691	108.225	-0.118	-0.139
-154.677	800.000	0.065	0.206
-153.662	-73.343	0.084	-0.030
-152.647	-92.955	0.044	0.012
-151.633	-31.242	0.192	0.107
-150.618	-90.543	0.145	0.041
-149.604	-8.627	0.220	0.146
-148.589	-60.222	0.052	0.022
-147.574	-33.040	-0.219	-0.120
-146.560	140.751	0.210	-0.273
-145.545	230.416	0.110	0.177
-144.531	800.000	0.098	-0.300
-143.516	174.746	0.166	-0.237
-142.502	-200.000	0.005	-0.104
-141.487	736.159	0.205	0.542
-140.472	90.718	0.071	0.079
-139.458	-57.234	-0.157	0.068
-138.443	-71.045	0.194	0.072
-137.429	-89.945	0.259	-0.074
-136.414	313.496	-0.072	-0.134
-135.399	-131.064	0.180	0.024
-134.385	-22.144	0.264	-0.158
-133.370	800.000	0.022	0.091
-132.356	-98.561	0.193	0.049
-131.341	800.000	-0.018	0.074
-130.326	800.000	-0.034	0.148
-129.312	76.069	-0.313	-0.327
-128.297	-200.000	-0.038	-0.207
-127.283	-101.196	-0.067	-0.016
-126.268	-0.569	-0.052	-0.036
-125.253	-101.972	-0.268	0.064
-124.239	-200.000	-0.011	-0.090
-123.224	-13.099	-0.244	0.156
-122.210	-2.154	0.135	-0.093
-121.195	76.978	-0.101	-0.106
-120.180	46.527	-0.111	0.102
-119.166	-104.973	0.102	0.023
-118.151	143.387	-0.151	0.199
-117.137	-200.000	-0.010	0.107
-116.122	-200.000	0.012	0.079
-115.107	-146.793	0.331	0.028
-114.093	-44.484	-0.039	-0.019
-113.078	-200.000	-0.004	-0.099
-112.064	-109.259	0.244	0.051
-111.049	631.113	-0.118	-0.295
-110.034	602.672	-0.076	-0.187
-109.020	631.681	-0.043	0.109
-108.005	-128.452	0.161	0.023
-106.991	12.342	0.051	-0.039
-105.976	368.711	0.117	0.233
-104.962	-8.735	0.374	-0.247
-103.947	-200.000	0.067	0.436
-102.932	-200.000	-0.055	0.344
-101.918	83.023	0.105	-0.113
-100.903	611.561	-0.110	0.270
-99.889	-200.000	-0.012	-0.115
-98.874	-163.856	0.295	0.014
-97.859	413.524	-0.047	-0.099
-96.845	-44.934	0.113	-0.055
-95.830	-200.000	0.007	0.118
-94.816	-17.723	-0.374	-0.232
-93.801	-52.121	0.117	-0.054
-92.786	587.621	-0.112	0.272
-91.772	-141.579	0.255	0.025
-90.757	800.000	0.023	-0.082
-89.743	800.000	0.095	0.311
-88.728	800.000	0.056	0.170
-87.713	122.783	0.092	-0.113
-86.699	-165.939	0.266	0.011
-85.684	-200.000	-0.013	0.113
-84.670	651.160	0.048	0.121
-83.655	376.300	0.135	0.271
-82.640	-8.868	0.120	-0.079
-81.626	22.632	-0.113	-0.091
-80.611	57.443	-0.026	-0.025
-79.597	26.661	0.054	-0.045
-78.582	0.481	-0.073	-0.052
-77.567	-0.560	0.118	0.083
-76.553	194.450	0.119	0.177
-75.538	-200.000	0.005	-0.022
-74.524	-200.000	-0.010	-0.200
-73.509	285.726	0.184	0.326
-72.494	-75.731	-0.146	-0.051
-71.480	800.000	-0.048	-0.181
-70.465	-96.832	-0.224	-0.058
-69.451	424.974	0.168	0.355
-68.436	44.247	-0.246	-0.222
-67.422	-200.000	0.044	0.226
-66.407	31.854	0.207	0.175
-65.392	-183.094	0.290	-0.005
-64.378	-125.134	0.395	-0.060
-63.363	-144.891	0.296	0.027
-62.349	-116.866	0.211	0.038
-61.334	31.912	-1.005	-0.852
-60.319	125.428	0.456	0.566
-59.305	-200.000	-0.208	-0.934
-58.290	413.054	0.458	0.959
-57.276	800.000	0.424	1.506
-56.261	-200.000	95.204	562.067
-55.246	628.855	1381.000	3433.089
-54.232	195.286	2570.241	3839.845
-53.217	112.443	2275.026	2706.873
-52.203	42.636	1898.416	1699.446
-51.188	36.729	1688.685	1467.033
-50.173	33.955	1644.162	1407.783
-49.159	51.324	1689.779	1577.493
-48.144	53.319	1706.438	1607.940
-47.130	36.269	1667.048	1444.562
-46.115	33.509	1652.333	1411.237
-45.100	33.366	1647.586	1406.064
-44.086	33.291	1644.706	1402.997
-43.071	33.163	1642.355	1399.983
-42.057	33.204	1640.097	1398.307
-41.042	33.256	1638.009	1396.854
-40.027	33.226	1636.071	1394.927
-39.013	33.321	1633.354	1393.256
-37.998	33.257	1632.132	1391.683
-36.984	33.295	1631.440	1391.324
-35.969	33.494	1629.268	1390.871
-34.954	33.407	1627.880	1388.993
-33.940	33.371	1626.158	1387.204
-32.925	33.430	1624.485	1386.156
-31.911	33.411	1622.852	1384.570
-30.896	33.331	1620.917	1382.276
-29.881	33.453	1619.321	1381.757
-28.867	33.426	1617.844	1380.240
-27.852	33.390	1616.118	1378.450
-26.838	33.284	1614.971	1376.652
-25.823	33.428	1612.685	1375.692
-24.809	33.418	1611.577	1374.619
-23.794	33.435	1610.183	1373.502
-22.779	33.478	1608.258	1372.117
-21.765	33.429	1606.876	1370.524
-20.750	33.428	1605.523	1369.309
-19.736	33.402	1604.210	1367.948
-18.721	33.492	1602.571	1367.147
-17.706	33.410	1601.365	1365.467
-16.692	33.415	1599.732	1364.058
-15.677	33.402	1598.412	1362.788
-14.663	33.404	1597.222	1361.732
-13.648	33.550	1595.530	1361.287
-12.633	33.473	1594.023	1359.394
-11.619	33.381	1592.826	1357.660
-10.604	33.375	1591.113	1356.104
-9.590	33.453	1589.780	1355.469
-8.575	33.472	1588.184	1354.189
-7.560	33.449	1587.409	1353.312
-6.546	33.471	1586.163	1352.350
-5.531	33.425	1585.234	1351.176
-4.517	33.438	1583.669	1349.881
-3.502	33.400	1583.023	1349.008
-2.487	33.567	1580.626	1348.100
-1.473	33.277	1568.864	1335.968
-0.458	30.276	1549.942	1298.832
0.556	26.750	1549.959	1265.489
1.571	24.291	1572.839	1266.609
2.586	23.683	1585.596	1272.416
3.600	20.838	1532.666	1210.094
4.615	12.675	1423.900	1071.221
5.629	5.890	1360.163	980.887
6.644	4.866	1352.453	968.870
7.659	4.705	1351.104	966.817
8.673	4.807	1349.697	966.361
9.688	4.783	1348.506	965.270
10.702	4.720	1345.519	962.662
11.717	7.758	1351.497	985.707
12.731	15.363	1365.039	1042.945
13.746	20.140	1372.004	1077.950
14.761	19.739	1370.392	1074.098
15.775	18.776	1367.326	1065.629
16.790	17.656	1365.111	1056.867
17.804	16.913	1362.602	1050.228
18.819	16.528	1361.353	1046.791
19.834	16.318	1359.979	1044.343
20.848	15.985	1358.706	1041.218
21.863	15.752	1358.110	1039.227
22.877	15.638	1357.024	1037.597
23.892	15.544	1356.277	1036.360
24.907	15.551	1355.462	1035.688
25.921	15.546	1354.041	1034.479
26.936	15.605	1353.183	1034.092
27.950	15.683	1352.393	1033.879
28.965	15.721	1351.363	1033.232
29.980	15.822	1350.375	1033.009
30.994	15.966	1348.817	1032.608
32.009	15.991	1347.867	1031.942
33.023	15.874	1346.896	1030.387
34.038	15.749	1345.510	1028.476
35.053	15.761	1344.116	1027.389
36.067	15.741	1343.015	1026.336
37.082	15.841	1341.788	1025.917
38.096	15.922	1340.838	1025.592
39.111	15.861	1340.351	1024.758
40.126	15.689	1339.394	1022.891
41.140	15.575	1338.567	1021.477
42.155	15.571	1337.680	1020.684
43.169	15.546	1337.622	1020.399
44.184	15.499	1337.438	1019.882
45.199	15.451	1337.369	1019.448
46.213	15.703	1336.407	1020.151
47.228	15.797	1335.807	1020.170
48.242	15.817	1334.220	1018.990
49.257	15.796	1332.782	1017.677
50.271	15.662	1331.344	1015.677
51.286	15.688	1330.253	1014.916
52.301	15.692	1329.363	1014.167
53.315	15.653	1327.897	1012.728
54.330	15.587	1326.920	1011.493
55.344	15.620	1325.528	1010.541
56.359	15.657	1324.411	1009.824
57.374	15.563	1323.873	1008.757
58.388	15.456	1323.059	1007.408
59.403	15.407	1322.705	1006.752
60.417	15.461	1321.895	1006.371
61.432	15.376	1321.230	1005.268
62.447	15.361	1320.589	1004.604
63.461	15.389	1318.778	1003.304
64.476	15.309	1317.965	1002.116
65.490	15.341	1316.682	1001.243
66.505	15.431	1315.047	1000.450
67.520	15.357	1313.853	999.014
68.534	15.351	1313.451	998.583
69.549	15.462	1312.049	998.090
70.563	15.466	1310.828	997.096
71.578	15.277	1309.735	995.055
72.593	15.279	1308.942	994.373
73.607	15.262	1308.109	993.554
74.622	15.160	1307.430	992.345
75.636	15.248	1306.895	992.371
76.651	15.289	1305.899	991.771
77.666	15.279	1305.479	991.304
78.680	15.417	1304.806	991.521
79.695	15.152	1305.077	990.075
80.709	15.407	1303.750	990.485
81.724	15.471	1302.706	989.981
82.739	15.587	1301.861	989.937
83.753	15.628	1301.230	989.610
84.768	15.656	1300.402	989.059
85.782	15.792	1299.193	988.851
86.797	15.752	1298.166	987.747
87.812	15.686	1296.478	985.987
88.826	15.670	1295.626	985.156
89.841	15.787	1294.528	984.923
90.855	15.769	1293.332	983.818
91.870	15.802	1292.518	983.306
92.884	15.825	1292.031	982.983
93.899	15.746	1291.532	982.055
94.914	15.898	1290.734	982.249
95.928	15.951	1289.490	981.523
96.943	15.833	1288.437	979.948
97.957	15.842	1287.242	979.002
98.972	15.784	1286.551	978.056
99.987	15.751	1285.627	977.074
101.001	15.838	1284.397	976.556
102.016	15.745	1283.744	975.436
103.030	15.709	1283.520	974.969
104.045	15.859	1281.954	974.563
105.060	15.799	1280.732	973.197
106.074	15.630	1279.380	971.110
107.089	15.443	1277.913	968.829
108.103	15.443	1276.812	967.908
109.118	15.493	1275.191	966.887
110.133	15.405	1274.243	965.575
111.147	15.477	1272.369	964.481
112.162	15.489	1271.638	963.909
113.176	15.486	1270.463	962.920
114.191	15.612	1269.618	962.912
115.206	15.635	1268.155	961.853
116.220	15.574	1267.042	960.572
117.235	15.522	1266.362	959.674
118.249	15.597	1264.940	958.941
119.264	15.473	1264.154	957.552
120.279	15.464	1262.656	956.280
121.293	15.582	1261.475	955.978
122.308	15.413	1260.729	954.362
123.322	15.450	1259.311	953.416
124.337	15.396	1258.894	952.712
125.352	15.487	1257.364	951.984
126.366	15.401	1256.516	950.772
127.381	15.309	1255.846	949.656
128.395	15.398	1254.574	949.114
129.410	15.397	1253.900	948.514
130.424	15.546	1252.741	948.398
131.439	15.491	1252.019	947.453
132.454	15.530	1250.909	946.754
133.468	15.580	1250.023	946.278
134.483	15.553	1249.368	945.545
135.497	15.486	1248.691	944.574
136.512	15.597	1247.210	943.997
137.527	15.598	1245.900	942.925
138.541	15.555	1244.361	941.437
139.556	15.605	1243.262	940.801
140.570	15.674	1242.273	940.358
141.585	15.808	1241.186	940.198
142.600	15.717	1240.175	938.841
143.614	15.847	1239.439	938.928
144.629	15.885	1237.867	937.866
145.643	15.945	1236.904	937.387
146.658	15.774	1235.857	935.559
147.673	15.736	1234.308	934.092
148.687	15.627	1233.314	932.651
149.702	15.571	1231.797	931.111
150.716	15.567	1230.909	930.338
151.731	15.616	1229.970	929.814
152.746	15.709	1228.224	928.924
153.760	15.730	1227.013	928.047
154.775	15.825	1225.834	927.595
155.789	15.840	1225.448	927.304
156.804	15.748	1224.879	926.284
157.819	15.853	1223.456	925.701
158.833	15.960	1222.229	925.280
159.848	16.006	1221.461	924.869
160.862	15.869	1220.326	923.178
161.877	15.918	1219.191	922.508
162.892	15.725	1217.991	920.458
163.906	15.717	1217.664	920.088
164.921	15.702	1216.427	918.990
165.935	15.873	1215.438	919.097
166.950	15.764	1214.910	918.020
167.964	15.810	1214.507	917.882
168.979	15.757	1213.672	916.881
169.994	15.782	1213.181	916.568
171.008	15.793	1211.874	915.559
172.023	15.897	1211.578	915.818
173.037	16.005	1210.262	915.329
174.052	15.947	1209.564	914.408
175.067	15.882	1208.523	913.186
176.081	15.869	1207.470	912.237
177.096	15.851	1206.614	911.415
178.110	15.948	1205.193	910.786
179.125	15.804	1204.513	909.411
180.140	15.907	1203.174	908.875
181.154	15.885	1202.381	908.076
182.169	15.983	1200.713	907.269
183.183	16.076	1199.624	906.864
184.198	16.127	1198.778	906.419
185.213	16.091	1198.064	905.603
186.227	16.045	1196.710	904.254
187.242	16.121	1195.636	903.769
188.256	16.245	1194.814	903.733
189.271	16.318	1193.847	903.310
190.286	15.992	1192.829	900.721
191.300	15.943	1191.690	899.518
192.315	15.772	1190.943	897.962
193.329	15.831	1190.306	897.719
194.344	15.881	1190.174	897.807
195.359	16.027	1189.257	897.809
196.373	16.201	1188.484	898.075
197.388	16.204	1188.176	897.781
198.402	16.299	1188.123	898.163
199.417	16.327	1187.158	897.503
200.432	16.320	1186.787	897.107
201.446	16.474	1185.625	896.965
202.461	16.504	1184.801	896.421
203.475	16.473	1184.176	895.707
204.490	16.473	1182.633	894.462
205.504	16.335	1181.257	892.611
206.519	16.261	1180.138	891.295
207.534	16.367	1178.565	890.589
208.548	16.318	1178.113	889.907
209.563	16.185	1177.622	888.760
210.577	16.287	1176.406	888.302
211.592	16.415	1175.369	888.112
212.607	16.485	1174.781	887.957
213.621	16.602	1173.750	887.709
214.636	16.488	1172.847	886.349
215.650	16.513	1172.144	885.874
216.665	16.474	1171.281	884.939
217.680	16.491	1170.733	884.535
218.694	16.604	1170.021	884.507
219.709	16.540	1169.200	883.477
220.723	16.545	1168.618	882.986
221.738	16.534	1167.796	882.228
222.753	16.633	1166.882	881.976
223.767	16.552	1166.131	880.908
224.782	16.686	1165.378	880.956
225.796	16.762	1164.635	880.714
226.811	16.684	1164.326	879.996
227.826	16.609	1163.341	878.787
228.840	16.678	1162.510	878.435
229.855	16.664	1161.784	877.740
230.869	16.551	1161.311	876.717
231.884	16.589	1160.395	876.145
232.899	16.631	1159.605	875.690
233.913	16.477	1158.737	874.159
234.928	16.439	1158.203	873.483
235.942	16.422	1157.587	872.854
236.957	16.501	1156.431	872.314
237.972	16.481	1155.876	871.713
238.986	16.524	1155.046	871.232
240.001	16.444	1154.638	870.433
241.015	16.531	1153.776	870.153
242.030	16.615	1153.144	870.035
243.045	16.775	1152.116	870.006
244.059	16.736	1150.989	868.878
245.074	16.691	1150.564	868.248
246.088	16.753	1149.828	867.932
247.103	16.798	1149.040	867.493
248.117	16.878	1148.450	867.377
249.132	17.031	1147.861	867.642
250.147	17.047	1147.533	867.398
251.161	17.203	1146.619	867.426
252.176	17.155	1145.769	866.463
253.190	17.349	1144.685	866.553
254.205	17.316	1144.681	866.303
255.220	17.339	1143.961	865.798
256.234	17.353	1143.055	865.111
257.249	17.307	1142.394	864.299
258.263	17.360	1141.905	864.121
259.278	17.379	1141.300	863.684
260.293	17.407	1140.669	863.271
261.307	17.323	1140.415	862.578
262.322	17.472	1139.208	862.341
263.336	17.375	1138.815	861.475
264.351	17.586	1137.705	861.629
265.366	17.512	1137.681	861.160
266.380	17.432	1136.749	859.975
267.395	17.459	1135.707	859.248
268.409	17.369	1135.201	858.335
269.424	17.401	1134.505	857.892
270.439	17.427	1133.876	857.470
271.453	17.447	1133.208	856.989
272.468	17.419	1131.977	855.842
273.482	17.233	1132.036	854.875
274.497	17.305	1130.889	854.299
275.512	17.412	1130.565	854.516
276.526	17.353	1129.801	853.566
277.541	17.258	1129.320	852.651
278.555	17.346	1128.402	852.320
279.570	17.416	1127.736	852.094
280.585	17.458	1127.051	851.711
281.599	17.569	1125.746	851.206
282.614	17.448	1125.092	850.029
283.628	17.565	1123.414	849.269
284.643	17.508	1122.600	848.299
285.657	17.576	1121.899	848.031
286.672	17.649	1121.010	847.647
287.687	17.634	1120.254	846.926
288.701	17.565	1119.614	846.023
289.716	17.647	1118.340	845.391
290.730	17.704	1117.702	845.119
291.745	17.693	1117.111	844.541
292.760	17.596	1116.658	843.647
293.774	17.692	1115.993	843.543
294.789	17.800	1115.701	843.782
295.803	17.810	1115.120	843.319
296.818	17.659	1114.270	841.854
297.833	17.748	1113.416	841.575
298.847	17.600	1112.738	840.259
299.862	17.689	1112.279	840.274
300.876	17.761	1111.283	839.802
301.891	17.863	1110.367	839.537
302.906	17.848	1110.128	839.211
303.920	17.846	1109.286	838.487
304.935	18.075	1108.740	839.126
305.949	17.987	1108.080	838.122
306.964	17.990	1107.545	837.657
307.979	18.017	1106.393	836.842
308.993	18.044	1105.483	836.212
310.008	17.963	1105.275	835.586
311.022	17.980	1104.700	835.158
312.037	18.014	1103.303	834.194
313.052	17.962	1102.156	832.999
314.066	17.914	1101.513	832.206
315.081	17.841	1100.884	831.301
316.095	17.897	1099.599	830.530
317.110	17.882	1099.077	829.992
318.125	17.967	1098.310	829.749
319.139	17.827	1097.777	828.594
320.154	17.860	1097.134	828.199
321.168	17.790	1096.578	827.365
322.183	17.879	1096.000	827.287
323.197	18.041	1095.346	827.502
324.212	17.918	1094.823	826.440
325.227	17.932	1094.317	826.053
326.241	17.982	1093.655	825.720
327.256	17.914	1093.000	824.825
328.270	17.841	1092.312	823.880
329.285	17.993	1090.865	823.450
330.300	17.967	1089.670	822.350
331.314	17.970	1088.991	821.781
332.329	18.112	1087.869	821.540
333.343	18.020	1087.213	820.534
334.358	18.062	1086.736	820.301
335.373	18.136	1085.662	819.773
336.387	18.277	1084.960	819.844
337.402	18.201	1084.355	818.951
338.416	18.173	1083.839	818.357
339.431	18.092	1083.548	817.674
340.446	18.445	1082.265	818.321
341.460	18.417	1081.880	817.826
342.475	18.370	1081.268	817.066
343.489	18.413	1080.221	816.405
344.504	18.431	1079.556	815.918
345.519	18.574	1078.509	815.734
346.533	18.538	1078.014	815.118
347.548	18.465	1077.494	814.302
348.562	18.533	1076.702	813.957
349.577	18.411	1075.766	812.600
350.592	18.506	1074.721	812.186
351.606	18.375	1074.163	811.075
352.621	18.422	1073.457	810.689
353.635	18.454	1072.473	810.027
354.650	18.339	1072.275	809.264
355.665	18.481	1071.315	809.135
356.679	18.388	1071.033	808.413
357.694	18.495	1069.958	808.036
358.708	18.494	1069.562	807.658
359.723	18.539	1068.665	807.125
360.738	18.563	1068.380	806.947
361.752	18.502	1068.059	806.347
362.767	18.655	1067.153	806.310
363.781	18.520	1066.589	805.180
364.796	18.738	1066.064	805.736
365.810	18.737	1065.492	805.226
366.825	18.743	1064.858	804.704
367.840	18.956	1064.478	805.344
368.854	18.956	1064.481	805.277
369.869	18.959	1063.184	804.236
370.883	18.870	1062.222	803.024
371.898	18.862	1061.485	802.358
372.913	18.849	1060.640	801.585
373.927	18.736	1060.636	800.984
374.942	18.955	1059.993	801.450
375.956	18.940	1059.326	800.804
376.971	18.976	1058.780	800.486
377.986	18.955	1058.364	800.007
379.000	18.969	1057.947	799.684
380.015	19.066	1057.518	799.740
381.029	19.131	1056.522	799.219
382.044	19.153	1056.141	798.961
383.059	19.129	1055.493	798.289
384.073	19.197	1054.195	797.552
385.088	19.213	1053.432	796.980
386.102	19.080	1052.873	795.869
387.117	18.961	1051.881	794.499
388.132	19.075	1050.657	794.033
389.146	19.038	1049.749	793.104
390.161	19.062	1048.906	792.508
391.175	19.154	1048.462	792.525
392.190	19.056	1047.683	791.417
393.205	19.184	1047.126	791.513
394.219	19.238	1046.404	791.145
395.234	19.120	1045.693	789.997
396.248	19.081	1044.688	788.989
397.263	19.231	1043.136	788.431
398.278	18.906	1043.426	787.096
399.292	18.854	1042.145	785.823
400.307	18.876	1041.615	785.453
401.321	18.982	1041.157	785.520
402.336	19.099	1039.989	785.104
403.350	19.021	1039.328	784.181
404.365	19.108	1038.599	783.956
405.380	19.104	1037.885	783.332
406.394	19.220	1037.343	783.381
407.409	19.147	1036.688	782.483
408.423	19.208	1036.044	782.205
409.438	19.349	1035.482	782.354
410.453	19.388	1035.015	782.108
411.467	19.486	1034.169	781.842
412.482	19.502	1033.653	781.454
413.496	19.399	1033.045	780.462
414.511	19.588	1032.250	780.644
415.526	19.580	1031.993	780.345
416.540	19.677	1031.355	780.233
417.555	19.658	1030.886	779.723
418.569	19.621	1030.134	778.920
419.584	19.639	1029.692	778.597
420.599	19.579	1029.035	777.759
421.613	151.589	1400.873	1793.024
422.628	138.282	1455.017	1793.113
