DTS Sentinel unit serial number:	SN413079Multiplexer serial number:	ORYXHardware model number:	OX4-SRSoftware version number:	ORYX F/W v4.00 Oryx Data Collector v3.7.2.0data status	okinstallation	princeton_trtdifferential loss correction	single-endedforward channel	channel 2reverse channel	N/Adate	2019/09/11time	09:17:10forward acquisition time	60.00reverse acquisition time	0.00gamma	496.2192k internal	0.2318k external	0.2318temperature offset calibration	0.9966default loss term (dB/km)	0.3790temperature slope calibration	1.0000multiplexer offset coefficient	1.0000multiplexer slope coefficient	1.0000fibre end	0.00T internal ref (°C)	34.42T ext. ref 1 (°C)	0.10T ext. ref 2 (°C)	31.08length (m)	temperature (°C)	Stokes	anti-Stokes-747.200	-133.806	-0.230	-0.029
-746.185	-124.258	-0.213	-0.034
-745.171	-68.129	-0.073	-0.029
-744.156	-98.889	-0.162	-0.042
-743.142	89.551	0.213	0.240
-742.127	-75.021	0.144	0.052
-741.112	-200.000	0.005	0.183
-740.098	322.340	0.125	0.240
-739.083	-111.839	-0.131	-0.027
-738.069	-102.060	-0.205	0.050
-737.054	-113.691	0.173	-0.034
-736.039	-143.879	0.159	0.015
-735.025	356.801	0.013	0.027
-734.010	292.478	-0.095	0.175
-732.996	-130.776	-0.054	-0.007
-731.981	161.879	0.154	-0.219
-730.966	-179.360	-0.338	0.008
-729.952	800.000	0.127	-0.357
-728.937	316.198	-0.142	-0.271
-727.923	275.637	-0.162	-0.291
-726.908	416.913	0.056	-0.120
-725.894	373.524	0.114	-0.235
-724.879	-139.964	0.217	-0.023
-723.864	-37.314	0.233	-0.126
-722.850	-200.000	-0.042	0.261
-721.835	-200.000	0.003	0.322
-720.821	-200.000	-0.023	0.288
-719.806	-92.603	-0.145	0.041
-718.791	800.000	-0.111	-0.327
-717.777	-61.435	-0.067	-0.028
-716.762	-151.137	-0.289	0.022
-715.748	-122.816	0.181	0.030
-714.733	-17.615	0.275	-0.175
-713.718	67.423	-0.210	-0.217
-712.704	-200.000	-0.007	0.141
-711.689	286.956	0.099	-0.180
-710.675	-161.636	0.376	-0.019
-709.660	800.000	-0.069	-0.301
-708.645	81.115	0.166	-0.181
-707.631	280.923	0.174	0.315
-706.616	-76.213	0.327	-0.116
-705.602	-200.000	0.044	-0.000
-704.587	-98.092	-0.415	-0.108
-703.572	36.489	-0.244	-0.217
-702.558	-200.000	0.033	0.189
-701.543	147.880	0.069	0.094
-700.529	-200.000	-0.031	0.201
-699.514	-53.082	0.099	-0.046
-698.499	-147.996	0.198	0.017
-697.485	-142.425	-0.066	0.007
-696.470	-76.632	-0.196	0.070
-695.456	-200.000	0.048	0.374
-694.441	3.235	-0.291	-0.214
-693.426	-200.000	-0.184	-0.001
-692.412	-30.269	-0.298	-0.171
-691.397	-84.965	0.260	-0.082
-690.383	-106.017	0.375	0.085
-689.368	274.409	0.140	-0.250
-688.354	92.233	0.252	0.286
-687.339	58.453	0.089	-0.088
-686.324	105.854	0.129	0.154
-685.310	-36.942	-0.193	-0.105
-684.295	-9.676	-0.233	0.157
-683.281	-157.316	-0.170	-0.010
-682.266	800.000	-0.104	-0.306
-681.251	-77.548	0.202	-0.071
-680.237	-55.100	-0.477	0.217
-679.222	-100.376	-0.145	0.036
-678.208	-200.000	0.030	0.297
-677.193	1.199	0.167	-0.121
-676.178	137.794	0.096	-0.127
-675.164	-100.009	-0.195	-0.049
-674.149	16.237	0.104	-0.083
-673.135	-121.446	-0.195	-0.033
-672.120	-200.000	-0.007	0.276
-671.105	-200.000	-0.028	-0.231
-670.091	-60.510	-0.123	-0.053
-669.076	-98.642	-0.281	-0.072
-668.062	-200.000	0.021	-0.123
-667.047	218.048	-0.119	0.191
-666.032	-20.928	0.261	-0.162
-665.018	-69.841	-0.227	0.088
-664.003	173.532	0.150	-0.219
-662.989	-44.680	0.023	0.012
-661.974	308.031	0.099	0.186
-660.959	422.573	-0.019	0.042
-659.945	703.616	0.024	-0.065
-658.930	533.273	-0.013	-0.032
-657.916	800.000	-0.089	-0.371
-656.901	-200.000	0.076	-0.361
-655.886	99.174	-0.060	0.070
-654.872	166.846	-0.088	0.125
-653.857	-60.891	-0.451	0.192
-652.843	786.549	-0.075	-0.208
-651.828	-82.296	-0.319	-0.105
-650.814	-164.527	-0.295	0.014
-649.799	3.375	-0.156	-0.114
-648.784	-200.000	0.008	0.059
-647.770	-146.017	0.183	-0.016
-646.755	81.128	-0.034	0.037
-645.741	-200.000	-0.002	-0.209
-644.726	590.736	0.057	0.143
-643.711	-2.695	0.348	0.245
-642.697	80.473	0.219	-0.238
-641.682	-167.514	0.262	-0.011
-640.668	-93.120	-0.095	0.027
-639.653	483.588	-0.077	-0.177
-638.638	800.000	0.153	-0.436
-637.624	-115.031	0.164	0.031
-636.609	-51.068	0.122	0.058
-635.595	151.078	-0.175	0.240
-634.580	197.525	-0.158	-0.243
-633.565	-200.000	0.023	0.383
-632.551	162.622	-0.157	0.222
-631.536	-200.000	-0.011	-0.318
-630.522	48.828	0.072	-0.068
-629.507	800.000	-0.062	-0.222
-628.492	370.783	-0.087	-0.179
-627.478	68.821	-0.119	0.123
-626.463	800.000	-0.055	0.171
-625.449	785.583	-0.064	0.176
-624.434	-128.406	-0.230	0.033
-623.419	-175.208	0.166	-0.005
-622.405	800.000	-0.060	-0.197
-621.390	183.245	-0.128	-0.190
-620.376	471.595	0.158	0.359
-619.361	-121.375	-0.153	-0.026
-618.346	112.275	0.079	0.096
-617.332	579.838	-0.069	-0.171
-616.317	582.736	-0.080	-0.199
-615.303	18.072	0.126	-0.101
-614.288	47.452	0.190	-0.178
-613.273	-20.115	0.361	0.224
-612.259	-131.563	0.289	0.038
-611.244	-103.488	-0.110	-0.026
-610.230	-139.262	-0.108	-0.012
-609.215	-48.220	0.183	0.089
-608.201	-78.100	-0.160	-0.055
-607.186	-126.944	-0.255	-0.038
-606.171	-13.882	-0.153	0.100
-605.157	-200.000	0.004	-0.027
-604.142	245.175	0.041	-0.069
-603.128	-140.255	0.278	0.029
-602.113	-200.000	-0.051	0.243
-601.098	-119.169	-0.199	-0.035
-600.084	-101.079	-0.138	-0.034
-599.069	-25.438	0.184	-0.109
-598.055	-34.210	-0.147	0.081
-597.040	-6.079	-0.115	0.079
-596.025	-200.000	0.052	-0.266
-595.011	651.551	0.143	-0.369
-593.996	-48.673	0.057	-0.027
-592.982	-77.156	0.113	-0.040
-591.967	-200.000	0.013	0.138
-590.952	-20.099	0.253	0.157
-589.938	800.000	0.080	0.320
-588.923	83.077	0.168	0.184
-587.909	-200.000	-0.013	-0.179
-586.894	54.198	0.235	-0.227
-585.879	-118.721	-0.271	0.048
-584.865	115.640	-0.194	-0.239
-583.850	-200.000	-0.041	0.262
-582.836	16.595	0.222	-0.176
-581.821	800.000	-0.012	-0.043
-580.806	-142.882	-0.408	0.040
-579.792	126.819	-0.043	-0.055
-578.777	24.224	0.107	0.089
-577.763	-134.322	-0.225	0.028
-576.748	25.584	0.092	0.077
-575.733	-200.000	-0.068	-0.323
-574.719	-200.000	0.035	-0.412
-573.704	-200.000	-0.021	-0.124
-572.690	38.344	-0.148	-0.133
-571.675	163.679	-0.149	0.211
-570.661	-77.538	0.208	0.073
-569.646	-200.000	-0.018	0.128
-568.631	119.280	-0.143	-0.178
-567.617	13.535	0.381	-0.297
-566.602	-109.650	-0.249	0.053
-565.588	-134.088	-0.502	-0.062
-564.573	242.229	0.054	0.091
-563.558	-200.000	-0.021	0.186
-562.544	-57.952	0.230	0.101
-561.529	113.420	0.183	0.224
-560.515	1.141	-0.211	-0.152
-559.500	-200.000	0.033	0.330
-558.485	-200.000	-0.023	0.395
-557.471	395.132	-0.148	-0.311
-556.456	-200.000	0.000	0.059
-555.442	133.983	-0.050	-0.065
-554.427	-182.327	-0.334	-0.006
-553.412	-58.144	-0.332	-0.145
-552.398	-48.487	-0.207	-0.100
-551.383	800.000	-0.058	0.209
-550.369	75.595	0.247	-0.262
-549.354	9.390	-0.139	0.106
-548.339	249.044	-0.055	-0.093
-547.325	-19.674	-0.195	-0.121
-546.310	-200.000	-0.030	-0.150
-545.296	-0.663	0.224	-0.160
-544.281	71.458	-0.045	-0.046
-543.266	-124.564	-0.104	-0.016
-542.252	94.300	-0.076	-0.087
-541.237	106.093	-0.182	-0.216
-540.223	-200.000	-0.003	-0.122
-539.208	-200.000	0.002	0.080
-538.193	-51.922	0.158	-0.074
-537.179	800.000	-0.015	0.044
-536.164	44.680	-0.159	-0.147
-535.150	59.473	-0.220	0.218
-534.135	319.931	-0.066	-0.127
-533.121	800.000	-0.107	0.319
-532.106	-133.613	0.088	0.011
-531.091	250.523	0.084	-0.143
-530.077	197.479	0.113	-0.173
-529.062	-15.197	0.116	-0.075
-528.048	171.011	0.100	0.144
-527.033	20.632	0.180	-0.146
-526.018	-200.000	0.020	-0.124
-525.004	28.800	0.194	-0.165
-523.989	-101.950	-0.476	-0.115
-522.975	-200.000	-0.019	-0.182
-521.960	-200.000	0.068	0.344
-520.945	422.105	0.170	-0.367
-519.931	800.000	-0.074	0.273
-518.916	-3.379	-0.252	-0.176
-517.902	-45.761	0.203	-0.101
-516.887	30.263	-0.136	0.116
-515.872	145.285	-0.120	0.161
-514.858	-83.731	0.252	0.081
-513.843	-141.492	0.231	-0.023
-512.829	71.109	-0.145	-0.151
-511.814	-66.516	-0.159	-0.063
-510.799	-200.000	0.018	-0.294
-509.785	-169.777	0.222	-0.008
-508.770	-82.475	0.121	-0.039
-507.756	578.003	-0.046	-0.113
-506.741	-200.000	-0.012	0.162
-505.726	511.857	-0.092	-0.215
-504.712	282.477	-0.151	-0.271
-503.697	80.738	-0.078	-0.085
-502.683	477.891	0.054	0.122
-501.668	-23.971	-0.123	-0.074
-500.653	-200.000	-0.004	-0.223
-499.639	-154.760	0.328	-0.022
-498.624	-56.110	-0.320	-0.143
-497.610	-165.851	-0.113	0.005
-496.595	-200.000	0.029	0.297
-495.581	161.464	-0.146	0.204
-494.566	-19.987	0.190	-0.118
-493.551	159.333	0.155	0.216
-492.537	337.063	0.126	-0.245
-491.522	48.523	0.373	-0.350
-490.508	-200.000	0.008	0.064
-489.493	275.655	0.072	0.128
-488.478	800.000	0.041	0.127
-487.464	-108.419	-0.286	0.062
-486.449	-200.000	0.046	-0.303
-485.435	-2.185	0.124	-0.087
-484.420	-200.000	-0.044	0.367
-483.405	-45.381	-0.196	-0.097
-482.391	-113.373	0.197	-0.039
-481.376	526.265	0.046	-0.108
-480.362	-37.621	-0.072	-0.038
-479.347	-12.609	-0.121	-0.079
-478.332	-20.684	0.149	0.091
-477.318	225.312	-0.117	-0.190
-476.303	101.957	0.148	-0.173
-475.289	-62.287	-0.221	0.092
-474.274	-200.000	0.058	0.284
-473.259	34.780	0.296	0.259
-472.245	800.000	-0.037	-0.127
-471.230	-200.000	0.014	0.094
-470.216	59.680	-0.061	-0.060
-469.201	800.000	-0.050	0.210
-468.186	-77.060	0.251	-0.088
-467.172	-30.507	0.128	-0.073
-466.157	673.303	0.129	-0.334
-465.143	278.437	0.163	-0.291
-464.128	-69.664	-0.233	-0.089
-463.113	274.693	0.052	-0.092
-462.099	68.354	-0.268	0.275
-461.084	112.986	-0.144	-0.175
-460.070	530.760	0.142	-0.337
-459.055	-200.000	-0.013	-0.077
-458.040	460.500	0.004	-0.009
-457.026	-200.000	-0.013	-0.116
-456.011	104.047	0.081	0.095
-454.997	-35.125	-0.091	0.050
-453.982	12.069	0.214	0.165
-452.968	-200.000	-0.030	0.222
-451.953	-110.059	0.080	0.017
-450.938	-115.720	-0.595	0.112
-449.924	-49.519	0.092	0.044
-448.909	21.303	-0.147	-0.119
-447.895	-200.000	0.035	-0.180
-446.880	116.277	0.158	-0.194
-445.865	-49.334	0.078	0.037
-444.851	279.482	-0.117	0.208
-443.836	-31.015	0.216	0.122
-442.822	-104.252	0.292	-0.068
-441.807	-156.692	0.233	0.014
-440.792	11.913	0.023	0.018
-439.778	358.185	0.227	-0.453
-438.763	420.203	-0.099	0.213
-437.749	186.635	0.105	-0.156
-436.734	28.641	0.159	0.135
-435.719	54.922	-0.110	0.106
-434.705	-139.391	0.156	0.017
-433.690	25.081	-0.109	0.090
-432.676	119.041	-0.127	-0.157
-431.661	173.438	0.031	-0.045
-430.646	-166.946	-0.170	-0.007
-429.632	346.332	0.096	-0.188
-428.617	30.995	-0.128	-0.109
-427.603	-79.788	-0.061	0.021
-426.588	-200.000	-0.016	0.071
-425.573	51.805	-0.100	-0.095
-424.559	-13.590	-0.106	-0.069
-423.544	800.000	0.048	0.183
-422.530	551.362	-0.087	0.209
-421.515	82.448	-0.271	-0.294
-420.500	-59.154	0.254	0.109
-419.486	456.267	-0.114	0.252
-418.471	786.891	-0.045	-0.123
-417.457	-200.000	0.040	-0.310
-416.442	800.000	-0.026	-0.090
-415.428	-20.658	-0.077	0.047
-414.413	104.042	0.189	-0.222
-413.398	-200.000	-0.016	-0.188
-412.384	-95.308	-0.069	-0.019
-411.369	101.970	-0.077	0.090
-410.355	305.129	0.093	-0.172
-409.340	-105.727	0.219	-0.049
-408.325	-138.799	0.324	-0.035
-407.311	-149.398	0.383	0.030
-406.296	393.105	-0.170	0.352
-405.282	150.020	-0.054	-0.073
-404.267	-200.000	-0.045	0.340
-403.252	183.882	0.179	-0.265
-402.238	551.361	-0.104	-0.249
-401.223	800.000	-0.034	-0.098
-400.209	-93.544	0.184	-0.051
-399.194	800.000	0.113	-0.443
-398.179	55.755	0.017	0.017
-397.165	-151.693	-0.294	-0.022
-396.150	-89.321	0.177	-0.052
-395.136	800.000	0.092	0.264
-394.121	-17.681	0.183	-0.115
-393.106	-200.000	0.072	0.573
-392.092	-120.400	0.355	-0.060
-391.077	332.125	0.101	-0.194
-390.063	110.131	0.067	0.081
-389.048	-3.009	-0.218	-0.152
-388.033	-9.699	-0.112	0.075
-387.019	-58.465	-0.078	-0.034
-386.004	551.662	0.094	-0.225
-384.990	260.308	0.038	0.066
-383.975	-200.000	-0.046	-0.372
-382.960	-200.000	0.038	0.197
-381.946	800.000	-0.088	0.335
-380.931	184.767	0.069	-0.102
-379.917	86.993	0.212	-0.234
-378.902	-200.000	0.296	-0.001
-377.888	800.000	-0.103	-0.443
-376.873	-109.964	-0.220	0.046
-375.858	642.803	-0.042	0.107
-374.844	-176.670	0.274	0.007
-373.829	800.000	0.024	0.090
-372.815	129.739	0.064	0.081
-371.800	-72.940	0.230	-0.084
-370.785	8.294	-0.188	-0.141
-369.771	-133.005	-0.145	-0.018
-368.756	-91.373	0.134	-0.038
-367.742	478.193	0.050	0.112
-366.727	-47.929	-0.104	0.050
-365.712	-200.000	0.005	0.043
-364.698	60.156	-0.095	-0.093
-363.683	-200.000	-0.030	-0.216
-362.669	110.721	0.195	0.234
-361.654	175.232	-0.104	-0.150
-360.639	306.827	-0.181	-0.336
-359.625	625.585	0.080	0.201
-358.610	-74.004	-0.113	-0.041
-357.596	7.690	0.232	-0.174
-356.581	106.764	0.093	-0.110
-355.566	276.382	0.099	0.175
-354.552	586.570	-0.010	-0.024
-353.537	800.000	0.097	0.389
-352.523	-118.281	0.075	0.013
-351.508	-101.225	0.183	-0.044
-350.493	402.080	0.018	0.039
-349.479	550.514	-0.092	0.220
-348.464	-9.886	0.094	0.062
-347.450	800.000	0.053	0.153
-346.435	74.360	0.142	0.148
-345.420	145.127	0.170	-0.227
-344.406	800.000	-0.083	0.267
-343.391	144.692	-0.023	-0.031
-342.377	602.075	-0.101	0.251
-341.362	800.000	0.137	0.388
-340.348	800.000	-0.030	0.082
-339.333	385.614	-0.127	0.261
-338.318	-200.000	0.017	0.172
-337.304	97.929	0.137	-0.158
-336.289	196.441	-0.257	-0.389
-335.275	34.061	-0.164	-0.142
-334.260	-112.783	0.107	0.021
-333.245	681.223	-0.034	0.088
-332.231	368.336	0.047	-0.095
-331.216	-200.000	-0.054	0.326
-330.202	221.520	-0.111	-0.178
-329.187	-95.645	0.264	-0.070
-328.172	133.889	-0.205	0.264
-327.158	44.564	-0.163	0.149
-326.143	-97.403	-0.057	0.015
-325.129	800.000	-0.052	0.169
-324.114	153.456	-0.095	0.130
-323.099	-200.000	0.024	0.235
-322.085	-7.205	-0.183	0.123
-321.070	143.560	0.148	0.196
-320.056	583.285	0.096	0.234
-319.041	-54.466	-0.219	0.099
-318.026	5.294	0.108	-0.079
-317.012	-171.227	-0.465	-0.016
-315.997	196.726	-0.154	0.234
-314.983	-150.286	0.094	0.007
-313.968	-65.078	-0.061	-0.025
-312.953	-171.181	-0.247	0.008
-311.939	-137.438	-0.124	0.014
-310.924	100.001	0.046	-0.053
-309.910	800.000	-0.042	0.177
-308.895	-81.888	0.474	0.155
-307.880	160.040	-0.313	-0.433
-306.866	-200.000	0.033	0.216
-305.851	-29.810	-0.208	-0.118
-304.837	-200.000	0.030	-0.150
-303.822	64.729	-0.142	0.143
-302.807	101.096	-0.107	-0.124
-301.793	-54.540	0.025	-0.011
-300.778	92.563	-0.206	0.231
-299.764	-41.707	0.085	-0.043
-298.749	-14.539	0.386	0.247
-297.735	-200.000	-0.016	0.179
-296.720	-4.523	-0.139	-0.096
-295.705	-100.615	0.263	0.065
-294.691	-75.461	-0.217	-0.077
-293.676	800.000	-0.012	-0.046
-292.662	478.576	-0.079	-0.177
-291.647	-2.227	-0.308	-0.215
-290.632	800.000	0.091	0.266
-289.618	44.484	0.189	0.172
-288.603	194.404	0.061	-0.091
-287.589	-60.803	0.070	0.030
-286.574	-200.000	0.019	-0.244
-285.559	-89.209	0.242	0.071
-284.545	-15.355	-0.152	0.097
-283.530	-160.285	0.114	0.006
-282.516	-27.745	-0.108	-0.062
-281.501	-200.000	0.007	0.279
-280.486	-123.852	-0.217	-0.034
-279.472	-21.385	-0.038	-0.023
-278.457	800.000	-0.024	0.099
-277.443	-84.637	-0.334	-0.105
-276.428	-155.478	0.210	-0.014
-275.413	-57.573	-0.025	0.011
-274.399	-98.128	-0.363	-0.093
-273.384	-54.548	0.116	-0.052
-272.370	-34.376	-0.133	0.073
-271.355	94.684	-0.164	-0.185
-270.340	54.327	-0.227	0.217
-269.326	-200.000	-0.068	0.355
-268.311	-11.681	-0.059	0.038
-267.297	36.976	0.243	-0.213
-266.282	452.630	0.260	-0.572
-265.267	-31.475	0.345	-0.193
-264.253	110.809	-0.182	-0.218
-263.238	-97.658	-0.250	0.064
-262.224	-48.332	-0.245	-0.117
-261.209	-200.000	-0.024	0.178
-260.195	484.539	0.025	0.057
-259.180	283.122	0.155	0.276
-258.165	664.998	-0.092	0.236
-257.151	-200.000	0.019	0.153
-256.136	-189.606	0.064	0.001
-255.122	-69.595	-0.077	-0.029
-254.107	-22.971	0.059	-0.035
-253.092	-90.665	0.098	0.028
-252.078	13.359	-0.118	0.091
-251.063	-200.000	-0.206	-0.001
-250.049	-95.092	0.221	-0.059
-249.034	313.900	-0.076	-0.142
-248.019	-38.638	-0.156	-0.082
-247.005	-200.000	0.030	-0.221
-245.990	-68.142	0.280	0.108
-244.976	34.208	0.086	-0.075
-243.961	-200.000	-0.004	-0.111
-242.946	77.483	0.224	0.237
-241.932	-200.000	-0.031	-0.160
-240.917	390.296	-0.124	0.255
-239.903	-24.825	-0.342	0.202
-238.888	187.775	0.102	0.151
-237.873	140.158	-0.120	-0.158
-236.859	321.038	-0.105	0.197
-235.844	800.000	-0.088	0.375
-234.830	-200.000	-0.008	0.048
-233.815	-200.000	0.026	0.126
-232.800	-29.984	0.331	-0.187
-231.786	800.000	0.034	-0.142
-230.771	89.819	-0.220	0.243
-229.757	696.935	0.065	0.170
-228.742	258.232	-0.157	0.268
-227.727	800.000	-0.054	-0.179
-226.713	-102.128	-0.240	0.057
-225.698	-52.739	0.190	0.087
-224.684	-48.166	-0.144	-0.069
-223.669	-55.666	-0.174	-0.077
-222.655	-86.079	0.316	0.097
-221.640	1.386	0.137	0.098
-220.625	-47.370	0.096	-0.046
-219.611	80.049	0.030	0.032
-218.596	109.709	0.069	0.082
-217.582	209.550	0.174	0.270
-216.567	-51.302	0.185	-0.086
-215.552	-200.000	0.059	0.391
-214.538	115.067	0.100	0.121
-213.523	66.779	0.105	-0.106
-212.509	-31.687	-0.131	0.073
-211.494	-106.324	-0.352	0.078
-210.479	-200.000	-0.005	0.246
-209.465	-4.173	-0.191	0.131
-208.450	-67.562	-0.163	0.063
-207.436	800.000	-0.086	0.338
-206.421	-155.106	0.258	-0.017
-205.406	-90.166	-0.102	0.029
-204.392	239.371	0.142	0.234
-203.377	70.285	0.139	0.142
-202.363	106.314	-0.128	0.150
-201.348	200.108	0.130	0.197
-200.333	30.625	0.254	0.215
-199.319	-52.783	-0.133	0.061
-198.304	54.032	-0.175	-0.167
-197.290	-126.268	-0.312	-0.046
-196.275	-200.000	-0.063	-0.363
-195.260	-107.739	-0.306	0.066
-194.246	14.888	0.231	0.179
-193.231	-200.000	-0.025	-0.154
-192.217	800.000	-0.058	0.229
-191.202	286.600	-0.108	-0.194
-190.187	-59.643	0.338	-0.143
-189.173	-97.099	0.463	-0.120
-188.158	0.193	0.143	0.101
-187.144	-200.000	0.042	0.363
-186.129	15.675	-0.182	-0.142
-185.114	-129.097	-0.081	0.011
-184.100	-200.000	0.020	-0.107
-183.085	-35.954	-0.296	-0.159
-182.071	-200.000	0.004	-0.062
-181.056	800.000	-0.086	-0.293
-180.042	152.800	-0.146	0.198
-179.027	-160.963	0.174	0.009
-178.012	135.284	0.065	0.083
-176.998	-200.000	0.045	-0.217
-175.983	261.080	0.136	0.233
-174.969	553.193	0.058	0.138
-173.954	383.594	-0.105	-0.213
-172.939	-98.494	0.095	0.024
-171.925	171.894	0.131	-0.186
-170.910	-55.684	-0.153	0.068
-169.896	114.527	0.023	-0.027
-168.881	153.598	0.096	0.130
-167.866	670.680	0.142	-0.363
-166.852	72.435	-0.112	-0.116
-165.837	-0.148	-0.101	0.071
-164.823	632.165	-0.140	0.352
-163.808	291.219	-0.167	0.300
-162.793	-87.985	0.230	-0.068
-161.779	349.665	0.108	0.210
-160.764	800.000	0.064	0.226
-159.750	-35.433	-0.254	0.137
-158.735	78.691	0.129	-0.137
-157.720	37.441	-0.378	-0.331
-156.706	12.940	-0.190	-0.145
-155.691	-64.571	0.311	0.125
-154.677	-52.368	0.176	0.081
-153.662	-200.000	0.027	-0.226
-152.647	149.134	0.201	-0.268
-151.633	140.071	0.144	0.188
-150.618	-200.000	0.004	0.143
-149.604	-137.881	-0.385	-0.043
-148.589	-135.538	-0.256	0.030
-147.574	142.064	-0.201	-0.264
-146.560	68.548	-0.293	0.297
-145.545	-26.129	-0.235	0.136
-144.531	-151.570	0.108	-0.008
-143.516	-147.110	0.153	0.013
-142.502	109.047	0.257	-0.304
-141.487	-200.000	0.028	0.177
-140.472	100.060	0.059	0.068
-139.458	-91.161	-0.342	-0.097
-138.443	-31.284	-0.141	-0.079
-137.429	2.892	-0.134	0.096
-136.414	505.923	0.049	0.112
-135.399	308.359	0.065	-0.119
-134.385	-200.000	0.001	0.201
-133.370	-200.000	0.004	-0.226
-132.356	-24.227	-0.325	-0.192
-131.341	6.378	-0.269	0.197
-130.326	200.997	-0.062	0.094
-129.312	75.116	0.429	0.447
-128.297	181.555	0.070	-0.102
-127.283	-23.656	-0.297	0.176
-126.268	-25.095	-0.322	-0.189
-125.253	-78.390	-0.054	0.018
-124.239	-200.000	-0.041	0.196
-123.224	800.000	-0.094	-0.313
-122.210	-165.221	0.493	-0.022
-121.195	-92.319	-0.111	0.031
-120.180	-110.763	0.084	-0.017
-119.166	-118.961	0.186	-0.032
-118.151	-69.329	-0.238	0.090
-117.137	-200.000	-0.043	-0.306
-116.122	-200.000	0.039	-0.262
-115.107	22.274	0.351	0.283
-114.093	-71.666	0.097	-0.036
-113.078	44.341	-0.355	-0.322
-112.064	-104.433	0.159	-0.036
-111.049	271.150	0.070	-0.122
-110.034	-133.405	-0.169	-0.021
-109.020	-200.000	-0.051	-0.336
-108.005	-42.095	0.313	-0.158
-106.991	93.797	0.183	-0.205
-105.976	-36.954	0.179	-0.095
-104.962	154.701	0.142	0.193
-103.947	-72.537	0.239	0.087
-102.932	-200.000	-0.003	0.030
-101.918	800.000	0.041	-0.132
-100.903	10.697	0.157	0.118
-99.889	-38.484	-0.419	0.218
-98.874	800.000	0.058	0.212
-97.859	93.247	-0.157	-0.175
-96.845	91.166	0.217	0.240
-95.830	83.197	0.123	-0.132
-94.816	103.030	-0.052	-0.060
-93.801	307.014	-0.106	0.195
-92.786	-169.621	-0.235	-0.008
-91.772	-104.096	0.161	-0.037
-90.757	334.854	-0.079	0.151
-89.743	-200.000	0.010	-0.116
-88.728	12.222	0.113	0.086
-87.713	-166.679	0.148	0.006
-86.699	602.230	-0.082	0.202
-85.684	-27.618	0.120	0.069
-84.670	-200.000	-0.006	-0.212
-83.655	480.327	0.091	-0.203
-82.640	5.471	-0.218	-0.159
-81.626	296.240	0.066	0.119
-80.611	-200.000	-0.002	-0.060
-79.597	-182.002	0.255	-0.005
-78.582	-106.726	0.409	-0.090
-77.567	35.871	-0.050	0.043
-76.553	77.719	0.093	-0.098
-75.538	-200.000	0.015	0.222
-74.524	8.932	-0.026	0.020
-73.509	800.000	-0.085	0.234
-72.494	-65.010	-0.055	0.022
-71.480	628.175	-0.067	-0.167
-70.465	-57.311	0.241	0.104
-69.451	-78.249	0.117	-0.040
-68.436	58.562	-0.160	-0.155
-67.422	46.883	0.180	0.165
-66.407	800.000	0.080	-0.232
-65.392	-156.003	0.195	-0.012
-64.378	-139.396	0.336	-0.036
-63.363	-149.235	-0.219	-0.017
-62.349	-63.458	-0.382	0.155
-61.334	17.101	-1.027	-0.802
-60.319	306.717	0.232	0.426
-59.305	-200.000	-0.059	-0.751
-58.290	326.870	0.386	0.730
-57.276	800.000	0.368	1.413
-56.261	-200.000	95.901	537.037
-55.246	587.861	1382.789	3354.523
-54.232	184.640	2629.611	3839.641
-53.217	112.194	2328.473	2773.007
-52.203	43.883	1938.146	1748.828
-51.188	37.800	1721.872	1506.761
-50.173	34.953	1675.996	1445.093
-49.159	51.126	1724.984	1611.672
-48.144	54.379	1741.863	1652.294
-47.130	37.355	1698.645	1482.809
-46.115	34.454	1683.252	1447.337
-45.100	34.347	1678.492	1442.374
-44.086	34.167	1676.411	1439.170
-43.071	34.259	1673.564	1437.357
-42.057	34.195	1670.982	1434.604
-41.042	34.225	1668.500	1432.638
-40.027	34.252	1666.656	1431.202
-39.013	34.241	1664.616	1429.315
-37.998	34.172	1663.391	1427.691
-36.984	34.249	1661.889	1426.921
-35.969	34.438	1659.915	1426.585
-34.954	34.477	1658.713	1425.785
-33.940	34.474	1656.475	1423.781
-32.925	34.371	1654.679	1421.413
-31.911	34.424	1653.440	1420.682
-30.896	34.378	1651.976	1419.032
-29.881	34.480	1649.519	1417.620
-28.867	34.455	1648.382	1416.404
-27.852	34.431	1646.613	1414.648
-26.838	34.465	1645.194	1413.622
-25.823	34.452	1644.368	1412.763
-24.809	34.363	1643.315	1411.145
-23.794	34.437	1641.687	1410.234
-22.779	34.438	1639.711	1408.492
-21.765	34.431	1637.897	1406.825
-20.750	34.452	1636.164	1405.436
-19.736	34.400	1634.949	1403.956
-18.721	34.484	1633.209	1403.019
-17.706	34.435	1632.064	1401.617
-16.692	34.455	1630.242	1400.147
-15.677	34.406	1629.256	1398.883
-14.663	34.495	1627.451	1397.929
-13.648	34.581	1626.337	1397.549
-12.633	34.486	1624.354	1395.097
-11.619	34.409	1623.052	1393.356
-10.604	34.535	1621.164	1392.606
-9.590	34.359	1620.445	1390.647
-8.575	34.430	1619.167	1390.009
-7.560	34.467	1617.318	1388.636
-6.546	34.507	1616.375	1388.065
-5.531	34.512	1615.347	1387.163
-4.517	34.488	1614.018	1385.789
-3.502	34.472	1612.943	1384.699
-2.487	34.550	1611.277	1383.780
-1.473	34.395	1599.905	1372.842
-0.458	32.030	1580.932	1339.651
0.556	26.839	1581.452	1309.351
1.571	24.698	1606.882	1314.558
2.586	24.119	1620.585	1321.362
3.600	20.928	1565.541	1253.454
4.615	10.691	1449.893	1092.227
5.629	1.699	1381.586	982.825
6.644	0.308	1372.585	967.408
7.659	0.073	1371.768	965.242
8.673	0.013	1370.538	963.906
9.688	-0.004	1368.388	962.201
10.702	-0.305	1365.991	958.505
11.717	3.058	1372.650	984.659
12.731	13.177	1392.462	1064.248
13.746	21.272	1405.902	1126.860
14.761	23.014	1407.623	1139.383
15.775	23.045	1407.849	1139.660
16.790	23.223	1407.563	1140.479
17.804	23.337	1406.647	1140.366
18.819	23.485	1406.461	1141.068
19.834	23.626	1405.944	1141.457
20.848	23.612	1404.935	1140.448
21.863	23.624	1403.821	1139.516
22.877	23.630	1403.281	1139.016
23.892	23.641	1402.224	1138.126
24.907	23.652	1401.097	1137.186
25.921	23.620	1400.284	1136.217
26.936	23.678	1399.099	1135.529
27.950	23.601	1398.251	1134.247
28.965	23.657	1397.088	1133.561
29.980	23.638	1395.526	1132.069
30.994	23.679	1394.265	1131.207
32.009	23.627	1393.104	1129.836
33.023	23.611	1392.138	1128.851
34.038	23.664	1391.225	1128.348
35.053	23.582	1390.001	1126.737
36.067	23.620	1389.057	1126.113
37.082	23.617	1388.080	1125.199
38.096	23.522	1387.245	1123.823
39.111	23.473	1386.882	1123.115
40.126	23.646	1385.337	1122.860
41.140	23.453	1385.377	1121.573
42.155	23.613	1384.769	1121.992
43.169	23.602	1384.928	1121.954
44.184	23.560	1384.604	1121.325
45.199	23.582	1383.814	1120.724
46.213	23.518	1383.988	1120.362
47.228	23.626	1382.199	1119.497
48.242	23.620	1380.984	1118.375
49.257	23.581	1379.826	1117.094
50.271	23.635	1378.367	1116.157
51.286	23.580	1376.904	1114.526
52.301	23.611	1375.636	1113.596
53.315	23.644	1374.749	1112.985
54.330	23.525	1374.541	1111.974
55.344	23.613	1372.479	1110.756
56.359	23.566	1371.901	1109.897
57.374	23.628	1370.994	1109.451
58.388	23.557	1370.620	1108.607
59.403	23.645	1369.951	1108.521
60.417	23.532	1369.377	1107.252
61.432	23.520	1368.545	1106.407
62.447	23.705	1367.427	1106.557
63.461	23.602	1366.749	1105.269
64.476	23.502	1365.885	1103.850
65.490	23.689	1364.015	1103.402
66.505	23.659	1362.674	1102.033
67.520	23.635	1361.364	1100.731
68.534	23.571	1360.980	1099.925
69.549	23.692	1359.763	1099.593
70.563	23.639	1358.712	1098.314
71.578	23.628	1357.629	1097.278
72.593	23.533	1356.938	1096.032
73.607	23.593	1356.427	1095.895
74.622	23.629	1355.170	1095.002
75.636	23.650	1354.589	1094.570
76.651	23.536	1354.268	1093.507
77.666	23.672	1353.777	1093.854
78.680	23.482	1353.222	1092.138
79.695	23.580	1351.869	1091.550
80.709	23.620	1351.461	1091.370
81.724	23.565	1350.427	1090.101
82.739	23.564	1349.306	1089.094
83.753	23.639	1348.241	1088.598
84.768	23.696	1347.002	1087.852
85.782	23.545	1346.346	1086.300
86.797	23.628	1344.926	1085.564
87.812	23.625	1343.855	1084.587
88.826	23.540	1343.212	1083.455
89.841	23.693	1341.914	1083.243
90.855	23.623	1340.875	1081.881
91.870	23.728	1339.611	1081.409
92.884	23.718	1339.299	1081.001
93.899	23.673	1338.505	1079.987
94.914	23.651	1337.482	1078.932
95.928	23.633	1336.786	1078.166
96.943	23.729	1336.491	1078.417
97.957	23.700	1335.145	1077.062
98.972	23.724	1334.029	1076.210
99.987	23.682	1333.643	1075.547
101.001	23.552	1332.636	1073.855
102.016	23.654	1331.535	1073.491
103.030	23.668	1330.534	1072.670
104.045	23.677	1330.117	1072.293
105.060	23.693	1328.895	1071.309
106.074	23.640	1328.054	1070.221
107.089	23.746	1326.405	1069.432
108.103	23.661	1325.884	1068.405
109.118	23.715	1324.478	1067.506
110.133	23.661	1323.761	1066.506
111.147	23.774	1322.033	1065.700
112.162	23.699	1321.061	1064.371
113.176	23.692	1320.097	1063.462
114.191	23.728	1319.346	1062.974
115.206	23.787	1317.856	1062.036
116.220	23.734	1316.711	1060.702
117.235	23.758	1315.621	1059.875
118.249	23.676	1315.402	1059.114
119.264	23.843	1313.944	1058.840
120.279	23.859	1313.436	1058.431
121.293	23.827	1312.042	1057.025
122.308	23.708	1311.939	1056.139
123.322	23.704	1310.975	1055.248
124.337	23.724	1310.070	1054.541
125.352	23.902	1308.848	1054.525
126.366	23.800	1307.777	1052.962
127.381	23.770	1307.036	1052.096
128.395	23.820	1306.057	1051.508
129.410	23.700	1305.606	1050.341
130.424	23.811	1305.062	1050.468
131.439	23.772	1304.031	1049.318
132.454	23.736	1303.054	1048.224
133.468	23.805	1302.123	1047.790
134.483	23.744	1302.208	1047.407
135.497	23.782	1301.056	1046.608
136.512	23.826	1299.610	1045.610
137.527	23.806	1298.664	1044.641
138.541	23.804	1297.116	1043.292
139.556	23.802	1296.163	1042.420
140.570	23.814	1295.113	1041.557
141.585	23.748	1294.246	1040.382
142.600	23.808	1292.846	1039.513
143.614	23.816	1292.247	1038.989
144.629	23.722	1291.478	1037.730
145.643	23.744	1289.914	1036.507
146.658	23.592	1289.193	1034.949
147.673	23.729	1288.285	1034.928
148.687	23.578	1287.282	1033.150
149.702	23.716	1285.991	1032.826
150.716	23.555	1285.180	1031.147
151.731	23.803	1283.720	1031.326
152.746	23.732	1283.062	1030.291
153.760	23.771	1281.803	1029.414
154.775	23.685	1281.087	1028.255
155.789	23.661	1280.105	1027.236
156.804	23.641	1279.414	1026.474
157.819	23.792	1278.197	1026.276
158.833	23.789	1277.171	1025.346
159.848	23.812	1276.966	1025.225
160.862	23.788	1276.344	1024.496
161.877	23.869	1275.149	1023.912
162.892	23.821	1274.418	1022.956
163.906	23.870	1273.835	1022.682
164.921	23.842	1272.904	1021.684
165.935	23.841	1272.181	1021.004
166.950	23.982	1271.381	1021.085
167.964	23.811	1270.895	1019.620
168.979	23.778	1270.489	1019.019
169.994	23.836	1269.999	1018.867
171.008	23.963	1268.403	1018.221
172.023	23.925	1268.091	1017.663
173.037	23.915	1267.545	1017.079
174.052	23.964	1266.628	1016.535
175.067	23.834	1266.631	1015.702
176.081	23.916	1265.310	1015.020
177.096	23.919	1264.346	1014.175
178.110	23.829	1263.963	1013.266
179.125	23.853	1262.325	1011.999
180.140	23.941	1261.287	1011.580
181.154	23.979	1259.896	1010.589
182.169	23.850	1259.564	1009.502
183.183	23.743	1258.909	1008.281
184.198	23.888	1257.460	1007.851
185.213	23.955	1256.375	1007.274
186.227	23.927	1255.903	1006.644
187.242	23.969	1254.562	1005.717
188.256	23.984	1254.102	1005.349
189.271	23.899	1253.165	1004.026
190.286	23.987	1252.138	1003.613
191.300	23.901	1252.053	1002.971
192.315	23.925	1251.396	1002.489
193.329	24.052	1250.704	1002.563
194.344	24.022	1249.883	1001.643
195.359	23.983	1249.625	1001.132
196.373	23.880	1249.322	1000.218
197.388	23.920	1248.651	999.821
198.402	23.860	1248.574	999.329
199.417	23.904	1247.903	998.955
200.432	23.855	1247.554	998.312
201.446	23.959	1246.476	997.942
202.461	23.884	1246.069	997.106
203.475	23.892	1245.124	996.311
204.490	23.944	1244.140	995.723
205.504	23.983	1242.907	994.868
206.519	23.969	1242.329	994.238
207.534	24.005	1240.875	993.190
208.548	23.984	1240.074	992.344
209.563	24.008	1239.296	991.763
210.577	23.928	1238.637	990.705
211.592	24.078	1237.786	990.773
212.607	23.999	1237.272	989.830
213.621	24.086	1236.360	989.500
214.636	24.057	1235.550	988.603
215.650	24.098	1234.931	988.245
216.665	24.114	1233.535	987.133
217.680	24.115	1232.853	986.506
218.694	24.207	1232.315	986.497
219.709	24.090	1231.468	985.082
220.723	24.154	1230.640	984.688
221.738	24.022	1229.634	983.064
222.753	24.082	1228.975	982.782
223.767	24.114	1228.742	982.688
224.782	24.077	1228.295	982.037
225.796	24.148	1227.762	981.918
226.811	24.175	1227.084	981.436
227.826	24.155	1226.638	980.882
228.840	24.257	1225.610	980.532
229.855	24.126	1225.324	979.499
230.869	24.094	1224.583	978.644
231.884	24.127	1223.474	977.854
232.899	24.152	1223.375	977.822
233.913	24.205	1222.474	977.305
234.928	24.306	1221.714	977.168
235.942	24.205	1221.259	976.165
236.957	24.224	1220.425	975.514
237.972	24.215	1219.545	974.677
238.986	24.095	1219.611	973.986
240.001	24.301	1218.371	974.036
241.015	24.356	1217.549	973.593
242.030	24.381	1216.834	973.072
243.045	24.331	1216.112	972.132
244.059	24.483	1215.028	972.007
245.074	24.450	1214.557	971.364
246.088	24.362	1213.869	970.249
247.103	24.322	1212.946	969.212
248.117	24.384	1212.144	968.821
249.132	24.388	1211.286	968.070
250.147	24.364	1210.760	967.434
251.161	24.538	1210.059	967.731
252.176	24.402	1209.656	966.589
253.190	24.455	1208.492	965.860
254.205	24.458	1208.109	965.484
255.220	24.424	1207.737	964.914
256.234	24.487	1206.934	964.530
257.249	24.456	1206.379	963.831
258.263	24.398	1206.116	963.223
259.278	24.559	1205.233	963.302
260.293	24.499	1204.846	962.583
261.307	24.465	1204.318	961.897
262.322	24.472	1203.628	961.297
263.336	24.482	1203.004	960.767
264.351	24.492	1202.614	960.423
265.366	24.383	1201.853	959.146
266.380	24.526	1201.036	959.177
267.395	24.483	1199.924	957.975
268.409	24.526	1199.291	957.613
269.424	24.529	1199.102	957.396
270.439	24.605	1198.346	957.114
271.453	24.502	1197.906	956.126
272.468	24.503	1197.242	955.517
273.482	24.417	1196.485	954.367
274.497	24.412	1196.516	954.282
275.512	24.606	1195.652	954.543
276.526	24.588	1194.578	953.505
277.541	24.527	1194.022	952.654
278.555	24.568	1193.298	952.208
279.570	24.727	1192.312	952.184
280.585	24.626	1191.788	951.146
281.599	24.610	1191.076	950.404
282.614	24.641	1190.248	949.828
283.628	24.600	1189.082	948.596
284.643	24.669	1188.244	948.206
285.657	24.655	1187.203	947.218
286.672	24.736	1186.431	946.949
287.687	24.593	1186.010	945.774
288.701	24.663	1185.440	945.604
289.716	24.641	1184.873	944.953
290.730	24.762	1183.657	944.539
291.745	24.681	1183.458	943.868
292.760	24.686	1182.999	943.445
293.774	24.741	1182.724	943.431
294.789	24.775	1181.436	942.500
295.803	24.725	1181.193	941.957
296.818	24.763	1180.466	941.493
297.833	24.773	1179.850	940.976
298.847	24.925	1178.400	940.534
299.862	24.838	1178.266	939.885
300.876	24.708	1177.959	938.875
301.891	24.803	1176.964	938.497
302.906	24.911	1176.337	938.482
303.920	24.983	1175.560	938.154
304.935	24.784	1175.490	936.973
305.949	24.893	1174.109	936.359
306.964	24.826	1173.774	935.660
307.979	24.891	1172.966	935.273
308.993	24.933	1172.454	934.998
310.008	24.916	1171.467	934.044
311.022	24.892	1170.845	933.338
312.037	24.996	1170.136	933.234
313.052	24.846	1169.566	931.916
314.066	24.895	1168.742	931.427
315.081	24.894	1167.918	930.685
316.095	24.823	1167.364	929.790
317.110	24.884	1166.795	929.574
318.125	25.025	1165.745	929.386
319.139	25.079	1164.892	928.906
320.154	25.061	1164.469	928.391
321.168	25.054	1164.063	927.948
322.183	24.954	1163.535	926.927
323.197	25.013	1163.175	926.864
324.212	25.010	1162.139	925.943
325.227	25.022	1161.568	925.465
326.241	25.046	1161.476	925.437
327.256	25.154	1160.417	925.070
328.270	25.030	1159.758	923.819
329.285	25.033	1159.105	923.232
330.300	25.068	1158.174	922.591
331.314	25.085	1157.589	922.133
332.329	25.000	1156.635	920.851
333.343	25.098	1155.839	920.643
334.358	25.176	1155.030	920.315
335.373	25.154	1154.489	919.690
336.387	25.248	1153.305	919.149
337.402	25.323	1152.649	918.926
338.416	25.296	1152.255	918.395
339.431	25.157	1151.712	917.166
340.446	25.289	1151.278	917.418
341.460	25.247	1150.700	916.660
342.475	25.282	1149.605	915.888
343.489	25.345	1148.748	915.444
344.504	25.288	1148.043	914.508
345.519	25.339	1146.988	913.847
346.533	25.332	1146.241	913.135
347.548	25.359	1145.890	912.914
348.562	25.246	1144.899	911.470
349.577	25.394	1144.218	911.595
350.592	25.303	1143.266	910.297
351.606	25.262	1142.608	909.484
352.621	25.302	1142.622	909.619
353.635	25.262	1141.783	908.669
354.650	25.320	1141.177	908.395
355.665	25.451	1140.239	908.232
356.679	25.489	1139.577	907.819
357.694	25.406	1139.266	907.073
358.708	25.451	1138.571	906.662
359.723	25.349	1137.952	905.576
360.738	25.373	1137.243	905.052
361.752	25.415	1136.762	904.798
362.767	25.403	1136.510	904.461
363.781	25.424	1135.804	903.922
364.796	25.506	1135.226	903.797
365.810	25.488	1134.220	902.827
366.825	25.532	1133.769	902.607
367.840	25.598	1133.491	902.638
368.854	25.656	1132.654	902.182
369.869	25.596	1132.003	901.284
370.883	25.600	1130.689	900.174
371.898	25.591	1130.238	899.692
372.913	25.621	1129.578	899.239
373.927	25.594	1129.215	898.734
374.942	25.749	1128.687	899.011
375.956	25.646	1128.330	898.130
376.971	25.615	1127.935	897.580
377.986	25.616	1127.236	896.949
379.000	25.735	1126.505	896.883
380.015	25.786	1125.854	896.539
381.029	25.709	1125.551	895.834
382.044	25.701	1124.727	895.060
383.059	25.666	1124.448	894.585
384.073	25.765	1123.290	894.079
385.088	25.710	1122.240	892.888
386.102	25.814	1121.782	892.962
387.117	25.834	1120.619	892.057
388.132	25.720	1119.866	890.810
389.146	25.730	1119.653	890.615
390.161	25.738	1118.900	889.976
391.175	25.725	1118.307	889.361
392.190	25.812	1117.594	889.142
393.205	25.771	1116.800	888.232
394.219	25.839	1115.702	887.614
395.234	25.840	1115.257	887.187
396.248	25.876	1114.111	886.374
397.263	25.798	1113.792	885.657
398.278	25.825	1113.367	885.374
399.292	25.887	1112.615	885.002
400.307	25.885	1111.831	884.290
401.321	25.932	1111.156	883.910
402.336	25.965	1110.235	883.257
403.350	25.963	1109.586	882.654
404.365	26.005	1108.745	882.110
405.380	26.007	1108.115	881.545
406.394	25.968	1107.311	880.635
407.409	26.003	1107.061	880.528
408.423	25.976	1106.127	879.578
409.438	26.131	1105.179	879.499
410.453	26.009	1104.693	878.442
411.467	26.029	1104.114	878.000
412.482	26.148	1103.139	877.724
413.496	26.146	1102.453	877.094
414.511	26.058	1101.892	876.142
415.526	26.180	1101.480	876.327
416.540	26.115	1101.366	875.847
417.555	26.111	1100.679	875.202
418.569	26.035	1100.434	874.562
419.584	26.144	1099.964	874.637
420.599	26.054	1099.723	873.934
421.613	146.340	1402.114	1792.546
422.628	135.700	1446.140	1792.624
