DTS Sentinel unit serial number:	SN413079Multiplexer serial number:	ORYXHardware model number:	OX4-SRSoftware version number:	ORYX F/W v4.00 Oryx Data Collector v3.7.2.0data status	okinstallation	princeton_trtdifferential loss correction	single-endedforward channel	channel 2reverse channel	N/Adate	2019/09/14time	11:07:34forward acquisition time	60.00reverse acquisition time	0.00gamma	496.2192k internal	0.2312k external	0.2312temperature offset calibration	1.0148default loss term (dB/km)	0.3790temperature slope calibration	1.0000multiplexer offset coefficient	1.0000multiplexer slope coefficient	1.0000fibre end	0.00T internal ref (°C)	36.30T ext. ref 1 (°C)	4.43T ext. ref 2 (°C)	34.12length (m)	temperature (°C)	Stokes	anti-Stokes-747.200	800.000	-0.056	-0.217
-746.185	800.000	-0.047	0.203
-745.171	-10.353	0.237	-0.160
-744.156	-24.792	-0.215	0.130
-743.142	-164.901	0.606	0.028
-742.127	104.800	-0.344	0.412
-741.112	-118.163	-0.155	-0.028
-740.098	250.349	-0.275	0.473
-739.083	-29.296	0.102	-0.059
-738.069	-158.321	-0.115	0.007
-737.054	49.217	-0.246	-0.235
-736.039	-106.137	-0.116	0.027
-735.025	211.973	-0.037	0.060
-734.010	-177.966	-0.393	-0.010
-732.996	-12.955	-0.185	0.122
-731.981	142.428	0.067	-0.090
-730.966	153.663	0.209	-0.290
-729.952	-27.535	-0.144	0.085
-728.937	-41.002	-0.253	0.133
-727.923	92.247	-0.164	0.187
-726.908	14.162	-0.084	-0.067
-725.894	800.000	0.076	-0.320
-724.879	-7.265	0.126	-0.087
-723.864	64.170	-0.359	-0.367
-722.850	-200.000	-0.054	-0.312
-721.835	15.147	0.222	-0.176
-720.821	210.191	-0.135	-0.215
-719.806	-48.288	-0.124	-0.061
-718.791	181.492	-0.185	-0.276
-717.777	-110.469	-0.353	0.074
-716.762	-200.000	-0.023	-0.245
-715.748	-179.766	-0.351	0.008
-714.733	48.719	0.211	-0.200
-713.718	-200.000	-0.011	-0.123
-712.704	330.587	0.021	0.041
-711.689	295.653	-0.055	0.102
-710.675	120.847	0.050	-0.064
-709.660	-200.000	0.026	0.273
-708.645	800.000	-0.044	-0.139
-707.631	-1.675	0.357	-0.255
-706.616	90.688	0.115	-0.130
-705.602	-139.083	-0.380	0.042
-704.587	-200.000	-0.016	-0.344
-703.572	-151.837	-0.105	0.008
-702.558	217.150	0.197	-0.317
-701.543	-100.137	-0.344	-0.087
-700.529	84.343	0.159	0.176
-699.514	743.062	-0.154	0.418
-698.499	27.183	-0.078	0.066
-697.485	-76.088	0.050	-0.018
-696.470	-111.623	0.263	0.054
-695.456	-142.562	-0.453	-0.045
-694.441	108.655	-0.129	-0.155
-693.426	24.498	-0.100	-0.083
-692.412	-130.875	0.245	0.033
-691.397	-200.000	0.034	-0.215
-690.383	65.057	-0.173	-0.177
-689.368	96.932	0.054	-0.063
-688.354	-32.363	0.154	-0.087
-687.339	-37.468	-0.144	-0.078
-686.324	171.669	0.109	0.159
-685.310	165.325	-0.064	-0.092
-684.295	-7.838	-0.239	0.164
-683.281	-159.173	-0.112	-0.006
-682.266	27.778	-0.208	0.177
-681.251	-134.722	0.182	0.022
-680.237	-157.413	-0.196	-0.012
-679.222	800.000	-0.040	0.128
-678.208	-111.898	0.148	-0.030
-677.193	-105.048	-0.372	-0.086
-676.178	-200.000	0.033	-0.250
-675.164	256.420	-0.029	0.051
-674.149	-32.605	-0.142	-0.080
-673.135	388.622	0.074	0.156
-672.120	-200.000	-0.004	0.116
-671.105	-200.000	0.012	-0.484
-670.091	167.605	-0.036	-0.052
-669.076	-96.364	-0.116	-0.031
-668.062	800.000	-0.039	-0.141
-667.047	800.000	0.050	-0.143
-666.032	-200.000	-0.035	-0.351
-665.018	-200.000	0.052	0.252
-664.003	-141.641	-0.202	0.021
-662.989	-200.000	-0.015	-0.135
-661.974	38.306	0.198	-0.178
-660.959	-43.428	-0.165	0.085
-659.945	-158.697	0.260	-0.015
-658.930	-200.000	0.035	0.239
-657.916	-135.483	0.361	0.044
-656.901	134.407	0.119	-0.156
-655.886	-57.058	-0.107	0.048
-654.872	24.193	-0.306	-0.256
-653.857	120.686	0.071	-0.090
-652.843	-84.221	0.215	-0.069
-651.828	134.958	0.105	0.138
-650.814	498.430	-0.010	0.024
-649.799	71.682	0.157	0.165
-648.784	420.839	-0.113	0.244
-647.770	175.102	0.108	0.157
-646.755	70.578	0.266	-0.278
-645.741	-94.807	-0.264	-0.072
-644.726	-18.033	-0.401	-0.254
-643.711	-200.000	0.004	0.026
-642.697	212.334	-0.056	-0.090
-641.682	591.188	-0.052	0.131
-640.668	-72.125	0.047	0.018
-639.653	800.000	0.084	-0.277
-638.638	-63.473	-0.139	-0.058
-637.624	-118.320	-0.089	-0.016
-636.609	447.087	0.041	-0.091
-635.595	-200.000	0.013	-0.257
-634.580	-100.341	0.121	-0.030
-633.565	-85.137	-0.316	-0.100
-632.551	-124.676	0.230	-0.036
-631.536	-48.130	0.207	-0.101
-630.522	-172.682	-0.216	-0.007
-629.507	-104.387	-0.526	-0.123
-628.492	-140.748	0.170	0.018
-627.478	-200.000	-0.025	-0.213
-626.463	-81.394	-0.208	-0.069
-625.449	126.957	0.097	-0.124
-624.434	-63.371	0.267	0.111
-623.419	-200.000	0.014	0.097
-622.405	227.734	-0.101	0.165
-621.390	-147.505	-0.257	-0.022
-620.376	-200.000	-0.007	0.163
-619.361	75.162	-0.227	-0.242
-618.346	177.652	0.176	-0.259
-617.332	-118.139	-0.302	0.054
-616.317	-200.000	-0.031	-0.188
-615.303	73.925	-0.236	-0.250
-614.288	799.958	-0.101	-0.282
-613.273	13.065	-0.015	0.011
-612.259	-154.148	0.217	-0.015
-611.244	-200.000	0.041	0.189
-610.230	800.000	0.035	0.155
-609.215	-200.000	0.012	0.324
-608.201	-121.299	0.339	0.057
-607.186	46.421	-0.255	-0.239
-606.171	66.208	-0.121	-0.124
-605.157	-200.000	0.003	0.296
-604.142	-19.673	0.175	-0.109
-603.128	64.227	-0.215	-0.218
-602.113	-59.789	0.100	-0.043
-601.098	-200.000	0.027	-0.120
-600.084	-117.004	0.307	0.057
-599.069	-69.291	-0.307	-0.119
-598.055	-18.655	-0.138	-0.086
-597.040	-200.000	0.026	0.326
-596.025	676.166	0.126	0.330
-595.011	0.811	-0.148	-0.107
-593.996	116.611	-0.112	0.139
-592.982	-136.430	-0.149	0.017
-591.967	-37.645	-0.160	0.086
-590.952	-158.220	-0.198	0.012
-589.938	68.794	0.216	-0.224
-588.923	-68.199	0.180	0.071
-587.909	-193.208	0.014	0.000
-586.894	91.039	-0.167	0.189
-585.879	-34.675	-0.196	-0.108
-584.865	-30.737	0.057	-0.032
-583.850	-74.431	-0.049	0.018
-582.836	199.949	-0.258	0.399
-581.821	-130.241	-0.029	-0.004
-580.806	166.892	-0.163	0.233
-579.792	-32.217	-0.176	-0.099
-578.777	-1.528	0.245	0.174
-577.763	201.477	-0.093	-0.144
-576.748	487.668	-0.109	-0.251
-575.733	246.849	0.107	-0.182
-574.719	-8.279	0.193	-0.131
-573.704	126.193	0.237	-0.302
-572.690	-200.000	-0.042	0.209
-571.675	11.376	0.131	-0.101
-570.661	-126.125	-0.143	0.022
-569.646	112.926	-0.087	0.106
-568.631	335.890	0.160	0.312
-567.617	-34.745	-0.190	-0.105
-566.602	155.506	0.260	-0.360
-565.588	-130.101	0.325	0.045
-564.573	49.414	0.033	-0.031
-563.558	-200.000	-0.005	-0.078
-562.544	-117.783	0.023	-0.004
-561.529	-200.000	0.039	0.313
-560.515	-9.463	-0.159	-0.107
-559.500	-200.000	-0.007	-0.220
-558.485	-200.000	0.066	-0.327
-557.471	-19.632	0.164	0.102
-556.456	37.848	-0.201	0.180
-555.442	-56.502	0.188	0.084
-554.427	-21.836	-0.188	0.115
-553.412	116.696	0.174	0.215
-552.398	351.478	0.131	-0.262
-551.383	-61.241	-0.229	-0.097
-550.369	-69.532	0.229	-0.088
-549.354	-108.298	-0.306	-0.066
-548.339	800.000	-0.033	-0.121
-547.325	155.230	0.168	0.233
-546.310	-102.920	0.093	0.022
-545.296	-200.000	0.008	0.147
-544.281	87.006	-0.207	0.230
-543.266	45.690	0.144	-0.134
-542.252	-155.131	-0.165	0.011
-541.237	51.988	-0.054	-0.052
-540.223	359.604	-0.099	0.199
-539.208	-2.793	0.323	0.227
-538.193	209.348	-0.070	0.110
-537.179	-200.000	-0.022	-0.168
-536.164	631.108	-0.050	-0.127
-535.150	800.000	0.051	0.195
-534.135	-27.231	-0.137	-0.080
-533.121	-200.000	0.007	0.174
-532.106	-182.205	0.216	0.004
-531.091	100.290	-0.086	0.101
-530.077	200.532	0.150	-0.232
-529.062	-200.000	0.008	-0.125
-528.048	-82.690	-0.419	-0.137
-527.033	56.492	0.109	0.107
-526.018	132.292	-0.163	0.211
-525.004	114.407	-0.211	0.259
-523.989	21.779	0.153	0.126
-522.975	103.198	-0.235	-0.277
-521.960	634.341	0.154	-0.394
-520.945	678.256	-0.092	-0.242
-519.931	64.238	-0.116	-0.117
-518.916	-200.000	-0.021	0.144
-517.902	800.000	-0.075	0.300
-516.887	-100.667	0.273	-0.068
-515.872	-115.919	-0.104	-0.020
-514.858	-22.878	0.146	-0.088
-513.843	-58.448	-0.325	0.142
-512.829	-112.207	-0.112	0.023
-511.814	151.608	0.098	0.134
-510.799	-200.000	-0.044	-0.256
-509.785	-100.691	-0.250	0.062
-508.770	37.652	0.112	-0.100
-507.756	-122.770	0.167	0.027
-506.741	-100.788	0.149	-0.037
-505.726	-200.000	-0.013	-0.092
-504.712	693.812	-0.070	-0.184
-503.697	-200.000	0.066	0.508
-502.683	130.503	0.146	0.188
-501.668	-200.000	-0.005	0.039
-500.653	-164.991	-0.281	0.013
-499.639	73.490	0.115	-0.121
-498.624	-200.000	0.067	-0.481
-497.610	372.140	-0.112	0.229
-496.595	-103.071	-0.203	-0.048
-495.581	-200.000	0.059	-0.330
-494.566	-200.000	0.002	-0.044
-493.551	74.663	0.019	0.020
-492.537	-48.245	-0.294	-0.142
-491.522	-200.000	0.023	-0.113
-490.508	-168.484	-0.070	-0.003
-489.493	800.000	-0.037	-0.145
-488.478	300.040	0.129	-0.240
-487.464	-71.243	-0.248	0.093
-486.449	-200.000	0.019	-0.186
-485.435	410.192	-0.084	-0.178
-484.420	-1.781	-0.223	-0.157
-483.405	247.295	-0.082	-0.138
-482.391	64.604	0.273	0.276
-481.376	133.589	0.161	-0.209
-480.362	800.000	-0.083	-0.296
-479.347	-127.071	0.341	0.050
-478.332	54.037	-0.047	-0.046
-477.318	-44.836	0.105	0.053
-476.303	-26.880	-0.147	-0.086
-475.289	-43.911	0.344	-0.174
-474.274	-200.000	-0.014	0.066
-473.259	-200.000	-0.024	-0.249
-472.245	-200.000	-0.088	-0.576
-471.230	179.238	0.128	-0.188
-470.216	-200.000	-0.032	-0.425
-469.201	800.000	0.066	-0.226
-468.186	-155.710	-0.154	0.010
-467.172	-188.720	0.380	-0.005
-466.157	-133.564	0.425	0.053
-465.143	674.057	0.087	0.227
-464.128	-73.246	-0.416	-0.153
-463.113	-200.000	0.012	0.284
-462.099	602.978	-0.119	0.298
-461.084	-200.000	0.006	0.177
-460.070	212.185	-0.197	-0.312
-459.055	-103.172	-0.082	0.019
-458.040	800.000	-0.067	0.263
-457.026	258.359	-0.068	-0.117
-456.011	346.954	-0.039	0.076
-454.997	54.340	-0.163	0.157
-453.982	-142.784	0.062	0.006
-452.968	-200.000	0.160	0.000
-451.953	13.511	0.215	-0.167
-450.938	-200.000	0.019	-0.427
-449.924	-200.000	-0.035	0.268
-448.909	-70.643	-0.183	0.069
-447.895	-85.944	-0.284	-0.088
-446.880	-5.855	0.023	-0.016
-445.865	-200.000	-0.016	-0.315
-444.851	-148.236	-0.089	-0.007
-443.836	800.000	-0.065	0.259
-442.822	-157.304	-0.324	-0.020
-441.807	-84.618	-0.153	0.048
-440.792	-200.000	-0.001	-0.053
-439.778	540.936	-0.077	0.184
-438.763	22.221	0.256	0.209
-437.749	130.752	-0.234	0.301
-436.734	-92.774	-0.221	0.062
-435.719	-98.725	0.273	0.070
-434.705	514.647	-0.134	0.313
-433.690	154.446	-0.074	0.101
-432.676	-93.912	0.120	-0.033
-431.661	-200.000	0.154	0.000
-430.646	800.000	-0.048	0.159
-429.632	-127.263	0.134	0.020
-428.617	-200.000	-0.007	0.175
-427.603	-24.213	0.056	-0.033
-426.588	207.602	-0.081	0.127
-425.573	-114.714	0.269	0.052
-424.559	-117.115	-0.252	0.046
-423.544	107.103	0.157	0.187
-422.530	232.668	0.121	-0.199
-421.515	-68.725	0.297	0.115
-420.500	767.616	0.041	-0.113
-419.486	-90.742	-0.319	-0.092
-418.471	800.000	0.039	-0.110
-417.457	-200.000	0.014	0.424
-416.442	346.601	0.115	0.227
-415.428	-132.740	0.095	0.012
-414.413	143.575	-0.208	0.277
-413.398	-0.276	-0.208	-0.148
-412.384	167.106	0.140	-0.199
-411.369	186.200	-0.218	-0.324
-410.355	26.723	-0.232	-0.194
-409.340	-5.505	0.246	0.169
-408.325	-200.000	0.012	0.254
-407.311	40.633	-0.209	0.188
-406.296	-185.807	-0.223	-0.003
-405.282	-165.250	0.169	-0.007
-404.267	-73.675	-0.137	-0.050
-403.252	42.242	0.221	0.201
-402.238	-200.000	0.038	-0.438
-401.223	26.438	0.336	-0.281
-400.209	800.000	-0.053	-0.166
-399.194	100.707	0.100	0.116
-398.179	98.967	0.036	0.042
-397.165	593.641	-0.158	-0.392
-396.150	-109.949	0.109	-0.023
-395.136	800.000	0.060	0.190
-394.121	-12.667	0.196	0.128
-393.106	-96.694	0.079	0.021
-392.092	800.000	0.084	0.285
-391.077	-22.997	-0.327	0.197
-390.063	-59.235	-0.389	-0.168
-389.048	-200.000	0.032	0.149
-388.033	800.000	-0.022	-0.097
-387.019	-43.481	-0.345	0.174
-386.004	40.027	0.174	0.156
-384.990	189.656	0.103	0.155
-383.975	-111.194	0.171	0.035
-382.960	160.464	-0.139	-0.195
-381.946	-146.359	0.250	0.022
-380.931	-150.197	-0.360	0.028
-379.917	738.874	0.068	-0.182
-378.902	-145.576	-0.118	-0.011
-377.888	266.115	-0.115	0.201
-376.873	-126.036	-0.337	0.051
-375.858	-128.550	-0.199	-0.028
-374.844	-200.000	0.016	0.139
-373.829	13.303	-0.118	0.091
-372.815	-200.000	0.014	0.214
-371.800	-190.688	0.355	-0.004
-370.785	412.746	0.129	-0.274
-369.771	207.769	0.082	0.128
-368.756	-200.000	0.010	-0.065
-367.742	6.567	-0.337	-0.251
-366.727	26.755	-0.171	0.143
-365.712	-2.590	0.157	-0.110
-364.698	-62.372	-0.342	0.142
-363.683	800.000	0.105	-0.362
-362.669	585.195	-0.165	0.406
-361.654	124.035	-0.285	0.358
-360.639	-126.395	0.194	-0.029
-359.625	-98.676	-0.255	0.065
-358.610	44.030	0.094	0.086
-357.596	37.161	-0.074	-0.065
-356.581	-191.671	0.332	-0.003
-355.566	-200.000	-0.008	-0.305
-354.552	33.234	-0.151	0.131
-353.537	-24.208	0.117	0.070
-352.523	179.070	-0.022	-0.031
-351.508	376.635	0.031	-0.063
-350.493	-80.292	-0.381	-0.127
-349.479	-19.938	0.117	-0.072
-348.464	30.146	0.082	-0.070
-347.450	-8.252	-0.161	0.108
-346.435	-33.488	-0.109	-0.060
-345.420	-8.040	0.097	0.066
-344.406	-84.403	-0.154	-0.049
-343.391	377.210	-0.003	-0.006
-342.377	129.918	0.088	0.112
-341.362	-18.870	-0.200	-0.124
-340.348	-7.728	0.215	-0.145
-339.333	-200.000	-0.035	0.166
-338.318	-123.445	0.284	-0.045
-337.304	386.096	0.156	-0.322
-336.289	-64.949	-0.131	0.053
-335.275	-161.921	-0.069	-0.003
-334.260	-87.166	0.224	-0.068
-333.245	-149.012	0.056	-0.005
-332.231	-126.460	-0.120	-0.018
-331.216	-164.790	0.177	0.008
-330.202	-182.804	-0.509	0.009
-329.187	-103.293	0.178	0.042
-328.172	-20.078	-0.056	0.035
-327.158	-78.451	0.214	0.073
-326.143	-92.176	0.223	0.063
-325.129	-79.670	0.225	0.076
-324.114	-46.159	0.241	0.118
-323.099	-99.714	-0.337	-0.084
-322.085	-200.000	0.018	0.115
-321.070	-200.000	-0.044	0.395
-320.056	-200.000	-0.006	-0.093
-319.041	-82.181	0.096	0.031
-318.026	800.000	0.091	-0.343
-317.012	312.307	-0.072	0.134
-315.997	43.566	0.200	0.182
-314.983	800.000	0.078	0.328
-313.968	800.000	-0.133	0.456
-312.953	-160.704	0.130	0.007
-311.939	-200.000	0.015	-0.175
-310.924	6.299	0.313	0.231
-309.910	-41.563	-0.244	-0.125
-308.895	-90.585	-0.155	-0.045
-307.880	-200.000	0.011	0.050
-306.866	-200.000	0.029	0.331
-305.851	-67.548	0.262	0.102
-304.837	51.387	-0.063	0.060
-303.822	202.946	0.178	-0.274
-302.807	-69.852	0.301	0.115
-301.793	-200.000	-0.047	0.462
-300.778	-200.000	0.034	0.173
-299.764	-173.972	-0.146	0.004
-298.749	-104.703	0.334	-0.077
-297.735	31.331	0.009	-0.008
-296.720	-46.894	-0.057	-0.028
-295.705	800.000	-0.016	-0.053
-294.691	-200.000	0.007	-0.109
-293.676	45.589	0.054	-0.049
-292.662	-53.757	0.157	0.071
-291.647	688.714	0.061	-0.160
-290.632	-85.791	-0.247	0.076
-289.618	800.000	0.047	-0.206
-288.603	273.839	-0.274	-0.484
-287.589	-160.310	0.068	0.004
-286.574	96.440	0.170	-0.193
-285.559	129.747	-0.142	-0.181
-284.545	-33.358	0.237	0.131
-283.530	-19.697	-0.020	-0.013
-282.516	800.000	0.093	-0.324
-281.501	216.468	0.184	-0.292
-280.486	-200.000	0.058	0.280
-279.472	800.000	-0.034	-0.105
-278.457	-200.000	-0.007	0.044
-277.443	-30.118	-0.248	0.140
-276.428	-145.508	0.197	-0.018
-275.413	-200.000	-0.015	0.252
-274.399	-23.938	0.229	-0.136
-273.384	-30.298	0.152	-0.086
-272.370	376.555	-0.048	-0.098
-271.355	36.840	-0.138	0.122
-270.340	-141.847	-0.282	0.028
-269.326	-120.651	-0.261	0.044
-268.311	124.550	0.079	0.099
-267.297	39.260	-0.082	0.073
-266.282	-200.000	-0.083	-0.509
-265.267	266.395	0.059	0.103
-264.253	-11.435	-0.032	0.021
-263.238	-135.158	0.182	0.022
-262.224	-100.429	-0.336	-0.083
-261.209	-141.176	-0.167	-0.017
-260.195	139.553	0.107	0.140
-259.180	-123.880	0.432	0.068
-258.165	-61.067	-0.090	0.038
-257.151	800.000	0.058	0.199
-256.136	50.588	-0.413	0.389
-255.122	106.842	-0.155	0.183
-254.107	-161.086	0.223	0.012
-253.092	-150.365	-0.259	0.020
-252.078	-200.000	-0.019	-0.274
-251.063	-73.718	0.251	0.091
-250.049	-117.375	0.046	0.008
-249.034	322.356	-0.194	0.368
-248.019	61.671	-0.162	0.160
-247.005	-179.753	0.229	-0.005
-245.990	-7.690	0.313	0.210
-244.976	-145.645	0.284	-0.025
-243.961	800.000	0.116	-0.337
-242.946	-145.079	-0.141	-0.013
-241.932	-200.000	0.022	0.351
-240.917	-62.860	-0.131	-0.054
-239.903	-151.828	0.302	-0.022
-238.888	-86.482	0.023	-0.007
-237.873	-200.000	-0.026	-0.188
-236.859	697.334	0.098	-0.257
-235.844	757.714	-0.063	-0.170
-234.830	215.314	0.125	-0.197
-233.815	-200.000	0.000	0.104
-232.800	-125.709	-0.140	0.021
-231.786	131.917	0.105	0.134
-230.771	-200.000	0.042	-0.295
-229.757	36.377	0.352	0.309
-228.742	-200.000	-0.015	-0.101
-227.727	237.054	-0.094	0.155
-226.713	27.774	-0.047	0.039
-225.698	237.495	-0.189	-0.312
-224.684	-28.346	-0.272	-0.156
-223.669	304.149	0.088	-0.162
-222.655	392.955	0.030	-0.062
-221.640	-119.710	0.051	-0.009
-220.625	-126.954	0.245	-0.036
-219.611	203.275	-0.123	-0.190
-218.596	221.812	0.226	-0.362
-217.582	-200.000	0.017	-0.085
-216.567	-132.866	0.084	-0.011
-215.552	-200.000	0.022	0.181
-214.538	-70.322	0.173	-0.065
-213.523	177.988	0.121	-0.175
-212.509	88.793	-0.283	0.312
-211.494	-200.000	-0.015	0.175
-210.479	241.787	-0.183	0.304
-209.465	-156.422	0.525	0.033
-208.450	50.765	0.182	-0.171
-207.436	-200.000	0.033	0.263
-206.421	-200.000	-0.024	-0.125
-205.406	-34.709	0.158	-0.086
-204.392	52.734	-0.205	-0.195
-203.377	-2.929	-0.175	-0.121
-202.363	-144.298	0.061	0.006
-201.348	-153.331	0.340	-0.024
-200.333	56.807	0.166	-0.160
-199.319	64.134	-0.075	-0.075
-198.304	-181.301	0.067	0.001
-197.290	800.000	-0.106	-0.328
-196.275	89.047	0.165	-0.182
-195.260	-127.350	-0.182	-0.026
-194.246	-61.383	0.183	0.076
-193.231	208.373	0.061	-0.094
-192.217	-200.000	0.026	0.123
-191.202	20.889	0.053	-0.042
-190.187	-60.661	0.136	0.057
-189.173	-200.000	0.018	0.115
-188.158	216.037	-0.133	-0.210
-187.144	-25.287	0.071	0.042
-186.129	36.299	-0.085	-0.075
-185.114	-117.026	0.292	-0.053
-184.100	-146.251	-0.414	-0.036
-183.085	-94.369	0.065	-0.018
-182.071	-52.763	-0.307	0.141
-181.056	57.877	0.116	-0.113
-180.042	-200.000	-0.049	0.220
-179.027	260.242	0.083	0.142
-178.012	-200.000	-0.052	0.280
-176.998	169.329	0.200	0.284
-175.983	-200.000	0.019	0.203
-174.969	245.844	-0.058	-0.097
-173.954	477.524	-0.032	0.071
-172.939	209.730	0.062	-0.097
-171.925	1.418	0.226	0.161
-170.910	-52.160	0.207	-0.095
-169.896	193.874	0.116	0.174
-168.881	800.000	0.053	-0.168
-167.866	-200.000	0.019	-0.101
-166.852	129.307	-0.066	0.084
-165.837	-17.197	0.209	0.131
-164.823	800.000	0.132	0.405
-163.808	-200.000	0.019	0.182
-162.793	96.763	0.021	0.024
-161.779	-161.717	0.162	-0.008
-160.764	-120.511	0.100	0.017
-159.750	-112.342	-0.147	-0.029
-158.735	-75.013	-0.258	0.092
-157.720	-200.000	0.039	-0.180
-156.706	84.177	0.008	0.008
-155.691	4.834	-0.245	0.178
-154.677	76.186	-0.110	0.115
-153.662	369.234	0.195	0.391
-152.647	37.540	0.285	-0.251
-151.633	-200.000	0.021	0.265
-150.618	-200.000	-0.024	-0.169
-149.604	439.052	-0.057	-0.123
-148.589	425.271	0.079	0.168
-147.574	66.566	-0.351	0.354
-146.560	-200.000	0.022	-0.261
-145.545	726.695	0.083	-0.219
-144.531	-135.028	0.037	-0.004
-143.516	-102.847	0.043	0.010
-142.502	90.014	0.183	-0.203
-141.487	-152.521	-0.253	-0.018
-140.472	-114.793	0.269	-0.051
-139.458	635.323	0.051	0.127
-138.443	-200.000	-0.014	-0.129
-137.429	-200.000	-0.048	0.470
-136.414	-20.702	0.049	-0.030
-135.399	-200.000	-0.012	0.220
-134.385	196.440	0.133	-0.201
-133.370	48.064	-0.038	-0.035
-132.356	192.500	0.128	-0.191
-131.341	401.550	0.136	0.282
-130.326	800.000	-0.027	-0.076
-129.312	106.504	0.171	-0.201
-128.297	101.886	-0.199	-0.230
-127.283	-200.000	0.058	-0.294
-126.268	18.224	-0.076	-0.060
-125.253	567.119	-0.056	-0.135
-124.239	349.623	-0.148	-0.290
-123.224	-98.848	-0.383	0.097
-122.210	290.253	0.156	0.280
-121.195	-200.000	-0.004	0.060
-120.180	800.000	-0.067	0.186
-119.166	171.251	0.096	0.137
-118.151	168.406	0.052	0.074
-117.137	170.058	-0.181	-0.256
-116.122	45.059	0.149	0.136
-115.107	126.763	-0.083	0.104
-114.093	300.615	0.101	0.185
-113.078	800.000	0.051	-0.171
-112.064	244.290	-0.055	0.092
-111.049	-49.956	-0.198	0.093
-110.034	-200.000	-0.058	0.286
-109.020	362.474	0.015	-0.030
-108.005	-200.000	-0.007	0.136
-106.991	-200.000	-0.007	0.334
-105.976	-55.724	0.195	0.086
-104.962	21.124	0.186	-0.150
-103.947	-134.355	0.269	-0.033
-102.932	-33.203	-0.349	0.191
-101.918	-200.000	-0.006	0.110
-100.903	235.805	0.023	0.037
-99.889	307.796	-0.191	0.352
-98.874	770.726	0.046	0.125
-97.859	-79.117	0.275	-0.092
-96.845	-200.000	0.018	-0.232
-95.830	324.092	0.099	-0.187
-94.816	-189.015	0.272	0.003
-93.801	118.050	-0.148	-0.181
-92.786	105.457	-0.168	0.196
-91.772	-141.264	0.375	-0.038
-90.757	199.159	-0.090	-0.137
-89.743	-77.115	-0.060	-0.021
-88.728	324.491	-0.134	0.253
-87.713	-45.396	0.194	0.095
-86.699	-200.000	0.018	0.083
-85.684	96.864	-0.218	0.247
-84.670	-200.000	0.011	0.190
-83.655	16.724	0.187	0.146
-82.640	-55.901	0.255	-0.113
-81.626	-107.182	-0.166	-0.036
-80.611	-200.000	0.023	-0.174
-79.597	384.858	-0.130	-0.264
-78.582	-65.083	-0.273	0.109
-77.567	42.457	0.211	-0.189
-76.553	-200.000	0.004	-0.160
-75.538	-59.000	-0.082	-0.035
-74.524	168.113	-0.134	-0.189
-73.509	-44.344	-0.206	-0.102
-72.494	29.409	0.178	-0.150
-71.480	800.000	0.057	0.198
-70.465	800.000	0.086	0.241
-69.451	-28.394	-0.179	0.102
-68.436	-92.264	0.052	-0.014
-67.422	-125.685	-0.145	0.022
-66.407	-200.000	-0.002	0.149
-65.392	-200.000	-0.006	-0.032
-64.378	-65.075	0.174	-0.069
-63.363	-23.973	0.057	-0.034
-62.349	-200.000	0.031	0.645
-61.334	4.241	-1.004	-0.726
-60.319	61.505	0.203	0.199
-59.305	298.615	0.431	-0.783
-58.290	707.044	0.290	0.757
-57.276	360.461	0.557	1.102
-56.261	-200.000	89.118	499.093
-55.246	514.814	1411.413	3253.502
-54.232	180.751	2642.452	3831.764
-53.217	111.176	2365.370	2813.992
-52.203	45.243	1969.259	1793.050
-51.188	39.430	1753.744	1551.138
-50.173	36.689	1708.801	1490.251
-49.159	52.169	1752.893	1649.691
-48.144	55.326	1770.952	1691.234
-47.130	39.235	1729.910	1528.298
-46.115	36.369	1715.362	1493.260
-45.100	36.239	1710.254	1487.755
-44.086	36.241	1707.348	1485.180
-43.071	36.211	1704.681	1482.572
-42.057	36.155	1702.533	1480.214
-41.042	36.171	1700.056	1478.123
-40.027	36.128	1698.617	1476.487
-39.013	36.216	1696.305	1475.094
-37.998	36.118	1694.812	1472.986
-36.984	36.266	1693.796	1473.176
-35.969	36.355	1692.016	1472.245
-34.954	36.368	1690.494	1470.961
-33.940	36.226	1689.244	1468.733
-32.925	36.273	1686.619	1466.747
-31.911	36.309	1685.243	1465.767
-30.896	36.306	1683.304	1464.002
-29.881	36.261	1681.524	1462.057
-28.867	36.326	1679.612	1460.828
-27.852	36.291	1678.383	1459.437
-26.838	36.322	1677.182	1458.564
-25.823	36.325	1675.254	1456.855
-24.809	36.359	1673.848	1455.828
-23.794	36.272	1672.706	1454.122
-22.779	36.257	1671.367	1452.792
-21.765	36.301	1669.373	1451.327
-20.750	36.310	1667.598	1449.796
-19.736	36.345	1665.910	1448.535
-18.721	36.317	1664.916	1447.399
-17.706	36.350	1663.246	1446.139
-16.692	36.305	1661.733	1444.430
-15.677	36.338	1660.148	1443.242
-14.663	36.374	1658.904	1442.375
-13.648	36.329	1657.458	1440.722
-12.633	36.393	1655.430	1439.376
-11.619	36.291	1654.758	1437.981
-10.604	36.418	1652.411	1436.826
-9.590	36.350	1651.544	1435.509
-8.575	36.273	1650.420	1433.906
-7.560	36.279	1649.278	1432.898
-6.546	36.298	1647.687	1431.603
-5.531	36.219	1646.777	1430.171
-4.517	36.267	1645.330	1429.211
-3.502	36.281	1644.336	1428.393
-2.487	36.374	1642.888	1427.766
-1.473	36.431	1631.591	1418.314
-0.458	34.153	1612.597	1385.191
0.556	32.117	1612.700	1352.478
1.571	29.644	1637.614	1355.145
2.586	28.383	1650.417	1356.290
3.600	24.337	1593.420	1280.357
4.615	14.210	1476.341	1118.455
5.629	5.838	1407.670	1012.487
6.644	4.493	1398.706	997.318
7.659	4.395	1396.756	995.214
8.673	4.435	1395.861	994.740
9.688	4.387	1394.902	993.666
10.702	4.379	1392.035	991.486
11.717	8.029	1399.130	1019.844
12.731	17.100	1415.982	1090.557
13.746	22.031	1423.240	1127.808
14.761	21.175	1420.029	1119.672
15.775	20.104	1417.751	1110.915
16.790	19.025	1414.597	1101.445
17.804	18.184	1412.297	1094.175
18.819	17.862	1411.084	1091.078
19.834	17.519	1409.864	1087.847
20.848	17.302	1408.609	1085.403
21.863	17.202	1407.083	1083.493
22.877	16.990	1406.063	1081.259
23.892	16.941	1405.851	1080.687
24.907	16.981	1404.563	1079.858
25.921	17.060	1403.177	1079.197
26.936	16.958	1402.545	1077.970
27.950	17.074	1401.374	1077.708
28.965	17.123	1400.644	1077.362
29.980	17.327	1399.331	1077.549
30.994	17.368	1398.303	1076.922
32.009	17.399	1397.338	1076.284
33.023	17.259	1396.963	1075.014
34.038	17.187	1394.949	1072.912
35.053	17.222	1393.378	1071.830
36.067	17.215	1392.447	1070.974
37.082	17.266	1391.023	1070.104
38.096	17.185	1390.735	1069.283
39.111	17.284	1389.689	1069.006
40.126	17.238	1388.148	1067.434
41.140	16.980	1387.668	1065.354
42.155	16.875	1387.051	1064.124
43.169	16.855	1386.670	1063.609
44.184	16.825	1386.529	1063.220
45.199	16.845	1386.211	1063.011
46.213	16.951	1385.418	1062.973
47.228	17.116	1385.055	1063.635
48.242	17.109	1383.393	1062.219
49.257	17.117	1381.846	1060.983
50.271	17.141	1380.529	1060.030
51.286	17.167	1378.784	1058.758
52.301	17.173	1377.848	1057.982
53.315	16.982	1376.646	1055.778
54.330	17.060	1375.511	1055.302
55.344	16.980	1374.414	1053.869
56.359	16.948	1373.321	1052.736
57.374	16.953	1372.395	1051.967
58.388	16.876	1371.701	1050.861
59.403	16.879	1371.284	1050.468
60.417	16.776	1370.412	1049.074
61.432	16.736	1369.686	1048.176
62.447	16.771	1368.054	1047.053
63.461	16.683	1366.985	1045.595
64.476	16.661	1365.993	1044.606
65.490	16.743	1364.793	1044.103
66.505	16.744	1363.227	1042.823
67.520	16.739	1362.096	1041.834
68.534	16.786	1361.021	1041.207
69.549	16.759	1360.056	1040.207
70.563	16.723	1359.058	1039.135
71.578	16.688	1357.633	1037.740
72.593	16.675	1356.661	1036.822
73.607	16.609	1356.401	1036.127
74.622	16.568	1355.334	1034.971
75.636	16.664	1354.694	1034.979
76.651	16.657	1353.671	1034.063
77.666	16.641	1353.726	1033.913
78.680	16.710	1352.891	1033.609
79.695	16.669	1352.350	1032.850
80.709	16.769	1351.330	1032.589
81.724	16.928	1350.253	1032.647
82.739	16.896	1349.686	1031.926
83.753	16.977	1349.233	1031.980
84.768	17.127	1347.901	1031.781
85.782	17.268	1346.702	1031.629
86.797	17.295	1344.946	1030.355
87.812	17.113	1344.307	1028.672
88.826	17.066	1343.136	1027.400
89.841	17.051	1342.330	1026.602
90.855	17.162	1341.246	1026.353
91.870	17.189	1340.119	1025.565
92.884	17.233	1339.522	1025.284
93.899	17.251	1338.413	1024.450
94.914	17.356	1337.654	1024.410
95.928	17.331	1336.619	1023.379
96.943	17.286	1336.071	1022.597
97.957	17.208	1334.924	1021.159
98.972	17.241	1333.616	1020.266
99.987	17.105	1333.089	1018.957
101.001	17.149	1332.290	1018.520
102.016	17.208	1331.242	1017.982
103.030	17.254	1329.974	1017.198
104.045	17.172	1329.324	1016.118
105.060	17.213	1327.720	1015.047
106.074	16.924	1326.590	1012.372
107.089	16.811	1324.948	1010.352
108.103	16.731	1324.160	1009.185
109.118	16.816	1321.919	1007.896
110.133	16.785	1321.333	1007.173
111.147	16.811	1319.781	1006.060
112.162	16.889	1317.932	1005.019
113.176	16.929	1316.987	1004.449
114.191	16.928	1316.229	1003.776
115.206	16.970	1315.444	1003.339
116.220	17.045	1313.784	1002.424
117.235	16.900	1312.787	1000.723
118.249	16.817	1312.292	999.766
119.264	16.825	1310.948	998.701
120.279	16.824	1309.955	997.849
121.293	16.856	1308.965	997.195
122.308	16.842	1307.625	996.002
123.322	16.686	1306.351	994.028
124.337	16.663	1305.824	993.403
125.352	16.626	1304.546	992.128
126.366	16.644	1303.368	991.251
127.381	16.710	1302.139	990.610
128.395	16.707	1301.603	990.100
129.410	16.810	1300.171	989.526
130.424	16.763	1299.879	988.943
131.439	16.929	1298.520	988.787
132.454	16.997	1297.528	988.339
133.468	17.003	1297.062	987.935
134.483	16.914	1296.397	986.821
135.497	16.941	1295.723	986.378
136.512	17.004	1293.980	985.332
137.527	16.959	1292.935	984.188
138.541	16.978	1291.245	982.923
139.556	16.994	1290.039	982.008
140.570	17.052	1289.076	981.527
141.585	17.249	1287.831	981.630
142.600	17.126	1287.160	980.321
143.614	17.258	1286.274	980.321
144.629	17.284	1284.678	979.169
145.643	17.364	1283.530	978.668
146.658	17.197	1282.144	976.562
147.673	17.051	1280.741	974.570
148.687	17.035	1279.481	973.433
149.702	16.955	1278.377	972.051
150.716	16.989	1276.793	970.954
151.731	17.002	1275.504	969.963
152.746	16.859	1274.697	968.443
153.760	16.963	1273.325	967.908
154.775	17.078	1272.535	967.877
155.789	17.042	1271.574	966.854
156.804	17.143	1270.095	966.220
157.819	17.171	1269.422	965.784
158.833	17.325	1268.217	965.654
159.848	17.352	1267.161	964.917
160.862	17.468	1266.345	964.869
161.877	17.180	1265.277	962.337
162.892	17.112	1263.987	960.886
163.906	17.082	1262.849	959.770
164.921	16.982	1262.537	958.881
165.935	17.011	1261.568	958.223
166.950	17.090	1260.884	958.068
167.964	17.069	1259.952	957.154
168.979	17.082	1259.178	956.553
169.994	17.155	1258.198	956.136
171.008	17.173	1257.691	955.766
172.023	17.292	1256.550	955.488
173.037	17.309	1256.018	955.093
174.052	17.276	1255.372	954.331
175.067	17.258	1253.732	952.901
176.081	17.134	1252.605	951.262
177.096	17.089	1251.857	950.359
178.110	17.220	1250.568	950.029
179.125	17.186	1249.329	948.817
180.140	17.160	1248.187	947.717
181.154	17.254	1247.171	947.386
182.169	17.349	1246.022	946.959
183.183	17.423	1244.913	946.446
184.198	17.466	1243.812	945.761
185.213	17.558	1242.060	944.858
186.227	17.522	1241.666	944.272
187.242	17.515	1240.709	943.422
188.256	17.496	1239.812	942.555
189.271	17.539	1238.508	941.716
190.286	17.414	1237.114	939.882
191.300	17.183	1236.242	937.860
192.315	17.161	1235.573	937.148
193.329	17.085	1234.800	936.065
194.344	17.137	1234.369	935.941
195.359	17.300	1233.886	936.390
196.373	17.502	1233.199	936.896
197.388	17.486	1233.217	936.738
198.402	17.600	1232.343	936.618
199.417	17.786	1231.531	936.939
200.432	17.782	1231.136	936.532
201.446	17.793	1230.362	935.923
202.461	17.879	1229.270	935.482
203.475	17.864	1228.381	934.637
204.490	17.735	1227.168	932.926
205.504	17.590	1225.574	930.843
206.519	17.578	1224.378	929.783
207.534	17.513	1223.127	928.397
208.548	17.698	1222.334	928.720
209.563	17.671	1221.304	927.713
210.577	17.599	1220.680	926.763
211.592	17.748	1219.643	926.702
212.607	17.907	1218.415	926.554
213.621	17.890	1217.884	925.971
214.636	17.845	1217.249	925.164
215.650	17.731	1216.198	923.667
216.665	17.881	1215.300	923.715
217.680	17.963	1214.574	923.522
218.694	18.197	1213.027	923.528
219.709	17.949	1212.608	921.789
220.723	17.899	1212.106	921.056
221.738	18.009	1211.094	920.802
222.753	17.896	1210.054	919.320
223.767	17.959	1209.734	919.333
224.782	18.083	1208.886	919.275
225.796	18.055	1208.824	918.998
226.811	18.116	1207.528	918.259
227.826	17.924	1207.004	916.748
228.840	17.969	1205.996	916.140
229.855	18.022	1205.491	915.960
230.869	18.079	1204.372	915.333
231.884	17.899	1203.728	913.800
232.899	17.923	1202.811	913.154
233.913	17.910	1202.029	912.406
234.928	17.756	1201.621	911.194
235.942	17.891	1200.407	910.917
236.957	17.772	1199.820	909.754
237.972	17.829	1198.929	909.303
238.986	17.971	1197.820	909.135
240.001	17.852	1197.650	908.293
241.015	17.833	1197.052	907.660
242.030	17.991	1195.837	907.495
243.045	18.043	1195.040	907.089
244.059	18.112	1194.037	906.610
245.074	18.013	1193.388	905.515
246.088	18.174	1192.430	905.562
247.103	18.222	1191.670	905.155
248.117	18.412	1191.026	905.592
249.132	18.399	1190.603	905.121
250.147	18.433	1190.086	904.828
251.161	18.524	1189.086	904.466
252.176	18.576	1188.320	904.077
253.190	18.618	1187.815	903.836
254.205	18.729	1187.353	903.988
255.220	18.733	1186.318	903.142
256.234	18.697	1185.906	902.558
257.249	18.699	1185.515	902.191
258.263	18.717	1184.590	901.502
259.278	18.596	1184.267	900.541
260.293	18.545	1183.637	899.717
261.307	18.726	1183.084	900.166
262.322	18.730	1182.086	899.348
263.336	18.848	1181.641	899.548
264.351	18.936	1180.714	899.223
265.366	18.980	1179.804	898.680
266.380	18.785	1179.502	897.347
267.395	18.803	1178.295	896.445
268.409	18.637	1177.684	895.037
269.424	18.572	1176.930	894.046
270.439	18.620	1176.751	894.081
271.453	18.702	1175.762	893.675
272.468	18.571	1174.769	892.162
273.482	18.595	1174.209	891.782
274.497	18.612	1173.528	891.272
275.512	18.788	1172.353	891.215
276.526	18.622	1172.260	890.206
277.541	18.667	1171.443	889.740
278.555	18.749	1170.522	889.387
279.570	18.789	1169.862	889.014
280.585	18.912	1169.066	888.963
281.599	18.924	1168.134	888.241
282.614	18.851	1166.984	886.909
283.628	18.794	1165.766	885.615
284.643	18.816	1164.913	884.998
285.657	18.928	1163.955	884.772
286.672	18.916	1162.857	883.795
287.687	18.898	1162.135	883.075
288.701	18.834	1161.391	882.106
289.716	18.876	1160.228	881.356
290.730	18.844	1160.172	881.073
291.745	18.990	1159.174	880.984
292.760	19.086	1158.253	880.697
293.774	19.034	1158.010	880.167
294.789	19.118	1157.495	880.130
295.803	19.080	1156.527	879.124
296.818	19.083	1156.035	878.684
297.833	18.902	1155.266	877.100
298.847	18.926	1154.717	876.729
299.862	18.999	1153.643	876.208
300.876	19.040	1152.737	875.647
301.891	19.158	1152.127	875.708
302.906	19.155	1151.604	875.217
303.920	19.290	1150.618	875.077
304.935	19.303	1150.058	874.641
305.949	19.386	1149.666	874.687
306.964	19.426	1148.898	874.228
307.979	19.331	1148.007	872.991
308.993	19.277	1147.158	871.996
310.008	19.452	1146.393	872.217
311.022	19.400	1145.774	871.411
312.037	19.401	1144.842	870.627
313.052	19.271	1143.969	869.231
314.066	19.195	1143.010	868.040
315.081	19.053	1142.303	866.716
316.095	19.284	1140.968	866.788
317.110	19.223	1140.086	865.733
318.125	19.304	1139.585	865.683
319.139	19.127	1138.802	864.124
320.154	19.168	1138.476	864.007
321.168	19.304	1137.495	863.868
322.183	19.160	1137.339	862.947
323.197	19.230	1136.511	862.596
324.212	19.349	1135.428	862.292
325.227	19.250	1135.448	861.733
326.241	19.280	1134.828	861.337
327.256	19.273	1133.652	860.333
328.270	19.169	1133.216	859.410
329.285	19.255	1131.858	858.732
330.300	19.172	1130.973	857.570
331.314	19.289	1129.822	857.204
332.329	19.339	1128.890	856.669
333.343	19.424	1127.802	856.191
334.358	19.400	1127.536	855.796
335.373	19.457	1127.003	855.596
336.387	19.450	1125.984	854.711
337.402	19.530	1125.109	854.368
338.416	19.525	1124.789	854.026
339.431	19.592	1123.648	853.413
340.446	19.664	1123.431	853.529
341.460	19.822	1122.737	853.705
342.475	19.926	1121.330	853.073
343.489	19.850	1120.888	852.288
344.504	19.814	1120.264	851.559
345.519	19.910	1119.267	851.197
346.533	19.840	1118.682	850.337
347.548	19.981	1118.025	850.453
348.562	19.959	1116.922	849.429
349.577	19.860	1115.938	848.122
350.592	19.766	1115.286	847.091
351.606	19.706	1114.219	845.913
352.621	19.690	1113.453	845.176
353.635	19.675	1112.720	844.475
354.650	19.727	1112.141	844.211
355.665	19.807	1111.438	843.993
356.679	19.713	1111.025	843.147
357.694	19.831	1110.323	843.116
358.708	19.917	1109.709	842.996
359.723	19.903	1109.437	842.647
360.738	19.894	1108.505	841.820
361.752	19.785	1107.945	840.790
362.767	19.964	1107.312	841.105
363.781	19.982	1106.883	840.789
364.796	19.987	1106.136	840.172
365.810	20.135	1105.007	839.959
366.825	20.149	1104.939	839.900
367.840	20.222	1104.664	839.968
368.854	20.197	1104.176	839.404
369.869	20.269	1103.256	838.978
370.883	20.178	1102.285	837.725
371.898	20.171	1101.224	836.813
372.913	20.154	1101.059	836.531
373.927	20.226	1100.261	836.198
374.942	20.238	1100.127	836.077
375.956	20.200	1099.447	835.303
376.971	20.302	1098.742	835.186
377.986	20.285	1098.316	834.707
379.000	20.476	1097.325	834.800
380.015	20.430	1096.998	834.254
381.029	20.588	1096.037	834.207
382.044	20.526	1095.533	833.451
383.059	20.379	1094.873	832.172
384.073	20.425	1094.144	831.767
385.088	20.476	1092.890	830.983
386.102	20.534	1092.005	830.512
387.117	20.372	1090.877	828.808
388.132	20.431	1089.756	828.163
389.146	20.395	1089.164	827.470
390.161	20.318	1088.149	826.258
391.175	20.304	1087.726	825.797
392.190	20.334	1087.234	825.496
393.205	20.495	1086.690	825.774
394.219	20.389	1085.919	824.612
395.234	20.411	1084.771	823.771
396.248	20.468	1083.448	822.965
397.263	20.383	1083.041	822.179
398.278	20.365	1081.784	821.067
399.292	20.319	1081.007	820.188
400.307	20.342	1080.280	819.673
401.321	20.372	1079.270	818.974
402.336	20.305	1078.928	818.328
403.350	20.289	1078.141	817.579
404.365	20.477	1077.721	818.076
405.380	20.464	1076.832	817.269
406.394	20.520	1076.013	816.838
407.409	20.617	1075.730	817.006
408.423	20.565	1075.170	816.264
409.438	20.682	1074.350	816.118
410.453	20.878	1073.590	816.387
411.467	20.931	1072.956	816.082
412.482	20.742	1072.431	814.724
413.496	20.868	1071.820	814.779
414.511	20.977	1070.740	814.392
415.526	20.965	1070.569	814.136
416.540	20.962	1070.200	813.771
417.555	21.049	1069.795	813.795
418.569	20.974	1069.125	812.864
419.584	20.867	1068.747	812.005
420.599	20.976	1067.936	811.827
421.613	150.578	1401.350	1784.554
422.628	138.652	1449.918	1784.671
