DTS Sentinel unit serial number:	SN413079Multiplexer serial number:	ORYXHardware model number:	OX4-SRSoftware version number:	ORYX F/W v4.00 Oryx Data Collector v3.7.2.0data status	okinstallation	princeton_trtdifferential loss correction	single-endedforward channel	channel 2reverse channel	N/Adate	2019/09/18time	23:11:34forward acquisition time	60.00reverse acquisition time	0.00gamma	496.2192k internal	0.2349k external	0.2349temperature offset calibration	1.0019default loss term (dB/km)	0.3790temperature slope calibration	1.0000multiplexer offset coefficient	1.0000multiplexer slope coefficient	1.0000fibre end	0.00T internal ref (°C)	23.94T ext. ref 1 (°C)	0.77T ext. ref 2 (°C)	17.39length (m)	temperature (°C)	Stokes	anti-Stokes-747.200	-90.327	-0.294	-0.085
-746.185	57.619	0.253	0.247
-745.171	248.964	0.258	-0.437
-744.156	-138.096	0.010	-0.001
-743.142	16.893	-0.304	0.240
-742.127	731.341	0.088	0.235
-741.112	-36.114	-0.136	0.073
-740.098	75.868	0.099	-0.104
-739.083	542.829	0.036	-0.085
-738.069	457.337	-0.189	0.419
-737.054	62.783	0.170	0.170
-736.039	-50.668	-0.160	0.075
-735.025	41.666	-0.207	-0.187
-734.010	-200.000	0.055	-0.342
-732.996	-10.049	-0.310	-0.205
-731.981	-200.000	0.070	-0.347
-730.966	-100.270	0.201	-0.050
-729.952	-28.401	0.093	-0.054
-728.937	61.605	0.201	-0.200
-727.923	-200.000	-0.096	0.433
-726.908	-25.950	-0.073	0.043
-725.894	-108.828	-0.037	0.008
-724.879	-200.000	-0.029	0.148
-723.864	-200.000	-0.008	-0.082
-722.850	800.000	-0.158	0.435
-721.835	22.111	0.072	0.059
-720.821	195.667	-0.022	0.033
-719.806	-47.573	-0.297	0.144
-718.791	-91.070	-0.255	-0.073
-717.777	103.769	-0.088	-0.103
-716.762	-200.000	-0.005	0.047
-715.748	-2.178	-0.172	-0.121
-714.733	-92.081	0.224	-0.063
-713.718	-200.000	0.039	-0.246
-712.704	800.000	-0.136	-0.385
-711.689	468.699	0.160	-0.359
-710.675	183.343	0.121	0.179
-709.660	101.485	-0.082	0.095
-708.645	-74.865	0.201	0.072
-707.631	48.885	-0.058	-0.055
-706.616	-200.000	-0.057	-0.256
-705.602	-200.000	0.015	-0.216
-704.587	-200.000	-0.024	0.125
-703.572	-49.621	-0.341	0.162
-702.558	98.602	-0.172	-0.198
-701.543	-26.608	0.215	-0.125
-700.529	60.198	0.132	0.130
-699.514	773.025	0.067	-0.181
-698.499	41.503	0.025	-0.022
-697.485	-94.942	-0.058	0.016
-696.470	-200.000	0.001	0.016
-695.456	-200.000	-0.009	-0.103
-694.441	800.000	-0.140	-0.465
-693.426	-52.099	0.132	-0.061
-692.412	-86.475	-0.318	0.097
-691.397	-12.166	-0.046	0.030
-690.383	12.486	0.457	-0.351
-689.368	-71.389	-0.350	0.131
-688.354	-200.000	-0.058	-0.526
-687.339	-18.175	0.122	-0.076
-686.324	103.416	0.164	0.191
-685.310	4.360	0.357	-0.260
-684.295	133.933	-0.122	-0.157
-683.281	-25.881	-0.139	-0.081
-682.266	-200.000	-0.048	-0.216
-681.251	-75.585	-0.113	0.040
-680.237	-17.662	0.188	0.118
-679.222	-7.483	-0.325	-0.219
-678.208	-5.008	-0.207	-0.142
-677.193	-97.077	-0.193	0.050
-676.178	23.470	-0.366	0.300
-675.164	-200.000	0.044	0.255
-674.149	-75.412	-0.256	-0.091
-673.135	405.438	-0.057	0.119
-672.120	800.000	0.030	0.117
-671.105	-78.596	0.434	0.148
-670.091	-169.604	-0.448	0.016
-669.076	-200.000	0.054	-0.277
-668.062	800.000	0.075	0.264
-667.047	800.000	0.047	0.133
-666.032	333.132	0.079	-0.152
-665.018	418.440	0.038	0.081
-664.003	121.165	0.152	-0.189
-662.989	115.888	0.097	0.118
-661.974	311.329	-0.043	-0.081
-660.959	217.907	-0.267	-0.425
-659.945	-152.258	-0.153	0.011
-658.930	-97.689	0.498	-0.128
-657.916	-108.752	0.045	0.010
-656.901	800.000	0.020	-0.078
-655.886	38.261	-0.089	0.079
-654.872	-117.913	0.197	-0.035
-653.857	-200.000	0.001	-0.067
-652.843	796.082	-0.019	-0.051
-651.828	-69.592	-0.159	-0.061
-650.814	71.927	0.153	-0.158
-649.799	218.455	-0.061	-0.098
-648.784	169.323	-0.020	-0.028
-647.770	627.457	-0.045	-0.113
-646.755	-92.644	-0.354	0.099
-645.741	405.372	-0.287	-0.602
-644.726	-74.240	-0.151	0.054
-643.711	-65.083	-0.389	0.156
-642.697	800.000	0.093	0.267
-641.682	172.381	0.100	0.143
-640.668	-159.138	0.152	-0.009
-639.653	256.490	-0.125	0.214
-638.638	800.000	-0.138	-0.402
-637.624	269.929	0.108	-0.189
-636.609	-200.000	0.015	-0.097
-635.595	-98.583	-0.158	0.040
-634.580	-31.911	0.105	0.059
-633.565	-43.626	0.219	-0.110
-632.551	72.733	-0.221	0.229
-631.536	800.000	0.080	0.232
-630.522	-200.000	-0.001	-0.183
-629.507	-200.000	0.008	0.131
-628.492	-98.331	-0.182	-0.046
-627.478	-200.000	0.015	0.251
-626.463	126.093	-0.107	-0.135
-625.449	800.000	0.091	0.255
-624.434	-30.894	-0.065	0.036
-623.419	69.189	-0.322	-0.329
-622.405	-25.585	0.161	0.094
-621.390	-108.857	-0.339	0.072
-620.376	-182.473	-0.248	0.005
-619.361	800.000	0.130	-0.423
-618.346	42.319	-0.395	0.357
-617.332	236.829	0.203	-0.334
-616.317	53.450	-0.073	-0.070
-615.303	-122.687	-0.138	-0.022
-614.288	-37.896	-0.184	0.097
-613.273	648.316	0.019	0.049
-612.259	35.921	-0.224	-0.196
-611.244	800.000	-0.025	0.089
-610.230	748.800	-0.191	0.513
-609.215	800.000	0.112	0.369
-608.201	-6.048	0.106	-0.072
-607.186	800.000	0.129	-0.448
-606.171	-200.000	-0.023	-0.314
-605.157	-10.338	-0.031	-0.020
-604.142	-81.660	0.056	-0.018
-603.128	800.000	-0.186	-0.556
-602.113	84.722	-0.033	-0.036
-601.098	252.836	0.016	-0.027
-600.084	51.484	0.039	0.036
-599.069	-55.211	-0.152	-0.068
-598.055	800.000	0.049	-0.168
-597.040	-200.000	0.028	0.151
-596.025	182.575	-0.054	-0.079
-595.011	-175.694	0.196	0.005
-593.996	181.865	0.180	-0.263
-592.982	99.652	0.081	-0.093
-591.967	326.697	-0.065	-0.123
-590.952	227.876	-0.030	0.048
-589.938	-67.572	-0.208	0.081
-588.923	-200.000	0.004	-0.153
-587.909	-111.656	-0.146	0.029
-586.894	36.415	-0.129	-0.113
-585.879	800.000	-0.093	-0.271
-584.865	-200.000	-0.024	0.262
-583.850	211.753	-0.114	0.178
-582.836	-71.487	0.172	-0.064
-581.821	-50.254	-0.226	-0.106
-580.806	40.075	-0.278	-0.248
-579.792	-60.758	-0.288	0.121
-578.777	172.145	0.142	0.203
-577.763	-88.805	-0.075	0.022
-576.748	800.000	0.024	-0.078
-575.733	-200.000	0.004	-0.122
-574.719	153.506	-0.011	0.014
-573.704	31.439	-0.253	-0.216
-572.690	2.466	-0.298	-0.214
-571.675	-47.722	0.136	0.066
-570.661	125.808	0.122	-0.153
-569.646	89.505	0.116	-0.128
-568.631	-78.735	-0.239	-0.081
-567.617	-60.314	-0.028	-0.012
-566.602	111.893	-0.179	0.214
-565.588	-39.646	-0.117	0.060
-564.573	686.128	0.087	-0.226
-563.558	800.000	0.070	-0.228
-562.544	-178.394	-0.413	0.010
-561.529	-200.000	-0.004	0.205
-560.515	-122.755	0.180	-0.029
-559.500	-18.359	0.212	-0.132
-558.485	-200.000	0.004	-0.090
-557.471	-130.648	0.097	0.013
-556.456	476.035	-0.060	-0.135
-555.442	-155.580	-0.166	-0.011
-554.427	-200.000	-0.006	-0.209
-553.412	-200.000	-0.048	-0.348
-552.398	-68.279	-0.467	-0.180
-551.383	373.237	0.048	0.096
-550.369	-169.155	0.139	0.005
-549.354	238.863	-0.080	0.132
-548.339	-113.459	-0.177	-0.034
-547.325	293.037	-0.065	-0.118
-546.310	800.000	0.028	0.106
-545.296	385.280	0.126	-0.257
-544.281	140.470	-0.095	-0.125
-543.266	-194.004	-0.368	-0.003
-542.252	-78.977	0.090	-0.030
-541.237	252.857	-0.321	0.543
-540.223	-57.018	0.142	-0.062
-539.208	-200.000	-0.002	-0.066
-538.193	130.182	-0.278	-0.353
-537.179	-200.000	-0.050	0.261
-536.164	495.682	0.044	-0.101
-535.150	800.000	-0.114	-0.314
-534.135	-98.755	0.127	-0.032
-533.121	800.000	-0.062	-0.232
-532.106	-155.657	0.288	0.018
-531.091	-32.702	0.081	-0.044
-530.077	-149.301	0.305	-0.024
-529.062	-17.346	-0.183	0.114
-528.048	-168.297	-0.274	-0.010
-527.033	173.010	-0.031	0.044
-526.018	-200.000	0.011	0.277
-525.004	-109.410	0.227	-0.048
-523.989	800.000	-0.072	-0.236
-522.975	67.981	-0.055	-0.056
-521.960	145.492	-0.147	0.195
-520.945	-54.013	-0.188	0.085
-519.931	-200.000	0.008	0.200
-518.916	-200.000	0.093	-0.408
-517.902	-77.362	-0.126	-0.043
-516.887	643.299	-0.060	0.153
-515.872	86.280	0.039	-0.042
-514.858	723.991	-0.044	-0.116
-513.843	124.977	0.101	-0.126
-512.829	-200.000	-0.004	0.207
-511.814	784.528	0.136	0.368
-510.799	167.501	-0.168	0.236
-509.785	370.550	0.014	-0.028
-508.770	-200.000	0.058	-0.264
-507.756	800.000	-0.079	0.220
-506.741	100.747	0.181	-0.208
-505.726	222.994	0.191	-0.305
-504.712	800.000	-0.067	-0.222
-503.697	234.759	-0.094	-0.154
-502.683	72.930	0.362	-0.374
-501.668	-51.331	-0.209	0.097
-500.653	-106.096	-0.012	-0.003
-499.639	-200.000	0.017	0.188
-498.624	-114.929	0.170	0.032
-497.610	-200.000	0.008	0.305
-496.595	-113.637	-0.161	0.031
-495.581	-17.556	-0.119	0.074
-494.566	22.421	0.122	0.099
-493.551	-157.092	0.434	0.026
-492.537	159.443	0.166	0.228
-491.522	800.000	0.034	-0.098
-490.508	-112.174	-0.451	0.090
-489.493	-10.549	0.219	-0.143
-488.478	-200.000	0.005	-0.116
-487.464	-164.233	-0.106	-0.005
-486.449	-177.056	0.224	-0.006
-485.435	-39.847	-0.077	0.040
-484.420	29.260	0.123	0.103
-483.405	445.325	-0.089	0.193
-482.391	-99.642	-0.547	0.136
-481.376	-47.123	0.197	-0.095
-480.362	-31.317	-0.265	0.148
-479.347	800.000	-0.064	0.192
-478.332	-49.294	0.275	-0.130
-477.318	140.104	-0.031	0.040
-476.303	-174.618	0.246	0.007
-475.289	-200.000	0.008	-0.111
-474.274	-73.152	0.094	-0.034
-473.259	504.709	-0.178	0.408
-472.245	-54.960	0.146	-0.065
-471.230	760.550	0.087	0.233
-470.216	-121.866	0.281	-0.046
-469.201	-123.865	-0.046	-0.007
-468.186	54.667	-0.120	-0.114
-467.172	-200.000	0.008	-0.210
-466.157	-64.652	0.270	-0.108
-465.143	-34.640	-0.249	0.135
-464.128	-88.885	-0.184	-0.054
-463.113	-105.937	-0.391	-0.087
-462.099	-22.112	0.121	-0.073
-461.084	92.349	-0.032	-0.036
-460.070	-31.532	-0.228	0.126
-459.055	280.846	-0.098	0.172
-458.040	363.719	0.060	0.119
-457.026	83.302	0.125	-0.135
-456.011	-200.000	-0.019	-0.195
-454.997	-11.199	0.153	-0.099
-453.982	352.244	0.189	-0.369
-452.968	-30.688	0.063	-0.035
-451.953	-124.171	-0.181	-0.028
-450.938	0.198	0.190	0.134
-449.924	-11.073	0.267	-0.174
-448.909	34.631	0.162	0.139
-447.895	-200.000	0.046	0.332
-446.880	56.206	-0.031	0.029
-445.865	-200.000	0.006	-0.114
-444.851	-126.157	-0.270	0.040
-443.836	615.342	0.095	0.234
-442.822	-200.000	-0.024	0.130
-441.807	-200.000	0.016	0.198
-440.792	-117.864	-0.087	0.015
-439.778	670.260	0.112	0.287
-438.763	800.000	0.066	-0.211
-437.749	-178.047	0.156	0.004
-436.734	-73.050	-0.178	0.064
-435.719	330.389	-0.094	0.179
-434.705	-22.657	-0.171	-0.102
-433.690	-200.000	0.010	0.178
-432.676	106.330	-0.065	-0.076
-431.661	292.972	-0.168	-0.302
-430.646	-125.087	-0.103	0.016
-429.632	-200.000	0.022	0.282
-428.617	-200.000	-0.012	0.218
-427.603	-73.821	0.176	-0.063
-426.588	-123.467	0.163	0.026
-425.573	183.511	0.163	0.237
-424.559	492.854	-0.164	0.370
-423.544	23.862	-0.184	-0.150
-422.530	-144.150	0.179	-0.017
-421.515	202.046	-0.099	0.150
-420.500	-103.209	-0.077	-0.018
-419.486	634.053	0.152	-0.381
-418.471	147.064	0.188	0.250
-417.457	-200.000	0.014	0.268
-416.442	79.461	-0.055	0.058
-415.428	60.080	0.115	-0.112
-414.413	612.861	-0.110	0.271
-413.398	-99.880	0.533	-0.131
-412.384	-25.031	0.219	0.128
-411.369	-56.293	0.219	-0.096
-410.355	-200.000	0.032	0.167
-409.340	-200.000	-0.050	-0.224
-408.325	-200.000	0.038	-0.283
-407.311	310.365	0.110	-0.203
-406.296	-39.532	0.184	-0.095
-405.282	679.100	0.101	-0.258
-404.267	442.128	-0.052	-0.113
-403.252	338.480	-0.069	-0.132
-402.238	-128.552	0.276	-0.039
-401.223	-98.572	-0.202	-0.051
-400.209	-78.201	0.272	0.092
-399.194	-92.802	-0.268	-0.074
-398.179	-200.000	0.007	0.108
-397.165	23.317	0.146	-0.118
-396.150	-145.258	-0.180	0.016
-395.136	-62.097	-0.213	0.088
-394.121	133.364	0.110	0.140
-393.106	44.995	0.376	0.341
-392.092	715.363	0.057	0.148
-391.077	-133.183	0.179	-0.022
-390.063	143.401	-0.098	-0.128
-389.048	32.396	-0.046	0.039
-388.033	800.000	0.090	0.354
-387.019	-21.397	0.246	-0.148
-386.004	-60.053	0.414	0.174
-384.990	-167.983	0.198	-0.008
-383.975	88.068	0.073	0.080
-382.960	-171.457	0.301	0.010
-381.946	-28.411	-0.055	0.031
-380.931	12.346	0.323	0.245
-379.917	-200.000	-0.006	0.133
-378.902	-63.827	-0.347	-0.140
-377.888	198.124	-0.136	0.205
-376.873	620.274	-0.062	0.153
-375.858	-63.231	0.095	-0.039
-374.844	186.321	-0.150	0.219
-373.829	-140.075	0.150	-0.016
-372.815	-18.062	0.245	-0.151
-371.800	-55.276	-0.470	-0.208
-370.785	800.000	0.052	0.201
-369.771	83.786	-0.219	-0.235
-368.756	-10.290	0.149	0.097
-367.742	800.000	0.092	-0.370
-366.727	-200.000	-0.033	0.222
-365.712	126.137	0.067	0.083
-364.698	-200.000	0.009	-0.197
-363.683	-56.981	0.349	-0.151
-362.669	193.986	-0.116	0.173
-361.654	-152.740	-0.346	0.024
-360.639	118.998	0.159	0.194
-359.625	-89.647	0.079	-0.023
-358.610	-200.000	-0.046	-0.296
-357.596	800.000	0.038	-0.109
-356.581	-200.000	0.000	0.176
-355.566	284.000	-0.074	0.131
-354.552	-131.552	0.178	0.023
-353.537	-200.000	0.066	-0.367
-352.523	249.758	0.179	0.298
-351.508	310.845	-0.031	0.056
-350.493	-71.437	0.190	0.070
-349.479	800.000	0.079	-0.330
-348.464	173.416	-0.201	-0.285
-347.450	1.142	0.254	0.179
-346.435	372.863	0.115	-0.229
-345.420	800.000	0.085	0.288
-344.406	800.000	0.024	0.089
-343.391	0.554	-0.014	-0.010
-342.377	-78.186	0.127	-0.043
-341.362	18.715	-0.429	0.337
-340.348	7.681	-0.296	0.218
-339.333	800.000	-0.052	0.145
-338.318	9.596	0.202	0.151
-337.304	-64.333	-0.119	0.048
-336.289	-147.020	0.100	0.008
-335.275	283.587	-0.140	-0.246
-334.260	1.179	-0.009	-0.006
-333.245	-43.042	-0.333	-0.166
-332.231	-123.408	0.037	-0.006
-331.216	85.147	-0.079	0.085
-330.202	-58.109	-0.147	0.063
-329.187	-200.000	-0.030	0.385
-328.172	800.000	-0.049	0.192
-327.158	22.655	0.154	-0.124
-326.143	-115.183	0.083	0.016
-325.129	2.332	-0.312	0.222
-324.114	462.730	-0.012	0.026
-323.099	-118.021	0.197	-0.035
-322.085	36.940	-0.294	0.255
-321.070	462.477	-0.058	0.128
-320.056	-200.000	0.018	-0.180
-319.041	-81.558	-0.193	-0.062
-318.026	325.806	-0.123	0.232
-317.012	33.906	-0.199	-0.170
-315.997	35.768	-0.296	0.255
-314.983	-147.424	-0.133	-0.011
-313.968	151.343	-0.080	0.107
-312.953	495.265	0.069	-0.157
-311.939	-6.806	-0.146	-0.097
-310.924	-57.216	0.310	-0.134
-309.910	-32.307	-0.104	0.057
-308.895	125.592	0.178	0.220
-307.880	-200.000	0.051	-0.268
-306.866	229.919	-0.139	-0.224
-305.851	86.457	-0.261	-0.283
-304.837	-162.362	0.150	0.007
-303.822	-47.027	-0.250	0.120
-302.807	-132.692	-0.227	0.029
-301.793	-109.264	-0.367	0.076
-300.778	-80.701	0.204	0.067
-299.764	-33.339	-0.340	-0.185
-298.749	465.296	-0.158	-0.347
-297.735	-200.000	0.326	-0.001
-296.720	-149.775	0.205	0.016
-295.705	106.617	0.172	-0.200
-294.691	220.522	-0.043	-0.067
-293.676	6.634	0.168	-0.123
-292.662	-100.201	0.260	-0.063
-291.647	129.405	-0.138	0.173
-290.632	246.460	0.134	0.221
-289.618	800.000	-0.131	0.355
-288.603	43.456	0.481	-0.431
-287.589	-99.169	-0.176	-0.044
-286.574	-67.140	0.132	0.051
-285.559	294.857	-0.008	0.014
-284.545	-200.000	-0.008	0.219
-283.530	32.243	-0.283	-0.239
-282.516	214.439	0.099	0.153
-281.501	114.721	0.130	0.155
-280.486	173.038	0.054	-0.077
-279.472	-200.000	-0.010	0.204
-278.457	151.692	-0.164	-0.220
-277.443	-175.142	0.111	-0.003
-276.428	-26.614	-0.245	0.141
-275.413	-124.632	0.226	0.034
-274.399	57.313	0.050	-0.048
-273.384	-75.985	0.153	0.053
-272.370	-103.097	0.474	0.110
-271.355	-200.000	0.002	-0.044
-270.340	487.690	-0.098	0.220
-269.326	-108.827	0.431	0.090
-268.311	-30.942	-0.332	0.184
-267.297	-200.000	0.001	0.100
-266.282	-140.019	0.221	-0.023
-265.267	99.505	0.116	-0.132
-264.253	-104.164	0.312	-0.071
-263.238	87.073	0.158	0.171
-262.224	419.358	0.072	0.151
-261.209	800.000	0.076	0.231
-260.195	24.279	-0.266	-0.216
-259.180	26.379	0.179	0.147
-258.165	178.557	-0.070	0.100
-257.151	463.486	-0.029	-0.064
-256.136	-109.386	0.188	0.039
-255.122	1.535	-0.049	-0.034
-254.107	-35.780	0.137	0.073
-253.092	97.449	0.295	0.331
-252.078	176.766	-0.148	0.211
-251.063	203.863	0.138	-0.209
-250.049	53.015	0.129	-0.121
-249.034	752.800	0.040	0.106
-248.019	-17.841	0.388	0.238
-247.005	-51.727	-0.104	0.048
-245.990	179.551	-0.005	0.007
-244.976	-78.646	0.214	0.072
-243.961	-45.102	-0.132	0.064
-242.946	339.074	-0.074	-0.140
-241.932	92.255	-0.048	-0.053
-240.917	33.376	0.234	-0.199
-239.903	-118.054	0.287	0.050
-238.888	-35.422	0.381	-0.203
-237.873	150.563	0.158	-0.210
-236.859	-200.000	0.398	-0.001
-235.844	213.447	0.027	-0.042
-234.830	-181.557	-0.441	0.008
-233.815	-49.576	-0.031	0.014
-232.800	114.024	-0.181	0.216
-231.786	-62.958	0.136	-0.055
-230.771	46.951	-0.206	0.187
-229.757	3.337	0.129	0.092
-228.742	221.877	-0.139	0.219
-227.727	-200.000	0.013	0.128
-226.713	-107.897	-0.178	-0.038
-225.698	800.000	0.135	-0.416
-224.684	-43.746	0.095	0.047
-223.669	-142.994	0.433	0.041
-222.655	-133.144	-0.236	-0.029
-221.640	-200.000	-0.001	0.127
-220.625	-39.953	-0.185	-0.094
-219.611	-35.252	0.042	-0.022
-218.596	-37.975	0.160	-0.083
-217.582	800.000	-0.082	-0.338
-216.567	-103.213	0.035	0.008
-215.552	-200.000	0.025	-0.429
-214.538	800.000	0.058	-0.207
-213.523	531.627	-0.072	0.167
-212.509	-6.156	-0.165	0.110
-211.494	322.787	0.151	0.281
-210.479	800.000	0.109	0.344
-209.465	800.000	-0.060	0.256
-208.450	-84.615	0.073	-0.023
-207.436	800.000	-0.058	-0.216
-206.421	-200.000	0.035	0.245
-205.406	-122.303	-0.165	0.026
-204.392	-151.095	0.184	-0.014
-203.377	5.589	-0.162	-0.117
-202.363	-27.126	-0.030	0.017
-201.348	118.717	-0.159	-0.192
-200.333	-139.376	0.191	-0.020
-199.319	800.000	0.065	-0.234
-198.304	115.385	-0.095	0.113
-197.290	800.000	0.067	0.190
-196.275	-7.086	0.200	-0.133
-195.260	141.368	-0.260	0.337
-194.246	-26.685	0.157	0.090
-193.231	127.986	0.055	-0.069
-192.217	800.000	-0.047	-0.141
-191.202	-13.898	0.177	-0.112
-190.187	3.514	-0.237	-0.169
-189.173	-12.644	-0.280	0.179
-188.158	-141.563	0.200	0.020
-187.144	427.002	0.072	0.152
-186.129	3.485	0.199	-0.142
-185.114	-32.730	-0.261	0.142
-184.100	-113.765	-0.285	0.054
-183.085	800.000	-0.046	-0.166
-182.071	53.307	0.074	0.069
-181.056	-109.552	0.430	0.089
-180.042	167.953	-0.177	-0.245
-179.027	-95.968	0.241	0.063
-178.012	-200.000	-0.029	0.170
-176.998	-26.010	-0.146	0.084
-175.983	438.849	-0.133	-0.284
-174.969	745.630	0.074	0.194
-173.954	50.753	0.018	-0.016
-172.939	-200.000	0.026	0.241
-171.925	-39.874	0.303	-0.155
-170.910	-94.985	0.326	0.086
-169.896	-200.000	-0.035	-0.211
-168.881	-48.540	0.228	0.107
-167.866	-200.000	-0.012	0.136
-166.852	154.017	-0.157	-0.210
-165.837	-34.075	0.173	0.093
-164.823	-179.074	-0.395	0.009
-163.808	-38.445	-0.182	-0.094
-162.793	-123.852	-0.177	-0.027
-161.779	68.379	0.176	0.176
-160.764	578.688	0.118	-0.282
-159.750	800.000	-0.121	-0.341
-158.735	-200.000	0.061	-0.277
-157.720	55.248	-0.287	0.271
-156.706	15.305	-0.237	0.181
-155.691	-119.870	0.511	0.086
-154.677	-145.662	0.365	0.032
-153.662	285.354	-0.071	-0.125
-152.647	-25.130	-0.440	-0.254
-151.633	800.000	-0.041	-0.127
-150.618	472.362	0.024	-0.054
-149.604	4.317	-0.317	0.226
-148.589	77.467	-0.174	-0.181
-147.574	-200.000	0.013	0.270
-146.560	272.447	0.006	0.011
-145.545	-140.735	0.083	-0.008
-144.531	800.000	0.026	0.081
-143.516	-200.000	-0.000	-0.175
-142.502	26.715	-0.262	0.214
-141.487	-48.131	-0.116	0.055
-140.472	-200.000	0.032	-0.172
-139.458	301.724	0.123	0.222
-138.443	-81.120	-0.135	0.044
-137.429	157.886	0.192	0.260
-136.414	-7.350	0.155	-0.102
-135.399	-200.000	0.045	0.267
-134.385	483.914	0.045	-0.100
-133.370	-200.000	0.008	0.100
-132.356	800.000	-0.050	0.185
-131.341	157.728	-0.208	0.281
-130.326	-24.553	-0.137	-0.079
-129.312	18.286	0.187	-0.146
-128.297	-79.564	0.080	0.026
-127.283	800.000	-0.087	0.331
-126.268	16.733	0.476	-0.367
-125.253	800.000	-0.052	0.219
-124.239	81.488	0.216	0.227
-123.224	320.774	0.028	-0.053
-122.210	-200.000	0.071	-0.350
-121.195	-51.001	0.066	0.030
-120.180	-200.000	0.012	0.079
-119.166	268.686	0.085	-0.146
-118.151	-200.000	0.302	0.000
-117.137	-200.000	0.008	0.258
-116.122	-200.000	-0.063	0.301
-115.107	21.519	0.241	-0.191
-114.093	-76.855	0.192	-0.065
-113.078	-102.022	0.236	0.055
-112.064	460.018	-0.149	0.324
-111.049	-49.915	0.107	-0.050
-110.034	-126.287	-0.094	0.014
-109.020	-14.225	-0.050	0.032
-108.005	-200.000	0.015	0.142
-106.991	27.221	0.266	0.218
-105.976	-200.000	0.055	-0.324
-104.962	-43.596	-0.054	0.027
-103.947	143.283	-0.135	-0.175
-102.932	248.324	-0.148	-0.243
-101.918	-200.000	0.047	-0.214
-100.903	-200.000	-0.021	0.112
-99.889	445.408	0.051	0.108
-98.874	-39.780	-0.160	-0.081
-97.859	7.806	0.167	-0.122
-96.845	-116.159	-0.523	-0.095
-95.830	-24.147	0.110	-0.064
-94.816	-200.000	-0.027	0.242
-93.801	-98.014	0.147	-0.037
-92.786	519.758	-0.108	0.247
-91.772	159.000	0.096	0.130
-90.757	-200.000	-0.005	-0.033
-89.743	3.191	-0.037	0.026
-88.728	-86.656	0.166	0.049
-87.713	551.401	-0.149	-0.349
-86.699	31.498	0.162	-0.136
-85.684	-32.873	0.333	0.180
-84.670	-119.271	-0.407	-0.069
-83.655	660.243	0.041	-0.102
-82.640	605.232	0.083	-0.202
-81.626	-39.410	0.074	-0.038
-80.611	158.757	-0.210	0.283
-79.597	-73.451	-0.082	0.029
-78.582	58.992	0.030	0.029
-77.567	377.656	0.136	-0.270
-76.553	398.742	-0.211	-0.430
-75.538	177.867	0.164	-0.232
-74.524	-55.751	-0.337	-0.146
-73.509	179.437	-0.058	-0.083
-72.494	-200.000	0.388	-0.001
-71.480	-200.000	0.002	0.286
-70.465	107.099	0.202	0.234
-69.451	-32.416	0.111	0.060
-68.436	314.445	0.159	0.291
-67.422	93.158	-0.239	0.263
-66.407	-200.000	0.006	-0.129
-65.392	-121.186	0.426	0.069
-64.378	800.000	-0.045	0.145
-63.363	-82.717	0.359	-0.113
-62.349	-51.386	-0.191	-0.087
-61.334	181.378	-0.725	-1.036
-60.319	309.050	0.489	0.888
-59.305	800.000	-0.548	-1.506
-58.290	800.000	0.508	1.528
-57.276	800.000	0.453	1.754
-56.261	-200.000	122.568	649.466
-55.246	435.153	1546.877	3269.570
-54.232	146.375	2710.538	3537.042
-53.217	92.361	2286.258	2504.848
-52.203	33.004	1899.934	1599.803
-51.188	26.981	1697.070	1383.199
-50.173	24.688	1658.407	1334.532
-49.159	45.939	1726.269	1552.094
-48.144	43.946	1737.884	1547.283
-47.130	26.525	1689.694	1373.506
-46.115	23.924	1674.735	1341.696
-45.100	23.810	1669.342	1336.470
-44.086	23.911	1666.724	1335.077
-43.071	23.826	1664.649	1332.725
-42.057	23.864	1662.112	1330.924
-41.042	23.835	1660.432	1329.311
-40.027	23.778	1658.314	1327.137
-39.013	23.748	1656.663	1325.538
-37.998	23.757	1655.072	1324.280
-36.984	23.800	1654.152	1323.813
-35.969	23.879	1652.329	1322.891
-34.954	23.924	1650.889	1322.017
-33.940	23.900	1649.076	1320.338
-32.925	23.888	1647.426	1318.875
-31.911	23.917	1645.734	1317.682
-30.896	23.898	1644.355	1316.387
-29.881	23.996	1642.199	1315.330
-28.867	23.983	1640.421	1313.761
-27.852	23.922	1639.463	1312.491
-26.838	23.975	1637.821	1311.509
-25.823	23.963	1636.922	1310.650
-24.809	24.005	1635.270	1309.589
-23.794	23.966	1634.132	1308.336
-22.779	23.922	1633.298	1307.292
-21.765	23.985	1631.023	1305.884
-20.750	23.936	1629.629	1304.357
-19.736	23.975	1627.937	1303.234
-18.721	23.921	1627.253	1302.243
-17.706	24.023	1625.058	1301.177
-16.692	23.974	1623.575	1299.585
-15.677	24.009	1622.236	1298.714
-14.663	24.038	1620.498	1297.481
-13.648	24.022	1619.715	1296.689
-12.633	23.887	1618.606	1294.768
-11.619	23.985	1616.693	1293.893
-10.604	23.964	1615.186	1292.487
-9.590	23.973	1613.790	1291.386
-8.575	24.003	1612.365	1290.406
-7.560	24.002	1611.313	1289.510
-6.546	23.965	1610.283	1288.366
-5.531	23.993	1609.662	1288.020
-4.517	23.998	1607.931	1286.620
-3.502	23.992	1606.788	1285.610
-2.487	24.097	1605.131	1284.993
-1.473	23.606	1592.948	1271.669
-0.458	20.527	1573.514	1234.275
0.556	15.973	1574.597	1202.252
1.571	13.641	1598.249	1203.292
2.586	13.294	1610.766	1210.068
3.600	12.322	1556.349	1162.207
4.615	7.058	1450.758	1048.460
5.629	1.801	1392.071	972.468
6.644	0.818	1384.693	960.984
7.659	0.765	1383.400	959.668
8.673	0.744	1383.140	959.270
9.688	0.772	1380.590	957.595
10.702	0.592	1376.986	953.870
11.717	3.163	1380.536	972.510
12.731	9.845	1391.332	1022.479
13.746	15.618	1398.861	1064.593
14.761	17.199	1401.272	1076.361
15.775	16.728	1398.841	1071.420
16.790	15.803	1395.947	1063.261
17.804	14.928	1394.271	1056.368
18.819	14.653	1392.540	1053.225
19.834	14.361	1391.485	1050.496
20.848	14.046	1390.462	1047.646
21.863	13.870	1388.789	1045.187
22.877	13.784	1387.306	1043.434
23.892	13.635	1386.704	1041.951
24.907	13.622	1385.974	1041.233
25.921	13.617	1385.236	1040.552
26.936	13.680	1384.384	1040.220
27.950	13.736	1383.241	1039.616
28.965	13.767	1382.368	1039.063
29.980	13.763	1381.676	1038.423
30.994	13.904	1379.796	1037.801
32.009	13.883	1379.403	1037.285
33.023	13.893	1377.825	1036.064
34.038	13.931	1376.439	1035.168
35.053	13.800	1375.432	1033.508
36.067	13.778	1374.834	1032.826
37.082	13.741	1373.995	1031.878
38.096	13.763	1372.866	1031.072
39.111	13.824	1371.882	1030.624
40.126	13.730	1371.183	1029.425
41.140	13.687	1370.280	1028.386
42.155	13.664	1369.669	1027.694
43.169	13.684	1369.375	1027.506
44.184	13.595	1369.598	1027.029
45.199	13.567	1369.061	1026.367
46.213	13.707	1368.236	1026.522
47.228	13.750	1367.151	1025.883
48.242	13.738	1366.076	1024.913
49.257	13.849	1364.128	1024.043
50.271	13.710	1363.469	1022.602
51.286	13.761	1361.932	1021.671
52.301	13.736	1360.500	1020.352
53.315	13.736	1359.689	1019.656
54.330	13.790	1358.435	1018.957
55.344	13.700	1356.798	1017.088
56.359	13.696	1356.347	1016.637
57.374	13.670	1355.650	1015.864
58.388	13.644	1354.656	1014.871
59.403	13.659	1353.527	1014.026
60.417	13.521	1353.427	1013.014
61.432	13.644	1352.302	1012.836
62.447	13.573	1350.979	1011.325
63.461	13.511	1349.977	1010.102
64.476	13.505	1349.064	1009.293
65.490	13.594	1347.432	1008.526
66.505	13.588	1345.815	1007.192
67.520	13.683	1344.594	1006.763
68.534	13.693	1343.161	1005.661
69.549	13.688	1342.302	1004.903
70.563	13.552	1341.690	1003.528
71.578	13.535	1340.397	1002.372
72.593	13.539	1339.282	1001.474
73.607	13.530	1339.017	1001.133
74.622	13.503	1338.183	1000.255
75.636	13.545	1336.967	999.511
76.651	13.598	1336.029	999.042
77.666	13.532	1335.889	998.450
78.680	13.534	1335.134	997.813
79.695	13.498	1334.655	997.150
80.709	13.594	1333.621	996.863
81.724	13.555	1332.663	995.826
82.739	13.582	1331.691	995.176
83.753	13.702	1330.810	995.147
84.768	13.775	1329.352	994.405
85.782	13.758	1328.191	993.349
86.797	13.758	1326.979	992.355
87.812	13.666	1326.123	991.076
88.826	13.662	1325.128	990.220
89.841	13.752	1323.197	989.227
90.855	13.845	1322.153	988.915
91.870	13.881	1321.474	988.530
92.884	13.729	1321.121	987.277
93.899	13.916	1319.882	987.376
94.914	13.870	1319.528	986.748
95.928	13.794	1318.425	985.385
96.943	13.855	1317.657	985.086
97.957	13.732	1316.958	983.746
98.972	13.884	1315.543	983.503
99.987	13.887	1314.242	982.460
101.001	13.748	1313.731	981.172
102.016	13.818	1312.706	980.730
103.030	13.726	1311.905	979.506
104.045	13.826	1311.078	979.390
105.060	13.780	1309.879	978.134
106.074	13.701	1308.801	976.779
107.089	13.700	1307.012	975.350
108.103	13.703	1306.268	974.725
109.118	13.768	1304.550	973.739
110.133	13.752	1302.762	972.227
111.147	13.692	1302.164	971.343
112.162	13.783	1300.284	970.389
113.176	13.742	1299.691	969.619
114.191	13.719	1298.664	968.632
115.206	13.670	1297.598	967.467
116.220	13.729	1296.437	966.858
117.235	13.745	1295.348	966.053
118.249	13.754	1294.237	965.191
119.264	13.700	1293.178	964.003
120.279	13.751	1292.049	963.372
121.293	13.677	1290.841	961.956
122.308	13.702	1289.885	961.305
123.322	13.697	1288.626	960.250
124.337	13.693	1287.991	959.672
125.352	13.632	1286.741	958.303
126.366	13.735	1285.503	957.890
127.381	13.711	1284.423	956.862
128.395	13.683	1283.238	955.735
129.410	13.639	1282.222	954.637
130.424	13.662	1281.609	954.231
131.439	13.751	1280.056	953.500
132.454	13.764	1279.429	953.025
133.468	13.710	1278.888	952.228
134.483	13.710	1278.106	951.561
135.497	13.740	1277.193	950.970
136.512	13.736	1275.780	949.808
137.527	13.704	1274.171	948.347
138.541	13.738	1272.520	947.229
139.556	13.710	1271.400	946.147
140.570	13.843	1270.513	946.163
141.585	13.850	1269.321	945.234
142.600	13.797	1267.967	943.841
143.614	13.866	1267.014	943.439
144.629	13.985	1265.632	943.000
145.643	13.928	1264.703	941.903
146.658	13.881	1263.211	940.441
147.673	13.870	1261.902	939.324
148.687	13.852	1261.186	938.602
149.702	13.866	1259.052	937.011
150.716	13.832	1258.462	936.295
151.731	13.757	1257.341	934.955
152.746	13.856	1256.107	934.516
153.760	13.857	1254.876	933.522
154.775	13.892	1253.512	932.620
155.789	13.915	1252.594	931.984
156.804	14.030	1251.252	931.550
157.819	14.066	1249.911	930.670
158.833	14.041	1249.567	930.188
159.848	14.062	1248.401	929.357
160.862	14.034	1247.410	928.379
161.877	14.061	1246.231	927.572
162.892	14.032	1245.304	926.641
163.906	13.979	1244.749	925.848
164.921	14.115	1243.260	925.416
165.935	14.003	1242.642	924.249
166.950	14.043	1242.367	924.190
167.964	14.122	1241.240	923.704
168.979	14.146	1240.461	923.177
169.994	14.235	1239.581	922.933
171.008	14.117	1238.677	921.527
172.023	13.948	1238.378	920.285
173.037	14.170	1236.899	920.336
174.052	14.140	1236.280	919.628
175.067	14.186	1234.682	918.609
176.081	14.087	1234.289	917.688
177.096	13.983	1233.570	916.499
178.110	14.235	1231.615	916.355
179.125	14.188	1230.718	915.345
180.140	14.114	1229.596	914.023
181.154	14.132	1228.506	913.233
182.169	14.096	1227.616	912.293
183.183	14.288	1226.041	912.092
184.198	14.288	1224.371	910.772
185.213	14.318	1223.342	910.089
186.227	14.393	1222.292	909.637
187.242	14.390	1221.795	909.170
188.256	14.386	1220.384	908.017
189.271	14.381	1219.277	907.086
190.286	14.236	1218.820	905.878
191.300	14.169	1217.917	904.761
192.315	14.178	1217.301	904.273
193.329	14.149	1216.962	903.784
194.344	14.322	1215.741	903.735
195.359	14.337	1215.260	903.379
196.373	14.389	1214.444	902.975
197.388	14.377	1214.316	902.733
198.402	14.409	1213.863	902.490
199.417	14.556	1212.505	902.195
200.432	14.520	1211.760	901.369
201.446	14.568	1211.024	900.999
202.461	14.504	1210.190	899.954
203.475	14.699	1208.990	900.032
204.490	14.500	1208.023	898.161
205.504	14.483	1206.935	897.183
206.519	14.566	1205.779	896.690
207.534	14.633	1204.397	895.940
208.548	14.446	1203.754	894.380
209.563	14.479	1202.837	893.798
210.577	14.610	1201.589	893.494
211.592	14.665	1200.815	893.131
212.607	14.668	1200.095	892.533
213.621	14.701	1199.264	892.015
214.636	14.646	1198.467	891.048
215.650	14.690	1197.351	890.375
216.665	14.787	1196.088	889.871
217.680	14.814	1195.433	889.453
218.694	14.789	1194.450	888.509
219.709	14.668	1194.041	887.480
220.723	14.757	1193.037	887.131
221.738	14.815	1192.270	886.791
222.753	14.761	1191.777	886.056
223.767	14.801	1190.893	885.531
224.782	14.858	1190.103	885.170
225.796	14.921	1189.583	885.035
226.811	14.911	1189.070	884.522
227.826	14.842	1188.420	883.598
228.840	14.926	1187.089	882.974
229.855	14.872	1186.670	882.299
230.869	14.752	1186.059	881.133
231.884	14.934	1184.762	881.054
232.899	14.869	1184.162	880.186
233.913	14.840	1183.707	879.618
234.928	14.953	1182.856	879.503
235.942	14.882	1182.017	878.423
236.957	14.779	1181.133	877.148
237.972	14.840	1180.593	876.990
238.986	14.862	1180.017	876.600
240.001	14.849	1179.003	875.703
241.015	15.039	1178.078	875.931
242.030	14.853	1177.627	874.548
243.045	15.046	1176.604	874.720
244.059	15.018	1175.953	874.010
245.074	15.040	1174.924	873.284
246.088	15.033	1174.424	872.796
247.103	15.062	1173.455	872.150
248.117	15.267	1172.241	872.240
249.132	15.188	1172.087	871.636
250.147	15.272	1170.914	871.122
251.161	15.249	1170.226	870.413
252.176	15.379	1169.923	870.788
253.190	15.312	1169.356	869.942
254.205	15.352	1168.275	869.268
255.220	15.405	1167.970	869.240
256.234	15.341	1167.176	868.237
257.249	15.384	1166.724	868.048
258.263	15.409	1165.977	867.542
259.278	15.401	1164.804	866.552
260.293	15.318	1164.676	865.954
261.307	15.484	1163.827	866.102
262.322	15.491	1163.271	865.645
263.336	15.535	1162.401	865.150
264.351	15.455	1162.071	864.413
265.366	15.504	1161.300	864.016
266.380	15.672	1160.453	864.176
267.395	15.550	1159.649	862.870
268.409	15.635	1159.042	862.779
269.424	15.541	1158.510	861.826
270.439	15.553	1158.155	861.548
271.453	15.546	1157.353	860.837
272.468	15.455	1156.442	859.620
273.482	15.571	1155.477	859.418
274.497	15.547	1155.386	859.151
275.512	15.540	1154.462	858.352
276.526	15.624	1153.492	857.987
277.541	15.507	1153.087	857.013
278.555	15.575	1152.642	856.950
279.570	15.741	1151.168	856.628
280.585	15.822	1150.333	856.343
281.599	15.651	1149.710	854.934
282.614	15.700	1148.716	854.365
283.628	15.772	1147.679	853.882
284.643	15.642	1147.309	852.876
285.657	15.789	1145.893	852.491
286.672	15.829	1145.116	852.042
287.687	15.710	1144.195	850.677
288.701	15.836	1143.480	850.706
289.716	15.918	1142.658	850.433
290.730	15.747	1142.151	849.117
291.745	15.785	1141.698	848.900
292.760	15.802	1140.933	848.338
293.774	15.843	1140.090	847.846
294.789	15.892	1139.882	847.861
295.803	16.015	1138.777	847.582
296.818	15.955	1138.312	846.864
297.833	15.928	1137.323	845.917
298.847	15.938	1136.153	845.022
299.862	16.012	1135.449	844.793
300.876	15.941	1135.192	844.170
301.891	16.109	1134.405	844.352
302.906	16.082	1133.714	843.630
303.920	16.130	1132.791	843.106
304.935	16.107	1132.423	842.642
305.949	16.292	1131.339	842.685
306.964	16.189	1131.158	841.964
307.979	16.211	1130.424	841.452
308.993	16.225	1129.305	840.612
310.008	16.222	1128.733	840.099
311.022	16.279	1127.969	839.737
312.037	16.347	1126.709	839.065
313.052	16.230	1126.413	838.190
314.066	16.338	1125.051	837.638
315.081	16.282	1124.218	836.664
316.095	16.238	1123.542	835.869
317.110	16.158	1123.128	835.093
318.125	16.114	1122.467	834.310
319.139	16.177	1121.481	833.811
320.154	16.298	1120.906	833.911
321.168	16.205	1120.371	832.977
322.183	16.184	1119.863	832.423
323.197	16.281	1119.278	832.394
324.212	16.289	1118.328	831.651
325.227	16.362	1117.940	831.649
326.241	16.266	1117.110	830.487
327.256	16.350	1116.623	830.466
328.270	16.319	1115.533	829.428
329.285	16.394	1114.411	828.889
330.300	16.433	1113.858	828.593
331.314	16.504	1112.001	827.486
332.329	16.348	1111.590	826.346
333.343	16.354	1110.543	825.525
334.358	16.439	1110.031	825.484
335.373	16.494	1109.457	825.253
336.387	16.497	1108.746	824.666
337.402	16.489	1107.950	823.964
338.416	16.508	1107.198	823.420
339.431	16.627	1106.531	823.434
340.446	16.638	1105.883	822.934
341.460	16.509	1105.210	821.728
342.475	16.716	1104.184	821.899
343.489	16.645	1103.330	820.847
344.504	16.705	1102.147	820.184
345.519	16.858	1101.006	820.002
346.533	16.771	1100.802	819.356
347.548	16.858	1100.013	819.119
348.562	16.745	1099.643	818.228
349.577	16.793	1098.556	817.577
350.592	16.713	1097.904	816.634
351.606	16.796	1096.697	816.061
352.621	16.778	1096.081	815.447
353.635	16.814	1095.463	815.085
354.650	16.825	1094.816	814.585
355.665	16.777	1094.080	813.733
356.679	16.795	1093.711	813.473
357.694	16.889	1093.052	813.363
358.708	16.849	1092.533	812.715
359.723	16.887	1091.631	812.152
360.738	16.971	1090.827	811.887
361.752	16.863	1090.495	811.050
362.767	16.911	1089.700	810.618
363.781	16.914	1089.345	810.296
364.796	16.902	1088.886	809.825
365.810	17.084	1087.867	809.865
366.825	17.055	1087.569	809.431
367.840	17.111	1087.093	809.273
368.854	17.140	1086.658	809.015
369.869	17.112	1085.875	808.225
370.883	17.105	1084.757	807.292
371.898	17.134	1084.214	806.952
372.913	17.216	1083.380	806.650
373.927	17.071	1083.340	805.859
374.942	17.162	1082.577	805.653
375.956	17.200	1082.135	805.434
376.971	17.112	1081.590	804.537
377.986	17.192	1081.131	804.505
379.000	17.217	1079.961	803.683
380.015	17.272	1079.616	803.614
381.029	17.374	1078.907	803.494
382.044	17.398	1077.973	802.844
383.059	17.334	1077.545	802.154
384.073	17.400	1076.572	801.666
385.088	17.334	1075.752	800.677
386.102	17.372	1074.873	800.130
387.117	17.361	1073.658	799.102
388.132	17.348	1072.959	798.449
389.146	17.417	1072.309	798.219
390.161	17.375	1071.712	797.507
391.175	17.471	1070.871	797.260
392.190	17.369	1070.001	796.063
393.205	17.430	1069.660	796.028
394.219	17.293	1068.905	794.755
395.234	17.430	1067.767	794.476
396.248	17.542	1066.344	793.871
397.263	17.453	1065.367	792.658
398.278	17.562	1064.836	792.701
399.292	17.511	1064.562	792.190
400.307	17.514	1063.500	791.343
401.321	17.594	1062.547	790.934
402.336	17.499	1062.596	790.459
403.350	17.511	1061.718	789.791
404.365	17.602	1060.697	789.387
405.380	17.551	1060.246	788.744
406.394	17.513	1059.674	788.070
407.409	17.620	1058.832	787.871
408.423	17.728	1058.069	787.730
409.438	17.689	1057.393	786.982
410.453	17.614	1057.045	786.302
411.467	17.761	1055.831	786.011
412.482	17.802	1055.170	785.637
413.496	17.778	1054.555	784.997
414.511	17.789	1053.867	784.468
415.526	17.699	1054.212	784.240
416.540	17.904	1053.233	784.386
417.555	17.807	1052.578	783.380
418.569	17.927	1052.171	783.563
419.584	17.915	1051.417	782.876
420.599	17.950	1050.758	782.474
421.613	109.579	1330.232	1489.686
422.628	100.941	1370.889	1489.805
