DTS Sentinel unit serial number:	SN413079Multiplexer serial number:	ORYXHardware model number:	OX4-SRSoftware version number:	ORYX F/W v4.00 Oryx Data Collector v3.7.2.0data status	okinstallation	princeton_trtdifferential loss correction	single-endedforward channel	channel 2reverse channel	N/Adate	2019/09/18time	01:15:34forward acquisition time	60.00reverse acquisition time	0.00gamma	496.2192k internal	0.2350k external	0.2350temperature offset calibration	0.9983default loss term (dB/km)	0.3790temperature slope calibration	1.0000multiplexer offset coefficient	1.0000multiplexer slope coefficient	1.0000fibre end	0.00T internal ref (°C)	23.19T ext. ref 1 (°C)	0.17T ext. ref 2 (°C)	16.91length (m)	temperature (°C)	Stokes	anti-Stokes-747.200	-200.000	-0.018	0.105
-746.185	91.578	0.069	0.078
-745.171	-20.727	-0.259	-0.158
-744.156	800.000	-0.018	0.066
-743.142	50.244	-0.177	0.167
-742.127	409.201	-0.151	0.318
-741.112	540.484	-0.088	-0.208
-740.098	-200.000	-0.040	-0.283
-739.083	287.663	-0.114	-0.205
-738.069	-75.509	0.202	0.072
-737.054	-156.663	0.172	-0.011
-736.039	-60.913	-0.444	-0.188
-735.025	19.440	0.270	0.216
-734.010	434.551	-0.076	-0.164
-732.996	-45.834	-0.161	0.080
-731.981	34.316	0.067	-0.058
-730.966	-200.000	-0.054	-0.576
-729.952	800.000	0.048	-0.191
-728.937	-39.026	0.236	0.124
-727.923	-49.573	-0.213	0.101
-726.908	-5.150	0.141	0.097
-725.894	800.000	-0.043	-0.167
-724.879	-132.697	-0.114	0.015
-723.864	256.627	0.156	-0.266
-722.850	-106.216	0.326	-0.073
-721.835	61.785	-0.367	-0.364
-720.821	800.000	0.101	-0.313
-719.806	66.320	0.364	0.369
-718.791	-17.317	-0.232	0.146
-717.777	47.543	0.214	-0.199
-716.762	-105.489	-0.152	-0.034
-715.748	-200.000	-0.083	-0.491
-714.733	-64.475	-0.270	0.109
-713.718	-134.710	0.102	0.012
-712.704	-149.339	-0.184	0.015
-711.689	-200.000	-0.032	-0.255
-710.675	-200.000	-0.013	-0.178
-709.660	171.589	0.045	0.065
-708.645	-15.989	0.111	-0.070
-707.631	18.105	-0.312	-0.248
-706.616	-157.694	0.148	0.009
-705.602	-48.100	-0.090	-0.043
-704.587	6.998	-0.143	-0.106
-703.572	39.336	-0.243	0.217
-702.558	92.333	-0.129	-0.145
-701.543	-112.386	-0.560	-0.112
-700.529	-127.152	0.188	-0.027
-699.514	225.260	0.046	-0.074
-698.499	529.130	0.069	-0.163
-697.485	-200.000	-0.016	0.077
-696.470	73.741	-0.221	-0.231
-695.456	-84.337	-0.202	-0.064
-694.441	-200.000	-0.040	0.387
-693.426	40.957	-0.254	0.228
-692.412	-200.000	0.015	-0.087
-691.397	-42.324	0.482	0.245
-690.383	158.704	0.081	-0.111
-689.368	-200.000	0.041	0.199
-688.354	-200.000	-0.009	0.073
-687.339	-159.294	0.124	0.007
-686.324	402.905	-0.066	-0.139
-685.310	627.620	-0.076	-0.191
-684.295	-45.432	-0.092	0.045
-683.281	-200.000	0.003	-0.092
-682.266	800.000	0.130	-0.371
-681.251	-200.000	-0.017	0.111
-680.237	-80.153	0.115	-0.038
-679.222	40.892	-0.093	0.083
-678.208	-60.301	-0.082	0.035
-677.193	800.000	0.020	0.076
-676.178	241.315	0.073	-0.121
-675.164	216.156	-0.155	0.245
-674.149	560.634	-0.223	0.536
-673.135	-100.555	0.115	0.028
-672.120	-5.046	0.273	-0.187
-671.105	-78.325	-0.124	0.043
-670.091	-200.000	-0.016	-0.237
-669.076	423.930	-0.100	-0.213
-668.062	-196.627	0.192	-0.001
-667.047	38.709	-0.189	-0.168
-666.032	2.799	-0.268	-0.194
-665.018	-66.595	-0.359	0.142
-664.003	-200.000	-0.005	-0.177
-662.989	800.000	-0.032	-0.103
-661.974	-84.564	-0.273	-0.086
-660.959	-123.213	0.197	0.031
-659.945	300.379	0.109	-0.200
-658.930	-200.000	0.049	0.429
-657.916	-152.104	0.311	-0.022
-656.901	800.000	-0.114	-0.321
-655.886	59.907	-0.238	0.234
-654.872	-200.000	0.000	-0.010
-653.857	-200.000	-0.045	0.205
-652.843	283.004	-0.015	-0.026
-651.828	0.270	0.440	0.313
-650.814	196.549	0.039	0.059
-649.799	-23.119	0.054	-0.032
-648.784	272.678	0.115	0.202
-647.770	18.619	-0.178	-0.141
-646.755	131.500	0.022	0.028
-645.741	-200.000	-0.082	-0.444
-644.726	-75.976	0.074	-0.026
-643.711	92.630	-0.151	-0.169
-642.697	-44.422	0.222	-0.111
-641.682	22.083	-0.218	-0.177
-640.668	-89.871	-0.188	0.055
-639.653	43.301	-0.197	-0.178
-638.638	800.000	-0.033	0.113
-637.624	622.983	0.107	0.268
-636.609	-200.000	-0.012	0.060
-635.595	246.327	-0.106	0.178
-634.580	-116.945	0.179	0.033
-633.565	-54.472	0.105	-0.047
-632.551	800.000	-0.044	-0.122
-631.536	-60.810	0.182	0.077
-630.522	-200.000	-0.020	0.177
-629.507	-200.000	-0.056	0.295
-628.492	-39.886	-0.424	-0.220
-627.478	-66.207	-0.052	-0.020
-626.463	800.000	0.053	-0.185
-625.449	-200.000	0.041	-0.203
-624.434	-200.000	-0.008	-0.102
-623.419	-200.000	0.003	0.033
-622.405	210.394	-0.209	0.326
-621.390	145.682	0.125	-0.166
-620.376	340.763	-0.134	0.261
-619.361	-200.000	-0.035	0.160
-618.346	214.292	0.177	0.278
-617.332	110.130	-0.042	0.050
-616.317	187.283	-0.069	0.102
-615.303	-153.957	0.244	-0.017
-614.288	13.632	-0.260	0.201
-613.273	-200.000	0.012	0.228
-612.259	800.000	0.129	-0.354
-611.244	428.372	-0.039	-0.084
-610.230	23.005	-0.212	0.172
-609.215	72.262	-0.064	0.066
-608.201	-79.939	-0.169	0.056
-607.186	-35.941	-0.203	0.109
-606.171	-52.235	-0.246	0.113
-605.157	-9.857	-0.415	-0.274
-604.142	-78.041	0.394	-0.135
-603.128	-134.579	-0.411	-0.050
-602.113	-38.050	0.162	-0.085
-601.098	177.063	0.159	0.230
-600.084	195.306	-0.157	0.237
-599.069	-200.000	-0.029	0.221
-598.055	-200.000	0.024	0.198
-597.040	-200.000	0.048	0.295
-596.025	-113.782	-0.251	-0.049
-595.011	579.477	-0.094	0.229
-593.996	-73.935	-0.081	-0.029
-592.982	800.000	0.050	-0.161
-591.967	-64.422	-0.219	-0.088
-590.952	-200.000	0.028	-0.512
-589.938	-12.430	0.287	0.186
-588.923	-32.549	-0.177	0.098
-587.909	-200.000	-0.014	0.301
-586.894	564.931	-0.075	-0.179
-585.879	-200.000	0.003	0.153
-584.865	-200.000	0.014	0.552
-583.850	-46.043	0.197	0.096
-582.836	-45.248	-0.185	-0.091
-581.821	-157.406	-0.034	0.002
-580.806	-5.996	-0.156	-0.106
-579.792	4.657	-0.137	-0.100
-578.777	-31.155	0.119	-0.067
-577.763	-200.000	0.048	-0.359
-576.748	-200.000	-0.073	-0.480
-575.733	45.790	0.073	0.067
-574.719	-54.945	0.327	0.146
-573.704	-13.262	-0.070	0.045
-572.690	-39.689	-0.142	-0.073
-571.675	425.636	-0.233	-0.498
-570.661	-70.689	-0.102	0.038
-569.646	-65.882	-0.233	0.092
-568.631	800.000	0.106	-0.327
-567.617	-78.169	-0.124	-0.042
-566.602	38.201	0.147	0.130
-565.588	-200.000	-0.046	-0.408
-564.573	-92.037	-0.297	0.083
-563.558	40.115	0.101	0.090
-562.544	116.031	-0.089	0.108
-561.529	18.130	-0.103	-0.081
-560.515	-200.000	-0.032	-0.481
-559.500	800.000	0.108	0.385
-558.485	-200.000	0.000	0.247
-557.471	-77.245	-0.373	-0.129
-556.456	-160.949	-0.240	0.013
-555.442	501.887	0.124	-0.284
-554.427	-101.540	0.171	-0.041
-553.412	75.185	0.229	0.239
-552.398	6.087	0.208	0.152
-551.383	-164.099	-0.332	0.015
-550.369	-1.698	0.314	-0.219
-549.354	52.416	-0.214	-0.202
-548.339	454.397	0.094	-0.206
-547.325	800.000	-0.093	-0.364
-546.310	-200.000	0.045	-0.243
-545.296	-169.006	0.106	-0.004
-544.281	-200.000	0.030	0.324
-543.266	-200.000	-0.020	-0.183
-542.252	-200.000	-0.012	0.200
-541.237	-200.000	-0.009	0.250
-540.223	800.000	-0.082	-0.260
-539.208	-200.000	-0.022	0.207
-538.193	-200.000	-0.035	0.252
-537.179	19.353	-0.113	0.090
-536.164	-200.000	0.034	0.183
-535.150	67.925	0.113	-0.114
-534.135	-38.834	0.139	-0.072
-533.121	87.797	0.090	0.099
-532.106	-200.000	0.032	-0.165
-531.091	197.597	0.137	-0.208
-530.077	-200.000	0.043	0.280
-529.062	561.830	-0.083	0.199
-528.048	610.359	-0.076	0.187
-527.033	262.720	-0.148	0.254
-526.018	12.331	-0.212	0.162
-525.004	716.362	0.070	-0.183
-523.989	800.000	-0.042	-0.151
-522.975	227.141	-0.104	0.167
-521.960	-43.883	-0.337	0.168
-520.945	13.708	-0.022	0.017
-519.931	-120.422	0.388	0.065
-518.916	185.656	-0.027	-0.040
-517.902	197.017	0.284	0.429
-516.887	-183.200	0.471	-0.008
-515.872	-200.000	-0.043	0.240
-514.858	-68.848	0.149	0.057
-513.843	58.156	0.198	0.192
-512.829	-200.000	-0.017	0.148
-511.814	507.208	-0.072	0.165
-510.799	-93.928	-0.141	-0.038
-509.785	-200.000	0.029	-0.143
-508.770	-170.131	0.365	-0.013
-507.756	236.656	0.164	0.268
-506.741	-200.000	0.105	-0.513
-505.726	155.498	-0.078	0.107
-504.712	800.000	0.054	-0.188
-503.697	45.941	0.160	-0.146
-502.683	514.440	0.025	-0.059
-501.668	-135.329	0.279	-0.033
-500.653	-95.391	-0.143	-0.038
-499.639	-200.000	-0.004	0.072
-498.624	147.348	0.084	-0.112
-497.610	-53.965	-0.330	-0.149
-496.595	-36.048	0.115	-0.061
-495.581	114.626	-0.135	0.162
-494.566	794.937	-0.123	0.333
-493.551	800.000	-0.055	0.194
-492.537	-80.189	-0.330	-0.109
-491.522	-64.700	0.217	0.087
-490.508	62.862	0.099	-0.098
-489.493	-200.000	0.046	-0.244
-488.478	800.000	-0.113	-0.392
-487.464	139.983	0.174	-0.226
-486.449	-200.000	-0.001	-0.082
-485.435	52.068	0.071	0.067
-484.420	120.770	0.128	0.157
-483.405	137.727	0.128	0.166
-482.391	125.321	0.157	-0.196
-481.376	116.674	-0.231	0.279
-480.362	-99.051	0.186	-0.047
-479.347	-200.000	-0.011	-0.185
-478.332	-17.190	-0.009	-0.006
-477.318	-103.134	-0.137	-0.032
-476.303	-200.000	0.028	0.144
-475.289	166.007	-0.055	0.076
-474.274	199.777	0.221	-0.336
-473.259	-200.000	-0.020	0.194
-472.245	-126.270	-0.464	0.068
-471.230	180.230	0.122	-0.176
-470.216	-161.756	-0.178	-0.009
-469.201	-81.444	-0.321	0.104
-468.186	104.003	0.072	-0.084
-467.172	-184.153	-0.329	0.005
-466.157	60.325	0.273	-0.267
-465.143	-72.654	-0.142	-0.052
-464.128	49.090	0.146	-0.135
-463.113	-200.000	0.015	0.111
-462.099	1.449	-0.160	0.114
-461.084	-200.000	-0.011	0.115
-460.070	-9.096	-0.155	-0.102
-459.055	-131.379	0.092	0.012
-458.040	399.238	-0.084	0.173
-457.026	-66.422	-0.236	0.093
-456.011	158.260	0.061	0.083
-454.997	-121.588	0.173	-0.028
-453.982	374.836	0.067	-0.135
-452.968	-40.205	-0.116	-0.060
-451.953	632.734	0.116	0.291
-450.938	-200.000	-0.024	0.302
-449.924	109.149	0.156	0.184
-448.909	-86.213	-0.142	-0.043
-447.895	15.931	-0.099	0.077
-446.880	-200.000	-0.017	0.152
-445.865	800.000	0.071	0.237
-444.851	251.376	-0.129	-0.216
-443.836	109.447	0.241	0.285
-442.822	800.000	0.048	-0.205
-441.807	-158.382	-0.053	0.003
-440.792	167.118	0.213	0.298
-439.778	-139.549	0.226	0.024
-438.763	-125.039	-0.482	0.073
-437.749	-80.625	-0.327	0.107
-436.734	502.012	-0.089	0.203
-435.719	-84.372	-0.077	0.024
-434.705	199.906	0.069	0.105
-433.690	115.445	0.098	0.118
-432.676	-200.000	-0.006	0.193
-431.661	128.712	-0.210	0.265
-430.646	-94.319	0.178	0.048
-429.632	-200.000	-0.019	-0.140
-428.617	-51.436	-0.324	-0.149
-427.603	60.792	0.121	-0.119
-426.588	-200.000	0.000	0.062
-425.573	460.767	0.044	-0.097
-424.559	159.438	0.192	-0.263
-423.544	-1.673	0.306	0.213
-422.530	176.424	-0.103	-0.147
-421.515	-200.000	0.011	0.233
-420.500	-168.546	-0.238	0.009
-419.486	800.000	-0.042	-0.156
-418.471	800.000	-0.045	-0.135
-417.457	277.615	0.200	-0.351
-416.442	-164.665	0.181	0.008
-415.428	83.010	-0.021	-0.022
-414.413	-102.206	-0.040	0.009
-413.398	-80.972	-0.231	-0.075
-412.384	-96.515	0.133	0.035
-411.369	139.716	0.060	0.078
-410.355	50.574	-0.055	0.051
-409.340	800.000	-0.070	0.213
-408.325	800.000	0.042	-0.172
-407.311	-200.000	0.009	-0.058
-406.296	800.000	-0.125	0.375
-405.282	158.095	-0.138	-0.188
-404.267	-0.464	0.041	-0.029
-403.252	-99.843	0.339	-0.083
-402.238	-150.332	0.149	0.011
-401.223	355.805	0.031	-0.060
-400.209	-143.167	0.096	0.009
-399.194	-69.182	-0.197	-0.075
-398.179	-111.115	0.222	-0.045
-397.165	-150.899	0.319	-0.024
-396.150	31.823	-0.113	0.096
-395.136	73.961	-0.160	0.165
-394.121	-73.454	0.065	-0.023
-393.106	-14.569	-0.248	-0.157
-392.092	-95.996	-0.206	0.054
-391.077	-82.246	0.388	0.124
-390.063	-76.683	-0.266	-0.092
-389.048	-6.546	0.180	0.121
-388.033	1.732	0.221	-0.157
-387.019	56.165	-0.089	0.085
-386.004	118.741	-0.311	-0.379
-384.990	119.993	-0.118	0.144
-383.975	-48.796	0.219	-0.104
-382.960	276.759	-0.235	0.411
-381.946	118.055	0.268	0.325
-380.931	-12.393	-0.158	0.101
-379.917	-96.833	-0.152	-0.039
-378.902	-200.000	-0.005	0.237
-377.888	-84.538	0.243	-0.076
-376.873	-200.000	-0.022	-0.184
-375.858	162.446	0.091	-0.125
-374.844	-135.457	0.082	0.010
-373.829	100.839	-0.154	-0.176
-372.815	288.183	-0.057	0.101
-371.800	-200.000	0.056	0.260
-370.785	-92.655	0.355	-0.098
-369.771	242.430	0.092	-0.151
-368.756	-100.977	0.213	0.051
-367.742	800.000	-0.042	-0.133
-366.727	-189.234	0.323	-0.004
-365.712	-117.997	0.583	-0.103
-364.698	-144.301	-0.173	0.016
-363.683	300.715	0.108	0.195
-362.669	-84.591	-0.084	0.026
-361.654	72.532	0.316	-0.324
-360.639	100.966	-0.138	-0.157
-359.625	800.000	0.012	-0.038
-358.610	-124.662	-0.143	0.022
-357.596	381.830	-0.107	0.217
-356.581	69.047	-0.217	-0.219
-355.566	-162.173	-0.369	-0.018
-354.552	-126.043	0.462	0.068
-353.537	111.416	0.034	0.041
-352.523	118.863	0.108	0.132
-351.508	-26.775	-0.143	0.082
-350.493	128.893	-0.090	-0.112
-349.479	-173.046	0.243	-0.007
-348.464	-200.000	-0.051	0.268
-347.450	-78.073	0.172	-0.058
-346.435	-161.589	0.239	-0.012
-345.420	7.062	0.270	0.198
-344.406	-200.000	-0.019	-0.118
-343.391	-200.000	0.054	0.397
-342.377	16.112	-0.085	-0.066
-341.362	439.618	-0.087	0.188
-340.348	-129.572	0.130	-0.018
-339.333	-18.825	-0.126	0.077
-338.318	561.454	0.112	0.267
-337.304	-200.000	-0.034	0.276
-336.289	-85.718	-0.061	-0.019
-335.275	703.237	-0.067	0.173
-334.260	-200.000	0.004	0.193
-333.245	-200.000	0.013	-0.231
-332.231	800.000	-0.031	0.089
-331.216	612.716	-0.038	0.092
-330.202	5.215	-0.146	-0.106
-329.187	53.418	0.167	-0.157
-328.172	-40.066	0.212	-0.108
-327.158	206.351	0.180	0.276
-326.143	-87.563	0.088	-0.026
-325.129	111.654	-0.080	-0.095
-324.114	-162.649	0.226	-0.011
-323.099	-200.000	0.012	-0.212
-322.085	-103.116	0.108	-0.025
-321.070	-200.000	0.022	0.145
-320.056	-200.000	0.031	-0.315
-319.041	-49.250	-0.352	-0.165
-318.026	-56.898	0.281	-0.122
-317.012	-122.788	-0.212	-0.034
-315.997	-187.473	-0.275	-0.004
-314.983	40.436	-0.084	0.075
-313.968	-29.375	-0.271	0.152
-312.953	-200.000	0.013	-0.120
-311.939	-139.291	0.442	-0.047
-310.924	-9.605	-0.361	-0.236
-309.910	-49.061	-0.146	0.069
-308.895	305.876	0.084	0.154
-307.880	-94.028	-0.202	0.054
-306.866	-166.087	-0.001	0.000
-305.851	-200.000	0.013	-0.358
-304.837	309.862	0.056	-0.103
-303.822	-200.000	-0.020	-0.170
-302.807	11.717	-0.139	-0.105
-301.793	-200.000	-0.028	0.161
-300.778	28.864	-0.141	0.117
-299.764	147.081	0.290	0.383
-298.749	800.000	0.016	0.066
-297.735	96.100	-0.117	-0.131
-296.720	-69.614	-0.125	0.047
-295.705	122.816	0.181	0.222
-294.691	-120.197	-0.214	-0.036
-293.676	232.452	0.068	0.109
-292.662	-200.000	0.014	-0.138
-291.647	-151.263	0.278	0.020
-290.632	246.518	-0.049	0.081
-289.618	280.812	0.158	-0.276
-288.603	-118.274	0.526	-0.092
-287.589	800.000	0.024	0.076
-286.574	-200.000	-0.046	-0.202
-285.559	206.822	-0.159	0.244
-284.545	-173.855	0.100	-0.003
-283.530	-53.367	0.094	-0.042
-282.516	28.213	0.173	-0.143
-281.501	174.031	0.139	0.196
-280.486	-1.602	0.256	-0.177
-279.472	1.858	0.087	0.061
-278.457	166.097	0.269	0.373
-277.443	-124.602	-0.024	-0.004
-276.428	51.559	-0.154	-0.143
-275.413	76.962	-0.252	-0.262
-274.399	-29.644	-0.039	0.022
-273.384	-39.942	0.189	-0.096
-272.370	800.000	0.046	0.171
-271.355	-24.571	0.407	0.238
-270.340	-200.000	-0.008	0.266
-269.326	68.674	-0.095	0.096
-268.311	13.387	0.235	0.179
-267.297	-200.000	-0.008	0.476
-266.282	-19.921	-0.206	-0.125
-265.267	-130.933	-0.454	-0.060
-264.253	-200.000	-0.009	-0.193
-263.238	800.000	0.059	-0.192
-262.224	75.676	-0.114	0.118
-261.209	297.909	-0.230	0.415
-260.195	126.242	0.137	0.170
-259.180	800.000	-0.069	0.262
-258.165	108.180	0.171	-0.200
-257.151	149.993	-0.257	-0.342
-256.136	361.709	0.034	0.067
-255.122	-46.794	0.338	-0.162
-254.107	800.000	-0.164	-0.453
-253.092	-82.081	0.132	-0.042
-252.078	-19.787	0.377	0.228
-251.063	178.286	-0.128	-0.182
-250.049	56.706	0.113	-0.108
-249.034	-115.344	0.266	-0.049
-248.019	24.750	-0.272	-0.221
-247.005	-11.190	-0.077	-0.050
-245.990	127.793	-0.302	0.375
-244.976	97.154	-0.176	-0.198
-243.961	-42.591	0.267	0.133
-242.946	110.250	-0.132	0.155
-241.932	-200.000	-0.009	-0.200
-240.917	-36.717	0.184	-0.097
-239.903	527.859	0.024	0.055
-238.888	-69.636	0.195	-0.073
-237.873	800.000	0.069	-0.205
-236.859	10.084	-0.140	0.104
-235.844	56.744	0.131	0.125
-234.830	7.249	-0.316	0.231
-233.815	88.235	-0.022	-0.024
-232.800	317.406	-0.117	-0.216
-231.786	47.482	-0.287	-0.261
-230.771	26.113	0.118	0.096
-229.757	59.025	-0.249	0.240
-228.742	-30.639	-0.244	0.135
-227.727	11.082	-0.099	-0.074
-226.713	167.116	0.180	-0.250
-225.698	341.934	-0.203	-0.389
-224.684	-4.025	-0.342	0.232
-223.669	30.072	-0.034	0.029
-222.655	800.000	-0.089	-0.240
-221.640	117.120	0.109	0.131
-220.625	-200.000	0.013	-0.202
-219.611	-114.913	-0.455	-0.085
-218.596	-200.000	0.004	-0.130
-217.582	485.141	0.097	-0.217
-216.567	-151.517	0.291	-0.021
-215.552	124.741	0.292	-0.360
-214.538	-129.126	-0.319	0.044
-213.523	-101.086	0.187	0.045
-212.509	128.865	0.170	-0.212
-211.494	59.878	-0.124	-0.120
-210.479	-200.000	-0.020	-0.470
-209.465	-200.000	-0.000	-0.251
-208.450	800.000	0.050	0.141
-207.436	800.000	-0.090	-0.281
-206.421	102.139	0.089	0.102
-205.406	-142.714	0.322	0.031
-204.392	1.586	-0.150	-0.105
-203.377	-54.484	0.261	0.115
-202.363	25.339	0.112	0.091
-201.348	139.575	-0.124	-0.159
-200.333	-200.000	-0.022	0.346
-199.319	-5.015	0.350	-0.235
-198.304	-160.972	-0.461	0.024
-197.290	-200.000	-0.041	0.280
-196.275	-195.814	-0.177	-0.001
-195.260	800.000	0.022	0.074
-194.246	151.761	-0.070	-0.094
-193.231	55.373	0.111	0.105
-192.217	152.177	-0.287	0.383
-191.202	-200.000	0.028	0.133
-190.187	-132.442	0.115	0.014
-189.173	27.264	-0.088	0.072
-188.158	800.000	-0.072	0.301
-187.144	-27.536	0.224	0.127
-186.129	-200.000	-0.098	-0.000
-185.114	-200.000	0.024	0.217
-184.100	-31.754	-0.141	-0.077
-183.085	-200.000	-0.015	-0.114
-182.071	196.948	0.177	-0.264
-181.056	-200.000	-0.095	-0.499
-180.042	-200.000	-0.061	0.281
-179.027	-57.512	-0.133	0.057
-178.012	264.059	-0.051	0.087
-176.998	336.800	0.046	-0.087
-175.983	-200.000	-0.075	-0.387
-174.969	-33.637	0.028	0.015
-173.954	264.565	0.032	-0.054
-172.939	8.545	-0.154	-0.113
-171.925	800.000	0.124	-0.487
-170.910	115.154	0.308	-0.367
-169.896	-74.542	-0.309	-0.109
-168.881	-148.001	0.408	0.033
-167.866	-200.000	0.039	-0.422
-166.852	800.000	0.106	-0.293
-165.837	-27.395	0.167	-0.095
-164.823	-200.000	0.008	-0.263
-163.808	298.355	0.157	-0.281
-162.793	-110.949	0.380	0.076
-161.779	312.615	-0.143	-0.263
-160.764	-39.725	-0.382	0.195
-159.750	-200.000	-0.006	0.070
-158.735	-7.157	0.226	0.150
-157.720	158.406	0.141	-0.191
-156.706	-43.658	-0.379	0.186
-155.691	800.000	0.172	0.510
-154.677	-48.668	-0.207	-0.097
-153.662	24.916	0.027	0.022
-152.647	-119.919	0.184	-0.031
-151.633	-109.896	0.193	0.040
-150.618	-83.360	0.337	0.105
-149.604	116.818	-0.171	0.205
-148.589	479.755	0.071	-0.157
-147.574	-145.870	-0.035	-0.003
-146.560	-200.000	-0.024	0.164
-145.545	42.817	-0.103	0.092
-144.531	-106.089	0.124	-0.027
-143.516	116.901	-0.234	0.281
-142.502	297.039	-0.032	0.058
-141.487	261.731	-0.140	-0.237
-140.472	391.939	0.127	-0.257
-139.458	-93.616	0.263	-0.071
-138.443	-81.892	-0.234	-0.075
-137.429	-151.340	-0.154	-0.011
-136.414	91.604	0.182	-0.199
-135.399	-67.717	0.314	0.120
-134.385	431.621	-0.102	0.216
-133.370	800.000	-0.127	-0.398
-132.356	-200.000	-0.066	-0.403
-131.341	800.000	-0.012	-0.037
-130.326	557.656	-0.120	0.282
-129.312	617.876	0.139	0.341
-128.297	167.638	-0.144	-0.199
-127.283	-139.263	-0.092	-0.010
-126.268	-200.000	0.060	-0.257
-125.253	18.695	0.140	-0.109
-124.239	800.000	-0.065	-0.276
-123.224	-200.000	-0.013	-0.144
-122.210	800.000	-0.026	-0.101
-121.195	-135.614	0.125	0.014
-120.180	110.108	0.280	-0.328
-119.166	194.229	0.112	0.165
-118.151	358.390	0.144	0.280
-117.137	-102.074	-0.299	0.070
-116.122	326.988	-0.117	0.218
-115.107	84.018	0.049	0.052
-114.093	-200.000	-0.069	0.000
-113.078	93.565	0.233	-0.257
-112.064	487.309	-0.124	0.275
-111.049	-128.008	-0.241	-0.034
-110.034	-50.973	-0.221	0.101
-109.020	229.894	-0.129	0.205
-108.005	449.303	-0.132	-0.283
-106.991	-160.313	0.163	0.009
-105.976	186.314	-0.147	0.213
-104.962	-200.000	0.031	0.309
-103.947	800.000	-0.047	-0.156
-102.932	21.383	0.071	-0.056
-101.918	-0.048	-0.213	0.147
-100.903	54.873	0.096	0.090
-99.889	213.220	0.171	-0.262
-98.874	795.662	-0.043	0.116
-97.859	93.917	0.112	-0.124
-96.845	-85.820	-0.127	0.038
-95.830	-79.513	0.276	-0.091
-94.816	-1.890	0.127	-0.087
-93.801	553.431	-0.087	-0.204
-92.786	141.529	-0.067	-0.086
-91.772	800.000	0.073	0.247
-90.757	800.000	0.086	0.243
-89.743	-34.221	-0.096	0.051
-88.728	61.295	-0.203	0.197
-87.713	446.725	-0.195	0.416
-86.699	61.019	-0.325	0.314
-85.684	405.774	0.085	-0.174
-84.670	-200.000	-0.055	-0.516
-83.655	232.295	0.109	-0.174
-82.640	800.000	-0.045	-0.174
-81.626	195.892	0.109	0.162
-80.611	-200.000	-0.018	-0.345
-79.597	-200.000	0.018	0.449
-78.582	-137.689	0.150	-0.016
-77.567	420.362	-0.146	-0.305
-76.553	-46.164	0.331	-0.158
-75.538	-200.000	0.015	0.315
-74.524	-2.722	0.304	0.207
-73.509	409.402	-0.030	0.062
-72.494	-104.696	0.214	0.048
-71.480	4.811	0.176	0.126
-70.465	-98.233	0.358	-0.089
-69.451	800.000	-0.020	0.072
-68.436	136.649	-0.065	-0.083
-67.422	-200.000	-0.012	0.299
-66.407	205.896	0.091	-0.138
-65.392	-200.000	0.027	0.191
-64.378	7.208	-0.056	-0.041
-63.363	47.139	-0.139	0.125
-62.349	-94.924	0.283	0.074
-61.334	60.650	-1.198	-1.154
-60.319	51.176	0.641	0.591
-59.305	238.984	-0.747	-1.207
-58.290	127.710	0.977	1.206
-57.276	548.032	0.636	1.481
-56.261	-200.000	125.572	671.963
-55.246	428.498	1578.754	3313.589
-54.232	142.385	2740.867	3534.884
-53.217	90.403	2291.959	2491.856
-52.203	32.305	1899.832	1593.185
-51.188	26.257	1697.143	1377.218
-50.173	24.111	1658.237	1329.588
-49.159	46.296	1728.020	1555.786
-48.144	43.729	1739.232	1546.236
-47.130	25.854	1690.344	1368.422
-46.115	23.355	1674.697	1336.865
-45.100	23.100	1670.206	1331.314
-44.086	23.081	1667.881	1329.259
-43.071	23.186	1664.991	1327.698
-42.057	23.063	1663.239	1325.324
-41.042	23.104	1660.747	1323.588
-40.027	22.990	1659.288	1321.520
-39.013	23.111	1657.509	1320.962
-37.998	23.094	1656.011	1319.587
-36.984	23.118	1654.834	1318.774
-35.969	23.227	1653.191	1318.221
-34.954	23.186	1651.619	1316.611
-33.940	23.193	1649.673	1315.058
-32.925	23.076	1648.474	1313.187
-31.911	23.162	1646.702	1312.360
-30.896	23.136	1644.690	1310.508
-29.881	23.136	1643.293	1309.343
-28.867	23.270	1641.253	1308.659
-27.852	23.133	1640.761	1307.198
-26.838	23.085	1639.306	1305.634
-25.823	23.271	1637.472	1305.494
-24.809	23.216	1636.638	1304.372
-23.794	23.162	1635.519	1303.031
-22.779	23.291	1633.331	1302.185
-21.765	23.196	1632.168	1300.506
-20.750	23.215	1630.187	1299.016
-19.736	23.128	1629.398	1297.700
-18.721	23.235	1627.816	1297.175
-17.706	23.184	1626.266	1295.514
-16.692	23.170	1624.545	1293.988
-15.677	23.244	1623.356	1293.533
-14.663	23.277	1621.844	1292.515
-13.648	23.220	1620.272	1290.797
-12.633	23.241	1619.472	1290.259
-11.619	23.216	1617.623	1288.552
-10.604	23.279	1615.967	1287.640
-9.590	23.280	1615.021	1286.846
-8.575	23.144	1613.740	1284.782
-7.560	23.257	1612.055	1284.215
-6.546	23.261	1610.816	1283.200
-5.531	23.185	1610.411	1282.282
-4.517	23.097	1609.141	1280.578
-3.502	23.237	1607.905	1280.557
-2.487	23.284	1605.835	1279.196
-1.473	22.812	1593.889	1266.245
-0.458	19.897	1574.222	1229.887
0.556	14.815	1576.463	1199.152
1.571	12.630	1599.673	1200.776
2.586	12.448	1611.749	1208.395
3.600	11.471	1557.590	1160.745
4.615	6.215	1451.797	1046.903
5.629	1.129	1393.583	972.277
6.644	0.210	1386.563	961.426
7.659	0.122	1385.978	960.373
8.673	0.176	1384.505	959.613
9.688	0.183	1382.296	958.041
10.702	0.007	1378.939	954.512
11.717	2.642	1381.924	973.241
12.731	9.325	1392.571	1023.298
13.746	15.137	1401.119	1066.606
14.761	16.784	1403.105	1078.510
15.775	16.165	1401.035	1072.894
16.790	15.238	1398.353	1064.857
17.804	14.469	1396.385	1058.384
18.819	14.182	1394.534	1055.069
19.834	13.886	1393.705	1052.471
20.848	13.650	1392.114	1049.681
21.863	13.364	1391.150	1047.049
22.877	13.177	1390.063	1044.960
23.892	13.167	1388.764	1043.824
24.907	13.103	1388.555	1043.174
25.921	13.318	1386.895	1043.191
26.936	13.287	1386.147	1042.341
27.950	13.234	1385.215	1041.213
28.965	13.328	1384.203	1040.952
29.980	13.438	1383.159	1040.767
30.994	13.499	1382.312	1040.418
32.009	13.471	1380.945	1039.122
33.023	13.424	1380.300	1038.251
34.038	13.338	1379.639	1037.124
35.053	13.394	1377.763	1035.970
36.067	13.301	1377.115	1034.807
37.082	13.370	1375.964	1034.283
38.096	13.473	1374.802	1033.963
39.111	13.342	1374.151	1032.566
40.126	13.301	1373.453	1031.692
41.140	13.180	1372.801	1030.359
42.155	13.169	1372.104	1029.674
43.169	13.242	1372.088	1030.028
44.184	13.235	1371.599	1029.521
45.199	13.149	1371.148	1028.561
46.213	13.247	1370.861	1028.863
47.228	13.323	1369.335	1028.096
48.242	13.259	1368.509	1026.990
49.257	13.277	1367.165	1026.004
50.271	13.217	1365.450	1024.252
51.286	13.282	1364.186	1023.615
52.301	13.363	1362.537	1022.786
53.315	13.282	1361.994	1021.787
54.330	13.177	1360.752	1020.119
55.344	13.234	1359.205	1019.222
56.359	13.190	1358.648	1018.441
57.374	13.287	1357.395	1018.012
58.388	13.100	1356.999	1016.474
59.403	13.115	1356.668	1016.228
60.417	13.193	1355.463	1015.715
61.432	13.076	1354.541	1014.215
62.447	13.028	1353.759	1013.245
63.461	13.095	1352.454	1012.590
64.476	13.115	1351.349	1011.794
65.490	12.962	1350.633	1010.234
66.505	13.175	1348.455	1009.813
67.520	13.147	1346.845	1008.347
68.534	13.160	1345.858	1007.603
69.549	13.203	1344.969	1007.111
70.563	13.066	1344.037	1005.485
71.578	13.077	1343.158	1004.806
72.593	13.098	1341.566	1003.657
73.607	13.002	1341.492	1002.925
74.622	13.072	1340.222	1002.315
75.636	13.147	1339.160	1001.884
76.651	13.039	1338.621	1000.737
77.666	13.073	1338.106	1000.473
78.680	13.116	1337.584	1000.252
79.695	13.079	1336.693	999.276
80.709	13.115	1335.789	998.728
81.724	13.170	1334.620	998.096
82.739	13.308	1333.717	998.169
83.753	13.238	1332.813	996.979
84.768	13.295	1331.953	996.591
85.782	13.380	1330.911	996.234
86.797	13.300	1329.439	994.565
87.812	13.260	1328.375	993.440
88.826	13.246	1327.211	992.397
89.841	13.229	1326.034	991.326
90.855	13.379	1325.128	991.464
91.870	13.259	1324.297	990.033
92.884	13.145	1323.904	988.972
93.899	13.350	1322.734	989.238
94.914	13.393	1321.900	988.781
95.928	13.269	1321.048	987.316
96.943	13.317	1320.101	986.808
97.957	13.325	1319.315	986.179
98.972	13.359	1318.241	985.490
99.987	13.430	1316.510	984.533
101.001	13.359	1315.360	983.166
102.016	13.362	1314.837	982.702
103.030	13.361	1313.961	981.959
104.045	13.370	1313.223	981.372
105.060	13.327	1312.442	980.448
106.074	13.224	1310.703	978.452
107.089	13.248	1309.498	977.606
108.103	13.178	1308.589	976.430
109.118	13.235	1307.036	975.517
110.133	13.258	1306.050	974.833
111.147	13.235	1304.248	973.267
112.162	13.210	1303.298	972.324
113.176	13.368	1301.748	972.009
114.191	13.303	1301.021	970.997
115.206	13.340	1299.891	970.285
116.220	13.329	1298.315	968.961
117.235	13.272	1297.070	967.613
118.249	13.220	1296.412	966.730
119.264	13.280	1295.229	966.114
120.279	13.299	1294.144	965.332
121.293	13.237	1293.103	964.105
122.308	13.123	1292.436	962.857
123.322	13.233	1290.993	962.341
124.337	13.240	1289.748	961.367
125.352	13.201	1288.555	960.167
126.366	13.154	1287.209	958.805
127.381	13.297	1286.311	958.878
128.395	13.215	1285.643	957.824
129.410	13.241	1284.512	957.049
130.424	13.131	1284.015	955.954
131.439	13.371	1282.337	956.010
132.454	13.407	1281.295	955.355
133.468	13.348	1280.840	954.589
134.483	13.198	1280.181	953.147
135.497	13.256	1279.268	952.723
136.512	13.289	1277.412	951.443
137.527	13.321	1276.058	950.532
138.541	13.264	1274.814	949.197
139.556	13.368	1273.149	948.467
140.570	13.352	1272.914	948.117
141.585	13.380	1270.931	946.719
142.600	13.450	1270.106	946.417
143.614	13.387	1269.425	945.471
144.629	13.448	1268.271	944.874
145.643	13.434	1267.135	943.863
146.658	13.451	1265.609	942.739
147.673	13.478	1263.952	941.579
148.687	13.455	1263.222	940.817
149.702	13.471	1262.049	939.955
150.716	13.405	1260.568	938.391
151.731	13.399	1259.196	937.254
152.746	13.463	1258.078	936.699
153.760	13.523	1256.837	936.035
154.775	13.528	1256.079	935.413
155.789	13.642	1254.500	934.798
156.804	13.524	1253.921	933.621
157.819	13.544	1252.823	932.829
158.833	13.588	1252.004	932.388
159.848	13.618	1251.201	931.874
160.862	13.550	1250.394	930.808
161.877	13.534	1248.974	929.582
162.892	13.458	1247.833	928.224
163.906	13.474	1246.968	927.587
164.921	13.486	1246.369	927.126
165.935	13.590	1244.845	926.489
166.950	13.585	1244.170	925.880
167.964	13.619	1243.841	925.741
168.979	13.641	1242.818	925.022
169.994	13.628	1242.198	924.408
171.008	13.645	1241.441	923.859
172.023	13.673	1240.698	923.376
173.037	13.765	1239.465	922.891
174.052	13.708	1238.742	921.954
175.067	13.689	1237.616	920.926
176.081	13.582	1236.653	919.534
177.096	13.643	1235.459	918.903
178.110	13.656	1234.993	918.547
179.125	13.587	1233.600	917.053
180.140	13.834	1231.779	916.979
181.154	13.667	1231.142	915.502
182.169	13.832	1229.702	915.262
183.183	13.827	1228.731	914.427
184.198	13.749	1227.964	913.346
185.213	13.725	1226.675	912.176
186.227	13.896	1225.201	911.941
187.242	13.939	1224.328	911.445
188.256	13.981	1223.245	910.789
189.271	13.878	1222.228	909.385
190.286	13.855	1221.274	908.471
191.300	13.832	1220.491	907.683
192.315	13.715	1220.029	906.617
193.329	13.665	1219.753	906.059
194.344	13.757	1218.324	905.420
195.359	13.869	1217.474	905.319
196.373	13.933	1217.047	905.268
197.388	14.051	1216.381	905.336
198.402	14.033	1216.172	905.002
199.417	14.077	1215.115	904.374
200.432	14.062	1214.771	903.956
201.446	14.165	1213.479	903.475
202.461	14.115	1212.781	902.605
203.475	14.240	1211.340	902.129
204.490	14.111	1210.715	900.888
205.504	14.175	1208.732	899.680
206.519	14.015	1208.442	898.519
207.534	13.979	1207.117	897.258
208.548	14.079	1205.782	896.724
209.563	14.069	1205.287	896.226
210.577	14.191	1204.401	896.144
211.592	13.999	1203.608	894.441
212.607	14.147	1202.684	894.474
213.621	14.160	1201.793	893.799
214.636	14.145	1200.768	892.879
215.650	14.160	1199.781	892.143
216.665	14.367	1198.472	892.203
217.680	14.247	1197.849	891.019
218.694	14.338	1197.175	890.925
219.709	14.338	1196.059	890.014
220.723	14.331	1195.887	889.767
221.738	14.319	1194.797	888.817
222.753	14.340	1194.152	888.367
223.767	14.324	1193.463	887.691
224.782	14.433	1192.760	887.670
225.796	14.473	1191.661	886.986
226.811	14.349	1191.701	886.281
227.826	14.430	1190.898	886.034
228.840	14.528	1189.305	885.292
229.855	14.449	1189.277	884.771
230.869	14.385	1188.563	883.822
231.884	14.428	1187.504	883.185
232.899	14.387	1186.912	882.452
233.913	14.355	1185.930	881.473
234.928	14.468	1185.189	881.440
235.942	14.380	1184.298	880.236
236.957	14.320	1183.999	879.621
237.972	14.456	1182.962	879.489
238.986	14.374	1182.420	878.577
240.001	14.409	1181.502	878.001
241.015	14.536	1180.396	877.769
242.030	14.559	1179.685	877.282
243.045	14.457	1179.264	876.356
244.059	14.533	1178.535	876.138
245.074	14.487	1177.736	875.224
246.088	14.618	1176.672	875.042
247.103	14.636	1175.807	874.417
248.117	14.618	1175.417	873.954
249.132	14.684	1174.427	873.484
250.147	14.699	1173.904	873.100
251.161	14.791	1172.999	872.830
252.176	14.845	1171.905	872.221
253.190	14.881	1171.891	872.321
254.205	14.822	1171.245	871.454
255.220	14.931	1170.803	871.617
256.234	14.892	1169.990	870.730
257.249	14.875	1169.225	869.993
258.263	14.996	1168.303	869.863
259.278	14.957	1167.988	869.349
260.293	14.933	1167.313	868.643
261.307	15.150	1166.824	869.331
262.322	15.180	1165.668	868.548
263.336	15.086	1165.157	867.601
264.351	15.065	1164.604	867.005
265.366	15.144	1164.212	867.047
266.380	14.990	1163.699	865.788
267.395	15.220	1162.258	865.831
268.409	15.065	1161.652	864.499
269.424	15.111	1161.483	864.536
270.439	15.087	1160.592	863.670
271.453	15.200	1159.544	863.396
272.468	15.116	1158.604	862.188
273.482	15.044	1158.184	861.431
274.497	15.063	1157.892	861.235
275.512	15.121	1157.217	860.953
276.526	15.204	1156.236	860.572
277.541	15.170	1155.039	859.433
278.555	15.222	1154.564	859.272
279.570	15.222	1153.787	858.615
280.585	15.285	1153.078	858.335
281.599	15.283	1152.031	857.472
282.614	15.263	1151.040	856.555
283.628	15.302	1149.920	855.842
284.643	15.319	1148.934	855.122
285.657	15.338	1147.934	854.395
286.672	15.313	1147.409	853.805
287.687	15.439	1146.451	853.654
288.701	15.371	1145.723	852.691
289.716	15.334	1145.191	852.036
290.730	15.503	1144.071	851.981
291.745	15.339	1143.694	850.795
292.760	15.438	1142.725	850.502
293.774	15.525	1142.106	850.404
294.789	15.490	1141.932	850.024
295.803	15.600	1140.736	849.612
296.818	15.479	1139.975	848.360
297.833	15.492	1139.595	848.068
298.847	15.552	1138.995	847.848
299.862	15.550	1138.232	847.197
300.876	15.502	1137.640	846.440
301.891	15.571	1136.616	845.948
302.906	15.598	1135.699	845.326
303.920	15.766	1134.899	845.503
304.935	15.749	1134.297	844.894
305.949	15.688	1133.981	844.276
306.964	15.696	1133.306	843.740
307.979	15.686	1132.591	843.085
308.993	15.708	1132.082	842.737
310.008	15.713	1131.304	842.109
311.022	15.682	1130.329	841.153
312.037	15.827	1129.271	841.018
313.052	15.866	1128.274	840.397
314.066	15.791	1127.267	839.196
315.081	15.702	1126.923	838.424
316.095	15.684	1126.095	837.643
317.110	15.810	1125.489	837.745
318.125	15.715	1124.571	836.517
319.139	15.629	1123.990	835.582
320.154	15.726	1123.200	835.403
321.168	15.717	1122.589	834.828
322.183	15.890	1121.699	834.954
323.197	15.806	1121.333	834.187
324.212	15.777	1120.781	833.560
325.227	15.894	1120.051	833.522
326.241	15.877	1119.508	832.963
327.256	15.929	1118.686	832.535
328.270	15.842	1117.865	831.419
329.285	15.903	1116.858	830.896
330.300	15.909	1115.563	829.892
331.314	15.878	1114.963	829.220
332.329	15.936	1113.578	828.400
333.343	15.891	1113.220	827.838
334.358	16.105	1112.126	828.002
335.373	16.141	1111.431	827.591
336.387	16.035	1110.916	826.614
337.402	16.038	1110.100	825.945
338.416	16.112	1109.280	825.625
339.431	16.056	1109.135	825.170
340.446	16.135	1108.308	824.868
341.460	16.149	1107.322	824.132
342.475	16.147	1106.732	823.608
343.489	16.274	1105.331	823.112
344.504	16.181	1104.948	822.302
345.519	16.313	1104.064	822.213
346.533	16.370	1103.216	821.788
347.548	16.386	1102.186	821.024
348.562	16.474	1101.183	820.631
349.577	16.412	1100.665	819.875
350.592	16.252	1100.092	818.597
351.606	16.275	1099.424	818.141
352.621	16.344	1098.862	817.982
353.635	16.308	1098.456	817.434
354.650	16.321	1096.925	816.288
355.665	16.242	1096.744	815.694
356.679	16.249	1096.348	815.362
357.694	16.356	1095.840	815.431
358.708	16.294	1095.267	814.633
359.723	16.410	1094.339	814.431
360.738	16.528	1093.325	814.169
361.752	16.343	1092.917	812.905
362.767	16.444	1092.713	813.165
363.781	16.350	1091.924	812.055
364.796	16.466	1091.503	812.226
365.810	16.507	1090.924	811.924
366.825	16.477	1090.263	811.216
367.840	16.593	1089.653	811.245
368.854	16.587	1089.165	810.779
369.869	16.665	1088.319	810.453
370.883	16.726	1087.158	809.810
371.898	16.680	1086.302	808.879
372.913	16.637	1086.163	808.497
373.927	16.672	1085.548	808.135
374.942	16.676	1085.158	807.794
375.956	16.696	1084.564	807.374
376.971	16.814	1084.052	807.486
377.986	16.880	1083.205	807.096
379.000	16.849	1082.656	806.467
380.015	16.996	1081.769	806.437
381.029	16.896	1081.247	805.500
382.044	16.854	1080.892	804.966
383.059	16.935	1080.023	804.630
384.073	16.874	1079.141	803.615
385.088	17.087	1078.036	803.730
386.102	16.988	1077.285	802.630
387.117	17.038	1076.216	802.000
388.132	16.908	1075.380	800.691
389.146	16.814	1074.929	799.840
390.161	16.928	1074.208	799.768
391.175	16.935	1073.318	799.072
392.190	17.029	1072.689	798.976
393.205	17.079	1071.567	798.303
394.219	17.075	1070.882	797.702
395.234	16.958	1070.607	796.876
396.248	16.900	1069.363	795.611
397.263	17.001	1068.232	795.172
398.278	16.997	1067.440	794.490
399.292	17.013	1066.813	794.031
400.307	17.035	1065.990	793.449
401.321	17.065	1065.321	793.020
402.336	16.979	1065.318	792.548
403.350	16.970	1064.253	791.642
404.365	17.040	1063.673	791.467
405.380	17.030	1062.938	790.803
406.394	17.115	1062.274	790.638
407.409	17.160	1061.035	789.852
408.423	17.269	1060.607	789.970
409.438	17.293	1059.850	789.451
410.453	17.298	1059.165	788.891
411.467	17.305	1058.669	788.484
412.482	17.321	1057.794	787.839
413.496	17.367	1056.853	787.279
414.511	17.389	1056.430	786.996
415.526	17.361	1056.192	786.622
416.540	17.388	1055.726	786.331
417.555	17.455	1055.251	786.216
418.569	17.474	1054.135	785.403
419.584	17.499	1053.882	785.260
420.599	17.511	1053.670	785.086
421.613	108.129	1330.730	1487.578
422.628	99.619	1371.037	1487.636
