DTS Sentinel unit serial number:	SN413079Multiplexer serial number:	ORYXHardware model number:	OX4-SRSoftware version number:	ORYX F/W v4.00 Oryx Data Collector v3.7.2.0data status	okinstallation	princeton_trtdifferential loss correction	single-endedforward channel	channel 2reverse channel	N/Adate	2019/09/17time	19:59:35forward acquisition time	60.00reverse acquisition time	0.00gamma	496.2192k internal	0.2329k external	0.2329temperature offset calibration	0.9984default loss term (dB/km)	0.3790temperature slope calibration	1.0000multiplexer offset coefficient	1.0000multiplexer slope coefficient	1.0000fibre end	0.00T internal ref (°C)	33.34T ext. ref 1 (°C)	0.22T ext. ref 2 (°C)	22.99length (m)	temperature (°C)	Stokes	anti-Stokes-747.200	153.372	0.112	-0.155
-746.185	-200.000	-0.001	0.096
-745.171	271.345	0.201	0.357
-744.156	71.040	0.112	0.117
-743.142	55.371	0.258	0.251
-742.127	106.839	-0.382	0.457
-741.112	35.425	-0.113	0.100
-740.098	17.623	-0.209	-0.167
-739.083	800.000	0.192	0.541
-738.069	-13.199	0.194	-0.127
-737.054	88.125	0.301	-0.336
-736.039	-54.569	-0.214	0.097
-735.025	-88.538	0.502	0.151
-734.010	-200.000	-0.001	-0.165
-732.996	45.182	-0.268	-0.249
-731.981	-101.390	-0.385	0.095
-730.966	-200.000	-0.005	-0.292
-729.952	-120.401	-0.323	-0.055
-728.937	413.570	0.031	0.066
-727.923	800.000	0.057	-0.171
-726.908	-200.000	-0.063	-0.336
-725.894	800.000	0.105	-0.442
-724.879	-158.602	-0.196	-0.011
-723.864	-200.000	-0.031	-0.207
-722.850	85.315	-0.079	0.087
-721.835	-200.000	-0.022	0.448
-720.821	199.003	0.140	-0.215
-719.806	306.274	-0.077	0.143
-718.791	112.476	0.093	0.113
-717.777	-35.665	0.252	0.137
-716.762	201.433	0.231	-0.358
-715.748	111.226	0.105	0.127
-714.733	800.000	-0.083	0.339
-713.718	-26.356	0.168	-0.099
-712.704	7.766	-0.089	0.067
-711.689	-113.193	-0.229	-0.045
-710.675	-200.000	0.043	-0.303
-709.660	252.537	-0.115	-0.197
-708.645	42.329	0.096	0.088
-707.631	-200.000	-0.004	-0.193
-706.616	22.792	-0.201	0.165
-705.602	170.879	0.048	0.069
-704.587	333.263	-0.064	0.125
-703.572	74.191	-0.334	0.353
-702.558	568.854	0.011	0.028
-701.543	463.228	-0.107	0.240
-700.529	800.000	-0.034	-0.121
-699.514	-200.000	0.073	-0.504
-698.499	-139.588	-0.200	0.021
-697.485	-135.039	-0.424	0.051
-696.470	108.721	-0.056	0.068
-695.456	212.108	0.077	0.123
-694.441	-69.389	0.347	-0.134
-693.426	-184.662	0.205	0.003
-692.412	-200.000	-0.076	0.418
-691.397	540.496	-0.078	-0.186
-690.383	-49.538	-0.086	-0.041
-689.368	-42.725	0.050	0.025
-688.354	631.317	0.011	0.027
-687.339	156.334	0.069	0.096
-686.324	-131.601	0.161	0.021
-685.310	65.432	-0.183	0.186
-684.295	52.225	-0.079	0.076
-683.281	-124.912	0.222	0.034
-682.266	-44.773	-0.379	-0.190
-681.251	800.000	-0.029	-0.120
-680.237	-200.000	-0.016	-0.163
-679.222	5.899	0.262	0.195
-678.208	47.961	0.267	-0.251
-677.193	638.017	-0.068	-0.174
-676.178	275.088	-0.080	-0.142
-675.164	-116.732	-0.376	-0.069
-674.149	19.078	-0.087	-0.070
-673.135	-10.892	-0.341	-0.226
-672.120	-200.000	0.000	0.047
-671.105	-136.144	0.023	0.003
-670.091	-118.296	-0.161	-0.029
-669.076	-84.447	-0.386	0.122
-668.062	331.518	0.105	0.202
-667.047	333.717	-0.092	-0.178
-666.032	496.107	0.125	-0.289
-665.018	172.646	0.188	-0.272
-664.003	-4.847	0.131	-0.091
-662.989	1.442	0.377	-0.272
-661.974	210.545	-0.142	-0.224
-660.959	800.000	-0.065	0.246
-659.945	-164.687	-0.365	0.017
-658.930	-18.721	0.473	0.296
-657.916	-106.080	-0.387	0.087
-656.901	800.000	0.072	-0.258
-655.886	800.000	0.010	-0.033
-654.872	-135.817	-0.161	-0.019
-653.857	427.491	-0.106	-0.230
-652.843	-143.192	-0.277	0.027
-651.828	-200.000	0.025	0.204
-650.814	-70.184	-0.142	-0.054
-649.799	-99.653	-0.189	0.048
-648.784	184.381	-0.104	0.154
-647.770	-140.254	0.180	0.019
-646.755	134.416	-0.125	0.163
-645.741	-200.000	-0.049	0.272
-644.726	-34.227	-0.413	-0.228
-643.711	199.060	0.080	-0.123
-642.697	-200.000	-0.069	-0.373
-641.682	262.101	-0.032	0.056
-640.668	-148.620	-0.304	-0.025
-639.653	33.180	-0.149	0.129
-638.638	-89.135	0.133	-0.039
-637.624	314.516	-0.027	-0.051
-636.609	180.794	-0.130	-0.192
-635.595	203.218	0.152	0.236
-634.580	-35.779	-0.452	-0.246
-633.565	800.000	0.041	-0.177
-632.551	270.933	-0.146	-0.257
-631.536	-52.443	-0.182	-0.084
-630.522	-120.513	-0.216	0.037
-629.507	-18.592	0.176	0.110
-628.492	633.223	0.047	-0.118
-627.478	128.899	-0.059	-0.076
-626.463	-1.174	0.109	0.077
-625.449	-13.173	0.016	0.010
-624.434	-200.000	-0.003	0.021
-623.419	-200.000	-0.032	0.208
-622.405	-200.000	-0.004	-0.063
-621.390	-165.334	-0.342	-0.015
-620.376	800.000	-0.075	-0.279
-619.361	670.461	0.047	0.122
-618.346	224.832	0.148	0.240
-617.332	800.000	-0.028	-0.088
-616.317	38.369	0.156	0.139
-615.303	-23.518	-0.172	0.103
-614.288	800.000	0.031	-0.123
-613.273	800.000	0.073	-0.308
-612.259	-68.316	-0.121	-0.047
-611.244	-30.373	0.250	-0.142
-610.230	-115.954	-0.119	-0.022
-609.215	183.907	-0.069	-0.102
-608.201	83.477	-0.221	-0.242
-607.186	-130.283	0.388	-0.053
-606.171	-200.000	0.212	-0.001
-605.157	-152.452	-0.292	0.021
-604.142	-145.962	-0.223	0.020
-603.128	-89.958	-0.175	-0.051
-602.113	252.742	0.157	0.268
-601.098	20.010	-0.264	-0.213
-600.084	88.526	0.151	0.168
-599.069	-43.323	0.125	-0.064
-598.055	272.756	-0.121	-0.214
-597.040	800.000	-0.048	-0.145
-596.025	122.773	0.157	-0.197
-595.011	768.505	0.071	-0.195
-593.996	5.758	0.261	-0.194
-592.982	-122.935	-0.133	0.021
-591.967	-114.683	-0.411	-0.079
-590.952	97.197	0.268	-0.307
-589.938	-93.803	-0.331	-0.091
-588.923	-52.135	0.196	-0.091
-587.909	33.137	-0.378	0.328
-586.894	-200.000	-0.015	-0.085
-585.879	800.000	-0.080	0.228
-584.865	63.593	-0.144	0.145
-583.850	-3.584	0.195	0.136
-582.836	-63.060	-0.273	-0.113
-581.821	-66.791	-0.157	0.062
-580.806	-31.975	0.121	-0.068
-579.792	-37.167	0.278	-0.149
-578.777	-104.137	0.268	-0.062
-577.763	-200.000	-0.024	0.354
-576.748	104.222	0.154	0.182
-575.733	92.553	0.097	-0.110
-574.719	88.659	-0.146	-0.163
-573.704	-200.000	-0.032	-0.203
-572.690	12.722	0.146	-0.113
-571.675	-200.000	-0.007	0.279
-570.661	424.107	0.233	-0.500
-569.646	-113.952	0.128	0.025
-568.631	-200.000	-0.015	0.067
-567.617	-200.000	0.025	-0.214
-566.602	346.272	-0.091	-0.178
-565.588	800.000	-0.049	-0.180
-564.573	144.128	-0.112	0.149
-563.558	-142.500	0.424	-0.042
-562.544	10.860	-0.184	0.140
-561.529	-34.371	0.103	0.057
-560.515	302.694	0.038	0.069
-559.500	234.662	-0.034	0.056
-558.485	-54.313	0.138	0.063
-557.471	800.000	0.058	-0.190
-556.456	-200.000	0.033	0.144
-555.442	-200.000	-0.039	0.314
-554.427	-47.000	0.327	0.159
-553.412	-112.876	-0.149	-0.030
-552.398	-200.000	0.007	0.077
-551.383	-75.582	-0.146	-0.052
-550.369	164.657	-0.075	0.106
-549.354	103.085	-0.027	-0.031
-548.339	-200.000	-0.024	0.326
-547.325	-200.000	0.043	0.222
-546.310	59.235	-0.096	-0.094
-545.296	-68.673	0.175	-0.068
-544.281	29.852	-0.176	-0.150
-543.266	-200.000	0.054	-0.481
-542.252	422.741	-0.025	-0.054
-541.237	370.840	-0.059	-0.119
-540.223	-78.526	-0.318	0.109
-539.208	143.752	-0.041	0.055
-538.193	-200.000	-0.058	0.269
-537.179	-74.328	-0.432	0.156
-536.164	-123.143	0.231	-0.037
-535.150	196.991	0.296	0.451
-534.135	-200.000	0.007	0.091
-533.121	-200.000	-0.044	-0.202
-532.106	-32.230	0.265	0.148
-531.091	-172.242	-0.396	-0.013
-530.077	-161.463	-0.172	-0.009
-529.062	-200.000	0.020	0.114
-528.048	516.928	0.055	-0.130
-527.033	-112.780	-0.064	0.013
-526.018	-175.026	-0.157	-0.004
-525.004	-50.512	-0.273	0.129
-523.989	652.295	-0.022	0.056
-522.975	800.000	0.069	0.228
-521.960	177.320	0.103	-0.150
-520.945	35.473	0.159	0.140
-519.931	14.615	0.417	0.325
-518.916	-158.231	0.391	-0.023
-517.902	-200.000	-0.010	0.054
-516.887	-200.000	0.080	0.472
-515.872	-200.000	0.039	0.235
-514.858	772.217	-0.085	-0.230
-513.843	-200.000	0.074	0.370
-512.829	800.000	-0.085	0.325
-511.814	-200.000	0.019	0.161
-510.799	-54.505	-0.262	0.119
-509.785	39.765	0.232	-0.208
-508.770	800.000	0.080	0.244
-507.756	48.788	0.110	0.103
-506.741	168.981	0.115	0.164
-505.726	-200.000	-0.033	0.171
-504.712	569.902	-0.107	-0.261
-503.697	-109.535	-0.357	-0.075
-502.683	10.177	0.141	-0.107
-501.668	-22.942	0.196	-0.118
-500.653	-36.302	0.082	-0.044
-499.639	-106.768	0.046	0.010
-498.624	49.097	0.033	0.031
-497.610	5.629	-0.294	0.217
-496.595	41.297	0.165	0.148
-495.581	19.907	0.184	-0.148
-494.566	-200.000	0.033	-0.310
-493.551	-39.017	0.065	0.034
-492.537	683.949	0.068	-0.176
-491.522	-25.218	0.305	0.180
-490.508	-14.955	-0.117	-0.075
-489.493	269.618	-0.051	0.090
-488.478	54.061	0.227	0.217
-487.464	-200.000	0.004	-0.212
-486.449	9.215	-0.276	0.208
-485.435	-20.164	-0.286	-0.176
-484.420	-91.775	0.279	0.079
-483.405	-79.504	0.362	-0.122
-482.391	656.360	-0.083	0.213
-481.376	60.405	-0.071	0.070
-480.362	800.000	0.037	-0.150
-479.347	28.405	-0.064	-0.054
-478.332	-127.006	0.098	0.014
-477.318	-4.314	-0.123	-0.085
-476.303	20.793	-0.083	0.067
-475.289	-138.912	0.262	-0.028
-474.274	-30.818	-0.411	-0.232
-473.259	-17.741	0.298	-0.187
-472.245	-24.759	-0.172	-0.102
-471.230	-51.525	0.382	-0.178
-470.216	-200.000	0.045	0.199
-469.201	25.585	-0.227	-0.188
-468.186	800.000	0.017	0.071
-467.172	-200.000	0.021	-0.181
-466.157	-80.492	-0.211	-0.070
-465.143	-16.025	-0.174	-0.110
-464.128	-121.515	0.117	-0.019
-463.113	260.677	-0.168	0.290
-462.099	-200.000	0.010	0.080
-461.084	-200.000	0.043	0.250
-460.070	724.916	-0.047	-0.125
-459.055	183.734	0.212	0.312
-458.040	-90.555	-0.339	-0.098
-457.026	-200.000	0.032	-0.406
-456.011	-183.350	-0.182	0.003
-454.997	-200.000	-0.030	-0.279
-453.982	-200.000	-0.020	-0.108
-452.968	340.325	-0.107	0.209
-451.953	-200.000	-0.033	-0.201
-450.938	49.960	-0.215	-0.202
-449.924	103.227	0.156	0.182
-448.909	47.653	-0.094	-0.088
-447.895	388.890	0.128	-0.264
-446.880	447.696	0.099	0.216
-445.865	-186.425	-0.232	0.003
-444.851	-181.370	-0.034	0.001
-443.836	-200.000	-0.010	-0.277
-442.822	-14.559	0.088	-0.057
-441.807	758.303	0.140	0.377
-440.792	17.867	-0.203	-0.161
-439.778	800.000	-0.030	-0.093
-438.763	-151.507	-0.043	0.003
-437.749	-200.000	-0.014	-0.192
-436.734	18.924	-0.243	-0.194
-435.719	-72.992	-0.279	-0.102
-434.705	-35.327	0.108	0.058
-433.690	-43.733	0.260	0.130
-432.676	-200.000	-0.006	-0.266
-431.661	143.020	-0.081	-0.107
-430.646	95.322	0.187	-0.212
-429.632	-120.977	0.212	-0.035
-428.617	4.627	0.286	0.209
-427.603	77.025	-0.101	0.107
-426.588	800.000	-0.065	0.225
-425.573	-200.000	0.230	0.001
-424.559	-74.987	-0.204	0.073
-423.544	36.740	-0.061	0.054
-422.530	142.942	-0.135	0.178
-421.515	-92.366	0.209	-0.059
-420.500	800.000	0.031	0.086
-419.486	190.828	-0.083	0.124
-418.471	323.958	0.066	0.126
-417.457	159.855	0.173	-0.239
-416.442	54.679	0.147	0.141
-415.428	381.807	0.084	-0.172
-414.413	-200.000	-0.013	0.065
-413.398	372.525	0.200	0.403
-412.384	-92.273	-0.104	0.029
-411.369	-200.000	0.006	-0.036
-410.355	100.302	-0.131	0.151
-409.340	-66.611	-0.158	0.062
-408.325	285.292	0.029	0.052
-407.311	164.930	-0.062	-0.087
-406.296	800.000	-0.020	0.056
-405.282	191.462	0.113	0.169
-404.267	-76.902	0.339	0.118
-403.252	51.813	-0.055	-0.052
-402.238	-33.049	-0.177	0.097
-401.223	-131.417	0.286	0.038
-400.209	-69.439	-0.352	-0.134
-399.194	-6.612	-0.139	0.094
-398.179	-200.000	-0.012	-0.317
-397.165	-76.279	-0.276	0.097
-396.150	-200.000	-0.013	-0.167
-395.136	229.012	-0.012	-0.020
-394.121	-90.853	-0.195	-0.056
-393.106	-7.731	0.017	0.011
-392.092	800.000	0.086	-0.335
-391.077	11.789	0.214	-0.163
-390.063	658.643	0.139	0.355
-389.048	-200.000	-0.034	0.367
-388.033	800.000	-0.026	-0.106
-387.019	59.202	-0.180	-0.176
-386.004	125.755	0.049	-0.061
-384.990	133.239	0.168	-0.216
-383.975	-200.000	-0.035	-0.248
-382.960	4.338	0.301	-0.219
-381.946	25.709	0.065	0.054
-380.931	53.502	0.280	0.266
-379.917	215.435	0.084	-0.132
-378.902	133.079	-0.047	0.060
-377.888	-71.318	-0.262	0.097
-376.873	-82.197	-0.129	0.042
-375.858	69.457	-0.362	-0.370
-374.844	43.838	0.343	-0.312
-373.829	44.634	0.081	0.074
-372.815	11.310	0.084	0.064
-371.800	-200.000	0.009	-0.112
-370.785	-122.576	0.183	0.029
-369.771	244.129	-0.089	-0.149
-368.756	360.258	-0.154	0.307
-367.742	-106.898	0.069	0.015
-366.727	-27.590	-0.114	-0.066
-365.712	242.555	-0.078	-0.130
-364.698	148.808	0.103	-0.138
-363.683	-152.949	-0.401	0.028
-362.669	-200.000	-0.008	-0.214
-361.654	-160.172	0.095	-0.005
-360.639	-70.399	0.153	-0.058
-359.625	145.049	0.055	0.073
-358.610	-91.347	0.106	-0.030
-357.596	4.827	0.170	-0.124
-356.581	43.212	0.078	-0.071
-355.566	-69.038	0.087	-0.033
-354.552	14.009	-0.289	0.223
-353.537	800.000	0.008	0.033
-352.523	311.882	0.125	-0.232
-351.508	-200.000	0.026	-0.132
-350.493	322.385	0.125	0.237
-349.479	800.000	-0.060	0.185
-348.464	-165.055	0.157	-0.007
-347.450	800.000	0.080	0.228
-346.435	122.593	0.066	0.082
-345.420	349.267	0.097	0.190
-344.406	262.719	-0.102	-0.176
-343.391	-200.000	-0.009	0.182
-342.377	664.297	0.013	0.033
-341.362	8.519	-0.251	0.187
-340.348	416.354	0.076	0.160
-339.333	-114.554	-0.099	-0.019
-338.318	-200.000	-0.041	-0.358
-337.304	151.598	-0.263	-0.355
-336.289	-52.762	-0.089	-0.041
-335.275	25.880	-0.113	0.093
-334.260	-200.000	0.234	-0.001
-333.245	-158.816	-0.140	-0.008
-332.231	-162.037	-0.284	-0.014
-331.216	7.528	0.203	0.150
-330.202	93.163	0.180	-0.202
-329.187	9.274	0.259	0.194
-328.172	97.870	-0.049	-0.056
-327.158	-155.796	0.336	0.021
-326.143	97.723	-0.082	0.093
-325.129	271.955	0.135	-0.236
-324.114	-33.856	0.161	0.088
-323.099	469.069	-0.205	0.457
-322.085	-186.752	-0.177	-0.002
-321.070	89.882	-0.030	0.033
-320.056	-200.000	-0.087	-0.448
-319.041	617.996	0.071	-0.176
-318.026	-39.000	0.148	0.077
-317.012	-57.180	-0.211	-0.092
-315.997	-26.020	-0.147	0.086
-314.983	146.519	-0.096	0.128
-313.968	-99.284	-0.315	0.079
-312.953	-171.893	-0.126	-0.004
-311.939	5.349	-0.200	-0.146
-310.924	-141.378	-0.260	0.026
-309.910	-61.775	-0.162	-0.067
-308.895	-27.193	0.122	0.070
-307.880	42.617	-0.137	-0.123
-306.866	52.776	0.134	-0.127
-305.851	-200.000	-0.016	-0.133
-304.837	-44.295	-0.053	-0.026
-303.822	320.434	0.244	0.458
-302.807	490.210	0.144	0.326
-301.793	-41.033	0.107	0.055
-300.778	-99.005	-0.333	0.084
-299.764	232.849	-0.134	-0.217
-298.749	-124.040	-0.189	0.029
-297.735	800.000	-0.044	-0.166
-296.720	800.000	0.073	0.249
-295.705	-95.712	-0.210	-0.056
-294.691	-106.266	-0.080	0.018
-293.676	-200.000	0.008	0.155
-292.662	-113.108	0.357	0.070
-291.647	-2.403	-0.111	-0.077
-290.632	166.873	-0.144	-0.202
-289.618	-200.000	0.040	0.308
-288.603	800.000	-0.034	0.125
-287.589	-133.453	0.502	-0.062
-286.574	800.000	-0.099	-0.319
-285.559	6.435	0.273	-0.200
-284.545	125.898	-0.125	0.156
-283.530	-123.902	-0.233	-0.036
-282.516	-200.000	0.001	-0.181
-281.501	-153.555	0.266	-0.018
-280.486	800.000	0.087	-0.285
-279.472	55.574	0.122	-0.116
-278.457	71.247	0.094	0.096
-277.443	-115.358	0.161	0.030
-276.428	-200.000	-0.012	-0.183
-275.413	-121.071	0.059	0.010
-274.399	-117.028	0.092	-0.017
-273.384	146.024	0.188	-0.250
-272.370	-41.010	0.236	0.121
-271.355	84.384	0.240	-0.259
-270.340	-200.000	-0.015	-0.494
-269.326	159.628	0.131	-0.180
-268.311	739.113	0.078	0.206
-267.297	120.394	-0.069	0.085
-266.282	-83.188	-0.122	-0.039
-265.267	238.079	-0.037	0.060
-264.253	-200.000	0.031	-0.138
-263.238	-200.000	0.010	0.186
-262.224	252.966	-0.046	0.077
-261.209	-4.712	0.168	0.114
-260.195	170.178	0.104	0.148
-259.180	-82.423	-0.529	0.170
-258.165	-81.483	-0.207	-0.067
-257.151	-60.470	0.252	0.106
-256.136	72.218	-0.167	-0.172
-255.122	-200.000	-0.001	-0.030
-254.107	65.263	-0.064	0.064
-253.092	-200.000	0.149	0.000
-252.078	-130.152	0.137	0.018
-251.063	49.594	-0.135	0.125
-250.049	-200.000	-0.022	-0.108
-249.034	93.622	-0.133	0.149
-248.019	237.662	-0.155	0.254
-247.005	65.956	0.092	0.092
-245.990	413.465	0.037	-0.078
-244.976	-33.076	0.068	0.037
-243.961	800.000	-0.009	-0.033
-242.946	-41.992	0.226	0.115
-241.932	800.000	0.050	0.192
-240.917	800.000	0.058	-0.222
-239.903	114.179	0.131	-0.158
-238.888	33.290	0.067	0.058
-237.873	-20.078	0.246	0.150
-236.859	-142.393	-0.166	-0.016
-235.844	-200.000	0.013	-0.264
-234.830	107.214	-0.118	0.138
-233.815	-28.079	-0.212	-0.121
-232.800	-183.194	-0.114	0.002
-231.786	-104.741	-0.084	0.019
-230.771	26.548	-0.096	0.080
-229.757	800.000	-0.048	0.155
-228.742	-51.576	-0.249	-0.115
-227.727	-200.000	0.012	-0.150
-226.713	-200.000	0.025	0.373
-225.698	-95.727	0.212	0.056
-224.684	15.576	-0.129	-0.100
-223.669	-157.249	-0.175	0.010
-222.655	-117.936	0.164	0.029
-221.640	553.677	0.140	0.332
-220.625	800.000	-0.009	0.029
-219.611	-200.000	-0.010	-0.191
-218.596	-87.192	-0.110	0.033
-217.582	-30.670	-0.128	0.072
-216.567	478.829	0.060	0.134
-215.552	42.319	0.220	0.198
-214.538	-173.996	0.264	-0.008
-213.523	-200.000	-0.015	0.097
-212.509	-121.637	0.180	-0.029
-211.494	559.268	-0.043	0.102
-210.479	122.524	0.164	0.202
-209.465	27.097	0.150	-0.124
-208.450	606.431	0.049	0.121
-207.436	-93.440	0.399	-0.109
-206.421	800.000	0.063	-0.180
-205.406	98.982	0.139	0.159
-204.392	-200.000	0.018	0.086
-203.377	54.923	-0.224	0.213
-202.363	-200.000	-0.005	-0.136
-201.348	262.206	0.095	0.162
-200.333	-51.282	-0.200	0.092
-199.319	-200.000	0.029	0.131
-198.304	-72.491	0.073	-0.026
-197.290	102.925	-0.164	-0.189
-196.275	800.000	0.023	0.091
-195.260	-200.000	0.030	0.220
-194.246	-200.000	-0.018	-0.132
-193.231	-57.565	-0.281	0.121
-192.217	-119.314	-0.242	-0.041
-191.202	-200.000	0.013	-0.277
-190.187	539.751	0.087	0.204
-189.173	-70.170	0.235	-0.088
-188.158	800.000	0.084	-0.235
-187.144	37.492	0.209	-0.183
-186.129	-200.000	-0.001	-0.179
-185.114	-66.677	0.215	0.084
-184.100	-43.803	-0.168	0.084
-183.085	217.204	0.164	0.258
-182.071	336.226	0.174	0.333
-181.056	-80.740	0.247	-0.081
-180.042	61.875	-0.202	0.199
-179.027	241.970	-0.069	0.113
-178.012	-200.000	0.015	-0.148
-176.998	-200.000	0.085	-0.474
-175.983	-94.000	-0.115	-0.031
-174.969	800.000	-0.126	0.407
-173.954	524.321	0.053	-0.123
-172.939	-92.617	-0.293	-0.081
-171.925	71.431	-0.093	-0.095
-170.910	17.788	-0.115	-0.091
-169.896	-22.119	0.062	-0.037
-168.881	-161.462	-0.069	-0.003
-167.866	-200.000	-0.024	0.311
-166.852	-154.355	-0.167	0.011
-165.837	-200.000	-0.058	0.272
-164.823	-200.000	-0.026	0.220
-163.808	-157.073	0.308	-0.018
-162.793	800.000	0.030	0.086
-161.779	157.642	-0.065	0.089
-160.764	-200.000	-0.043	-0.196
-159.750	211.151	0.110	-0.170
-158.735	-50.307	-0.232	0.108
-157.720	-200.000	-0.025	-0.164
-156.706	-162.347	0.389	0.019
-155.691	-200.000	-0.023	0.259
-154.677	-200.000	-0.034	-0.198
-153.662	264.630	0.208	-0.357
-152.647	193.090	-0.104	-0.154
-151.633	-200.000	0.004	0.170
-150.618	-200.000	-0.000	0.265
-149.604	37.276	-0.204	-0.177
-148.589	371.128	0.061	0.123
-147.574	-200.000	-0.001	-0.265
-146.560	-49.916	-0.051	-0.024
-145.545	-123.870	-0.114	-0.018
-144.531	-96.580	-0.316	-0.082
-143.516	800.000	0.084	-0.312
-142.502	-52.329	-0.270	-0.123
-141.487	-120.377	0.237	-0.040
-140.472	-140.834	-0.340	-0.034
-139.458	-80.665	0.308	0.101
-138.443	83.718	-0.085	-0.091
-137.429	800.000	-0.022	-0.086
-136.414	-200.000	-0.029	0.174
-135.399	160.589	0.114	-0.157
-134.385	-33.027	0.319	-0.174
-133.370	-200.000	-0.002	-0.188
-132.356	-105.958	0.165	-0.037
-131.341	-19.431	0.215	-0.131
-130.326	113.841	0.154	0.184
-129.312	46.680	0.116	0.106
-128.297	265.133	0.142	0.244
-127.283	140.939	-0.194	-0.253
-126.268	232.559	-0.037	0.060
-125.253	36.376	-0.166	-0.144
-124.239	92.980	0.244	0.271
-123.224	-114.684	0.253	0.048
-122.210	-31.824	0.359	-0.198
-121.195	-78.998	0.247	0.083
-120.180	77.579	0.251	0.262
-119.166	293.474	-0.101	0.180
-118.151	205.250	-0.166	-0.253
-117.137	207.661	-0.222	-0.341
-116.122	225.792	0.113	-0.181
-115.107	343.166	-0.114	-0.219
-114.093	800.000	-0.152	0.477
-113.078	-8.935	0.294	0.193
-112.064	147.373	0.060	-0.080
-111.049	-200.000	-0.003	-0.119
-110.034	-25.827	-0.248	-0.144
-109.020	336.855	0.074	-0.142
-108.005	131.001	-0.053	0.066
-106.991	26.628	0.201	0.165
-105.976	-200.000	0.023	0.103
-104.962	353.099	-0.132	-0.257
-103.947	800.000	0.081	0.247
-102.932	146.518	0.155	-0.204
-101.918	800.000	0.012	0.035
-100.903	-96.865	-0.327	0.084
-99.889	-200.000	0.004	0.042
-98.874	-10.910	0.191	-0.124
-97.859	-17.068	0.074	-0.046
-96.845	-200.000	-0.074	-0.510
-95.830	800.000	-0.080	-0.340
-94.816	299.800	0.064	-0.115
-93.801	365.494	-0.022	0.044
-92.786	-149.387	0.402	-0.031
-91.772	537.056	0.032	-0.075
-90.757	96.998	-0.086	0.097
-89.743	39.726	-0.176	0.155
-88.728	100.950	0.169	-0.193
-87.713	-200.000	0.056	-0.347
-86.699	-111.225	0.305	0.061
-85.684	406.248	-0.045	-0.093
-84.670	27.998	0.295	-0.244
-83.655	387.092	0.070	-0.143
-82.640	-45.514	-0.208	0.101
-81.626	582.780	-0.058	0.139
-80.611	-55.519	-0.138	0.061
-79.597	-200.000	0.016	0.388
-78.582	350.480	-0.178	0.346
-77.567	238.854	0.100	-0.163
-76.553	430.304	-0.018	0.038
-75.538	116.562	0.109	-0.131
-74.524	-200.000	0.006	-0.299
-73.509	-200.000	-0.006	0.133
-72.494	-122.938	0.230	-0.036
-71.480	461.723	0.087	-0.190
-70.465	-114.560	0.123	-0.023
-69.451	800.000	0.050	-0.207
-68.436	126.702	-0.239	-0.297
-67.422	-200.000	-0.032	0.269
-66.407	1.567	0.229	0.162
-65.392	-2.353	0.212	0.146
-64.378	138.584	0.272	0.350
-63.363	130.920	0.077	0.096
-62.349	-76.575	-0.352	0.121
-61.334	151.262	-0.700	-0.934
-60.319	66.377	0.510	0.508
-59.305	800.000	-0.316	-1.334
-58.290	522.726	0.417	0.961
-57.276	-200.000	0.212	1.939
-56.261	-200.000	94.373	570.584
-55.246	542.794	1371.042	3205.788
-54.232	163.578	2543.768	3507.584
-53.217	106.165	2264.452	2628.977
-52.203	42.350	1896.969	1690.250
-51.188	36.549	1689.775	1461.869
-50.173	33.871	1646.750	1404.814
-49.159	51.837	1691.804	1578.076
-48.144	53.404	1708.933	1605.717
-47.130	36.271	1670.684	1443.043
-46.115	33.423	1657.010	1410.011
-45.100	33.274	1651.803	1404.416
-44.086	33.289	1649.174	1402.241
-43.071	33.403	1646.126	1400.431
-42.057	33.242	1644.571	1397.865
-41.042	33.245	1642.291	1395.898
-40.027	33.278	1640.361	1394.439
-39.013	33.192	1638.285	1391.986
-37.998	33.191	1637.183	1390.990
-36.984	33.294	1635.301	1390.091
-35.969	33.298	1634.558	1389.433
-34.954	33.371	1632.772	1388.398
-33.940	33.394	1630.305	1386.415
-32.925	33.345	1628.915	1384.816
-31.911	33.283	1627.844	1383.401
-30.896	33.242	1625.787	1381.298
-29.881	33.243	1624.723	1380.348
-28.867	33.203	1622.875	1378.430
-27.852	33.311	1621.165	1377.707
-26.838	33.347	1619.710	1376.680
-25.823	33.353	1618.359	1375.521
-24.809	33.368	1617.061	1374.466
-23.794	33.338	1615.312	1372.714
-22.779	33.369	1613.854	1371.640
-21.765	33.422	1612.367	1370.709
-20.750	33.458	1610.855	1369.630
-19.736	33.341	1609.522	1367.597
-18.721	33.457	1607.943	1367.033
-17.706	33.347	1606.968	1365.361
-16.692	33.363	1604.946	1363.701
-15.677	33.327	1604.016	1362.602
-14.663	33.388	1602.788	1361.940
-13.648	33.421	1601.090	1360.682
-12.633	33.386	1599.665	1359.166
-11.619	33.342	1598.434	1357.753
-10.604	33.401	1596.604	1356.563
-9.590	33.314	1595.434	1354.895
-8.575	33.387	1593.905	1354.065
-7.560	33.534	1592.241	1353.643
-6.546	33.424	1591.692	1352.339
-5.531	33.483	1590.328	1351.547
-4.517	33.363	1589.564	1349.988
-3.502	33.375	1588.386	1349.018
-2.487	33.430	1586.285	1347.574
-1.473	32.617	1573.941	1331.291
-0.458	28.118	1550.784	1280.252
0.556	21.202	1546.845	1232.331
1.571	17.657	1567.696	1223.428
2.586	16.549	1579.910	1224.835
3.600	14.890	1528.668	1173.373
4.615	8.622	1422.924	1051.043
5.629	1.773	1359.904	961.291
6.644	0.372	1351.469	946.457
7.659	0.229	1350.498	944.795
8.673	0.187	1349.357	943.647
9.688	0.113	1347.408	941.738
10.702	0.163	1344.426	939.885
11.717	3.099	1349.285	961.576
12.731	10.759	1360.333	1017.497
13.746	16.230	1368.292	1057.744
14.761	17.071	1368.636	1063.186
15.775	16.341	1366.190	1056.626
16.790	15.288	1363.854	1048.144
17.804	14.515	1361.559	1041.464
18.819	14.165	1359.907	1037.925
19.834	13.841	1358.764	1034.941
20.848	13.696	1357.499	1032.983
21.863	13.434	1356.134	1030.221
22.877	13.269	1354.600	1027.940
23.892	13.099	1354.779	1026.924
24.907	13.174	1353.298	1026.176
25.921	13.174	1352.492	1025.479
26.936	13.151	1351.634	1024.592
27.950	13.285	1350.418	1024.413
28.965	13.375	1349.431	1024.130
29.980	13.324	1349.009	1023.401
30.994	13.397	1347.815	1022.857
32.009	13.465	1346.816	1022.429
33.023	13.478	1345.438	1021.372
34.038	13.396	1344.346	1019.950
35.053	13.370	1343.895	1019.354
36.067	13.432	1342.191	1018.352
37.082	13.416	1341.017	1017.277
38.096	13.376	1340.634	1016.648
39.111	13.413	1339.406	1015.854
40.126	13.291	1338.648	1014.440
41.140	13.338	1337.757	1013.966
42.155	13.190	1338.114	1013.236
43.169	13.122	1337.971	1012.626
44.184	13.198	1337.347	1012.528
45.199	13.182	1337.034	1012.104
46.213	13.230	1336.265	1011.726
47.228	13.321	1335.246	1011.418
48.242	13.289	1334.153	1010.306
49.257	13.219	1332.809	1008.770
50.271	13.356	1330.902	1008.075
51.286	13.346	1329.986	1007.231
52.301	13.222	1328.687	1005.405
53.315	13.209	1327.553	1004.375
54.330	13.256	1326.615	1003.866
55.344	13.179	1325.376	1002.373
56.359	13.207	1324.417	1001.724
57.374	13.234	1323.020	1000.745
58.388	13.175	1322.457	999.871
59.403	13.140	1322.701	999.756
60.417	13.064	1322.044	998.715
61.432	13.076	1320.774	997.735
62.447	13.084	1319.380	996.646
63.461	13.097	1318.032	995.618
64.476	13.097	1317.103	994.827
65.490	13.106	1316.276	994.167
66.505	13.113	1314.199	992.551
67.520	13.114	1313.214	991.731
68.534	13.071	1312.338	990.720
69.549	13.203	1311.433	990.744
70.563	13.132	1310.093	989.216
71.578	13.109	1308.882	988.074
72.593	13.066	1308.167	987.194
73.607	13.106	1306.909	986.396
74.622	13.117	1306.489	986.059
75.636	13.043	1305.591	984.847
76.651	13.059	1305.284	984.628
77.666	12.983	1304.748	983.684
78.680	13.060	1304.019	983.503
79.695	13.004	1303.592	982.758
80.709	13.150	1302.505	982.721
81.724	13.065	1301.984	981.737
82.739	13.135	1300.547	980.984
83.753	13.233	1299.553	980.727
84.768	13.265	1298.662	980.161
85.782	13.282	1297.183	979.054
86.797	13.335	1295.796	978.238
87.812	13.269	1294.327	976.653
88.826	13.238	1293.549	975.794
89.841	13.227	1292.441	974.810
90.855	13.318	1292.277	975.134
91.870	13.307	1291.052	974.061
92.884	13.288	1290.488	973.433
93.899	13.412	1289.229	973.126
94.914	13.382	1288.530	972.341
95.928	13.423	1287.407	971.644
96.943	13.373	1286.595	970.652
97.957	13.458	1285.687	970.380
98.972	13.321	1284.915	968.911
99.987	13.364	1283.085	967.694
101.001	13.279	1282.793	966.893
102.016	13.241	1281.812	965.848
103.030	13.319	1280.905	965.531
104.045	13.369	1279.875	964.960
105.060	13.303	1279.013	963.843
106.074	13.277	1277.264	962.285
107.089	13.183	1276.109	960.784
108.103	13.221	1274.612	959.792
109.118	13.234	1273.204	958.724
110.133	13.169	1272.406	957.662
111.147	13.225	1270.822	956.708
112.162	13.187	1269.889	955.702
113.176	13.245	1268.448	954.870
114.191	13.247	1267.670	954.211
115.206	13.226	1266.602	953.200
116.220	13.218	1265.415	952.180
117.235	13.261	1263.704	951.054
118.249	13.292	1263.043	950.648
119.264	13.199	1262.470	949.598
120.279	13.202	1261.349	948.690
121.293	13.312	1259.829	948.091
122.308	13.135	1259.364	946.644
123.322	13.195	1258.597	946.330
124.337	13.219	1257.477	945.541
125.352	13.329	1255.833	944.851
126.366	13.239	1254.947	943.585
127.381	13.145	1254.113	942.336
128.395	13.189	1252.977	941.652
129.410	13.308	1251.729	941.307
130.424	13.251	1250.910	940.283
131.439	13.251	1250.255	939.709
132.454	13.395	1249.259	939.693
133.468	13.323	1248.367	938.534
134.483	13.217	1247.774	937.404
135.497	13.292	1246.684	936.923
136.512	13.297	1245.483	935.968
137.527	13.362	1244.040	935.169
138.541	13.354	1242.838	934.137
139.556	13.312	1241.592	932.882
140.570	13.313	1240.708	932.140
141.585	13.350	1239.346	931.244
142.600	13.340	1237.914	930.026
143.614	13.505	1236.823	930.051
144.629	13.495	1236.108	929.374
145.643	13.522	1234.901	928.537
146.658	13.372	1234.266	927.140
147.673	13.334	1232.676	925.650
148.687	13.258	1231.744	924.442
149.702	13.304	1230.044	923.339
150.716	13.275	1228.735	922.117
151.731	13.301	1227.510	921.262
152.746	13.406	1226.023	920.648
153.760	13.461	1224.923	920.044
154.775	13.452	1223.987	919.208
155.789	13.457	1223.125	918.511
156.804	13.458	1222.331	917.835
157.819	13.542	1221.390	917.516
158.833	13.619	1219.538	916.469
159.848	13.512	1218.834	915.266
160.862	13.554	1218.419	915.104
161.877	13.541	1216.941	913.844
162.892	13.467	1215.956	912.615
163.906	13.391	1215.564	911.821
164.921	13.648	1213.661	911.725
165.935	13.460	1213.639	910.598
166.950	13.529	1212.523	910.054
167.964	13.531	1211.789	909.439
168.979	13.474	1211.244	908.635
169.994	13.555	1210.557	908.484
171.008	13.465	1210.148	907.604
172.023	13.706	1208.615	907.688
173.037	13.597	1208.001	906.551
174.052	13.703	1207.071	906.352
175.067	13.609	1205.916	904.892
176.081	13.526	1205.122	903.766
177.096	13.561	1204.416	903.346
178.110	13.576	1203.176	902.419
179.125	13.635	1201.245	901.209
180.140	13.672	1200.067	900.448
181.154	13.698	1199.048	899.743
182.169	13.671	1198.157	898.848
183.183	13.741	1196.994	898.279
184.198	13.743	1195.916	897.397
185.213	13.711	1194.821	896.323
186.227	13.772	1194.161	896.080
187.242	13.868	1192.615	895.361
188.256	13.803	1191.643	894.203
189.271	13.807	1190.712	893.447
190.286	13.765	1189.582	892.293
191.300	13.683	1188.611	891.042
192.315	13.621	1188.250	890.363
193.329	13.624	1187.959	890.077
194.344	13.647	1186.875	889.311
195.359	13.773	1186.332	889.502
196.373	13.809	1185.962	889.341
197.388	13.901	1185.341	889.287
198.402	13.983	1184.970	889.369
199.417	14.041	1183.993	888.866
200.432	14.104	1183.011	888.386
201.446	14.078	1182.483	887.775
202.461	13.949	1181.615	886.357
203.475	14.128	1180.197	886.166
204.490	14.042	1179.313	884.969
205.504	14.009	1178.105	883.807
206.519	13.988	1177.093	882.858
207.534	14.079	1175.352	881.957
208.548	13.991	1175.049	881.187
209.563	14.079	1174.443	881.121
210.577	14.052	1173.729	880.363
211.592	14.117	1172.799	879.929
212.607	14.161	1171.703	879.262
213.621	14.235	1170.944	879.010
214.636	14.179	1169.977	877.906
215.650	14.260	1169.020	877.539
216.665	14.218	1167.818	876.338
217.680	14.228	1167.471	876.055
218.694	14.358	1166.516	875.941
219.709	14.195	1166.001	874.622
220.723	14.250	1165.065	874.129
221.738	14.369	1164.159	873.996
222.753	14.189	1164.036	872.881
223.767	14.269	1163.062	872.496
224.782	14.296	1162.480	872.124
225.796	14.408	1161.557	871.938
226.811	14.485	1160.920	871.790
227.826	14.338	1160.544	870.659
228.840	14.389	1159.649	870.179
229.855	14.344	1159.107	869.458
230.869	14.375	1158.375	868.995
231.884	14.337	1157.486	868.054
232.899	14.413	1156.679	867.767
233.913	14.323	1156.238	866.890
234.928	14.347	1155.225	866.177
235.942	14.321	1154.655	865.538
236.957	14.292	1153.791	864.667
237.972	14.294	1153.074	864.061
238.986	14.397	1152.318	863.950
240.001	14.415	1151.740	863.534
241.015	14.424	1150.757	862.767
242.030	14.519	1149.611	862.325
243.045	14.436	1149.128	861.456
244.059	14.537	1147.826	860.926
245.074	14.563	1147.276	860.571
246.088	14.514	1146.318	859.524
247.103	14.546	1146.095	859.445
248.117	14.606	1145.660	859.353
249.132	14.726	1144.073	858.704
250.147	14.924	1143.279	859.050
251.161	14.807	1142.418	857.726
252.176	14.805	1142.314	857.559
253.190	14.872	1141.495	857.212
254.205	14.849	1141.290	856.864
255.220	14.870	1140.669	856.430
256.234	14.893	1140.307	856.200
257.249	14.935	1139.289	855.577
258.263	14.921	1138.562	854.884
259.278	14.935	1137.892	854.376
260.293	14.923	1137.337	853.824
261.307	14.949	1136.747	853.437
262.322	15.072	1136.052	853.468
263.336	14.984	1135.594	852.598
264.351	15.068	1134.688	852.268
265.366	15.055	1134.265	851.811
266.380	15.020	1133.765	851.180
267.395	15.014	1132.648	850.240
268.409	15.021	1132.030	849.736
269.424	14.945	1131.798	849.097
270.439	15.008	1131.107	848.827
271.453	15.039	1130.298	848.299
272.468	15.086	1129.044	847.522
273.482	15.031	1128.962	847.105
274.497	14.923	1128.404	846.069
275.512	15.128	1127.236	846.150
276.526	15.032	1126.644	845.150
277.541	15.059	1125.714	844.513
278.555	15.168	1125.040	844.480
279.570	15.186	1124.295	843.938
280.585	15.249	1123.041	843.238
281.599	15.161	1122.850	842.579
282.614	15.181	1121.933	841.917
283.628	15.207	1120.392	840.817
284.643	15.269	1119.452	840.348
285.657	15.153	1118.899	839.277
286.672	15.188	1118.123	838.794
287.687	15.410	1116.869	838.889
288.701	15.336	1116.201	837.945
289.716	15.307	1115.554	837.241
290.730	15.333	1114.668	836.628
291.745	15.292	1114.565	836.276
292.760	15.288	1113.568	835.431
293.774	15.454	1112.729	835.556
294.789	15.396	1112.653	835.133
295.803	15.345	1111.918	834.256
296.818	15.362	1110.954	833.545
297.833	15.383	1110.204	833.012
298.847	15.391	1109.581	832.511
299.862	15.464	1108.758	832.183
300.876	15.523	1107.686	831.596
301.891	15.443	1107.804	831.214
302.906	15.521	1107.131	831.023
303.920	15.505	1106.140	830.125
304.935	15.599	1105.464	830.008
305.949	15.708	1105.103	830.200
306.964	15.677	1104.243	829.330
307.979	15.663	1103.221	828.420
308.993	15.625	1102.772	827.823
310.008	15.597	1101.952	826.998
311.022	15.746	1101.161	827.060
312.037	15.690	1100.053	825.883
313.052	15.795	1099.371	825.811
314.066	15.661	1098.673	824.558
315.081	15.574	1097.809	823.407
316.095	15.686	1096.961	823.251
317.110	15.602	1096.273	822.246
318.125	15.690	1095.629	822.122
319.139	15.769	1094.606	821.666
320.154	15.690	1094.437	821.085
321.168	15.563	1093.962	820.034
322.183	15.663	1093.675	820.236
323.197	15.770	1092.748	819.988
324.212	15.674	1092.119	818.977
325.227	15.767	1091.327	818.764
326.241	15.872	1090.484	818.568
327.256	15.772	1090.014	817.655
328.270	15.796	1088.834	816.816
329.285	15.820	1087.828	816.104
330.300	15.838	1087.065	815.548
331.314	15.922	1086.317	815.322
332.329	15.842	1085.127	813.970
333.343	15.819	1084.693	813.459
334.358	15.892	1083.883	813.131
335.373	15.894	1083.511	812.794
336.387	15.927	1082.735	812.299
337.402	15.981	1081.637	811.661
338.416	16.024	1081.016	811.329
339.431	16.144	1080.046	811.109
340.446	15.974	1079.835	810.059
341.460	16.081	1078.955	809.844
342.475	16.174	1078.108	809.581
343.489	16.062	1077.516	808.530
344.504	16.128	1076.307	807.864
345.519	16.224	1075.359	807.540
346.533	16.141	1074.854	806.695
347.548	16.187	1074.304	806.429
348.562	16.348	1073.235	806.326
349.577	16.223	1072.650	805.216
350.592	16.175	1071.801	804.281
351.606	16.117	1071.424	803.650
352.621	16.259	1070.332	803.436
353.635	16.183	1069.824	802.620
354.650	16.154	1069.175	801.926
355.665	16.106	1068.410	801.052
356.679	16.155	1067.888	800.822
357.694	16.150	1067.520	800.451
358.708	16.244	1067.109	800.521
359.723	16.251	1066.419	799.967
360.738	16.317	1065.484	799.503
361.752	16.260	1065.230	798.973
362.767	16.339	1064.245	798.536
363.781	16.446	1063.707	798.568
364.796	16.426	1063.131	797.972
365.810	16.499	1062.250	797.586
366.825	16.524	1062.015	797.455
367.840	16.503	1061.742	797.078
368.854	16.517	1061.178	796.653
369.869	16.598	1060.083	796.143
370.883	16.528	1059.111	795.009
371.898	16.587	1058.421	794.701
372.913	16.471	1058.218	793.932
373.927	16.460	1057.636	793.374
374.942	16.586	1057.376	793.699
375.956	16.597	1057.036	793.427
376.971	16.611	1055.843	792.526
377.986	16.617	1055.521	792.244
379.000	16.620	1054.880	791.708
380.015	16.777	1054.181	791.845
381.029	16.692	1053.741	791.047
382.044	16.797	1052.954	790.877
383.059	16.812	1052.026	790.179
384.073	16.826	1051.418	789.716
385.088	16.810	1050.649	788.995
386.102	16.752	1049.991	788.160
387.117	16.751	1049.254	787.534
388.132	16.743	1048.111	786.568
389.146	16.836	1046.930	786.045
390.161	16.826	1046.333	785.482
391.175	16.802	1045.661	784.795
392.190	16.826	1044.842	784.223
393.205	16.873	1044.674	784.246
394.219	16.895	1043.335	783.271
395.234	17.043	1042.845	783.519
396.248	16.846	1041.894	781.826
397.263	16.747	1040.633	780.356
398.278	16.834	1039.933	780.161
399.292	16.938	1039.370	780.148
400.307	16.791	1038.962	779.098
401.321	16.812	1038.513	778.785
402.336	16.762	1037.793	777.949
403.350	16.851	1037.010	777.703
404.365	17.065	1036.118	777.946
405.380	16.948	1035.848	777.137
406.394	16.997	1034.581	776.344
407.409	17.118	1033.717	776.179
408.423	17.083	1033.087	775.479
409.438	17.165	1032.510	775.349
410.453	17.096	1032.055	774.622
411.467	17.256	1030.944	774.452
412.482	17.256	1030.409	773.980
413.496	17.173	1030.096	773.297
414.511	17.227	1029.593	773.097
415.526	17.276	1029.037	772.834
416.540	17.293	1028.567	772.491
417.555	17.381	1027.756	772.213
418.569	17.325	1027.183	771.460
419.584	17.321	1027.058	771.281
420.599	17.281	1026.628	770.708
421.613	102.595	1319.243	1459.623
422.628	93.810	1361.832	1459.722
