DTS Sentinel unit serial number:	SN413079Multiplexer serial number:	ORYXHardware model number:	OX4-SRSoftware version number:	ORYX F/W v4.00 Oryx Data Collector v3.7.2.0data status	okinstallation	princeton_trtdifferential loss correction	single-endedforward channel	channel 2reverse channel	N/Adate	2019/09/11time	12:17:10forward acquisition time	60.00reverse acquisition time	0.00gamma	496.2192k internal	0.2300k external	0.2300temperature offset calibration	0.9968default loss term (dB/km)	0.3790temperature slope calibration	1.0000multiplexer offset coefficient	1.0000multiplexer slope coefficient	1.0000fibre end	0.00T internal ref (°C)	39.98T ext. ref 1 (°C)	0.23T ext. ref 2 (°C)	38.18length (m)	temperature (°C)	Stokes	anti-Stokes-747.200	162.680	0.176	0.252
-746.185	-123.005	-0.060	-0.010
-745.171	613.186	-0.156	0.398
-744.156	-200.000	0.049	0.246
-743.142	-200.000	-0.029	0.167
-742.127	5.059	0.131	-0.099
-741.112	377.555	-0.090	0.188
-740.098	-166.611	-0.360	-0.015
-739.083	-7.293	-0.144	0.099
-738.069	494.834	0.042	-0.099
-737.054	58.593	0.052	0.052
-736.039	582.616	0.025	-0.063
-735.025	-28.327	-0.167	0.098
-734.010	-3.763	-0.084	0.059
-732.996	800.000	0.084	0.273
-731.981	-136.078	0.155	-0.019
-730.966	-200.000	-0.019	-0.091
-729.952	462.061	-0.058	-0.131
-728.937	83.610	0.232	-0.258
-727.923	-44.403	-0.223	-0.114
-726.908	-71.455	0.280	-0.107
-725.894	-74.706	-0.624	-0.229
-724.879	800.000	0.032	-0.130
-723.864	-27.329	-0.322	0.191
-722.850	-200.000	-0.012	-0.234
-721.835	-128.948	0.394	-0.056
-720.821	-22.790	-0.165	-0.102
-719.806	-69.028	-0.146	-0.057
-718.791	-112.891	0.133	-0.027
-717.777	280.268	0.054	0.098
-716.762	-200.000	-0.005	0.106
-715.748	159.829	0.092	-0.131
-714.733	82.881	0.153	-0.170
-713.718	800.000	-0.018	0.060
-712.704	102.603	0.167	-0.199
-711.689	77.522	-0.350	-0.380
-710.675	135.189	-0.074	0.098
-709.660	-112.249	0.258	-0.053
-708.645	237.750	0.058	-0.098
-707.631	28.280	0.142	-0.122
-706.616	245.478	0.103	0.176
-705.602	-142.164	-0.217	0.022
-704.587	-200.000	-0.054	-0.255
-703.572	800.000	-0.086	-0.360
-702.558	-189.491	0.256	0.003
-701.543	20.553	0.187	-0.154
-700.529	-200.000	0.011	0.090
-699.514	335.361	0.225	0.444
-698.499	-200.000	-0.006	0.057
-697.485	-183.160	0.199	0.004
-696.470	-43.194	0.100	-0.051
-695.456	-105.635	0.244	0.056
-694.441	-153.640	0.206	0.014
-693.426	-81.971	0.290	-0.097
-692.412	800.000	0.065	-0.267
-691.397	-58.383	-0.122	-0.054
-690.383	-71.949	-0.306	-0.116
-689.368	263.347	0.052	0.092
-688.354	-135.245	-0.279	-0.034
-687.339	-45.812	0.071	0.036
-686.324	193.015	0.130	0.199
-685.310	245.587	0.027	0.046
-684.295	716.908	-0.038	0.101
-683.281	-21.086	0.033	-0.021
-682.266	-63.711	-0.300	0.125
-681.251	127.838	0.117	0.151
-680.237	215.100	0.154	-0.248
-679.222	-97.014	0.133	0.035
-678.208	645.885	0.102	-0.266
-677.193	450.291	0.086	0.193
-676.178	-26.192	0.283	-0.169
-675.164	43.974	0.183	0.171
-674.149	492.189	0.077	0.180
-673.135	589.745	-0.011	0.027
-672.120	800.000	0.062	-0.216
-671.105	800.000	0.007	-0.023
-670.091	-200.000	-0.022	-0.105
-669.076	-112.144	-0.173	-0.035
-668.062	-11.096	0.251	0.168
-667.047	-200.000	-0.009	0.062
-666.032	51.405	-0.238	-0.230
-665.018	-152.408	-0.165	0.012
-664.003	629.210	0.126	-0.324
-662.989	42.990	-0.056	-0.052
-661.974	-200.000	-0.008	0.100
-660.959	-147.729	-0.207	-0.018
-659.945	-200.000	0.004	-0.200
-658.930	129.449	0.150	-0.195
-657.916	40.786	0.135	-0.124
-656.901	395.127	-0.034	0.071
-655.886	-200.000	0.007	-0.083
-654.872	-200.000	0.047	0.256
-653.857	785.579	-0.139	-0.388
-652.843	-200.000	0.030	-0.168
-651.828	108.845	0.113	-0.138
-650.814	-11.653	0.249	-0.167
-649.799	-123.077	-0.221	0.036
-648.784	800.000	0.061	0.267
-647.770	800.000	-0.035	0.145
-646.755	-23.143	0.174	-0.106
-645.741	708.517	0.129	-0.346
-644.726	-200.000	0.026	0.163
-643.711	800.000	0.035	-0.139
-642.697	-172.379	0.079	0.003
-641.682	307.562	-0.149	-0.283
-640.668	384.334	-0.131	-0.274
-639.653	645.587	-0.062	0.160
-638.638	28.638	0.339	0.292
-637.624	489.552	-0.088	-0.205
-636.609	-200.000	0.018	-0.098
-635.595	-200.000	0.027	0.189
-634.580	6.070	-0.301	-0.227
-633.565	9.162	-0.403	-0.309
-632.551	2.913	0.378	0.279
-631.536	-29.798	-0.347	0.201
-630.522	800.000	0.075	-0.220
-629.507	-108.686	0.213	-0.046
-628.492	233.340	0.212	-0.354
-627.478	200.402	0.048	0.075
-626.463	-66.706	-0.170	-0.068
-625.449	-32.804	0.328	-0.185
-624.434	-62.537	-0.202	-0.085
-623.419	-108.301	0.093	0.020
-622.405	-200.000	-0.012	-0.310
-621.390	-189.467	-0.382	0.005
-620.376	147.775	0.089	0.121
-619.361	618.416	-0.042	-0.107
-618.346	-200.000	0.021	0.100
-617.332	800.000	-0.030	-0.121
-616.317	748.789	-0.096	0.264
-615.303	-108.605	-0.177	0.039
-614.288	227.991	0.118	-0.195
-613.273	-70.218	0.112	-0.043
-612.259	62.639	-0.241	0.245
-611.244	800.000	0.062	-0.197
-610.230	800.000	-0.092	-0.281
-609.215	16.381	0.120	-0.096
-608.201	-19.378	0.075	-0.047
-607.186	800.000	0.063	-0.249
-606.171	324.906	-0.050	0.098
-605.157	-108.694	0.133	0.029
-604.142	24.423	0.120	-0.101
-603.128	-75.912	-0.330	-0.119
-602.113	0.360	0.212	-0.153
-601.098	800.000	0.062	-0.273
-600.084	-54.415	-0.295	-0.136
-599.069	386.832	-0.047	0.099
-598.055	-95.741	0.165	0.045
-597.040	-53.286	0.339	-0.158
-596.025	-21.392	-0.188	-0.116
-595.011	800.000	-0.152	-0.441
-593.996	800.000	0.112	0.395
-592.982	-200.000	-0.049	0.494
-591.967	-200.000	0.005	0.237
-590.952	-176.585	-0.128	-0.003
-589.938	-50.398	-0.034	-0.016
-588.923	-121.640	0.337	-0.057
-587.909	281.498	0.082	-0.148
-586.894	-24.423	-0.221	-0.134
-585.879	147.592	-0.073	-0.099
-584.865	-200.000	0.007	-0.072
-583.850	105.006	0.074	-0.089
-582.836	-95.507	-0.477	0.130
-581.821	-25.199	-0.254	-0.152
-580.806	-200.000	-0.006	0.033
-579.792	-158.050	-0.241	-0.014
-578.777	596.593	0.029	-0.072
-577.763	218.940	0.041	-0.066
-576.748	-44.911	0.150	-0.076
-575.733	-87.750	-0.222	0.068
-574.719	-91.815	0.383	-0.110
-573.704	11.105	0.136	-0.106
-572.690	191.562	-0.070	0.107
-571.675	-173.074	-0.280	-0.009
-570.661	19.428	0.090	0.073
-569.646	-97.528	0.239	0.063
-568.631	-59.025	-0.258	-0.113
-567.617	202.812	-0.099	-0.154
-566.602	-139.831	-0.186	-0.020
-565.588	-200.000	0.005	-0.443
-564.573	142.977	-0.265	0.357
-563.558	-27.702	0.424	0.249
-562.544	-100.641	0.073	-0.018
-561.529	65.305	0.252	0.258
-560.515	-66.743	-0.258	0.103
-559.500	39.295	0.322	0.292
-558.485	-123.321	-0.245	-0.040
-557.471	18.621	0.115	-0.093
-556.456	-200.000	0.007	-0.396
-555.442	-81.027	0.153	-0.051
-554.427	-69.157	-0.170	-0.066
-553.412	-200.000	-0.010	-0.090
-552.398	-34.998	-0.068	0.038
-551.383	537.040	-0.086	-0.206
-550.369	115.938	-0.127	-0.157
-549.354	-56.489	0.320	-0.144
-548.339	-11.176	0.030	0.020
-547.325	-62.829	-0.240	-0.101
-546.310	-71.118	-0.373	-0.142
-545.296	-29.169	0.193	0.112
-544.281	106.180	-0.098	0.118
-543.266	617.288	0.085	0.217
-542.252	148.220	0.129	-0.177
-541.237	136.145	-0.184	0.242
-540.223	26.221	0.272	-0.230
-539.208	-114.352	0.394	-0.077
-538.193	-17.994	-0.174	-0.110
-537.179	-200.000	0.001	-0.248
-536.164	-200.000	0.005	-0.206
-535.150	5.283	0.087	-0.065
-534.135	-23.945	0.316	-0.191
-533.121	-200.000	-0.001	-0.226
-532.106	-133.538	-0.105	-0.013
-531.091	-34.243	0.111	0.061
-530.077	-190.665	0.103	0.001
-529.062	221.474	0.236	-0.384
-528.048	145.119	0.182	-0.246
-527.033	-188.203	-0.137	-0.002
-526.018	-200.000	0.008	-0.172
-525.004	-93.210	0.172	-0.048
-523.989	800.000	0.040	0.114
-522.975	-62.917	0.170	-0.071
-521.960	-61.350	0.157	0.067
-520.945	-200.000	0.037	0.222
-519.931	-78.925	0.331	-0.114
-518.916	-55.568	0.246	-0.111
-517.902	-125.678	0.022	-0.003
-516.887	-95.893	-0.042	-0.011
-515.872	-146.840	-0.195	-0.017
-514.858	104.093	-0.156	-0.185
-513.843	-200.000	0.029	0.282
-512.829	-55.911	0.074	-0.033
-511.814	-78.108	-0.385	0.134
-510.799	-158.874	-0.229	-0.013
-509.785	-200.000	0.014	-0.148
-508.770	-200.000	0.004	0.383
-507.756	800.000	0.127	0.515
-506.741	249.532	-0.098	0.168
-505.726	-200.000	-0.030	0.168
-504.712	-80.990	0.137	-0.046
-503.697	17.218	-0.262	-0.210
-502.683	176.424	-0.150	0.221
-501.668	41.743	0.346	0.317
-500.653	345.260	-0.135	-0.269
-499.639	-100.394	0.331	0.083
-498.624	-121.622	-0.240	-0.040
-497.610	-148.060	0.277	0.023
-496.595	216.782	-0.157	0.252
-495.581	-48.036	-0.390	0.190
-494.566	-175.839	-0.627	0.017
-493.551	5.629	0.253	-0.189
-492.537	-57.393	-0.486	0.216
-491.522	120.015	0.092	-0.115
-490.508	-34.621	-0.052	0.029
-489.493	-200.000	0.007	-0.227
-488.478	251.915	0.081	0.139
-487.464	-75.571	-0.126	-0.045
-486.449	114.219	0.029	-0.036
-485.435	800.000	-0.064	0.252
-484.420	176.566	-0.191	-0.280
-483.405	-200.000	-0.060	-0.352
-482.391	-200.000	0.024	0.424
-481.376	-121.044	-0.248	0.042
-480.362	-77.638	-0.049	-0.017
-479.347	-64.519	-0.078	-0.032
-478.332	255.717	0.005	0.009
-477.318	800.000	0.011	-0.041
-476.303	566.338	-0.121	0.297
-475.289	-97.739	-0.275	0.072
-474.274	-193.105	-0.295	-0.003
-473.259	-52.615	0.101	-0.047
-472.245	-69.857	0.223	-0.086
-471.230	-104.346	0.154	0.036
-470.216	-200.000	-0.010	-0.119
-469.201	97.885	-0.199	-0.231
-468.186	800.000	-0.094	-0.324
-467.172	800.000	-0.081	0.332
-466.157	-200.000	-0.059	0.272
-465.143	-69.479	-0.028	0.011
-464.128	-200.000	-0.025	-0.363
-463.113	256.979	-0.028	0.048
-462.099	-200.000	0.018	0.155
-461.084	-86.598	-0.502	0.155
-460.070	-200.000	-0.047	-0.289
-459.055	-19.753	-0.252	0.157
-458.040	138.754	-0.157	-0.208
-457.026	-31.984	0.359	-0.202
-456.011	-200.000	-0.314	-0.001
-454.997	-135.014	0.320	-0.039
-453.982	800.000	-0.187	0.545
-452.968	70.451	0.189	0.197
-451.953	800.000	-0.127	0.489
-450.938	-65.145	-0.131	-0.053
-449.924	56.866	0.141	-0.139
-448.909	800.000	0.156	-0.533
-447.895	-93.614	-0.213	0.059
-446.880	43.409	-0.245	-0.225
-445.865	-200.000	-0.030	-0.245
-444.851	-43.078	0.107	-0.055
-443.836	156.833	0.187	-0.260
-442.822	238.515	0.027	-0.045
-441.807	-113.515	-0.079	-0.016
-440.792	-200.000	0.004	-0.087
-439.778	-99.533	0.194	0.049
-438.763	-155.881	-0.101	-0.006
-437.749	-69.039	-0.193	-0.075
-436.734	-182.590	0.495	0.009
-435.719	60.657	0.177	0.177
-434.705	265.606	0.068	-0.120
-433.690	372.884	-0.080	0.164
-432.676	30.913	-0.061	0.053
-431.661	-200.000	-0.003	0.492
-430.646	800.000	0.007	-0.021
-429.632	187.871	-0.067	-0.101
-428.617	224.536	0.236	0.385
-427.603	14.277	0.028	0.022
-426.588	-200.000	0.000	0.003
-425.573	241.319	-0.050	0.085
-424.559	296.887	0.117	-0.216
-423.544	151.374	-0.134	-0.184
-422.530	-140.397	0.280	0.029
-421.515	-2.176	-0.090	0.063
-420.500	800.000	-0.106	0.461
-419.486	111.501	0.142	0.172
-418.471	-57.451	0.146	-0.065
-417.457	-200.000	-0.032	-0.187
-416.442	-200.000	-0.023	-0.156
-415.428	-154.326	0.022	0.002
-414.413	-200.000	-0.023	-0.311
-413.398	133.585	-0.121	-0.158
-412.384	800.000	0.043	0.149
-411.369	-200.000	0.004	-0.125
-410.355	-107.554	-0.371	0.082
-409.340	82.241	-0.126	-0.138
-408.325	-98.596	0.089	0.023
-407.311	213.270	0.119	0.190
-406.296	-65.110	-0.205	-0.083
-405.282	135.277	0.125	-0.164
-404.267	198.702	-0.181	-0.279
-403.252	-200.000	-0.037	-0.166
-402.238	800.000	-0.079	0.266
-401.223	16.387	0.098	0.078
-400.209	-46.708	-0.125	-0.062
-399.194	9.620	0.157	-0.120
-398.179	800.000	0.074	0.211
-397.165	499.120	-0.023	0.053
-396.150	-200.000	0.011	0.146
-395.136	-84.819	-0.064	0.020
-394.121	173.838	-0.124	-0.181
-393.106	-113.569	0.267	-0.052
-392.092	123.371	0.231	0.292
-391.077	111.328	-0.044	0.054
-390.063	-177.574	-0.118	-0.003
-389.048	273.798	0.196	0.349
-388.033	226.672	-0.005	-0.008
-387.019	-29.376	0.172	-0.099
-386.004	222.782	-0.105	-0.169
-384.990	-118.041	0.038	0.007
-383.975	-200.000	-0.014	-0.073
-382.960	-24.356	-0.237	-0.142
-381.946	-60.417	-0.176	-0.075
-380.931	59.179	-0.412	-0.408
-379.917	-200.000	-0.006	-0.339
-378.902	-30.563	-0.102	0.058
-377.888	78.857	0.124	-0.133
-376.873	223.466	0.066	-0.107
-375.858	20.605	0.277	-0.226
-374.844	-6.723	0.046	-0.032
-373.829	-99.681	-0.104	-0.026
-372.815	481.385	-0.119	0.271
-371.800	-25.205	0.087	-0.052
-370.785	-119.010	-0.226	-0.040
-369.771	54.447	0.276	-0.267
-368.756	-200.000	0.029	0.176
-367.742	800.000	-0.035	-0.134
-366.727	-67.555	-0.130	-0.051
-365.712	-181.730	0.096	-0.002
-364.698	152.166	0.136	0.187
-363.683	160.067	0.081	0.113
-362.669	-200.000	-0.049	-0.242
-361.654	-200.000	0.073	0.400
-360.639	-200.000	-0.002	-0.029
-359.625	-88.684	0.239	-0.071
-358.610	40.407	-0.050	0.045
-357.596	255.303	-0.082	0.142
-356.581	299.975	0.138	-0.255
-355.566	191.325	0.017	0.026
-354.552	-161.730	-0.177	0.009
-353.537	-16.281	-0.090	-0.057
-352.523	70.771	-0.136	0.141
-351.508	800.000	0.027	0.114
-350.493	218.063	0.134	0.214
-349.479	-80.891	-0.185	0.062
-348.464	115.768	0.238	0.293
-347.450	-118.433	-0.255	-0.045
-346.435	26.196	-0.054	0.045
-345.420	-200.000	-0.005	0.287
-344.406	113.369	0.085	0.104
-343.391	-165.086	0.128	0.006
-342.377	344.718	0.128	0.253
-341.362	-124.083	-0.294	-0.046
-340.348	-200.000	0.007	0.086
-339.333	479.345	-0.129	-0.294
-338.318	-3.646	-0.079	-0.055
-337.304	137.569	0.103	-0.135
-336.289	-69.368	-0.299	-0.115
-335.275	22.623	0.163	0.134
-334.260	-200.000	-0.023	0.143
-333.245	-38.134	0.308	0.164
-332.231	-19.454	0.266	0.165
-331.216	441.657	-0.146	-0.320
-330.202	-14.239	0.332	0.215
-329.187	6.920	-0.119	0.089
-328.172	6.055	-0.022	-0.017
-327.158	-200.000	-0.007	0.296
-326.143	25.224	-0.218	-0.182
-325.129	800.000	0.093	-0.275
-324.114	-87.335	0.033	0.010
-323.099	-200.000	0.026	-0.241
-322.085	188.073	0.112	-0.168
-321.070	-6.944	0.087	-0.060
-320.056	-32.304	0.287	0.161
-319.041	25.114	0.146	-0.122
-318.026	-153.458	0.234	-0.016
-317.012	113.678	-0.055	-0.067
-315.997	586.794	0.142	-0.350
-314.983	800.000	0.032	0.122
-313.968	-200.000	-0.045	0.308
-312.953	-200.000	-0.012	0.201
-311.939	-80.591	0.139	-0.046
-310.924	800.000	0.066	-0.218
-309.910	-31.541	-0.181	0.102
-308.895	-18.110	-0.075	0.047
-307.880	-164.990	0.424	-0.019
-306.866	-117.825	0.210	-0.038
-305.851	-58.982	-0.180	0.078
-304.837	800.000	-0.059	-0.168
-303.822	800.000	-0.073	0.250
-302.807	-27.031	-0.150	0.088
-301.793	800.000	-0.046	0.165
-300.778	-142.961	0.228	-0.022
-299.764	27.340	-0.108	-0.091
-298.749	800.000	-0.079	0.290
-297.735	314.589	0.146	0.276
-296.720	-58.340	-0.059	-0.026
-295.705	33.772	-0.137	0.120
-294.691	-200.000	-0.088	-0.438
-293.676	-178.269	-0.127	0.003
-292.662	35.110	0.335	0.294
-291.647	-153.379	-0.330	0.023
-290.632	-2.035	0.161	-0.114
-289.618	593.509	0.021	0.053
-288.603	800.000	-0.060	0.172
-287.589	-80.463	0.257	-0.086
-286.574	-104.278	0.184	-0.043
-285.559	798.690	-0.049	-0.136
-284.545	26.198	0.240	-0.201
-283.530	-106.002	-0.380	-0.086
-282.516	-66.134	0.239	-0.095
-281.501	-200.000	0.054	-0.265
-280.486	90.214	0.203	-0.227
-279.472	-200.000	0.042	0.362
-278.457	-136.258	0.201	-0.024
-277.443	800.000	0.050	0.140
-276.428	1.515	-0.257	-0.185
-275.413	800.000	-0.101	-0.283
-274.399	-0.770	-0.049	-0.035
-273.384	45.240	-0.106	-0.098
-272.370	-67.205	0.333	0.131
-271.355	190.709	0.094	-0.141
-270.340	257.374	-0.200	0.345
-269.326	-126.969	-0.303	-0.045
-268.311	325.454	-0.134	0.256
-267.297	799.403	-0.108	-0.297
-266.282	11.380	0.602	0.462
-265.267	90.657	-0.073	0.082
-264.253	346.268	-0.045	0.089
-263.238	334.912	-0.100	0.194
-262.224	-31.553	-0.267	0.150
-261.209	-200.000	-0.065	0.380
-260.195	-123.570	-0.444	-0.071
-259.180	-200.000	-0.032	-0.273
-258.165	-149.196	-0.360	0.029
-257.151	-128.224	-0.295	-0.042
-256.136	800.000	0.054	0.202
-255.122	800.000	-0.062	0.203
-254.107	-200.000	0.018	-0.185
-253.092	518.670	-0.053	0.124
-252.078	425.951	-0.066	0.142
-251.063	-125.828	0.399	-0.060
-250.049	800.000	0.071	0.294
-249.034	142.535	-0.079	0.105
-248.019	49.150	-0.083	-0.078
-247.005	48.118	-0.090	0.085
-245.990	-24.567	-0.390	0.232
-244.976	-69.625	0.139	0.053
-243.961	-23.255	0.141	0.085
-242.946	-200.000	0.003	0.044
-241.932	-159.068	-0.321	-0.018
-240.917	-15.683	-0.067	-0.043
-239.903	-68.773	-0.152	-0.059
-238.888	196.269	0.176	-0.268
-237.873	-94.910	-0.046	0.013
-236.859	-200.000	0.023	-0.216
-235.844	-152.494	0.144	0.010
-234.830	-200.000	0.025	0.187
-233.815	-72.797	-0.297	0.110
-232.800	489.308	0.036	0.082
-231.786	-200.000	0.056	0.280
-230.771	29.385	0.203	-0.172
-229.757	11.605	-0.177	0.136
-228.742	800.000	0.024	-0.102
-227.727	-30.196	0.432	-0.245
-226.713	-73.267	-0.190	0.069
-225.698	-200.000	-0.012	0.119
-224.684	-101.007	0.056	-0.014
-223.669	658.231	0.073	0.188
-222.655	-89.080	-0.211	0.062
-221.640	-173.926	-0.093	0.003
-220.625	-147.165	0.094	-0.008
-219.611	-24.832	0.292	-0.173
-218.596	-200.000	0.005	-0.092
-217.582	419.099	-0.139	0.297
-216.567	36.378	-0.021	-0.018
-215.552	-161.236	0.384	0.020
-214.538	800.000	-0.081	0.240
-213.523	-60.292	0.284	0.121
-212.509	44.542	-0.066	0.060
-211.494	-115.627	-0.163	-0.031
-210.479	-34.309	0.367	0.201
-209.465	-172.790	0.169	-0.005
-208.450	-200.000	-0.001	-0.185
-207.436	12.426	0.092	0.071
-206.421	-71.589	0.493	0.184
-205.406	800.000	0.056	0.187
-204.392	11.023	-0.097	0.074
-203.377	292.155	-0.072	-0.131
-202.363	30.520	0.289	-0.247
-201.348	-141.093	-0.043	-0.004
-200.333	-181.301	0.202	-0.004
-199.319	-200.000	-0.019	0.117
-198.304	103.096	-0.056	0.065
-197.290	270.963	-0.168	0.295
-196.275	-102.329	-0.121	-0.029
-195.260	-200.000	0.082	0.467
-194.246	43.881	-0.058	0.053
-193.231	267.810	0.139	-0.243
-192.217	38.802	-0.073	-0.065
-191.202	-92.598	0.278	0.078
-190.187	-135.788	0.206	0.024
-189.173	64.950	0.028	-0.028
-188.158	-129.928	-0.244	-0.033
-187.144	-63.262	0.347	-0.143
-186.129	-113.306	0.115	0.023
-185.114	-136.423	0.192	-0.022
-184.100	-15.599	0.253	-0.161
-183.085	528.336	0.146	0.343
-182.071	167.095	0.115	-0.163
-181.056	800.000	0.048	0.150
-180.042	40.552	-0.118	-0.106
-179.027	-86.315	-0.323	-0.099
-178.012	6.476	0.082	-0.061
-176.998	-200.000	0.034	-0.292
-175.983	800.000	0.132	-0.414
-174.969	-75.792	-0.183	-0.065
-173.954	-125.388	0.186	0.028
-172.939	67.714	0.103	0.105
-171.925	-150.379	0.381	0.029
-170.910	251.554	-0.165	0.280
-169.896	78.818	-0.143	0.152
-168.881	-200.000	0.001	0.152
-167.866	-82.329	0.274	0.089
-166.852	284.421	-0.053	0.095
-165.837	-62.575	-0.244	0.101
-164.823	46.284	0.130	0.120
-163.808	-82.482	-0.283	0.092
-162.793	-85.242	-0.208	-0.065
-161.779	-54.919	0.082	0.037
-160.764	-63.788	0.289	-0.118
-159.750	120.983	-0.303	-0.376
-158.735	-200.000	-0.053	0.268
-157.720	800.000	0.096	-0.349
-156.706	20.725	-0.231	0.187
-155.691	298.772	0.084	-0.153
-154.677	-200.000	-0.024	0.159
-153.662	31.070	-0.310	0.265
-152.647	154.554	-0.135	0.185
-151.633	70.102	0.202	0.208
-150.618	-200.000	0.018	0.155
-149.604	-63.771	-0.154	0.063
-148.589	-30.770	-0.323	0.182
-147.574	30.834	0.121	-0.103
-146.560	125.919	0.059	0.075
-145.545	800.000	0.079	0.286
-144.531	162.158	0.118	0.164
-143.516	-136.271	-0.208	0.024
-142.502	355.358	-0.072	0.142
-141.487	140.433	0.311	-0.409
-140.472	-200.000	0.007	0.185
-139.458	800.000	0.076	0.312
-138.443	-72.386	-0.382	0.141
-137.429	74.219	-0.059	-0.062
-136.414	632.154	-0.093	0.235
-135.399	82.323	-0.133	-0.144
-134.385	-30.052	0.160	0.091
-133.370	-120.797	-0.331	0.056
-132.356	-140.981	0.162	0.017
-131.341	595.915	-0.133	0.328
-130.326	-134.602	-0.130	-0.016
-129.312	-81.538	0.177	-0.058
-128.297	338.680	-0.084	0.163
-127.283	103.329	-0.039	0.045
-126.268	329.107	0.112	0.213
-125.253	208.902	0.095	-0.148
-124.239	-36.242	0.132	0.071
-123.224	-54.970	0.360	-0.162
-122.210	305.659	0.058	0.108
-121.195	-200.000	0.009	-0.171
-120.180	800.000	-0.128	-0.391
-119.166	47.669	-0.232	0.215
-118.151	13.310	0.118	0.091
-117.137	488.846	-0.081	0.184
-116.122	146.567	0.122	-0.164
-115.107	248.771	0.131	-0.220
-114.093	800.000	0.050	0.178
-113.078	-200.000	0.058	-0.308
-112.064	-18.203	0.249	-0.155
-111.049	116.138	0.092	-0.113
-110.034	499.895	-0.071	-0.163
-109.020	-200.000	0.012	0.090
-108.005	-182.077	-0.067	-0.001
-106.991	-200.000	-0.002	0.057
-105.976	800.000	0.048	-0.142
-104.962	800.000	0.062	0.229
-103.947	-95.903	-0.137	-0.036
-102.932	-200.000	-0.023	-0.362
-101.918	-41.398	-0.145	0.074
-100.903	93.260	-0.036	0.041
-99.889	800.000	0.022	-0.066
-98.874	341.400	0.091	-0.176
-97.859	-127.353	0.158	-0.023
-96.845	-33.093	0.128	-0.071
-95.830	800.000	0.050	0.145
-94.816	800.000	0.080	0.259
-93.801	-200.000	0.029	-0.328
-92.786	800.000	0.036	-0.140
-91.772	75.201	-0.164	-0.172
-90.757	-200.000	0.006	-0.079
-89.743	-200.000	-0.079	0.654
-88.728	-99.365	-0.277	-0.070
-87.713	800.000	0.020	0.059
-86.699	41.585	0.137	-0.123
-85.684	-200.000	0.049	-0.476
-84.670	-50.772	0.181	-0.085
-83.655	-200.000	0.046	-0.298
-82.640	-200.000	-0.049	0.369
-81.626	362.818	-0.134	0.268
-80.611	-70.594	-0.037	0.014
-79.597	-200.000	0.045	-0.274
-78.582	-200.000	0.013	-0.088
-77.567	217.226	-0.229	0.363
-76.553	176.956	-0.056	-0.081
-75.538	800.000	-0.091	-0.353
-74.524	52.286	-0.089	0.084
-73.509	-122.459	0.161	0.026
-72.494	447.183	-0.088	-0.191
-71.480	-200.000	-0.072	0.487
-70.465	800.000	0.061	-0.211
-69.451	-200.000	-0.002	-0.101
-68.436	18.984	0.058	-0.046
-67.422	146.775	0.296	0.396
-66.407	-76.957	0.245	0.085
-65.392	239.707	0.038	-0.062
-64.378	-172.449	-0.319	-0.010
-63.363	38.865	-0.094	-0.083
-62.349	-36.391	-0.207	-0.111
-61.334	7.115	-1.057	-0.784
-60.319	-31.889	0.382	0.212
-59.305	800.000	-0.204	-0.659
-58.290	170.986	0.478	0.680
-57.276	800.000	0.519	1.720
-56.261	-200.000	76.287	490.565
-55.246	509.136	1344.890	3103.197
-54.232	142.950	2603.005	3436.725
-53.217	108.336	2373.068	2811.709
-52.203	49.132	1985.751	1852.640
-51.188	43.272	1772.523	1607.151
-50.173	40.483	1726.778	1543.936
-49.159	54.587	1761.278	1685.671
-48.144	59.738	1779.653	1743.561
-47.130	43.199	1743.832	1580.316
-46.115	39.981	1730.463	1543.067
-45.100	39.803	1726.028	1537.665
-44.086	39.868	1723.354	1535.722
-43.071	39.944	1720.097	1533.353
-42.057	39.704	1718.538	1530.042
-41.042	39.844	1715.995	1528.796
-40.027	39.895	1714.005	1527.361
-39.013	39.791	1712.269	1524.946
-37.998	39.868	1710.458	1523.871
-36.984	39.889	1709.839	1523.418
-35.969	40.083	1707.787	1523.027
-34.954	40.055	1706.290	1521.414
-33.940	39.965	1704.098	1518.704
-32.925	39.977	1702.362	1517.190
-31.911	39.950	1701.262	1515.947
-30.896	39.968	1698.489	1513.553
-29.881	40.002	1697.081	1512.498
-28.867	39.933	1695.787	1510.758
-27.852	40.031	1694.002	1509.856
-26.838	39.953	1693.196	1508.481
-25.823	39.955	1691.375	1506.814
-24.809	39.971	1690.143	1505.781
-23.794	39.936	1688.411	1503.908
-22.779	40.057	1686.900	1503.426
-21.765	40.084	1685.568	1502.379
-20.750	39.944	1683.764	1499.652
-19.736	39.986	1682.338	1498.637
-18.721	40.093	1680.518	1497.767
-17.706	40.053	1678.905	1495.974
-16.692	40.071	1677.268	1494.590
-15.677	39.967	1676.330	1492.905
-14.663	40.144	1673.953	1492.066
-13.648	40.152	1672.657	1490.911
-12.633	39.938	1671.621	1488.314
-11.619	39.995	1669.883	1487.140
-10.604	39.939	1668.536	1485.459
-9.590	39.999	1666.862	1484.363
-8.575	39.991	1665.921	1483.405
-7.560	39.954	1664.803	1482.074
-6.546	40.047	1663.031	1481.134
-5.531	39.988	1662.253	1479.940
-4.517	39.952	1661.377	1478.829
-3.502	39.930	1660.416	1477.752
-2.487	40.051	1658.818	1477.178
-1.473	40.034	1647.486	1466.903
-0.458	38.150	1627.970	1435.635
0.556	32.866	1627.342	1402.672
1.571	30.245	1652.711	1404.598
2.586	29.302	1665.751	1408.352
3.600	25.208	1610.349	1331.085
4.615	13.223	1487.330	1146.636
5.629	2.398	1411.869	1016.742
6.644	0.415	1401.784	996.299
7.659	0.215	1400.651	994.086
8.673	0.175	1399.056	992.601
9.688	0.106	1397.422	990.899
10.702	-0.194	1395.083	987.181
11.717	3.695	1402.828	1018.247
12.731	14.836	1425.363	1108.796
13.746	22.635	1438.244	1170.717
14.761	23.514	1438.406	1176.575
15.775	23.665	1437.974	1177.122
16.790	23.672	1437.578	1176.737
17.804	23.658	1437.024	1176.090
18.819	23.865	1436.560	1176.978
19.834	23.984	1435.938	1177.148
20.848	23.941	1435.269	1176.211
21.863	23.948	1434.432	1175.469
22.877	23.947	1433.311	1174.435
23.892	23.964	1432.367	1173.670
24.907	24.044	1431.334	1173.248
25.921	23.936	1430.311	1171.593
26.936	23.981	1429.965	1171.505
27.950	24.029	1428.573	1170.576
28.965	23.956	1426.866	1168.594
29.980	23.998	1425.602	1167.731
30.994	23.976	1424.340	1166.452
32.009	23.873	1423.591	1165.059
33.023	23.873	1422.346	1163.939
34.038	23.914	1421.191	1163.158
35.053	23.960	1419.757	1162.180
36.067	23.938	1419.123	1161.419
37.082	23.958	1417.844	1160.399
38.096	23.892	1416.899	1159.090
39.111	23.867	1416.412	1158.429
40.126	23.944	1415.599	1158.162
41.140	23.926	1414.972	1157.428
42.155	23.899	1414.875	1157.071
43.169	23.942	1414.574	1157.002
44.184	23.979	1414.181	1156.818
45.199	23.812	1414.234	1155.672
46.213	23.990	1413.256	1155.929
47.228	24.035	1412.104	1155.177
48.242	24.066	1410.411	1153.891
49.257	23.981	1409.388	1152.399
50.271	23.862	1408.363	1150.693
51.286	23.908	1406.958	1149.737
52.301	23.942	1405.475	1148.643
53.315	23.888	1404.795	1147.640
54.330	23.971	1403.707	1147.185
55.344	23.864	1402.666	1145.539
56.359	23.879	1401.255	1144.383
57.374	23.908	1400.700	1144.016
58.388	23.958	1399.890	1143.574
59.403	23.916	1399.805	1143.133
60.417	23.846	1398.930	1141.868
61.432	24.006	1397.940	1141.990
62.447	23.907	1397.370	1140.788
63.461	23.916	1396.096	1139.701
64.476	23.992	1394.850	1139.067
65.490	23.965	1393.705	1137.861
66.505	23.944	1392.371	1136.541
67.520	23.898	1390.834	1134.888
68.534	24.013	1389.891	1134.750
69.549	23.960	1388.910	1133.517
70.563	23.783	1388.635	1132.061
71.578	23.958	1387.154	1131.867
72.593	23.974	1386.108	1131.013
73.607	23.925	1385.927	1130.456
74.622	23.933	1385.278	1129.875
75.636	23.947	1384.094	1128.903
76.651	23.966	1383.174	1128.168
77.666	23.936	1382.860	1127.625
78.680	23.914	1382.117	1126.781
79.695	23.998	1381.140	1126.419
80.709	23.946	1380.675	1125.605
81.724	23.972	1379.788	1124.947
82.739	23.973	1378.588	1123.878
83.753	23.975	1377.515	1122.915
84.768	23.911	1376.600	1121.667
85.782	23.928	1375.519	1120.796
86.797	23.972	1374.046	1119.775
87.812	24.001	1372.648	1118.718
88.826	23.920	1371.775	1117.394
89.841	23.928	1370.989	1116.706
90.855	24.011	1369.501	1115.918
91.870	24.072	1368.593	1115.463
92.884	24.030	1367.966	1114.590
93.899	24.081	1366.937	1113.968
94.914	23.940	1366.777	1112.858
95.928	23.979	1365.859	1112.257
96.943	24.002	1365.165	1111.740
97.957	24.130	1363.704	1111.247
98.972	24.072	1362.870	1110.108
99.987	23.971	1362.484	1109.066
101.001	23.972	1360.889	1107.677
102.016	23.893	1360.615	1106.865
103.030	24.030	1359.241	1106.499
104.045	24.016	1358.725	1105.893
105.060	24.005	1357.833	1105.000
106.074	24.087	1356.248	1104.125
107.089	24.027	1355.373	1102.942
108.103	24.032	1354.469	1102.138
109.118	24.087	1353.239	1101.379
110.133	24.053	1352.279	1100.290
111.147	24.056	1351.242	1099.368
112.162	24.032	1349.814	1097.962
113.176	24.111	1348.659	1097.410
114.191	24.079	1347.605	1096.260
115.206	24.146	1346.485	1095.664
116.220	24.087	1345.483	1094.390
117.235	24.048	1344.791	1093.492
118.249	23.995	1344.184	1092.575
119.264	24.055	1343.140	1091.997
120.279	24.045	1342.429	1091.263
121.293	24.169	1341.473	1091.149
122.308	24.094	1340.667	1089.936
123.322	24.155	1339.870	1089.562
124.337	24.166	1338.688	1088.577
125.352	24.255	1337.654	1088.180
126.366	24.178	1337.065	1087.134
127.381	24.118	1336.686	1086.365
128.395	24.115	1335.444	1085.240
129.410	24.140	1334.535	1084.556
130.424	24.046	1334.038	1083.484
131.439	24.085	1332.989	1082.778
132.454	24.165	1332.195	1082.522
133.468	24.136	1331.354	1081.565
134.483	24.118	1331.016	1081.088
135.497	24.254	1329.919	1080.923
136.512	24.160	1328.957	1079.478
137.527	24.054	1327.813	1077.811
138.541	24.134	1326.508	1077.139
139.556	24.133	1324.941	1075.766
140.570	24.187	1324.173	1075.373
141.585	24.007	1323.445	1073.600
142.600	24.092	1322.000	1072.847
143.614	24.109	1321.418	1072.382
144.629	24.080	1320.291	1071.201
145.643	24.098	1318.983	1070.148
146.658	23.956	1318.381	1068.714
147.673	24.071	1317.160	1068.321
148.687	24.005	1316.332	1067.156
149.702	24.054	1315.253	1066.479
150.716	24.026	1314.011	1065.211
151.731	24.088	1313.040	1064.704
152.746	24.085	1311.836	1063.611
153.760	24.122	1310.658	1062.785
154.775	24.165	1309.899	1062.332
155.789	24.043	1308.975	1060.761
156.804	24.034	1308.226	1060.005
157.819	24.115	1307.112	1059.493
158.833	24.091	1306.157	1058.483
159.848	24.204	1304.976	1058.103
160.862	24.186	1304.237	1057.306
161.877	24.083	1303.984	1056.396
162.892	24.182	1302.671	1055.824
163.906	24.188	1302.365	1055.520
164.921	24.153	1301.511	1054.526
165.935	24.269	1300.554	1054.339
166.950	24.136	1300.114	1053.103
167.964	24.239	1299.204	1052.883
168.979	24.223	1298.699	1052.286
169.994	24.302	1298.256	1052.302
171.008	24.218	1297.320	1050.953
172.023	24.153	1296.534	1049.844
173.037	24.280	1295.612	1049.749
174.052	24.293	1294.681	1048.980
175.067	24.332	1293.718	1048.336
176.081	24.321	1293.177	1047.742
177.096	24.254	1292.362	1046.593
178.110	24.321	1291.233	1045.982
179.125	24.258	1290.681	1045.071
180.140	24.281	1289.242	1043.946
181.154	24.216	1288.538	1042.904
182.169	24.189	1287.300	1041.652
183.183	24.189	1286.450	1040.871
184.198	24.318	1285.218	1040.539
185.213	24.308	1284.262	1039.613
186.227	24.319	1283.091	1038.639
187.242	24.306	1282.637	1038.102
188.256	24.414	1281.499	1037.716
189.271	24.314	1280.799	1036.475
190.286	24.312	1280.271	1035.945
191.300	24.278	1279.335	1034.900
192.315	24.204	1278.828	1033.969
193.329	24.255	1278.870	1034.205
194.344	24.363	1278.206	1034.203
195.359	24.295	1277.552	1033.189
196.373	24.310	1276.628	1032.440
197.388	24.193	1276.620	1031.661
198.402	24.227	1276.391	1031.581
199.417	24.228	1275.650	1030.896
200.432	24.351	1274.855	1030.877
201.446	24.256	1274.302	1029.790
202.461	24.226	1274.173	1029.420
203.475	24.321	1272.658	1028.655
204.490	24.325	1271.984	1028.039
205.504	24.409	1270.399	1027.152
206.519	24.461	1269.940	1026.987
207.534	24.334	1269.335	1025.679
208.548	24.331	1268.345	1024.772
209.563	24.370	1267.545	1024.258
210.577	24.362	1266.552	1023.318
211.592	24.422	1265.325	1022.579
212.607	24.412	1264.710	1021.937
213.621	24.437	1263.902	1021.335
214.636	24.461	1263.541	1021.093
215.650	24.466	1262.048	1019.822
216.665	24.482	1261.019	1018.990
217.680	24.464	1260.159	1018.106
218.694	24.322	1259.997	1017.075
219.709	24.471	1258.904	1016.950
220.723	24.440	1258.215	1016.128
221.738	24.401	1257.118	1014.930
222.753	24.403	1256.604	1014.438
223.767	24.491	1255.929	1014.298
224.782	24.621	1255.481	1014.585
225.796	24.599	1255.214	1014.158
226.811	24.445	1254.503	1012.618
227.826	24.521	1254.275	1012.776
228.840	24.563	1253.205	1012.060
229.855	24.533	1252.917	1011.568
230.869	24.521	1251.868	1010.564
231.884	24.520	1251.031	1009.795
232.899	24.522	1250.555	1009.333
233.913	24.502	1249.906	1008.606
234.928	24.660	1249.359	1008.965
235.942	24.571	1249.028	1008.107
236.957	24.529	1248.192	1007.105
237.972	24.617	1247.445	1006.909
238.986	24.590	1246.302	1005.745
240.001	24.664	1246.081	1005.899
241.015	24.665	1245.309	1005.190
242.030	24.629	1244.527	1004.267
243.045	24.690	1243.467	1003.667
244.059	24.570	1242.946	1002.485
245.074	24.710	1241.677	1002.154
246.088	24.705	1240.826	1001.351
247.103	24.640	1240.332	1000.502
248.117	24.757	1239.452	1000.357
249.132	24.777	1238.448	999.569
250.147	24.759	1237.893	998.935
251.161	24.806	1237.298	998.626
252.176	24.839	1236.503	998.079
253.190	24.716	1236.028	996.922
254.205	24.674	1235.719	996.350
255.220	24.758	1234.985	996.139
256.234	24.759	1233.947	995.220
257.249	24.768	1233.385	994.731
258.263	24.667	1232.907	993.696
259.278	24.758	1232.510	993.792
260.293	24.814	1231.932	993.547
261.307	24.764	1231.295	992.670
262.322	24.957	1230.566	993.065
263.336	24.942	1229.865	992.327
264.351	24.770	1229.433	990.938
265.366	24.835	1228.510	990.466
266.380	24.771	1228.273	989.834
267.395	24.870	1227.141	989.383
268.409	24.803	1226.691	988.561
269.424	24.819	1226.359	988.293
270.439	24.888	1225.588	987.968
271.453	24.794	1225.098	986.965
272.468	24.885	1223.807	986.338
273.482	24.750	1223.315	985.110
274.497	24.860	1222.723	985.151
275.512	24.827	1222.517	984.717
276.526	24.876	1221.438	984.033
277.541	24.912	1220.701	983.549
278.555	25.001	1219.823	983.244
279.570	25.035	1219.109	982.769
280.585	24.895	1218.741	981.614
281.599	24.904	1217.842	980.856
282.614	24.932	1216.416	979.771
283.628	25.018	1215.520	979.433
284.643	24.973	1214.867	978.573
285.657	25.095	1213.882	978.360
286.672	24.958	1213.351	977.099
287.687	24.981	1212.431	976.398
288.701	25.070	1211.722	976.221
289.716	25.077	1211.220	975.771
290.730	24.988	1210.564	974.671
291.745	25.138	1209.819	974.799
292.760	25.167	1209.226	974.395
293.774	25.103	1209.011	973.788
294.789	25.140	1208.027	973.109
295.803	25.093	1207.561	972.395
296.818	25.136	1207.000	972.091
297.833	25.212	1205.638	971.315
298.847	25.242	1204.920	970.818
299.862	25.143	1204.699	970.015
300.876	25.225	1203.698	969.566
301.891	25.170	1203.610	969.113
302.906	25.211	1202.701	968.518
303.920	25.276	1202.104	968.302
304.935	25.162	1201.327	966.975
305.949	25.245	1200.849	966.954
306.964	25.196	1200.082	965.986
307.979	25.191	1199.284	965.229
308.993	25.226	1198.906	965.032
310.008	25.213	1198.118	964.242
311.022	25.179	1197.270	963.288
312.037	25.191	1196.740	962.844
313.052	25.220	1195.674	962.055
314.066	25.316	1194.486	961.528
315.081	25.215	1193.888	960.422
316.095	25.215	1193.165	959.756
317.110	25.345	1192.527	959.853
318.125	25.315	1192.068	959.239
319.139	25.380	1191.270	958.855
320.154	25.320	1190.844	958.109
321.168	25.276	1190.310	957.360
322.183	25.294	1189.738	956.909
323.197	25.338	1188.619	956.158
324.212	25.473	1188.059	956.344
325.227	25.377	1187.958	955.669
326.241	25.410	1187.284	955.216
327.256	25.380	1186.754	954.548
328.270	25.492	1185.476	954.029
329.285	25.349	1185.008	952.805
330.300	25.521	1183.803	952.664
331.314	25.506	1182.783	951.684
332.329	25.456	1182.662	951.233
333.343	25.430	1181.589	950.151
334.358	25.517	1180.638	949.762
335.373	25.567	1180.157	949.556
336.387	25.505	1179.557	948.660
337.402	25.596	1178.939	948.559
338.416	25.534	1178.559	947.841
339.431	25.565	1177.595	947.147
340.446	25.595	1176.923	946.679
341.460	25.564	1176.477	946.073
342.475	25.597	1175.920	945.719
343.489	25.581	1174.871	944.705
344.504	25.545	1174.106	943.816
345.519	25.743	1172.618	943.574
346.533	25.679	1172.150	942.782
347.548	25.680	1171.464	942.150
348.562	25.754	1170.383	941.582
349.577	25.693	1169.759	940.683
350.592	25.625	1168.855	939.515
351.606	25.655	1168.102	938.984
352.621	25.634	1168.262	938.917
353.635	25.621	1167.369	938.049
354.650	25.665	1166.696	937.658
355.665	25.735	1166.048	937.419
356.679	25.737	1165.382	936.808
357.694	25.797	1164.813	936.581
358.708	25.777	1163.999	935.738
359.723	25.801	1163.327	935.240
360.738	25.777	1162.557	934.412
361.752	25.743	1162.398	934.026
362.767	25.776	1161.729	933.577
363.781	25.881	1160.822	933.311
364.796	25.974	1160.170	933.187
365.810	25.939	1159.665	932.517
366.825	25.882	1158.945	931.563
367.840	25.891	1158.165	930.895
368.854	25.863	1158.092	930.610
369.869	25.873	1157.069	929.758
370.883	25.965	1156.161	929.419
371.898	25.900	1155.484	928.461
372.913	25.995	1154.738	928.268
373.927	25.970	1154.506	927.868
374.942	25.968	1154.185	927.521
375.956	25.949	1153.677	926.932
376.971	26.024	1152.892	926.602
377.986	25.912	1152.663	925.763
379.000	25.961	1152.055	925.446
380.015	26.114	1151.445	925.654
381.029	26.016	1150.866	924.608
382.044	26.026	1150.007	923.884
383.059	26.084	1149.201	923.451
384.073	26.056	1148.671	922.802
385.088	26.092	1147.658	922.094
386.102	26.105	1146.933	921.494
387.117	26.101	1145.950	920.600
388.132	25.998	1145.129	919.334
389.146	25.965	1144.849	918.861
390.161	26.263	1143.553	919.257
391.175	26.173	1142.885	918.182
392.190	26.151	1142.477	917.660
393.205	26.055	1142.064	916.758
394.219	26.162	1141.358	916.654
395.234	26.182	1140.516	916.000
396.248	26.228	1139.226	915.114
397.263	26.260	1138.292	914.444
398.278	26.226	1138.042	913.991
399.292	26.333	1137.431	913.963
400.307	26.331	1136.569	913.176
401.321	26.234	1136.220	912.324
402.336	26.239	1135.388	911.602
403.350	26.224	1134.745	910.932
404.365	26.287	1133.892	910.480
405.380	26.399	1133.186	910.400
406.394	26.362	1132.321	909.437
407.409	26.387	1131.889	909.137
408.423	26.319	1131.353	908.282
409.438	26.402	1130.640	908.048
410.453	26.366	1129.747	907.071
411.467	26.524	1128.602	906.860
412.482	26.467	1128.333	906.281
413.496	26.422	1127.504	905.310
414.511	26.465	1126.973	905.019
415.526	26.511	1126.929	905.130
416.540	26.437	1126.533	904.360
417.555	26.411	1125.760	903.531
418.569	26.564	1125.105	903.691
419.584	26.446	1124.702	902.699
420.599	26.611	1123.977	902.860
421.613	88.071	1304.522	1388.662
422.628	82.945	1330.798	1388.772
