DTS Sentinel unit serial number:	SN413079Multiplexer serial number:	ORYXHardware model number:	OX4-SRSoftware version number:	ORYX F/W v4.00 Oryx Data Collector v3.7.2.0data status	okinstallation	princeton_trtdifferential loss correction	single-endedforward channel	channel 2reverse channel	N/Adate	2019/09/16time	16:47:34forward acquisition time	60.00reverse acquisition time	0.00gamma	496.2192k internal	0.2304k external	0.2304temperature offset calibration	0.9943default loss term (dB/km)	0.3790temperature slope calibration	1.0000multiplexer offset coefficient	1.0000multiplexer slope coefficient	1.0000fibre end	0.00T internal ref (°C)	39.64T ext. ref 1 (°C)	15.19T ext. ref 2 (°C)	33.87length (m)	temperature (°C)	Stokes	anti-Stokes-747.200	-79.278	-0.436	-0.151
-746.185	-158.137	-0.276	-0.016
-745.171	-56.714	0.292	0.131
-744.156	-114.271	0.200	-0.039
-743.142	-200.000	0.070	0.415
-742.127	-200.000	-0.013	0.214
-741.112	-77.336	-0.109	0.038
-740.098	2.964	-0.329	0.243
-739.083	76.841	-0.269	0.290
-738.069	-113.903	-0.302	0.060
-737.054	44.671	-0.214	0.200
-736.039	800.000	-0.049	-0.169
-735.025	10.274	0.083	0.065
-734.010	46.070	0.240	-0.226
-732.996	-80.795	-0.121	-0.041
-731.981	-124.521	0.160	-0.025
-730.966	146.170	0.195	-0.266
-729.952	-158.448	-0.197	0.012
-728.937	-90.039	-0.059	-0.017
-727.923	-15.898	-0.172	0.112
-726.908	-148.044	-0.310	0.026
-725.894	-12.170	-0.111	0.074
-724.879	-114.606	-0.182	-0.035
-723.864	20.494	0.137	0.113
-722.850	800.000	-0.105	0.370
-721.835	70.648	0.112	0.118
-720.821	70.347	0.047	0.049
-719.806	12.642	-0.181	0.142
-718.791	800.000	-0.055	-0.187
-717.777	800.000	-0.084	0.258
-716.762	-30.136	-0.111	0.064
-715.748	-37.704	0.110	0.060
-714.733	55.890	0.123	-0.122
-713.718	16.666	0.123	-0.099
-712.704	-7.904	-0.360	-0.247
-711.689	800.000	0.065	-0.234
-710.675	-98.026	-0.109	-0.028
-709.660	107.963	-0.343	0.415
-708.645	222.589	0.141	-0.230
-707.631	128.709	-0.128	-0.166
-706.616	-58.662	-0.238	0.105
-705.602	-200.000	-0.064	0.508
-704.587	-40.425	-0.210	-0.111
-703.572	800.000	-0.047	0.169
-702.558	-139.860	0.126	-0.014
-701.543	800.000	-0.044	-0.148
-700.529	19.874	-0.175	0.143
-699.514	-48.661	0.187	-0.091
-698.499	-178.386	-0.421	0.010
-697.485	800.000	0.105	-0.386
-696.470	-74.160	0.247	-0.091
-695.456	64.844	0.130	-0.134
-694.441	-200.000	-0.014	-0.081
-693.426	-158.341	-0.151	-0.009
-692.412	-69.455	-0.134	0.052
-691.397	74.474	-0.302	0.323
-690.383	-164.354	-0.283	-0.013
-689.368	-71.437	0.046	0.018
-688.354	442.798	-0.017	0.038
-687.339	-38.908	0.130	0.070
-686.324	-7.741	0.047	0.032
-685.310	-44.516	0.256	-0.130
-684.295	82.860	-0.228	0.252
-683.281	-200.000	0.041	-0.244
-682.266	-99.337	0.306	-0.078
-681.251	402.944	0.102	-0.217
-680.237	220.539	0.069	-0.112
-679.222	167.440	-0.026	-0.037
-678.208	265.491	0.157	0.279
-677.193	-50.466	0.248	-0.119
-676.178	-77.171	0.279	-0.099
-675.164	-62.331	0.247	-0.104
-674.149	-200.000	-0.001	-0.235
-673.135	-200.000	0.019	-0.214
-672.120	16.259	0.059	0.047
-671.105	-179.942	0.267	0.006
-670.091	-100.113	-0.273	0.069
-669.076	322.156	-0.220	-0.426
-668.062	-94.979	0.167	-0.046
-667.047	288.729	0.140	0.257
-666.032	219.435	0.169	0.275
-665.018	-114.341	-0.257	0.050
-664.003	-200.000	0.060	-0.441
-662.989	103.550	0.146	-0.174
-661.974	-142.590	-0.345	0.034
-660.959	35.238	0.046	0.041
-659.945	-137.318	-0.262	0.030
-658.930	-200.000	0.006	0.046
-657.916	-173.792	-0.417	-0.013
-656.901	800.000	-0.022	0.081
-655.886	106.163	0.171	0.205
-654.872	-200.000	0.051	-0.388
-653.857	-1.911	0.149	-0.106
-652.843	-190.374	-0.255	0.003
-651.828	230.808	0.096	0.159
-650.814	-36.284	-0.250	-0.137
-649.799	167.472	-0.081	-0.116
-648.784	-90.719	-0.094	0.028
-647.770	324.403	0.030	-0.058
-646.755	-45.561	0.160	0.080
-645.741	98.095	-0.127	0.148
-644.726	800.000	-0.060	-0.179
-643.711	-86.963	0.091	0.028
-642.697	286.740	0.041	-0.076
-641.682	-38.233	0.066	-0.035
-640.668	137.545	0.144	-0.190
-639.653	25.827	0.051	0.043
-638.638	-144.024	-0.201	0.019
-637.624	155.832	0.102	0.143
-636.609	101.709	-0.090	0.106
-635.595	-25.005	-0.252	-0.152
-634.580	-187.308	0.389	-0.005
-633.565	15.962	0.104	-0.083
-632.551	-200.000	0.021	-0.542
-631.536	282.475	0.111	-0.201
-630.522	-40.932	-0.311	-0.163
-629.507	-69.952	-0.150	0.058
-628.492	-130.588	-0.348	0.048
-627.478	-200.000	0.010	-0.313
-626.463	-138.979	-0.058	-0.006
-625.449	-47.607	-0.112	0.055
-624.434	-75.381	0.193	-0.070
-623.419	-47.240	-0.248	0.122
-622.405	-101.341	-0.286	-0.071
-621.390	265.517	-0.162	0.286
-620.376	-9.878	0.207	0.140
-619.361	73.554	-0.173	-0.183
-618.346	90.996	-0.118	0.134
-617.332	132.508	-0.121	0.158
-616.317	-49.534	-0.338	-0.163
-615.303	-127.418	-0.348	0.051
-614.288	337.261	0.037	0.073
-613.273	-71.454	0.354	0.134
-612.259	-200.000	0.059	-0.296
-611.244	-200.000	-0.028	0.319
-610.230	74.304	0.083	0.088
-609.215	-74.471	-0.024	-0.009
-608.201	800.000	0.054	-0.209
-607.186	-177.151	0.139	-0.004
-606.171	328.026	0.205	0.397
-605.157	-87.717	0.471	-0.144
-604.142	606.424	-0.016	-0.041
-603.128	349.671	0.102	0.204
-602.113	35.743	-0.169	-0.151
-601.098	742.441	-0.098	-0.268
-600.084	28.908	-0.245	-0.210
-599.069	188.647	-0.113	0.171
-598.055	-14.290	0.153	0.100
-597.040	647.224	-0.038	-0.098
-596.025	155.577	0.067	0.094
-595.011	-200.000	0.069	-0.589
-593.996	-200.000	0.052	-0.278
-592.982	102.444	0.051	-0.060
-591.967	174.231	-0.041	-0.060
-590.952	160.801	0.052	-0.074
-589.938	-200.000	-0.012	-0.327
-588.923	-200.000	-0.006	-0.247
-587.909	-22.749	-0.091	-0.056
-586.894	-37.764	-0.356	-0.191
-585.879	800.000	-0.086	-0.289
-584.865	-98.243	-0.167	-0.043
-583.850	-200.000	-0.005	0.071
-582.836	-66.821	0.041	-0.016
-581.821	-129.812	0.372	-0.052
-580.806	24.098	-0.336	-0.281
-579.792	631.570	0.046	-0.117
-578.777	4.109	0.077	0.057
-577.763	800.000	0.052	0.155
-576.748	101.034	0.133	0.156
-575.733	-16.451	0.106	0.068
-574.719	-64.183	-0.221	0.091
-573.704	557.492	-0.007	-0.017
-572.690	-200.000	0.019	0.360
-571.675	3.937	0.063	-0.047
-570.661	67.634	0.308	-0.319
-569.646	83.929	0.144	-0.158
-568.631	800.000	0.012	0.041
-567.617	-99.805	0.131	0.033
-566.602	-200.000	0.005	0.027
-565.588	-200.000	-0.014	-0.113
-564.573	800.000	-0.124	0.404
-563.558	336.324	-0.094	0.185
-562.544	-200.000	-0.005	-0.100
-561.529	-89.624	-0.172	-0.051
-560.515	71.116	0.168	0.176
-559.500	-200.000	0.001	-0.024
-558.485	167.153	-0.077	-0.111
-557.471	800.000	0.074	-0.277
-556.456	-200.000	-0.006	0.029
-555.442	-104.261	-0.353	0.083
-554.427	85.235	0.060	0.067
-553.412	0.543	-0.141	-0.102
-552.398	-119.845	-0.268	0.047
-551.383	-70.595	0.446	0.170
-550.369	5.089	-0.256	0.190
-549.354	-200.000	-0.044	0.244
-548.339	196.742	0.056	-0.086
-547.325	800.000	0.021	-0.085
-546.310	-47.030	-0.317	0.156
-545.296	188.689	0.115	0.173
-544.281	800.000	-0.016	0.046
-543.266	216.791	0.079	0.126
-542.252	-200.000	0.029	-0.346
-541.237	560.137	0.036	-0.088
-540.223	800.000	-0.042	0.122
-539.208	-200.000	-0.017	0.095
-538.193	-200.000	-0.005	-0.175
-537.179	-12.981	-0.257	-0.169
-536.164	-1.241	0.413	-0.294
-535.150	-20.022	-0.076	-0.047
-534.135	-42.998	-0.132	0.068
-533.121	-144.069	0.103	-0.010
-532.106	800.000	-0.028	-0.115
-531.091	61.634	-0.074	-0.074
-530.077	196.073	0.155	-0.238
-529.062	219.176	0.057	0.092
-528.048	71.197	0.109	-0.114
-527.033	70.433	-0.015	0.016
-526.018	49.890	0.126	0.120
-525.004	-200.000	-0.008	-0.092
-523.989	-49.689	0.259	-0.124
-522.975	-64.784	-0.235	-0.096
-521.960	22.127	0.257	-0.212
-520.945	-79.288	-0.187	0.064
-519.931	410.832	0.036	0.077
-518.916	58.813	-0.244	-0.242
-517.902	800.000	-0.082	-0.231
-516.887	-125.228	0.171	-0.026
-515.872	134.970	-0.166	0.218
-514.858	46.236	-0.186	-0.174
-513.843	56.596	-0.359	0.353
-512.829	29.851	0.234	-0.201
-511.814	21.928	0.173	-0.142
-510.799	-121.224	-0.114	-0.019
-509.785	-161.131	-0.309	-0.016
-508.770	-62.039	-0.082	0.035
-507.756	800.000	-0.069	-0.304
-506.741	-53.469	0.096	-0.044
-505.726	-37.397	0.199	-0.107
-504.712	800.000	0.030	0.106
-503.697	-200.000	0.013	0.106
-502.683	-67.826	0.433	0.171
-501.668	-200.000	0.020	-0.205
-500.653	800.000	-0.097	-0.290
-499.639	-126.683	-0.143	0.021
-498.624	389.220	-0.130	0.272
-497.610	41.480	0.256	0.234
-496.595	9.936	-0.214	-0.163
-495.581	156.006	0.140	0.194
-494.566	171.620	-0.092	-0.133
-493.551	-137.176	-0.169	-0.019
-492.537	-200.000	0.065	-0.344
-491.522	-113.880	-0.104	0.020
-490.508	27.291	-0.210	0.178
-489.493	-70.626	0.244	0.093
-488.478	85.196	-0.124	0.137
-487.464	117.403	0.169	0.210
-486.449	76.948	-0.284	0.304
-485.435	-86.821	-0.262	-0.081
-484.420	800.000	0.061	-0.224
-483.405	-27.556	0.135	0.079
-482.391	310.734	-0.135	-0.254
-481.376	-81.397	0.191	0.063
-480.362	-200.000	-0.002	0.085
-479.347	65.462	0.102	-0.104
-478.332	-200.000	0.036	-0.210
-477.318	-54.101	-0.265	-0.121
-476.303	-47.700	0.199	-0.097
-475.289	615.268	0.085	0.214
-474.274	-200.000	-0.060	0.369
-473.259	-26.202	0.047	0.028
-472.245	97.505	0.205	-0.238
-471.230	-148.645	-0.303	0.025
-470.216	-26.995	-0.150	0.088
-469.201	-200.000	0.020	-0.152
-468.186	305.717	-0.186	-0.349
-467.172	-200.000	0.018	-0.178
-466.157	279.173	0.203	0.365
-465.143	-56.222	-0.312	0.140
-464.128	75.566	-0.088	0.093
-463.113	-168.993	0.129	-0.005
-462.099	800.000	-0.074	-0.280
-461.084	-65.589	0.340	-0.137
-460.070	-157.384	-0.242	0.015
-459.055	-64.864	-0.382	0.156
-458.040	-200.000	-0.026	-0.204
-457.026	-37.202	0.253	0.136
-456.011	800.000	0.068	0.210
-454.997	3.103	0.186	0.136
-453.982	-88.101	0.147	-0.045
-452.968	22.321	0.156	-0.128
-451.953	281.464	0.086	0.155
-450.938	-21.954	0.145	-0.089
-449.924	-33.840	0.315	0.175
-448.909	-163.823	0.342	-0.016
-447.895	-4.716	0.361	-0.251
-446.880	232.584	-0.218	-0.360
-445.865	-156.892	-0.281	0.017
-444.851	-85.031	-0.087	-0.027
-443.836	-127.702	-0.050	-0.007
-442.822	-133.823	-0.052	0.007
-441.807	-200.000	0.052	0.319
-440.792	-121.801	-0.196	-0.033
-439.778	786.184	-0.084	0.232
-438.763	-45.019	0.150	0.075
-437.749	-93.048	0.185	-0.052
-436.734	-67.922	0.102	-0.040
-435.719	-21.655	-0.351	0.215
-434.705	-200.000	-0.019	0.087
-433.690	220.694	-0.093	0.149
-432.676	55.915	-0.128	-0.124
-431.661	-92.680	0.318	0.090
-430.646	800.000	-0.112	-0.408
-429.632	-39.952	0.371	0.195
-428.617	-14.770	-0.317	0.204
-427.603	139.625	-0.167	0.222
-426.588	-106.368	-0.157	0.035
-425.573	800.000	0.105	-0.318
-424.559	-200.000	0.000	0.158
-423.544	-169.332	-0.137	0.005
-422.530	134.642	-0.112	-0.146
-421.515	8.223	-0.102	-0.077
-420.500	-70.757	0.114	-0.043
-419.486	-124.647	0.352	0.055
-418.471	636.041	0.078	0.200
-417.457	-98.963	0.453	0.115
-416.442	614.890	0.026	0.066
-415.428	194.947	-0.076	-0.116
-414.413	-100.497	0.286	-0.071
-413.398	-200.000	-0.002	-0.466
-412.384	370.757	-0.147	-0.300
-411.369	101.021	-0.073	-0.086
-410.355	-140.243	-0.156	-0.016
-409.340	-200.000	0.009	-0.266
-408.325	-167.009	-0.530	-0.022
-407.311	800.000	0.059	-0.201
-406.296	489.561	0.121	-0.277
-405.282	800.000	0.075	0.241
-404.267	77.599	0.283	-0.302
-403.252	125.697	0.073	-0.093
-402.238	-26.194	0.115	0.068
-401.223	137.522	-0.215	0.282
-400.209	-152.545	-0.094	-0.007
-399.194	373.946	0.138	0.283
-398.179	-43.355	0.127	0.064
-397.165	800.000	0.067	-0.232
-396.150	-7.410	0.262	-0.178
-395.136	-200.000	0.022	0.270
-394.121	-9.339	-0.248	-0.166
-393.106	-18.977	-0.097	0.061
-392.092	249.925	-0.129	-0.220
-391.077	-82.913	0.237	-0.077
-390.063	737.459	0.073	0.198
-389.048	-200.000	-0.005	-0.144
-388.033	211.526	0.108	-0.171
-387.019	69.433	0.242	-0.250
-386.004	-200.000	0.003	0.296
-384.990	78.542	-0.078	0.084
-383.975	343.998	-0.119	0.233
-382.960	267.789	0.065	0.115
-381.946	-147.276	0.088	-0.008
-380.931	229.059	-0.170	-0.278
-379.917	174.408	0.106	0.154
-378.902	-200.000	0.047	-0.374
-377.888	68.111	-0.288	-0.296
-376.873	159.070	-0.080	0.112
-375.858	-76.451	0.139	-0.049
-374.844	59.440	-0.116	-0.114
-373.829	15.635	-0.289	0.228
-372.815	-40.804	0.108	-0.056
-371.800	7.572	0.228	0.171
-370.785	-67.943	-0.184	0.072
-369.771	-200.000	-0.017	0.221
-368.756	-173.908	0.246	0.007
-367.742	-42.945	0.147	-0.075
-366.727	800.000	-0.092	0.334
-365.712	-94.043	0.352	-0.097
-364.698	91.477	0.124	-0.140
-363.683	71.491	0.340	0.354
-362.669	-105.943	-0.383	0.087
-361.654	24.101	0.159	-0.132
-360.639	-117.046	0.291	0.053
-359.625	-62.267	0.050	-0.021
-358.610	-72.033	-0.446	0.166
-357.596	-69.977	0.250	-0.095
-356.581	41.358	-0.143	-0.130
-355.566	215.719	-0.094	0.150
-354.552	-151.604	-0.160	0.012
-353.537	-147.784	0.268	0.022
-352.523	-200.000	0.011	0.059
-351.508	340.164	0.125	0.244
-350.493	-145.490	-0.274	0.025
-349.479	-36.666	-0.183	0.099
-348.464	-99.143	0.039	0.010
-347.450	800.000	-0.078	0.272
-346.435	-200.000	-0.049	0.249
-345.420	179.652	0.129	0.190
-344.406	-1.177	0.537	0.380
-343.391	-90.938	-0.288	-0.083
-342.377	-64.214	-0.244	-0.100
-341.362	-200.000	-0.052	0.259
-340.348	-150.825	0.107	0.008
-339.333	800.000	0.060	0.191
-338.318	198.578	0.074	-0.114
-337.304	194.915	0.017	-0.026
-336.289	-97.259	-0.077	0.020
-335.275	-0.770	-0.203	0.144
-334.260	-164.597	-0.216	0.010
-333.245	32.432	0.183	0.158
-332.231	-19.173	-0.118	-0.073
-331.216	-200.000	-0.016	0.081
-330.202	371.993	-0.126	-0.257
-329.187	261.224	0.113	-0.196
-328.172	16.654	0.235	0.186
-327.158	-107.681	0.061	0.013
-326.143	-28.260	-0.088	-0.051
-325.129	-61.151	0.233	0.098
-324.114	15.657	0.129	0.101
-323.099	307.637	0.123	0.230
-322.085	-42.091	-0.134	-0.069
-321.070	-161.803	0.229	-0.012
-320.056	-176.903	0.152	-0.004
-319.041	-200.000	-0.009	-0.060
-318.026	-155.067	-0.208	0.014
-317.012	781.304	-0.049	-0.134
-315.997	-102.701	-0.302	0.072
-314.983	-97.718	-0.166	0.043
-313.968	-19.599	-0.042	-0.026
-312.953	165.553	0.169	-0.239
-311.939	186.921	-0.051	-0.076
-310.924	280.943	-0.109	-0.194
-309.910	-156.712	0.396	0.024
-308.895	153.059	-0.087	0.119
-307.880	-29.583	0.054	-0.031
-306.866	800.000	-0.036	0.114
-305.851	272.532	-0.212	0.374
-304.837	94.096	-0.230	0.261
-303.822	217.615	0.155	0.247
-302.807	-200.000	-0.018	0.161
-301.793	-200.000	0.122	0.000
-300.778	-80.667	0.112	-0.037
-299.764	477.452	-0.112	0.254
-298.749	552.055	-0.078	-0.188
-297.735	800.000	0.066	-0.265
-296.720	-19.580	-0.169	0.105
-295.705	-200.000	-0.039	0.185
-294.691	-200.000	-0.069	-0.447
-293.676	-114.712	0.153	0.029
-292.662	336.986	-0.137	0.266
-291.647	200.646	-0.235	-0.361
-290.632	-54.838	0.213	0.096
-289.618	-200.000	0.038	0.192
-288.603	-26.523	0.285	-0.167
-287.589	-200.000	-0.001	-0.190
-286.574	156.910	0.015	-0.020
-285.559	23.890	0.137	0.113
-284.545	800.000	-0.066	0.221
-283.530	21.672	0.272	-0.221
-282.516	662.410	0.115	-0.297
-281.501	350.304	-0.183	0.361
-280.486	-34.893	0.124	0.068
-279.472	-15.950	-0.378	-0.240
-278.457	-78.499	-0.444	0.152
-277.443	-200.000	0.002	0.045
-276.428	125.541	0.199	0.250
-275.413	12.191	-0.260	0.200
-274.399	272.848	0.051	-0.090
-273.384	-26.022	0.365	-0.214
-272.370	-200.000	0.000	-0.113
-271.355	120.861	-0.078	-0.097
-270.340	-160.069	0.138	-0.008
-269.326	-88.273	0.236	-0.070
-268.311	336.361	-0.060	0.116
-267.297	-200.000	-0.013	0.221
-266.282	207.826	-0.086	-0.134
-265.267	-200.000	0.008	-0.157
-264.253	800.000	-0.041	0.176
-263.238	-200.000	0.002	-0.018
-262.224	227.376	-0.081	0.131
-261.209	-200.000	-0.015	0.272
-260.195	-64.357	-0.077	0.031
-259.180	-55.418	-0.338	0.151
-258.165	-57.345	-0.276	-0.121
-257.151	5.026	0.151	0.111
-256.136	-162.416	-0.258	0.013
-255.122	-200.000	0.063	0.427
-254.107	157.100	0.053	0.073
-253.092	800.000	0.030	0.083
-252.078	17.937	-0.255	0.203
-251.063	533.063	0.070	0.166
-250.049	-21.613	-0.311	0.189
-249.034	-103.485	-0.490	-0.115
-248.019	-76.652	0.350	-0.123
-247.005	-2.436	0.078	-0.054
-245.990	-6.075	-0.184	-0.126
-244.976	317.777	0.125	0.237
-243.961	-86.812	-0.037	0.011
-242.946	268.728	0.161	-0.282
-241.932	57.049	0.205	0.199
-240.917	-200.000	0.019	0.227
-239.903	-200.000	0.063	0.453
-238.888	-50.077	0.326	0.154
-237.873	-200.000	0.061	0.454
-236.859	-200.000	-0.005	0.127
-235.844	139.663	0.070	-0.091
-234.830	84.331	-0.123	-0.134
-233.815	0.012	0.219	0.155
-232.800	-200.000	0.016	0.078
-231.786	-136.752	0.153	-0.018
-230.771	-103.786	-0.131	0.031
-229.757	211.309	-0.099	-0.155
-228.742	-200.000	-0.026	-0.147
-227.727	244.469	-0.137	-0.230
-226.713	-43.394	0.043	-0.022
-225.698	290.034	0.093	0.168
-224.684	59.936	0.105	0.104
-223.669	190.753	0.045	-0.068
-222.655	-147.240	-0.272	-0.023
-221.640	-200.000	-0.055	-0.271
-220.625	-9.808	0.038	-0.025
-219.611	701.532	-0.064	0.167
-218.596	-200.000	-0.008	0.060
-217.582	30.158	-0.062	-0.053
-216.567	213.745	-0.150	0.236
-215.552	-20.804	0.152	-0.093
-214.538	-200.000	0.013	0.149
-213.523	36.922	0.077	-0.068
-212.509	800.000	0.054	-0.180
-211.494	-200.000	-0.006	-0.332
-210.479	621.171	0.087	-0.218
-209.465	-151.401	0.381	-0.028
-208.450	288.879	-0.190	0.344
-207.436	-18.712	0.227	-0.141
-206.421	-125.437	0.305	0.046
-205.406	205.296	0.058	0.091
-204.392	113.246	0.256	0.310
-203.377	-124.732	-0.134	-0.021
-202.363	-146.732	-0.380	0.033
-201.348	800.000	0.049	0.168
-200.333	-200.000	-0.027	0.156
-199.319	-170.537	0.249	0.009
-198.304	-13.744	-0.116	-0.074
-197.290	-156.405	0.219	-0.014
-196.275	-200.000	0.050	-0.361
-195.260	-142.712	-0.373	0.036
-194.246	-75.268	-0.025	-0.009
-193.231	-162.057	-0.076	-0.004
-192.217	-200.000	0.021	0.156
-191.202	23.179	-0.165	0.135
-190.187	-120.337	0.285	-0.048
-189.173	-5.858	-0.128	-0.087
-188.158	17.569	0.055	-0.044
-187.144	279.307	-0.089	-0.158
-186.129	136.494	0.019	-0.025
-185.114	77.407	-0.082	-0.087
-184.100	800.000	-0.054	-0.209
-183.085	163.424	0.095	-0.133
-182.071	-200.000	-0.020	-0.110
-181.056	-18.216	-0.143	-0.089
-180.042	91.538	0.119	-0.133
-179.027	311.362	-0.112	-0.210
-178.012	55.660	0.203	0.196
-176.998	170.146	-0.086	-0.123
-175.983	65.869	-0.212	0.214
-174.969	-99.982	0.193	0.048
-173.954	282.413	0.107	-0.190
-172.939	-83.651	-0.522	-0.166
-171.925	-110.174	0.117	-0.024
-170.910	-52.539	0.165	0.076
-169.896	-200.000	0.028	-0.281
-168.881	-42.874	-0.088	-0.045
-167.866	-176.117	-0.181	0.005
-166.852	800.000	-0.031	0.119
-165.837	169.623	-0.076	-0.108
-164.823	-152.219	-0.075	0.005
-163.808	593.189	0.124	0.304
-162.793	151.065	-0.065	-0.089
-161.779	800.000	0.027	-0.095
-160.764	800.000	0.086	-0.354
-159.750	187.640	0.061	0.091
-158.735	-57.175	0.187	0.082
-157.720	800.000	-0.043	0.162
-156.706	287.916	0.095	0.171
-155.691	178.979	0.056	0.081
-154.677	-77.654	-0.305	0.105
-153.662	-51.022	0.189	0.088
-152.647	-103.212	0.281	0.066
-151.633	121.257	0.160	0.198
-150.618	-101.992	0.119	0.029
-149.604	51.894	0.130	0.123
-148.589	-200.000	-0.012	-0.305
-147.574	26.619	-0.343	-0.286
-146.560	43.815	-0.401	0.365
-145.545	8.728	0.185	0.139
-144.531	31.610	-0.165	-0.141
-143.516	-6.815	-0.051	-0.034
-142.502	1.615	-0.052	-0.037
-141.487	-200.000	0.061	0.323
-140.472	-53.616	-0.142	0.065
-139.458	72.864	-0.188	0.195
-138.443	510.510	-0.138	-0.318
-137.429	-157.885	0.245	-0.014
-136.414	160.098	0.116	-0.160
-135.399	-97.461	-0.158	-0.041
-134.385	-47.054	0.149	-0.072
-133.370	-25.356	-0.308	0.181
-132.356	800.000	0.102	0.292
-131.341	-144.210	-0.163	0.015
-130.326	82.094	-0.137	0.148
-129.312	139.830	-0.233	0.305
-128.297	74.951	-0.055	0.058
-127.283	800.000	0.157	-0.457
-126.268	-69.134	0.142	-0.054
-125.253	-151.691	0.284	-0.021
-124.239	-200.000	0.061	0.389
-123.224	-55.407	-0.347	0.155
-122.210	-194.516	0.257	-0.002
-121.195	-200.000	0.015	-0.194
-120.180	89.173	-0.109	0.121
-119.166	-40.553	-0.111	-0.057
-118.151	-12.518	-0.212	0.137
-117.137	-95.347	0.161	-0.043
-116.122	-171.399	0.209	-0.007
-115.107	292.555	0.082	-0.149
-114.093	-200.000	0.008	0.204
-113.078	497.596	-0.056	-0.129
-112.064	-58.192	-0.149	-0.064
-111.049	-72.022	0.166	-0.061
-110.034	208.483	0.100	-0.156
-109.020	320.780	0.096	0.180
-108.005	306.109	0.129	0.239
-106.991	800.000	0.157	0.450
-105.976	72.440	0.030	0.031
-104.962	-42.686	0.181	0.092
-103.947	-13.075	0.349	-0.225
-102.932	100.762	-0.214	0.246
-101.918	-200.000	-0.021	-0.290
-100.903	7.542	-0.106	0.079
-99.889	-200.000	-0.061	0.452
-98.874	-200.000	0.014	-0.187
-97.859	-200.000	0.022	0.131
-96.845	60.982	0.124	-0.122
-95.830	-20.941	0.118	-0.072
-94.816	-200.000	-0.010	-0.388
-93.801	-102.405	0.311	-0.074
-92.786	-171.847	-0.100	-0.003
-91.772	-200.000	0.014	0.144
-90.757	-105.706	0.183	-0.041
-89.743	-135.839	0.319	0.037
-88.728	-121.891	0.384	0.063
-87.713	284.197	-0.036	-0.065
-86.699	-37.592	-0.098	-0.052
-85.684	-125.067	0.207	0.031
-84.670	580.289	0.111	0.270
-83.655	184.616	0.090	0.132
-82.640	-84.376	0.245	0.077
-81.626	-38.944	-0.288	0.150
-80.611	14.367	-0.213	0.165
-79.597	97.959	0.214	0.245
-78.582	-190.907	0.243	0.003
-77.567	-200.000	-0.084	0.368
-76.553	-200.000	-0.003	-0.030
-75.538	20.711	-0.124	-0.100
-74.524	-178.721	-0.183	-0.004
-73.509	-200.000	-0.017	0.250
-72.494	-105.520	0.129	-0.029
-71.480	47.464	0.046	-0.043
-70.465	-200.000	0.085	0.400
-69.451	9.108	0.094	-0.071
-68.436	456.799	0.074	0.162
-67.422	800.000	-0.069	0.262
-66.407	800.000	-0.151	-0.419
-65.392	-200.000	-0.023	-0.116
-64.378	-200.000	0.043	0.403
-63.363	-88.369	0.088	0.026
-62.349	-10.785	0.307	0.201
-61.334	103.283	-0.937	-1.089
-60.319	279.364	0.162	0.286
-59.305	767.884	-0.184	-0.495
-58.290	501.706	0.327	0.749
-57.276	800.000	0.550	1.681
-56.261	-200.000	80.054	514.046
-55.246	538.141	1319.361	3107.636
-54.232	152.514	2544.037	3442.900
-53.217	109.482	2335.946	2772.739
-52.203	48.550	1955.381	1815.446
-51.188	42.835	1742.119	1572.885
-50.173	40.187	1696.261	1511.226
-49.159	54.903	1734.797	1659.285
-48.144	59.357	1753.886	1711.814
-47.130	42.819	1715.447	1548.432
-46.115	39.699	1700.494	1511.023
-45.100	39.617	1695.971	1506.315
-44.086	39.572	1693.849	1504.029
-43.071	39.577	1690.875	1501.365
-42.057	39.417	1688.752	1498.208
-41.042	39.570	1686.698	1497.488
-40.027	39.542	1684.979	1495.689
-39.013	39.487	1682.732	1493.217
-37.998	39.500	1681.291	1491.981
-36.984	39.537	1679.696	1490.784
-35.969	39.651	1678.022	1490.100
-34.954	39.686	1676.996	1489.391
-33.940	39.693	1674.586	1487.248
-32.925	39.586	1673.007	1484.978
-31.911	39.587	1671.418	1483.521
-30.896	39.637	1669.008	1481.694
-29.881	39.623	1667.948	1480.591
-28.867	39.608	1666.284	1478.944
-27.852	39.653	1664.964	1478.047
-26.838	39.729	1662.932	1476.756
-25.823	39.644	1662.039	1475.271
-24.809	39.682	1660.330	1473.979
-23.794	39.679	1659.207	1472.896
-22.779	39.671	1657.317	1471.104
-21.765	39.707	1655.721	1469.900
-20.750	39.730	1653.920	1468.412
-19.736	39.737	1652.450	1467.102
-18.721	39.676	1651.037	1465.332
-17.706	39.663	1649.595	1463.902
-16.692	39.561	1648.296	1461.930
-15.677	39.674	1646.768	1461.356
-14.663	39.667	1645.679	1460.282
-13.648	39.700	1644.401	1459.335
-12.633	39.566	1642.675	1456.752
-11.619	39.634	1641.458	1456.121
-10.604	39.654	1639.663	1454.612
-9.590	39.693	1638.345	1453.673
-8.575	39.720	1636.876	1452.509
-7.560	39.631	1635.681	1450.740
-6.546	39.684	1634.154	1449.719
-5.531	39.691	1632.860	1448.567
-4.517	39.584	1632.504	1447.400
-3.502	39.734	1630.684	1446.830
-2.487	39.733	1629.061	1445.328
-1.473	39.419	1617.510	1432.742
-0.458	36.278	1596.180	1391.188
0.556	29.492	1594.317	1350.170
1.571	26.532	1617.502	1347.677
2.586	25.681	1631.293	1352.659
3.600	24.188	1583.162	1301.733
4.615	20.351	1480.465	1190.912
5.629	16.203	1418.489	1113.636
6.644	15.276	1409.336	1100.273
7.659	15.213	1408.019	1098.738
8.673	15.145	1406.832	1097.264
9.688	15.146	1404.735	1095.540
10.702	15.023	1401.980	1092.492
11.717	16.755	1405.657	1106.587
12.731	20.018	1410.955	1132.019
13.746	19.974	1408.658	1129.791
14.761	17.583	1403.519	1110.005
15.775	16.239	1400.215	1098.554
16.790	15.132	1397.719	1089.301
17.804	14.345	1394.832	1081.847
18.819	13.798	1393.651	1077.281
19.834	13.504	1391.665	1073.744
20.848	13.201	1390.516	1070.800
21.863	12.978	1389.227	1068.270
22.877	12.799	1387.904	1066.003
23.892	12.705	1387.293	1064.828
24.907	12.802	1386.119	1064.463
25.921	12.764	1384.878	1063.166
26.936	12.808	1384.501	1063.069
27.950	12.746	1383.394	1061.729
28.965	12.828	1382.509	1061.481
29.980	12.949	1381.325	1061.258
30.994	12.973	1379.897	1060.223
32.009	12.993	1379.021	1059.578
33.023	13.018	1377.873	1058.768
34.038	13.022	1376.029	1057.281
35.053	13.015	1374.647	1056.084
36.067	12.951	1373.418	1054.634
37.082	12.881	1372.405	1053.314
38.096	12.919	1371.823	1053.019
39.111	12.913	1371.207	1052.412
40.126	12.811	1370.316	1050.985
41.140	12.747	1369.125	1049.571
42.155	12.606	1369.162	1048.612
43.169	12.692	1368.585	1048.623
44.184	12.739	1368.352	1048.650
45.199	12.721	1367.645	1047.903
46.213	12.764	1366.873	1047.488
47.228	12.876	1365.776	1047.266
48.242	12.896	1364.787	1046.546
49.257	12.785	1363.857	1045.033
50.271	12.804	1362.244	1043.827
51.286	12.852	1361.016	1043.095
52.301	12.863	1359.209	1041.688
53.315	12.865	1358.275	1040.894
54.330	12.792	1357.442	1039.704
55.344	12.760	1355.890	1038.223
56.359	12.709	1355.111	1037.211
57.374	12.751	1354.098	1036.607
58.388	12.688	1353.188	1035.426
59.403	12.757	1352.567	1035.294
60.417	12.661	1352.241	1034.348
61.432	12.656	1350.856	1033.166
62.447	12.575	1350.422	1032.235
63.461	12.474	1349.487	1030.796
64.476	12.682	1347.827	1030.738
65.490	12.591	1346.584	1029.123
66.505	12.653	1344.871	1028.113
67.520	12.767	1343.680	1027.820
68.534	12.650	1343.009	1026.486
69.549	12.760	1341.561	1025.977
70.563	12.661	1341.049	1024.878
71.578	12.597	1339.491	1023.199
72.593	12.536	1338.550	1022.009
73.607	12.491	1337.985	1021.211
74.622	12.569	1336.757	1020.662
75.636	12.542	1336.687	1020.350
76.651	12.562	1335.597	1019.558
77.666	12.588	1335.046	1019.206
78.680	12.521	1334.844	1018.544
79.695	12.537	1334.210	1018.069
80.709	12.596	1333.285	1017.643
81.724	12.741	1332.162	1017.591
82.739	12.754	1331.180	1016.827
83.753	12.733	1330.376	1015.994
84.768	12.858	1329.101	1015.699
85.782	12.862	1328.049	1014.832
86.797	12.861	1326.791	1013.775
87.812	12.812	1325.333	1012.273
88.826	12.787	1323.864	1010.906
89.841	12.823	1323.292	1010.599
90.855	12.859	1322.776	1010.337
91.870	12.884	1321.660	1009.551
92.884	12.821	1320.421	1008.129
93.899	12.926	1319.761	1008.177
94.914	12.924	1318.959	1007.461
95.928	13.021	1317.928	1007.178
96.943	12.891	1317.153	1005.704
97.957	12.857	1316.496	1004.904
98.972	12.924	1315.057	1004.128
99.987	12.961	1314.042	1003.485
101.001	12.881	1313.051	1002.154
102.016	12.887	1312.306	1001.535
103.030	12.858	1311.336	1000.529
104.045	12.877	1310.380	999.825
105.060	12.804	1309.399	998.550
106.074	12.732	1307.736	996.755
107.089	12.691	1306.408	995.408
108.103	12.670	1304.801	993.971
109.118	12.634	1303.635	992.775
110.133	12.703	1302.226	992.032
111.147	12.632	1300.933	990.530
112.162	12.708	1299.314	989.668
113.176	12.802	1298.190	989.286
114.191	12.724	1298.025	988.607
115.206	12.793	1296.834	988.027
116.220	12.786	1294.797	986.346
117.235	12.779	1293.745	985.413
118.249	12.751	1292.611	984.295
119.264	12.617	1291.976	982.924
120.279	12.672	1290.965	982.396
121.293	12.767	1289.551	981.799
122.308	12.712	1288.630	980.685
123.322	12.664	1287.391	979.370
124.337	12.681	1286.673	978.836
125.352	12.741	1285.337	978.091
126.366	12.656	1284.385	976.772
127.381	12.701	1283.016	975.912
128.395	12.682	1282.467	975.299
129.410	12.739	1281.243	974.620
130.424	12.761	1280.500	974.095
131.439	12.704	1279.433	972.861
132.454	12.763	1278.777	972.625
133.468	12.692	1277.835	971.402
134.483	12.762	1277.052	971.133
135.497	12.853	1275.906	970.715
136.512	12.797	1274.678	969.365
137.527	12.796	1273.116	968.087
138.541	12.760	1271.870	966.843
139.556	12.903	1270.597	966.626
140.570	12.959	1269.481	966.021
141.585	12.950	1268.286	964.969
142.600	13.015	1266.873	964.192
143.614	12.966	1266.027	963.177
144.629	12.973	1264.864	962.244
145.643	12.904	1264.120	961.196
146.658	12.934	1263.177	960.568
147.673	12.862	1261.533	958.814
148.687	12.827	1260.273	957.565
149.702	12.864	1258.899	956.652
150.716	12.922	1257.090	955.530
151.731	12.779	1256.440	954.120
152.746	12.770	1255.600	953.349
153.760	12.948	1253.698	952.848
154.775	13.004	1252.399	952.100
155.789	12.985	1251.922	951.545
156.804	12.973	1250.429	950.252
157.819	12.960	1249.600	949.467
158.833	13.042	1248.541	949.049
159.848	13.064	1247.674	948.431
160.862	13.144	1246.676	948.050
161.877	13.013	1245.593	946.390
162.892	12.895	1244.461	944.769
163.906	12.934	1243.579	944.241
164.921	12.949	1242.679	943.557
165.935	13.012	1241.671	943.069
166.950	13.055	1241.202	942.877
167.964	13.067	1240.425	942.274
168.979	13.066	1239.636	941.581
169.994	13.076	1239.198	941.225
171.008	13.079	1238.211	940.407
172.023	13.018	1237.313	939.296
173.037	13.168	1236.783	939.661
174.052	13.098	1235.831	938.462
175.067	13.105	1234.414	937.338
176.081	13.042	1233.323	936.071
177.096	13.068	1233.141	935.996
178.110	13.148	1231.527	935.144
179.125	13.141	1230.129	933.956
180.140	13.225	1228.595	933.186
181.154	13.137	1228.387	932.450
182.169	13.106	1226.864	931.032
183.183	13.173	1225.701	930.445
184.198	13.299	1224.599	930.239
185.213	13.266	1223.044	928.790
186.227	13.331	1221.895	928.196
187.242	13.326	1221.185	927.549
188.256	13.335	1220.283	926.834
189.271	13.349	1219.425	926.176
190.286	13.282	1218.348	924.903
191.300	13.114	1217.339	923.116
192.315	13.050	1216.855	922.307
193.329	13.127	1216.049	922.047
194.344	13.201	1215.014	921.595
195.359	13.257	1214.572	921.488
196.373	13.329	1214.276	921.584
197.388	13.274	1214.296	921.211
198.402	13.362	1213.865	921.290
199.417	13.549	1212.558	921.258
200.432	13.468	1211.634	920.023
201.446	13.637	1210.750	920.211
202.461	13.597	1209.824	919.206
203.475	13.606	1208.945	918.507
204.490	13.663	1207.538	917.667
205.504	13.525	1206.306	915.888
206.519	13.490	1205.067	914.675
207.534	13.634	1203.731	914.371
208.548	13.516	1202.953	913.054
209.563	13.594	1201.976	912.656
210.577	13.560	1200.993	911.642
211.592	13.478	1200.726	910.910
212.607	13.665	1199.586	910.989
213.621	13.682	1198.378	910.087
214.636	13.634	1197.660	909.197
215.650	13.612	1197.160	908.616
216.665	13.754	1196.173	908.568
217.680	13.746	1194.989	907.543
218.694	13.772	1194.643	907.340
219.709	13.751	1193.559	906.325
220.723	13.770	1192.427	905.489
221.738	13.844	1191.667	905.232
222.753	13.776	1191.351	904.545
223.767	13.757	1190.610	903.795
224.782	13.769	1189.944	903.274
225.796	13.837	1189.158	902.970
226.811	13.913	1188.492	902.800
227.826	13.814	1187.651	901.542
228.840	13.886	1186.776	901.187
229.855	13.823	1186.536	900.583
230.869	14.024	1184.779	900.261
231.884	13.817	1184.726	899.016
232.899	13.869	1183.733	898.465
233.913	13.847	1182.953	897.675
234.928	13.820	1182.208	896.886
235.942	13.915	1181.202	896.557
236.957	13.842	1180.808	895.782
237.972	13.817	1180.080	895.015
238.986	13.852	1179.341	894.566
240.001	13.897	1178.740	894.271
241.015	13.885	1177.814	893.427
242.030	13.949	1176.800	892.921
243.045	13.979	1175.997	892.395
244.059	14.009	1175.307	891.953
245.074	13.981	1174.225	890.903
246.088	14.046	1173.585	890.686
247.103	14.132	1172.766	890.450
248.117	14.205	1171.791	890.017
249.132	14.181	1171.414	889.527
250.147	14.257	1170.622	889.251
251.161	14.224	1170.046	888.559
252.176	14.206	1169.085	887.657
253.190	14.331	1168.929	888.124
254.205	14.327	1168.479	887.682
255.220	14.508	1167.354	887.714
256.234	14.346	1166.740	886.303
257.249	14.335	1166.357	885.877
258.263	14.399	1165.458	885.459
259.278	14.438	1164.530	884.883
260.293	14.450	1164.075	884.519
261.307	14.440	1163.464	883.926
262.322	14.531	1162.475	883.576
263.336	14.429	1162.223	882.766
264.351	14.544	1161.123	882.460
265.366	14.464	1160.989	881.856
266.380	14.521	1160.329	881.584
267.395	14.605	1159.420	881.258
268.409	14.516	1158.312	879.866
269.424	14.503	1157.986	879.473
270.439	14.449	1157.303	878.592
271.453	14.505	1156.508	878.206
272.468	14.468	1155.878	877.456
273.482	14.565	1154.523	876.858
274.497	14.437	1154.344	875.970
275.512	14.500	1154.029	875.984
276.526	14.571	1152.884	875.409
277.541	14.619	1152.253	875.106
278.555	14.579	1151.526	874.268
279.570	14.671	1150.418	873.830
280.585	14.670	1149.893	873.348
281.599	14.698	1148.820	872.603
282.614	14.685	1147.965	871.807
283.628	14.797	1146.679	871.339
284.643	14.714	1145.704	870.087
285.657	14.626	1145.163	869.143
286.672	14.804	1143.793	868.950
287.687	14.732	1143.449	868.238
288.701	14.827	1142.271	867.762
289.716	14.708	1141.631	866.580
290.730	14.794	1140.950	866.434
291.745	14.780	1140.133	865.665
292.760	14.808	1139.686	865.391
293.774	14.852	1139.131	865.125
294.789	14.964	1138.780	865.357
295.803	14.866	1138.055	864.224
296.818	15.021	1136.748	863.956
297.833	14.876	1136.302	862.794
298.847	14.997	1135.343	862.612
299.862	15.000	1134.603	861.988
300.876	14.874	1134.325	861.050
301.891	15.026	1133.563	861.179
302.906	14.996	1132.819	860.385
303.920	15.010	1132.050	859.796
304.935	15.129	1131.512	859.921
305.949	15.154	1130.440	859.162
306.964	15.228	1129.668	858.876
307.979	15.140	1129.253	858.036
308.993	15.113	1128.527	857.268
310.008	15.198	1127.445	856.806
311.022	15.133	1127.099	856.135
312.037	15.151	1126.187	855.458
313.052	15.209	1124.633	854.497
314.066	15.062	1124.176	853.324
315.081	15.198	1123.132	853.147
316.095	15.041	1122.788	852.015
317.110	15.065	1121.845	851.343
318.125	15.119	1121.205	851.057
319.139	15.098	1120.467	850.314
320.154	15.132	1119.771	849.886
321.168	15.041	1119.380	849.051
322.183	15.140	1118.631	848.910
323.197	15.026	1118.180	847.917
324.212	15.112	1117.874	848.042
325.227	15.214	1117.039	847.849
326.241	15.237	1116.485	847.472
327.256	15.212	1115.253	846.335
328.270	15.235	1114.447	845.763
329.285	15.265	1113.410	845.055
330.300	15.265	1112.187	844.053
331.314	15.297	1111.168	843.364
332.329	15.322	1110.491	842.900
333.343	15.239	1109.999	842.036
334.358	15.353	1109.144	841.884
335.373	15.407	1108.350	841.481
336.387	15.291	1107.868	840.456
337.402	15.367	1106.855	839.996
338.416	15.351	1106.085	839.259
339.431	15.474	1105.371	839.256
340.446	15.600	1104.686	839.293
341.460	15.547	1103.999	838.431
342.475	15.632	1103.071	838.076
343.489	15.624	1102.092	837.215
344.504	15.574	1101.358	836.335
345.519	15.769	1100.544	836.612
346.533	15.757	1099.802	835.917
347.548	15.659	1099.240	834.929
348.562	15.774	1098.014	834.495
349.577	15.596	1097.471	833.125
350.592	15.674	1096.072	832.375
351.606	15.661	1095.609	831.884
352.621	15.631	1095.040	831.233
353.635	15.602	1094.619	830.697
354.650	15.664	1093.657	830.197
355.665	15.614	1093.307	829.611
356.679	15.644	1092.462	829.045
357.694	15.672	1092.049	828.795
358.708	15.668	1091.347	828.168
359.723	15.780	1090.650	828.118
360.738	15.714	1090.024	827.248
361.752	15.615	1089.707	826.446
362.767	15.828	1088.883	826.795
363.781	15.715	1088.588	825.944
364.796	15.893	1087.809	826.151
365.810	15.926	1087.327	825.876
366.825	16.001	1086.271	825.366
367.840	16.027	1085.790	825.055
368.854	15.997	1085.646	824.727
369.869	15.902	1085.028	823.718
370.883	15.924	1084.111	823.058
371.898	15.928	1083.158	822.282
372.913	16.057	1082.419	822.275
373.927	16.036	1081.938	821.734
374.942	16.199	1081.183	821.883
375.956	16.157	1080.712	821.246
376.971	16.050	1080.172	820.246
377.986	15.988	1079.899	819.665
379.000	16.166	1078.979	819.756
380.015	16.360	1078.390	820.179
381.029	16.242	1077.849	819.122
382.044	16.189	1077.226	818.318
383.059	16.104	1076.635	817.387
384.073	16.239	1075.716	817.268
385.088	16.258	1074.643	816.473
386.102	16.248	1073.883	815.777
387.117	16.251	1072.371	814.571
388.132	16.302	1071.845	814.346
389.146	16.211	1071.089	813.260
390.161	16.212	1070.333	812.618
391.175	16.282	1069.568	812.303
392.190	16.297	1069.024	811.888
393.205	16.273	1068.480	811.291
394.219	16.392	1067.126	810.759
395.234	16.425	1066.073	810.045
396.248	16.208	1065.445	808.457
397.263	16.217	1064.735	807.890
398.278	16.367	1064.034	808.005
399.292	16.255	1063.555	807.036
400.307	16.198	1062.724	806.061
401.321	16.335	1061.856	805.985
402.336	16.446	1061.198	805.945
403.350	16.263	1060.544	804.505
404.365	16.291	1060.055	804.195
405.380	16.427	1058.836	803.845
406.394	16.397	1058.395	803.298
407.409	16.471	1057.766	803.099
408.423	16.514	1056.836	802.526
409.438	16.663	1055.776	802.360
410.453	16.662	1055.389	801.990
411.467	16.727	1054.619	801.638
412.482	16.553	1054.175	800.407
413.496	16.580	1053.644	800.063
414.511	16.727	1052.676	799.948
415.526	16.675	1052.650	799.612
416.540	16.750	1051.888	799.320
417.555	16.756	1051.331	798.854
418.569	16.780	1051.047	798.680
419.584	16.824	1050.285	798.237
420.599	16.819	1050.083	797.989
421.613	89.463	1302.898	1394.871
422.628	82.262	1339.759	1394.987
