DTS Sentinel unit serial number:	SN413079Multiplexer serial number:	ORYXHardware model number:	OX4-SRSoftware version number:	ORYX F/W v4.00 Oryx Data Collector v3.7.2.0data status	okinstallation	princeton_trtdifferential loss correction	single-endedforward channel	channel 2reverse channel	N/Adate	2019/09/19time	06:03:35forward acquisition time	60.00reverse acquisition time	0.00gamma	496.2192k internal	0.2350k external	0.2350temperature offset calibration	1.0012default loss term (dB/km)	0.3790temperature slope calibration	1.0000multiplexer offset coefficient	1.0000multiplexer slope coefficient	1.0000fibre end	0.00T internal ref (°C)	19.12T ext. ref 1 (°C)	0.58T ext. ref 2 (°C)	12.73length (m)	temperature (°C)	Stokes	anti-Stokes-747.200	-200.000	0.015	0.283
-746.185	447.195	-0.068	0.149
-745.171	-6.342	-0.317	0.216
-744.156	-200.000	0.035	0.246
-743.142	800.000	-0.057	-0.166
-742.127	214.394	-0.129	-0.204
-741.112	-13.167	0.175	0.114
-740.098	236.645	0.029	-0.048
-739.083	-151.355	0.611	0.045
-738.069	-135.962	-0.295	-0.035
-737.054	666.706	-0.063	0.164
-736.039	-15.593	-0.221	-0.141
-735.025	-77.817	-0.193	0.067
-734.010	-200.000	-0.005	-0.203
-732.996	800.000	-0.092	-0.279
-731.981	64.894	0.102	-0.103
-730.966	800.000	0.064	-0.242
-729.952	47.196	-0.038	-0.035
-728.937	23.835	-0.117	0.096
-727.923	-200.000	0.042	0.352
-726.908	-85.437	0.127	-0.039
-725.894	-102.543	-0.405	-0.097
-724.879	552.473	-0.118	-0.283
-723.864	238.345	-0.157	-0.260
-722.850	-100.786	0.181	0.045
-721.835	-69.201	0.115	-0.044
-720.821	75.988	0.017	-0.018
-719.806	70.554	0.188	-0.194
-718.791	121.592	0.078	0.097
-717.777	-106.017	-0.064	0.014
-716.762	276.623	-0.120	-0.213
-715.748	5.640	-0.265	-0.195
-714.733	330.247	0.122	-0.234
-713.718	177.298	-0.231	-0.335
-712.704	-53.213	-0.117	-0.053
-711.689	71.767	-0.053	-0.054
-710.675	538.161	0.074	0.176
-709.660	79.736	-0.084	-0.090
-708.645	-147.689	0.079	0.007
-707.631	800.000	0.057	-0.185
-706.616	64.935	-0.172	0.173
-705.602	800.000	-0.010	-0.034
-704.587	592.423	-0.246	-0.605
-703.572	800.000	-0.040	0.167
-702.558	-125.625	-0.101	0.015
-701.543	800.000	-0.108	-0.361
-700.529	-139.820	0.263	-0.028
-699.514	-94.081	0.323	-0.088
-698.499	-57.883	0.077	0.034
-697.485	800.000	-0.047	-0.175
-696.470	-78.737	0.076	-0.026
-695.456	64.250	-0.323	-0.324
-694.441	509.365	-0.073	-0.169
-693.426	-147.732	0.233	-0.019
-692.412	-87.304	-0.321	0.097
-691.397	-200.000	-0.062	-0.307
-690.383	-115.849	-0.090	-0.017
-689.368	387.161	0.132	-0.271
-688.354	-21.303	0.138	0.084
-687.339	800.000	0.064	-0.195
-686.324	-200.000	0.031	-0.286
-685.310	-42.027	0.441	0.225
-684.295	112.620	-0.248	0.299
-683.281	-73.112	0.228	0.083
-682.266	56.002	-0.028	0.027
-681.251	21.391	0.226	0.183
-680.237	86.289	0.147	0.161
-679.222	675.366	-0.050	0.128
-678.208	-88.484	-0.115	-0.034
-677.193	-58.463	-0.291	-0.126
-676.178	13.300	-0.115	0.089
-675.164	-109.989	0.268	0.056
-674.149	53.086	0.151	-0.144
-673.135	-200.000	0.017	0.175
-672.120	-200.000	-0.016	0.153
-671.105	-61.967	0.110	0.046
-670.091	800.000	0.034	0.108
-669.076	800.000	-0.065	-0.232
-668.062	-92.889	-0.057	-0.016
-667.047	134.842	0.137	0.178
-666.032	-49.328	0.200	-0.095
-665.018	800.000	-0.037	0.128
-664.003	-70.035	0.432	-0.164
-662.989	26.974	-0.278	-0.232
-661.974	109.351	-0.176	-0.210
-660.959	-99.929	-0.153	-0.038
-659.945	-138.341	-0.225	-0.025
-658.930	-200.000	0.000	0.436
-657.916	34.138	-0.245	-0.212
-656.901	61.745	-0.113	-0.112
-655.886	-92.300	-0.087	-0.024
-654.872	-84.686	0.059	-0.018
-653.857	405.719	0.054	0.114
-652.843	800.000	-0.091	0.270
-651.828	-6.822	-0.284	0.192
-650.814	-102.840	0.345	0.082
-649.799	622.282	0.055	-0.139
-648.784	800.000	-0.065	-0.247
-647.770	-119.040	-0.258	0.045
-646.755	-200.000	-0.008	-0.244
-645.741	-142.724	-0.267	-0.026
-644.726	-123.097	0.095	0.015
-643.711	346.682	0.037	-0.073
-642.697	504.373	-0.144	-0.332
-641.682	215.843	-0.052	0.082
-640.668	-200.000	-0.018	0.307
-639.653	33.999	0.052	-0.045
-638.638	800.000	0.019	-0.069
-637.624	91.568	-0.127	0.142
-636.609	-39.101	-0.143	-0.075
-635.595	551.418	-0.063	-0.149
-634.580	86.967	-0.348	-0.382
-633.565	-43.508	0.106	0.053
-632.551	68.677	0.194	-0.198
-631.536	-171.258	0.366	-0.012
-630.522	800.000	0.062	-0.240
-629.507	505.550	0.071	0.164
-628.492	-89.448	-0.270	-0.079
-627.478	-30.932	0.057	-0.032
-626.463	800.000	-0.022	-0.083
-625.449	-80.882	-0.275	0.091
-624.434	-9.059	-0.288	0.192
-623.419	64.930	-0.208	0.208
-622.405	800.000	0.124	0.372
-621.390	146.492	0.082	-0.109
-620.376	800.000	-0.056	-0.192
-619.361	-200.000	0.112	0.539
-618.346	-68.114	-0.208	-0.081
-617.332	-200.000	-0.026	0.317
-616.317	-87.745	-0.393	-0.118
-615.303	11.393	-0.184	0.140
-614.288	-200.000	-0.035	-0.306
-613.273	-62.564	0.197	-0.081
-612.259	-2.375	-0.201	0.140
-611.244	-200.000	-0.055	0.394
-610.230	-99.776	0.163	-0.040
-609.215	169.642	0.068	-0.097
-608.201	615.245	-0.058	0.145
-607.186	800.000	-0.063	0.195
-606.171	-200.000	0.003	-0.337
-605.157	32.770	0.147	-0.126
-604.142	-200.000	0.008	0.155
-603.128	-112.355	-0.354	-0.070
-602.113	-5.956	-0.213	0.144
-601.098	559.665	-0.054	-0.130
-600.084	-33.950	0.217	-0.119
-599.069	125.129	0.088	-0.110
-598.055	-200.000	-0.007	-0.185
-597.040	235.196	-0.213	-0.348
-596.025	-87.926	-0.114	0.034
-595.011	499.428	-0.050	0.115
-593.996	-141.195	-0.290	0.029
-592.982	800.000	0.076	-0.258
-591.967	-119.281	0.373	0.065
-590.952	800.000	-0.018	0.069
-589.938	-200.000	0.020	-0.257
-588.923	431.662	-0.126	0.271
-587.909	-200.000	0.007	-0.267
-586.894	-54.853	0.274	0.123
-585.879	-17.685	-0.172	-0.107
-584.865	293.881	-0.085	-0.154
-583.850	177.631	-0.273	-0.395
-582.836	-54.726	0.366	0.164
-581.821	-200.000	-0.055	0.244
-580.806	-87.940	0.145	0.043
-579.792	432.443	-0.029	-0.063
-578.777	33.476	-0.112	0.096
-577.763	-122.865	0.270	-0.043
-576.748	-200.000	0.007	0.052
-575.733	-192.012	-0.217	-0.002
-574.719	-43.954	0.169	-0.084
-573.704	-113.512	-0.405	0.079
-572.690	12.906	-0.138	0.106
-571.675	421.122	-0.034	0.072
-570.661	-124.727	0.311	-0.048
-569.646	-114.864	-0.279	0.053
-568.631	-200.000	0.023	0.273
-567.617	149.310	0.209	-0.281
-566.602	-115.412	-0.233	0.044
-565.588	70.863	0.289	-0.297
-564.573	166.723	-0.187	-0.263
-563.558	800.000	-0.106	0.306
-562.544	-15.740	-0.354	-0.224
-561.529	-200.000	0.010	0.220
-560.515	124.938	0.121	0.151
-559.500	800.000	-0.057	0.216
-558.485	27.305	-0.197	-0.164
-557.471	124.856	-0.113	-0.141
-556.456	123.752	-0.013	0.016
-555.442	800.000	0.058	-0.213
-554.427	-30.254	-0.083	0.046
-553.412	-200.000	0.007	0.252
-552.398	514.854	-0.076	0.176
-551.383	-75.999	-0.185	-0.065
-550.369	37.536	-0.217	0.191
-549.354	-200.000	-0.045	0.281
-548.339	-131.204	-0.183	-0.024
-547.325	158.685	0.081	-0.111
-546.310	-200.000	0.020	-0.120
-545.296	-123.774	-0.183	0.029
-544.281	-200.000	-0.093	0.417
-543.266	255.605	0.095	0.162
-542.252	-200.000	-0.082	0.390
-541.237	69.260	0.111	0.113
-540.223	95.103	-0.236	0.266
-539.208	-85.981	-0.133	-0.041
-538.193	-155.380	-0.313	0.020
-537.179	-59.206	-0.283	-0.121
-536.164	386.217	0.064	0.130
-535.150	-28.727	-0.205	-0.117
-534.135	56.123	-0.143	0.138
-533.121	136.326	0.179	0.231
-532.106	-200.000	0.005	0.175
-531.091	-14.040	-0.223	0.143
-530.077	517.966	0.074	-0.172
-529.062	61.509	-0.108	0.106
-528.048	3.581	-0.489	-0.353
-527.033	-54.383	-0.218	-0.098
-526.018	-200.000	0.047	-0.396
-525.004	-89.712	0.044	0.013
-523.989	-48.161	-0.171	0.082
-522.975	-116.606	0.140	0.026
-521.960	512.958	-0.027	0.061
-520.945	88.929	0.246	-0.271
-519.931	429.697	-0.103	0.221
-518.916	-188.373	-0.274	-0.003
-517.902	-11.787	0.062	-0.041
-516.887	-23.883	0.094	-0.056
-515.872	648.087	-0.089	-0.226
-514.858	800.000	0.069	-0.231
-513.843	-159.704	0.224	-0.012
-512.829	-200.000	-0.057	-0.276
-511.814	115.294	0.126	-0.153
-510.799	156.106	0.118	0.162
-509.785	157.140	-0.052	-0.071
-508.770	-90.681	0.368	-0.105
-507.756	-200.000	-0.035	0.258
-506.741	-158.589	-0.325	0.019
-505.726	224.314	-0.137	-0.219
-504.712	716.846	-0.135	-0.354
-503.697	393.025	0.098	0.202
-502.683	-152.133	0.347	0.025
-501.668	9.142	0.135	-0.101
-500.653	-200.000	-0.039	0.254
-499.639	-91.538	-0.401	0.113
-498.624	195.592	0.102	-0.153
-497.610	302.666	-0.101	0.184
-496.595	116.994	-0.120	0.146
-495.581	606.485	0.058	-0.143
-494.566	581.926	-0.070	0.171
-493.551	-200.000	0.004	-0.120
-492.537	323.948	0.213	0.403
-491.522	-200.000	0.001	-0.127
-490.508	-200.000	0.022	0.115
-489.493	-53.855	0.130	0.058
-488.478	207.444	0.262	-0.404
-487.464	26.844	-0.246	-0.203
-486.449	-200.000	0.000	-0.146
-485.435	446.922	0.031	0.067
-484.420	-20.117	0.097	-0.059
-483.405	-47.063	0.118	-0.057
-482.391	-200.000	-0.014	-0.152
-481.376	21.684	-0.181	-0.146
-480.362	800.000	0.030	-0.083
-479.347	-131.641	-0.124	-0.016
-478.332	-176.377	0.364	-0.009
-477.318	-153.657	0.160	0.011
-476.303	800.000	0.079	0.223
-475.289	-200.000	0.027	-0.125
-474.274	200.240	-0.169	0.256
-473.259	57.444	-0.161	-0.156
-472.245	316.713	-0.226	-0.422
-471.230	-32.587	-0.209	0.115
-470.216	113.903	0.292	0.351
-469.201	-200.000	-0.011	-0.159
-468.186	-66.989	-0.361	0.141
-467.172	-200.000	-0.004	0.123
-466.157	-73.702	-0.149	0.054
-465.143	-40.860	0.294	0.150
-464.128	-152.337	0.056	0.004
-463.113	-200.000	0.011	-0.142
-462.099	19.472	-0.110	-0.087
-461.084	-99.635	0.074	0.018
-460.070	-9.607	0.121	-0.080
-459.055	-16.464	0.234	0.147
-458.040	-66.181	0.112	0.044
-457.026	-148.230	-0.139	-0.011
-456.011	-29.967	-0.142	-0.080
-454.997	-192.175	0.040	-0.000
-453.982	-200.000	0.079	0.362
-452.968	231.325	-0.125	0.202
-451.953	-110.626	0.052	-0.011
-450.938	-56.812	-0.302	-0.132
-449.924	10.235	0.063	0.047
-448.909	-200.000	0.015	-0.229
-447.895	-71.031	0.254	-0.094
-446.880	-200.000	-0.220	0.001
-445.865	-200.000	0.010	0.260
-444.851	242.177	-0.101	0.166
-443.836	231.316	-0.048	0.078
-442.822	-106.755	-0.321	-0.070
-441.807	100.125	0.097	0.111
-440.792	-200.000	-0.030	-0.298
-439.778	556.470	-0.024	-0.058
-438.763	-200.000	0.086	0.444
-437.749	316.339	0.156	0.291
-436.734	-200.000	-0.021	-0.301
-435.719	-200.000	-0.034	0.152
-434.705	119.928	0.232	-0.283
-433.690	-129.750	0.277	-0.038
-432.676	-144.353	-0.088	-0.008
-431.661	-12.628	-0.180	-0.116
-430.646	800.000	-0.119	0.394
-429.632	-200.000	-0.033	0.209
-428.617	800.000	-0.086	-0.319
-427.603	367.275	0.192	-0.382
-426.588	194.204	-0.212	0.316
-425.573	24.274	0.344	0.280
-424.559	800.000	-0.048	0.152
-423.544	-4.944	0.072	0.049
-422.530	-9.464	-0.181	-0.119
-421.515	71.111	0.196	0.200
-420.500	-41.816	0.208	-0.105
-419.486	-200.000	-0.001	0.243
-418.471	-131.267	-0.179	-0.023
-417.457	-107.488	-0.124	0.027
-416.442	-68.202	-0.119	-0.046
-415.428	800.000	0.022	0.083
-414.413	-63.513	-0.183	-0.074
-413.398	-170.683	0.405	-0.014
-412.384	785.225	-0.100	-0.270
-411.369	-102.476	-0.293	-0.069
-410.355	20.432	-0.119	0.095
-409.340	55.825	-0.180	0.172
-408.325	-22.224	-0.324	-0.194
-407.311	800.000	-0.186	-0.564
-406.296	-70.347	0.247	0.092
-405.282	-200.000	-0.003	0.096
-404.267	12.279	-0.124	0.094
-403.252	-81.826	-0.307	0.099
-402.238	-200.000	-0.011	0.082
-401.223	-167.015	-0.265	-0.011
-400.209	800.000	0.104	0.294
-399.194	800.000	-0.056	-0.186
-398.179	-200.000	-0.004	-0.051
-397.165	-117.940	-0.147	-0.026
-396.150	-200.000	-0.075	-0.356
-395.136	-200.000	0.153	0.675
-394.121	780.728	-0.080	0.215
-393.106	-166.657	0.247	-0.010
-392.092	352.053	0.069	-0.135
-391.077	800.000	0.034	0.110
-390.063	57.155	-0.043	0.041
-389.048	123.545	0.157	0.193
-388.033	800.000	0.064	-0.216
-387.019	-77.573	-0.309	-0.105
-386.004	800.000	0.130	0.460
-384.990	141.576	-0.111	-0.144
-383.975	415.244	0.038	-0.080
-382.960	25.468	-0.333	-0.273
-381.946	-200.000	0.010	0.187
-380.931	105.170	-0.093	-0.109
-379.917	59.216	0.286	0.277
-378.902	123.442	0.073	-0.090
-377.888	-200.000	-0.005	-0.041
-376.873	-200.000	-0.017	0.083
-375.858	-200.000	-0.020	0.107
-374.844	-47.346	0.200	0.096
-373.829	-200.000	0.045	0.255
-372.815	-200.000	-0.010	-0.136
-371.800	153.991	0.087	-0.117
-370.785	-200.000	-0.012	0.202
-369.771	-72.889	0.296	-0.107
-368.756	-13.661	0.320	-0.204
-367.742	-100.228	0.088	-0.021
-366.727	5.318	0.141	-0.103
-365.712	103.878	0.232	-0.268
-364.698	-101.595	-0.058	0.014
-363.683	-105.643	-0.208	-0.046
-362.669	-165.398	0.224	-0.010
-361.654	116.672	0.106	0.128
-360.639	-200.000	0.073	0.467
-359.625	-200.000	0.003	-0.098
-358.610	-200.000	0.023	0.139
-357.596	120.827	-0.199	-0.243
-356.581	37.917	-0.170	-0.148
-355.566	-200.000	0.005	-0.038
-354.552	149.883	0.143	-0.191
-353.537	232.200	0.081	0.131
-352.523	-46.948	0.158	0.076
-351.508	52.924	-0.101	0.095
-350.493	25.392	-0.033	0.027
-349.479	-160.715	-0.195	0.010
-348.464	-117.711	0.015	-0.003
-347.450	-200.000	-0.007	0.441
-346.435	-90.440	0.232	0.066
-345.420	-200.000	-0.038	0.283
-344.406	-25.758	0.219	0.127
-343.391	-200.000	-0.053	0.263
-342.377	-29.163	-0.186	-0.105
-341.362	800.000	0.138	-0.410
-340.348	40.623	0.091	-0.080
-339.333	-106.288	-0.308	0.068
-338.318	24.077	0.031	0.025
-337.304	-95.406	0.320	0.084
-336.289	298.631	-0.066	0.120
-335.275	266.665	0.059	-0.101
-334.260	-200.000	0.012	0.163
-333.245	-139.045	0.123	-0.013
-332.231	-5.564	0.222	-0.150
-331.216	218.303	0.080	0.125
-330.202	-200.000	0.013	-0.143
-329.187	-106.196	-0.187	0.041
-328.172	254.170	0.186	0.313
-327.158	212.402	0.201	-0.312
-326.143	800.000	0.106	0.309
-325.129	-1.111	-0.032	-0.022
-324.114	800.000	0.057	-0.225
-323.099	-200.000	0.001	-0.195
-322.085	-97.468	0.167	0.043
-321.070	-200.000	-0.003	-0.282
-320.056	22.382	-0.427	-0.343
-319.041	187.438	0.284	-0.416
-318.026	-85.602	-0.225	0.069
-317.012	311.607	0.066	0.122
-315.997	-200.000	-0.035	-0.163
-314.983	-109.257	0.284	-0.059
-313.968	-2.899	0.181	0.124
-312.953	71.722	0.163	-0.167
-311.939	6.534	-0.124	0.090
-310.924	9.188	0.563	0.418
-309.910	-200.000	-0.025	0.290
-308.895	278.497	0.035	0.061
-307.880	1.233	-0.073	0.052
-306.866	-200.000	-0.045	-0.301
-305.851	-98.896	-0.174	0.043
-304.837	-79.312	0.154	0.051
-303.822	-119.786	-0.187	0.032
-302.807	100.770	0.049	0.056
-301.793	102.892	0.151	-0.174
-300.778	-121.900	0.443	-0.072
-299.764	8.855	-0.251	-0.186
-298.749	682.940	-0.069	-0.176
-297.735	63.441	-0.067	0.066
-296.720	134.408	0.200	0.255
-295.705	-200.000	0.012	-0.195
-294.691	-42.312	0.147	0.074
-293.676	-52.793	-0.267	-0.121
-292.662	91.206	-0.248	0.273
-291.647	-2.179	0.208	-0.144
-290.632	-200.000	0.003	0.105
-289.618	174.447	0.081	-0.115
-288.603	330.444	0.104	-0.196
-287.589	36.506	0.230	-0.199
-286.574	-62.541	0.164	-0.067
-285.559	800.000	0.097	0.307
-284.545	126.761	-0.175	0.217
-283.530	-99.927	0.190	0.046
-282.516	-200.000	0.032	-0.199
-281.501	172.937	0.288	0.406
-280.486	-200.000	-0.001	-0.076
-279.472	1.755	-0.048	0.034
-278.457	-200.000	0.009	-0.331
-277.443	292.328	0.087	-0.156
-276.428	-104.412	0.214	0.049
-275.413	-2.482	-0.365	-0.251
-274.399	-103.637	0.076	-0.017
-273.384	455.622	-0.030	0.065
-272.370	-200.000	0.014	-0.115
-271.355	-112.394	0.329	0.065
-270.340	71.558	0.226	0.230
-269.326	-58.775	0.129	-0.055
-268.311	800.000	0.116	-0.395
-267.297	276.607	-0.048	-0.084
-266.282	-63.623	-0.176	-0.071
-265.267	-200.000	0.030	0.401
-264.253	800.000	0.031	-0.104
-263.238	112.605	-0.078	0.093
-262.224	-119.160	-0.144	0.025
-261.209	800.000	0.020	-0.066
-260.195	-87.964	0.242	0.071
-259.180	-4.284	-0.135	0.092
-258.165	-200.000	0.043	0.347
-257.151	49.647	-0.021	-0.020
-256.136	-15.488	-0.092	0.057
-255.122	-67.538	0.144	0.055
-254.107	548.399	-0.080	-0.187
-253.092	-200.000	-0.024	-0.157
-252.078	94.141	0.184	-0.205
-251.063	66.508	-0.069	-0.069
-250.049	-200.000	0.001	0.210
-249.034	463.114	0.097	0.212
-248.019	149.587	-0.137	0.181
-247.005	252.778	0.023	-0.039
-245.990	-52.570	-0.104	-0.047
-244.976	800.000	0.124	-0.397
-243.961	-29.119	0.072	-0.041
-242.946	-196.818	0.300	-0.002
-241.932	-91.683	-0.216	-0.060
-240.917	-64.109	-0.323	-0.129
-239.903	800.000	0.095	-0.326
-238.888	105.104	-0.076	0.088
-237.873	-150.173	0.173	0.013
-236.859	-200.000	0.025	0.201
-235.844	669.018	-0.164	-0.416
-234.830	-200.000	0.001	-0.264
-233.815	34.168	0.132	0.113
-232.800	-18.983	0.210	0.128
-231.786	-200.000	-0.035	0.000
-230.771	-28.352	-0.240	0.136
-229.757	-200.000	0.021	-0.283
-228.742	282.195	-0.079	0.138
-227.727	-50.403	0.139	-0.064
-226.713	-200.000	-0.021	-0.091
-225.698	800.000	-0.048	-0.194
-224.684	-40.975	0.236	-0.119
-223.669	-200.000	0.019	0.242
-222.655	800.000	0.050	-0.162
-221.640	-13.066	0.087	-0.055
-220.625	282.291	0.069	0.121
-219.611	434.805	-0.091	0.194
-218.596	-200.000	-0.096	0.450
-217.582	-87.358	-0.208	-0.062
-216.567	-29.598	-0.195	0.109
-215.552	-140.309	0.246	0.025
-214.538	-126.191	0.035	0.005
-213.523	194.770	0.167	0.248
-212.509	93.420	-0.371	0.411
-211.494	173.560	0.096	0.136
-210.479	-200.000	0.010	0.102
-209.465	-82.228	0.195	-0.062
-208.450	-70.616	-0.332	-0.123
-207.436	-200.000	-0.001	-0.054
-206.421	129.711	-0.137	0.171
-205.406	488.049	-0.033	-0.073
-204.392	305.621	0.150	-0.272
-203.377	28.805	0.166	-0.138
-202.363	-200.000	-0.034	-0.422
-201.348	217.448	-0.149	-0.232
-200.333	711.061	0.090	0.234
-199.319	-200.000	0.003	0.104
-198.304	42.001	0.267	0.237
-197.290	-200.000	-0.042	-0.199
-196.275	-200.000	-0.028	-0.195
-195.260	-66.832	0.169	0.065
-194.246	-200.000	0.025	0.370
-193.231	423.706	0.105	-0.221
-192.217	-200.000	0.036	0.412
-191.202	-142.237	0.518	-0.050
-190.187	-80.074	-0.293	-0.096
-189.173	-33.215	-0.303	0.164
-188.158	83.603	0.064	0.068
-187.144	-99.945	0.124	0.030
-186.129	107.785	-0.079	-0.092
-185.114	-171.928	-0.091	-0.003
-184.100	-139.953	0.060	0.006
-183.085	440.491	0.055	-0.118
-182.071	800.000	0.112	-0.338
-181.056	-104.797	0.204	0.046
-180.042	102.460	-0.134	-0.153
-179.027	-176.795	0.147	-0.004
-178.012	-126.589	0.078	-0.011
-176.998	-200.000	-0.018	0.088
-175.983	-146.242	0.266	0.023
-174.969	-49.431	0.326	0.152
-173.954	-200.000	0.049	-0.295
-172.939	-104.084	-0.106	0.024
-171.925	-200.000	0.030	-0.209
-170.910	113.802	0.033	0.039
-169.896	800.000	-0.036	-0.127
-168.881	-18.543	-0.370	-0.226
-167.866	59.488	0.227	0.219
-166.852	-57.351	-0.271	0.116
-165.837	-6.409	0.217	0.144
-164.823	-151.580	0.044	0.003
-163.808	113.874	0.126	0.149
-162.793	143.353	0.082	-0.107
-161.779	-90.609	0.337	0.095
-160.764	781.980	-0.100	0.268
-159.750	-106.085	0.421	-0.092
-158.735	65.841	0.065	0.064
-157.720	800.000	0.053	-0.215
-156.706	-82.096	0.243	-0.077
-155.691	103.554	-0.239	-0.274
-154.677	800.000	-0.063	-0.204
-153.662	-200.000	0.005	0.023
-152.647	-174.516	0.072	-0.002
-151.633	110.790	-0.197	0.231
-150.618	-108.177	-0.215	0.045
-149.604	52.882	-0.133	-0.124
-148.589	672.567	-0.079	0.201
-147.574	800.000	-0.068	0.255
-146.560	-20.107	-0.119	-0.071
-145.545	49.119	0.220	0.201
-144.531	126.061	0.031	0.038
-143.516	800.000	-0.038	0.125
-142.502	-200.000	0.004	-0.020
-141.487	731.099	0.058	0.151
-140.472	28.061	-0.326	0.268
-139.458	186.796	-0.086	-0.125
-138.443	-25.322	0.274	-0.158
-137.429	-158.617	0.278	-0.016
-136.414	286.175	0.054	0.095
-135.399	-10.615	0.064	0.042
-134.385	-94.037	-0.489	-0.131
-133.370	-140.816	0.181	0.018
-132.356	-200.000	0.014	0.139
-131.341	-10.079	0.454	0.294
-130.326	245.036	0.133	-0.219
-129.312	391.180	-0.145	-0.293
-128.297	-111.756	-0.300	-0.059
-127.283	66.279	-0.249	0.246
-126.268	-200.000	-0.036	0.474
-125.253	21.300	0.445	0.353
-124.239	-105.484	-0.050	-0.011
-123.224	-112.991	-0.210	-0.040
-122.210	-99.977	0.170	0.041
-121.195	111.217	-0.132	0.155
-120.180	-200.000	0.043	0.215
-119.166	267.404	-0.051	0.087
-118.151	-16.158	0.223	-0.138
-117.137	-102.093	0.316	-0.074
-116.122	302.024	-0.131	-0.235
-115.107	602.059	0.029	-0.069
-114.093	-94.090	0.133	0.036
-113.078	-200.000	0.020	0.238
-112.064	247.190	-0.059	0.097
-111.049	16.097	0.290	0.222
-110.034	25.301	-0.026	0.021
-109.020	410.759	0.055	0.113
-108.005	-69.809	0.427	0.159
-106.991	773.766	0.077	0.204
-105.976	-200.000	-0.033	0.250
-104.962	551.780	-0.067	0.158
-103.947	-200.000	0.036	-0.294
-102.932	-200.000	0.038	-0.216
-101.918	-68.445	0.358	0.135
-100.903	-200.000	-0.003	-0.059
-99.889	12.548	-0.297	0.223
-98.874	87.775	0.132	-0.143
-97.859	-162.512	-0.307	-0.015
-96.845	141.754	0.107	0.139
-95.830	-64.765	-0.235	-0.093
-94.816	81.998	-0.220	-0.232
-93.801	-200.000	-0.059	0.342
-92.786	-200.000	0.060	0.379
-91.772	-170.056	-0.315	-0.011
-90.757	800.000	-0.020	-0.076
-89.743	-200.000	-0.023	-0.224
-88.728	417.116	0.077	0.159
-87.713	-200.000	0.028	-0.157
-86.699	10.412	-0.094	-0.070
-85.684	-34.457	-0.181	0.097
-84.670	-16.549	0.167	-0.103
-83.655	-200.000	-0.019	0.150
-82.640	800.000	0.026	-0.088
-81.626	-60.458	-0.295	-0.122
-80.611	-75.132	0.348	0.121
-79.597	-200.000	0.008	0.073
-78.582	-165.490	0.046	-0.002
-77.567	-200.000	0.025	-0.296
-76.553	108.234	-0.135	-0.157
-75.538	41.877	0.285	-0.251
-74.524	48.780	0.199	-0.182
-73.509	-25.211	-0.280	0.161
-72.494	226.793	0.012	-0.018
-71.480	-200.000	-0.040	-0.241
-70.465	-99.175	-0.280	-0.069
-69.451	163.697	0.151	0.207
-68.436	318.886	-0.090	0.165
-67.422	-90.196	0.180	-0.051
-66.407	-200.000	0.010	0.143
-65.392	800.000	-0.064	-0.261
-64.378	-77.447	0.374	0.126
-63.363	-34.910	-0.347	-0.184
-62.349	459.829	0.038	-0.082
-61.334	74.585	-1.168	-1.194
-60.319	12.694	0.885	0.664
-59.305	336.754	-0.593	-1.120
-58.290	150.287	0.916	1.208
-57.276	646.360	0.707	1.756
-56.261	-200.000	135.984	628.749
-55.246	347.445	1632.157	3124.116
-54.232	137.669	2778.795	3535.779
-53.217	76.970	2299.337	2372.851
-52.203	27.511	1905.534	1557.454
-51.188	21.925	1702.152	1348.369
-50.173	20.218	1665.075	1306.106
-49.159	41.767	1738.724	1531.175
-48.144	37.811	1748.394	1509.073
-47.130	21.512	1700.114	1343.375
-46.115	19.304	1684.265	1313.986
-45.100	19.038	1680.031	1308.607
-44.086	19.088	1676.940	1306.527
-43.071	19.005	1674.019	1303.572
-42.057	18.974	1672.028	1301.736
-41.042	19.068	1669.954	1300.779
-40.027	18.996	1668.406	1298.975
-39.013	18.993	1666.565	1297.471
-37.998	19.026	1664.692	1296.208
-36.984	19.069	1663.570	1295.604
-35.969	19.025	1662.698	1294.541
-34.954	19.068	1660.868	1293.390
-33.940	19.058	1658.792	1291.646
-32.925	19.110	1657.102	1290.672
-31.911	19.097	1655.369	1289.173
-30.896	19.132	1653.593	1287.997
-29.881	19.061	1652.698	1286.724
-28.867	19.159	1650.725	1285.868
-27.852	19.010	1649.814	1283.993
-26.838	19.117	1647.860	1283.222
-25.823	19.105	1647.013	1282.419
-24.809	19.133	1645.677	1281.534
-23.794	19.190	1643.618	1280.307
-22.779	19.186	1642.505	1279.362
-21.765	19.227	1640.818	1278.300
-20.750	19.079	1640.031	1276.540
-19.736	19.173	1638.335	1275.859
-18.721	19.280	1636.510	1275.183
-17.706	19.214	1635.227	1273.647
-16.692	19.057	1634.317	1271.724
-15.677	19.232	1632.179	1271.299
-14.663	19.214	1630.812	1270.052
-13.648	19.216	1629.777	1269.209
-12.633	19.206	1627.898	1267.627
-11.619	19.073	1626.829	1265.761
-10.604	19.168	1624.978	1264.971
-9.590	19.243	1623.598	1264.401
-8.575	19.097	1622.908	1262.742
-7.560	19.193	1621.259	1262.107
-6.546	19.157	1620.312	1261.060
-5.531	19.117	1619.485	1260.071
-4.517	19.255	1617.867	1259.768
-3.502	19.164	1617.283	1258.605
-2.487	19.207	1616.181	1258.012
-1.473	18.735	1603.372	1244.571
-0.458	15.730	1583.400	1207.473
0.556	11.151	1585.721	1176.552
1.571	9.140	1609.521	1179.348
2.586	8.859	1621.783	1186.153
3.600	8.403	1566.543	1142.387
4.615	4.914	1462.304	1042.957
5.629	1.253	1408.305	980.724
6.644	0.666	1401.398	972.051
7.659	0.564	1401.013	971.045
8.673	0.576	1399.968	970.312
9.688	0.534	1397.435	968.199
10.702	0.395	1393.463	964.472
11.717	2.324	1394.972	977.776
12.731	7.795	1403.812	1019.009
13.746	14.081	1414.201	1066.912
14.761	16.925	1417.772	1087.783
15.775	16.520	1416.328	1083.982
16.790	15.491	1413.748	1075.324
17.804	14.823	1411.112	1068.954
18.819	14.440	1410.162	1065.692
19.834	14.233	1408.820	1063.259
20.848	13.938	1406.883	1059.825
21.863	13.727	1406.019	1057.731
22.877	13.527	1404.680	1055.358
23.892	13.548	1403.472	1054.487
24.907	13.463	1403.453	1053.841
25.921	13.503	1402.052	1052.953
26.936	13.683	1400.921	1053.147
27.950	13.665	1400.132	1052.351
28.965	13.695	1398.858	1051.491
29.980	13.738	1398.111	1051.105
30.994	13.752	1397.532	1050.668
32.009	13.753	1396.212	1049.586
33.023	13.700	1395.298	1048.475
34.038	13.752	1393.902	1047.660
35.053	13.733	1392.884	1046.681
36.067	13.691	1391.908	1045.595
37.082	13.614	1391.209	1044.489
38.096	13.650	1389.908	1043.645
39.111	13.696	1389.026	1043.183
40.126	13.590	1388.651	1042.138
41.140	13.606	1387.583	1041.344
42.155	13.612	1386.410	1040.411
43.169	13.447	1387.551	1040.140
44.184	13.538	1386.576	1039.891
45.199	13.501	1386.109	1039.211
46.213	13.574	1385.132	1038.846
47.228	13.637	1384.061	1038.349
48.242	13.595	1383.121	1037.290
49.257	13.515	1381.969	1035.827
50.271	13.725	1379.490	1035.195
51.286	13.594	1378.834	1033.791
52.301	13.660	1377.447	1033.068
53.315	13.466	1377.211	1031.592
54.330	13.595	1375.554	1031.066
55.344	13.537	1374.594	1029.891
56.359	13.587	1372.893	1028.835
57.374	13.564	1372.293	1028.152
58.388	13.440	1371.976	1027.056
59.403	13.493	1371.335	1026.816
60.417	13.611	1369.734	1026.253
61.432	13.466	1368.871	1024.617
62.447	13.423	1368.438	1023.939
63.461	13.372	1367.077	1022.513
64.476	13.528	1365.523	1022.226
65.490	13.451	1364.686	1021.034
66.505	13.453	1363.049	1019.730
67.520	13.503	1362.070	1019.219
68.534	13.587	1360.597	1018.541
69.549	13.403	1360.091	1016.943
70.563	13.455	1358.708	1016.133
71.578	13.516	1357.065	1015.194
72.593	13.432	1356.601	1014.240
73.607	13.327	1355.933	1013.008
74.622	13.321	1355.132	1012.280
75.636	13.416	1354.039	1011.957
76.651	13.352	1353.443	1011.032
77.666	13.408	1352.796	1010.800
78.680	13.468	1352.038	1010.509
79.695	13.538	1351.007	1010.076
80.709	13.406	1350.308	1008.661
81.724	13.480	1349.464	1008.395
82.739	13.428	1348.878	1007.547
83.753	13.536	1347.350	1006.973
84.768	13.655	1346.179	1006.732
85.782	13.620	1345.243	1005.729
86.797	13.556	1344.247	1004.507
87.812	13.611	1342.379	1003.356
88.826	13.567	1341.408	1002.277
89.841	13.646	1339.870	1001.515
90.855	13.691	1338.837	1000.926
91.870	13.552	1338.376	999.658
92.884	13.644	1337.446	999.428
93.899	13.605	1336.880	998.678
94.914	13.842	1335.481	998.975
95.928	13.601	1335.582	997.513
96.943	13.736	1333.966	997.028
97.957	13.760	1333.000	996.364
98.972	13.553	1332.341	994.539
99.987	13.713	1330.650	994.148
101.001	13.656	1329.574	992.912
102.016	13.675	1328.431	992.088
103.030	13.758	1327.944	992.131
104.045	13.637	1327.137	990.718
105.060	13.709	1325.321	989.703
106.074	13.607	1324.398	988.318
107.089	13.504	1322.912	986.506
108.103	13.483	1321.785	985.455
109.118	13.571	1320.137	984.661
110.133	13.548	1318.764	983.413
111.147	13.650	1317.492	982.983
112.162	13.652	1315.997	981.795
113.176	13.664	1314.923	980.976
114.191	13.628	1314.528	980.380
115.206	13.669	1312.925	979.344
116.220	13.648	1311.665	978.189
117.235	13.619	1310.767	977.263
118.249	13.497	1310.055	975.925
119.264	13.614	1308.562	975.417
120.279	13.632	1307.149	974.382
121.293	13.608	1306.137	973.401
122.308	13.565	1305.402	972.518
123.322	13.537	1304.426	971.537
124.337	13.619	1302.970	970.848
125.352	13.645	1301.895	970.116
126.366	13.512	1300.879	968.493
127.381	13.459	1300.025	967.462
128.395	13.486	1298.749	966.585
129.410	13.568	1297.500	966.051
130.424	13.533	1297.005	965.393
131.439	13.611	1295.691	964.782
132.454	13.561	1294.993	963.887
133.468	13.509	1294.047	962.795
134.483	13.576	1293.137	962.422
135.497	13.612	1291.589	961.392
136.512	13.589	1290.734	960.537
137.527	13.545	1289.021	958.924
138.541	13.649	1287.235	958.109
139.556	13.675	1286.237	957.430
140.570	13.652	1285.429	956.615
141.585	13.738	1284.129	956.057
142.600	13.641	1283.193	954.715
143.614	13.758	1282.125	954.511
144.629	13.732	1281.089	953.504
145.643	13.883	1279.750	953.291
146.658	13.702	1278.534	951.262
147.673	13.804	1277.029	950.644
148.687	13.763	1276.189	949.703
149.702	13.789	1274.359	948.401
150.716	13.679	1273.556	947.092
151.731	13.796	1272.438	946.846
152.746	13.750	1271.031	945.454
153.760	13.805	1269.926	944.863
154.775	13.762	1268.590	943.539
155.789	13.830	1267.545	943.066
156.804	13.980	1266.465	943.030
157.819	13.870	1265.195	941.374
158.833	14.000	1264.450	941.476
159.848	14.022	1263.459	940.777
160.862	13.941	1262.343	939.405
161.877	13.957	1261.473	938.768
162.892	13.932	1260.212	937.605
163.906	13.894	1259.614	936.859
164.921	13.794	1259.200	935.906
165.935	13.847	1258.088	935.298
166.950	13.873	1257.454	934.888
167.964	13.892	1256.362	934.099
168.979	13.998	1255.414	933.911
169.994	13.987	1254.958	933.428
171.008	13.894	1254.099	932.181
172.023	14.129	1252.813	932.458
173.037	14.028	1252.532	931.601
174.052	14.113	1251.271	931.061
175.067	13.865	1250.378	928.923
176.081	13.931	1249.497	928.555
177.096	13.991	1248.542	928.103
178.110	14.038	1247.057	927.174
179.125	14.116	1245.853	926.631
180.140	14.025	1244.967	925.387
181.154	13.925	1243.949	923.990
182.169	14.080	1242.680	923.827
183.183	14.052	1241.167	922.464
184.198	14.105	1239.815	921.672
185.213	14.237	1238.231	921.147
186.227	14.279	1237.697	920.900
187.242	14.183	1236.887	919.681
188.256	14.346	1235.479	919.453
189.271	14.390	1234.367	918.789
190.286	14.130	1233.631	916.728
191.300	14.024	1232.781	915.428
192.315	14.022	1232.454	915.096
193.329	14.134	1231.413	914.857
194.344	14.198	1230.596	914.520
195.359	14.197	1230.136	914.093
196.373	14.249	1229.520	913.839
197.388	14.237	1229.495	913.673
198.402	14.405	1228.820	914.011
199.417	14.423	1228.176	913.555
200.432	14.384	1226.863	912.284
201.446	14.469	1226.418	912.336
202.461	14.436	1225.404	911.319
203.475	14.501	1224.024	910.567
204.490	14.529	1222.649	909.616
205.504	14.472	1221.915	908.678
206.519	14.431	1220.886	907.612
207.534	14.471	1219.496	906.718
208.548	14.422	1218.499	905.629
209.563	14.428	1217.986	905.197
210.577	14.477	1216.704	904.431
211.592	14.556	1215.810	904.115
212.607	14.616	1214.461	903.359
213.621	14.600	1213.910	902.782
214.636	14.571	1213.484	902.227
215.650	14.600	1212.504	901.573
216.665	14.596	1211.214	900.512
217.680	14.773	1210.151	900.600
218.694	14.710	1209.359	899.590
219.709	14.660	1208.824	898.844
220.723	14.717	1208.081	898.520
221.738	14.579	1207.161	897.015
222.753	14.675	1206.759	897.152
223.767	14.765	1205.934	896.939
224.782	14.675	1205.281	895.892
225.796	14.792	1204.718	896.021
226.811	14.745	1203.919	895.098
227.826	14.785	1203.185	894.685
228.840	14.777	1202.619	894.143
229.855	14.848	1201.324	893.482
230.869	14.843	1200.780	892.973
231.884	14.790	1200.100	892.105
232.899	14.827	1199.136	891.505
233.913	14.738	1198.774	890.681
234.928	14.758	1197.251	889.580
235.942	14.748	1197.170	889.384
236.957	14.912	1196.101	889.384
237.972	14.750	1195.974	888.353
238.986	14.804	1195.041	887.868
240.001	14.832	1194.285	887.373
241.015	14.870	1192.951	886.504
242.030	14.829	1192.383	885.790
243.045	14.876	1191.876	885.582
244.059	14.783	1191.109	884.441
245.074	14.954	1190.104	884.520
246.088	14.940	1188.912	883.485
247.103	15.020	1188.375	883.428
248.117	15.024	1187.551	882.760
249.132	15.114	1186.692	882.518
250.147	15.106	1186.033	881.909
251.161	15.089	1185.470	881.322
252.176	15.145	1184.972	881.165
253.190	15.215	1184.083	880.799
254.205	15.282	1183.319	880.500
255.220	15.207	1183.252	879.980
256.234	15.195	1182.562	879.325
257.249	15.275	1181.911	879.185
258.263	15.258	1181.142	878.444
259.278	15.251	1180.680	877.985
260.293	15.260	1179.719	877.241
261.307	15.391	1178.851	877.203
262.322	15.364	1178.709	876.876
263.336	15.412	1178.144	876.632
264.351	15.344	1177.484	875.710
265.366	15.456	1176.453	875.446
266.380	15.541	1175.348	874.992
267.395	15.439	1174.877	874.033
268.409	15.449	1174.160	873.474
269.424	15.505	1173.222	872.989
270.439	15.399	1172.889	872.113
271.453	15.540	1172.079	872.168
272.468	15.600	1170.917	871.538
273.482	15.474	1170.503	870.499
274.497	15.530	1169.915	870.275
275.512	15.585	1169.027	869.818
276.526	15.529	1168.245	868.872
277.541	15.610	1167.539	868.690
278.555	15.595	1166.985	868.123
279.570	15.632	1166.375	867.780
280.585	15.565	1165.697	866.856
281.599	15.669	1164.240	866.229
282.614	15.677	1163.519	865.657
283.628	15.655	1162.539	864.742
284.643	15.706	1161.425	864.096
285.657	15.659	1160.732	863.263
286.672	15.728	1159.834	862.873
287.687	15.661	1159.017	861.846
288.701	15.779	1157.694	861.389
289.716	15.773	1157.245	860.951
290.730	15.731	1156.921	860.419
291.745	15.761	1155.649	859.546
292.760	15.829	1155.115	859.423
293.774	15.834	1154.763	859.111
294.789	15.913	1153.835	858.748
295.803	15.815	1153.497	857.921
296.818	15.802	1152.736	857.211
297.833	15.911	1151.475	856.753
298.847	15.812	1151.089	855.884
299.862	15.924	1150.243	855.749
300.876	15.950	1149.564	855.302
301.891	15.916	1149.377	854.914
302.906	15.949	1147.967	853.958
303.920	15.997	1147.604	853.854
304.935	16.049	1146.954	853.559
305.949	16.123	1146.038	853.175
306.964	16.046	1145.490	852.303
307.979	16.078	1144.689	851.795
308.993	16.131	1143.504	851.103
310.008	16.152	1142.960	850.731
311.022	16.158	1142.127	850.064
312.037	16.151	1141.345	849.373
313.052	16.046	1140.377	848.046
314.066	16.074	1139.520	847.478
315.081	16.112	1138.668	846.960
316.095	16.162	1138.027	846.660
317.110	16.085	1137.398	845.727
318.125	16.133	1136.689	845.365
319.139	16.118	1135.933	844.656
320.154	16.042	1135.622	843.969
321.168	16.128	1134.918	843.799
322.183	16.288	1134.033	843.869
323.197	16.216	1133.236	842.840
324.212	16.227	1132.776	842.478
325.227	16.165	1132.006	841.522
326.241	16.274	1131.656	841.731
327.256	16.145	1130.961	840.496
328.270	16.273	1129.459	839.945
329.285	16.246	1128.474	839.002
330.300	16.341	1127.638	838.779
331.314	16.262	1126.740	837.642
332.329	16.349	1125.396	837.001
333.343	16.378	1124.860	836.673
334.358	16.318	1124.381	835.946
335.373	16.285	1123.791	835.269
336.387	16.449	1122.914	835.353
337.402	16.364	1121.773	834.011
338.416	16.383	1121.285	833.667
339.431	16.579	1120.139	833.709
340.446	16.469	1119.942	832.946
341.460	16.533	1118.973	832.468
342.475	16.609	1117.891	831.962
343.489	16.627	1117.224	831.483
344.504	16.513	1116.502	830.309
345.519	16.575	1115.528	829.816
346.533	16.668	1114.615	829.521
347.548	16.725	1113.633	828.997
348.562	16.784	1113.106	828.819
349.577	16.650	1112.446	827.599
350.592	16.648	1111.776	827.018
351.606	16.683	1111.028	826.558
352.621	16.677	1110.511	826.072
353.635	16.662	1109.806	825.399
354.650	16.619	1109.198	824.668
355.665	16.685	1107.910	823.957
356.679	16.695	1107.300	823.478
357.694	16.677	1106.801	822.945
358.708	16.721	1106.322	822.732
359.723	16.783	1105.536	822.374
360.738	16.751	1105.351	822.011
361.752	16.799	1104.669	821.663
362.767	16.725	1103.879	820.644
363.781	16.872	1103.280	820.836
364.796	16.837	1103.134	820.487
365.810	16.894	1102.307	820.074
366.825	16.903	1101.582	819.506
367.840	16.890	1101.224	819.106
368.854	17.036	1100.240	819.005
369.869	17.089	1099.402	818.565
370.883	17.005	1098.125	817.136
371.898	17.023	1097.685	816.823
372.913	16.996	1097.425	816.428
373.927	16.942	1097.069	815.831
374.942	17.063	1095.874	815.451
375.956	17.109	1095.321	815.189
376.971	17.027	1095.189	814.625
377.986	17.156	1094.476	814.641
379.000	17.163	1093.886	814.165
380.015	17.158	1093.350	813.668
381.029	17.252	1092.572	813.466
382.044	17.213	1091.825	812.653
383.059	17.083	1091.299	811.569
384.073	17.214	1090.546	811.561
385.088	17.388	1088.999	811.168
386.102	17.350	1088.074	810.227
387.117	17.189	1087.482	808.947
388.132	17.322	1086.418	808.719
389.146	17.242	1085.858	807.848
390.161	17.209	1085.394	807.277
391.175	17.200	1084.614	806.582
392.190	17.410	1083.761	806.869
393.205	17.409	1082.892	806.146
394.219	17.361	1082.261	805.381
395.234	17.362	1081.048	804.409
396.248	17.453	1080.107	804.071
397.263	17.314	1079.498	802.889
398.278	17.429	1078.568	802.666
399.292	17.277	1078.061	801.501
400.307	17.301	1077.065	800.806
401.321	17.341	1076.727	800.670
402.336	17.426	1075.916	800.396
403.350	17.402	1075.174	799.659
404.365	17.370	1074.792	799.156
405.380	17.408	1073.710	798.459
406.394	17.466	1073.063	798.179
407.409	17.483	1072.180	797.531
408.423	17.524	1071.755	797.336
409.438	17.602	1071.013	797.079
410.453	17.581	1070.399	796.455
411.467	17.599	1069.299	795.649
412.482	17.664	1068.896	795.581
413.496	17.606	1068.082	794.636
414.511	17.673	1067.340	794.324
415.526	17.739	1067.109	794.391
416.540	17.607	1066.928	793.572
417.555	17.753	1066.066	793.538
418.569	17.796	1065.356	793.138
419.584	17.809	1064.755	792.684
420.599	17.841	1064.832	792.817
421.613	109.215	1333.488	1492.186
422.628	100.928	1372.552	1492.238
