DTS Sentinel unit serial number:	SN413079Multiplexer serial number:	ORYXHardware model number:	OX4-SRSoftware version number:	ORYX F/W v4.00 Oryx Data Collector v3.7.2.0data status	okinstallation	princeton_trtdifferential loss correction	single-endedforward channel	channel 2reverse channel	N/Adate	2019/09/16time	22:03:35forward acquisition time	60.00reverse acquisition time	0.00gamma	496.2192k internal	0.2327k external	0.2327temperature offset calibration	0.9970default loss term (dB/km)	0.3790temperature slope calibration	1.0000multiplexer offset coefficient	1.0000multiplexer slope coefficient	1.0000fibre end	0.00T internal ref (°C)	31.14T ext. ref 1 (°C)	0.07T ext. ref 2 (°C)	25.17length (m)	temperature (°C)	Stokes	anti-Stokes-747.200	-200.000	-0.004	0.117
-746.185	369.294	-0.163	0.332
-745.171	-7.477	-0.207	0.141
-744.156	94.781	-0.149	0.171
-743.142	254.354	0.044	-0.076
-742.127	-145.927	0.261	-0.023
-741.112	137.204	-0.177	-0.234
-740.098	99.663	-0.180	0.210
-739.083	73.277	-0.210	0.221
-738.069	800.000	0.091	0.255
-737.054	466.365	-0.174	0.392
-736.039	55.152	-0.265	-0.258
-735.025	800.000	-0.028	0.083
-734.010	800.000	-0.114	-0.353
-732.996	-200.000	-0.052	-0.338
-731.981	224.466	0.113	-0.184
-730.966	-137.701	0.149	0.017
-729.952	-87.120	-0.462	0.142
-728.937	-65.192	-0.251	0.102
-727.923	516.213	-0.060	0.140
-726.908	69.944	-0.143	-0.148
-725.894	33.323	0.290	0.253
-724.879	-74.124	-0.440	0.161
-723.864	-76.637	-0.174	-0.061
-722.850	-167.407	0.073	0.003
-721.835	-121.643	-0.420	-0.070
-720.821	137.861	-0.094	0.124
-719.806	-41.961	0.221	-0.114
-718.791	405.254	0.104	-0.221
-717.777	484.901	-0.053	-0.121
-716.762	331.969	-0.035	-0.069
-715.748	-90.068	0.215	-0.063
-714.733	-16.377	-0.249	-0.159
-713.718	55.978	0.167	-0.163
-712.704	800.000	0.059	-0.219
-711.689	-21.701	-0.162	-0.099
-710.675	77.214	-0.251	0.269
-709.660	42.602	-0.241	0.221
-708.645	-200.000	0.030	0.000
-707.631	-111.471	0.189	-0.039
-706.616	-144.236	-0.112	-0.011
-705.602	194.437	-0.132	-0.202
-704.587	-200.000	-0.017	0.079
-703.572	214.459	-0.070	0.111
-702.558	-200.000	0.028	0.183
-701.543	-200.000	-0.008	0.189
-700.529	450.054	0.084	-0.186
-699.514	13.658	-0.281	-0.220
-698.499	-69.011	0.046	0.018
-697.485	-200.000	-0.065	-0.449
-696.470	-200.000	0.025	-0.391
-695.456	-51.729	-0.241	-0.113
-694.441	-200.000	-0.005	-0.193
-693.426	-58.646	0.188	0.082
-692.412	-200.000	0.028	-0.147
-691.397	-101.272	0.298	0.073
-690.383	-200.000	-0.006	0.104
-689.368	-78.977	0.198	-0.068
-688.354	800.000	-0.012	-0.038
-687.339	91.489	-0.165	-0.186
-686.324	482.593	0.156	-0.357
-685.310	-140.384	-0.179	-0.019
-684.295	664.186	0.080	0.209
-683.281	-200.000	-0.043	-0.347
-682.266	-91.612	-0.146	-0.042
-681.251	324.661	-0.045	-0.087
-680.237	360.324	-0.187	0.377
-679.222	154.946	-0.146	0.201
-678.208	-106.937	-0.347	0.077
-677.193	30.363	0.131	0.113
-676.178	152.395	-0.019	0.026
-675.164	122.282	-0.095	0.119
-674.149	-200.000	-0.092	-0.460
-673.135	362.023	-0.029	0.059
-672.120	274.637	0.040	0.072
-671.105	-117.439	0.382	-0.070
-670.091	-55.192	0.180	-0.081
-669.076	55.298	-0.220	-0.214
-668.062	337.451	-0.160	0.312
-667.047	86.925	0.026	0.029
-666.032	800.000	0.090	-0.255
-665.018	800.000	-0.048	-0.195
-664.003	21.089	0.181	0.148
-662.989	562.845	0.042	0.101
-661.974	39.795	-0.351	-0.316
-660.959	-10.774	-0.236	0.157
-659.945	-138.764	-0.372	0.041
-658.930	-36.307	-0.284	0.154
-657.916	800.000	0.066	-0.269
-656.901	-200.000	0.015	-0.086
-655.886	-31.323	-0.270	-0.153
-654.872	-60.173	-0.100	0.043
-653.857	-200.000	-0.082	-0.433
-652.843	-93.727	-0.115	-0.032
-651.828	-169.611	-0.244	-0.009
-650.814	-200.000	0.046	0.248
-649.799	118.271	-0.185	0.229
-648.784	-200.000	0.033	0.234
-647.770	-166.919	-0.382	0.016
-646.755	110.846	0.093	0.112
-645.741	-165.490	0.305	0.013
-644.726	96.344	-0.187	0.214
-643.711	-153.694	-0.284	-0.020
-642.697	226.903	0.127	-0.207
-641.682	-200.000	-0.031	0.385
-640.668	-159.753	0.284	0.016
-639.653	-137.194	-0.104	0.012
-638.638	536.810	0.112	-0.266
-637.624	3.365	-0.050	-0.037
-636.609	-101.722	-0.164	-0.040
-635.595	-135.612	0.336	-0.040
-634.580	358.797	0.135	0.270
-633.565	-85.855	-0.069	-0.021
-632.551	10.188	0.135	0.103
-631.536	-143.751	-0.056	-0.005
-630.522	220.154	-0.104	0.168
-629.507	-50.820	-0.086	0.040
-628.492	-45.704	0.170	-0.084
-627.478	99.816	-0.124	-0.144
-626.463	-103.197	0.016	0.004
-625.449	-200.000	-0.034	-0.216
-624.434	-135.361	-0.178	0.021
-623.419	228.817	0.154	0.252
-622.405	-200.000	0.013	0.157
-621.390	88.211	0.292	0.325
-620.376	-161.027	0.340	-0.018
-619.361	698.375	-0.006	0.015
-618.346	-200.000	0.030	0.318
-617.332	99.954	0.134	-0.155
-616.317	-155.037	0.454	-0.030
-615.303	-158.068	0.244	-0.014
-614.288	-128.564	-0.232	0.033
-613.273	-183.583	-0.224	-0.004
-612.259	-200.000	0.010	0.119
-611.244	-22.193	-0.019	-0.012
-610.230	-56.098	-0.067	-0.030
-609.215	800.000	0.070	-0.269
-608.201	287.594	-0.067	0.121
-607.186	-200.000	-0.005	0.178
-606.171	26.767	-0.129	-0.109
-605.157	77.722	0.127	-0.136
-604.142	408.258	-0.045	-0.096
-603.128	735.066	0.084	-0.224
-602.113	-86.893	-0.164	-0.050
-601.098	39.460	-0.204	-0.183
-600.084	-62.470	0.264	0.110
-599.069	102.025	-0.182	0.213
-598.055	-120.240	0.077	0.013
-597.040	9.968	-0.187	0.142
-596.025	-200.000	-0.023	0.113
-595.011	90.800	-0.264	-0.296
-593.996	-48.591	-0.380	-0.183
-592.982	-98.799	-0.111	-0.028
-591.967	-200.000	-0.033	-0.372
-590.952	441.136	-0.162	0.355
-589.938	-89.252	0.464	0.137
-588.923	-111.044	0.340	-0.070
-587.909	13.953	-0.104	0.081
-586.894	447.083	0.052	-0.115
-585.879	226.497	-0.080	0.130
-584.865	-28.727	0.176	-0.102
-583.850	-84.588	0.106	-0.033
-582.836	-93.173	-0.169	0.047
-581.821	57.934	-0.079	-0.078
-580.806	-200.000	-0.004	0.027
-579.792	-37.938	0.166	0.088
-578.777	368.021	0.152	-0.308
-577.763	800.000	-0.019	0.084
-576.748	23.591	-0.123	-0.101
-575.733	-27.542	0.304	0.177
-574.719	327.485	0.040	0.077
-573.704	-200.000	0.006	-0.045
-572.690	44.602	-0.129	0.119
-571.675	55.996	-0.209	0.203
-570.661	-156.360	-0.431	0.027
-569.646	-200.000	0.027	0.179
-568.631	244.146	-0.311	-0.524
-567.617	-200.000	-0.018	-0.148
-566.602	-25.910	0.128	0.075
-565.588	-200.000	0.019	0.165
-564.573	800.000	-0.041	-0.130
-563.558	308.839	0.164	0.306
-562.544	87.754	-0.085	0.095
-561.529	-75.330	0.110	0.039
-560.515	41.631	-0.240	-0.218
-559.500	185.341	-0.129	0.192
-558.485	576.093	0.140	-0.342
-557.471	-200.000	0.022	-0.239
-556.456	-200.000	-0.036	-0.175
-555.442	-62.927	-0.226	0.093
-554.427	-1.845	-0.121	0.085
-553.412	-38.093	-0.146	-0.078
-552.398	-19.364	-0.089	0.055
-551.383	175.165	-0.146	-0.211
-550.369	200.343	-0.183	-0.281
-549.354	800.000	-0.048	-0.170
-548.339	144.722	-0.081	0.109
-547.325	-200.000	0.040	0.214
-546.310	-200.000	-0.000	0.002
-545.296	-42.485	0.158	0.081
-544.281	4.246	0.237	0.174
-543.266	-149.396	-0.135	-0.011
-542.252	800.000	0.097	-0.386
-541.237	-18.035	-0.352	0.220
-540.223	336.244	0.054	-0.105
-539.208	-83.348	0.261	0.084
-538.193	-17.714	-0.291	-0.183
-537.179	-106.158	0.094	0.021
-536.164	59.122	-0.114	-0.112
-535.150	-200.000	-0.008	0.052
-534.135	-146.826	-0.143	0.012
-533.121	-200.000	-0.012	0.076
-532.106	-81.226	-0.328	0.108
-531.091	745.968	0.123	-0.331
-530.077	800.000	0.051	-0.166
-529.062	-12.113	0.064	-0.042
-528.048	-200.000	-0.002	-0.376
-527.033	184.223	-0.106	-0.156
-526.018	-128.818	0.246	0.035
-525.004	-200.000	-0.084	0.470
-523.989	-200.000	-0.029	0.287
-522.975	6.539	-0.302	-0.224
-521.960	800.000	-0.087	0.342
-520.945	151.132	-0.053	0.072
-519.931	-25.846	-0.066	0.039
-518.916	349.909	0.109	0.216
-517.902	-74.003	-0.217	0.079
-516.887	-200.000	-0.069	-0.391
-515.872	322.324	-0.169	0.321
-514.858	533.322	0.011	0.025
-513.843	-63.512	0.210	-0.086
-512.829	364.634	-0.197	-0.396
-511.814	-88.565	-0.297	-0.088
-510.799	800.000	0.046	-0.157
-509.785	216.654	0.166	-0.263
-508.770	-200.000	0.010	0.194
-507.756	-107.591	0.162	0.035
-506.741	-200.000	-0.013	-0.065
-505.726	-82.178	0.062	0.020
-504.712	122.929	0.066	0.082
-503.697	268.923	0.147	-0.257
-502.683	-172.548	-0.387	-0.012
-501.668	-112.227	-0.234	-0.047
-500.653	-127.842	0.041	-0.006
-499.639	76.578	0.264	-0.279
-498.624	-47.476	-0.340	0.165
-497.610	-200.000	0.006	-0.027
-496.595	103.058	-0.179	0.210
-495.581	-48.271	-0.214	0.103
-494.566	184.936	-0.060	0.089
-493.551	-94.415	0.314	0.085
-492.537	28.774	-0.121	-0.103
-491.522	-200.000	-0.008	-0.068
-490.508	21.250	-0.122	0.099
-489.493	-76.877	-0.027	0.009
-488.478	-83.943	-0.334	-0.106
-487.464	-90.415	0.246	0.071
-486.449	-53.460	-0.115	-0.053
-485.435	-83.975	-0.165	-0.052
-484.420	-200.000	0.020	-0.098
-483.405	-32.876	0.095	0.052
-482.391	800.000	0.076	0.332
-481.376	-149.852	-0.116	0.009
-480.362	203.694	-0.047	0.073
-479.347	-156.844	0.288	-0.018
-478.332	-26.192	-0.145	0.085
-477.318	-110.733	0.146	0.030
-476.303	9.064	0.135	0.101
-475.289	206.414	0.147	0.228
-474.274	-200.000	-0.024	0.366
-473.259	-25.248	0.145	0.085
-472.245	-110.549	0.261	0.054
-471.230	-200.000	0.021	0.102
-470.216	167.277	-0.223	-0.316
-469.201	800.000	0.070	0.231
-468.186	-39.969	0.234	0.122
-467.172	53.711	-0.043	0.041
-466.157	-173.258	-0.446	-0.014
-465.143	192.851	0.127	-0.192
-464.128	2.026	0.309	0.222
-463.113	-29.709	-0.177	0.101
-462.099	-12.806	0.200	0.130
-461.084	-64.473	-0.430	0.174
-460.070	-53.466	-0.288	0.131
-459.055	-27.938	-0.246	0.142
-458.040	114.929	0.068	-0.083
-457.026	-129.407	0.085	0.012
-456.011	-56.297	0.388	0.172
-454.997	219.606	0.167	0.267
-453.982	-25.287	0.171	0.101
-452.968	92.879	0.226	0.254
-451.953	-47.089	-0.104	0.051
-450.938	-81.254	0.302	0.099
-449.924	-21.732	0.074	-0.045
-448.909	113.490	-0.158	-0.191
-447.895	-4.398	-0.156	-0.108
-446.880	35.596	-0.187	-0.164
-445.865	-84.651	0.362	0.114
-444.851	800.000	0.068	0.194
-443.836	-139.900	0.171	-0.018
-442.822	760.229	0.077	0.209
-441.807	-111.048	-0.046	-0.009
-440.792	800.000	0.044	0.147
-439.778	32.471	-0.158	-0.136
-438.763	800.000	-0.054	0.211
-437.749	186.087	0.089	-0.131
-436.734	-167.081	0.201	-0.008
-435.719	156.516	-0.239	0.328
-434.705	-110.929	0.234	0.048
-433.690	800.000	0.085	0.258
-432.676	-200.000	-0.007	-0.199
-431.661	-200.000	-0.026	-0.161
-430.646	38.758	0.171	-0.152
-429.632	-46.921	0.194	0.094
-428.617	30.412	-0.196	-0.167
-427.603	56.968	0.048	0.047
-426.588	109.809	-0.076	-0.091
-425.573	84.383	-0.220	-0.239
-424.559	111.145	-0.141	-0.170
-423.544	-200.000	0.001	-0.269
-422.530	-45.151	0.169	0.084
-421.515	-93.446	-0.139	0.038
-420.500	-125.636	0.152	-0.023
-419.486	178.696	0.020	-0.029
-418.471	-118.586	0.123	0.022
-417.457	-163.093	0.299	0.014
-416.442	46.823	0.205	0.189
-415.428	56.535	0.093	-0.090
-414.413	-56.568	-0.387	0.171
-413.398	-190.249	0.050	0.001
-412.384	-20.311	-0.104	0.064
-411.369	-18.466	0.196	0.122
-410.355	121.832	0.120	-0.149
-409.340	-20.771	0.365	0.223
-408.325	741.137	0.085	-0.227
-407.311	265.894	0.143	-0.247
-406.296	-103.440	0.564	-0.132
-405.282	800.000	0.155	-0.426
-404.267	-118.466	-0.258	-0.045
-403.252	-84.068	-0.215	0.068
-402.238	167.361	0.074	-0.105
-401.223	-120.286	0.321	-0.055
-400.209	-169.878	-0.058	0.002
-399.194	-200.000	0.119	-0.529
-398.179	-3.639	-0.194	-0.134
-397.165	800.000	0.038	-0.144
-396.150	800.000	0.053	-0.193
-395.136	-92.388	0.410	-0.115
-394.121	789.042	-0.141	-0.385
-393.106	295.312	0.080	-0.146
-392.092	800.000	0.071	-0.282
-391.077	-200.000	0.038	-0.230
-390.063	-144.854	-0.096	-0.009
-389.048	-54.968	-0.274	0.123
-388.033	-45.852	-0.376	0.185
-387.019	254.244	0.050	0.085
-386.004	197.101	-0.147	-0.224
-384.990	-17.479	-0.157	0.098
-383.975	-36.938	-0.166	0.088
-382.960	800.000	0.061	0.255
-381.946	62.354	0.188	0.186
-380.931	-200.000	-0.060	-0.407
-379.917	800.000	0.131	0.376
-378.902	569.853	0.057	0.139
-377.888	-57.004	-0.170	0.075
-376.873	-65.853	0.129	-0.051
-375.858	734.710	-0.097	-0.258
-374.844	-200.000	0.022	0.096
-373.829	-24.969	-0.065	0.038
-372.815	22.839	-0.097	0.079
-371.800	120.384	0.228	-0.281
-370.785	137.462	-0.136	-0.177
-369.771	213.182	-0.196	-0.307
-368.756	247.582	0.087	0.146
-367.742	409.686	-0.080	0.169
-366.727	-1.675	0.125	-0.087
-365.712	-200.000	0.036	0.232
-364.698	259.322	0.072	0.123
-363.683	-200.000	0.044	0.478
-362.669	196.512	-0.153	-0.232
-361.654	-200.000	0.006	0.037
-360.639	85.693	-0.185	0.202
-359.625	-200.000	0.000	0.261
-358.610	-49.296	-0.239	0.113
-357.596	-18.603	-0.153	0.095
-356.581	-130.663	-0.177	-0.024
-355.566	-200.000	0.268	0.001
-354.552	142.714	-0.073	-0.096
-353.537	633.962	-0.054	0.136
-352.523	27.545	0.193	-0.161
-351.508	-200.000	-0.002	0.196
-350.493	123.855	-0.077	0.096
-349.479	19.340	0.276	0.220
-348.464	122.983	-0.150	-0.186
-347.450	-200.000	-0.023	-0.118
-346.435	177.260	-0.001	0.001
-345.420	800.000	0.113	-0.385
-344.406	-140.527	0.094	-0.010
-343.391	-7.373	-0.265	0.178
-342.377	-56.225	0.078	-0.034
-341.362	-200.000	0.017	-0.162
-340.348	-121.018	-0.242	0.040
-339.333	800.000	0.086	0.287
-338.318	-200.000	-0.050	-0.308
-337.304	336.206	0.063	0.121
-336.289	10.901	0.249	0.189
-335.275	-200.000	-0.007	-0.038
-334.260	-10.696	0.268	-0.176
-333.245	400.582	-0.061	0.127
-332.231	190.081	-0.112	-0.166
-331.216	-200.000	0.039	-0.265
-330.202	55.095	0.125	-0.120
-329.187	-94.222	0.215	-0.058
-328.172	-95.108	-0.082	0.022
-327.158	-82.426	0.074	-0.024
-326.143	-85.572	0.374	0.115
-325.129	7.074	-0.049	-0.036
-324.114	-200.000	0.048	-0.457
-323.099	81.316	-0.035	-0.037
-322.085	641.031	0.111	-0.281
-321.070	-81.039	0.006	-0.002
-320.056	-81.863	-0.371	0.120
-319.041	800.000	-0.059	0.189
-318.026	119.812	0.170	-0.209
-317.012	260.549	-0.055	-0.094
-315.997	362.911	0.080	0.158
-314.983	-0.325	0.208	-0.147
-313.968	-52.070	-0.056	-0.026
-312.953	-136.811	0.143	-0.016
-311.939	-34.680	-0.104	-0.056
-310.924	-200.000	0.007	0.100
-309.910	285.360	0.073	0.130
-308.895	-200.000	0.044	-0.233
-307.880	-12.101	0.119	-0.077
-306.866	-24.685	-0.313	-0.185
-305.851	-81.189	0.177	-0.058
-304.837	142.943	-0.241	0.317
-303.822	-141.027	-0.297	-0.030
-302.807	-49.273	0.381	-0.180
-301.793	-200.000	-0.007	-0.135
-300.778	-174.393	-0.197	0.006
-299.764	800.000	0.052	-0.212
-298.749	259.340	-0.066	-0.112
-297.735	-72.372	0.261	0.096
-296.720	800.000	0.072	0.292
-295.705	-88.762	-0.405	0.119
-294.691	-200.000	-0.014	-0.123
-293.676	314.226	-0.132	-0.245
-292.662	-57.144	-0.309	-0.135
-291.647	-55.217	-0.242	0.108
-290.632	173.756	-0.202	-0.289
-289.618	252.460	0.096	0.162
-288.603	800.000	0.056	-0.200
-287.589	-15.081	-0.147	-0.094
-286.574	-27.952	0.161	0.092
-285.559	29.163	-0.037	0.031
-284.545	6.414	0.084	0.062
-283.530	163.695	0.110	0.153
-282.516	250.601	-0.131	0.220
-281.501	-87.653	0.066	0.020
-280.486	35.980	-0.113	0.099
-279.472	-137.727	-0.062	-0.007
-278.457	142.341	0.205	0.270
-277.443	-200.000	0.198	-0.001
-276.428	107.526	0.241	-0.284
-275.413	-97.531	0.367	-0.094
-274.399	94.938	-0.135	-0.152
-273.384	-92.503	0.024	0.007
-272.370	54.183	0.220	-0.209
-271.355	-200.000	-0.018	-0.146
-270.340	51.886	0.222	-0.209
-269.326	-200.000	-0.009	0.066
-268.311	-52.399	-0.127	-0.058
-267.297	-81.040	-0.049	-0.016
-266.282	800.000	-0.096	0.274
-265.267	38.697	-0.132	-0.117
-264.253	427.504	-0.099	-0.212
-263.238	234.799	0.123	-0.201
-262.224	-200.000	-0.028	-0.309
-261.209	-87.710	-0.175	-0.052
-260.195	9.463	0.284	0.213
-259.180	0.342	0.187	0.132
-258.165	-109.926	0.222	-0.046
-257.151	-95.473	-0.236	0.063
-256.136	-129.582	0.374	-0.051
-255.122	-200.000	0.045	-0.217
-254.107	46.574	-0.207	0.190
-253.092	800.000	0.059	0.202
-252.078	4.858	0.235	0.171
-251.063	-200.000	-0.018	-0.283
-250.049	75.593	-0.191	-0.199
-249.034	21.224	0.128	0.103
-248.019	-42.415	-0.286	0.144
-247.005	-95.368	-0.452	0.120
-245.990	800.000	-0.024	0.092
-244.976	-173.305	-0.201	0.006
-243.961	87.925	0.202	0.221
-242.946	224.277	-0.099	0.158
-241.932	59.837	0.251	0.245
-240.917	122.400	0.136	-0.168
-239.903	302.489	-0.112	0.206
-238.888	-56.061	-0.145	0.064
-237.873	287.124	-0.131	0.234
-236.859	-200.000	0.057	0.334
-235.844	47.656	-0.082	0.076
-234.830	-98.312	-0.135	-0.034
-233.815	800.000	0.081	0.316
-232.800	-141.997	-0.392	-0.039
-231.786	32.773	0.360	-0.308
-230.771	-200.000	0.035	-0.292
-229.757	468.786	-0.030	0.066
-228.742	800.000	-0.044	-0.187
-227.727	800.000	-0.099	-0.304
-226.713	405.870	0.135	-0.282
-225.698	-35.910	0.266	-0.142
-224.684	800.000	-0.023	0.098
-223.669	504.737	0.023	0.052
-222.655	114.047	0.099	0.119
-221.640	-126.093	0.193	-0.029
-220.625	28.856	-0.087	-0.073
-219.611	326.028	-0.040	-0.076
-218.596	102.001	-0.146	0.168
-217.582	165.569	0.086	-0.120
-216.567	-200.000	0.014	-0.069
-215.552	800.000	0.059	-0.194
-214.538	-102.444	-0.135	-0.032
-213.523	800.000	-0.024	-0.072
-212.509	800.000	-0.120	-0.374
-211.494	-200.000	0.051	0.258
-210.479	48.751	0.089	0.083
-209.465	-33.845	0.305	-0.166
-208.450	-82.461	0.140	0.045
-207.436	34.437	0.198	-0.171
-206.421	599.368	0.053	0.129
-205.406	-56.891	-0.087	-0.038
-204.392	87.989	0.300	-0.328
-203.377	-200.000	0.101	-0.461
-202.363	-70.481	-0.113	-0.042
-201.348	-200.000	0.004	0.283
-200.333	448.507	0.149	0.325
-199.319	-200.000	-0.012	0.351
-198.304	-132.104	-0.212	-0.027
-197.290	-139.292	0.154	-0.016
-196.275	-200.000	-0.017	0.169
-195.260	-200.000	0.031	0.247
-194.246	75.785	-0.058	-0.060
-193.231	357.938	0.084	0.166
-192.217	149.579	-0.050	-0.066
-191.202	131.602	0.053	-0.068
-190.187	40.390	0.339	-0.301
-189.173	371.005	-0.118	0.236
-188.158	-103.662	0.155	-0.036
-187.144	81.899	-0.171	0.183
-186.129	-109.591	-0.252	-0.052
-185.114	800.000	0.039	-0.141
-184.100	31.783	-0.128	0.108
-183.085	539.531	0.076	-0.178
-182.071	-149.677	0.103	0.008
-181.056	125.516	-0.150	-0.186
-180.042	800.000	0.097	0.345
-179.027	4.548	0.118	-0.085
-178.012	-200.000	-0.049	0.218
-176.998	-200.000	-0.014	0.272
-175.983	179.564	-0.152	0.220
-174.969	-30.567	-0.224	-0.125
-173.954	134.809	0.126	-0.162
-172.939	-200.000	-0.074	0.386
-171.925	-32.795	-0.377	0.206
-170.910	-96.085	-0.018	-0.005
-169.896	228.776	0.052	-0.083
-168.881	3.697	0.051	0.037
-167.866	-83.304	-0.177	0.056
-166.852	-101.604	0.198	0.047
-165.837	-131.415	0.251	-0.033
-164.823	800.000	0.011	-0.043
-163.808	328.419	-0.138	-0.261
-162.793	-200.000	-0.003	0.539
-161.779	-200.000	0.011	0.368
-160.764	21.151	-0.264	0.211
-159.750	539.940	-0.152	-0.357
-158.735	161.730	-0.187	-0.257
-157.720	-200.000	0.031	0.147
-156.706	86.665	0.120	-0.130
-155.691	-200.000	-0.015	0.137
-154.677	-166.716	-0.277	0.011
-153.662	-147.208	-0.155	0.013
-152.647	-131.435	-0.099	0.013
-151.633	-126.558	0.468	-0.068
-150.618	-200.000	-0.002	-0.042
-149.604	-200.000	-0.020	0.091
-148.589	-162.207	0.166	0.008
-147.574	-16.928	0.019	0.012
-146.560	-200.000	0.017	0.211
-145.545	-140.277	0.051	0.005
-144.531	264.183	-0.269	0.461
-143.516	213.627	-0.073	-0.113
-142.502	70.404	-0.082	-0.083
-141.487	184.269	-0.194	0.283
-140.472	-189.814	-0.132	0.001
-139.458	-117.068	-0.282	0.051
-138.443	75.050	-0.222	-0.230
-137.429	134.906	-0.150	-0.191
-136.414	123.947	0.172	0.212
-135.399	88.793	0.088	0.097
-134.385	-68.892	-0.216	-0.082
-133.370	-1.228	0.139	0.096
-132.356	800.000	-0.048	-0.137
-131.341	-7.476	0.148	-0.098
-130.326	-98.743	-0.091	0.023
-129.312	279.800	-0.168	0.296
-128.297	-200.000	0.010	0.048
-127.283	-57.617	-0.125	-0.054
-126.268	1.158	0.241	0.171
-125.253	471.163	0.214	0.474
-124.239	800.000	0.034	-0.143
-123.224	-95.989	0.245	0.064
-122.210	470.645	0.195	0.431
-121.195	-200.000	0.048	-0.285
-120.180	-121.768	-0.141	0.023
-119.166	13.199	-0.095	0.073
-118.151	234.296	-0.212	0.344
-117.137	-29.488	-0.176	0.099
-116.122	-200.000	-0.033	-0.157
-115.107	19.941	0.216	-0.171
-114.093	-80.962	-0.081	-0.026
-113.078	-200.000	0.014	-0.071
-112.064	16.550	0.094	-0.073
-111.049	-153.321	0.293	-0.020
-110.034	800.000	0.071	-0.217
-109.020	58.519	-0.255	0.246
-108.005	31.979	0.304	-0.258
-106.991	800.000	0.077	-0.275
-105.976	64.167	-0.145	0.144
-104.962	48.190	-0.104	-0.096
-103.947	-90.808	0.365	-0.103
-102.932	-200.000	0.026	0.236
-101.918	800.000	0.070	0.210
-100.903	-169.256	0.379	0.014
-99.889	-200.000	-0.001	0.290
-98.874	78.867	0.112	-0.117
-97.859	26.516	-0.156	-0.129
-96.845	661.215	-0.060	0.151
-95.830	359.630	-0.128	-0.252
-94.816	-49.259	-0.231	-0.108
-93.801	-200.000	-0.055	0.346
-92.786	-200.000	0.042	0.235
-91.772	26.839	0.127	-0.104
-90.757	102.381	0.124	0.143
-89.743	-200.000	0.052	-0.289
-88.728	-182.405	0.141	-0.003
-87.713	-80.671	0.403	0.132
-86.699	800.000	-0.049	-0.157
-85.684	69.703	0.277	0.281
-84.670	-25.575	0.091	-0.053
-83.655	173.985	-0.112	-0.159
-82.640	-200.000	-0.013	-0.319
-81.626	-200.000	-0.053	-0.239
-80.611	-102.015	-0.273	-0.065
-79.597	-36.578	-0.308	0.163
-78.582	159.079	-0.138	-0.188
-77.567	-1.132	-0.040	0.028
-76.553	800.000	-0.055	0.161
-75.538	82.583	0.117	0.124
-74.524	139.657	-0.284	0.367
-73.509	324.035	-0.028	-0.052
-72.494	-49.368	-0.292	-0.137
-71.480	107.314	0.194	0.227
-70.465	-79.526	-0.077	0.026
-69.451	-200.000	0.050	0.344
-68.436	-149.072	0.342	0.027
-67.422	-132.830	-0.143	-0.018
-66.407	-200.000	0.036	-0.224
-65.392	-81.048	0.121	-0.039
-64.378	800.000	-0.095	0.316
-63.363	-56.814	0.229	0.099
-62.349	-110.131	-0.259	-0.053
-61.334	187.474	-0.744	-1.090
-60.319	321.485	0.317	0.592
-59.305	-200.000	-0.078	-0.775
-58.290	65.005	1.025	1.016
-57.276	310.363	0.810	1.489
-56.261	-200.000	99.756	583.566
-55.246	510.947	1407.387	3213.562
-54.232	157.254	2587.081	3511.610
-53.217	104.316	2270.021	2621.124
-52.203	40.237	1893.404	1670.875
-51.188	34.240	1684.118	1440.925
-50.173	31.633	1640.428	1384.236
-49.159	49.342	1689.684	1559.084
-48.144	50.955	1706.564	1586.701
-47.130	33.941	1666.209	1423.134
-46.115	31.368	1651.648	1391.514
-45.100	31.098	1647.627	1386.064
-44.086	31.122	1644.852	1383.854
-43.071	31.065	1642.143	1381.099
-42.057	31.010	1639.667	1378.557
-41.042	31.093	1637.403	1377.207
-40.027	31.019	1635.802	1375.263
-39.013	31.055	1633.753	1373.748
-37.998	30.922	1632.849	1371.954
-36.984	31.066	1631.311	1371.669
-35.969	31.113	1629.809	1370.698
-34.954	31.166	1628.378	1369.823
-33.940	31.125	1626.641	1368.007
-32.925	31.103	1624.719	1366.182
-31.911	31.178	1622.814	1365.071
-30.896	31.163	1621.555	1363.848
-29.881	31.151	1619.712	1362.156
-28.867	31.123	1618.199	1360.625
-27.852	31.133	1616.758	1359.430
-26.838	31.162	1615.285	1358.349
-25.823	31.180	1614.177	1357.493
-24.809	31.150	1612.702	1355.983
-23.794	31.216	1611.202	1355.152
-22.779	31.148	1609.902	1353.508
-21.765	31.143	1608.255	1352.033
-20.750	31.129	1606.116	1350.083
-19.736	31.245	1604.720	1349.694
-18.721	31.219	1603.343	1348.296
-17.706	31.104	1602.335	1346.559
-16.692	31.140	1600.286	1345.042
-15.677	31.156	1599.341	1344.317
-14.663	31.140	1598.137	1343.134
-13.648	31.197	1596.571	1342.173
-12.633	31.174	1595.043	1340.673
-11.619	31.215	1593.397	1339.529
-10.604	31.113	1592.376	1337.886
-9.590	31.197	1590.823	1337.128
-8.575	31.160	1589.641	1335.817
-7.560	31.140	1588.452	1334.624
-6.546	31.210	1587.430	1334.209
-5.531	31.194	1586.103	1332.925
-4.517	31.170	1585.220	1331.962
-3.502	31.155	1584.127	1330.882
-2.487	31.140	1582.700	1329.525
-1.473	30.806	1570.884	1317.188
-0.458	28.026	1551.186	1281.165
0.556	22.484	1552.686	1249.032
1.571	20.125	1576.174	1250.810
2.586	19.693	1588.831	1257.600
3.600	17.811	1537.291	1203.437
4.615	9.884	1427.609	1065.352
5.629	1.946	1361.827	966.047
6.644	0.161	1353.648	948.911
7.659	0.048	1352.612	947.388
8.673	0.030	1351.569	946.464
9.688	0.042	1349.205	944.800
10.702	-0.081	1346.545	942.081
11.717	3.562	1352.756	969.256
12.731	12.355	1365.903	1034.157
13.746	17.453	1373.082	1071.684
14.761	17.227	1371.591	1069.003
15.775	16.147	1368.842	1059.984
16.790	15.143	1366.060	1051.436
17.804	14.305	1363.535	1044.144
18.819	14.010	1362.220	1041.200
19.834	13.699	1361.438	1038.559
20.848	13.542	1360.009	1036.399
21.863	13.313	1358.350	1033.609
22.877	13.193	1357.146	1031.851
23.892	13.138	1356.422	1030.866
24.907	13.095	1355.207	1029.584
25.921	13.121	1354.618	1029.211
26.936	13.093	1353.888	1028.390
27.950	13.255	1352.757	1028.448
28.965	13.154	1352.019	1027.164
29.980	13.268	1350.923	1026.950
30.994	13.352	1350.101	1026.757
32.009	13.365	1349.370	1026.191
33.023	13.388	1348.174	1025.335
34.038	13.303	1346.775	1023.655
35.053	13.308	1345.554	1022.663
36.067	13.267	1344.473	1021.500
37.082	13.205	1343.618	1020.377
38.096	13.364	1342.872	1020.703
39.111	13.220	1342.217	1019.227
40.126	13.316	1341.128	1018.900
41.140	13.146	1340.503	1017.291
42.155	13.138	1340.353	1017.036
43.169	13.097	1340.137	1016.530
44.184	13.075	1339.889	1016.115
45.199	13.178	1338.963	1015.958
46.213	13.218	1338.512	1015.768
47.228	13.259	1337.616	1015.248
48.242	13.183	1336.653	1013.961
49.257	13.293	1334.968	1013.272
50.271	13.336	1333.670	1012.458
51.286	13.274	1332.473	1011.080
52.301	13.278	1330.901	1009.825
53.315	13.223	1330.136	1008.819
54.330	13.248	1329.234	1008.200
55.344	13.197	1327.923	1006.805
56.359	13.105	1327.087	1005.519
57.374	13.071	1326.399	1004.703
58.388	13.081	1325.807	1004.224
59.403	12.993	1325.342	1003.248
60.417	13.063	1324.461	1002.917
61.432	13.052	1323.679	1002.173
62.447	12.914	1322.425	1000.295
63.461	12.894	1321.503	999.387
64.476	12.834	1320.248	997.986
65.490	12.980	1318.947	997.797
66.505	12.942	1317.573	996.443
67.520	13.006	1316.278	995.761
68.534	13.052	1315.149	995.094
69.549	13.056	1314.123	994.258
70.563	13.001	1313.233	993.165
71.578	12.980	1311.644	991.748
72.593	12.996	1310.634	990.992
73.607	12.963	1309.905	990.157
74.622	12.900	1309.514	989.397
75.636	12.991	1308.533	989.113
76.651	12.930	1307.856	988.150
77.666	12.986	1307.372	988.031
78.680	12.988	1306.718	987.459
79.695	13.011	1305.976	986.949
80.709	13.134	1304.993	986.851
81.724	13.115	1304.065	985.950
82.739	13.116	1303.225	985.235
83.753	13.148	1302.545	984.822
84.768	13.138	1301.525	983.908
85.782	13.258	1300.036	983.405
86.797	13.198	1299.638	982.663
87.812	13.217	1297.893	981.370
88.826	13.193	1296.694	980.232
89.841	13.145	1295.757	979.152
90.855	13.143	1294.791	978.326
91.870	13.205	1293.539	977.661
92.884	13.302	1292.970	977.719
93.899	13.293	1292.091	976.911
94.914	13.353	1290.735	976.156
95.928	13.340	1290.333	975.688
96.943	13.244	1289.344	974.287
97.957	13.207	1288.939	973.679
98.972	13.270	1287.550	972.916
99.987	13.231	1286.503	971.805
101.001	13.309	1285.203	971.199
102.016	13.301	1284.406	970.459
103.030	13.270	1283.521	969.523
104.045	13.301	1282.484	968.836
105.060	13.270	1281.265	967.647
106.074	13.206	1280.029	966.254
107.089	13.093	1278.983	964.721
108.103	13.048	1277.548	963.292
109.118	12.988	1276.368	961.964
110.133	12.998	1275.501	961.283
111.147	13.183	1273.769	960.970
112.162	13.144	1272.612	959.785
113.176	13.109	1271.883	958.949
114.191	13.165	1270.891	958.440
115.206	13.201	1269.712	957.678
116.220	13.243	1268.284	956.758
117.235	13.287	1267.026	955.977
118.249	13.174	1266.708	955.002
119.264	13.187	1265.465	954.052
120.279	13.091	1264.720	952.852
121.293	13.107	1263.254	951.756
122.308	13.083	1262.202	950.743
123.322	13.017	1261.627	949.843
124.337	12.972	1260.752	948.845
125.352	13.132	1259.213	948.521
126.366	13.104	1257.637	947.090
127.381	13.122	1256.767	946.452
128.395	13.151	1255.460	945.550
129.410	13.016	1255.203	944.499
130.424	13.177	1254.219	944.600
131.439	13.189	1253.459	944.013
132.454	13.264	1252.069	943.310
133.468	13.280	1251.493	942.880
134.483	13.186	1251.090	941.958
135.497	13.177	1249.644	940.738
136.512	13.112	1248.373	939.325
137.527	13.197	1246.992	938.685
138.541	13.166	1245.673	937.435
139.556	13.214	1244.620	936.831
140.570	13.226	1243.722	936.141
141.585	13.354	1242.116	935.573
142.600	13.212	1241.296	934.072
143.614	13.348	1240.056	933.824
144.629	13.351	1239.139	933.066
145.643	13.382	1237.964	932.270
146.658	13.314	1236.807	930.936
147.673	13.290	1235.001	929.361
148.687	13.147	1234.638	928.200
149.702	13.215	1232.899	927.195
150.716	13.166	1231.722	925.953
151.731	13.248	1230.424	925.355
152.746	13.347	1228.995	924.748
153.760	13.363	1228.221	924.174
154.775	13.326	1227.497	923.342
155.789	13.443	1225.870	922.690
156.804	13.384	1225.076	921.681
157.819	13.485	1224.107	921.430
158.833	13.373	1223.651	920.385
159.848	13.556	1222.084	920.140
160.862	13.551	1221.028	919.237
161.877	13.419	1219.793	917.494
162.892	13.447	1218.699	916.747
163.906	13.386	1218.070	915.852
164.921	13.476	1216.735	915.265
165.935	13.440	1216.134	914.532
166.950	13.461	1215.331	913.965
167.964	13.448	1214.800	913.412
168.979	13.526	1214.015	913.170
169.994	13.519	1213.219	912.451
171.008	13.576	1212.473	912.126
172.023	13.490	1212.085	911.282
173.037	13.512	1211.144	910.610
174.052	13.601	1209.992	910.155
175.067	13.516	1209.087	908.929
176.081	13.478	1208.179	907.953
177.096	13.465	1207.056	906.963
178.110	13.476	1206.123	906.239
179.125	13.518	1204.939	905.499
180.140	13.560	1203.671	904.698
181.154	13.655	1202.530	904.273
182.169	13.651	1201.227	903.194
183.183	13.601	1200.406	902.227
184.198	13.690	1198.799	901.422
185.213	13.765	1198.146	901.258
186.227	13.836	1196.725	900.497
187.242	13.715	1195.970	899.193
188.256	13.807	1194.811	898.740
189.271	13.770	1193.798	897.696
190.286	13.717	1193.139	896.833
191.300	13.533	1192.429	895.227
192.315	13.537	1191.456	894.438
193.329	13.543	1190.870	893.956
194.344	13.559	1190.271	893.513
195.359	13.585	1189.642	893.099
196.373	13.549	1189.550	892.759
197.388	13.840	1188.416	893.393
198.402	13.873	1188.007	893.182
199.417	13.897	1187.220	892.644
200.432	13.974	1186.184	892.198
201.446	13.951	1185.553	891.523
202.461	13.999	1184.757	891.104
203.475	14.080	1183.421	890.451
204.490	14.080	1181.886	889.218
205.504	13.995	1180.682	887.778
206.519	14.043	1179.792	887.287
207.534	13.876	1179.062	885.768
208.548	13.976	1177.846	885.310
209.563	13.930	1177.361	884.622
210.577	14.079	1176.243	884.496
211.592	13.975	1175.498	883.305
212.607	14.095	1174.540	883.144
213.621	14.066	1174.104	882.586
214.636	14.133	1172.973	882.010
215.650	14.070	1171.700	880.643
216.665	14.140	1170.940	880.362
217.680	14.289	1169.786	880.204
218.694	14.235	1169.083	879.312
219.709	14.156	1168.608	878.461
220.723	14.241	1167.265	877.826
221.738	14.174	1167.256	877.384
222.753	14.193	1166.307	876.694
223.767	14.301	1165.562	876.628
224.782	14.271	1164.780	875.805
225.796	14.281	1164.656	875.686
226.811	14.293	1163.936	875.128
227.826	14.304	1163.170	874.533
228.840	14.381	1162.242	874.160
229.855	14.387	1161.488	873.546
230.869	14.297	1160.628	872.350
231.884	14.229	1160.013	871.455
232.899	14.189	1158.928	870.358
233.913	14.302	1158.401	870.476
234.928	14.163	1157.754	869.186
235.942	14.242	1157.095	869.024
236.957	14.350	1156.162	868.809
237.972	14.281	1155.772	868.083
238.986	14.290	1154.919	867.410
240.001	14.330	1153.941	866.807
241.015	14.401	1152.936	866.343
242.030	14.350	1152.298	865.524
243.045	14.440	1151.417	865.254
244.059	14.438	1150.700	864.627
245.074	14.481	1150.115	864.332
246.088	14.357	1149.632	863.252
247.103	14.460	1148.454	862.825
248.117	14.487	1147.742	862.352
249.132	14.582	1146.852	862.098
250.147	14.745	1146.397	862.524
251.161	14.695	1146.025	861.906
252.176	14.661	1145.277	861.093
253.190	14.832	1144.688	861.459
254.205	14.699	1144.471	860.532
255.220	14.829	1143.324	860.263
256.234	14.864	1142.445	859.704
257.249	14.806	1142.013	859.005
258.263	14.763	1141.413	858.257
259.278	14.775	1141.033	857.958
260.293	14.890	1140.314	857.931
261.307	14.941	1139.924	857.820
262.322	15.027	1138.902	857.417
263.336	14.959	1138.441	856.649
264.351	15.029	1137.693	856.364
265.366	15.018	1137.114	855.800
266.380	15.002	1136.302	855.031
267.395	14.925	1135.785	854.174
268.409	14.907	1134.915	853.352
269.424	14.843	1134.562	852.683
270.439	15.054	1133.584	852.950
271.453	15.049	1132.697	852.179
272.468	14.966	1132.052	851.195
273.482	14.983	1131.058	850.461
274.497	14.965	1130.963	850.224
275.512	14.994	1130.136	849.673
276.526	14.986	1129.199	848.854
277.541	15.002	1128.530	848.354
278.555	15.068	1128.076	848.276
279.570	15.098	1127.320	847.784
280.585	15.084	1126.394	846.940
281.599	15.275	1125.073	846.836
282.614	15.132	1124.876	845.892
283.628	15.037	1123.499	844.301
284.643	15.158	1122.151	843.824
285.657	15.208	1121.229	843.309
286.672	15.145	1120.728	842.539
287.687	15.248	1119.970	842.413
288.701	15.240	1118.954	841.531
289.716	15.176	1118.347	840.681
290.730	15.158	1117.572	839.932
291.745	15.166	1117.314	839.707
292.760	15.281	1116.613	839.680
293.774	15.267	1115.974	839.053
294.789	15.322	1115.446	838.860
295.803	15.391	1114.862	838.689
296.818	15.350	1114.457	838.109
297.833	15.372	1113.516	837.435
298.847	15.399	1112.259	836.552
299.862	15.486	1111.087	836.029
300.876	15.400	1111.103	835.540
301.891	15.431	1110.251	834.979
302.906	15.446	1109.594	834.484
303.920	15.473	1108.929	834.045
304.935	15.452	1108.727	833.713
305.949	15.563	1107.760	833.465
306.964	15.663	1106.819	833.176
307.979	15.648	1106.164	832.538
308.993	15.462	1105.597	831.116
310.008	15.560	1105.042	831.110
311.022	15.679	1103.882	830.753
312.037	15.580	1103.331	829.774
313.052	15.685	1102.232	829.392
314.066	15.513	1101.517	827.933
315.081	15.599	1100.510	827.530
316.095	15.597	1099.802	826.913
317.110	15.522	1099.210	826.023
318.125	15.545	1098.760	825.728
319.139	15.536	1097.751	824.850
320.154	15.611	1097.111	824.665
321.168	15.589	1096.800	824.250
322.183	15.632	1096.250	823.974
323.197	15.624	1095.429	823.243
324.212	15.617	1094.865	822.717
325.227	15.701	1093.932	822.351
326.241	15.689	1093.541	821.925
327.256	15.701	1092.620	821.222
328.270	15.689	1091.868	820.525
329.285	15.679	1090.907	819.678
330.300	15.685	1089.980	818.938
331.314	15.830	1089.320	819.078
332.329	15.827	1088.159	818.119
333.343	15.591	1088.267	816.981
334.358	15.845	1086.941	817.145
335.373	15.738	1086.329	816.093
336.387	15.689	1085.690	815.301
337.402	15.830	1084.587	815.084
338.416	15.985	1083.710	815.104
339.431	15.910	1083.469	814.488
340.446	15.971	1082.587	814.048
341.460	16.000	1082.093	813.742
342.475	16.049	1081.232	813.263
343.489	16.108	1079.816	812.407
344.504	16.126	1079.023	811.824
345.519	16.188	1078.408	811.591
346.533	16.206	1077.528	810.941
347.548	16.143	1077.337	810.423
348.562	16.173	1076.032	809.515
349.577	16.248	1075.191	809.172
350.592	16.080	1074.624	807.869
351.606	16.143	1074.205	807.785
352.621	16.084	1073.412	806.834
353.635	16.124	1072.819	806.506
354.650	16.204	1071.890	806.121
355.665	16.137	1071.490	805.425
356.679	16.219	1070.773	805.206
357.694	16.180	1070.275	804.575
358.708	16.338	1069.352	804.565
359.723	16.234	1068.910	803.666
360.738	16.246	1068.032	802.990
361.752	16.253	1067.584	802.618
362.767	16.322	1066.894	802.356
363.781	16.372	1066.239	802.027
364.796	16.265	1065.872	801.171
365.810	16.365	1065.506	801.301
366.825	16.459	1064.827	801.166
367.840	16.333	1064.169	800.004
368.854	16.523	1064.007	800.712
369.869	16.548	1062.766	799.821
370.883	16.514	1061.690	798.784
371.898	16.389	1061.141	797.707
372.913	16.447	1060.960	797.774
373.927	16.425	1060.267	797.081
374.942	16.441	1059.788	796.724
375.956	16.626	1058.851	796.822
376.971	16.684	1058.288	796.599
377.986	16.661	1057.838	796.084
379.000	16.568	1057.832	795.571
380.015	16.744	1057.025	795.720
381.029	16.802	1056.046	795.184
382.044	16.763	1055.465	794.496
383.059	16.724	1054.972	793.869
384.073	16.757	1053.712	793.007
385.088	16.806	1052.984	792.617
386.102	16.737	1051.977	791.468
387.117	16.653	1051.457	790.612
388.132	16.709	1050.448	790.047
389.146	16.655	1049.649	789.125
390.161	16.801	1048.545	788.902
391.175	16.672	1048.348	788.084
392.190	16.802	1047.788	788.200
393.205	16.754	1047.179	787.448
394.219	16.858	1045.968	786.952
395.234	16.789	1045.210	785.991
396.248	16.834	1044.194	785.367
397.263	16.791	1043.098	784.274
398.278	16.737	1042.748	783.690
399.292	16.716	1041.830	782.833
400.307	16.893	1041.354	783.226
401.321	16.827	1040.804	782.438
402.336	16.821	1039.661	781.481
403.350	16.837	1039.410	781.296
404.365	16.890	1038.664	780.911
405.380	16.951	1038.041	780.655
406.394	16.823	1037.808	779.821
407.409	16.982	1036.868	779.777
408.423	17.121	1035.711	779.473
409.438	16.964	1035.398	778.452
410.453	17.002	1034.592	777.951
411.467	17.024	1033.614	777.245
412.482	17.156	1033.039	777.348
413.496	17.181	1032.691	777.132
414.511	17.056	1032.077	776.033
415.526	17.285	1031.528	776.598
416.540	17.135	1031.313	775.682
417.555	17.389	1030.531	776.182
418.569	17.288	1029.805	775.108
419.584	17.212	1029.554	774.504
420.599	17.376	1029.065	774.812
421.613	102.529	1320.008	1463.612
422.628	93.802	1362.361	1463.731
