DTS Sentinel unit serial number:	SN413079Multiplexer serial number:	ORYXHardware model number:	OX4-SRSoftware version number:	ORYX F/W v4.00 Oryx Data Collector v3.7.2.0data status	okinstallation	princeton_trtdifferential loss correction	single-endedforward channel	channel 2reverse channel	N/Adate	2019/09/17time	06:07:35forward acquisition time	60.00reverse acquisition time	0.00gamma	496.2192k internal	0.2330k external	0.2330temperature offset calibration	0.9976default loss term (dB/km)	0.3790temperature slope calibration	1.0000multiplexer offset coefficient	1.0000multiplexer slope coefficient	1.0000fibre end	0.00T internal ref (°C)	28.62T ext. ref 1 (°C)	0.14T ext. ref 2 (°C)	22.19length (m)	temperature (°C)	Stokes	anti-Stokes-747.200	454.552	0.208	0.464
-746.185	64.720	0.249	0.253
-745.171	-200.000	-0.000	0.134
-744.156	-111.086	-0.238	0.049
-743.142	378.456	0.034	-0.070
-742.127	800.000	-0.133	0.403
-741.112	-112.623	0.173	-0.035
-740.098	-200.000	-0.075	0.330
-739.083	89.619	0.241	0.271
-738.069	-200.000	0.043	0.418
-737.054	342.251	-0.061	0.120
-736.039	-200.000	0.023	0.177
-735.025	213.077	-0.146	0.232
-734.010	-160.980	-0.298	0.016
-732.996	-112.558	-0.152	0.031
-731.981	-132.265	-0.229	-0.030
-730.966	-47.846	0.255	-0.124
-729.952	-74.846	-0.187	-0.067
-728.937	217.830	0.085	0.136
-727.923	4.463	-0.163	-0.120
-726.908	-84.101	-0.274	-0.087
-725.894	-4.462	0.027	-0.019
-724.879	-200.000	-0.011	-0.173
-723.864	1.274	-0.366	0.265
-722.850	-48.855	-0.253	-0.122
-721.835	707.313	-0.020	-0.054
-720.821	-76.751	0.064	-0.023
-719.806	108.501	0.221	0.266
-718.791	-200.000	0.033	0.243
-717.777	151.427	-0.117	-0.160
-716.762	105.364	-0.130	0.154
-715.748	275.367	-0.119	-0.212
-714.733	51.919	-0.057	0.055
-713.718	2.028	-0.193	-0.140
-712.704	-56.735	-0.128	-0.057
-711.689	297.853	-0.146	-0.269
-710.675	-200.000	0.014	-0.327
-709.660	705.971	-0.054	-0.143
-708.645	16.758	-0.266	-0.212
-707.631	-171.980	0.146	0.005
-706.616	-189.330	0.125	0.001
-705.602	490.143	0.193	-0.444
-704.587	-200.000	0.005	-0.078
-703.572	-200.000	0.040	0.237
-702.558	94.235	-0.068	0.078
-701.543	-140.099	0.243	0.026
-700.529	-200.000	0.006	-0.203
-699.514	285.404	-0.178	-0.323
-698.499	-36.856	0.258	-0.139
-697.485	341.081	0.053	-0.104
-696.470	513.608	-0.221	-0.519
-695.456	696.676	0.055	0.144
-694.441	-51.269	-0.209	0.098
-693.426	99.590	0.173	-0.202
-692.412	-200.000	0.000	-0.208
-691.397	162.541	-0.140	0.198
-690.383	-130.869	0.408	-0.055
-689.368	275.309	0.193	-0.345
-688.354	-200.000	-0.001	0.041
-687.339	201.827	0.166	-0.257
-686.324	-200.000	-0.010	0.084
-685.310	-45.674	0.225	-0.112
-684.295	-200.000	-0.042	0.188
-683.281	430.343	0.048	-0.105
-682.266	-137.317	-0.030	-0.003
-681.251	-200.000	0.016	0.387
-680.237	28.704	-0.180	-0.153
-679.222	-47.894	-0.168	-0.082
-678.208	723.392	0.134	0.359
-677.193	-155.428	-0.132	-0.009
-676.178	200.398	-0.116	0.179
-675.164	800.000	0.072	-0.265
-674.149	-200.000	-0.017	0.115
-673.135	-200.000	-0.055	-0.426
-672.120	-85.780	0.235	-0.073
-671.105	179.621	-0.189	0.278
-670.091	-120.255	0.372	0.064
-669.076	149.802	-0.187	-0.254
-668.062	-65.399	0.341	0.138
-667.047	-200.000	0.013	-0.196
-666.032	-200.000	-0.002	0.041
-665.018	-145.054	-0.365	0.033
-664.003	257.733	-0.036	0.063
-662.989	-149.606	-0.193	0.015
-661.974	254.472	0.121	-0.208
-660.959	-162.034	0.076	0.004
-659.945	-55.500	0.213	-0.096
-658.930	-200.000	0.017	0.345
-657.916	-136.791	-0.479	-0.055
-656.901	-39.730	-0.162	0.085
-655.886	-78.791	-0.053	0.018
-654.872	-11.666	-0.192	-0.127
-653.857	211.914	0.077	0.121
-652.843	-5.138	-0.190	-0.131
-651.828	800.000	0.061	0.215
-650.814	-165.328	0.363	-0.016
-649.799	-122.014	-0.337	-0.056
-648.784	-76.857	0.182	0.064
-647.770	-123.259	-0.173	-0.028
-646.755	33.691	-0.307	-0.268
-645.741	-96.093	0.401	-0.107
-644.726	260.275	-0.197	-0.341
-643.711	-117.718	-0.271	0.049
-642.697	-200.000	0.040	0.201
-641.682	-117.967	-0.416	-0.075
-640.668	-184.543	0.256	0.004
-639.653	-28.311	-0.268	0.155
-638.638	33.187	0.137	-0.119
-637.624	11.077	-0.308	-0.236
-636.609	-200.000	0.015	0.088
-635.595	271.640	-0.047	-0.083
-634.580	172.904	-0.062	0.090
-633.565	-200.000	0.012	0.272
-632.551	106.999	-0.127	-0.152
-631.536	-200.000	0.006	0.033
-630.522	461.259	-0.155	0.345
-629.507	-108.941	-0.085	-0.018
-628.492	-27.196	-0.158	-0.092
-627.478	-200.000	0.041	-0.234
-626.463	-200.000	0.015	-0.074
-625.449	381.982	0.057	0.118
-624.434	-116.873	0.155	0.028
-623.419	173.488	-0.147	0.213
-622.405	409.208	-0.089	0.190
-621.390	-12.849	-0.159	-0.103
-620.376	-200.000	0.006	0.072
-619.361	478.336	-0.046	-0.103
-618.346	-200.000	-0.028	-0.391
-617.332	-200.000	-0.012	0.071
-616.317	388.939	0.077	0.160
-615.303	-200.000	-0.007	-0.144
-614.288	192.686	-0.117	0.177
-613.273	-185.562	-0.010	-0.000
-612.259	-200.000	-0.068	-0.485
-611.244	-84.872	-0.219	-0.069
-610.230	-200.000	-0.037	-0.178
-609.215	422.884	-0.115	0.248
-608.201	521.583	-0.060	0.142
-607.186	800.000	0.071	-0.237
-606.171	-66.329	0.076	-0.030
-605.157	-84.246	-0.042	0.013
-604.142	-89.947	-0.142	-0.041
-603.128	39.350	0.249	0.223
-602.113	-124.540	-0.217	0.034
-601.098	275.533	-0.084	-0.149
-600.084	-200.000	0.066	-0.359
-599.069	105.397	-0.058	0.069
-598.055	281.888	0.102	-0.183
-597.040	-50.603	0.223	0.105
-596.025	54.255	-0.278	-0.267
-595.011	-200.000	0.050	0.291
-593.996	800.000	-0.079	0.330
-592.982	-30.071	-0.040	0.023
-591.967	800.000	-0.021	0.063
-590.952	-200.000	0.016	0.442
-589.938	-56.234	0.143	0.064
-588.923	106.732	-0.208	-0.247
-587.909	92.794	0.059	-0.066
-586.894	13.645	0.031	0.024
-585.879	109.807	-0.269	0.323
-584.865	800.000	-0.028	0.079
-583.850	-138.681	0.126	-0.014
-582.836	296.496	-0.127	-0.233
-581.821	106.870	0.091	0.108
-580.806	-110.747	-0.057	0.012
-579.792	-200.000	0.006	0.058
-578.777	9.940	-0.186	-0.141
-577.763	800.000	0.077	-0.234
-576.748	-186.850	-0.297	0.004
-575.733	800.000	-0.046	-0.177
-574.719	800.000	-0.071	-0.293
-573.704	-200.000	-0.037	0.212
-572.690	126.817	0.099	-0.126
-571.675	-80.022	0.163	-0.055
-570.661	63.000	-0.075	0.075
-569.646	-127.069	0.052	-0.008
-568.631	-200.000	0.034	-0.199
-567.617	771.655	0.055	-0.151
-566.602	253.123	0.185	-0.315
-565.588	-169.969	-0.233	-0.008
-564.573	-28.888	-0.220	0.126
-563.558	286.264	0.183	-0.330
-562.544	251.406	-0.150	0.254
-561.529	800.000	0.034	0.109
-560.515	-200.000	0.016	0.203
-559.500	-77.538	0.155	-0.054
-558.485	178.665	0.150	0.219
-557.471	800.000	0.151	0.488
-556.456	-200.000	0.023	0.226
-555.442	99.256	0.109	-0.126
-554.427	-200.000	-0.019	-0.300
-553.412	-142.148	-0.130	-0.013
-552.398	-3.315	0.170	-0.118
-551.383	-70.203	0.148	0.056
-550.369	-200.000	0.040	0.193
-549.354	602.799	-0.066	0.164
-548.339	800.000	-0.075	-0.245
-547.325	775.589	-0.083	0.227
-546.310	34.192	0.195	0.170
-545.296	-200.000	-0.033	-0.239
-544.281	87.873	-0.114	0.127
-543.266	12.211	-0.286	-0.220
-542.252	-57.604	0.118	-0.052
-541.237	20.806	-0.260	0.210
-540.223	800.000	0.105	-0.308
-539.208	60.274	-0.103	-0.102
-538.193	343.851	0.030	0.058
-537.179	-150.406	0.128	0.010
-536.164	525.507	-0.182	-0.428
-535.150	-51.702	0.259	-0.120
-534.135	800.000	0.125	-0.433
-533.121	-115.770	-0.237	0.044
-532.106	-39.781	-0.145	0.076
-531.091	204.333	0.202	0.313
-530.077	-200.000	0.015	0.188
-529.062	-200.000	0.085	0.000
-528.048	-67.454	-0.265	0.104
-527.033	-19.564	0.368	-0.227
-526.018	-102.224	0.468	-0.112
-525.004	800.000	-0.154	-0.518
-523.989	-6.342	-0.394	-0.268
-522.975	-45.045	-0.031	-0.015
-521.960	739.108	-0.144	-0.387
-520.945	748.527	0.083	0.223
-519.931	-90.801	-0.320	-0.092
-518.916	-12.616	0.118	-0.077
-517.902	-61.509	-0.006	-0.002
-516.887	237.875	-0.063	-0.104
-515.872	-200.000	-0.046	-0.291
-514.858	800.000	-0.028	-0.101
-513.843	120.455	0.170	0.211
-512.829	173.671	0.048	-0.069
-511.814	-163.551	0.226	0.011
-510.799	-138.212	-0.130	-0.014
-509.785	-50.143	0.320	-0.151
-508.770	45.467	0.181	0.167
-507.756	163.795	0.167	0.234
-506.741	-32.758	0.101	-0.056
-505.726	-80.507	-0.317	-0.105
-504.712	-20.104	0.403	0.248
-503.697	-38.043	-0.228	0.121
-502.683	-94.866	-0.069	0.019
-501.668	-42.973	0.346	0.175
-500.653	-100.217	-0.111	0.027
-499.639	-58.960	-0.138	-0.060
-498.624	-200.000	-0.009	0.164
-497.610	-17.036	0.426	0.268
-496.595	-80.740	-0.137	-0.045
-495.581	-28.621	-0.180	-0.103
-494.566	11.105	0.081	-0.062
-493.551	246.747	-0.046	0.077
-492.537	-146.229	-0.095	-0.008
-491.522	-200.000	0.010	-0.287
-490.508	152.362	-0.150	-0.205
-489.493	188.765	0.026	-0.038
-488.478	184.299	0.146	-0.215
-487.464	125.746	-0.148	0.187
-486.449	125.586	0.164	-0.206
-485.435	10.602	0.090	0.068
-484.420	55.225	-0.120	0.115
-483.405	-22.171	-0.294	0.178
-482.391	-60.267	-0.056	0.024
-481.376	-130.626	0.193	0.026
-480.362	-200.000	-0.004	-0.162
-479.347	125.130	0.018	-0.023
-478.332	35.996	-0.191	0.167
-477.318	-9.722	-0.196	0.130
-476.303	800.000	0.051	0.196
-475.289	-93.090	-0.218	-0.060
-474.274	-189.855	0.039	-0.000
-473.259	87.252	-0.106	-0.117
-472.245	-51.903	0.021	0.010
-471.230	85.013	0.112	0.122
-470.216	-96.596	-0.364	-0.096
-469.201	-200.000	0.014	0.064
-468.186	65.532	-0.155	0.157
-467.172	-12.010	0.233	0.152
-466.157	-200.000	0.019	0.100
-465.143	-200.000	-0.009	0.185
-464.128	80.109	0.151	0.162
-463.113	12.073	-0.201	0.154
-462.099	-156.280	-0.133	0.008
-461.084	-99.144	-0.134	-0.034
-460.070	-200.000	-0.055	0.251
-459.055	-200.000	-0.034	0.298
-458.040	-78.966	-0.142	-0.048
-457.026	-80.705	0.160	-0.053
-456.011	-5.750	0.109	0.075
-454.997	210.708	-0.093	-0.145
-453.982	30.182	-0.139	0.118
-452.968	195.231	-0.132	-0.200
-451.953	-146.066	-0.068	0.006
-450.938	-200.000	0.010	0.070
-449.924	-50.211	0.216	0.101
-448.909	-200.000	0.040	0.220
-447.895	-200.000	0.032	-0.160
-446.880	-151.993	-0.321	0.023
-445.865	-131.608	-0.175	-0.023
-444.851	243.607	0.096	0.160
-443.836	79.726	0.077	-0.082
-442.822	-89.400	0.167	0.049
-441.807	-51.322	0.087	0.041
-440.792	-200.000	0.022	0.110
-439.778	-131.644	0.098	-0.013
-438.763	-107.964	-0.012	0.003
-437.749	-56.497	-0.186	0.082
-436.734	-200.000	0.007	0.043
-435.719	-137.545	-0.291	0.033
-434.705	-145.588	-0.195	0.017
-433.690	16.946	-0.169	0.133
-432.676	-200.000	0.054	0.286
-431.661	800.000	-0.097	-0.293
-430.646	-200.000	0.030	-0.341
-429.632	67.264	-0.132	0.133
-428.617	800.000	-0.059	0.234
-427.603	-102.577	0.202	-0.048
-426.588	-15.285	0.154	0.098
-425.573	32.771	0.158	0.136
-424.559	-200.000	0.030	0.222
-423.544	-200.000	-0.023	0.132
-422.530	35.177	-0.228	0.198
-421.515	-95.220	-0.253	-0.068
-420.500	-8.315	-0.035	-0.023
-419.486	111.163	0.131	-0.157
-418.471	27.849	0.132	-0.111
-417.457	-200.000	0.029	-0.154
-416.442	35.757	-0.040	0.035
-415.428	-109.967	-0.324	0.067
-414.413	800.000	0.067	-0.202
-413.398	338.805	-0.107	-0.208
-412.384	111.900	-0.064	-0.076
-411.369	8.104	-0.282	-0.210
-410.355	380.163	-0.089	0.181
-409.340	-73.151	0.134	0.049
-408.325	-93.157	0.034	0.009
-407.311	-59.827	0.530	-0.226
-406.296	163.543	0.108	-0.150
-405.282	17.550	0.151	0.120
-404.267	96.587	0.043	-0.048
-403.252	-86.519	-0.337	-0.103
-402.238	-61.578	0.155	-0.065
-401.223	-6.481	0.137	-0.093
-400.209	1.314	0.071	-0.051
-399.194	-106.425	-0.225	0.050
-398.179	-41.852	0.179	-0.091
-397.165	275.175	-0.061	-0.108
-396.150	-172.661	0.290	-0.009
-395.136	-8.242	-0.140	0.094
-394.121	-5.401	-0.221	0.151
-393.106	-69.816	-0.086	0.033
-392.092	167.163	0.179	0.253
-391.077	18.856	-0.358	0.285
-390.063	-58.538	-0.005	-0.002
-389.048	-200.000	0.054	0.308
-388.033	800.000	-0.091	-0.371
-387.019	289.467	-0.103	-0.186
-386.004	-110.178	0.313	-0.065
-384.990	-134.692	0.095	0.011
-383.975	800.000	0.092	0.266
-382.960	-90.710	0.073	0.021
-381.946	-113.172	0.331	-0.065
-380.931	-126.878	-0.567	-0.083
-379.917	-200.000	0.013	0.169
-378.902	-91.374	0.291	0.083
-377.888	-166.546	-0.079	-0.003
-376.873	129.007	0.034	-0.043
-375.858	-31.133	-0.209	0.117
-374.844	-200.000	-0.022	-0.146
-373.829	-84.711	0.253	-0.079
-372.815	800.000	0.149	-0.413
-371.800	-61.954	-0.144	-0.060
-370.785	58.427	0.059	-0.058
-369.771	-89.058	0.137	-0.040
-368.756	800.000	0.079	-0.237
-367.742	156.052	-0.097	-0.133
-366.727	494.238	0.107	-0.244
-365.712	-61.529	0.234	0.097
-364.698	-161.802	0.209	-0.011
-363.683	34.384	0.504	-0.437
-362.669	-38.051	-0.293	-0.154
-361.654	-143.411	0.246	0.023
-360.639	800.000	-0.107	0.315
-359.625	-128.925	0.377	0.053
-358.610	56.064	0.094	-0.090
-357.596	-18.639	-0.249	-0.154
-356.581	-200.000	0.019	-0.200
-355.566	-55.991	0.038	0.017
-354.552	23.075	-0.164	0.134
-353.537	-13.724	-0.096	0.062
-352.523	800.000	-0.106	-0.298
-351.508	177.068	0.322	-0.464
-350.493	-29.914	0.279	0.157
-349.479	-200.000	-0.007	0.146
-348.464	-77.368	-0.119	0.041
-347.450	-50.655	0.210	0.098
-346.435	-3.513	-0.403	-0.278
-345.420	800.000	-0.027	0.113
-344.406	-200.000	-0.014	0.179
-343.391	704.941	-0.084	0.219
-342.377	-80.974	-0.103	0.034
-341.362	-21.169	-0.318	-0.193
-340.348	-134.487	0.184	0.022
-339.333	-81.321	-0.064	0.021
-338.318	22.728	-0.140	0.114
-337.304	-144.003	0.185	-0.017
-336.289	83.237	0.208	-0.224
-335.275	-153.263	0.174	-0.012
-334.260	-115.783	-0.162	-0.030
-333.245	73.682	-0.089	-0.092
-332.231	-200.000	0.039	0.422
-331.216	-68.008	0.069	0.027
-330.202	-200.000	0.030	-0.166
-329.187	-111.509	-0.158	-0.032
-328.172	29.040	0.065	-0.054
-327.158	-200.000	0.021	0.312
-326.143	-200.000	0.011	0.080
-325.129	-5.621	-0.250	-0.170
-324.114	-93.813	0.303	0.083
-323.099	-114.782	0.443	0.084
-322.085	113.190	0.140	-0.168
-321.070	-35.535	0.274	-0.147
-320.056	-56.796	0.147	0.065
-319.041	800.000	-0.089	-0.294
-318.026	108.386	-0.148	-0.174
-317.012	167.474	0.095	-0.134
-315.997	-166.017	0.288	0.012
-314.983	-161.313	0.318	-0.016
-313.968	-26.040	-0.198	0.115
-312.953	-113.446	-0.322	-0.062
-311.939	15.189	0.295	0.229
-310.924	-161.876	0.453	-0.023
-309.910	13.306	0.256	0.196
-308.895	-97.779	-0.307	-0.079
-307.880	-36.911	-0.197	0.104
-306.866	-47.639	0.096	-0.046
-305.851	-36.486	-0.255	-0.136
-304.837	-77.170	-0.256	-0.088
-303.822	800.000	0.107	-0.338
-302.807	800.000	-0.091	0.262
-301.793	-192.392	0.224	0.002
-300.778	50.830	0.276	-0.258
-299.764	-30.890	0.028	0.016
-298.749	16.599	0.053	0.041
-297.735	800.000	0.091	0.392
-296.720	-200.000	-0.012	0.166
-295.705	68.710	-0.094	0.096
-294.691	-67.268	0.337	0.131
-293.676	537.993	0.101	0.236
-292.662	-200.000	0.023	0.157
-291.647	800.000	-0.094	-0.258
-290.632	238.399	-0.071	-0.117
-289.618	-200.000	-0.012	0.080
-288.603	-18.108	-0.180	0.112
-287.589	49.238	-0.345	0.321
-286.574	61.349	0.144	-0.142
-285.559	261.380	-0.093	0.160
-284.545	-43.917	-0.124	0.062
-283.530	-200.000	-0.038	0.283
-282.516	800.000	-0.016	0.046
-281.501	-112.643	-0.051	-0.010
-280.486	74.499	-0.044	0.045
-279.472	-112.449	0.056	-0.011
-278.457	800.000	0.093	-0.280
-277.443	-200.000	-0.014	0.278
-276.428	-59.939	-0.202	0.085
-275.413	-200.000	-0.041	0.435
-274.399	-60.916	0.107	-0.045
-273.384	17.652	-0.054	0.043
-272.370	-73.862	-0.030	0.011
-271.355	-81.431	-0.083	0.027
-270.340	147.692	0.047	-0.062
-269.326	88.368	0.115	0.126
-268.311	-59.085	0.412	-0.176
-267.297	-74.335	0.192	0.069
-266.282	-33.078	-0.041	-0.023
-265.267	-128.275	0.159	-0.022
-264.253	4.321	-0.133	0.096
-263.238	225.812	-0.069	0.110
-262.224	-27.721	0.094	0.054
-261.209	800.000	0.076	-0.233
-260.195	-200.000	-0.010	0.243
-259.180	60.602	0.275	0.269
-258.165	649.852	0.013	-0.032
-257.151	-184.965	-0.029	0.000
-256.136	156.247	-0.128	-0.174
-255.122	-128.466	-0.130	0.018
-254.107	-148.878	0.195	0.016
-253.092	-21.791	0.401	0.241
-252.078	264.933	-0.208	0.358
-251.063	64.066	-0.098	0.097
-250.049	-200.000	-0.077	0.345
-249.034	-134.038	0.339	0.041
-248.019	329.861	0.042	-0.080
-247.005	-21.453	-0.169	-0.102
-245.990	-13.283	0.296	-0.190
-244.976	98.248	-0.037	-0.043
-243.961	-200.000	0.008	0.346
-242.946	-163.703	-0.128	0.006
-241.932	-147.638	-0.161	-0.013
-240.917	800.000	0.070	-0.265
-239.903	800.000	-0.026	0.095
-238.888	800.000	0.099	-0.346
-237.873	54.995	-0.141	-0.134
-236.859	-125.354	-0.295	-0.044
-235.844	-200.000	0.024	-0.145
-234.830	121.566	0.103	-0.126
-233.815	800.000	0.046	-0.160
-232.800	-61.230	0.175	-0.073
-231.786	-200.000	0.110	0.524
-230.771	-26.160	0.208	-0.120
-229.757	800.000	-0.052	-0.221
-228.742	30.883	0.097	0.082
-227.727	213.938	-0.116	-0.181
-226.713	-126.097	0.186	-0.028
-225.698	-64.878	-0.165	-0.066
-224.684	-97.880	0.243	-0.062
-223.669	70.625	-0.179	-0.182
-222.655	8.434	-0.134	-0.100
-221.640	25.205	0.085	0.070
-220.625	-200.000	0.015	-0.107
-219.611	-8.246	-0.160	0.107
-218.596	295.663	-0.056	-0.101
-217.582	54.005	-0.153	0.145
-216.567	-36.800	-0.267	0.141
-215.552	50.695	-0.235	0.220
-214.538	37.924	0.254	-0.223
-213.523	-168.516	0.039	0.001
-212.509	-58.016	-0.289	0.124
-211.494	-36.654	0.253	0.134
-210.479	-92.979	0.322	-0.089
-209.465	-44.877	0.188	0.092
-208.450	-200.000	-0.013	-0.076
-207.436	-51.339	0.189	0.087
-206.421	108.842	-0.164	0.194
-205.406	380.292	-0.233	0.471
-204.392	-96.053	-0.149	0.039
-203.377	441.588	-0.146	-0.315
-202.363	152.868	0.223	-0.301
-201.348	88.579	0.178	0.195
-200.333	270.531	0.123	0.213
-199.319	-30.777	0.120	-0.067
-198.304	-59.374	-0.175	0.074
-197.290	-57.915	0.092	0.039
-196.275	-58.292	-0.297	0.127
-195.260	-200.000	0.066	-0.402
-194.246	800.000	-0.118	-0.351
-193.231	-119.505	0.154	0.026
-192.217	-200.000	0.017	0.161
-191.202	-31.469	0.267	0.148
-190.187	-200.000	0.010	-0.050
-189.173	-54.278	0.095	-0.042
-188.158	-127.218	0.302	-0.043
-187.144	-200.000	-0.010	-0.262
-186.129	233.015	0.123	0.200
-185.114	-200.000	0.045	-0.283
-184.100	-200.000	0.036	0.189
-183.085	-200.000	-0.018	-0.287
-182.071	12.596	0.093	0.071
-181.056	-118.025	-0.192	0.034
-180.042	125.138	-0.154	-0.191
-179.027	45.114	-0.071	-0.064
-178.012	154.699	0.113	0.153
-176.998	747.213	-0.039	0.103
-175.983	800.000	-0.047	-0.201
-174.969	-60.130	0.063	0.026
-173.954	-200.000	-0.008	-0.210
-172.939	143.814	0.172	-0.226
-171.925	-200.000	0.028	-0.131
-170.910	682.406	-0.059	0.150
-169.896	-200.000	-0.011	0.253
-168.881	-156.220	-0.180	0.011
-167.866	-44.233	0.284	0.140
-166.852	-200.000	-0.006	-0.114
-165.837	77.005	0.076	-0.080
-164.823	-200.000	0.006	0.265
-163.808	285.350	-0.127	0.225
-162.793	-91.442	-0.283	0.080
-161.779	-200.000	-0.040	0.264
-160.764	157.948	-0.111	0.152
-159.750	-200.000	-0.002	-0.066
-158.735	-83.683	-0.261	-0.082
-157.720	-104.861	0.131	-0.030
-156.706	332.270	0.177	-0.337
-155.691	490.721	-0.048	0.108
-154.677	800.000	-0.051	0.177
-153.662	75.256	0.144	0.149
-152.647	-72.394	0.046	-0.017
-151.633	467.761	0.083	-0.182
-150.618	-175.585	0.445	0.012
-149.604	-114.076	0.349	-0.066
-148.589	-38.570	-0.252	-0.131
-147.574	685.118	-0.082	-0.212
-146.560	-111.344	-0.228	0.046
-145.545	-37.534	0.265	-0.139
-144.531	-200.000	0.011	0.192
-143.516	80.679	0.199	0.211
-142.502	163.766	0.199	0.275
-141.487	188.991	-0.081	0.119
-140.472	-200.000	0.019	0.085
-139.458	-0.562	-0.117	-0.081
-138.443	-80.458	0.143	-0.047
-137.429	800.000	-0.066	-0.214
-136.414	151.777	-0.187	-0.251
-135.399	-87.332	-0.220	-0.066
-134.385	-58.749	-0.286	0.122
-133.370	325.863	0.126	0.238
-132.356	-159.873	0.253	-0.014
-131.341	-200.000	-0.032	0.205
-130.326	-13.113	0.192	-0.123
-129.312	-56.997	0.059	-0.026
-128.297	800.000	0.058	0.187
-127.283	-65.928	-0.301	0.118
-126.268	-17.961	-0.161	0.099
-125.253	-114.229	0.430	0.081
-124.239	124.436	-0.137	0.169
-123.224	280.939	0.070	-0.123
-122.210	192.000	0.177	0.262
-121.195	127.978	0.289	0.361
-120.180	-104.012	0.083	0.019
-119.166	-167.276	0.232	-0.009
-118.151	392.218	-0.164	0.335
-117.137	-200.000	-0.017	-0.082
-116.122	800.000	0.004	-0.013
-115.107	800.000	-0.079	-0.224
-114.093	800.000	0.078	0.269
-113.078	-46.651	-0.108	0.052
-112.064	-200.000	0.077	0.569
-111.049	-27.622	0.100	0.057
-110.034	90.887	0.187	0.206
-109.020	-200.000	-0.021	-0.217
-108.005	-45.605	0.110	0.054
-106.991	-159.059	0.085	-0.005
-105.976	52.038	-0.201	0.188
-104.962	-200.000	-0.041	-0.214
-103.947	-177.242	0.304	0.007
-102.932	-22.307	-0.132	-0.079
-101.918	117.658	0.161	0.195
-100.903	-101.915	0.245	-0.058
-99.889	168.700	0.050	-0.070
-98.874	4.186	-0.232	0.167
-97.859	520.915	0.137	-0.315
-96.845	-109.760	-0.195	0.040
-95.830	800.000	0.017	0.048
-94.816	-6.458	0.098	-0.065
-93.801	-200.000	-0.098	0.511
-92.786	-200.000	-0.057	0.296
-91.772	431.009	0.117	-0.248
-90.757	800.000	0.014	0.041
-89.743	171.435	0.075	0.105
-88.728	275.811	0.031	0.054
-87.713	-143.714	0.075	0.007
-86.699	-77.800	0.178	0.060
-85.684	679.643	-0.078	0.198
-84.670	800.000	-0.060	-0.199
-83.655	261.957	-0.100	-0.170
-82.640	177.814	0.079	-0.113
-81.626	149.213	-0.165	-0.219
-80.611	-200.000	-0.033	0.193
-79.597	50.914	-0.186	-0.173
-78.582	-105.093	0.131	0.029
-77.567	-200.000	-0.023	-0.225
-76.553	533.019	0.024	0.055
-75.538	-200.000	0.039	-0.225
-74.524	38.325	0.136	-0.119
-73.509	-170.687	0.149	-0.005
-72.494	-200.000	0.007	-0.069
-71.480	213.830	-0.143	-0.222
-70.465	295.944	0.056	0.101
-69.451	-200.000	-0.009	0.099
-68.436	-27.212	0.388	0.222
-67.422	800.000	0.122	-0.467
-66.407	-200.000	0.027	0.276
-65.392	-115.850	-0.187	0.034
-64.378	-200.000	-0.016	-0.223
-63.363	-37.255	0.142	0.074
-62.349	252.560	0.106	-0.177
-61.334	113.853	-1.024	-1.220
-60.319	-65.680	0.639	0.251
-59.305	383.846	-0.508	-1.025
-58.290	314.957	0.700	1.294
-57.276	448.196	0.683	1.475
-56.261	-200.000	111.896	637.815
-55.246	462.111	1509.738	3301.075
-54.232	144.654	2689.403	3521.180
-53.217	99.526	2289.359	2595.786
-52.203	37.914	1897.693	1652.834
-51.188	32.014	1685.804	1423.630
-50.173	29.242	1643.317	1367.164
-49.159	50.231	1697.131	1570.554
-48.144	50.082	1711.907	1583.049
-47.130	31.451	1670.155	1405.963
-46.115	28.669	1655.379	1372.696
-45.100	28.500	1650.528	1367.359
-44.086	28.547	1648.361	1365.858
-43.071	28.449	1645.843	1362.988
-42.057	28.457	1643.581	1361.128
-41.042	28.528	1641.091	1359.537
-40.027	28.457	1639.444	1357.592
-39.013	28.517	1637.460	1356.334
-37.998	28.404	1636.357	1354.535
-36.984	28.489	1634.849	1353.863
-35.969	28.622	1633.323	1353.521
-34.954	28.654	1631.695	1352.358
-33.940	28.637	1629.600	1350.443
-32.925	28.652	1627.990	1349.163
-31.911	28.610	1626.641	1347.680
-30.896	28.549	1625.132	1345.931
-29.881	28.603	1623.179	1344.660
-28.867	28.605	1621.537	1343.262
-27.852	28.623	1620.059	1342.111
-26.838	28.531	1619.218	1340.689
-25.823	28.571	1617.300	1339.337
-24.809	28.679	1615.662	1338.719
-23.794	28.575	1614.893	1337.271
-22.779	28.719	1613.003	1336.702
-21.765	28.640	1611.973	1335.218
-20.750	28.640	1609.766	1333.336
-19.736	28.550	1609.301	1332.247
-18.721	28.730	1607.445	1331.960
-17.706	28.712	1605.722	1330.350
-16.692	28.661	1604.284	1328.738
-15.677	28.757	1602.776	1328.135
-14.663	28.775	1601.294	1326.980
-13.648	28.710	1600.132	1325.498
-12.633	28.660	1599.036	1324.175
-11.619	28.612	1597.679	1322.651
-10.604	28.610	1595.957	1321.162
-9.590	28.655	1594.542	1320.261
-8.575	28.703	1593.345	1319.562
-7.560	28.707	1592.145	1318.545
-6.546	28.675	1591.561	1317.780
-5.531	28.663	1590.046	1316.388
-4.517	28.783	1588.745	1316.115
-3.502	28.687	1587.620	1314.444
-2.487	28.757	1585.664	1313.276
-1.473	28.282	1573.964	1300.161
-0.458	25.155	1554.342	1261.932
0.556	19.619	1554.639	1227.844
1.571	17.105	1577.588	1227.703
2.586	16.616	1590.314	1233.929
3.600	15.142	1538.092	1182.902
4.615	8.513	1430.431	1056.334
5.629	1.636	1368.128	966.665
6.644	0.266	1360.141	952.277
7.659	0.159	1358.941	950.678
8.673	0.068	1357.874	949.275
9.688	0.068	1355.729	947.689
10.702	-0.066	1352.663	944.624
11.717	3.372	1357.486	969.563
12.731	11.238	1370.275	1028.413
13.746	16.691	1377.350	1068.127
14.761	17.178	1377.438	1071.172
15.775	16.258	1374.918	1063.324
16.790	15.186	1372.287	1054.453
17.804	14.447	1370.026	1047.972
18.819	14.157	1368.361	1044.789
19.834	13.879	1366.969	1041.889
20.848	13.649	1365.639	1039.339
21.863	13.479	1364.355	1037.203
22.877	13.197	1363.438	1034.650
23.892	13.128	1362.685	1033.555
24.907	13.204	1361.657	1033.162
25.921	13.262	1360.436	1032.505
26.936	13.247	1360.004	1031.991
27.950	13.311	1359.063	1031.587
28.965	13.370	1357.937	1031.008
29.980	13.316	1357.392	1030.166
30.994	13.477	1356.379	1030.309
32.009	13.431	1355.533	1029.287
33.023	13.487	1353.602	1028.081
34.038	13.392	1353.312	1027.178
35.053	13.365	1352.161	1026.049
36.067	13.439	1350.924	1025.475
37.082	13.334	1350.091	1024.100
38.096	13.299	1349.680	1023.487
39.111	13.405	1348.444	1023.113
40.126	13.377	1347.574	1022.185
41.140	13.362	1346.597	1021.266
42.155	13.280	1345.540	1019.866
43.169	13.202	1345.808	1019.499
44.184	13.162	1345.623	1019.018
45.199	13.260	1345.142	1019.171
46.213	13.200	1345.145	1018.710
47.228	13.284	1343.605	1017.975
48.242	13.351	1342.556	1017.502
49.257	13.338	1341.300	1016.379
50.271	13.289	1340.008	1015.009
51.286	13.286	1338.520	1013.772
52.301	13.242	1337.276	1012.472
53.315	13.285	1336.277	1011.889
54.330	13.220	1334.889	1010.349
55.344	13.288	1333.742	1009.811
56.359	13.270	1333.151	1009.164
57.374	13.222	1332.430	1008.232
58.388	13.132	1332.070	1007.323
59.403	13.159	1331.067	1006.639
60.417	13.116	1330.482	1005.845
61.432	13.070	1329.525	1004.757
62.447	13.008	1328.527	1003.532
63.461	13.077	1327.294	1002.934
64.476	13.072	1326.097	1001.913
65.490	13.075	1324.938	1000.967
66.505	13.090	1323.351	999.770
67.520	13.072	1322.025	998.569
68.534	13.159	1320.989	998.223
69.549	13.114	1320.010	997.126
70.563	13.152	1318.642	996.234
71.578	13.178	1317.033	995.082
72.593	13.012	1316.600	993.669
73.607	12.990	1315.913	992.928
74.622	13.023	1315.265	992.554
75.636	13.050	1314.370	991.954
76.651	13.087	1313.737	991.611
77.666	13.055	1313.336	991.023
78.680	13.018	1313.225	990.630
79.695	13.059	1312.124	989.958
80.709	13.173	1310.859	989.604
81.724	13.250	1309.906	989.253
82.739	13.224	1308.883	988.240
83.753	13.270	1308.069	987.812
84.768	13.388	1307.273	987.825
85.782	13.325	1306.323	986.646
86.797	13.270	1305.010	985.239
87.812	13.275	1303.508	984.051
88.826	13.293	1302.317	983.171
89.841	13.250	1301.759	982.404
90.855	13.329	1300.584	981.904
91.870	13.366	1299.841	981.474
92.884	13.337	1299.064	980.629
93.899	13.287	1298.575	979.877
94.914	13.448	1297.396	979.849
95.928	13.366	1297.003	978.985
96.943	13.355	1295.896	977.995
97.957	13.434	1294.592	977.392
98.972	13.341	1293.798	976.156
99.987	13.276	1293.285	975.303
101.001	13.328	1291.767	974.377
102.016	13.399	1290.442	973.708
103.030	13.419	1289.855	973.294
104.045	13.329	1289.054	972.079
105.060	13.256	1288.041	970.796
106.074	13.297	1286.381	969.703
107.089	13.175	1285.028	967.883
108.103	13.205	1283.882	967.110
109.118	13.162	1282.572	965.787
110.133	13.172	1281.084	964.637
111.147	13.260	1279.744	964.057
112.162	13.205	1278.778	962.925
113.176	13.220	1277.631	962.061
114.191	13.289	1276.345	961.406
115.206	13.231	1275.922	960.670
116.220	13.327	1274.137	959.797
117.235	13.223	1273.225	958.419
118.249	13.183	1272.368	957.459
119.264	13.227	1271.322	956.841
120.279	13.221	1270.162	955.848
121.293	13.195	1269.038	954.766
122.308	13.189	1267.977	953.852
123.322	13.144	1267.065	952.824
124.337	13.258	1266.158	952.711
125.352	13.221	1264.969	951.522
126.366	13.123	1263.920	950.085
127.381	13.118	1262.537	948.929
128.395	13.186	1261.600	948.533
129.410	13.249	1260.747	948.171
130.424	13.318	1260.053	947.961
131.439	13.320	1258.990	947.087
132.454	13.307	1257.721	945.972
133.468	13.232	1257.242	945.099
134.483	13.330	1256.402	944.944
135.497	13.266	1255.301	943.667
136.512	13.262	1253.853	942.475
137.527	13.304	1252.613	941.699
138.541	13.319	1250.893	940.407
139.556	13.297	1249.832	939.400
140.570	13.324	1249.044	938.881
141.585	13.440	1247.771	938.496
142.600	13.303	1246.899	936.984
143.614	13.344	1246.113	936.539
144.629	13.430	1244.540	935.761
145.643	13.470	1243.361	935.019
146.658	13.416	1242.357	933.874
147.673	13.329	1240.854	932.173
148.687	13.413	1239.564	931.593
149.702	13.289	1238.906	930.322
150.716	13.257	1237.700	929.154
151.731	13.342	1236.444	928.605
152.746	13.362	1235.050	927.590
153.760	13.432	1233.968	927.085
154.775	13.443	1232.774	926.166
155.789	13.486	1232.021	925.762
156.804	13.433	1231.357	924.885
157.819	13.548	1229.363	923.946
158.833	13.698	1228.223	923.840
159.848	13.634	1227.540	922.888
160.862	13.648	1227.022	922.500
161.877	13.632	1225.248	920.995
162.892	13.471	1224.103	919.159
163.906	13.474	1223.811	918.875
164.921	13.401	1222.902	917.703
165.935	13.531	1221.810	917.526
166.950	13.551	1221.448	917.280
167.964	13.542	1220.639	916.541
168.979	13.562	1220.059	916.137
169.994	13.550	1218.910	915.126
171.008	13.503	1218.536	914.507
172.023	13.602	1217.496	914.192
173.037	13.680	1216.683	913.931
174.052	13.654	1215.869	913.096
175.067	13.616	1214.558	911.819
176.081	13.566	1213.892	910.965
177.096	13.543	1213.037	910.117
178.110	13.536	1212.152	909.332
179.125	13.658	1210.803	908.912
180.140	13.633	1209.537	907.739
181.154	13.707	1208.156	907.028
182.169	13.741	1206.917	906.203
183.183	13.705	1206.076	905.296
184.198	13.610	1204.913	903.825
185.213	13.900	1203.624	904.357
186.227	13.838	1202.553	903.135
187.242	13.721	1202.004	902.009
188.256	13.901	1200.512	901.785
189.271	14.064	1199.423	901.770
190.286	13.800	1198.683	899.706
191.300	13.681	1197.918	898.407
192.315	13.648	1197.278	897.665
193.329	13.722	1196.452	897.372
194.344	13.773	1195.918	897.166
195.359	13.739	1195.695	896.733
196.373	13.855	1194.597	896.461
197.388	13.877	1193.878	895.957
198.402	14.069	1193.440	896.584
199.417	13.890	1192.850	895.099
200.432	14.074	1191.446	894.955
201.446	13.963	1191.342	894.200
202.461	14.144	1190.156	894.206
203.475	14.104	1189.049	893.078
204.490	13.975	1188.342	891.778
205.504	14.017	1186.355	890.434
206.519	14.054	1185.322	889.775
207.534	14.037	1183.941	888.571
208.548	14.090	1183.312	888.304
209.563	14.094	1182.732	887.809
210.577	14.113	1182.105	887.365
211.592	14.161	1180.730	886.506
212.607	14.132	1180.245	885.909
213.621	14.154	1179.195	885.160
214.636	14.081	1178.466	884.147
215.650	14.171	1177.423	883.765
216.665	14.187	1176.529	883.101
217.680	14.373	1175.089	882.925
218.694	14.385	1174.737	882.646
219.709	14.280	1174.067	881.511
220.723	14.297	1173.225	880.892
221.738	14.356	1172.700	880.731
222.753	14.330	1172.253	880.178
223.767	14.339	1171.156	879.323
224.782	14.291	1170.812	878.737
225.796	14.303	1170.282	878.321
226.811	14.372	1169.359	877.915
227.826	14.402	1168.469	877.327
228.840	14.277	1167.982	876.230
229.855	14.456	1166.826	876.226
230.869	14.446	1166.378	875.756
231.884	14.368	1165.456	874.578
232.899	14.426	1164.607	874.170
233.913	14.384	1163.998	873.415
234.928	14.355	1163.540	872.838
235.942	14.310	1162.852	872.010
236.957	14.385	1161.931	871.638
237.972	14.400	1160.905	870.867
238.986	14.434	1160.646	870.774
240.001	14.400	1160.361	870.304
241.015	14.331	1159.264	869.048
242.030	14.468	1158.119	868.827
243.045	14.493	1157.669	868.541
244.059	14.523	1156.724	867.908
245.074	14.462	1156.194	867.120
246.088	14.470	1155.316	866.423
247.103	14.531	1154.462	866.026
248.117	14.709	1153.494	866.147
249.132	14.795	1152.558	865.812
250.147	14.642	1152.473	864.880
251.161	14.696	1151.705	864.505
252.176	14.891	1150.058	864.199
253.190	14.838	1150.140	863.909
254.205	14.957	1149.071	863.647
255.220	15.143	1148.468	864.078
256.234	14.833	1148.391	862.343
257.249	14.920	1147.991	862.417
258.263	14.793	1147.225	861.109
259.278	14.954	1146.080	861.003
260.293	14.880	1145.682	860.248
261.307	14.951	1145.288	860.241
262.322	15.024	1144.549	859.983
263.336	15.077	1143.381	859.301
264.351	15.133	1142.817	859.087
265.366	15.084	1142.450	858.483
266.380	15.108	1141.883	858.107
267.395	15.032	1141.086	857.043
268.409	15.013	1140.257	856.245
269.424	15.028	1139.740	855.860
270.439	15.151	1139.081	855.917
271.453	15.074	1138.294	854.858
272.468	15.045	1137.450	854.000
273.482	15.237	1136.089	853.880
274.497	15.054	1136.411	853.114
275.512	15.140	1135.596	852.866
276.526	15.060	1134.991	851.927
277.541	15.068	1133.869	851.053
278.555	15.215	1133.139	851.174
279.570	15.201	1132.421	850.491
280.585	15.262	1131.654	850.149
281.599	15.376	1130.602	849.858
282.614	15.377	1129.825	849.203
283.628	15.189	1129.140	847.665
284.643	15.211	1128.218	847.006
285.657	15.347	1126.936	846.655
286.672	15.392	1125.649	845.842
287.687	15.324	1125.399	845.235
288.701	15.343	1124.538	844.610
289.716	15.396	1123.959	844.369
290.730	15.371	1123.485	843.812
291.745	15.358	1122.700	843.084
292.760	15.413	1122.106	842.836
293.774	15.446	1121.407	842.402
294.789	15.506	1120.948	842.286
295.803	15.516	1119.644	841.279
296.818	15.372	1119.707	840.534
297.833	15.538	1118.036	840.036
298.847	15.483	1117.644	839.392
299.862	15.476	1117.038	838.825
300.876	15.464	1116.440	838.240
301.891	15.498	1115.933	837.956
302.906	15.585	1115.000	837.618
303.920	15.591	1114.387	837.114
304.935	15.602	1113.738	836.607
305.949	15.771	1113.193	836.962
306.964	15.768	1112.355	836.245
307.979	15.743	1111.566	835.451
308.993	15.653	1111.020	834.520
310.008	15.737	1109.910	834.032
311.022	15.670	1109.570	833.369
312.037	15.773	1108.394	832.922
313.052	15.745	1107.139	831.765
314.066	15.678	1106.634	830.980
315.081	15.746	1105.671	830.521
316.095	15.611	1105.281	829.490
317.110	15.637	1104.500	828.959
318.125	15.657	1103.463	828.204
319.139	15.636	1102.835	827.557
320.154	15.766	1102.415	827.805
321.168	15.704	1101.630	826.840
322.183	15.703	1101.066	826.340
323.197	15.780	1100.682	826.355
324.212	15.773	1100.103	825.816
325.227	15.666	1099.978	825.120
326.241	15.828	1098.876	825.015
327.256	15.808	1097.883	824.101
328.270	15.887	1096.685	823.512
329.285	15.877	1096.268	823.080
330.300	15.662	1095.581	821.441
331.314	15.736	1094.790	821.134
332.329	15.846	1093.621	820.723
333.343	15.807	1092.888	819.907
334.358	16.064	1091.417	819.982
335.373	15.952	1091.155	819.169
336.387	16.012	1090.246	818.707
337.402	15.997	1089.732	818.175
338.416	16.016	1088.835	817.520
339.431	16.074	1088.513	817.490
340.446	16.037	1087.722	816.642
341.460	16.124	1086.791	816.293
342.475	16.139	1086.450	816.037
343.489	16.154	1085.661	815.442
344.504	16.294	1084.185	814.940
345.519	16.371	1083.192	814.494
346.533	16.309	1082.574	813.657
347.548	16.352	1082.348	813.624
348.562	16.386	1081.132	812.802
349.577	16.241	1080.540	811.585
350.592	16.290	1079.813	811.205
351.606	16.168	1079.142	810.041
352.621	16.280	1078.262	809.847
353.635	16.192	1077.887	809.070
354.650	16.281	1076.907	808.689
355.665	16.264	1076.185	807.997
356.679	16.315	1075.738	807.830
357.694	16.359	1075.147	807.526
358.708	16.310	1074.715	806.896
359.723	16.423	1074.049	806.865
360.738	16.345	1073.346	805.893
361.752	16.322	1072.895	805.374
362.767	16.311	1072.522	804.971
363.781	16.470	1071.536	804.917
364.796	16.330	1071.704	804.303
365.810	16.553	1070.611	804.474
366.825	16.642	1069.762	804.188
367.840	16.555	1069.340	803.387
368.854	16.604	1068.774	803.123
369.869	16.622	1068.292	802.774
370.883	16.604	1067.374	801.926
371.898	16.662	1066.395	801.398
372.913	16.702	1065.769	801.042
373.927	16.631	1065.382	800.349
374.942	16.796	1064.548	800.431
375.956	16.634	1064.272	799.384
376.971	16.786	1063.726	799.620
377.986	16.710	1063.207	798.804
379.000	16.708	1062.809	798.425
380.015	16.808	1062.174	798.349
381.029	16.749	1061.482	797.478
382.044	16.761	1060.585	796.788
383.059	16.805	1059.971	796.465
384.073	16.966	1058.826	796.291
385.088	16.816	1058.246	795.082
386.102	16.813	1057.184	794.200
387.117	16.767	1056.575	793.454
388.132	16.941	1055.350	793.277
389.146	16.921	1054.780	792.688
390.161	16.760	1054.241	791.458
391.175	16.780	1053.295	790.774
392.190	16.899	1052.613	790.743
393.205	16.904	1052.380	790.524
394.219	16.920	1051.296	789.713
395.234	17.038	1050.098	789.294
396.248	16.885	1049.567	788.113
397.263	16.994	1048.168	787.496
398.278	16.886	1047.711	786.583
399.292	16.853	1047.152	785.942
400.307	16.893	1046.189	785.336
401.321	16.888	1045.705	784.880
402.336	16.797	1045.353	784.126
403.350	16.947	1044.103	783.809
404.365	17.060	1043.605	783.891
405.380	17.060	1042.876	783.270
406.394	17.140	1042.069	782.964
407.409	17.061	1041.439	782.057
408.423	17.110	1040.802	781.738
409.438	17.117	1039.956	781.067
410.453	17.219	1039.478	781.105
411.467	17.251	1038.880	780.735
412.482	17.168	1038.220	779.789
413.496	17.268	1037.648	779.748
414.511	17.258	1036.852	779.034
415.526	17.429	1036.414	779.422
416.540	17.386	1035.901	778.768
417.555	17.384	1035.466	778.366
418.569	17.450	1034.710	778.028
419.584	17.415	1034.078	777.324
420.599	17.417	1034.453	777.548
421.613	104.091	1324.059	1473.292
422.628	95.353	1366.192	1473.362
