DTS Sentinel unit serial number:	SN413079Multiplexer serial number:	ORYXHardware model number:	OX4-SRSoftware version number:	ORYX F/W v4.00 Oryx Data Collector v3.7.2.0data status	okinstallation	princeton_trtdifferential loss correction	single-endedforward channel	channel 2reverse channel	N/Adate	2019/09/19time	04:27:35forward acquisition time	60.00reverse acquisition time	0.00gamma	496.2192k internal	0.2352k external	0.2352temperature offset calibration	1.0014default loss term (dB/km)	0.3790temperature slope calibration	1.0000multiplexer offset coefficient	1.0000multiplexer slope coefficient	1.0000fibre end	0.00T internal ref (°C)	20.19T ext. ref 1 (°C)	0.64T ext. ref 2 (°C)	13.20length (m)	temperature (°C)	Stokes	anti-Stokes-747.200	18.213	-0.117	0.093
-746.185	113.013	-0.122	-0.147
-745.171	-58.772	-0.198	0.086
-744.156	800.000	-0.071	0.248
-743.142	124.391	0.091	0.114
-742.127	-30.654	-0.352	0.199
-741.112	-200.000	-0.077	-0.410
-740.098	-153.160	-0.158	0.011
-739.083	-94.805	0.231	0.062
-738.069	168.143	-0.152	0.215
-737.054	-200.000	0.024	-0.202
-736.039	-90.404	-0.465	-0.134
-735.025	50.218	0.400	0.377
-734.010	800.000	-0.019	-0.079
-732.996	82.401	-0.429	-0.464
-731.981	-200.000	-0.002	-0.101
-730.966	-48.128	-0.138	0.066
-729.952	184.837	-0.064	-0.094
-728.937	-200.000	0.068	-0.376
-727.923	-200.000	0.092	0.406
-726.908	-63.423	0.187	0.077
-725.894	196.203	0.078	-0.119
-724.879	51.469	0.243	0.230
-723.864	391.222	-0.012	-0.024
-722.850	-47.790	0.091	0.044
-721.835	60.818	0.141	0.139
-720.821	-160.913	-0.182	-0.010
-719.806	364.688	0.037	-0.075
-718.791	415.646	0.074	0.157
-717.777	-200.000	-0.044	-0.261
-716.762	569.913	0.122	-0.296
-715.748	274.582	-0.208	-0.368
-714.733	374.203	0.047	0.095
-713.718	-200.000	0.003	-0.114
-712.704	-20.112	-0.200	-0.123
-711.689	-200.000	-0.035	0.334
-710.675	120.428	-0.074	0.092
-709.660	19.273	-0.181	-0.145
-708.645	369.087	-0.178	-0.359
-707.631	-200.000	-0.013	-0.195
-706.616	-45.011	-0.272	0.135
-705.602	68.511	-0.153	-0.156
-704.587	-95.195	-0.185	0.050
-703.572	-82.972	0.147	0.047
-702.558	484.037	0.147	0.332
-701.543	-113.228	-0.187	0.037
-700.529	31.449	0.325	-0.278
-699.514	-155.006	-0.305	0.020
-698.499	-0.093	-0.060	-0.043
-697.485	167.685	-0.140	0.198
-696.470	303.729	0.058	0.107
-695.456	800.000	0.064	0.186
-694.441	-152.183	-0.297	0.021
-693.426	41.717	0.129	0.116
-692.412	800.000	-0.058	0.223
-691.397	-86.236	0.126	0.039
-690.383	-191.081	-0.263	-0.003
-689.368	-50.261	-0.065	0.030
-688.354	352.566	-0.084	-0.166
-687.339	-114.083	0.231	-0.044
-686.324	-46.787	0.292	0.142
-685.310	8.504	0.340	-0.255
-684.295	-200.000	-0.063	-0.309
-683.281	-65.600	0.214	-0.085
-682.266	-92.449	0.198	0.055
-681.251	-200.000	0.013	0.090
-680.237	-38.596	-0.314	-0.165
-679.222	-105.899	0.264	-0.059
-678.208	-148.679	-0.098	0.008
-677.193	-48.054	0.115	-0.055
-676.178	-197.024	-0.362	0.002
-675.164	631.888	0.131	0.330
-674.149	-130.210	-0.253	-0.034
-673.135	-200.000	-0.004	-0.392
-672.120	-102.333	-0.289	-0.069
-671.105	800.000	0.100	-0.311
-670.091	135.017	-0.161	-0.208
-669.076	344.750	-0.082	-0.161
-668.062	358.315	0.097	0.192
-667.047	-40.067	0.344	-0.178
-666.032	-118.533	-0.379	-0.067
-665.018	-114.674	0.189	-0.036
-664.003	-75.838	0.180	-0.064
-662.989	-146.774	-0.296	0.025
-661.974	-200.000	-0.065	-0.340
-660.959	42.917	-0.086	0.078
-659.945	-76.442	-0.250	0.087
-658.930	-71.810	-0.117	-0.043
-657.916	800.000	-0.075	-0.315
-656.901	381.972	0.005	0.010
-655.886	-147.938	-0.187	-0.015
-654.872	-165.368	-0.124	0.005
-653.857	-200.000	0.041	-0.201
-652.843	197.738	0.123	-0.186
-651.828	-85.962	0.297	-0.091
-650.814	151.900	-0.107	0.145
-649.799	-200.000	0.024	-0.196
-648.784	-200.000	-0.026	-0.195
-647.770	-53.633	0.327	-0.148
-646.755	136.314	0.049	0.063
-645.741	129.775	-0.136	0.173
-644.726	-7.555	-0.442	-0.297
-643.711	229.147	-0.049	0.080
-642.697	214.511	0.079	-0.124
-641.682	305.787	0.088	-0.163
-640.668	-62.991	-0.094	-0.039
-639.653	193.099	-0.065	-0.098
-638.638	-200.000	0.010	-0.229
-637.624	366.971	0.076	-0.153
-636.609	-84.242	-0.317	0.100
-635.595	800.000	-0.034	-0.129
-634.580	-167.495	-0.461	-0.018
-633.565	-70.748	-0.132	0.050
-632.551	-200.000	0.031	-0.430
-631.536	741.913	-0.075	0.200
-630.522	184.020	-0.038	0.056
-629.507	50.073	-0.121	0.113
-628.492	269.735	-0.051	0.089
-627.478	-181.146	0.190	-0.004
-626.463	-24.485	-0.196	0.116
-625.449	-200.000	-0.016	-0.270
-624.434	800.000	0.200	-0.552
-623.419	178.063	-0.116	-0.168
-622.405	-200.000	-0.023	-0.415
-621.390	19.371	0.135	0.108
-620.376	197.471	-0.254	0.385
-619.361	10.942	0.155	-0.117
-618.346	800.000	0.039	-0.120
-617.332	751.009	-0.053	-0.142
-616.317	386.868	0.139	-0.285
-615.303	84.187	0.280	-0.304
-614.288	-52.455	0.088	0.040
-613.273	291.909	-0.089	-0.161
-612.259	328.763	-0.123	0.235
-611.244	548.939	-0.127	0.302
-610.230	-6.230	-0.120	-0.082
-609.215	-176.268	0.250	0.006
-608.201	65.681	-0.057	-0.058
-607.186	-68.878	0.337	0.129
-606.171	-88.870	-0.058	-0.017
-605.157	-0.239	-0.074	-0.052
-604.142	77.279	-0.162	-0.171
-603.128	-35.520	0.050	0.027
-602.113	59.503	-0.041	0.040
-601.098	208.633	0.141	-0.218
-600.084	800.000	0.131	-0.482
-599.069	-53.709	0.116	-0.053
-598.055	234.793	0.059	-0.096
-597.040	-4.385	-0.087	0.060
-596.025	238.579	-0.154	0.253
-595.011	800.000	-0.117	-0.391
-593.996	10.075	0.096	0.073
-592.982	-87.042	0.151	-0.046
-591.967	-59.107	0.132	0.056
-590.952	705.452	0.032	-0.083
-589.938	-20.799	0.215	0.131
-588.923	-49.905	-0.338	0.159
-587.909	131.549	0.023	-0.030
-586.894	-71.751	-0.154	-0.057
-585.879	72.236	-0.050	0.052
-584.865	30.329	0.088	-0.075
-583.850	-26.413	0.365	0.212
-582.836	146.608	0.209	0.279
-581.821	-3.154	0.105	0.073
-580.806	-63.225	0.245	-0.100
-579.792	199.122	-0.121	-0.183
-578.777	42.972	-0.249	-0.225
-577.763	11.406	0.268	-0.204
-576.748	27.933	-0.224	-0.187
-575.733	-200.000	0.000	0.117
-574.719	-200.000	-0.008	-0.102
-573.704	-45.347	-0.307	-0.151
-572.690	219.285	-0.125	-0.198
-571.675	203.883	-0.055	-0.085
-570.661	176.881	-0.195	-0.282
-569.646	-200.000	0.001	-0.101
-568.631	-152.876	0.043	-0.003
-567.617	800.000	-0.124	0.395
-566.602	70.026	-0.199	0.204
-565.588	440.834	-0.112	-0.242
-564.573	176.147	0.121	-0.174
-563.558	800.000	0.122	0.387
-562.544	-90.360	0.385	0.111
-561.529	75.597	-0.155	-0.162
-560.515	-200.000	0.006	0.170
-559.500	-2.862	-0.151	0.104
-558.485	-200.000	-0.058	0.474
-557.471	800.000	-0.067	0.236
-556.456	172.073	0.128	-0.183
-555.442	-150.604	0.295	-0.022
-554.427	67.181	0.123	-0.124
-553.412	800.000	0.094	-0.294
-552.398	56.808	-0.276	-0.266
-551.383	95.962	-0.130	0.147
-550.369	800.000	0.070	0.271
-549.354	-140.211	-0.239	0.025
-548.339	146.751	0.100	-0.132
-547.325	228.585	-0.152	-0.245
-546.310	-160.499	-0.517	0.027
-545.296	800.000	-0.018	-0.058
-544.281	55.110	-0.083	-0.080
-543.266	177.655	-0.259	0.374
-542.252	382.644	0.102	0.207
-541.237	167.515	-0.130	0.182
-540.223	-200.000	0.040	-0.231
-539.208	22.554	-0.054	-0.044
-538.193	-154.781	0.330	0.022
-537.179	44.540	-0.170	0.155
-536.164	-154.039	0.181	-0.012
-535.150	106.164	-0.236	0.277
-534.135	-96.510	0.102	-0.027
-533.121	303.322	-0.151	0.278
-532.106	800.000	0.105	0.351
-531.091	69.613	0.193	-0.197
-530.077	-73.433	0.296	0.107
-529.062	109.263	0.033	0.039
-528.048	-145.435	-0.401	0.036
-527.033	-36.032	-0.142	-0.076
-526.018	-97.840	-0.126	0.032
-525.004	340.569	-0.132	0.254
-523.989	-85.888	0.381	0.117
-522.975	185.906	-0.211	0.310
-521.960	-200.000	0.024	0.193
-520.945	-48.595	0.144	0.068
-519.931	-175.054	-0.519	-0.014
-518.916	52.554	-0.130	-0.123
-517.902	-200.000	0.047	-0.205
-516.887	-33.779	0.127	0.069
-515.872	800.000	-0.135	-0.369
-514.858	800.000	-0.022	-0.074
-513.843	-176.910	0.233	-0.006
-512.829	-104.243	0.314	-0.072
-511.814	-200.000	0.089	0.429
-510.799	-200.000	0.006	0.295
-509.785	-62.877	0.062	-0.025
-508.770	100.531	0.319	-0.366
-507.756	-200.000	0.072	-0.345
-506.741	-94.927	0.242	0.065
-505.726	-178.308	0.143	-0.003
-504.712	800.000	0.089	0.269
-503.697	-87.209	0.168	0.050
-502.683	-200.000	-0.025	0.307
-501.668	-134.382	0.266	0.032
-500.653	-13.133	0.153	0.098
-499.639	419.217	0.054	0.115
-498.624	-101.862	0.223	0.053
-497.610	143.671	0.062	0.082
-496.595	184.519	0.096	-0.140
-495.581	-50.223	0.045	0.021
-494.566	-36.324	-0.313	0.167
-493.551	38.651	0.168	0.148
-492.537	-34.242	0.393	-0.213
-491.522	-27.591	-0.225	0.129
-490.508	-122.793	-0.330	0.053
-489.493	3.652	0.401	0.289
-488.478	-105.380	0.270	-0.061
-487.464	117.234	-0.205	-0.249
-486.449	78.271	0.246	0.259
-485.435	-140.622	-0.096	-0.010
-484.420	0.265	-0.150	0.106
-483.405	19.945	0.301	0.239
-482.391	468.272	0.057	0.126
-481.376	-200.000	0.081	-0.377
-480.362	-106.627	-0.159	0.035
-479.347	166.914	0.076	0.106
-478.332	-158.507	0.433	-0.025
-477.318	-53.611	-0.286	0.129
-476.303	-146.384	0.198	-0.017
-475.289	-149.861	-0.354	-0.027
-474.274	-98.492	0.159	0.040
-473.259	800.000	0.039	0.157
-472.245	-129.975	0.149	0.020
-471.230	800.000	-0.044	-0.164
-470.216	-106.985	-0.019	0.004
-469.201	297.940	0.050	-0.092
-468.186	-52.799	0.226	0.103
-467.172	-89.696	0.136	-0.039
-466.157	-139.299	-0.052	-0.006
-465.143	663.675	0.166	0.423
-464.128	-32.963	-0.207	-0.114
-463.113	800.000	-0.035	0.124
-462.099	362.489	-0.087	0.173
-461.084	117.169	-0.175	0.212
-460.070	56.772	-0.249	-0.239
-459.055	72.034	-0.139	0.143
-458.040	10.473	-0.188	0.141
-457.026	57.440	-0.071	-0.068
-456.011	800.000	-0.070	0.262
-454.997	-47.162	0.174	-0.084
-453.982	100.550	0.115	0.132
-452.968	-200.000	0.016	-0.208
-451.953	483.862	-0.085	0.190
-450.938	29.444	0.239	0.200
-449.924	-176.409	-0.107	0.003
-448.909	-200.000	0.035	-0.238
-447.895	172.527	0.051	0.072
-446.880	-69.168	0.168	0.064
-445.865	8.808	0.221	-0.165
-444.851	-121.260	-0.200	-0.033
-443.836	-164.369	-0.593	-0.027
-442.822	-194.373	-0.275	0.002
-441.807	-23.313	-0.192	-0.114
-440.792	-200.000	0.031	-0.415
-439.778	-15.216	0.078	-0.049
-438.763	-146.728	-0.217	0.018
-437.749	-121.232	-0.225	-0.037
-436.734	-101.730	0.127	-0.030
-435.719	-200.000	0.034	-0.172
-434.705	800.000	0.033	-0.115
-433.690	-48.666	-0.141	0.067
-432.676	-69.520	-0.489	0.185
-431.661	168.165	-0.045	-0.064
-430.646	-116.561	-0.237	0.043
-429.632	-132.418	-0.149	0.019
-428.617	31.729	-0.303	-0.257
-427.603	-19.769	-0.075	-0.046
-426.588	-51.348	-0.178	-0.082
-425.573	35.549	-0.172	-0.148
-424.559	-200.000	-0.103	-0.490
-423.544	-155.604	0.408	-0.026
-422.530	44.677	0.121	0.109
-421.515	-200.000	0.011	0.160
-420.500	8.896	0.213	-0.158
-419.486	101.003	-0.157	-0.180
-418.471	-200.000	0.038	0.168
-417.457	-178.809	-0.281	0.006
-416.442	46.331	-0.271	0.247
-415.428	89.689	-0.115	-0.127
-414.413	-142.007	-0.100	-0.010
-413.398	133.159	-0.068	-0.086
-412.384	43.563	0.104	0.094
-411.369	-63.803	-0.041	0.017
-410.355	7.186	0.122	-0.090
-409.340	-25.045	0.132	-0.077
-408.325	-84.684	-0.335	-0.104
-407.311	-200.000	0.017	-0.100
-406.296	-169.516	0.267	0.010
-405.282	-200.000	-0.009	0.065
-404.267	744.496	0.080	-0.212
-403.252	74.391	-0.288	-0.298
-402.238	-106.794	0.254	0.056
-401.223	-24.395	0.042	-0.025
-400.209	800.000	0.021	-0.069
-399.194	-114.720	0.220	0.041
-398.179	26.349	0.061	0.050
-397.165	800.000	0.022	-0.062
-396.150	800.000	0.096	0.306
-395.136	-51.855	-0.149	0.068
-394.121	67.376	-0.145	0.146
-393.106	63.414	0.115	0.113
-392.092	-44.155	0.342	-0.169
-391.077	-54.837	-0.287	-0.127
-390.063	800.000	-0.059	0.235
-389.048	84.881	0.150	0.162
-388.033	298.584	0.093	0.168
-387.019	263.731	-0.184	0.314
-386.004	75.824	0.160	-0.166
-384.990	688.230	0.076	-0.196
-383.975	-118.367	-0.172	0.030
-382.960	328.979	0.075	-0.142
-381.946	-43.189	-0.203	0.101
-380.931	450.544	-0.062	-0.135
-379.917	800.000	-0.097	-0.275
-378.902	800.000	-0.053	0.157
-377.888	800.000	-0.022	0.073
-376.873	95.395	-0.054	0.060
-375.858	-35.203	0.159	0.085
-374.844	36.971	0.265	-0.231
-373.829	-200.000	0.002	0.178
-372.815	-200.000	0.103	-0.000
-371.800	800.000	-0.085	-0.274
-370.785	-51.732	0.376	-0.172
-369.771	500.128	-0.104	-0.236
-368.756	-133.593	0.279	0.034
-367.742	-141.848	-0.208	-0.021
-366.727	-47.864	-0.076	-0.036
-365.712	520.597	0.036	-0.082
-364.698	-77.869	-0.273	0.093
-363.683	-75.511	0.144	0.050
-362.669	-200.000	-0.024	0.334
-361.654	800.000	-0.019	0.079
-360.639	-85.199	-0.159	-0.049
-359.625	-200.000	-0.029	-0.252
-358.610	800.000	-0.029	-0.109
-357.596	20.782	-0.167	-0.133
-356.581	114.138	-0.042	-0.051
-355.566	-187.960	-0.253	0.003
-354.552	268.525	0.171	-0.295
-353.537	-114.488	0.162	0.031
-352.523	622.253	-0.035	0.086
-351.508	572.855	0.025	-0.059
-350.493	207.622	0.203	-0.311
-349.479	49.872	0.113	-0.104
-348.464	-30.669	-0.093	0.052
-347.450	-200.000	0.008	-0.222
-346.435	800.000	0.036	-0.116
-345.420	-200.000	-0.027	0.320
-344.406	49.109	0.027	0.025
-343.391	-200.000	-0.029	0.318
-342.377	35.702	-0.075	-0.064
-341.362	800.000	0.087	0.279
-340.348	-117.354	-0.360	-0.064
-339.333	-200.000	-0.009	-0.170
-338.318	-3.814	-0.312	-0.212
-337.304	-200.000	-0.041	0.279
-336.289	-154.692	0.088	-0.006
-335.275	115.716	-0.094	-0.113
-334.260	-83.747	0.182	-0.057
-333.245	-200.000	0.047	-0.361
-332.231	-93.801	0.185	-0.050
-331.216	31.796	-0.286	-0.241
-330.202	-105.746	0.196	-0.044
-329.187	39.506	-0.211	0.185
-328.172	17.680	0.163	0.127
-327.158	499.639	-0.111	-0.250
-326.143	-147.419	0.351	-0.029
-325.129	-200.000	-0.010	0.097
-324.114	-59.610	0.310	0.131
-323.099	-113.570	0.299	-0.057
-322.085	33.105	0.080	0.068
-321.070	43.957	-0.168	-0.151
-320.056	-200.000	-0.045	-0.359
-319.041	-3.434	0.211	0.144
-318.026	31.398	0.326	0.275
-317.012	-200.000	-0.014	0.156
-315.997	-123.316	0.127	-0.020
-314.983	-42.898	0.197	0.098
-313.968	175.728	-0.194	-0.276
-312.953	168.497	-0.091	0.128
-311.939	564.200	0.122	0.290
-310.924	1.651	0.189	0.133
-309.910	800.000	-0.069	-0.191
-308.895	-200.000	0.022	0.234
-307.880	-200.000	-0.015	-0.128
-306.866	207.107	-0.187	-0.287
-305.851	-172.977	0.276	0.008
-304.837	-45.911	-0.208	-0.101
-303.822	-35.786	0.263	-0.140
-302.807	129.594	-0.287	0.360
-301.793	199.237	0.068	-0.102
-300.778	87.104	-0.044	-0.047
-299.764	220.569	0.112	-0.176
-298.749	131.952	-0.122	0.154
-297.735	331.925	-0.177	-0.335
-296.720	279.286	-0.096	-0.169
-295.705	-200.000	-0.009	0.056
-294.691	552.811	0.101	0.237
-293.676	-200.000	0.049	0.308
-292.662	217.275	-0.080	-0.126
-291.647	-17.407	0.170	0.105
-290.632	-65.268	-0.249	0.098
-289.618	800.000	-0.094	0.257
-288.603	93.660	0.252	0.280
-287.589	-80.263	-0.302	-0.099
-286.574	-171.936	0.108	-0.003
-285.559	-16.183	-0.237	0.147
-284.545	-4.251	0.079	0.054
-283.530	736.660	-0.060	0.156
-282.516	-63.382	-0.223	0.090
-281.501	-55.960	-0.148	0.065
-280.486	-200.000	0.006	0.265
-279.472	318.073	-0.153	0.284
-278.457	-84.338	-0.139	0.043
-277.443	-200.000	0.013	0.462
-276.428	-168.619	0.186	0.007
-275.413	800.000	-0.081	0.325
-274.399	-159.936	-0.234	0.013
-273.384	800.000	0.094	0.331
-272.370	-91.200	-0.148	0.041
-271.355	-200.000	0.023	-0.239
-270.340	664.066	0.123	-0.311
-269.326	-8.227	-0.224	-0.147
-268.311	-200.000	-0.010	0.101
-267.297	-103.484	-0.359	0.083
-266.282	800.000	-0.070	-0.287
-265.267	-13.934	-0.237	0.150
-264.253	-200.000	-0.028	-0.222
-263.238	507.835	0.090	-0.205
-262.224	-200.000	-0.057	0.255
-261.209	-42.860	0.448	-0.223
-260.195	185.006	-0.069	-0.100
-259.180	225.565	0.097	0.154
-258.165	-200.000	-0.085	0.381
-257.151	51.549	0.225	-0.210
-256.136	45.331	0.249	-0.225
-255.122	-3.163	-0.167	0.114
-254.107	-53.927	-0.181	-0.081
-253.092	131.733	-0.028	-0.035
-252.078	-27.138	-0.060	0.034
-251.063	-31.776	0.224	0.123
-250.049	800.000	0.005	-0.022
-249.034	-80.994	0.214	-0.069
-248.019	-68.246	0.162	0.062
-247.005	800.000	0.064	-0.223
-245.990	204.031	0.161	0.244
-244.976	7.859	-0.085	0.062
-243.961	-200.000	-0.005	0.146
-242.946	794.985	0.032	0.086
-241.932	-42.912	0.194	-0.097
-240.917	-200.000	0.056	-0.249
-239.903	-57.344	-0.153	0.066
-238.888	-17.956	0.400	0.245
-237.873	-117.640	0.180	0.032
-236.859	227.143	0.024	-0.038
-235.844	-58.282	0.079	0.033
-234.830	214.812	0.078	0.121
-233.815	800.000	0.046	0.172
-232.800	-108.045	0.066	-0.014
-231.786	-84.560	-0.222	0.068
-230.771	39.399	0.167	-0.146
-229.757	-71.739	-0.069	0.025
-228.742	283.461	-0.143	0.252
-227.727	172.322	-0.113	-0.159
-226.713	800.000	-0.034	-0.116
-225.698	512.709	0.159	-0.362
-224.684	334.360	0.144	0.273
-223.669	800.000	0.053	-0.195
-222.655	-144.747	-0.176	0.016
-221.640	144.450	-0.099	0.129
-220.625	800.000	-0.071	0.231
-219.611	-27.375	0.247	0.141
-218.596	29.431	-0.408	-0.339
-217.582	431.127	0.077	-0.163
-216.567	-49.804	-0.337	-0.156
-215.552	235.333	0.128	0.207
-214.538	74.612	0.277	-0.285
-213.523	800.000	-0.068	0.286
-212.509	-76.562	0.189	-0.065
-211.494	-120.129	0.254	-0.042
-210.479	800.000	0.074	-0.212
-209.465	125.112	0.041	-0.050
-208.450	90.176	0.281	-0.307
-207.436	-169.893	-0.251	-0.009
-206.421	293.212	-0.130	-0.231
-205.406	-86.885	0.261	-0.078
-204.392	-200.000	0.020	-0.172
-203.377	-55.465	0.185	0.081
-202.363	-200.000	-0.007	-0.036
-201.348	-36.033	-0.287	-0.152
-200.333	733.846	0.062	0.162
-199.319	157.104	-0.100	0.135
-198.304	44.168	-0.043	-0.038
-197.290	65.730	-0.173	-0.171
-196.275	-43.125	0.235	0.116
-195.260	800.000	0.060	-0.187
-194.246	-200.000	0.004	-0.326
-193.231	11.381	0.085	-0.064
-192.217	-157.855	-0.176	0.010
-191.202	800.000	-0.075	0.235
-190.187	71.190	0.144	0.145
-189.173	-34.829	0.094	0.050
-188.158	-84.371	0.084	-0.026
-187.144	-41.085	0.183	0.092
-186.129	653.487	0.156	0.391
-185.114	-200.000	-0.012	0.110
-184.100	-41.416	-0.194	0.097
-183.085	411.660	0.067	-0.139
-182.071	176.627	-0.046	-0.065
-181.056	-200.000	-0.038	-0.349
-180.042	-200.000	-0.018	-0.147
-179.027	-0.178	-0.107	0.074
-178.012	-106.128	0.380	-0.083
-176.998	800.000	-0.100	0.388
-175.983	13.839	-0.139	0.106
-174.969	82.239	0.127	-0.135
-173.954	-200.000	-0.059	0.471
-172.939	-200.000	0.023	0.195
-171.925	-129.561	0.134	0.018
-170.910	40.512	0.035	-0.031
-169.896	-90.191	0.245	0.070
-168.881	-63.239	0.074	0.030
-167.866	-159.417	-0.244	0.013
-166.852	-11.249	-0.159	-0.102
-165.837	800.000	0.070	0.266
-164.823	-200.000	0.076	-0.345
-163.808	78.259	0.022	0.022
-162.793	-132.629	0.115	0.014
-161.779	-200.000	-0.008	-0.398
-160.764	-171.697	-0.325	-0.010
-159.750	26.324	0.213	0.174
-158.735	-200.000	0.015	0.281
-157.720	-200.000	0.013	0.288
-156.706	406.784	-0.076	0.157
-155.691	-7.575	-0.064	-0.042
-154.677	-143.565	0.089	0.008
-153.662	-200.000	0.030	0.178
-152.647	-200.000	-0.063	0.285
-151.633	-106.453	-0.225	0.049
-150.618	101.135	0.334	-0.379
-149.604	1.452	0.110	0.077
-148.589	-106.970	-0.273	-0.059
-147.574	-15.248	-0.054	-0.034
-146.560	148.406	0.053	-0.069
-145.545	800.000	-0.074	0.206
-144.531	-121.162	0.202	0.033
-143.516	800.000	0.154	0.497
-142.502	-51.411	0.091	-0.042
-141.487	13.672	0.176	0.133
-140.472	-138.914	-0.111	-0.012
-139.458	-22.966	0.219	0.129
-138.443	-111.128	-0.254	-0.051
-137.429	163.065	-0.093	0.128
-136.414	-98.240	-0.134	-0.033
-135.399	401.312	-0.116	0.238
-134.385	212.808	0.078	0.120
-133.370	-149.744	-0.173	-0.013
-132.356	-92.953	0.217	-0.059
-131.341	-128.703	-0.402	-0.055
-130.326	154.265	-0.145	-0.194
-129.312	248.983	-0.052	-0.086
-128.297	288.121	0.066	0.116
-127.283	-17.212	0.256	-0.157
-126.268	-200.000	0.053	0.435
-125.253	-95.341	0.258	-0.068
-124.239	146.395	-0.163	-0.214
-123.224	21.345	-0.234	0.185
-122.210	-200.000	0.023	-0.282
-121.195	-101.839	0.196	0.046
-120.180	-93.079	0.199	0.054
-119.166	800.000	0.074	0.213
-118.151	800.000	0.110	0.395
-117.137	800.000	-0.059	-0.194
-116.122	91.673	0.307	0.336
-115.107	-200.000	0.009	0.347
-114.093	67.829	-0.133	-0.132
-113.078	-200.000	-0.039	-0.225
-112.064	610.782	0.071	0.172
-111.049	-77.064	-0.274	-0.093
-110.034	244.422	0.259	0.424
-109.020	-92.290	0.146	-0.040
-108.005	67.354	-0.144	0.143
-106.991	800.000	-0.072	0.229
-105.976	800.000	-0.046	-0.173
-104.962	125.939	0.135	-0.166
-103.947	475.755	-0.099	-0.218
-102.932	-200.000	-0.025	0.144
-101.918	125.335	-0.078	0.096
-100.903	-111.370	0.227	0.045
-99.889	-72.373	0.391	0.141
-98.874	8.935	0.156	0.115
-97.859	7.743	-0.052	0.038
-96.845	334.452	0.101	0.190
-95.830	120.157	0.141	0.170
-94.816	-69.068	-0.017	-0.006
-93.801	-200.000	-0.022	0.288
-92.786	-77.163	0.090	0.030
-91.772	135.539	-0.128	-0.162
-90.757	555.956	0.121	-0.283
-89.743	251.191	-0.163	-0.269
-88.728	-200.000	0.024	-0.369
-87.713	-0.076	-0.137	0.095
-86.699	800.000	0.032	0.103
-85.684	-200.000	0.014	-0.133
-84.670	472.300	0.083	0.183
-83.655	-94.325	-0.330	0.088
-82.640	800.000	-0.010	-0.037
-81.626	-60.057	0.249	0.103
-80.611	205.173	0.123	0.185
-79.597	-2.813	-0.228	0.155
-78.582	502.649	-0.111	0.249
-77.567	-200.000	-0.054	0.235
-76.553	324.521	-0.151	0.281
-75.538	151.363	-0.105	-0.139
-74.524	493.686	0.113	0.251
-73.509	-85.081	-0.175	-0.053
-72.494	-200.000	-0.025	-0.108
-71.480	436.679	0.096	-0.204
-70.465	295.079	0.051	0.091
-69.451	-149.109	0.117	-0.009
-68.436	21.349	0.075	-0.059
-67.422	-200.000	-0.006	0.138
-66.407	55.122	0.192	0.180
-65.392	800.000	0.123	-0.372
-64.378	-200.000	0.012	-0.232
-63.363	800.000	-0.044	-0.156
-62.349	552.999	0.045	0.105
-61.334	240.827	-0.924	-1.497
-60.319	13.284	0.671	0.505
-59.305	654.888	-0.613	-1.529
-58.290	304.420	0.792	1.428
-57.276	157.634	0.769	1.034
-56.261	-200.000	137.276	643.607
-55.246	336.677	1663.438	3136.988
-54.232	134.702	2806.247	3536.806
-53.217	79.160	2309.679	2402.811
-52.203	28.567	1909.772	1568.774
-51.188	23.037	1704.784	1357.988
-50.173	21.256	1667.440	1314.797
-49.159	42.399	1741.486	1537.294
-48.144	39.012	1750.056	1518.662
-47.130	22.534	1702.047	1351.737
-46.115	20.297	1686.372	1322.204
-45.100	20.050	1681.383	1316.367
-44.086	19.979	1678.862	1313.803
-43.071	20.010	1676.309	1311.985
-42.057	20.054	1673.534	1310.097
-41.042	20.120	1671.787	1309.175
-40.027	20.078	1670.381	1307.704
-39.013	20.006	1668.332	1305.505
-37.998	20.009	1666.896	1304.355
-36.984	20.023	1665.783	1303.538
-35.969	20.196	1663.774	1303.216
-34.954	20.216	1662.039	1301.954
-33.940	20.096	1660.570	1299.853
-32.925	20.117	1659.277	1298.942
-31.911	20.050	1657.370	1296.899
-30.896	20.101	1655.561	1295.808
-29.881	20.221	1653.921	1295.376
-28.867	20.225	1652.182	1293.990
-27.852	20.163	1651.203	1292.711
-26.838	20.154	1649.999	1291.648
-25.823	20.112	1648.671	1290.243
-24.809	20.211	1647.480	1289.998
-23.794	20.194	1646.297	1288.897
-22.779	20.257	1644.138	1287.623
-21.765	20.314	1642.772	1286.922
-20.750	20.211	1640.808	1284.573
-19.736	20.229	1639.783	1283.850
-18.721	20.308	1638.444	1283.332
-17.706	20.270	1636.933	1281.822
-16.692	20.264	1635.498	1280.601
-15.677	20.180	1634.068	1278.809
-14.663	20.299	1632.605	1278.493
-13.648	20.326	1630.968	1277.358
-12.633	20.231	1629.678	1275.595
-11.619	20.132	1628.260	1273.711
-10.604	20.205	1626.972	1273.184
-9.590	20.289	1625.708	1272.764
-8.575	20.187	1624.545	1271.058
-7.560	20.316	1623.026	1270.762
-6.546	20.262	1622.377	1269.810
-5.531	20.219	1620.871	1268.267
-4.517	20.281	1619.856	1267.872
-3.502	20.205	1618.987	1266.585
-2.487	20.291	1616.727	1265.399
-1.473	19.690	1604.643	1251.533
-0.458	16.603	1584.363	1213.559
0.556	11.820	1586.761	1181.092
1.571	9.528	1611.761	1182.771
2.586	9.270	1623.371	1189.281
3.600	8.761	1568.236	1145.148
4.615	5.074	1463.864	1044.198
5.629	1.342	1409.438	981.200
6.644	0.672	1402.496	971.971
7.659	0.634	1401.209	970.751
8.673	0.567	1400.920	970.030
9.688	0.677	1398.292	968.835
10.702	0.457	1394.706	964.854
11.717	2.397	1396.387	978.348
12.731	8.085	1404.639	1020.542
13.746	14.312	1415.101	1068.106
14.761	16.986	1418.851	1088.012
15.775	16.598	1417.187	1084.154
16.790	15.568	1414.808	1075.652
17.804	14.791	1412.222	1068.618
18.819	14.505	1410.514	1065.404
19.834	14.317	1409.542	1063.379
20.848	14.111	1408.423	1061.123
21.863	13.790	1407.309	1058.147
22.877	13.629	1405.799	1055.889
23.892	13.624	1404.801	1055.015
24.907	13.501	1404.482	1053.897
25.921	13.660	1402.608	1053.412
26.936	13.663	1401.963	1052.854
27.950	13.594	1401.408	1051.903
28.965	13.681	1400.312	1051.540
29.980	13.789	1398.974	1051.128
30.994	13.818	1398.337	1050.739
32.009	13.892	1397.229	1050.279
33.023	13.800	1396.270	1048.887
34.038	13.840	1394.928	1048.035
35.053	13.716	1393.817	1046.330
36.067	13.607	1393.311	1045.171
37.082	13.744	1391.661	1044.702
38.096	13.784	1391.009	1044.373
39.111	13.749	1389.888	1043.215
40.126	13.679	1389.428	1042.336
41.140	13.621	1388.736	1041.365
42.155	13.635	1388.028	1040.828
43.169	13.631	1387.965	1040.661
44.184	13.569	1387.681	1039.967
45.199	13.563	1387.216	1039.489
46.213	13.707	1386.405	1039.691
47.228	13.591	1385.656	1038.315
48.242	13.710	1384.107	1037.804
49.257	13.653	1382.819	1036.390
50.271	13.763	1380.921	1035.562
51.286	13.733	1380.206	1034.746
52.301	13.805	1378.408	1033.759
53.315	13.631	1377.466	1031.876
54.330	13.635	1376.899	1031.383
55.344	13.684	1375.184	1030.315
56.359	13.630	1374.235	1029.177
57.374	13.647	1373.314	1028.505
58.388	13.561	1372.742	1027.449
59.403	13.628	1372.184	1027.357
60.417	13.605	1371.342	1026.494
61.432	13.629	1370.768	1026.123
62.447	13.504	1369.862	1024.575
63.461	13.524	1368.128	1023.313
64.476	13.537	1367.341	1022.712
65.490	13.467	1366.626	1021.655
66.505	13.530	1364.661	1020.486
67.520	13.618	1363.367	1019.971
68.534	13.682	1361.572	1018.930
69.549	13.548	1361.201	1017.742
70.563	13.574	1359.734	1016.709
71.578	13.538	1358.577	1015.535
72.593	13.543	1357.673	1014.803
73.607	13.490	1357.065	1013.932
74.622	13.481	1356.392	1013.285
75.636	13.477	1355.913	1012.812
76.651	13.391	1355.071	1011.569
77.666	13.522	1353.992	1011.472
78.680	13.454	1353.746	1010.784
79.695	13.547	1353.171	1010.831
80.709	13.512	1352.244	1009.836
81.724	13.584	1351.068	1009.312
82.739	13.594	1350.194	1008.626
83.753	13.572	1349.666	1008.008
84.768	13.687	1348.297	1007.599
85.782	13.729	1346.878	1006.705
86.797	13.743	1345.428	1005.616
87.812	13.700	1344.287	1004.416
88.826	13.655	1342.972	1003.069
89.841	13.686	1342.057	1002.487
90.855	13.751	1340.857	1001.891
91.870	13.740	1340.120	1001.188
92.884	13.717	1339.482	1000.483
93.899	13.685	1338.725	999.634
94.914	13.743	1337.912	999.287
95.928	13.789	1336.765	998.620
96.943	13.791	1335.869	997.876
97.957	13.751	1334.487	996.516
98.972	13.802	1333.370	995.896
99.987	13.706	1332.450	994.546
101.001	13.808	1331.288	994.202
102.016	13.751	1330.395	993.108
103.030	13.786	1329.824	992.802
104.045	13.876	1328.412	992.201
105.060	13.741	1327.418	990.563
106.074	13.674	1325.792	988.860
107.089	13.599	1324.784	987.576
108.103	13.725	1323.183	987.046
109.118	13.724	1321.851	985.958
110.133	13.639	1320.988	984.720
111.147	13.657	1318.942	983.215
112.162	13.747	1317.885	982.876
113.176	13.806	1316.739	982.281
114.191	13.744	1316.300	981.499
115.206	13.721	1315.042	980.341
116.220	13.753	1313.904	979.593
117.235	13.726	1312.636	978.402
118.249	13.736	1311.640	977.635
119.264	13.673	1310.598	976.402
120.279	13.717	1309.332	975.628
121.293	13.703	1308.385	974.755
122.308	13.627	1307.285	973.401
123.322	13.730	1306.266	973.160
124.337	13.691	1305.018	971.915
125.352	13.644	1303.971	970.775
126.366	13.608	1302.634	969.485
127.381	13.713	1301.945	969.500
128.395	13.704	1300.750	968.470
129.410	13.688	1299.631	967.456
130.424	13.679	1299.081	966.912
131.439	13.591	1298.159	965.625
132.454	13.638	1296.939	964.906
133.468	13.690	1295.914	964.360
134.483	13.764	1294.878	963.938
135.497	13.628	1294.081	962.467
136.512	13.672	1292.643	961.569
137.527	13.744	1291.182	960.814
138.541	13.734	1290.039	959.820
139.556	13.692	1288.649	958.457
140.570	13.792	1287.459	958.064
141.585	13.871	1286.314	957.583
142.600	13.836	1285.164	956.441
143.614	13.841	1284.175	955.653
144.629	14.008	1282.738	955.453
145.643	14.009	1281.526	954.477
146.658	13.794	1280.958	952.735
147.673	13.824	1279.311	951.597
148.687	13.809	1278.326	950.693
149.702	13.817	1276.981	949.655
150.716	13.850	1275.526	948.675
151.731	13.857	1274.488	947.862
152.746	13.934	1273.190	947.248
153.760	13.922	1272.308	946.440
154.775	13.923	1271.025	945.407
155.789	13.944	1270.039	944.713
156.804	13.940	1268.944	943.793
157.819	13.939	1267.991	942.994
158.833	14.090	1266.681	942.794
159.848	14.162	1265.713	942.396
160.862	14.097	1264.663	941.162
161.877	13.941	1263.812	939.565
162.892	13.968	1262.802	938.884
163.906	13.957	1262.403	938.440
164.921	13.949	1261.482	937.627
165.935	13.990	1260.093	936.745
166.950	14.046	1259.726	936.703
167.964	14.115	1258.676	936.229
168.979	14.038	1258.119	935.300
169.994	14.106	1257.013	934.773
171.008	14.147	1256.247	934.354
172.023	14.083	1255.299	933.204
173.037	14.242	1254.423	933.365
174.052	14.115	1253.659	932.003
175.067	14.112	1252.825	931.279
176.081	14.078	1251.630	930.123
177.096	14.162	1250.985	930.030
178.110	14.087	1249.589	928.491
179.125	14.158	1248.229	927.795
180.140	14.112	1247.267	926.740
181.154	14.127	1246.351	926.062
182.169	14.200	1244.841	925.261
183.183	14.256	1243.484	924.482
184.198	14.233	1242.372	923.449
185.213	14.260	1241.289	922.711
186.227	14.243	1240.646	922.055
187.242	14.365	1238.614	921.141
188.256	14.382	1237.868	920.596
189.271	14.345	1237.135	919.767
190.286	14.271	1236.179	918.566
191.300	14.278	1234.983	917.635
192.315	14.193	1234.701	916.873
193.329	14.182	1234.240	916.393
194.344	14.120	1233.855	915.684
195.359	14.345	1232.477	915.817
196.373	14.258	1232.307	915.133
197.388	14.304	1231.646	914.814
198.402	14.507	1231.061	915.412
199.417	14.541	1230.244	914.907
200.432	14.556	1229.512	914.364
201.446	14.523	1228.907	913.654
202.461	14.499	1227.743	912.574
203.475	14.636	1226.714	912.479
204.490	14.482	1225.668	910.782
205.504	14.478	1224.420	909.751
206.519	14.465	1223.317	908.779
207.534	14.579	1221.951	908.304
208.548	14.416	1221.103	906.707
209.563	14.568	1220.208	906.790
210.577	14.641	1219.063	906.253
211.592	14.600	1218.830	905.781
212.607	14.703	1217.556	905.309
213.621	14.719	1216.535	904.559
214.636	14.675	1215.907	903.775
215.650	14.709	1215.063	903.247
216.665	14.658	1214.052	902.143
217.680	14.734	1213.314	901.922
218.694	14.814	1212.051	901.338
219.709	14.744	1211.456	900.437
220.723	14.744	1210.676	899.779
221.738	14.729	1210.415	899.421
222.753	14.888	1209.103	899.226
223.767	14.850	1208.318	898.355
224.782	14.883	1207.751	898.034
225.796	14.954	1206.987	897.765
226.811	14.888	1206.518	896.984
227.826	14.803	1205.794	895.911
228.840	14.916	1205.189	895.987
229.855	14.846	1204.378	894.931
230.869	14.844	1203.356	894.079
231.884	14.861	1202.887	893.743
232.899	14.869	1201.721	892.839
233.913	14.956	1200.727	892.488
234.928	14.914	1200.791	892.234
235.942	14.864	1199.615	891.013
236.957	14.932	1198.774	890.671
237.972	14.850	1198.384	889.865
238.986	14.941	1197.436	889.570
240.001	14.965	1196.823	889.163
241.015	15.014	1195.647	888.471
242.030	14.972	1194.839	887.567
243.045	15.002	1193.987	887.018
244.059	15.095	1193.215	886.856
245.074	15.052	1192.802	886.242
246.088	15.050	1191.729	885.360
247.103	15.035	1191.117	884.746
248.117	15.123	1190.624	884.764
249.132	15.298	1189.460	884.744
250.147	15.253	1188.936	884.039
251.161	15.160	1188.021	882.789
252.176	15.240	1187.320	882.613
253.190	15.364	1186.544	882.609
254.205	15.365	1185.901	882.058
255.220	15.481	1185.281	882.132
256.234	15.394	1184.798	881.235
257.249	15.335	1184.105	880.331
258.263	15.478	1183.192	880.328
259.278	15.413	1182.880	879.675
260.293	15.516	1182.220	879.644
261.307	15.543	1181.602	879.248
262.322	15.580	1180.745	878.729
263.336	15.505	1180.484	878.062
264.351	15.572	1179.464	877.577
265.366	15.531	1178.685	876.707
266.380	15.616	1178.100	876.639
267.395	15.636	1176.968	875.822
268.409	15.582	1176.590	875.183
269.424	15.541	1175.941	874.408
270.439	15.603	1175.069	874.006
271.453	15.526	1174.579	873.162
272.468	15.676	1173.335	872.937
273.482	15.604	1172.653	871.982
274.497	15.660	1172.389	871.999
275.512	15.622	1171.942	871.393
276.526	15.614	1171.182	870.709
277.541	15.695	1169.712	869.957
278.555	15.562	1169.951	869.367
279.570	15.793	1168.508	869.414
280.585	15.673	1167.997	868.335
281.599	15.731	1166.916	867.757
282.614	15.839	1165.759	867.375
283.628	15.778	1164.784	866.258
284.643	15.652	1164.024	864.969
285.657	15.793	1163.028	864.878
286.672	15.717	1162.184	863.784
287.687	15.811	1161.148	863.417
288.701	15.964	1159.842	863.156
289.716	15.889	1159.469	862.418
290.730	15.883	1158.776	861.795
291.745	15.905	1158.203	861.404
292.760	15.943	1157.344	860.882
293.774	15.843	1156.956	860.007
294.789	15.896	1156.556	859.906
295.803	15.946	1155.806	859.528
296.818	15.954	1155.037	858.922
297.833	15.965	1153.933	858.079
298.847	15.990	1153.444	857.766
299.862	16.031	1152.406	857.128
300.876	16.134	1151.787	857.111
301.891	16.074	1151.326	856.389
302.906	16.078	1150.593	855.791
303.920	16.023	1149.634	854.721
304.935	15.969	1149.651	854.385
305.949	16.196	1148.479	854.586
306.964	16.267	1147.431	854.089
307.979	16.157	1147.042	853.170
308.993	16.109	1146.612	852.533
310.008	16.233	1145.477	852.241
311.022	16.201	1144.884	851.561
312.037	16.344	1143.303	851.030
313.052	16.254	1142.445	849.866
314.066	16.189	1141.776	848.963
315.081	16.141	1141.320	848.308
316.095	16.215	1140.382	847.908
317.110	16.154	1139.901	847.171
318.125	16.232	1139.017	846.830
319.139	16.261	1138.273	846.346
320.154	16.214	1137.857	845.726
321.168	16.341	1136.765	845.474
322.183	16.307	1136.425	844.977
323.197	16.286	1136.154	844.594
324.212	16.303	1135.173	843.876
325.227	16.267	1134.478	843.107
326.241	16.277	1134.150	842.835
327.256	16.472	1132.820	842.749
328.270	16.380	1132.089	841.669
329.285	16.354	1131.076	840.713
330.300	16.342	1130.059	839.821
331.314	16.414	1129.456	839.660
332.329	16.310	1128.366	838.258
333.343	16.326	1127.513	837.631
334.358	16.475	1126.408	837.472
335.373	16.492	1125.967	837.153
336.387	16.588	1124.946	836.796
337.402	16.506	1124.366	835.886
338.416	16.531	1123.786	835.506
339.431	16.625	1123.009	835.316
340.446	16.609	1122.378	834.693
341.460	16.698	1121.567	834.457
342.475	16.697	1120.549	833.621
343.489	16.741	1119.634	833.081
344.504	16.771	1118.720	832.474
345.519	16.732	1118.183	831.812
346.533	16.833	1116.819	831.218
347.548	16.824	1116.609	830.942
348.562	16.818	1115.598	830.087
349.577	16.742	1115.183	829.334
350.592	16.756	1114.068	828.500
351.606	16.773	1113.426	828.033
352.621	16.828	1112.714	827.700
353.635	16.764	1111.936	826.734
354.650	16.829	1111.455	826.620
355.665	16.922	1110.468	826.266
356.679	16.849	1109.856	825.383
357.694	16.759	1110.019	824.993
358.708	16.822	1108.938	824.424
359.723	16.884	1108.108	824.034
360.738	16.842	1107.504	823.306
361.752	16.842	1107.243	823.039
362.767	16.981	1106.606	823.166
363.781	16.878	1105.643	821.878
364.796	16.963	1104.797	821.590
365.810	16.936	1104.575	821.223
366.825	17.042	1103.785	821.074
367.840	17.066	1103.229	820.704
368.854	17.135	1102.430	820.372
369.869	17.117	1101.752	819.706
370.883	17.135	1100.720	818.953
371.898	17.183	1100.088	818.641
372.913	17.106	1099.631	817.858
373.927	17.259	1098.926	817.999
374.942	17.262	1098.506	817.630
375.956	17.176	1098.066	816.816
376.971	17.296	1096.835	816.404
377.986	17.255	1096.726	816.051
379.000	17.279	1096.515	815.936
380.015	17.333	1095.790	815.583
381.029	17.259	1094.904	814.499
382.044	17.362	1094.177	814.380
383.059	17.391	1093.399	813.867
384.073	17.435	1092.310	813.196
385.088	17.533	1091.257	812.805
386.102	17.438	1090.443	811.677
387.117	17.387	1089.589	810.727
388.132	17.475	1088.832	810.511
389.146	17.335	1088.206	809.306
390.161	17.316	1087.463	808.590
391.175	17.252	1087.113	807.953
392.190	17.465	1085.876	807.975
393.205	17.478	1085.070	807.365
394.219	17.436	1083.989	806.292
395.234	17.476	1083.191	805.813
396.248	17.408	1082.544	804.941
397.263	17.439	1081.614	804.324
398.278	17.434	1080.915	803.711
399.292	17.437	1080.075	803.028
400.307	17.547	1079.464	803.023
401.321	17.491	1078.648	802.079
402.336	17.475	1077.874	801.358
403.350	17.538	1077.760	801.500
404.365	17.612	1076.543	800.873
405.380	17.606	1076.245	800.549
406.394	17.654	1075.017	799.793
407.409	17.603	1074.280	798.934
408.423	17.659	1073.648	798.653
409.438	17.720	1073.154	798.501
410.453	17.651	1072.468	797.596
411.467	17.797	1071.451	797.453
412.482	17.791	1071.164	797.144
413.496	17.846	1070.037	796.491
414.511	17.900	1069.548	796.305
415.526	17.856	1069.180	795.758
416.540	17.920	1069.054	795.892
417.555	17.922	1068.250	795.233
418.569	17.917	1067.146	794.316
419.584	17.879	1066.757	793.780
420.599	17.869	1066.672	793.598
421.613	109.515	1332.921	1491.717
422.628	101.288	1371.643	1491.801
