DTS Sentinel unit serial number:	SN413079Multiplexer serial number:	ORYXHardware model number:	OX4-SRSoftware version number:	ORYX F/W v4.00 Oryx Data Collector v3.7.2.0data status	okinstallation	princeton_trtdifferential loss correction	single-endedforward channel	channel 2reverse channel	N/Adate	2019/09/12time	10:57:11forward acquisition time	60.00reverse acquisition time	0.00gamma	496.2192k internal	0.2306k external	0.2306temperature offset calibration	1.0067default loss term (dB/km)	0.3790temperature slope calibration	1.0000multiplexer offset coefficient	1.0000multiplexer slope coefficient	1.0000fibre end	0.00T internal ref (°C)	38.30T ext. ref 1 (°C)	1.95T ext. ref 2 (°C)	36.45length (m)	temperature (°C)	Stokes	anti-Stokes-747.200	94.130	0.294	-0.340
-746.185	-200.000	0.010	0.321
-745.171	32.303	0.198	0.174
-744.156	-4.140	0.099	0.069
-743.142	51.661	0.369	0.357
-742.127	-200.000	-0.061	0.341
-741.112	84.470	-0.104	0.116
-740.098	57.942	-0.237	0.236
-739.083	-200.000	-0.014	0.130
-738.069	629.997	-0.120	0.308
-737.054	-46.000	-0.222	-0.111
-736.039	224.650	-0.212	0.349
-735.025	-93.777	-0.417	0.117
-734.010	17.162	0.258	-0.208
-732.996	800.000	-0.016	-0.069
-731.981	-105.960	-0.419	0.096
-730.966	6.292	0.107	0.081
-729.952	-98.695	-0.345	-0.090
-728.937	385.057	-0.037	-0.077
-727.923	96.225	-0.213	-0.248
-726.908	-200.000	-0.004	0.121
-725.894	163.099	-0.118	0.168
-724.879	415.262	-0.072	0.156
-723.864	-77.491	0.234	0.083
-722.850	-120.790	0.192	-0.033
-721.835	-96.579	0.215	0.058
-720.821	-200.000	-0.010	-0.166
-719.806	-88.341	-0.091	-0.028
-718.791	136.561	-0.139	-0.184
-717.777	356.305	0.044	-0.089
-716.762	494.288	0.077	0.180
-715.748	-31.628	-0.238	0.136
-714.733	-200.000	0.043	-0.384
-713.718	405.302	-0.129	-0.277
-712.704	-62.946	-0.326	0.137
-711.689	-200.000	0.010	-0.149
-710.675	307.578	-0.181	-0.343
-709.660	636.336	0.013	0.034
-708.645	-37.573	-0.093	0.051
-707.631	-29.516	0.181	0.105
-706.616	-18.800	-0.121	0.077
-705.602	796.921	0.025	-0.071
-704.587	-68.291	-0.158	-0.062
-703.572	-132.686	-0.314	0.041
-702.558	227.820	-0.071	0.118
-701.543	-118.007	-0.439	-0.080
-700.529	-200.000	0.003	0.137
-699.514	-139.823	0.347	-0.037
-698.499	17.176	0.190	0.153
-697.485	-107.043	0.257	0.058
-696.470	353.517	-0.045	0.091
-695.456	129.313	-0.108	0.139
-694.441	800.000	-0.074	-0.213
-693.426	17.298	-0.121	0.097
-692.412	-86.049	-0.184	0.058
-691.397	-200.000	-0.017	-0.079
-690.383	-121.529	-0.315	0.053
-689.368	341.076	-0.088	0.175
-688.354	-83.933	-0.127	0.041
-687.339	800.000	0.066	0.219
-686.324	-200.000	0.000	-0.247
-685.310	800.000	0.055	-0.181
-684.295	-200.000	0.010	0.175
-683.281	25.052	-0.125	-0.105
-682.266	-85.248	-0.142	-0.045
-681.251	108.402	0.127	0.154
-680.237	800.000	-0.023	-0.066
-679.222	-29.502	0.316	0.183
-678.208	-200.000	-0.033	-0.148
-677.193	-200.000	0.001	0.007
-676.178	114.216	-0.207	0.256
-675.164	-148.831	0.216	-0.018
-674.149	332.875	0.170	0.333
-673.135	-149.006	-0.101	0.008
-672.120	-200.000	0.010	-0.227
-671.105	-62.953	0.124	-0.052
-670.091	800.000	-0.043	0.135
-669.076	25.511	0.114	-0.096
-668.062	-7.908	-0.192	-0.131
-667.047	-98.284	0.075	0.020
-666.032	-76.077	-0.373	0.134
-665.018	-200.000	0.019	0.223
-664.003	-200.000	0.009	0.076
-662.989	67.304	-0.148	-0.153
-661.974	104.346	-0.338	0.404
-660.959	800.000	0.071	-0.263
-659.945	18.241	-0.056	-0.045
-658.930	-61.586	0.091	-0.039
-657.916	3.595	-0.115	0.085
-656.901	-75.813	-0.205	0.074
-655.886	800.000	0.065	0.261
-654.872	800.000	-0.011	0.038
-653.857	75.513	0.154	0.164
-652.843	24.697	0.084	0.071
-651.828	129.129	-0.108	-0.139
-650.814	-200.000	-0.071	0.335
-649.799	1.379	-0.145	0.106
-648.784	107.801	0.099	0.119
-647.770	176.922	0.287	-0.423
-646.755	-0.254	-0.073	-0.052
-645.741	-200.000	0.039	0.188
-644.726	800.000	-0.081	0.262
-643.711	-86.437	0.245	-0.076
-642.697	280.634	-0.110	0.199
-641.682	66.331	-0.093	0.096
-640.668	466.733	-0.071	-0.162
-639.653	800.000	0.093	0.268
-638.638	-100.616	0.173	-0.043
-637.624	-46.231	-0.212	0.106
-636.609	-200.000	-0.061	-0.355
-635.595	331.645	0.108	0.212
-634.580	-34.622	-0.365	0.202
-633.565	658.817	0.046	-0.121
-632.551	-82.056	-0.022	0.007
-631.536	-69.445	-0.075	-0.029
-630.522	-9.650	-0.158	0.107
-629.507	800.000	0.027	-0.093
-628.492	270.838	0.124	0.221
-627.478	246.392	-0.074	0.126
-626.463	-200.000	0.000	0.136
-625.449	212.052	0.092	0.146
-624.434	4.538	-0.277	-0.206
-623.419	-200.000	0.061	-0.426
-622.405	59.422	0.071	-0.071
-621.390	408.315	0.009	-0.019
-620.376	411.979	0.116	-0.249
-619.361	611.571	0.031	-0.079
-618.346	-180.114	0.030	0.001
-617.332	38.577	-0.122	-0.110
-616.317	-6.954	-0.149	-0.103
-615.303	800.000	-0.047	-0.153
-614.288	800.000	-0.041	-0.138
-613.273	60.994	-0.045	-0.045
-612.259	327.650	-0.168	0.326
-611.244	-74.435	-0.574	-0.210
-610.230	536.852	-0.133	0.319
-609.215	-151.817	-0.042	-0.003
-608.201	80.948	-0.102	-0.112
-607.186	800.000	-0.049	0.150
-606.171	-119.520	-0.211	-0.037
-605.157	374.594	-0.080	-0.165
-604.142	-157.313	0.146	0.009
-603.128	-41.915	-0.299	0.155
-602.113	754.636	-0.039	0.108
-601.098	-200.000	0.001	-0.082
-600.084	-85.670	0.036	-0.011
-599.069	34.456	0.172	-0.152
-598.055	-89.239	-0.094	0.028
-597.040	184.187	-0.087	-0.130
-596.025	295.362	0.197	-0.365
-595.011	65.396	-0.162	-0.165
-593.996	484.924	-0.053	0.123
-592.982	249.161	-0.088	-0.151
-591.967	-22.149	0.076	0.046
-590.952	-67.366	0.236	0.094
-589.938	-6.731	0.247	-0.170
-588.923	800.000	0.087	-0.273
-587.909	-200.000	0.041	0.186
-586.894	-200.000	0.003	-0.118
-585.879	683.480	-0.050	0.133
-584.865	320.104	-0.223	-0.427
-583.850	14.270	-0.090	0.071
-582.836	201.434	-0.037	-0.057
-581.821	-77.937	-0.155	0.054
-580.806	800.000	0.060	-0.207
-579.792	800.000	-0.032	0.112
-578.777	-103.748	-0.071	-0.017
-577.763	160.935	-0.200	-0.282
-576.748	-200.000	-0.043	0.211
-575.733	-43.415	0.205	-0.105
-574.719	48.776	0.115	-0.109
-573.704	89.702	-0.188	-0.212
-572.690	548.520	0.167	-0.403
-571.675	94.173	0.081	-0.093
-570.661	-200.000	0.044	0.432
-569.646	-200.000	0.083	0.377
-568.631	182.689	0.126	-0.187
-567.617	49.159	-0.412	-0.391
-566.602	-15.130	0.302	0.195
-565.588	-147.742	-0.200	0.017
-564.573	-18.312	0.057	-0.036
-563.558	-79.775	0.421	0.143
-562.544	-92.831	0.203	-0.057
-561.529	-122.741	-0.109	-0.018
-560.515	210.934	0.111	0.176
-559.500	-200.000	-0.004	-0.201
-558.485	-77.016	0.017	0.006
-557.471	-100.500	0.308	-0.077
-556.456	800.000	0.069	0.298
-555.442	-200.000	0.023	-0.235
-554.427	-200.000	0.018	0.499
-553.412	104.355	0.036	-0.043
-552.398	-21.710	-0.184	-0.113
-551.383	82.605	-0.123	0.135
-550.369	-63.001	-0.126	0.052
-549.354	323.370	0.018	0.034
-548.339	-200.000	-0.086	-0.388
-547.325	-200.000	-0.057	-0.380
-546.310	118.718	-0.196	-0.245
-545.296	27.165	0.191	0.162
-544.281	6.410	0.097	-0.073
-543.266	800.000	0.061	-0.213
-542.252	-39.456	-0.172	0.091
-541.237	800.000	0.078	0.295
-540.223	-200.000	0.009	0.251
-539.208	720.905	0.036	0.095
-538.193	564.808	0.106	-0.260
-537.179	249.852	0.047	-0.081
-536.164	94.013	0.163	0.186
-535.150	-200.000	-0.018	0.154
-534.135	-13.286	0.218	0.143
-533.121	67.170	-0.095	-0.098
-532.106	-200.000	0.051	0.282
-531.091	183.285	-0.137	-0.204
-530.077	98.488	0.103	0.119
-529.062	326.470	0.093	-0.180
-528.048	166.177	-0.065	0.093
-527.033	-53.908	0.262	-0.120
-526.018	-99.106	-0.252	0.064
-525.004	-134.780	-0.204	0.025
-523.989	11.607	-0.050	-0.039
-522.975	-113.885	0.264	0.052
-521.960	-99.601	-0.129	-0.033
-520.945	800.000	-0.148	-0.414
-519.931	422.852	0.144	0.312
-518.916	8.505	0.221	-0.168
-517.902	563.627	-0.102	0.249
-516.887	506.292	0.101	0.235
-515.872	-12.122	-0.235	0.155
-514.858	-200.000	0.029	0.367
-513.843	800.000	-0.058	0.208
-512.829	-200.000	-0.002	0.076
-511.814	800.000	-0.036	0.125
-510.799	-130.350	0.257	0.035
-509.785	81.283	0.197	-0.215
-508.770	354.583	-0.034	0.068
-507.756	-83.387	0.575	-0.186
-506.741	-77.394	-0.232	-0.081
-505.726	-1.966	-0.199	-0.141
-504.712	38.206	-0.046	0.041
-503.697	-200.000	-0.002	-0.244
-502.683	239.418	-0.180	0.302
-501.668	56.622	0.132	-0.130
-500.653	-4.610	-0.091	0.063
-499.639	-200.000	0.020	-0.174
-498.624	-200.000	-0.055	0.307
-497.610	29.161	0.168	0.144
-496.595	485.029	-0.080	0.182
-495.581	-200.000	-0.003	-0.074
-494.566	-200.000	-0.002	0.368
-493.551	121.340	0.129	0.162
-492.537	-28.200	0.176	0.103
-491.522	108.460	-0.198	0.238
-490.508	-83.740	-0.244	0.079
-489.493	-200.000	-0.030	-0.318
-488.478	47.393	-0.194	-0.182
-487.464	-200.000	-0.022	0.140
-486.449	-172.617	-0.087	-0.003
-485.435	176.427	-0.176	0.257
-484.420	-66.040	0.213	-0.086
-483.405	97.213	-0.077	-0.089
-482.391	800.000	-0.016	-0.055
-481.376	105.397	-0.156	-0.186
-480.362	55.588	-0.087	-0.085
-479.347	20.253	0.198	-0.161
-478.332	208.444	0.060	0.094
-477.318	-155.375	0.125	-0.008
-476.303	-39.532	0.074	0.039
-475.289	-71.355	-0.219	-0.083
-474.274	-200.000	-0.020	-0.100
-473.259	800.000	-0.102	-0.425
-472.245	800.000	0.143	0.412
-471.230	759.560	-0.059	0.162
-470.216	-21.616	-0.322	-0.197
-469.201	96.678	0.080	-0.093
-468.186	-44.788	0.057	-0.029
-467.172	161.430	0.201	-0.282
-466.157	-200.000	-0.024	0.142
-465.143	-10.462	0.241	0.161
-464.128	-200.000	-0.057	-0.430
-463.113	-200.000	0.012	0.085
-462.099	-188.785	-0.282	0.003
-461.084	-200.000	-0.010	-0.129
-460.070	525.761	0.042	-0.099
-459.055	187.270	-0.278	-0.416
-458.040	549.489	0.075	-0.182
-457.026	800.000	0.068	0.224
-456.011	800.000	-0.058	-0.244
-454.997	280.984	0.083	0.149
-453.982	-92.120	0.263	-0.075
-452.968	503.515	0.122	-0.285
-451.953	-157.758	0.227	-0.014
-450.938	-59.269	0.158	0.068
-449.924	-3.093	0.134	-0.094
-448.909	-153.960	0.210	0.014
-447.895	-52.709	0.124	-0.058
-446.880	503.978	-0.040	0.093
-445.865	-89.729	0.408	0.120
-444.851	139.874	0.205	-0.271
-443.836	-138.945	-0.247	-0.027
-442.822	-30.947	-0.329	0.187
-441.807	-200.000	-0.058	-0.316
-440.792	-64.276	-0.137	-0.056
-439.778	54.506	0.129	0.125
-438.763	-200.000	-0.019	-0.162
-437.749	-123.167	-0.157	-0.025
-436.734	-200.000	0.012	0.225
-435.719	-200.000	0.024	0.162
-434.705	-200.000	0.046	-0.241
-433.690	-70.220	-0.039	0.015
-432.676	797.423	0.019	0.052
-431.661	-140.039	-0.310	-0.033
-430.646	-200.000	0.015	0.174
-429.632	203.741	0.118	-0.184
-428.617	-52.490	-0.221	0.103
-427.603	800.000	0.064	0.217
-426.588	-200.000	-0.006	0.053
-425.573	-149.039	0.277	-0.022
-424.559	73.518	0.185	0.194
-423.544	78.390	0.310	0.333
-422.530	254.584	-0.121	0.208
-421.515	-71.134	0.153	0.058
-420.500	800.000	-0.011	0.035
-419.486	437.993	0.091	-0.200
-418.471	-46.646	-0.233	0.114
-417.457	-77.996	-0.168	-0.058
-416.442	201.357	-0.188	0.291
-415.428	341.913	-0.029	-0.056
-414.413	-200.000	-0.041	-0.181
-413.398	189.286	-0.149	-0.224
-412.384	800.000	-0.078	-0.262
-411.369	441.058	0.117	0.257
-410.355	-200.000	-0.089	0.000
-409.340	149.709	-0.271	-0.368
-408.325	-171.515	-0.485	-0.016
-407.311	-58.422	-0.194	-0.085
-406.296	34.162	-0.084	0.073
-405.282	83.367	-0.224	-0.245
-404.267	-200.000	0.015	0.239
-403.252	-200.000	0.057	-0.290
-402.238	-99.431	-0.313	0.079
-401.223	800.000	-0.048	-0.209
-400.209	-200.000	0.027	0.196
-399.194	19.564	-0.122	0.099
-398.179	-90.648	0.245	0.071
-397.165	800.000	0.088	0.252
-396.150	572.959	-0.101	-0.246
-395.136	-97.358	-0.092	0.024
-394.121	-74.707	-0.351	0.127
-393.106	-200.000	-0.005	0.192
-392.092	27.245	0.187	-0.158
-391.077	800.000	0.040	-0.174
-390.063	-142.448	-0.313	-0.031
-389.048	800.000	-0.074	-0.290
-388.033	169.547	-0.075	-0.108
-387.019	-152.543	0.102	0.007
-386.004	397.769	0.061	-0.128
-384.990	-200.000	-0.013	-0.290
-383.975	-99.466	-0.050	-0.013
-382.960	257.980	0.050	-0.086
-381.946	362.166	0.087	-0.175
-380.931	90.980	0.108	0.121
-379.917	23.850	-0.085	-0.070
-378.902	-200.000	0.039	-0.195
-377.888	-133.888	0.302	0.038
-376.873	19.281	0.115	0.093
-375.858	-200.000	-0.001	0.042
-374.844	61.704	-0.242	0.242
-373.829	251.774	-0.089	0.152
-372.815	-51.966	-0.071	0.033
-371.800	-37.156	-0.106	0.057
-370.785	1.437	0.276	-0.199
-369.771	145.837	0.096	0.130
-368.756	-200.000	-0.056	-0.300
-367.742	208.109	0.096	-0.150
-366.727	-106.431	-0.355	-0.079
-365.712	113.381	-0.356	0.434
-364.698	-200.000	-0.013	0.115
-363.683	-155.130	-0.213	-0.014
-362.669	468.406	-0.006	0.014
-361.654	-20.265	0.131	0.081
-360.639	-36.654	-0.165	-0.089
-359.625	292.307	0.071	-0.130
-358.610	-200.000	-0.008	0.121
-357.596	-130.346	0.213	0.029
-356.581	36.037	-0.110	-0.097
-355.566	-200.000	-0.003	0.036
-354.552	800.000	0.059	-0.200
-353.537	-200.000	0.012	0.232
-352.523	152.204	-0.086	0.118
-351.508	-200.000	0.006	-0.310
-350.493	-141.992	0.047	-0.005
-349.479	-84.815	0.057	0.018
-348.464	284.069	0.057	0.102
-347.450	163.830	-0.134	-0.189
-346.435	49.844	-0.122	0.115
-345.420	113.749	-0.108	-0.132
-344.406	37.156	-0.183	0.162
-343.391	-200.000	0.007	-0.364
-342.377	800.000	0.053	0.193
-341.362	-113.250	0.330	0.065
-340.348	402.295	0.178	-0.374
-339.333	-200.000	-0.007	-0.250
-338.318	-147.019	-0.215	0.018
-337.304	-158.747	-0.160	0.009
-336.289	-173.574	-0.194	0.006
-335.275	800.000	-0.101	0.336
-334.260	-4.320	0.278	0.193
-333.245	-73.059	0.375	0.138
-332.231	-146.618	0.344	-0.030
-331.216	-82.002	-0.147	-0.048
-330.202	-69.062	-0.270	-0.104
-329.187	-14.731	-0.156	0.100
-328.172	-200.000	0.017	0.380
-327.158	800.000	-0.025	0.096
-326.143	248.315	0.047	-0.080
-325.129	800.000	-0.094	0.277
-324.114	-64.423	-0.333	0.136
-323.099	-34.348	-0.217	0.119
-322.085	800.000	0.026	0.099
-321.070	-1.112	0.102	-0.072
-320.056	-168.886	0.243	-0.009
-319.041	800.000	-0.049	-0.149
-318.026	30.946	-0.283	0.242
-317.012	5.721	-0.384	0.284
-315.997	-91.892	-0.188	0.053
-314.983	-58.894	0.468	0.202
-313.968	403.937	0.088	-0.186
-312.953	-200.000	-0.012	-0.255
-311.939	-121.807	-0.296	-0.049
-310.924	-149.662	0.184	-0.015
-309.910	107.905	0.153	-0.182
-308.895	-116.940	0.328	-0.060
-307.880	-76.551	0.423	0.148
-306.866	-99.994	-0.339	0.085
-305.851	-120.176	0.200	0.034
-304.837	-23.966	-0.153	0.091
-303.822	41.936	0.278	0.252
-302.807	-156.038	0.253	0.016
-301.793	53.953	0.092	-0.088
-300.778	-17.785	0.067	-0.042
-299.764	42.128	0.174	0.158
-298.749	323.441	-0.139	-0.265
-297.735	398.380	0.149	-0.311
-296.720	482.406	0.155	-0.353
-295.705	-104.244	-0.198	0.046
-294.691	7.269	-0.039	0.029
-293.676	187.369	-0.116	0.173
-292.662	243.647	-0.129	-0.217
-291.647	50.156	0.211	-0.199
-290.632	-24.958	-0.068	-0.040
-289.618	800.000	-0.064	-0.242
-288.603	108.221	-0.054	0.065
-287.589	-67.099	-0.316	-0.125
-286.574	436.923	0.084	-0.183
-285.559	226.506	0.074	-0.121
-284.545	-200.000	0.041	0.235
-283.530	800.000	0.092	-0.351
-282.516	-65.545	0.385	0.154
-281.501	11.545	0.325	0.249
-280.486	665.009	0.111	0.285
-279.472	-107.553	-0.381	-0.083
-278.457	145.975	-0.231	-0.309
-277.443	-131.211	0.444	0.059
-276.428	251.870	-0.107	-0.182
-275.413	-13.614	-0.256	-0.165
-274.399	77.874	0.139	-0.148
-273.384	23.060	0.089	-0.073
-272.370	-88.521	-0.097	0.029
-271.355	-200.000	-0.026	-0.118
-270.340	62.340	0.065	0.065
-269.326	274.850	0.176	0.311
-268.311	-111.016	0.133	-0.027
-267.297	-196.542	0.075	0.001
-266.282	-175.051	-0.112	-0.003
-265.267	43.440	-0.225	-0.205
-264.253	800.000	0.041	-0.142
-263.238	-200.000	-0.003	-0.131
-262.224	-78.960	0.299	0.102
-261.209	-103.543	-0.211	0.049
-260.195	800.000	-0.071	0.200
-259.180	-17.352	0.226	0.142
-258.165	180.965	0.044	-0.065
-257.151	-47.723	0.085	-0.041
-256.136	361.612	0.035	-0.070
-255.122	-17.439	0.107	0.067
-254.107	-200.000	-0.006	0.292
-253.092	-200.000	-0.004	0.171
-252.078	117.838	-0.201	0.247
-251.063	108.015	0.218	-0.259
-250.049	336.393	-0.085	0.165
-249.034	248.840	-0.252	0.427
-248.019	197.190	-0.094	0.143
-247.005	800.000	-0.137	0.427
-245.990	-97.980	0.218	-0.056
-244.976	24.281	0.342	0.282
-243.961	-200.000	0.042	0.270
-242.946	496.849	0.030	0.069
-241.932	-119.506	0.141	0.024
-240.917	-12.913	0.206	-0.134
-239.903	-200.000	-0.048	-0.300
-238.888	800.000	-0.023	0.064
-237.873	-160.808	0.205	0.011
-236.859	24.095	-0.253	-0.208
-235.844	800.000	0.079	0.276
-234.830	800.000	0.076	-0.257
-233.815	-31.868	-0.070	-0.039
-232.800	800.000	0.060	-0.178
-231.786	-157.563	0.440	0.026
-230.771	-200.000	0.002	0.062
-229.757	15.286	0.108	-0.084
-228.742	800.000	-0.063	0.185
-227.727	397.523	0.027	0.056
-226.713	-51.254	-0.193	0.090
-225.698	-181.064	0.201	-0.004
-224.684	-137.947	0.335	-0.037
-223.669	-117.893	-0.079	0.014
-222.655	-200.000	-0.134	0.668
-221.640	-112.818	0.307	-0.061
-220.625	480.806	0.093	0.210
-219.611	130.214	-0.190	-0.242
-218.596	-29.509	0.170	0.097
-217.582	217.584	0.023	0.036
-216.567	-58.944	0.257	-0.111
-215.552	-200.000	-0.032	0.230
-214.538	-200.000	-0.043	-0.323
-213.523	-200.000	0.072	-0.455
-212.509	-200.000	0.018	-0.131
-211.494	-37.493	-0.041	-0.022
-210.479	-1.337	0.263	-0.185
-209.465	-94.892	-0.211	0.057
-208.450	-23.394	-0.227	0.136
-207.436	-18.309	-0.395	0.246
-206.421	19.105	-0.278	0.222
-205.406	800.000	0.083	0.249
-204.392	38.872	-0.150	-0.134
-203.377	800.000	-0.032	0.117
-202.363	-36.214	0.087	0.047
-201.348	-111.293	0.136	0.028
-200.333	-176.115	-0.241	-0.006
-199.319	176.316	-0.014	0.020
-198.304	-133.824	0.263	-0.033
-197.290	-124.059	-0.265	0.041
-196.275	-200.000	-0.016	0.132
-195.260	333.166	0.188	0.362
-194.246	-6.910	-0.272	-0.184
-193.231	408.397	0.034	-0.071
-192.217	800.000	-0.025	0.092
-191.202	367.774	-0.169	-0.340
-190.187	-10.815	-0.129	-0.085
-189.173	146.498	0.132	0.177
-188.158	-200.000	-0.049	0.391
-187.144	-2.693	-0.215	-0.149
-186.129	10.496	0.199	-0.151
-185.114	-8.373	-0.179	0.120
-184.100	-200.000	0.003	0.258
-183.085	-107.760	-0.124	0.027
-182.071	771.671	0.040	0.108
-181.056	-31.670	-0.213	0.119
-180.042	698.790	-0.073	0.190
-179.027	-69.244	-0.124	-0.047
-178.012	127.969	0.247	-0.313
-176.998	-153.666	0.117	0.008
-175.983	62.991	0.126	0.126
-174.969	-11.829	0.144	-0.094
-173.954	-81.184	-0.334	-0.110
-172.939	48.197	0.263	-0.245
-171.925	77.121	0.218	-0.231
-170.910	-155.994	0.031	0.002
-169.896	-148.553	-0.309	0.025
-168.881	-138.461	0.215	-0.024
-167.866	-30.117	-0.145	0.082
-166.852	-200.000	0.030	0.189
-165.837	-200.000	0.022	0.322
-164.823	61.620	0.263	0.261
-163.808	-107.664	-0.077	0.017
-162.793	130.080	0.257	-0.328
-161.779	-168.817	0.141	-0.005
-160.764	-146.677	0.374	0.032
-159.750	458.613	0.051	0.112
-158.735	151.612	-0.127	0.172
-157.720	-30.772	0.265	0.149
-156.706	800.000	-0.092	-0.293
-155.691	-200.000	-0.003	0.330
-154.677	116.315	-0.082	0.100
-153.662	-0.740	0.282	-0.199
-152.647	-162.242	-0.155	0.008
-151.633	-200.000	0.013	-0.283
-150.618	-82.538	0.132	0.043
-149.604	-57.616	-0.233	-0.101
-148.589	-12.369	0.471	0.306
-147.574	-200.000	0.006	0.124
-146.560	117.830	0.255	0.312
-145.545	-200.000	0.029	0.174
-144.531	-129.482	0.222	0.031
-143.516	21.060	-0.349	0.282
-142.502	64.805	-0.020	0.020
-141.487	-105.670	0.110	-0.025
-140.472	-67.307	0.243	-0.095
-139.458	709.311	-0.094	0.246
-138.443	11.876	0.167	-0.127
-137.429	-200.000	0.033	-0.207
-136.414	121.570	0.137	-0.170
-135.399	70.424	0.066	-0.068
-134.385	-75.005	0.260	-0.092
-133.370	-200.000	-0.003	0.110
-132.356	-200.000	-0.007	-0.196
-131.341	800.000	0.130	0.382
-130.326	-15.674	0.258	0.163
-129.312	195.539	0.236	-0.356
-128.297	-49.129	0.101	0.048
-127.283	444.977	-0.096	-0.210
-126.268	194.957	0.100	-0.151
-125.253	-21.384	-0.155	-0.094
-124.239	-55.621	-0.166	-0.074
-123.224	-146.163	0.274	0.024
-122.210	304.830	0.214	0.394
-121.195	-101.937	0.323	0.077
-120.180	158.319	0.083	-0.114
-119.166	106.243	-0.159	-0.188
-118.151	-75.847	0.413	-0.145
-117.137	350.510	-0.008	-0.016
-116.122	-200.000	0.029	0.459
-115.107	-135.522	-0.262	-0.031
-114.093	-93.774	0.327	-0.090
-113.078	-157.000	-0.152	0.009
-112.064	160.380	0.292	0.405
-111.049	99.384	-0.235	-0.270
-110.034	-200.000	-0.057	0.578
-109.020	604.042	0.110	-0.272
-108.005	129.125	0.182	-0.230
-106.991	129.742	-0.167	0.212
-105.976	-62.580	0.207	-0.085
-104.962	-200.000	-0.008	-0.268
-103.947	124.450	0.139	-0.174
-102.932	-7.554	0.210	0.141
-101.918	213.886	0.048	-0.075
-100.903	170.466	0.219	0.311
-99.889	800.000	0.029	-0.110
-98.874	84.259	0.239	0.259
-97.859	-200.000	0.041	0.290
-96.845	800.000	-0.114	-0.328
-95.830	7.362	-0.230	-0.170
-94.816	122.212	0.239	-0.296
-93.801	800.000	0.081	0.330
-92.786	-50.090	0.054	0.025
-91.772	-71.896	0.124	-0.046
-90.757	24.345	0.147	0.121
-89.743	-129.666	0.075	-0.010
-88.728	-172.585	0.244	0.008
-87.713	42.801	-0.085	-0.077
-86.699	27.939	-0.114	0.095
-85.684	-106.952	0.044	0.010
-84.670	-200.000	-0.020	-0.183
-83.655	-200.000	-0.027	-0.186
-82.640	-19.624	0.244	0.150
-81.626	48.221	0.162	-0.150
-80.611	227.193	-0.143	-0.230
-79.597	-119.320	0.125	-0.022
-78.582	-50.823	-0.056	0.026
-77.567	272.651	-0.109	-0.191
-76.553	-81.447	-0.458	-0.149
-75.538	62.342	0.410	-0.405
-74.524	-58.925	0.126	-0.054
-73.509	88.666	0.134	0.147
-72.494	-200.000	-0.064	0.314
-71.480	-144.113	-0.173	-0.016
-70.465	800.000	-0.043	0.152
-69.451	800.000	0.055	-0.163
-68.436	-200.000	0.016	-0.124
-67.422	-108.253	-0.112	0.024
-66.407	-200.000	0.029	0.163
-65.392	54.123	-0.178	0.170
-64.378	28.635	0.184	-0.154
-63.363	800.000	0.145	0.509
-62.349	343.114	-0.089	0.174
-61.334	50.088	-0.712	-0.666
-60.319	59.209	0.169	0.164
-59.305	-200.000	-0.150	-0.792
-58.290	800.000	0.268	0.875
-57.276	727.015	0.573	1.514
-56.261	-200.000	81.791	492.804
-55.246	473.317	1376.097	3071.270
-54.232	144.927	2609.169	3454.507
-53.217	105.740	2361.746	2765.586
-52.203	47.098	1966.691	1811.848
-51.188	41.426	1751.868	1569.411
-50.173	38.696	1706.317	1507.577
-49.159	53.022	1744.961	1653.256
-48.144	57.159	1763.050	1702.467
-47.130	41.432	1724.254	1544.468
-46.115	38.387	1710.316	1508.489
-45.100	38.101	1706.149	1502.555
-44.086	38.179	1703.684	1500.917
-43.071	38.142	1700.546	1497.811
-42.057	38.144	1698.351	1495.835
-41.042	38.198	1695.799	1493.943
-40.027	38.161	1693.880	1491.908
-39.013	38.169	1692.054	1490.302
-37.998	38.079	1690.024	1487.766
-36.984	38.209	1688.865	1487.680
-35.969	38.317	1687.555	1487.286
-34.954	38.407	1685.695	1486.274
-33.940	38.323	1683.945	1484.034
-32.925	38.318	1682.182	1482.384
-31.911	38.202	1680.478	1479.945
-30.896	38.380	1678.512	1479.499
-29.881	38.339	1676.831	1477.654
-28.867	38.350	1675.471	1476.476
-27.852	38.397	1673.989	1475.465
-26.838	38.375	1672.297	1473.751
-25.823	38.273	1671.299	1472.049
-24.809	38.448	1669.415	1471.646
-23.794	38.347	1668.250	1469.801
-22.779	38.400	1666.400	1468.509
-21.765	38.315	1665.353	1466.887
-20.750	38.270	1663.184	1464.583
-19.736	38.394	1661.815	1464.252
-18.721	38.260	1660.729	1462.229
-17.706	38.280	1658.906	1460.716
-16.692	38.222	1657.817	1459.269
-15.677	38.233	1656.037	1457.726
-14.663	38.331	1654.581	1457.114
-13.648	38.330	1653.175	1455.814
-12.633	38.319	1651.334	1454.054
-11.619	38.370	1649.645	1452.883
-10.604	38.352	1648.126	1451.354
-9.590	38.221	1647.116	1449.438
-8.575	38.231	1645.658	1448.171
-7.560	38.284	1644.627	1447.601
-6.546	38.340	1643.267	1446.757
-5.531	38.258	1641.969	1444.953
-4.517	38.227	1640.867	1443.695
-3.502	38.291	1640.044	1443.388
-2.487	38.451	1638.078	1442.781
-1.473	38.451	1626.947	1432.921
-0.458	36.261	1607.883	1400.201
0.556	32.762	1607.309	1367.220
1.571	30.235	1632.167	1369.612
2.586	29.371	1645.917	1374.589
3.600	25.343	1589.505	1298.301
4.615	13.658	1470.086	1122.032
5.629	3.778	1397.479	1002.673
6.644	1.987	1388.304	984.455
7.659	2.067	1386.314	983.469
8.673	1.918	1385.755	982.029
9.688	1.809	1383.751	979.818
10.702	1.506	1380.989	975.834
11.717	5.170	1389.022	1005.046
12.731	16.206	1409.713	1091.692
13.746	24.788	1425.088	1159.381
14.761	26.441	1426.490	1171.135
15.775	26.681	1425.854	1172.059
16.790	26.736	1425.359	1171.901
17.804	26.785	1424.712	1171.584
18.819	27.001	1424.895	1173.026
19.834	27.061	1423.974	1172.553
20.848	27.152	1423.011	1172.243
21.863	27.122	1422.205	1171.281
22.877	27.091	1421.410	1170.321
23.892	27.140	1420.399	1169.706
24.907	27.107	1419.561	1168.698
25.921	27.086	1418.755	1167.793
26.936	27.087	1417.621	1166.769
27.950	27.125	1416.585	1166.053
28.965	26.992	1415.934	1164.563
29.980	27.093	1413.965	1163.487
30.994	27.080	1412.808	1162.348
32.009	27.077	1412.155	1161.687
33.023	27.035	1410.672	1160.096
34.038	27.134	1409.077	1159.315
35.053	27.061	1408.598	1158.349
36.067	27.020	1408.016	1157.509
37.082	27.041	1406.750	1156.498
38.096	27.003	1405.459	1155.098
39.111	27.095	1404.691	1154.948
40.126	27.085	1404.075	1154.275
41.140	27.143	1403.364	1153.957
42.155	27.020	1403.547	1153.221
43.169	27.126	1403.530	1153.783
44.184	27.131	1402.557	1152.911
45.199	27.113	1402.406	1152.567
46.213	27.140	1401.872	1152.199
47.228	27.025	1401.182	1150.801
48.242	27.150	1399.414	1150.040
49.257	27.038	1398.171	1148.206
50.271	27.067	1396.626	1147.018
51.286	27.110	1395.424	1146.203
52.301	27.020	1394.268	1144.586
53.315	27.156	1393.035	1144.330
54.330	27.030	1392.848	1143.280
55.344	26.970	1392.021	1142.125
56.359	27.076	1390.315	1141.285
57.374	27.031	1390.030	1140.668
58.388	27.006	1389.642	1140.092
59.403	27.031	1388.967	1139.598
60.417	27.145	1387.407	1138.930
61.432	27.147	1386.977	1138.486
62.447	26.994	1386.663	1137.172
63.461	27.091	1385.033	1136.341
64.476	27.088	1384.203	1135.540
65.490	27.126	1383.183	1134.844
66.505	27.108	1381.599	1133.332
67.520	26.991	1380.409	1131.524
68.534	27.101	1379.387	1131.268
69.549	27.028	1378.364	1129.880
70.563	27.102	1377.495	1129.528
71.578	27.210	1375.795	1128.702
72.593	27.146	1375.358	1127.848
73.607	27.131	1374.617	1127.044
74.622	27.170	1373.791	1126.508
75.636	26.989	1373.693	1125.209
76.651	27.140	1372.527	1125.086
77.666	27.012	1372.154	1123.889
78.680	27.077	1372.113	1124.162
79.695	27.084	1371.092	1123.268
80.709	26.987	1370.567	1122.138
81.724	26.996	1369.525	1121.243
82.739	27.058	1368.522	1120.705
83.753	27.053	1367.256	1119.540
84.768	27.029	1366.364	1118.557
85.782	27.050	1364.995	1117.472
86.797	27.087	1364.144	1116.899
87.812	27.030	1362.895	1115.431
88.826	27.089	1361.651	1114.675
89.841	27.046	1360.885	1113.688
90.855	27.201	1359.394	1113.318
91.870	27.164	1358.976	1112.651
92.884	27.046	1358.652	1111.561
93.899	27.186	1357.752	1111.585
94.914	27.187	1356.378	1110.368
95.928	27.143	1355.864	1109.578
96.943	27.167	1355.189	1109.079
97.957	27.188	1354.251	1108.338
98.972	27.135	1353.482	1107.287
99.987	27.200	1352.218	1106.548
101.001	27.068	1351.541	1105.094
102.016	27.205	1350.266	1104.791
103.030	27.141	1349.645	1103.796
104.045	27.217	1348.484	1103.206
105.060	27.203	1347.754	1102.430
106.074	27.131	1347.403	1101.605
107.089	27.190	1345.532	1100.339
108.103	27.168	1345.092	1099.747
109.118	27.093	1344.309	1098.557
110.133	27.254	1342.550	1097.994
111.147	27.231	1341.426	1096.838
112.162	27.282	1340.172	1096.021
113.176	27.202	1339.459	1094.861
114.191	27.235	1338.365	1094.071
115.206	27.205	1337.737	1093.277
116.220	27.242	1336.263	1092.200
117.235	27.311	1335.014	1091.498
118.249	27.168	1334.938	1090.481
119.264	27.093	1334.054	1089.209
120.279	27.250	1333.198	1089.355
121.293	27.272	1332.596	1088.901
122.308	27.178	1331.976	1087.732
123.322	27.321	1330.822	1087.550
124.337	27.303	1329.957	1086.639
125.352	27.271	1329.137	1085.681
126.366	27.274	1327.938	1084.624
127.381	27.240	1327.538	1084.001
128.395	27.345	1326.397	1083.597
129.410	27.213	1326.160	1082.522
130.424	27.283	1325.406	1082.225
131.439	27.370	1324.108	1081.587
132.454	27.390	1323.169	1080.844
133.468	27.276	1322.893	1079.846
134.483	27.271	1322.395	1079.317
135.497	27.224	1321.418	1078.144
136.512	27.273	1320.516	1077.605
137.527	27.283	1319.202	1076.497
138.541	27.273	1317.923	1075.297
139.556	27.266	1317.072	1074.467
140.570	27.322	1315.951	1073.788
141.585	27.264	1314.698	1072.329
142.600	27.270	1313.998	1071.696
143.614	27.269	1312.988	1070.772
144.629	27.231	1312.088	1069.718
145.643	27.177	1311.109	1068.508
146.658	27.127	1310.074	1067.278
147.673	27.136	1308.795	1066.194
148.687	27.223	1307.440	1065.503
149.702	27.133	1306.762	1064.329
150.716	27.236	1305.265	1063.623
151.731	27.270	1304.330	1062.961
152.746	27.230	1303.932	1062.311
153.760	27.300	1302.144	1061.167
154.775	27.265	1301.724	1060.532
155.789	27.312	1300.502	1059.715
156.804	27.239	1299.739	1058.575
157.819	27.188	1299.210	1057.753
158.833	27.269	1298.240	1057.341
159.848	27.247	1297.524	1056.533
160.862	27.309	1296.766	1056.181
161.877	27.345	1295.741	1055.466
162.892	27.295	1294.978	1054.458
163.906	27.343	1294.317	1054.106
164.921	27.284	1293.784	1053.240
165.935	27.327	1292.581	1052.416
166.950	27.278	1292.284	1051.794
167.964	27.339	1291.318	1051.267
168.979	27.278	1291.239	1050.760
169.994	27.322	1290.310	1050.164
171.008	27.478	1289.601	1050.394
172.023	27.429	1288.811	1049.372
173.037	27.488	1287.760	1048.765
174.052	27.334	1287.359	1047.463
175.067	27.412	1286.302	1046.958
176.081	27.461	1285.499	1046.489
177.096	27.396	1284.812	1045.464
178.110	27.383	1283.704	1044.401
179.125	27.352	1283.125	1043.657
180.140	27.315	1281.863	1042.323
181.154	27.415	1280.350	1041.573
182.169	27.322	1279.606	1040.348
183.183	27.400	1278.368	1039.693
184.198	27.440	1277.465	1039.093
185.213	27.423	1276.703	1038.286
186.227	27.345	1275.879	1037.080
187.242	27.362	1274.616	1036.057
188.256	27.479	1274.115	1036.222
189.271	27.442	1273.284	1035.246
190.286	27.534	1272.258	1034.844
191.300	27.422	1271.996	1033.903
192.315	27.353	1271.634	1033.124
193.329	27.502	1270.959	1033.333
194.344	27.407	1271.002	1032.738
195.359	27.477	1270.222	1032.410
196.373	27.439	1269.416	1031.448
197.388	27.430	1269.189	1031.120
198.402	27.404	1268.936	1030.674
199.417	27.430	1268.275	1030.193
200.432	27.540	1267.649	1030.216
201.446	27.476	1266.960	1029.205
202.461	27.339	1266.295	1027.797
203.475	27.472	1265.571	1027.872
204.490	27.465	1264.555	1026.915
205.504	27.504	1263.384	1026.090
206.519	27.616	1262.699	1026.075
207.534	27.458	1261.676	1024.266
208.548	27.538	1260.787	1023.904
209.563	27.483	1260.051	1022.903
210.577	27.486	1259.124	1022.079
211.592	27.551	1258.077	1021.503
212.607	27.593	1257.662	1021.313
213.621	27.482	1257.158	1020.188
214.636	27.702	1255.637	1020.095
215.650	27.566	1255.316	1018.982
216.665	27.612	1254.004	1018.084
217.680	27.444	1253.461	1016.619
218.694	27.519	1252.545	1016.203
219.709	27.650	1251.902	1016.322
220.723	27.640	1251.022	1015.462
221.738	27.612	1249.978	1014.370
222.753	27.631	1249.275	1013.816
223.767	27.586	1249.068	1013.305
224.782	27.631	1248.442	1012.957
225.796	27.691	1247.617	1012.535
226.811	27.717	1247.172	1012.225
227.826	27.721	1246.601	1011.698
228.840	27.680	1246.331	1011.160
229.855	27.666	1245.287	1010.145
230.869	27.698	1244.648	1009.715
231.884	27.705	1244.079	1009.202
232.899	27.673	1243.290	1008.297
233.913	27.649	1242.771	1007.655
234.928	27.837	1241.735	1007.763
235.942	27.855	1241.244	1007.374
236.957	27.770	1240.851	1006.496
237.972	27.810	1239.872	1005.832
238.986	27.637	1239.630	1004.595
240.001	27.835	1239.017	1005.101
241.015	27.900	1237.877	1004.444
242.030	27.866	1237.238	1003.651
243.045	27.872	1236.690	1003.152
244.059	27.755	1235.640	1001.569
245.074	27.850	1234.884	1001.389
246.088	27.748	1234.415	1000.355
247.103	27.877	1233.369	1000.128
248.117	27.775	1232.814	999.032
249.132	27.813	1232.064	998.542
250.147	27.941	1231.193	998.451
251.161	27.908	1230.461	997.584
252.176	27.998	1229.381	997.113
253.190	27.899	1229.085	996.247
254.205	27.974	1228.232	995.872
255.220	27.961	1228.013	995.538
256.234	27.904	1227.193	994.473
257.249	27.961	1226.599	994.218
258.263	27.937	1226.073	993.573
259.278	27.966	1225.458	993.143
260.293	27.935	1224.690	992.264
261.307	28.003	1224.308	992.237
262.322	28.079	1223.401	991.822
263.336	27.995	1223.166	991.093
264.351	27.954	1222.417	990.174
265.366	27.894	1222.102	989.509
266.380	27.916	1220.969	988.621
267.395	28.055	1220.470	988.883
268.409	28.054	1219.492	987.997
269.424	28.059	1219.178	987.680
270.439	28.018	1219.028	987.249
271.453	28.074	1218.236	986.826
272.468	28.093	1217.338	986.109
273.482	28.044	1216.355	984.965
274.497	28.172	1216.078	985.341
275.512	28.124	1215.169	984.260
276.526	28.169	1214.613	983.967
277.541	28.077	1213.883	982.793
278.555	28.073	1213.361	982.261
279.570	28.090	1212.900	981.889
280.585	28.189	1211.719	981.380
281.599	28.094	1210.931	980.144
282.614	28.020	1210.203	979.073
283.628	28.185	1208.833	978.759
284.643	28.084	1208.341	977.734
285.657	28.161	1207.255	977.184
286.672	28.095	1206.652	976.254
287.687	28.280	1205.950	976.588
288.701	28.157	1205.381	975.382
289.716	28.272	1204.653	975.324
290.730	28.286	1203.777	974.602
291.745	28.301	1202.866	973.855
292.760	28.279	1202.753	973.562
293.774	28.283	1202.140	973.002
294.789	28.324	1201.239	972.402
295.803	28.369	1200.488	971.951
296.818	28.480	1200.028	972.080
297.833	28.349	1199.501	970.868
298.847	28.295	1198.891	970.007
299.862	28.294	1198.024	969.214
300.876	28.320	1197.432	968.785
301.891	28.292	1196.882	968.106
302.906	28.423	1196.252	968.204
303.920	28.414	1195.217	967.235
304.935	28.387	1194.797	966.663
305.949	28.375	1194.130	965.974
306.964	28.458	1193.411	965.749
307.979	28.477	1192.833	965.293
308.993	28.435	1192.386	964.624
310.008	28.437	1191.863	964.125
311.022	28.432	1190.902	963.240
312.037	28.465	1189.940	962.546
313.052	28.345	1188.926	961.014
314.066	28.484	1188.077	960.973
315.081	28.438	1187.716	960.352
316.095	28.503	1187.015	960.038
317.110	28.463	1186.403	959.252
318.125	28.545	1185.678	959.010
319.139	28.414	1185.596	958.172
320.154	28.445	1184.531	957.388
321.168	28.560	1183.996	957.472
322.183	28.524	1183.430	956.741
323.197	28.490	1182.966	956.108
324.212	28.514	1182.130	955.470
325.227	28.547	1181.755	955.256
326.241	28.540	1181.307	954.771
327.256	28.488	1180.904	954.092
328.270	28.652	1179.395	953.639
329.285	28.669	1178.794	953.157
330.300	28.577	1178.067	952.006
331.314	28.594	1177.406	951.476
332.329	28.515	1176.472	950.231
333.343	28.671	1175.499	950.169
334.358	28.751	1174.821	949.948
335.373	28.734	1174.093	949.186
336.387	28.718	1173.829	948.808
337.402	28.660	1173.054	947.799
338.416	28.718	1172.219	947.338
339.431	28.838	1171.145	947.003
340.446	28.792	1171.126	946.667
341.460	28.794	1170.292	945.923
342.475	28.793	1169.415	945.126
343.489	28.753	1168.698	944.253
344.504	28.857	1167.611	943.828
345.519	28.888	1166.478	942.988
346.533	28.798	1165.906	941.980
347.548	28.837	1165.127	941.466
348.562	28.924	1164.587	941.393
349.577	28.723	1164.063	939.856
350.592	28.812	1163.032	939.398
351.606	28.741	1162.589	938.591
352.621	28.902	1161.671	938.592
353.635	28.846	1161.089	937.754
354.650	28.854	1160.696	937.393
355.665	28.903	1159.856	936.879
356.679	28.856	1159.483	936.257
357.694	28.852	1159.179	935.910
358.708	28.904	1158.101	935.220
359.723	28.962	1157.236	934.733
360.738	29.010	1156.507	934.307
361.752	28.967	1155.885	933.503
362.767	29.021	1155.377	933.283
363.781	29.023	1154.896	932.821
364.796	29.014	1154.424	932.313
365.810	29.096	1153.476	931.877
366.825	28.993	1153.342	931.165
367.840	29.103	1152.573	931.021
368.854	29.130	1152.003	930.614
369.869	29.138	1151.242	929.956
370.883	29.052	1150.320	928.699
371.898	29.110	1149.823	928.506
372.913	29.028	1149.400	927.668
373.927	29.103	1148.793	927.475
374.942	29.166	1148.130	927.174
375.956	29.144	1147.657	926.598
376.971	29.209	1147.004	926.319
377.986	29.213	1146.383	925.755
379.000	29.222	1146.324	925.669
380.015	29.249	1145.569	925.111
381.029	29.264	1144.788	924.475
382.044	29.243	1144.015	923.662
383.059	29.197	1143.521	922.953
384.073	29.246	1142.682	922.440
385.088	29.262	1142.083	921.955
386.102	29.343	1141.014	921.415
387.117	29.215	1140.226	920.056
388.132	29.163	1139.587	919.203
389.146	29.220	1139.325	919.195
390.161	29.290	1138.217	918.567
391.175	29.311	1137.440	917.964
392.190	29.361	1136.887	917.683
393.205	29.275	1136.646	916.982
394.219	29.381	1135.635	916.612
395.234	29.346	1134.548	915.477
396.248	29.365	1133.796	914.886
397.263	29.376	1133.136	914.326
398.278	29.476	1132.414	914.159
399.292	29.565	1131.377	913.682
400.307	29.479	1131.028	912.895
401.321	29.568	1130.389	912.734
402.336	29.281	1130.136	911.031
403.350	29.360	1129.477	910.810
404.365	29.549	1128.044	910.504
405.380	29.528	1128.023	910.305
406.394	29.417	1127.506	909.258
407.409	29.585	1126.170	908.928
408.423	29.565	1125.716	908.382
409.438	29.637	1125.016	908.094
410.453	29.644	1123.959	907.193
411.467	29.688	1123.294	906.793
412.482	29.559	1122.930	905.784
413.496	29.577	1122.491	905.438
414.511	29.534	1121.560	904.397
415.526	29.537	1121.369	904.181
416.540	29.602	1121.193	904.276
417.555	29.740	1120.311	904.157
418.569	29.641	1119.789	903.172
419.584	29.710	1119.165	902.925
420.599	29.751	1118.954	902.877
421.613	93.478	1311.270	1406.492
422.628	87.890	1339.274	1406.623
