DTS Sentinel unit serial number:	SN413079Multiplexer serial number:	ORYXHardware model number:	OX4-SRSoftware version number:	ORYX F/W v4.00 Oryx Data Collector v3.7.2.0data status	okinstallation	princeton_trtdifferential loss correction	single-endedforward channel	channel 2reverse channel	N/Adate	2019/09/12time	02:37:11forward acquisition time	60.00reverse acquisition time	0.00gamma	496.2192k internal	0.2326k external	0.2326temperature offset calibration	1.0093default loss term (dB/km)	0.3790temperature slope calibration	1.0000multiplexer offset coefficient	1.0000multiplexer slope coefficient	1.0000fibre end	0.00T internal ref (°C)	32.42T ext. ref 1 (°C)	2.10T ext. ref 2 (°C)	27.16length (m)	temperature (°C)	Stokes	anti-Stokes-747.200	-33.770	-0.089	0.050
-746.185	558.038	-0.100	0.242
-745.171	-97.761	0.406	-0.106
-744.156	-19.094	-0.193	0.121
-743.142	162.167	-0.191	-0.269
-742.127	632.096	0.025	0.064
-741.112	-50.563	0.295	-0.140
-740.098	205.223	0.181	0.284
-739.083	-16.768	-0.004	-0.002
-738.069	-69.603	-0.149	-0.058
-737.054	51.403	-0.117	-0.112
-736.039	800.000	-0.028	0.110
-735.025	-41.404	0.103	-0.053
-734.010	800.000	-0.082	-0.232
-732.996	-32.475	-0.054	-0.030
-731.981	-96.046	-0.107	-0.029
-730.966	-22.052	-0.288	-0.176
-729.952	-41.416	-0.064	0.033
-728.937	52.534	0.118	-0.114
-727.923	-200.000	-0.016	0.311
-726.908	-124.439	-0.277	0.043
-725.894	-40.902	-0.252	-0.131
-724.879	-58.666	-0.108	-0.047
-723.864	444.129	0.049	0.109
-722.850	760.675	0.058	0.158
-721.835	-131.367	0.122	0.016
-720.821	237.016	-0.108	-0.181
-719.806	-200.000	-0.051	-0.292
-718.791	462.213	-0.087	0.196
-717.777	-12.130	-0.313	-0.206
-716.762	-151.993	0.042	0.003
-715.748	-135.990	-0.259	-0.031
-714.733	128.309	0.126	-0.162
-713.718	800.000	0.092	-0.290
-712.704	52.707	-0.184	-0.177
-711.689	-200.000	0.008	-0.121
-710.675	-106.514	0.076	-0.017
-709.660	259.129	-0.195	-0.338
-708.645	-96.197	0.072	-0.019
-707.631	78.235	0.147	-0.158
-706.616	467.238	-0.050	-0.113
-705.602	-85.464	0.077	0.024
-704.587	-151.120	0.211	-0.016
-703.572	54.480	-0.130	0.126
-702.558	113.216	-0.111	0.135
-701.543	800.000	-0.081	0.226
-700.529	-174.952	0.186	-0.005
-699.514	109.159	0.223	-0.268
-698.499	13.113	-0.142	-0.111
-697.485	8.623	-0.322	0.244
-696.470	-51.397	-0.164	-0.077
-695.456	-200.000	-0.019	-0.258
-694.441	174.003	-0.108	0.157
-693.426	122.696	0.123	-0.155
-692.412	-170.542	0.253	0.009
-691.397	31.504	0.079	0.068
-690.383	-37.253	0.259	0.139
-689.368	-183.842	-0.187	-0.003
-688.354	-200.000	0.040	-0.180
-687.339	800.000	0.076	0.214
-686.324	446.836	-0.043	0.094
-685.310	95.427	0.200	0.229
-684.295	82.368	0.018	0.020
-683.281	594.869	-0.035	0.088
-682.266	60.345	0.158	0.157
-681.251	397.327	-0.074	-0.155
-680.237	-127.530	-0.104	0.015
-679.222	-195.083	-0.262	0.002
-678.208	87.723	-0.066	0.074
-677.193	-26.202	-0.164	0.097
-676.178	168.636	0.075	-0.107
-675.164	-200.000	-0.010	0.050
-674.149	-2.505	-0.231	0.162
-673.135	164.264	0.060	-0.085
-672.120	-123.510	0.088	-0.014
-671.105	-105.678	-0.356	0.081
-670.091	-200.000	-0.021	0.200
-669.076	-150.465	-0.097	0.007
-668.062	-82.314	0.140	0.046
-667.047	800.000	0.085	0.256
-666.032	-200.000	-0.025	0.580
-665.018	776.993	0.018	0.049
-664.003	-200.000	-0.041	0.275
-662.989	0.001	0.053	-0.038
-661.974	675.934	-0.051	0.133
-660.959	-14.540	0.114	-0.074
-659.945	130.674	0.055	-0.070
-658.930	50.633	0.094	-0.089
-657.916	-5.304	-0.133	0.092
-656.901	800.000	0.089	0.273
-655.886	419.839	0.214	-0.460
-654.872	-188.012	0.120	-0.002
-653.857	445.801	-0.047	-0.104
-652.843	702.315	-0.054	0.142
-651.828	156.737	-0.181	-0.252
-650.814	194.449	0.239	-0.364
-649.799	16.604	0.276	0.219
-648.784	800.000	-0.053	-0.174
-647.770	-111.803	-0.176	0.036
-646.755	-53.787	0.125	0.058
-645.741	37.593	0.164	-0.146
-644.726	296.134	-0.097	-0.179
-643.711	-28.258	0.209	0.121
-642.697	-54.470	0.118	0.054
-641.682	-97.040	-0.320	-0.084
-640.668	66.389	-0.064	0.065
-639.653	-75.789	0.134	-0.048
-638.638	685.706	-0.122	0.320
-637.624	30.679	-0.142	-0.122
-636.609	-89.328	-0.155	0.046
-635.595	-66.118	-0.162	0.065
-634.580	-200.000	0.034	0.174
-633.565	205.914	-0.153	0.238
-632.551	-173.958	0.153	0.005
-631.536	800.000	0.073	0.258
-630.522	-50.733	-0.091	-0.043
-629.507	-158.596	0.091	-0.005
-628.492	-24.987	0.192	0.115
-627.478	-190.076	-0.164	-0.002
-626.463	-146.464	-0.260	0.023
-625.449	44.393	0.070	0.064
-624.434	-137.132	0.176	0.020
-623.419	-200.000	-0.014	0.200
-622.405	-145.053	-0.493	-0.045
-621.390	284.759	0.095	-0.171
-620.376	314.212	-0.164	-0.309
-619.361	-54.835	0.215	-0.098
-618.346	-144.787	0.178	-0.016
-617.332	284.484	0.112	-0.202
-616.317	-161.755	-0.225	0.012
-615.303	0.688	-0.119	-0.086
-614.288	-134.108	-0.311	-0.039
-613.273	800.000	-0.089	-0.357
-612.259	436.935	-0.103	0.226
-611.244	-59.577	-0.157	-0.068
-610.230	79.819	-0.114	-0.123
-609.215	239.408	-0.202	-0.337
-608.201	-200.000	-0.003	-0.160
-607.186	-200.000	-0.012	0.309
-606.171	-75.027	-0.423	-0.152
-605.157	334.131	0.104	0.201
-604.142	-51.916	0.311	-0.145
-603.128	-14.962	0.319	-0.205
-602.113	-89.788	0.124	-0.036
-601.098	800.000	0.141	0.410
-600.084	-132.549	-0.156	0.020
-599.069	-200.000	0.025	0.394
-598.055	-150.252	-0.286	-0.022
-597.040	111.867	0.246	-0.298
-596.025	128.994	-0.241	-0.309
-595.011	571.109	-0.170	-0.416
-593.996	800.000	-0.068	0.275
-592.982	-20.915	0.220	-0.135
-591.967	-200.000	-0.006	-0.168
-590.952	16.807	-0.144	0.114
-589.938	57.314	-0.153	0.150
-588.923	-122.294	-0.104	-0.017
-587.909	-145.632	0.067	-0.006
-586.894	-200.000	0.020	0.216
-585.879	45.752	-0.217	0.201
-584.865	247.832	0.247	0.418
-583.850	800.000	-0.064	0.252
-582.836	-152.300	0.239	-0.017
-581.821	199.902	0.089	0.138
-580.806	-200.000	0.022	0.106
-579.792	-14.581	-0.057	-0.037
-578.777	-200.000	0.002	0.071
-577.763	19.174	0.133	0.107
-576.748	-200.000	0.009	-0.296
-575.733	800.000	0.050	-0.145
-574.719	62.132	-0.239	0.239
-573.704	329.944	0.126	0.243
-572.690	-200.000	-0.004	0.279
-571.675	-200.000	-0.036	-0.163
-570.661	800.000	-0.037	-0.108
-569.646	-40.256	-0.050	-0.026
-568.631	120.509	-0.278	-0.345
-567.617	19.329	-0.179	0.144
-566.602	-161.145	-0.203	0.011
-565.588	660.687	0.081	0.208
-564.573	-80.161	0.046	-0.015
-563.558	-200.000	0.013	0.140
-562.544	-200.000	0.032	-0.180
-561.529	707.418	-0.048	-0.127
-560.515	138.038	0.226	-0.296
-559.500	147.631	0.145	-0.195
-558.485	-55.059	0.160	0.072
-557.471	17.967	-0.192	-0.153
-556.456	-9.192	-0.185	0.124
-555.442	172.055	-0.101	-0.145
-554.427	-200.000	-0.020	0.150
-553.412	-25.606	-0.074	-0.044
-552.398	-42.664	0.130	-0.066
-551.383	800.000	-0.100	0.353
-550.369	157.211	-0.186	0.257
-549.354	800.000	0.067	-0.258
-548.339	244.906	-0.140	-0.236
-547.325	-118.514	-0.216	0.038
-546.310	537.247	-0.080	0.190
-545.296	-200.000	-0.043	0.199
-544.281	-106.061	-0.138	-0.031
-543.266	-180.049	0.150	0.003
-542.252	-200.000	0.017	-0.133
-541.237	-111.036	0.151	0.031
-540.223	282.503	-0.187	0.336
-539.208	-103.485	0.201	-0.047
-538.193	-85.496	0.134	-0.042
-537.179	39.845	-0.197	-0.177
-536.164	-78.715	-0.169	0.058
-535.150	48.277	0.148	-0.139
-534.135	149.093	0.210	0.284
-533.121	551.841	0.124	-0.297
-532.106	-64.044	-0.357	0.146
-531.091	-61.879	-0.195	-0.081
-530.077	76.539	-0.091	0.096
-529.062	-69.223	0.357	-0.137
-528.048	-3.268	0.117	-0.082
-527.033	-145.113	-0.236	-0.021
-526.018	-200.000	-0.040	0.259
-525.004	558.811	0.084	-0.204
-523.989	-7.078	0.164	-0.111
-522.975	-168.257	0.033	-0.001
-521.960	-50.302	-0.264	0.125
-520.945	800.000	-0.087	0.314
-519.931	19.171	-0.227	0.182
-518.916	-49.852	0.054	0.025
-517.902	-180.930	-0.071	0.001
-516.887	-96.367	-0.045	0.012
-515.872	56.226	-0.364	-0.353
-514.858	-28.678	0.255	-0.147
-513.843	694.096	0.060	0.158
-512.829	-115.432	-0.093	-0.017
-511.814	-144.010	0.241	0.023
-510.799	147.011	0.151	0.204
-509.785	153.413	-0.121	-0.166
-508.770	124.776	-0.034	-0.043
-507.756	-153.098	-0.145	-0.010
-506.741	76.295	0.265	0.281
-505.726	-200.000	0.002	-0.234
-504.712	-200.000	0.017	-0.120
-503.697	-200.000	0.017	-0.130
-502.683	800.000	-0.119	-0.333
-501.668	-200.000	0.040	-0.316
-500.653	800.000	-0.042	-0.156
-499.639	628.242	0.055	0.139
-498.624	183.068	-0.142	0.210
-497.610	-200.000	0.060	0.265
-496.595	800.000	-0.089	-0.295
-495.581	-30.097	0.193	0.109
-494.566	-103.548	0.059	-0.014
-493.551	-105.703	0.153	0.035
-492.537	-134.375	-0.219	0.027
-491.522	-200.000	0.046	0.269
-490.508	-91.882	-0.065	0.018
-489.493	380.270	0.090	-0.185
-488.478	4.684	-0.165	0.121
-487.464	242.776	0.162	-0.271
-486.449	-172.004	0.264	0.009
-485.435	800.000	0.042	-0.143
-484.420	597.303	0.070	-0.173
-483.405	62.975	-0.083	-0.083
-482.391	-181.231	0.071	0.001
-481.376	-200.000	-0.036	-0.200
-480.362	-60.674	0.061	0.026
-479.347	-162.300	-0.139	0.007
-478.332	309.619	0.173	-0.322
-477.318	-152.493	-0.154	-0.011
-476.303	472.589	-0.071	0.159
-475.289	-200.000	-0.005	0.139
-474.274	123.730	-0.136	0.170
-473.259	-200.000	0.041	0.300
-472.245	-86.040	0.296	0.091
-471.230	-200.000	-0.006	-0.194
-470.216	-200.000	0.037	-0.230
-469.201	-48.655	-0.165	-0.079
-468.186	373.290	-0.078	0.158
-467.172	-200.000	-0.008	-0.063
-466.157	-78.728	-0.089	0.030
-465.143	47.665	0.135	-0.125
-464.128	172.168	0.203	-0.292
-463.113	-151.124	-0.302	-0.023
-462.099	647.587	-0.062	0.159
-461.084	5.853	-0.283	0.209
-460.070	-55.801	-0.263	0.117
-459.055	-35.732	-0.176	-0.095
-458.040	-200.000	0.062	0.314
-457.026	51.183	0.032	0.031
-456.011	162.815	-0.177	-0.247
-454.997	-96.190	-0.162	-0.043
-453.982	-21.294	0.323	0.197
-452.968	-125.951	-0.233	0.035
-451.953	-200.000	-0.039	-0.248
-450.938	-61.404	-0.061	-0.025
-449.924	-36.470	-0.057	-0.031
-448.909	-56.562	0.255	-0.113
-447.895	-45.215	0.098	0.049
-446.880	-87.159	0.173	0.052
-445.865	406.909	0.053	0.112
-444.851	800.000	0.120	0.373
-443.836	-41.273	-0.168	0.086
-442.822	434.793	-0.088	0.191
-441.807	-162.321	0.076	-0.004
-440.792	491.366	0.169	-0.386
-439.778	143.600	0.205	-0.272
-438.763	273.764	-0.010	0.017
-437.749	-150.316	-0.080	-0.006
-436.734	-200.000	-0.016	-0.078
-435.719	44.681	-0.100	0.091
-434.705	116.159	-0.049	-0.060
-433.690	-124.883	-0.131	-0.020
-432.676	624.165	-0.048	-0.120
-431.661	-39.971	0.036	0.019
-430.646	7.699	0.166	0.124
-429.632	665.674	-0.053	0.135
-428.617	-200.000	-0.030	-0.151
-427.603	-200.000	0.025	-0.435
-426.588	180.575	0.153	-0.223
-425.573	-200.000	-0.033	-0.231
-424.559	348.124	0.069	0.135
-423.544	-200.000	-0.011	0.203
-422.530	458.428	0.077	-0.171
-421.515	49.455	-0.130	-0.122
-420.500	-58.699	-0.509	-0.219
-419.486	800.000	-0.084	-0.312
-418.471	-75.202	-0.188	0.067
-417.457	800.000	-0.133	0.387
-416.442	130.861	0.027	-0.035
-415.428	185.566	-0.046	-0.068
-414.413	-77.549	0.237	0.082
-413.398	-200.000	0.033	-0.304
-412.384	-200.000	-0.013	-0.060
-411.369	65.323	0.089	-0.090
-410.355	800.000	0.099	-0.397
-409.340	-200.000	-0.004	0.110
-408.325	244.044	0.175	-0.292
-407.311	-121.812	-0.203	0.033
-406.296	7.896	-0.274	0.204
-405.282	-94.609	-0.235	-0.064
-404.267	-170.857	0.115	-0.004
-403.252	371.890	-0.088	-0.179
-402.238	131.619	0.234	0.299
-401.223	-38.631	-0.170	0.089
-400.209	31.271	-0.052	0.044
-399.194	-200.000	-0.018	-0.330
-398.179	358.118	-0.086	0.170
-397.165	800.000	0.007	0.021
-396.150	-112.148	0.117	-0.023
-395.136	-119.428	-0.134	-0.023
-394.121	103.616	0.092	-0.108
-393.106	-65.285	-0.121	-0.049
-392.092	16.721	-0.332	-0.261
-391.077	-87.053	-0.500	-0.151
-390.063	136.989	-0.167	0.217
-389.048	207.828	0.118	-0.184
-388.033	251.148	-0.095	-0.161
-387.019	142.872	0.126	0.167
-386.004	169.749	0.095	-0.135
-384.990	501.135	0.184	-0.422
-383.975	58.256	0.169	0.165
-382.960	-7.415	0.154	-0.104
-381.946	13.759	-0.110	-0.085
-380.931	800.000	0.102	-0.288
-379.917	-27.397	0.231	-0.133
-378.902	92.393	-0.164	-0.184
-377.888	-200.000	0.251	-0.001
-376.873	-43.186	0.315	0.159
-375.858	-160.942	0.163	0.009
-374.844	-173.972	0.069	0.002
-373.829	-76.824	0.261	0.091
-372.815	-66.570	-0.130	-0.051
-371.800	755.774	-0.075	-0.201
-370.785	800.000	0.094	0.335
-369.771	13.728	-0.091	-0.070
-368.756	-9.290	0.271	-0.180
-367.742	659.147	-0.086	-0.219
-366.727	-104.216	-0.289	0.067
-365.712	-96.432	0.050	0.013
-364.698	42.949	0.276	0.250
-363.683	-200.000	0.022	-0.437
-362.669	44.923	0.219	0.200
-361.654	97.834	-0.122	-0.140
-360.639	-146.169	-0.419	0.037
-359.625	374.563	0.191	0.386
-358.610	116.259	-0.113	0.138
-357.596	800.000	0.064	0.269
-356.581	-62.261	-0.172	0.071
-355.566	-56.785	0.147	-0.065
-354.552	515.083	0.141	0.328
-353.537	23.957	-0.172	0.141
-352.523	-200.000	0.013	0.089
-351.508	528.763	-0.072	-0.168
-350.493	79.288	0.134	-0.142
-349.479	283.148	0.181	0.322
-348.464	800.000	0.040	0.149
-347.450	-47.134	0.133	0.064
-346.435	-92.077	0.201	-0.056
-345.420	53.512	0.128	-0.121
-344.406	-160.811	-0.222	-0.012
-343.391	122.190	0.058	-0.072
-342.377	-200.000	-0.004	0.234
-341.362	-96.884	-0.292	-0.076
-340.348	-132.879	-0.076	-0.010
-339.333	-56.936	0.498	0.218
-338.318	-200.000	-0.010	0.128
-337.304	-141.173	0.149	-0.015
-336.289	-77.414	-0.074	0.025
-335.275	224.374	-0.161	0.259
-334.260	-104.944	0.141	0.032
-333.245	-139.314	-0.207	0.022
-332.231	-200.000	0.067	0.468
-331.216	-162.463	0.189	-0.009
-330.202	174.373	-0.080	-0.114
-329.187	130.586	0.007	0.009
-328.172	-200.000	0.039	-0.289
-327.158	-200.000	-0.006	-0.102
-326.143	-14.918	-0.165	-0.105
-325.129	-131.735	0.082	0.011
-324.114	349.502	0.037	0.073
-323.099	-200.000	-0.091	0.423
-322.085	-170.350	0.160	-0.006
-321.070	-36.430	-0.193	-0.103
-320.056	-55.823	0.186	-0.082
-319.041	-32.724	0.256	-0.141
-318.026	-200.000	0.023	0.252
-317.012	-200.000	0.013	0.195
-315.997	-8.873	-0.170	-0.113
-314.983	10.381	-0.195	-0.147
-313.968	-106.869	0.219	-0.048
-312.953	800.000	0.086	-0.284
-311.939	800.000	0.077	-0.253
-310.924	79.187	0.150	-0.159
-309.910	560.005	0.032	0.077
-308.895	-147.034	-0.216	-0.018
-307.880	780.077	-0.165	-0.447
-306.866	-4.325	0.043	-0.029
-305.851	659.671	-0.028	0.072
-304.837	576.733	0.099	0.240
-303.822	179.524	-0.101	0.146
-302.807	390.706	0.091	0.188
-301.793	-95.874	0.147	0.039
-300.778	-115.000	0.047	0.009
-299.764	259.905	-0.215	-0.369
-298.749	-200.000	0.012	-0.155
-297.735	-43.895	-0.135	0.067
-296.720	13.020	0.201	-0.154
-295.705	-130.116	0.127	0.017
-294.691	-146.652	0.531	0.046
-293.676	-24.001	-0.229	-0.136
-292.662	134.179	-0.086	-0.110
-291.647	-182.172	0.404	0.007
-290.632	-68.357	0.262	-0.101
-289.618	-200.000	0.009	0.077
-288.603	800.000	-0.039	-0.154
-287.589	-200.000	-0.002	-0.255
-286.574	-142.768	0.288	0.028
-285.559	-93.776	0.292	-0.080
-284.545	-0.175	-0.344	0.243
-283.530	-39.122	-0.234	0.122
-282.516	-100.154	-0.064	-0.016
-281.501	-200.000	0.020	0.252
-280.486	71.587	-0.024	-0.025
-279.472	172.356	0.108	-0.154
-278.457	-74.727	0.146	0.052
-277.443	-200.000	-0.028	0.205
-276.428	421.065	-0.117	0.249
-275.413	26.557	-0.197	0.163
-274.399	-200.000	0.013	0.184
-273.384	-17.695	0.274	-0.171
-272.370	-41.295	-0.212	0.108
-271.355	-184.065	0.139	-0.002
-270.340	237.980	0.120	-0.197
-269.326	-59.642	-0.071	-0.030
-268.311	-120.662	-0.082	-0.014
-267.297	-57.888	-0.070	-0.030
-266.282	142.591	-0.268	-0.353
-265.267	-20.307	-0.236	-0.144
-264.253	-200.000	-0.017	-0.142
-263.238	800.000	0.136	-0.428
-262.224	394.785	-0.106	0.219
-261.209	-36.638	0.129	0.069
-260.195	800.000	-0.027	0.086
-259.180	41.510	0.193	0.173
-258.165	-200.000	0.000	0.117
-257.151	-200.000	0.066	0.417
-256.136	80.599	0.176	0.187
-255.122	278.020	-0.115	0.203
-254.107	-86.866	-0.161	0.049
-253.092	-87.353	-0.149	-0.045
-252.078	-152.688	-0.298	-0.021
-251.063	21.748	0.089	-0.071
-250.049	-111.752	-0.315	0.063
-249.034	-129.286	0.345	-0.048
-248.019	17.123	-0.087	0.068
-247.005	-106.761	0.350	0.077
-245.990	-200.000	-0.040	-0.289
-244.976	-134.796	-0.091	0.011
-243.961	-14.340	0.176	-0.112
-242.946	-45.673	0.152	0.075
-241.932	-200.000	0.008	-0.053
-240.917	-52.808	0.190	0.087
-239.903	455.246	0.089	-0.194
-238.888	51.797	0.241	0.226
-237.873	-62.047	0.084	0.035
-236.859	-200.000	0.018	-0.117
-235.844	-144.122	0.043	0.004
-234.830	800.000	0.025	-0.090
-233.815	-200.000	0.014	0.238
-232.800	87.129	0.016	-0.018
-231.786	-139.759	-0.252	-0.026
-230.771	-50.632	0.055	-0.026
-229.757	78.907	0.059	-0.063
-228.742	205.909	-0.126	0.194
-227.727	214.455	0.056	-0.087
-226.713	308.811	0.169	0.312
-225.698	-4.880	0.093	0.064
-224.684	169.269	0.113	0.159
-223.669	657.894	0.103	0.261
-222.655	-175.593	-0.153	0.004
-221.640	-28.219	-0.175	-0.100
-220.625	-1.939	0.140	-0.098
-219.611	165.817	0.085	0.119
-218.596	-63.969	0.234	0.094
-217.582	-66.328	0.202	0.079
-216.567	800.000	-0.052	-0.200
-215.552	-200.000	-0.000	-0.324
-214.538	443.639	0.101	0.218
-213.523	-200.000	-0.015	0.146
-212.509	235.838	-0.106	0.173
-211.494	31.857	0.093	-0.079
-210.479	-200.000	-0.029	0.165
-209.465	-200.000	-0.020	-0.170
-208.450	-102.291	0.246	-0.058
-207.436	-58.079	-0.333	-0.143
-206.421	-95.381	0.112	-0.030
-205.406	24.450	-0.193	-0.158
-204.392	-43.564	0.231	0.115
-203.377	-97.310	-0.356	0.092
-202.363	-67.868	0.269	0.104
-201.348	-83.107	0.067	-0.021
-200.333	-200.000	0.016	0.098
-199.319	26.480	0.276	0.228
-198.304	-200.000	0.036	-0.293
-197.290	536.104	0.116	-0.273
-196.275	-77.485	0.136	-0.047
-195.260	-127.155	0.187	-0.027
-194.246	-119.783	-0.174	0.030
-193.231	370.116	0.060	-0.119
-192.217	427.710	-0.043	-0.093
-191.202	215.803	0.084	0.132
-190.187	-62.031	-0.156	0.064
-189.173	-63.801	0.170	-0.069
-188.158	-71.962	0.156	0.057
-187.144	129.802	0.127	0.160
-186.129	509.682	-0.099	-0.227
-185.114	800.000	-0.019	0.071
-184.100	200.098	-0.074	-0.112
-183.085	-59.528	-0.026	0.011
-182.071	15.710	-0.195	0.151
-181.056	-112.484	0.150	-0.030
-180.042	-200.000	0.040	0.176
-179.027	-200.000	-0.005	0.208
-178.012	-61.408	0.245	-0.101
-176.998	309.014	0.019	-0.035
-175.983	-50.075	-0.131	-0.061
-174.969	-65.369	-0.321	0.127
-173.954	-40.607	-0.182	0.093
-172.939	82.306	0.094	-0.100
-171.925	-200.000	-0.059	-0.266
-170.910	540.190	0.246	0.576
-169.896	-200.000	0.028	0.226
-168.881	-200.000	0.007	0.213
-167.866	-83.687	0.115	-0.036
-166.852	196.435	0.128	-0.192
-165.837	26.081	-0.101	0.083
-164.823	-200.000	0.038	0.173
-163.808	174.195	-0.131	0.187
-162.793	-36.541	-0.222	-0.118
-161.779	800.000	0.068	0.214
-160.764	436.056	-0.170	-0.365
-159.750	-67.134	-0.040	0.016
-158.735	-12.502	-0.136	0.088
-157.720	171.918	0.122	0.173
-156.706	445.169	0.034	-0.074
-155.691	-200.000	0.022	-0.160
-154.677	-105.193	-0.283	0.064
-153.662	800.000	0.039	0.115
-152.647	637.056	-0.080	0.201
-151.633	162.704	0.094	0.130
-150.618	344.713	-0.105	0.204
-149.604	-200.000	0.081	-0.365
-148.589	-114.884	-0.091	0.017
-147.574	567.022	-0.043	0.104
-146.560	175.871	-0.077	0.110
-145.545	58.136	-0.043	0.042
-144.531	-121.396	0.198	0.032
-143.516	-76.533	0.283	0.098
-142.502	550.079	0.065	0.153
-141.487	-43.443	0.075	-0.037
-140.472	487.056	-0.035	-0.078
-139.458	18.925	-0.164	-0.129
-138.443	-122.445	0.156	-0.025
-137.429	721.829	0.219	0.574
-136.414	-200.000	-0.033	0.262
-135.399	-99.070	0.228	0.057
-134.385	-54.866	0.334	-0.148
-133.370	-21.941	0.028	0.017
-132.356	-65.478	0.110	-0.044
-131.341	421.186	-0.099	-0.209
-130.326	-146.494	-0.164	0.014
-129.312	-200.000	0.054	0.386
-128.297	-59.064	-0.099	-0.042
-127.283	-86.107	0.312	0.095
-126.268	176.436	-0.109	0.156
-125.253	-75.808	0.121	-0.042
-124.239	-102.649	-0.268	0.063
-123.224	-44.704	-0.203	0.100
-122.210	58.239	0.097	-0.093
-121.195	6.013	-0.094	0.068
-120.180	-82.934	-0.155	-0.049
-119.166	338.874	0.086	0.165
-118.151	215.458	-0.145	0.227
-117.137	-200.000	0.022	0.117
-116.122	109.008	0.088	-0.104
-115.107	-35.242	-0.105	0.056
-114.093	-200.000	0.007	0.136
-113.078	17.624	-0.122	-0.096
-112.064	-158.448	0.196	-0.011
-111.049	-200.000	0.028	0.240
-110.034	-200.000	-0.021	0.337
-109.020	612.357	-0.058	0.143
-108.005	55.940	0.278	0.265
-106.991	-104.893	0.151	-0.034
-105.976	800.000	-0.095	-0.325
-104.962	-12.994	0.080	-0.051
-103.947	-46.968	-0.239	-0.115
-102.932	-65.661	-0.185	0.073
-101.918	-200.000	0.025	-0.214
-100.903	19.778	0.125	0.099
-99.889	-21.158	-0.102	-0.061
-98.874	-162.588	-0.167	-0.008
-97.859	-200.000	0.022	-0.195
-96.845	-24.133	0.084	-0.049
-95.830	167.325	-0.052	-0.072
-94.816	800.000	0.066	0.183
-93.801	-88.994	-0.141	0.041
-92.786	-52.185	-0.037	-0.017
-91.772	123.972	0.077	-0.095
-90.757	-127.085	0.398	0.057
-89.743	-73.730	0.200	0.071
-88.728	214.902	0.095	-0.149
-87.713	-18.445	0.324	-0.199
-86.699	800.000	0.028	-0.089
-85.684	-200.000	-0.015	-0.222
-84.670	800.000	0.149	0.618
-83.655	253.393	0.028	0.046
-82.640	-27.761	-0.374	-0.213
-81.626	75.520	0.084	0.088
-80.611	267.556	0.151	0.259
-79.597	800.000	-0.046	0.177
-78.582	23.806	-0.245	-0.198
-77.567	292.003	0.195	-0.349
-76.553	-22.395	0.371	-0.220
-75.538	41.420	0.223	0.198
-74.524	-130.634	-0.190	0.025
-73.509	66.458	-0.133	-0.133
-72.494	-153.490	0.322	0.022
-71.480	-145.511	0.309	-0.027
-70.465	529.443	0.124	-0.288
-69.451	-200.000	-0.016	-0.109
-68.436	-55.127	0.218	0.096
-67.422	-137.872	0.129	0.014
-66.407	4.362	-0.304	-0.219
-65.392	127.449	0.060	0.075
-64.378	800.000	0.047	-0.147
-63.363	-99.567	-0.312	0.077
-62.349	-139.851	-0.113	0.012
-61.334	110.544	-0.852	-1.005
-60.319	98.900	0.536	0.607
-59.305	523.552	-0.325	-0.750
-58.290	-200.000	0.334	1.463
-57.276	662.405	0.721	1.824
-56.261	-200.000	95.413	582.113
-55.246	566.761	1366.188	3255.008
-54.232	162.213	2548.453	3506.557
-53.217	106.988	2262.802	2638.280
-52.203	41.748	1890.914	1682.198
-51.188	35.706	1680.973	1449.974
-50.173	32.997	1636.795	1391.887
-49.159	50.209	1683.237	1560.290
-48.144	51.931	1699.794	1588.440
-47.130	35.273	1661.135	1429.408
-46.115	32.514	1646.538	1396.363
-45.100	32.401	1641.403	1391.123
-44.086	32.385	1638.525	1388.508
-43.071	32.276	1636.341	1385.802
-42.057	32.315	1633.998	1384.045
-41.042	32.351	1631.647	1382.263
-40.027	32.327	1629.631	1380.325
-39.013	32.248	1628.285	1378.554
-37.998	32.223	1626.948	1377.180
-36.984	32.358	1625.217	1376.652
-35.969	32.387	1623.983	1375.760
-34.954	32.498	1621.627	1374.521
-33.940	32.457	1619.925	1372.729
-32.925	32.377	1618.887	1371.213
-31.911	32.391	1616.929	1369.601
-30.896	32.480	1614.578	1368.200
-29.881	32.401	1613.655	1366.791
-28.867	32.424	1611.835	1365.361
-27.852	32.448	1610.571	1364.406
-26.838	32.373	1609.332	1362.762
-25.823	32.316	1607.844	1361.035
-24.809	32.382	1606.177	1360.046
-23.794	32.491	1604.781	1359.602
-22.779	32.347	1603.682	1357.576
-21.765	32.360	1601.911	1356.118
-20.750	32.460	1599.706	1354.914
-19.736	32.437	1598.950	1354.056
-18.721	32.390	1597.633	1352.550
-17.706	32.522	1595.643	1351.755
-16.692	32.464	1594.488	1350.312
-15.677	32.524	1592.726	1349.195
-14.663	32.464	1591.789	1347.914
-13.648	32.538	1589.805	1346.712
-12.633	32.420	1588.485	1344.697
-11.619	32.527	1586.765	1343.952
-10.604	32.501	1585.441	1342.591
-9.590	32.562	1584.182	1341.907
-8.575	32.510	1582.836	1340.341
-7.560	32.413	1581.975	1338.868
-6.546	32.399	1580.829	1337.746
-5.531	32.498	1579.384	1337.173
-4.517	32.490	1578.254	1336.110
-3.502	32.312	1577.973	1334.556
-2.487	32.518	1575.419	1333.802
-1.473	32.177	1563.977	1321.661
-0.458	29.549	1545.434	1287.641
0.556	26.539	1546.030	1257.368
1.571	24.237	1570.142	1260.608
2.586	23.799	1583.542	1268.124
3.600	21.483	1530.842	1209.820
4.615	12.291	1420.894	1063.555
5.629	3.746	1354.862	961.071
6.644	2.231	1346.415	945.626
7.659	2.113	1345.068	943.865
8.673	2.135	1343.898	943.099
9.688	1.901	1342.175	940.360
10.702	1.778	1338.955	937.262
11.717	5.384	1345.929	964.335
12.731	15.523	1364.900	1040.985
13.746	23.925	1379.684	1104.579
14.761	26.138	1382.943	1120.853
15.775	26.608	1382.186	1123.057
16.790	26.585	1382.071	1122.717
17.804	26.634	1381.450	1122.417
18.819	26.871	1381.059	1123.466
19.834	27.119	1379.889	1123.954
20.848	27.116	1379.483	1123.506
21.863	27.014	1379.217	1122.555
22.877	27.093	1377.522	1121.568
23.892	27.160	1376.761	1121.259
24.907	27.176	1375.982	1120.627
25.921	27.028	1375.075	1118.878
26.936	27.059	1374.252	1118.296
27.950	27.107	1373.113	1117.567
28.965	27.131	1372.006	1116.717
29.980	27.123	1370.496	1115.340
30.994	26.988	1369.566	1113.654
32.009	27.099	1368.343	1113.241
33.023	27.135	1367.145	1112.388
34.038	27.091	1365.730	1110.874
35.053	27.092	1365.094	1110.262
36.067	27.091	1364.105	1109.354
37.082	27.138	1363.122	1108.744
38.096	27.162	1362.124	1107.980
39.111	27.131	1361.324	1107.043
40.126	27.086	1360.827	1106.263
41.140	27.070	1360.018	1105.408
42.155	27.055	1360.210	1105.379
43.169	27.207	1359.593	1105.703
44.184	27.017	1359.655	1104.501
45.199	26.991	1359.602	1104.204
46.213	27.130	1358.921	1104.393
47.228	27.124	1357.490	1103.096
48.242	27.023	1356.971	1101.964
49.257	27.074	1355.305	1100.826
50.271	27.021	1353.781	1099.168
51.286	27.057	1352.399	1098.168
52.301	27.110	1351.070	1097.312
53.315	27.089	1350.560	1096.675
54.330	26.948	1349.839	1095.138
55.344	27.031	1348.457	1094.419
56.359	27.099	1347.520	1093.976
57.374	26.978	1346.965	1092.697
58.388	27.085	1345.641	1092.168
59.403	27.125	1345.623	1092.300
60.417	27.050	1345.277	1091.470
61.432	27.132	1344.043	1090.864
62.447	27.055	1343.695	1090.024
63.461	27.085	1342.285	1088.963
64.476	27.103	1341.414	1088.270
65.490	27.053	1339.892	1086.640
66.505	27.104	1338.836	1085.989
67.520	27.050	1337.846	1084.768
68.534	27.123	1336.388	1083.929
69.549	27.113	1335.431	1082.993
70.563	27.139	1334.480	1082.286
71.578	27.109	1333.338	1081.085
72.593	27.073	1332.967	1080.471
73.607	27.089	1332.098	1079.769
74.622	27.063	1331.264	1078.840
75.636	27.050	1330.966	1078.425
76.651	27.091	1330.558	1078.247
77.666	27.054	1329.619	1077.170
78.680	27.073	1329.347	1076.964
79.695	27.103	1328.073	1076.019
80.709	27.053	1327.930	1075.506
81.724	27.046	1327.004	1074.620
82.739	27.052	1325.917	1073.683
83.753	27.042	1324.881	1072.689
84.768	27.108	1323.889	1072.179
85.782	27.121	1322.480	1071.024
86.797	27.129	1321.628	1070.285
87.812	27.135	1320.344	1069.186
88.826	27.212	1319.259	1068.664
89.841	27.199	1317.780	1067.298
90.855	27.110	1317.756	1066.658
91.870	27.160	1316.236	1065.628
92.884	27.069	1315.827	1064.666
93.899	27.094	1315.070	1064.109
94.914	27.132	1314.128	1063.473
95.928	27.100	1313.693	1062.843
96.943	27.160	1312.600	1062.212
97.957	27.202	1312.302	1062.126
98.972	27.166	1311.242	1060.963
99.987	27.171	1310.370	1060.191
101.001	27.077	1309.648	1058.964
102.016	27.112	1308.625	1058.250
103.030	27.259	1307.016	1057.707
104.045	27.140	1307.099	1056.990
105.060	27.177	1305.927	1056.165
106.074	27.133	1305.083	1055.134
107.089	27.289	1303.452	1054.623
108.103	27.182	1302.993	1053.540
109.118	27.253	1301.499	1052.652
110.133	27.157	1300.936	1051.547
111.147	27.203	1299.499	1050.557
112.162	27.213	1298.183	1049.455
113.176	27.147	1297.621	1048.529
114.191	27.246	1296.602	1048.185
115.206	27.211	1295.791	1047.237
116.220	27.135	1294.838	1045.937
117.235	27.195	1294.167	1045.645
118.249	27.220	1292.843	1044.626
119.264	27.295	1291.606	1043.965
120.279	27.241	1291.555	1043.519
121.293	27.227	1290.140	1042.204
122.308	27.369	1289.237	1042.199
123.322	27.287	1288.598	1041.121
124.337	27.234	1287.834	1040.105
125.352	27.342	1286.906	1039.883
126.366	27.316	1286.145	1039.028
127.381	27.239	1285.744	1038.171
128.395	27.190	1284.637	1036.906
129.410	27.313	1284.009	1037.010
130.424	27.392	1282.585	1036.217
131.439	27.307	1281.805	1035.012
132.454	27.223	1281.958	1034.568
133.468	27.319	1280.763	1034.052
134.483	27.348	1279.935	1033.462
135.497	27.261	1279.400	1032.444
136.512	27.252	1278.564	1031.628
137.527	27.301	1277.440	1030.903
138.541	27.237	1276.137	1029.397
139.556	27.280	1274.921	1028.570
140.570	27.304	1274.040	1027.904
141.585	27.312	1272.863	1026.912
142.600	27.351	1271.995	1026.337
143.614	27.208	1271.560	1025.092
144.629	27.254	1270.457	1024.370
145.643	27.132	1269.516	1022.835
146.658	27.227	1268.044	1022.091
147.673	27.174	1267.601	1021.348
148.687	27.207	1266.250	1020.353
149.702	27.191	1265.210	1019.332
150.716	27.213	1264.073	1018.452
151.731	27.211	1262.927	1017.425
152.746	27.247	1262.596	1017.268
153.760	27.239	1261.275	1016.073
154.775	27.302	1260.266	1015.519
155.789	27.234	1259.806	1014.680
156.804	27.256	1258.892	1013.976
157.819	27.292	1257.642	1013.079
158.833	27.249	1257.020	1012.249
159.848	27.354	1256.550	1012.366
160.862	27.285	1255.648	1011.167
161.877	27.288	1254.962	1010.544
162.892	27.373	1253.400	1009.667
163.906	27.398	1252.919	1009.327
164.921	27.329	1252.687	1008.668
165.935	27.329	1252.076	1008.088
166.950	27.400	1251.313	1007.778
167.964	27.415	1250.755	1007.323
168.979	27.374	1250.216	1006.574
169.994	27.363	1249.429	1005.787
171.008	27.492	1248.515	1005.674
172.023	27.374	1248.013	1004.530
173.037	27.377	1246.851	1003.526
174.052	27.404	1246.519	1003.316
175.067	27.401	1245.800	1002.636
176.081	27.318	1245.416	1001.776
177.096	27.376	1244.247	1001.070
178.110	27.443	1243.370	1000.644
179.125	27.469	1241.954	999.559
180.140	27.332	1241.312	998.203
181.154	27.402	1239.990	997.435
182.169	27.447	1239.223	996.975
183.183	27.428	1238.195	995.955
184.198	27.375	1237.454	994.983
185.213	27.365	1236.773	994.291
186.227	27.415	1235.853	993.736
187.242	27.530	1234.795	993.423
188.256	27.554	1234.022	992.845
189.271	27.532	1233.127	991.917
190.286	27.461	1232.361	990.827
191.300	27.416	1232.007	990.212
192.315	27.443	1231.467	989.837
193.329	27.507	1230.887	989.631
194.344	27.553	1230.472	989.458
195.359	27.622	1229.461	988.933
196.373	27.549	1229.542	988.512
197.388	27.534	1228.738	987.698
198.402	27.418	1228.393	986.703
199.417	27.435	1228.261	986.605
200.432	27.413	1227.716	985.962
201.446	27.561	1226.694	985.855
202.461	27.498	1226.239	985.059
203.475	27.521	1225.435	984.449
204.490	27.486	1224.459	983.389
205.504	27.554	1223.847	983.179
206.519	27.614	1222.538	982.361
207.534	27.637	1221.657	981.690
208.548	27.516	1220.756	980.232
209.563	27.631	1219.713	979.925
210.577	27.604	1219.040	979.153
211.592	27.506	1218.508	978.109
212.607	27.630	1217.694	978.037
213.621	27.647	1216.895	977.400
214.636	27.623	1216.236	976.656
215.650	27.593	1215.485	975.803
216.665	27.575	1214.382	974.738
217.680	27.605	1213.835	974.370
218.694	27.643	1212.888	973.731
219.709	27.590	1212.460	973.016
220.723	27.658	1211.359	972.406
221.738	27.618	1210.218	971.192
222.753	27.634	1209.939	970.970
223.767	27.553	1209.507	970.104
224.782	27.665	1208.903	970.130
225.796	27.749	1208.403	970.093
226.811	27.736	1207.740	969.401
227.826	27.758	1207.309	969.087
228.840	27.632	1206.749	967.886
229.855	27.584	1206.291	967.178
230.869	27.681	1205.482	966.955
231.884	27.654	1204.588	966.012
232.899	27.697	1204.029	965.706
233.913	27.606	1203.645	964.831
234.928	27.798	1202.984	965.232
235.942	27.871	1202.202	964.905
236.957	27.786	1201.512	963.817
237.972	27.730	1201.021	963.042
238.986	27.838	1200.084	962.771
240.001	27.851	1199.471	962.264
241.015	27.910	1198.677	961.853
242.030	27.954	1198.192	961.611
243.045	27.916	1197.372	960.667
244.059	27.842	1196.670	959.633
245.074	27.871	1195.859	959.046
246.088	27.819	1195.254	958.203
247.103	27.953	1194.113	957.906
248.117	27.853	1193.873	957.108
249.132	27.935	1193.061	956.803
250.147	27.873	1192.598	956.020
251.161	27.912	1191.418	955.192
252.176	27.858	1191.230	954.676
253.190	27.942	1190.387	954.353
254.205	27.873	1190.007	953.607
255.220	27.974	1189.213	953.409
256.234	27.943	1189.003	952.996
257.249	27.948	1188.096	952.210
258.263	28.053	1187.417	952.131
259.278	27.956	1186.794	951.041
260.293	28.078	1186.122	951.052
261.307	28.074	1185.477	950.429
262.322	27.990	1185.066	949.582
263.336	28.049	1184.370	949.243
264.351	28.096	1183.859	948.996
265.366	28.107	1183.199	948.438
266.380	27.879	1182.886	946.922
267.395	28.016	1182.047	946.878
268.409	27.951	1181.507	946.025
269.424	28.051	1180.617	945.745
270.439	28.050	1180.497	945.559
271.453	28.110	1179.745	945.182
272.468	28.183	1178.797	944.716
273.482	28.078	1178.202	943.617
274.497	28.227	1177.595	943.816
275.512	28.235	1176.788	943.125
276.526	28.008	1176.688	941.792
277.541	28.094	1175.617	941.293
278.555	28.157	1174.927	940.982
279.570	28.146	1174.166	940.236
280.585	28.149	1173.581	939.699
281.599	28.137	1172.594	938.762
282.614	28.113	1172.176	938.223
283.628	28.158	1170.926	937.366
284.643	28.183	1169.642	936.387
285.657	28.111	1169.404	935.745
286.672	28.254	1168.470	935.645
287.687	28.289	1167.574	935.025
288.701	28.211	1167.106	934.165
289.716	28.279	1166.487	933.935
290.730	28.181	1166.042	933.000
291.745	28.224	1165.135	932.407
292.760	28.360	1164.360	932.398
293.774	28.389	1163.484	931.762
294.789	28.422	1163.361	931.747
295.803	28.319	1162.957	930.817
296.818	28.296	1162.138	929.964
297.833	28.341	1161.442	929.550
298.847	28.299	1160.931	928.847
299.862	28.360	1159.944	928.287
300.876	28.326	1159.795	927.914
301.891	28.457	1158.748	927.656
302.906	28.495	1158.051	927.209
303.920	28.506	1157.460	926.706
304.935	28.393	1156.897	925.603
305.949	28.510	1156.133	925.504
306.964	28.470	1155.656	924.836
307.979	28.426	1155.356	924.292
308.993	28.500	1154.639	924.008
310.008	28.452	1153.953	923.137
311.022	28.461	1152.867	922.233
312.037	28.478	1152.371	921.837
313.052	28.552	1151.313	921.285
314.066	28.419	1150.320	919.739
315.081	28.470	1150.088	919.730
316.095	28.427	1149.421	918.897
317.110	28.489	1148.964	918.761
318.125	28.589	1148.068	918.467
319.139	28.500	1147.442	917.437
320.154	28.536	1146.688	916.932
321.168	28.543	1146.306	916.580
322.183	28.556	1145.542	915.957
323.197	28.564	1145.046	915.520
324.212	28.654	1144.721	915.626
325.227	28.655	1144.182	915.117
326.241	28.656	1143.742	914.688
327.256	28.599	1143.052	913.772
328.270	28.669	1141.971	913.177
329.285	28.718	1140.922	912.499
330.300	28.682	1140.403	911.825
331.314	28.683	1139.509	911.035
332.329	28.669	1138.889	910.389
333.343	28.590	1138.366	909.500
334.358	28.833	1137.303	909.775
335.373	28.658	1137.030	908.611
336.387	28.772	1136.156	908.394
337.402	28.681	1135.593	907.413
338.416	28.709	1134.964	906.967
339.431	28.780	1134.496	906.865
340.446	28.770	1133.794	906.172
341.460	28.893	1132.912	905.996
342.475	28.801	1132.284	904.957
343.489	28.851	1131.078	904.159
344.504	28.834	1130.625	903.636
345.519	28.797	1129.645	902.589
346.533	28.896	1128.771	902.298
347.548	28.881	1128.224	901.710
348.562	28.845	1127.559	900.920
349.577	28.947	1126.818	900.748
350.592	28.819	1126.015	899.400
351.606	28.757	1125.453	898.569
352.621	28.982	1124.945	899.181
353.635	28.827	1124.389	897.903
354.650	29.001	1123.488	897.951
355.665	28.937	1123.132	897.274
356.679	28.950	1122.262	896.563
357.694	29.031	1121.836	896.542
358.708	28.934	1121.330	895.585
359.723	28.956	1120.312	894.800
360.738	29.002	1119.659	894.420
361.752	28.906	1119.549	893.787
362.767	29.073	1118.822	893.940
363.781	28.991	1118.170	892.939
364.796	28.990	1118.190	892.872
365.810	29.059	1117.167	892.310
366.825	29.204	1115.916	891.934
367.840	29.125	1115.907	891.469
368.854	29.150	1115.260	890.994
369.869	29.037	1114.691	889.913
370.883	29.206	1113.970	890.075
371.898	29.148	1113.404	889.262
372.913	29.143	1113.048	888.879
373.927	29.312	1111.903	888.696
374.942	29.236	1111.849	888.209
375.956	29.126	1111.182	887.070
376.971	29.136	1110.981	886.876
377.986	29.221	1110.307	886.669
379.000	29.308	1109.475	886.346
380.015	29.286	1109.081	885.848
381.029	29.207	1108.341	884.798
382.044	29.299	1107.549	884.531
383.059	29.304	1106.940	883.989
384.073	29.314	1106.430	883.549
385.088	29.330	1105.116	882.499
386.102	29.275	1104.882	881.971
387.117	29.362	1104.015	881.617
388.132	29.372	1103.091	880.851
389.146	29.320	1102.282	879.877
390.161	29.462	1101.865	880.146
391.175	29.391	1101.285	879.265
392.190	29.505	1100.688	879.255
393.205	29.270	1100.174	877.643
394.219	29.466	1099.194	877.719
395.234	29.434	1098.248	876.731
396.248	29.359	1097.286	875.532
397.263	29.360	1096.795	875.068
398.278	29.538	1096.315	875.450
399.292	29.494	1095.833	874.782
400.307	29.564	1094.924	874.306
401.321	29.439	1094.690	873.450
402.336	29.495	1093.861	872.978
403.350	29.474	1093.565	872.564
404.365	29.554	1092.859	872.304
405.380	29.607	1091.703	871.553
406.394	29.585	1091.388	871.120
407.409	29.556	1090.779	870.419
408.423	29.615	1089.865	869.892
409.438	29.534	1089.138	868.853
410.453	29.617	1088.705	868.821
411.467	29.597	1087.741	867.884
412.482	29.602	1087.174	867.376
413.496	29.634	1086.175	866.651
414.511	29.561	1085.960	866.063
415.526	29.658	1085.645	866.189
416.540	29.659	1085.187	865.751
417.555	29.634	1084.670	865.147
418.569	29.596	1084.398	864.676
419.584	29.783	1083.475	864.738
420.599	29.643	1083.424	863.963
421.613	104.697	1320.956	1458.553
422.628	97.455	1355.527	1458.672
