DTS Sentinel unit serial number:	SN413079Multiplexer serial number:	ORYXHardware model number:	OX4-SRSoftware version number:	ORYX F/W v4.00 Oryx Data Collector v3.7.2.0data status	okinstallation	princeton_trtdifferential loss correction	single-endedforward channel	channel 2reverse channel	N/Adate	2019/09/17time	13:35:35forward acquisition time	60.00reverse acquisition time	0.00gamma	496.2192k internal	0.2317k external	0.2317temperature offset calibration	0.9986default loss term (dB/km)	0.3790temperature slope calibration	1.0000multiplexer offset coefficient	1.0000multiplexer slope coefficient	1.0000fibre end	0.00T internal ref (°C)	34.73T ext. ref 1 (°C)	0.42T ext. ref 2 (°C)	31.82length (m)	temperature (°C)	Stokes	anti-Stokes-747.200	-78.749	-0.199	0.069
-746.185	422.273	-0.085	-0.185
-745.171	-107.569	0.356	0.079
-744.156	122.998	-0.144	0.182
-743.142	-115.841	-0.105	-0.020
-742.127	-108.389	0.092	0.020
-741.112	-86.186	0.389	-0.122
-740.098	114.009	-0.171	-0.211
-739.083	254.848	0.131	-0.227
-738.069	344.633	-0.197	0.392
-737.054	-200.000	0.039	-0.195
-736.039	-135.481	-0.359	0.043
-735.025	26.692	-0.201	0.171
-734.010	-200.000	0.013	-0.203
-732.996	688.426	-0.138	-0.365
-731.981	-200.000	0.018	0.104
-730.966	-95.854	-0.293	0.079
-729.952	-200.000	-0.015	-0.195
-728.937	239.241	-0.074	0.124
-727.923	-170.280	-0.345	0.012
-726.908	17.740	-0.344	-0.277
-725.894	104.252	-0.164	-0.195
-724.879	-200.000	-0.073	0.370
-723.864	98.653	0.230	-0.268
-722.850	-59.264	0.198	-0.086
-721.835	170.581	0.063	0.091
-720.821	-156.201	-0.031	-0.002
-719.806	-200.000	0.008	-0.146
-718.791	-74.666	-0.122	0.044
-717.777	61.831	-0.061	-0.061
-716.762	-125.103	-0.413	0.064
-715.748	800.000	-0.051	-0.188
-714.733	8.614	-0.269	-0.205
-713.718	800.000	0.029	0.088
-712.704	141.230	0.093	-0.125
-711.689	66.261	0.267	0.274
-710.675	-93.422	-0.110	0.031
-709.660	18.773	0.138	0.112
-708.645	61.586	-0.194	-0.195
-707.631	3.817	0.300	-0.222
-706.616	-90.600	0.300	-0.088
-705.602	-89.754	-0.166	-0.049
-704.587	-79.363	0.060	0.021
-703.572	-200.000	-0.040	-0.195
-702.558	-200.000	-0.006	-0.155
-701.543	-43.910	-0.290	-0.147
-700.529	156.654	0.139	-0.194
-699.514	612.035	0.069	-0.173
-698.499	161.318	-0.043	-0.060
-697.485	-47.381	-0.214	-0.105
-696.470	-102.752	0.292	0.070
-695.456	-102.669	-0.362	0.087
-694.441	73.604	0.083	0.088
-693.426	-200.000	-0.003	-0.028
-692.412	-200.000	-0.049	0.251
-691.397	-72.288	-0.149	0.056
-690.383	-104.013	0.159	-0.037
-689.368	196.109	-0.192	0.296
-688.354	-200.000	0.011	0.129
-687.339	288.073	0.175	0.320
-686.324	800.000	0.008	-0.028
-685.310	-165.057	0.156	-0.007
-684.295	-82.822	-0.479	0.156
-683.281	-6.798	-0.342	0.235
-682.266	-144.197	-0.372	-0.035
-681.251	182.186	0.178	0.264
-680.237	-73.249	-0.184	0.068
-679.222	-34.441	-0.298	-0.165
-678.208	3.481	-0.241	-0.178
-677.193	150.689	-0.305	-0.419
-676.178	24.158	0.060	0.050
-675.164	40.590	-0.081	-0.073
-674.149	800.000	-0.056	0.247
-673.135	-138.440	0.147	-0.016
-672.120	800.000	-0.066	-0.213
-671.105	800.000	0.042	-0.164
-670.091	464.688	-0.100	-0.227
-669.076	102.283	0.271	0.320
-668.062	447.247	-0.087	-0.193
-667.047	18.520	0.133	0.108
-666.032	-200.000	0.008	0.148
-665.018	104.527	0.161	-0.192
-664.003	800.000	-0.104	-0.334
-662.989	535.664	-0.027	0.065
-661.974	-10.934	-0.111	-0.074
-660.959	-200.000	-0.018	-0.355
-659.945	-200.000	-0.043	-0.273
-658.930	407.279	-0.124	0.264
-657.916	-72.390	0.190	0.071
-656.901	493.682	0.111	0.257
-655.886	199.253	-0.031	0.048
-654.872	682.715	-0.055	-0.146
-653.857	734.397	-0.140	-0.379
-652.843	63.852	-0.232	-0.235
-651.828	-18.560	0.095	-0.060
-650.814	73.562	-0.227	0.240
-649.799	-42.075	0.146	-0.075
-648.784	-3.987	-0.173	0.121
-647.770	-200.000	-0.024	0.149
-646.755	378.059	0.085	-0.176
-645.741	-62.621	-0.229	-0.096
-644.726	-127.269	0.022	0.003
-643.711	129.275	-0.138	0.177
-642.697	63.042	-0.090	-0.091
-641.682	0.377	-0.137	-0.099
-640.668	79.833	0.060	0.065
-639.653	230.234	0.144	0.238
-638.638	234.749	0.133	0.222
-637.624	169.028	-0.199	0.286
-636.609	-20.970	0.026	-0.016
-635.595	226.656	-0.137	0.224
-634.580	-13.599	-0.275	-0.180
-633.565	12.894	-0.288	0.224
-632.551	171.949	0.100	-0.144
-631.536	-200.000	0.035	0.276
-630.522	-182.175	-0.198	-0.004
-629.507	-21.497	-0.100	-0.062
-628.492	131.203	-0.044	-0.057
-627.478	800.000	-0.007	-0.020
-626.463	379.334	0.043	0.089
-625.449	-44.327	0.385	-0.194
-624.434	-200.000	0.073	0.332
-623.419	181.362	-0.078	0.116
-622.405	84.217	0.189	-0.208
-621.390	-59.741	-0.054	0.024
-620.376	-93.405	0.256	0.071
-619.361	-200.000	0.002	0.108
-618.346	-25.142	-0.216	-0.129
-617.332	-56.401	0.138	-0.062
-616.317	800.000	0.152	-0.449
-615.303	-137.279	-0.300	-0.034
-614.288	-102.922	0.204	0.049
-613.273	800.000	0.106	0.337
-612.259	-101.901	-0.326	-0.079
-611.244	-110.744	-0.279	0.058
-610.230	47.844	-0.205	-0.193
-609.215	8.908	-0.114	0.086
-608.201	-200.000	-0.008	0.056
-607.186	2.309	0.083	0.061
-606.171	-200.000	0.005	0.140
-605.157	800.000	0.111	0.350
-604.142	574.194	-0.018	0.045
-603.128	-200.000	-0.010	0.160
-602.113	-114.076	-0.166	0.032
-601.098	-200.000	0.038	-0.238
-600.084	187.063	-0.096	0.145
-599.069	-133.187	0.212	0.027
-598.055	-200.000	0.033	-0.199
-597.040	78.035	0.100	-0.107
-596.025	-17.678	-0.283	-0.179
-595.011	173.906	0.208	0.303
-593.996	117.585	-0.081	0.100
-592.982	85.141	-0.173	0.191
-591.967	-155.127	-0.280	-0.018
-590.952	-2.073	-0.173	-0.122
-589.938	46.735	-0.214	-0.200
-588.923	726.945	-0.076	0.204
-587.909	23.873	-0.137	-0.113
-586.894	800.000	-0.040	0.177
-585.879	91.172	-0.041	-0.047
-584.865	18.479	0.086	0.069
-583.850	-38.428	-0.095	0.051
-582.836	800.000	-0.071	0.276
-581.821	59.171	0.129	0.127
-580.806	2.389	-0.242	0.176
-579.792	-200.000	0.021	0.187
-578.777	-36.461	0.267	0.145
-577.763	-200.000	0.001	-0.242
-576.748	800.000	-0.034	0.135
-575.733	-83.669	0.174	-0.056
-574.719	11.789	-0.040	-0.031
-573.704	-30.561	-0.146	-0.083
-572.690	-178.103	-0.377	-0.009
-571.675	109.683	-0.121	-0.146
-570.661	-57.006	0.167	-0.074
-569.646	-10.309	-0.230	-0.153
-568.631	-200.000	0.001	-0.015
-567.617	-94.507	0.372	0.102
-566.602	-200.000	-0.054	0.342
-565.588	-200.000	-0.033	0.174
-564.573	800.000	0.096	0.344
-563.558	348.948	0.202	0.401
-562.544	-200.000	-0.056	-0.358
-561.529	800.000	0.020	0.075
-560.515	122.034	-0.058	0.073
-559.500	499.119	-0.054	-0.125
-558.485	-5.033	0.085	-0.059
-557.471	-51.926	-0.282	-0.132
-556.456	800.000	-0.054	-0.186
-555.442	-133.353	0.274	0.035
-554.427	-68.580	-0.138	-0.054
-553.412	38.847	0.131	0.117
-552.398	500.118	-0.047	-0.109
-551.383	-133.111	0.029	-0.004
-550.369	-200.000	-0.023	-0.165
-549.354	-26.105	0.159	-0.094
-548.339	310.875	0.049	0.093
-547.325	37.691	0.149	0.133
-546.310	-120.658	0.491	-0.083
-545.296	-162.744	-0.290	-0.014
-544.281	47.080	-0.154	-0.144
-543.266	260.581	0.015	-0.025
-542.252	20.017	-0.105	-0.085
-541.237	98.218	-0.082	0.095
-540.223	-197.758	0.257	0.002
-539.208	-200.000	0.008	0.336
-538.193	800.000	-0.092	0.289
-537.179	-66.314	-0.011	0.005
-536.164	371.188	-0.044	0.089
-535.150	30.135	0.324	0.278
-534.135	-200.000	-0.009	0.058
-533.121	-112.177	0.427	0.086
-532.106	455.645	0.116	-0.258
-531.091	-153.188	-0.211	-0.015
-530.077	-157.697	0.118	0.007
-529.062	-69.305	-0.063	0.024
-528.048	-51.648	0.044	-0.021
-527.033	-134.092	0.449	-0.056
-526.018	94.741	0.047	-0.053
-525.004	-148.719	0.115	-0.009
-523.989	150.380	0.080	0.110
-522.975	-200.000	0.054	0.366
-521.960	109.312	0.161	-0.193
-520.945	332.698	-0.063	-0.123
-519.931	800.000	0.043	-0.169
-518.916	-34.870	0.126	0.069
-517.902	-154.474	-0.074	0.005
-516.887	264.429	-0.064	-0.112
-515.872	769.631	0.077	-0.209
-514.858	-200.000	-0.008	-0.065
-513.843	239.193	0.117	0.196
-512.829	-200.000	-0.035	-0.184
-511.814	-200.000	-0.031	0.256
-510.799	535.541	-0.036	-0.085
-509.785	791.064	-0.025	0.070
-508.770	638.411	-0.103	-0.264
-507.756	57.695	-0.116	-0.114
-506.741	129.529	-0.217	-0.278
-505.726	347.031	-0.203	-0.401
-504.712	-0.409	-0.200	-0.143
-503.697	-66.433	0.133	-0.053
-502.683	-144.252	0.134	-0.012
-501.668	204.068	0.119	0.186
-500.653	-104.511	0.319	0.074
-499.639	97.752	0.211	-0.243
-498.624	-200.000	-0.065	-0.287
-497.610	192.370	0.112	-0.170
-496.595	800.000	-0.059	0.204
-495.581	-200.000	0.065	0.301
-494.566	800.000	0.067	-0.247
-493.551	229.492	-0.126	-0.206
-492.537	97.115	-0.088	-0.101
-491.522	800.000	-0.057	0.232
-490.508	229.430	-0.144	0.236
-489.493	-103.068	0.094	0.022
-488.478	-22.324	-0.113	0.069
-487.464	-66.531	0.096	0.038
-486.449	-200.000	0.086	0.387
-485.435	270.016	0.052	0.092
-484.420	-53.421	-0.226	-0.104
-483.405	146.816	0.273	0.367
-482.391	-92.030	0.150	0.043
-481.376	-200.000	0.024	0.204
-480.362	603.661	0.026	0.066
-479.347	-122.236	0.550	-0.090
-478.332	-35.923	0.084	0.045
-477.318	547.486	0.062	0.149
-476.303	-200.000	0.019	0.191
-475.289	119.697	0.067	-0.083
-474.274	-24.526	0.214	-0.128
-473.259	14.650	0.203	-0.159
-472.245	-1.679	0.083	-0.059
-471.230	229.193	0.158	0.258
-470.216	-32.423	0.016	-0.009
-469.201	-32.299	-0.225	-0.126
-468.186	-200.000	-0.079	-0.515
-467.172	757.341	0.091	-0.246
-466.157	433.008	0.060	0.130
-465.143	-99.759	0.181	0.045
-464.128	-43.183	-0.260	0.132
-463.113	-108.126	0.387	-0.084
-462.099	-150.399	-0.319	0.025
-461.084	-200.000	0.007	0.030
-460.070	322.099	-0.045	0.086
-459.055	306.566	-0.032	0.059
-458.040	327.532	0.048	-0.093
-457.026	800.000	-0.156	-0.479
-456.011	9.997	0.193	-0.147
-454.997	-45.770	-0.291	-0.144
-453.982	-55.523	-0.271	0.122
-452.968	-37.083	0.046	0.025
-451.953	224.866	-0.133	-0.216
-450.938	153.680	-0.179	-0.245
-449.924	-111.824	-0.084	0.017
-448.909	800.000	-0.085	0.275
-447.895	147.479	0.241	0.325
-446.880	-200.000	0.008	0.123
-445.865	671.454	0.087	-0.225
-444.851	800.000	-0.083	-0.321
-443.836	-200.000	-0.015	0.223
-442.822	-200.000	-0.035	0.216
-441.807	118.647	-0.127	-0.156
-440.792	2.161	-0.259	-0.187
-439.778	164.771	0.077	-0.109
-438.763	-69.545	-0.280	-0.107
-437.749	180.540	0.084	0.123
-436.734	52.566	-0.116	-0.111
-435.719	-2.886	-0.283	-0.198
-434.705	-170.073	-0.290	-0.010
-433.690	-200.000	-0.027	-0.235
-432.676	800.000	0.046	-0.193
-431.661	31.645	-0.138	-0.119
-430.646	134.590	-0.062	-0.081
-429.632	-106.619	-0.037	0.008
-428.617	-200.000	0.001	0.196
-427.603	-124.521	-0.294	0.046
-426.588	-126.717	0.144	-0.021
-425.573	-131.364	-0.246	-0.033
-424.559	-42.722	-0.161	0.082
-423.544	-53.231	-0.117	-0.054
-422.530	504.192	0.070	0.162
-421.515	-28.447	0.079	0.046
-420.500	-10.100	-0.397	0.264
-419.486	-50.543	-0.056	-0.027
-418.471	282.968	0.028	-0.051
-417.457	-200.000	0.048	-0.243
-416.442	-200.000	-0.002	-0.090
-415.428	-82.356	0.178	0.058
-414.413	-76.775	-0.072	0.025
-413.398	-200.000	-0.001	-0.135
-412.384	-190.356	0.101	-0.001
-411.369	-138.254	-0.067	0.007
-410.355	75.324	0.187	-0.197
-409.340	-2.211	0.226	0.159
-408.325	5.997	0.123	0.091
-407.311	-200.000	-0.024	0.185
-406.296	490.329	0.174	0.398
-405.282	138.475	0.129	0.169
-404.267	192.836	0.112	-0.169
-403.252	-21.520	-0.078	0.048
-402.238	-32.593	-0.348	-0.193
-401.223	-123.850	0.256	-0.040
-400.209	-64.780	-0.198	-0.080
-399.194	233.013	-0.097	-0.160
-398.179	-76.052	0.112	0.040
-397.165	-3.918	-0.048	-0.033
-396.150	103.673	0.117	-0.137
-395.136	-200.000	0.004	0.054
-394.121	350.943	0.031	0.062
-393.106	-109.270	0.182	0.039
-392.092	668.968	0.060	-0.154
-391.077	-96.920	-0.281	-0.074
-390.063	43.250	-0.040	-0.037
-389.048	800.000	-0.098	0.280
-388.033	-11.835	0.133	0.087
-387.019	-108.196	-0.088	0.019
-386.004	800.000	0.063	-0.190
-384.990	3.336	0.100	-0.073
-383.975	-24.681	-0.145	0.086
-382.960	63.190	-0.040	-0.040
-381.946	800.000	0.036	0.113
-380.931	180.702	0.184	-0.270
-379.917	142.303	-0.186	0.246
-378.902	800.000	-0.032	0.135
-377.888	-200.000	0.009	0.165
-376.873	-92.960	-0.150	0.042
-375.858	-154.582	0.489	0.033
-374.844	-200.000	-0.011	0.230
-373.829	-200.000	0.074	-0.407
-372.815	403.758	0.063	0.132
-371.800	-119.901	-0.220	0.038
-370.785	800.000	0.024	-0.102
-369.771	-200.000	0.025	-0.275
-368.756	-65.708	-0.192	-0.077
-367.742	800.000	0.071	-0.276
-366.727	-62.428	0.301	-0.125
-365.712	800.000	0.015	-0.054
-364.698	-171.175	0.140	0.005
-363.683	59.514	-0.134	-0.132
-362.669	232.080	0.098	-0.160
-361.654	-99.969	-0.115	0.029
-360.639	-200.000	0.030	0.285
-359.625	-200.000	0.026	-0.172
-358.610	-125.256	-0.163	-0.025
-357.596	120.563	0.058	0.072
-356.581	-97.066	0.240	0.063
-355.566	-200.000	0.053	0.251
-354.552	-68.274	-0.047	0.018
-353.537	800.000	-0.054	-0.153
-352.523	-154.191	-0.024	0.002
-351.508	-200.000	-0.033	0.173
-350.493	26.818	-0.043	-0.036
-349.479	-177.478	-0.221	-0.005
-348.464	-200.000	-0.035	0.300
-347.450	-200.000	0.011	-0.228
-346.435	-77.701	0.186	-0.064
-345.420	-200.000	0.016	-0.502
-344.406	280.974	0.228	0.406
-343.391	-200.000	0.006	-0.240
-342.377	-81.736	-0.050	-0.016
-341.362	390.723	0.136	0.282
-340.348	67.375	0.261	-0.265
-339.333	-200.000	-0.005	-0.250
-338.318	136.831	-0.049	0.063
-337.304	52.533	-0.067	-0.064
-336.289	37.091	0.211	0.186
-335.275	151.157	-0.086	0.117
-334.260	-2.638	-0.171	0.119
-333.245	-200.000	0.005	0.077
-332.231	-120.668	0.184	-0.031
-331.216	800.000	-0.033	-0.095
-330.202	800.000	-0.152	0.444
-329.187	-200.000	-0.012	-0.080
-328.172	164.634	0.040	-0.057
-327.158	63.919	-0.113	-0.113
-326.143	-200.000	-0.035	0.190
-325.129	-121.223	-0.193	0.032
-324.114	-28.957	0.239	-0.137
-323.099	53.804	-0.329	-0.315
-322.085	159.396	-0.087	-0.121
-321.070	13.407	-0.170	-0.131
-320.056	-200.000	-0.009	0.197
-319.041	-64.028	-0.213	-0.087
-318.026	-119.619	-0.461	0.079
-317.012	126.338	0.098	-0.124
-315.997	-162.681	0.270	0.013
-314.983	-200.000	-0.014	0.146
-313.968	58.359	-0.247	-0.241
-312.953	370.168	0.127	0.256
-311.939	74.892	-0.278	-0.292
-310.924	196.047	0.037	-0.056
-309.910	-96.055	0.099	0.026
-308.895	-77.624	-0.285	-0.098
-307.880	-200.000	0.030	-0.316
-306.866	-12.669	0.300	-0.195
-305.851	50.258	0.162	0.153
-304.837	53.571	-0.204	-0.195
-303.822	-156.051	-0.062	-0.004
-302.807	94.566	0.096	0.108
-301.793	755.467	-0.090	-0.241
-300.778	-94.031	-0.187	0.051
-299.764	759.340	0.088	-0.238
-298.749	341.016	0.074	-0.144
-297.735	241.010	-0.106	0.176
-296.720	-167.608	-0.219	-0.009
-295.705	247.802	0.063	0.106
-294.691	-200.000	0.031	-0.182
-293.676	475.790	0.054	0.122
-292.662	-21.526	0.196	0.119
-291.647	54.462	0.094	0.090
-290.632	800.000	-0.080	0.299
-289.618	-131.723	0.279	-0.036
-288.603	-200.000	-0.034	-0.190
-287.589	-200.000	0.003	-0.226
-286.574	15.086	-0.181	0.141
-285.559	-23.850	0.257	-0.153
-284.545	40.048	0.147	-0.132
-283.530	77.674	0.095	0.100
-282.516	533.521	-0.134	-0.315
-281.501	-200.000	-0.019	-0.196
-280.486	-135.496	0.197	-0.023
-279.472	-9.528	-0.011	0.007
-278.457	382.135	-0.065	0.133
-277.443	800.000	-0.050	0.170
-276.428	-74.560	0.193	-0.069
-275.413	-200.000	-0.005	0.365
-274.399	78.038	-0.069	0.074
-273.384	146.255	-0.110	-0.146
-272.370	274.613	0.172	0.303
-271.355	-41.093	0.076	0.039
-270.340	-200.000	-0.040	-0.429
-269.326	-34.535	-0.216	-0.118
-268.311	-200.000	-0.006	-0.129
-267.297	329.598	0.049	0.094
-266.282	238.533	-0.176	0.291
-265.267	395.140	0.039	0.080
-264.253	191.228	-0.174	0.260
-263.238	-133.331	-0.141	-0.018
-262.224	166.141	-0.095	0.133
-261.209	61.016	0.247	-0.243
-260.195	226.484	-0.124	-0.200
-259.180	-131.844	0.122	-0.016
-258.165	72.847	-0.297	0.309
-257.151	288.731	-0.095	0.170
-256.136	800.000	-0.045	0.179
-255.122	-57.922	0.208	-0.090
-254.107	-68.522	0.130	0.050
-253.092	-143.571	-0.077	0.007
-252.078	11.747	0.139	-0.106
-251.063	27.783	0.327	0.273
-250.049	184.738	0.030	0.045
-249.034	-92.248	-0.082	0.023
-248.019	184.482	0.277	0.408
-247.005	-61.459	0.186	0.078
-245.990	-200.000	-0.052	0.230
-244.976	-74.751	0.058	-0.021
-243.961	-65.563	0.170	-0.068
-242.946	214.668	-0.278	0.438
-241.932	-151.527	-0.245	0.018
-240.917	-61.337	0.111	-0.046
-239.903	1.592	0.213	0.152
-238.888	102.019	-0.128	-0.148
-237.873	15.803	-0.185	-0.144
-236.859	-93.049	-0.245	-0.068
-235.844	-34.446	-0.183	0.100
-234.830	92.174	0.192	-0.215
-233.815	-50.400	0.392	-0.184
-232.800	-200.000	0.011	0.190
-231.786	800.000	-0.014	-0.062
-230.771	800.000	-0.064	0.221
-229.757	-79.255	0.246	-0.083
-228.742	30.191	0.370	0.313
-227.727	49.197	-0.260	0.243
-226.713	185.037	0.044	-0.065
-225.698	-200.000	-0.015	-0.343
-224.684	-200.000	0.029	-0.336
-223.669	-71.895	0.244	-0.090
-222.655	21.431	0.072	-0.058
-221.640	46.110	-0.148	-0.136
-220.625	-4.164	-0.144	-0.099
-219.611	-142.356	-0.108	0.011
-218.596	-67.201	0.314	0.123
-217.582	163.949	0.251	0.351
-216.567	-86.508	0.400	0.122
-215.552	3.558	0.216	0.156
-214.538	-200.000	-0.002	0.031
-213.523	-39.570	0.307	0.160
-212.509	31.695	-0.079	-0.067
-211.494	-152.113	-0.174	-0.013
-210.479	304.666	0.201	-0.369
-209.465	-200.000	0.042	-0.215
-208.450	40.478	0.162	-0.145
-207.436	-140.732	-0.195	-0.020
-206.421	168.695	-0.155	-0.219
-205.406	-200.000	0.006	-0.118
-204.392	-41.097	-0.305	-0.156
-203.377	-200.000	0.035	-0.242
-202.363	-45.556	0.152	-0.075
-201.348	-39.140	-0.142	-0.074
-200.333	-88.407	0.116	-0.034
-199.319	-90.669	0.187	-0.053
-198.304	19.523	-0.177	0.141
-197.290	5.438	-0.119	-0.087
-196.275	-80.113	-0.108	-0.036
-195.260	-39.370	-0.300	-0.156
-194.246	-133.024	-0.291	0.037
-193.231	-127.252	0.311	0.045
-192.217	-146.971	0.174	0.015
-191.202	110.067	0.134	-0.160
-190.187	191.006	0.140	0.208
-189.173	-104.161	-0.256	-0.059
-188.158	89.535	-0.121	-0.134
-187.144	85.080	0.256	0.279
-186.129	-200.000	0.002	-0.014
-185.114	-50.141	0.329	-0.154
-184.100	800.000	-0.097	-0.278
-183.085	9.172	-0.176	0.132
-182.071	-141.436	-0.318	-0.032
-181.056	11.591	-0.164	0.125
-180.042	200.918	-0.157	0.239
-179.027	-160.414	0.091	0.005
-178.012	-200.000	-0.007	0.120
-176.998	800.000	-0.073	-0.280
-175.983	-51.236	0.319	-0.148
-174.969	13.467	-0.068	0.052
-173.954	-8.950	0.199	-0.132
-172.939	-20.891	-0.194	0.117
-171.925	4.768	-0.123	0.090
-170.910	37.089	0.201	-0.176
-169.896	-25.879	0.138	0.080
-168.881	-200.000	-0.011	0.119
-167.866	-48.791	-0.434	0.206
-166.852	142.251	0.173	0.228
-165.837	-101.771	-0.069	0.016
-164.823	-124.987	0.228	0.035
-163.808	194.660	-0.229	0.344
-162.793	71.403	-0.195	-0.201
-161.779	85.622	0.154	-0.168
-160.764	65.298	0.228	-0.228
-159.750	270.886	0.098	-0.171
-158.735	45.623	-0.159	-0.145
-157.720	54.324	-0.174	0.166
-156.706	2.645	0.178	0.127
-155.691	336.131	-0.049	0.094
-154.677	212.748	0.041	0.063
-153.662	800.000	-0.058	-0.249
-152.647	40.811	0.088	-0.078
-151.633	-200.000	-0.026	0.382
-150.618	36.447	0.238	0.208
-149.604	17.991	0.269	-0.212
-148.589	-124.204	0.606	0.094
-147.574	60.933	-0.212	0.208
-146.560	-112.615	0.146	-0.029
-145.545	20.368	0.177	-0.141
-144.531	-171.818	0.420	0.014
-143.516	148.713	-0.133	-0.177
-142.502	-33.958	-0.200	0.109
-141.487	-200.000	0.051	0.415
-140.472	112.763	-0.199	0.238
-139.458	-108.820	-0.082	0.017
-138.443	281.689	-0.085	-0.151
-137.429	-106.212	0.244	0.054
-136.414	-44.621	0.136	-0.067
-135.399	-103.966	0.188	0.043
-134.385	265.424	-0.122	0.211
-133.370	-22.133	0.342	-0.205
-132.356	-58.663	0.307	0.132
-131.341	-200.000	0.001	-0.057
-130.326	271.883	0.094	-0.163
-129.312	800.000	-0.077	-0.215
-128.297	15.279	-0.222	0.172
-127.283	-30.359	0.081	-0.045
-126.268	-137.342	-0.059	0.007
-125.253	347.528	-0.112	-0.218
-124.239	-200.000	0.022	-0.192
-123.224	93.795	0.119	-0.133
-122.210	189.090	-0.239	0.354
-121.195	-25.999	0.133	-0.077
-120.180	146.548	0.100	-0.133
-119.166	-7.450	0.248	-0.166
-118.151	-93.231	0.257	0.071
-117.137	240.794	0.141	-0.233
-116.122	465.591	0.106	0.236
-115.107	161.460	0.192	0.265
-114.093	8.064	-0.254	0.188
-113.078	-200.000	0.009	0.062
-112.064	1.721	0.318	0.226
-111.049	53.261	-0.308	-0.291
-110.034	202.055	-0.184	0.280
-109.020	800.000	0.094	0.312
-108.005	56.648	0.312	0.300
-106.991	-200.000	-0.033	0.176
-105.976	-79.128	0.069	0.023
-104.962	800.000	0.004	0.016
-103.947	95.610	0.110	-0.124
-102.932	-200.000	0.073	0.318
-101.918	-10.740	-0.313	-0.205
-100.903	-34.054	0.151	-0.082
-99.889	557.744	0.093	0.221
-98.874	257.914	0.102	-0.173
-97.859	-96.504	0.296	0.077
-96.845	800.000	0.024	0.069
-95.830	-34.776	-0.047	0.025
-94.816	-72.394	-0.217	0.079
-93.801	167.772	0.076	-0.107
-92.786	44.627	0.184	-0.167
-91.772	-37.372	-0.125	0.066
-90.757	196.029	-0.150	-0.225
-89.743	94.849	-0.149	0.167
-88.728	800.000	0.058	0.207
-87.713	76.676	0.106	-0.111
-86.699	-52.150	0.255	-0.117
-85.684	-44.378	0.137	0.068
-84.670	-56.598	-0.042	-0.018
-83.655	-200.000	0.001	-0.113
-82.640	-100.299	-0.287	0.070
-81.626	156.282	-0.061	0.083
-80.611	-24.606	-0.269	-0.158
-79.597	-122.978	0.045	0.007
-78.582	-200.000	-0.043	0.203
-77.567	-45.037	-0.363	0.178
-76.553	-23.790	0.163	-0.097
-75.538	164.034	0.124	-0.172
-74.524	-18.773	-0.051	-0.031
-73.509	-200.000	-0.004	-0.333
-72.494	43.283	0.241	-0.217
-71.480	800.000	-0.058	-0.192
-70.465	-61.284	0.114	-0.047
-69.451	277.538	-0.158	-0.278
-68.436	96.884	-0.137	-0.154
-67.422	-61.087	-0.091	-0.038
-66.407	-85.437	0.130	0.040
-65.392	-43.076	-0.173	0.086
-64.378	79.044	0.084	0.089
-63.363	-46.336	0.027	0.013
-62.349	-200.000	-0.074	0.365
-61.334	64.845	-0.867	-0.863
-60.319	86.537	0.309	0.336
-59.305	484.378	-0.448	-1.005
-58.290	800.000	0.213	0.876
-57.276	800.000	0.517	1.613
-56.261	-200.000	94.310	545.236
-55.246	516.524	1401.142	3228.519
-54.232	147.788	2624.023	3486.669
-53.217	105.808	2343.130	2732.172
-52.203	44.239	1949.440	1763.147
-51.188	37.947	1732.660	1518.250
-50.173	35.147	1686.728	1456.687
-49.159	50.538	1733.714	1616.284
-48.144	53.342	1751.776	1654.701
-47.130	37.696	1708.191	1494.645
-46.115	34.770	1693.591	1459.504
-45.100	34.613	1688.597	1453.945
-44.086	34.611	1685.587	1451.281
-43.071	34.663	1682.860	1449.266
-42.057	34.530	1681.032	1446.629
-41.042	34.611	1678.887	1445.340
-40.027	34.613	1677.331	1443.953
-39.013	34.618	1674.882	1441.828
-37.998	34.520	1673.311	1439.680
-36.984	34.668	1671.784	1439.422
-35.969	34.714	1670.610	1438.702
-34.954	34.775	1668.780	1437.528
-33.940	34.750	1667.011	1435.758
-32.925	34.665	1665.137	1433.449
-31.911	34.676	1663.389	1431.975
-30.896	34.656	1661.744	1430.350
-29.881	34.752	1659.675	1429.231
-28.867	34.716	1658.297	1427.719
-27.852	34.699	1656.723	1426.178
-26.838	34.696	1655.367	1424.934
-25.823	34.743	1653.586	1423.690
-24.809	34.830	1652.595	1423.432
-23.794	34.761	1651.029	1421.515
-22.779	34.793	1649.170	1420.094
-21.765	34.792	1647.488	1418.579
-20.750	34.703	1646.370	1416.899
-19.736	34.753	1644.679	1415.760
-18.721	34.841	1642.739	1414.688
-17.706	34.794	1641.197	1412.956
-16.692	34.743	1639.711	1411.240
-15.677	34.748	1638.436	1410.129
-14.663	34.701	1637.060	1408.537
-13.648	34.790	1635.597	1407.880
-12.633	34.800	1633.828	1406.372
-11.619	34.854	1632.142	1405.267
-10.604	34.808	1630.780	1403.699
-9.590	34.789	1629.907	1402.755
-8.575	34.801	1628.398	1401.484
-7.560	34.772	1626.922	1399.951
-6.546	34.740	1626.473	1399.270
-5.531	34.764	1625.451	1398.510
-4.517	34.823	1623.568	1397.267
-3.502	34.843	1622.495	1396.432
-2.487	34.874	1621.048	1395.357
-1.473	34.824	1610.505	1385.870
-0.458	32.644	1591.524	1353.836
0.556	27.491	1591.371	1320.351
1.571	24.572	1615.281	1318.561
2.586	23.585	1628.418	1321.822
3.600	20.981	1574.708	1259.330
4.615	11.738	1459.252	1104.738
5.629	2.565	1389.018	992.274
6.644	0.592	1379.919	972.984
7.659	0.405	1378.229	970.498
8.673	0.316	1377.702	969.472
9.688	0.367	1375.255	967.991
10.702	0.167	1372.657	964.797
11.717	4.133	1379.629	995.115
12.731	13.300	1394.409	1064.965
13.746	18.089	1400.316	1100.284
14.761	17.593	1397.612	1094.875
15.775	16.479	1394.894	1085.499
16.790	15.561	1392.295	1077.493
17.804	14.747	1389.816	1070.267
18.819	14.272	1388.996	1066.499
19.834	14.071	1387.201	1063.739
20.848	13.675	1386.156	1060.316
21.863	13.537	1384.598	1058.143
22.877	13.372	1383.550	1056.197
23.892	13.264	1382.591	1054.685
24.907	13.232	1381.501	1053.552
25.921	13.276	1380.838	1053.238
26.936	13.416	1379.574	1053.069
27.950	13.372	1378.766	1052.081
28.965	13.385	1378.337	1051.743
29.980	13.584	1376.728	1051.686
30.994	13.606	1375.704	1050.951
32.009	13.586	1374.681	1049.947
33.023	13.596	1373.579	1049.074
34.038	13.571	1372.601	1048.078
35.053	13.510	1371.112	1046.465
36.067	13.434	1370.540	1045.456
37.082	13.485	1369.292	1044.729
38.096	13.581	1368.571	1044.692
39.111	13.489	1367.898	1043.508
40.126	13.477	1366.701	1042.429
41.140	13.420	1365.934	1041.394
42.155	13.328	1365.348	1040.275
43.169	13.445	1365.136	1040.755
44.184	13.329	1365.069	1039.880
45.199	13.459	1364.581	1040.238
46.213	13.419	1363.957	1039.419
47.228	13.408	1363.197	1038.676
48.242	13.413	1361.996	1037.702
49.257	13.512	1360.320	1036.950
50.271	13.437	1359.110	1035.472
51.286	13.415	1357.836	1034.267
52.301	13.535	1356.416	1033.848
53.315	13.309	1355.987	1032.017
54.330	13.285	1354.562	1030.694
55.344	13.387	1353.010	1030.055
56.359	13.334	1352.326	1029.114
57.374	13.294	1351.605	1028.227
58.388	13.309	1350.232	1027.183
59.403	13.358	1350.254	1027.414
60.417	13.298	1349.597	1026.452
61.432	13.286	1348.447	1025.409
62.447	13.271	1347.774	1024.714
63.461	13.168	1346.670	1023.148
64.476	13.240	1345.304	1022.463
65.490	13.269	1343.861	1021.452
66.505	13.241	1342.753	1020.352
67.520	13.242	1341.222	1019.105
68.534	13.290	1340.152	1018.492
69.549	13.312	1338.843	1017.545
70.563	13.324	1337.889	1016.801
71.578	13.168	1337.384	1015.371
72.593	13.306	1335.777	1014.909
73.607	13.197	1335.435	1013.891
74.622	13.142	1334.702	1012.904
75.636	13.162	1334.146	1012.518
76.651	13.312	1332.600	1012.175
77.666	13.176	1332.645	1011.282
78.680	13.106	1332.118	1010.369
79.695	13.294	1330.879	1010.490
80.709	13.147	1330.127	1008.929
81.724	13.335	1329.688	1009.655
82.739	13.412	1328.329	1009.002
83.753	13.318	1327.883	1008.000
84.768	13.553	1326.277	1008.121
85.782	13.508	1325.235	1006.966
86.797	13.509	1323.872	1005.852
87.812	13.424	1322.590	1004.270
88.826	13.402	1321.569	1003.276
89.841	13.379	1320.936	1002.564
90.855	13.491	1319.706	1002.223
91.870	13.563	1318.839	1001.911
92.884	13.570	1318.131	1001.324
93.899	13.540	1317.294	1000.422
94.914	13.578	1316.370	999.861
95.928	13.558	1315.408	998.917
96.943	13.514	1314.750	998.063
97.957	13.496	1313.970	997.275
98.972	13.469	1312.381	995.822
99.987	13.582	1311.402	995.667
101.001	13.521	1310.430	994.473
102.016	13.535	1309.247	993.574
103.030	13.555	1308.817	993.280
104.045	13.605	1308.138	992.977
105.060	13.453	1306.399	990.656
106.074	13.426	1305.379	989.635
107.089	13.371	1303.963	988.147
108.103	13.328	1302.831	986.947
109.118	13.338	1301.611	985.995
110.133	13.418	1299.684	984.922
111.147	13.383	1298.585	983.793
112.162	13.369	1297.556	982.844
113.176	13.532	1296.353	982.815
114.191	13.436	1295.422	981.450
115.206	13.430	1294.506	980.637
116.220	13.414	1293.084	979.377
117.235	13.373	1292.400	978.528
118.249	13.386	1291.394	977.755
119.264	13.353	1289.916	976.355
120.279	13.465	1288.672	975.990
121.293	13.310	1287.883	974.394
122.308	13.344	1286.765	973.662
123.322	13.288	1285.885	972.578
124.337	13.382	1284.977	972.360
125.352	13.411	1283.241	971.127
126.366	13.305	1282.541	969.892
127.381	13.382	1281.364	969.366
128.395	13.397	1280.318	968.579
129.410	13.320	1279.707	967.580
130.424	13.478	1278.672	967.636
131.439	13.440	1277.668	966.569
132.454	13.430	1276.864	965.815
133.468	13.463	1275.937	965.221
134.483	13.440	1275.225	964.464
135.497	13.564	1273.831	964.044
136.512	13.538	1272.524	962.817
137.527	13.456	1271.523	961.500
138.541	13.520	1269.576	960.313
139.556	13.531	1268.444	959.438
140.570	13.485	1267.805	958.602
141.585	13.511	1266.394	957.601
142.600	13.553	1264.978	956.690
143.614	13.603	1264.037	956.180
144.629	13.629	1263.345	955.720
145.643	13.525	1262.514	954.412
146.658	13.584	1261.091	953.590
147.673	13.524	1259.748	952.147
148.687	13.452	1258.863	950.980
149.702	13.442	1257.085	949.496
150.716	13.409	1255.529	948.047
151.731	13.521	1254.481	947.813
152.746	13.529	1253.390	946.951
153.760	13.609	1251.939	946.224
154.775	13.679	1250.606	945.535
155.789	13.710	1249.576	944.849
156.804	13.651	1248.914	943.926
157.819	13.655	1247.881	943.086
158.833	13.722	1247.245	942.903
159.848	13.841	1245.723	942.345
160.862	13.729	1245.174	941.208
161.877	13.648	1243.544	939.435
162.892	13.664	1242.733	938.833
163.906	13.638	1241.659	937.792
164.921	13.690	1240.654	937.239
165.935	13.665	1240.004	936.525
166.950	13.695	1239.396	936.155
167.964	13.686	1238.495	935.337
168.979	13.800	1237.523	935.163
169.994	13.761	1236.808	934.324
171.008	13.806	1235.915	933.818
172.023	13.857	1235.027	933.352
173.037	13.919	1234.014	932.850
174.052	13.781	1233.370	931.508
175.067	13.800	1232.141	930.602
176.081	13.784	1231.198	929.720
177.096	13.772	1230.633	929.145
178.110	13.835	1229.460	928.525
179.125	13.825	1228.313	927.522
180.140	13.774	1227.306	926.399
181.154	13.793	1225.504	925.059
182.169	13.823	1224.530	924.409
183.183	13.944	1223.193	923.994
184.198	14.013	1221.826	923.263
185.213	13.931	1221.103	922.176
186.227	13.858	1220.171	920.991
187.242	14.098	1219.025	921.372
188.256	14.043	1218.251	920.399
189.271	14.094	1216.889	919.570
190.286	13.911	1215.947	917.765
191.300	13.875	1215.161	916.895
192.315	13.725	1214.738	915.668
193.329	13.806	1213.998	915.472
194.344	13.849	1213.204	915.029
195.359	13.768	1212.626	914.070
196.373	14.008	1212.040	914.864
197.388	13.996	1211.913	914.622
198.402	14.177	1210.874	914.755
199.417	14.207	1210.267	914.376
200.432	14.170	1209.926	913.837
201.446	14.120	1209.290	913.001
202.461	14.283	1208.098	912.912
203.475	14.190	1207.204	911.649
204.490	14.244	1205.589	910.642
205.504	14.163	1204.295	909.142
206.519	14.126	1203.543	908.295
207.534	14.178	1201.912	907.264
208.548	14.300	1200.837	907.037
209.563	14.292	1200.193	906.426
210.577	14.201	1199.518	905.341
211.592	14.303	1198.606	905.129
212.607	14.379	1197.621	904.717
213.621	14.275	1196.949	903.564
214.636	14.290	1195.735	902.649
215.650	14.276	1195.295	902.162
216.665	14.420	1194.049	901.920
217.680	14.382	1193.116	900.931
218.694	14.476	1192.223	900.688
219.709	14.433	1191.606	899.906
220.723	14.445	1190.916	899.370
221.738	14.396	1190.302	898.566
222.753	14.464	1189.526	898.267
223.767	14.429	1188.831	897.474
224.782	14.566	1188.135	897.603
225.796	14.550	1187.467	896.934
226.811	14.577	1186.556	896.313
227.826	14.523	1186.156	895.640
228.840	14.542	1185.330	895.039
229.855	14.504	1184.424	894.073
230.869	14.550	1183.617	893.629
231.884	14.607	1182.619	893.103
232.899	14.612	1181.874	892.487
233.913	14.529	1181.161	891.429
234.928	14.564	1180.572	891.090
235.942	14.521	1179.478	889.957
236.957	14.527	1178.984	889.537
237.972	14.513	1178.124	888.735
238.986	14.481	1177.834	888.266
240.001	14.463	1177.174	887.595
241.015	14.594	1176.127	887.424
242.030	14.557	1175.334	886.552
243.045	14.550	1174.543	885.837
244.059	14.611	1173.571	885.350
245.074	14.745	1172.900	885.479
246.088	14.735	1171.803	884.516
247.103	14.763	1171.427	884.304
248.117	14.905	1170.371	884.178
249.132	14.825	1169.955	883.361
250.147	14.947	1169.012	883.216
251.161	14.978	1168.418	882.852
252.176	14.885	1167.783	881.805
253.190	14.999	1167.056	881.780
254.205	15.064	1166.143	881.352
255.220	14.999	1166.116	880.915
256.234	15.100	1165.225	880.695
257.249	15.125	1164.459	880.169
258.263	15.026	1164.065	879.274
259.278	15.077	1163.067	878.706
260.293	15.170	1162.299	878.537
261.307	15.082	1162.240	877.954
262.322	15.091	1161.055	877.031
263.336	15.159	1160.615	876.973
264.351	15.141	1160.154	876.457
265.366	15.203	1159.449	876.170
266.380	15.309	1158.409	875.860
267.395	15.102	1157.577	874.072
268.409	15.202	1157.041	874.111
269.424	15.175	1156.236	873.288
270.439	15.233	1155.824	873.199
271.453	15.220	1155.374	872.713
272.468	15.210	1153.850	871.435
273.482	15.139	1153.377	870.632
274.497	15.222	1152.657	870.444
275.512	15.353	1151.840	870.428
276.526	15.252	1151.424	869.511
277.541	15.228	1150.568	868.665
278.555	15.266	1149.804	868.205
279.570	15.262	1149.421	867.821
280.585	15.384	1148.567	867.727
281.599	15.444	1147.402	867.085
282.614	15.453	1146.217	866.157
283.628	15.327	1145.453	864.852
284.643	15.408	1144.381	864.385
285.657	15.436	1143.680	863.925
286.672	15.419	1142.914	863.181
287.687	15.444	1142.090	862.612
288.701	15.537	1141.317	862.430
289.716	15.455	1140.503	861.318
290.730	15.386	1140.060	860.551
291.745	15.464	1139.088	860.140
292.760	15.558	1138.349	859.988
293.774	15.586	1137.664	859.536
294.789	15.711	1137.076	859.654
295.803	15.613	1136.768	858.845
296.818	15.615	1136.004	858.205
297.833	15.669	1134.572	857.322
298.847	15.648	1134.211	856.868
299.862	15.505	1133.612	855.606
300.876	15.607	1133.277	855.797
301.891	15.674	1132.362	855.373
302.906	15.643	1131.554	854.532
303.920	15.814	1130.734	854.703
304.935	15.771	1129.824	853.721
305.949	15.803	1129.586	853.627
306.964	15.821	1129.301	853.428
307.979	15.802	1128.264	852.475
308.993	15.873	1127.404	852.109
310.008	15.922	1126.345	851.481
311.022	15.844	1125.751	850.561
312.037	15.947	1124.545	850.096
313.052	15.839	1124.092	849.133
314.066	15.865	1122.962	848.336
315.081	15.826	1122.124	847.432
316.095	15.703	1121.797	846.491
317.110	15.811	1120.865	846.252
318.125	15.835	1119.706	845.426
319.139	15.833	1119.640	845.288
320.154	15.794	1118.914	844.471
321.168	15.898	1118.120	844.318
322.183	15.773	1117.565	843.198
323.197	15.864	1116.865	843.052
324.212	15.993	1115.675	842.725
325.227	15.925	1115.379	842.086
326.241	15.999	1114.596	841.789
327.256	15.894	1114.091	840.811
328.270	15.962	1112.982	840.238
329.285	15.916	1112.378	839.476
330.300	15.958	1111.054	838.614
331.314	16.031	1110.680	838.618
332.329	15.902	1109.624	837.109
333.343	16.138	1108.357	837.248
334.358	15.994	1107.889	836.110
335.373	16.207	1107.047	836.454
336.387	16.247	1106.318	836.026
337.402	16.019	1106.226	834.753
338.416	16.126	1104.973	834.264
339.431	16.272	1103.989	834.169
340.446	16.108	1103.941	833.247
341.460	16.220	1103.322	833.259
342.475	16.180	1102.606	832.449
343.489	16.293	1101.254	831.910
344.504	16.270	1100.295	831.001
345.519	16.412	1099.136	830.748
346.533	16.408	1098.523	830.193
347.548	16.409	1097.987	829.722
348.562	16.399	1097.380	829.138
349.577	16.406	1096.658	828.554
350.592	16.390	1095.516	827.540
351.606	16.250	1094.927	826.335
352.621	16.253	1094.585	826.019
353.635	16.304	1093.639	825.481
354.650	16.421	1092.645	825.232
355.665	16.334	1092.213	824.406
356.679	16.375	1091.894	824.291
357.694	16.393	1091.414	823.944
358.708	16.332	1090.627	822.980
359.723	16.488	1089.660	822.937
360.738	16.491	1089.251	822.570
361.752	16.462	1088.632	821.889
362.767	16.484	1088.113	821.534
363.781	16.638	1087.329	821.616
364.796	16.539	1086.808	820.668
365.810	16.442	1086.393	819.808
366.825	16.616	1085.583	819.968
367.840	16.669	1085.202	819.867
368.854	16.743	1084.525	819.640
369.869	16.721	1083.534	818.711
370.883	16.772	1082.725	818.275
371.898	16.699	1082.133	817.403
372.913	16.799	1081.187	817.098
373.927	16.796	1080.876	816.775
374.942	16.661	1080.758	815.967
375.956	16.765	1080.061	815.868
376.971	16.858	1079.685	815.957
377.986	16.774	1078.704	814.742
379.000	16.866	1078.203	814.734
380.015	16.976	1077.587	814.726
381.029	16.908	1077.036	813.911
382.044	17.015	1075.977	813.548
383.059	16.903	1075.568	812.631
384.073	17.037	1074.741	812.576
385.088	17.076	1073.544	811.784
386.102	16.920	1073.110	810.642
387.117	16.988	1071.706	809.831
388.132	16.951	1070.495	808.671
389.146	16.886	1070.273	808.121
390.161	16.929	1069.890	807.963
391.175	16.979	1068.739	807.264
392.190	16.981	1068.299	806.866
393.205	17.045	1067.384	806.407
394.219	17.145	1066.215	805.929
395.234	16.972	1065.786	804.712
396.248	17.075	1064.532	804.182
397.263	17.079	1063.264	803.175
398.278	17.108	1062.774	802.869
399.292	17.068	1062.154	802.140
400.307	17.059	1061.478	801.516
401.321	16.981	1061.087	800.781
402.336	17.152	1059.981	800.681
403.350	17.033	1059.656	799.807
404.365	17.098	1058.734	799.347
405.380	17.197	1057.997	799.186
406.394	17.089	1057.605	798.309
407.409	17.169	1056.615	797.867
408.423	17.173	1055.728	797.147
409.438	17.304	1055.003	797.141
410.453	17.335	1054.872	797.118
411.467	17.390	1054.036	796.674
412.482	17.350	1053.359	795.902
413.496	17.446	1052.289	795.474
414.511	17.419	1051.806	794.911
415.526	17.376	1051.555	794.453
416.540	17.415	1051.179	794.278
417.555	17.381	1050.558	793.578
418.569	17.506	1050.179	793.808
419.584	17.518	1049.670	793.408
420.599	17.452	1049.070	792.574
421.613	98.106	1314.156	1438.638
422.628	90.278	1352.780	1438.764
