DTS Sentinel unit serial number:	SN413079Multiplexer serial number:	ORYXHardware model number:	OX4-SRSoftware version number:	ORYX F/W v4.00 Oryx Data Collector v3.7.2.0data status	okinstallation	princeton_trtdifferential loss correction	single-endedforward channel	channel 2reverse channel	N/Adate	2019/09/17time	08:15:34forward acquisition time	60.00reverse acquisition time	0.00gamma	496.2192k internal	0.2333k external	0.2333temperature offset calibration	0.9976default loss term (dB/km)	0.3790temperature slope calibration	1.0000multiplexer offset coefficient	1.0000multiplexer slope coefficient	1.0000fibre end	0.00T internal ref (°C)	27.39T ext. ref 1 (°C)	0.12T ext. ref 2 (°C)	22.81length (m)	temperature (°C)	Stokes	anti-Stokes-747.200	298.720	0.097	0.179
-746.185	-25.559	0.138	0.082
-745.171	-200.000	-0.011	-0.140
-744.156	-164.414	-0.214	0.010
-743.142	800.000	-0.049	0.171
-742.127	685.490	-0.069	0.181
-741.112	-200.000	-0.035	-0.369
-740.098	-86.734	-0.165	-0.051
-739.083	800.000	-0.100	0.301
-738.069	92.406	-0.150	0.170
-737.054	-72.010	-0.201	-0.075
-736.039	-106.192	-0.645	-0.145
-735.025	-78.254	0.418	0.144
-734.010	-40.786	-0.207	-0.108
-732.996	-200.000	0.074	0.424
-731.981	-200.000	-0.010	0.091
-730.966	3.584	-0.352	-0.258
-729.952	192.755	-0.054	-0.082
-728.937	800.000	-0.122	-0.344
-727.923	558.495	-0.173	0.420
-726.908	214.629	0.166	0.265
-725.894	-42.827	-0.539	0.275
-724.879	328.524	-0.117	0.225
-723.864	-179.290	-0.311	-0.007
-722.850	-119.882	0.251	0.043
-721.835	-98.922	-0.054	-0.014
-720.821	-91.496	-0.168	-0.048
-719.806	181.877	-0.090	0.134
-718.791	800.000	-0.094	-0.307
-717.777	12.106	-0.317	-0.245
-716.762	800.000	-0.035	0.136
-715.748	-40.547	-0.322	-0.168
-714.733	301.278	0.085	0.158
-713.718	14.723	0.051	-0.040
-712.704	-34.093	0.059	-0.033
-711.689	214.097	-0.101	0.161
-710.675	-200.000	0.027	-0.146
-709.660	33.037	-0.152	0.132
-708.645	-142.318	-0.152	-0.015
-707.631	-39.884	-0.241	0.126
-706.616	-40.031	0.097	-0.051
-705.602	2.678	-0.115	-0.084
-704.587	800.000	0.116	-0.346
-703.572	58.125	0.174	-0.171
-702.558	171.420	0.036	0.052
-701.543	133.905	-0.188	-0.244
-700.529	-200.000	-0.025	-0.308
-699.514	-115.220	-0.228	-0.043
-698.499	505.117	0.200	0.465
-697.485	-6.398	0.076	0.052
-696.470	178.025	0.139	-0.203
-695.456	375.862	0.094	-0.192
-694.441	-105.545	0.181	0.041
-693.426	-69.596	-0.073	-0.028
-692.412	-106.023	0.351	-0.079
-691.397	581.971	-0.110	-0.272
-690.383	-100.844	0.195	0.048
-689.368	-39.078	-0.095	0.050
-688.354	45.753	0.142	-0.132
-687.339	-61.671	0.155	0.065
-686.324	161.560	0.139	0.196
-685.310	-11.629	-0.171	0.113
-684.295	800.000	0.024	-0.088
-683.281	245.096	-0.107	-0.181
-682.266	800.000	0.124	-0.409
-681.251	-7.828	-0.234	-0.158
-680.237	92.869	0.283	-0.321
-679.222	-128.609	-0.191	-0.027
-678.208	-97.348	-0.302	-0.079
-677.193	741.211	0.086	0.232
-676.178	-143.266	-0.281	0.027
-675.164	274.503	0.165	0.294
-674.149	800.000	0.062	-0.171
-673.135	-9.037	-0.149	-0.100
-672.120	-80.584	0.259	-0.086
-671.105	409.846	0.216	0.460
-670.091	800.000	0.102	-0.380
-669.076	45.267	0.262	-0.242
-668.062	155.218	-0.067	0.092
-667.047	508.161	0.061	0.142
-666.032	-26.337	-0.211	0.124
-665.018	-30.275	-0.169	0.096
-664.003	417.072	0.096	0.205
-662.989	-52.129	0.384	-0.179
-661.974	-147.362	-0.031	0.003
-660.959	800.000	0.027	-0.114
-659.945	-2.763	0.250	0.176
-658.930	73.611	-0.130	-0.136
-657.916	-200.000	-0.152	0.000
-656.901	101.967	0.219	0.256
-655.886	81.294	0.186	0.201
-654.872	263.402	0.025	-0.043
-653.857	-7.720	-0.306	0.207
-652.843	74.375	0.030	-0.032
-651.828	370.301	-0.146	0.297
-650.814	-200.000	0.029	-0.132
-649.799	658.484	-0.120	-0.308
-648.784	0.013	-0.066	-0.047
-647.770	-50.830	0.095	-0.045
-646.755	138.348	-0.112	0.147
-645.741	-12.226	0.350	-0.230
-644.726	-152.649	-0.256	0.018
-643.711	612.034	0.065	-0.162
-642.697	-200.000	0.040	0.184
-641.682	-165.067	-0.319	0.014
-640.668	800.000	-0.092	-0.376
-639.653	-200.000	-0.006	-0.326
-638.638	-64.851	0.046	0.019
-637.624	179.723	-0.060	-0.088
-636.609	800.000	-0.080	-0.271
-635.595	-200.000	-0.014	-0.512
-634.580	334.856	0.057	-0.110
-633.565	36.162	0.089	-0.078
-632.551	-14.952	0.293	-0.188
-631.536	-176.266	0.116	-0.003
-630.522	269.649	0.196	0.344
-629.507	-30.674	-0.060	0.034
-628.492	-181.149	0.399	-0.008
-627.478	84.095	-0.107	0.117
-626.463	56.812	0.262	0.255
-625.449	173.334	0.092	-0.132
-624.434	-113.608	-0.068	0.013
-623.419	-86.162	-0.118	0.037
-622.405	119.542	0.179	0.222
-621.390	800.000	-0.023	0.099
-620.376	75.180	0.239	0.252
-619.361	-200.000	0.017	0.389
-618.346	-27.517	0.365	0.212
-617.332	16.981	-0.241	-0.191
-616.317	58.420	0.149	0.146
-615.303	800.000	0.112	0.374
-614.288	60.190	-0.244	0.242
-613.273	-41.087	0.153	0.079
-612.259	-37.906	0.134	-0.071
-611.244	-96.620	-0.103	-0.027
-610.230	-142.947	-0.184	-0.018
-609.215	-95.116	-0.185	0.050
-608.201	-122.879	0.116	-0.019
-607.186	800.000	0.068	-0.210
-606.171	-26.460	0.043	0.025
-605.157	662.240	0.060	0.154
-604.142	12.322	0.192	-0.148
-603.128	7.626	0.165	-0.124
-602.113	-200.000	-0.001	-0.006
-601.098	800.000	-0.066	0.189
-600.084	52.452	0.170	-0.162
-599.069	-93.222	-0.088	0.025
-598.055	187.616	-0.062	0.092
-597.040	73.824	0.128	0.134
-596.025	-200.000	0.011	0.127
-595.011	-200.000	0.039	-0.387
-593.996	-200.000	0.242	0.000
-592.982	20.282	-0.103	0.083
-591.967	-34.881	0.383	-0.209
-590.952	800.000	0.060	-0.240
-589.938	515.527	0.136	-0.318
-588.923	-99.072	-0.278	-0.070
-587.909	-20.986	-0.193	-0.118
-586.894	-86.762	-0.141	0.043
-585.879	-28.469	-0.125	-0.072
-584.865	746.166	-0.007	-0.020
-583.850	800.000	-0.004	-0.013
-582.836	1.246	-0.123	0.088
-581.821	-200.000	-0.010	-0.062
-580.806	90.316	-0.178	-0.199
-579.792	178.860	0.146	0.213
-578.777	-66.281	0.448	-0.178
-577.763	-142.128	-0.302	-0.030
-576.748	111.163	0.127	0.153
-575.733	-69.387	0.021	-0.008
-574.719	19.339	0.243	-0.195
-573.704	-192.230	0.306	-0.003
-572.690	-129.352	0.253	-0.035
-571.675	267.367	-0.058	0.101
-570.661	323.425	-0.097	0.185
-569.646	-60.260	-0.176	0.075
-568.631	800.000	-0.104	-0.337
-567.617	-145.088	0.161	-0.015
-566.602	-126.047	-0.390	-0.058
-565.588	238.940	0.064	0.106
-564.573	44.541	-0.139	0.128
-563.558	238.440	-0.104	0.173
-562.544	-143.430	-0.187	-0.018
-561.529	-200.000	0.010	-0.113
-560.515	-200.000	0.124	-0.542
-559.500	800.000	-0.101	-0.314
-558.485	500.813	-0.045	0.103
-557.471	173.658	0.224	-0.322
-556.456	-200.000	0.038	0.255
-555.442	-200.000	-0.011	-0.110
-554.427	-44.219	0.155	0.078
-553.412	-200.000	0.021	-0.133
-552.398	140.708	-0.089	0.118
-551.383	49.158	-0.052	0.049
-550.369	-65.732	0.310	0.124
-549.354	-200.000	0.002	-0.267
-548.339	-200.000	-0.004	-0.149
-547.325	800.000	0.071	-0.213
-546.310	763.050	-0.066	0.178
-545.296	12.428	0.294	0.226
-544.281	561.130	-0.055	-0.133
-543.266	10.496	0.236	-0.179
-542.252	211.823	0.128	-0.201
-541.237	-102.588	-0.109	-0.026
-540.223	-89.329	0.163	0.048
-539.208	-2.444	-0.125	0.088
-538.193	656.132	0.071	-0.182
-537.179	570.521	-0.145	-0.353
-536.164	-200.000	-0.003	0.044
-535.150	-119.138	-0.098	0.017
-534.135	-200.000	-0.031	-0.246
-533.121	800.000	0.138	-0.431
-532.106	93.780	-0.069	-0.078
-531.091	20.297	0.117	0.094
-530.077	59.025	0.121	-0.119
-529.062	-26.122	0.121	0.071
-528.048	-200.000	-0.024	0.178
-527.033	-200.000	-0.047	-0.221
-526.018	800.000	0.058	-0.241
-525.004	189.373	-0.118	0.176
-523.989	-19.292	-0.170	-0.105
-522.975	151.920	-0.166	0.226
-521.960	-155.790	-0.052	-0.003
-520.945	-53.360	0.092	-0.042
-519.931	-58.114	-0.076	0.033
-518.916	-101.338	-0.074	-0.018
-517.902	280.192	-0.097	0.173
-516.887	-48.081	0.093	0.045
-515.872	-10.634	-0.160	0.105
-514.858	800.000	0.016	-0.061
-513.843	-200.000	0.004	-0.167
-512.829	-22.988	-0.177	-0.106
-511.814	786.779	-0.171	0.466
-510.799	189.241	-0.046	0.069
-509.785	33.762	0.131	0.113
-508.770	-143.484	-0.243	-0.023
-507.756	-10.780	0.097	-0.064
-506.741	218.193	-0.150	0.238
-505.726	57.263	-0.172	0.168
-504.712	283.685	-0.141	0.252
-503.697	336.751	-0.253	-0.489
-502.683	800.000	0.081	-0.258
-501.668	-116.991	-0.084	0.015
-500.653	-200.000	-0.011	0.281
-499.639	800.000	-0.058	-0.218
-498.624	-93.552	-0.524	-0.144
-497.610	-200.000	0.024	-0.140
-496.595	800.000	-0.075	-0.232
-495.581	4.370	-0.056	0.041
-494.566	402.798	0.064	0.134
-493.551	49.151	-0.293	0.275
-492.537	246.872	-0.098	-0.164
-491.522	-126.733	0.200	-0.029
-490.508	58.412	0.207	0.202
-489.493	-51.275	0.264	0.123
-488.478	70.263	0.135	-0.138
-487.464	800.000	0.011	0.041
-486.449	-99.616	0.155	-0.039
-485.435	-200.000	0.074	-0.360
-484.420	52.001	-0.172	-0.164
-483.405	-158.837	0.233	-0.013
-482.391	800.000	0.061	0.201
-481.376	110.952	-0.151	0.181
-480.362	42.943	-0.542	0.492
-479.347	-74.424	0.083	-0.030
-478.332	-200.000	-0.059	0.319
-477.318	500.034	0.107	0.246
-476.303	-200.000	-0.023	-0.224
-475.289	-116.081	-0.298	-0.055
-474.274	-184.128	0.210	0.003
-473.259	267.737	0.236	-0.412
-472.245	47.413	-0.031	-0.029
-471.230	503.122	-0.085	0.195
-470.216	800.000	0.095	0.300
-469.201	71.313	-0.285	0.294
-468.186	-98.578	0.052	-0.013
-467.172	-90.957	0.122	0.035
-466.157	59.894	-0.123	0.121
-465.143	-95.179	0.184	0.049
-464.128	-110.860	0.080	0.016
-463.113	800.000	-0.144	-0.429
-462.099	8.846	0.093	0.070
-461.084	800.000	0.034	0.106
-460.070	401.707	0.070	-0.146
-459.055	-83.083	0.282	0.090
-458.040	-182.305	0.067	0.001
-457.026	-50.804	-0.412	0.193
-456.011	-145.135	0.150	0.014
-454.997	329.377	0.089	-0.169
-453.982	800.000	0.042	0.119
-452.968	42.106	-0.188	-0.170
-451.953	-36.277	0.064	-0.034
-450.938	-92.649	-0.271	-0.076
-449.924	-182.203	-0.268	-0.005
-448.909	33.576	-0.048	-0.042
-447.895	-147.641	-0.139	0.012
-446.880	-200.000	-0.022	0.121
-445.865	-30.718	-0.189	0.106
-444.851	32.094	-0.067	-0.057
-443.836	-200.000	-0.269	-0.001
-442.822	-108.156	0.129	-0.028
-441.807	-138.494	0.047	-0.005
-440.792	131.562	-0.138	0.177
-439.778	800.000	-0.079	-0.227
-438.763	-183.553	0.133	-0.002
-437.749	-67.041	-0.280	-0.110
-436.734	800.000	0.109	-0.318
-435.719	-200.000	0.005	-0.169
-434.705	76.337	0.058	0.061
-433.690	97.688	0.124	-0.142
-432.676	-95.560	0.173	-0.046
-431.661	-82.583	0.183	-0.059
-430.646	233.299	0.092	0.150
-429.632	-146.812	0.219	0.019
-428.617	-67.700	-0.241	0.094
-427.603	128.866	0.181	0.229
-426.588	-130.746	-0.090	0.012
-425.573	-108.860	0.232	0.049
-424.559	-35.568	-0.253	-0.136
-423.544	546.014	-0.071	-0.168
-422.530	-200.000	-0.000	0.389
-421.515	33.603	-0.341	-0.295
-420.500	-33.484	0.343	0.188
-419.486	-171.125	0.063	0.002
-418.471	81.999	0.157	-0.169
-417.457	67.689	0.204	-0.207
-416.442	333.184	0.123	0.236
-415.428	357.125	0.016	-0.031
-414.413	800.000	0.111	-0.331
-413.398	591.712	0.024	-0.060
-412.384	-130.590	0.166	-0.022
-411.369	-200.000	-0.008	0.149
-410.355	90.344	-0.175	-0.195
-409.340	57.313	-0.202	0.196
-408.325	18.376	-0.153	0.121
-407.311	-119.007	-0.239	-0.042
-406.296	332.253	0.117	-0.224
-405.282	-11.181	-0.110	0.072
-404.267	254.396	0.094	-0.159
-403.252	503.492	0.120	0.274
-402.238	-63.714	-0.179	0.073
-401.223	-138.413	-0.238	0.026
-400.209	-200.000	-0.070	0.307
-399.194	9.190	-0.085	-0.064
-398.179	-84.732	-0.167	-0.052
-397.165	128.707	-0.145	0.184
-396.150	-32.260	0.233	-0.129
-395.136	-21.048	-0.099	0.060
-394.121	587.517	-0.096	0.234
-393.106	800.000	0.081	-0.234
-392.092	240.556	-0.103	-0.170
-391.077	-140.311	0.183	-0.019
-390.063	123.669	-0.184	0.229
-389.048	243.737	0.152	0.253
-388.033	46.617	-0.102	-0.094
-387.019	257.956	0.077	0.132
-386.004	-95.085	0.233	0.062
-384.990	145.072	0.005	-0.007
-383.975	-109.548	-0.228	0.048
-382.960	79.259	0.217	0.230
-381.946	-137.082	-0.280	0.032
-380.931	226.866	-0.193	-0.310
-379.917	-34.743	0.262	-0.142
-378.902	800.000	0.033	0.132
-377.888	42.414	0.225	-0.203
-376.873	-158.072	0.225	0.013
-375.858	-83.540	0.404	-0.128
-374.844	-63.056	-0.285	0.116
-373.829	800.000	-0.045	0.146
-372.815	-158.675	-0.129	-0.007
-371.800	-122.662	-0.062	0.010
-370.785	-181.405	-0.209	0.004
-369.771	500.604	-0.096	-0.220
-368.756	339.782	-0.115	0.223
-367.742	-144.068	0.339	-0.031
-366.727	-16.827	0.126	0.079
-365.712	26.795	-0.107	0.089
-364.698	800.000	-0.069	-0.256
-363.683	-13.272	-0.209	-0.135
-362.669	-200.000	-0.001	-0.301
-361.654	-121.323	0.166	-0.027
-360.639	-136.877	-0.070	0.008
-359.625	64.980	0.257	0.257
-358.610	-109.896	-0.128	-0.026
-357.596	279.533	-0.214	0.378
-356.581	276.076	-0.200	0.352
-355.566	202.567	-0.093	0.142
-354.552	-91.639	0.097	-0.027
-353.537	-200.000	0.023	-0.287
-352.523	-97.554	-0.206	0.053
-351.508	61.825	-0.330	-0.325
-350.493	-147.770	-0.323	-0.027
-349.479	-117.535	0.228	-0.041
-348.464	-105.444	-0.096	-0.022
-347.450	-122.067	-0.293	0.048
-346.435	-108.467	0.307	0.065
-345.420	191.259	0.283	0.421
-344.406	-172.155	0.180	-0.006
-343.391	22.326	0.174	-0.141
-342.377	-200.000	0.014	-0.114
-341.362	229.527	-0.115	0.186
-340.348	-9.591	0.051	-0.033
-339.333	-123.680	0.192	0.030
-338.318	-86.862	0.095	0.029
-337.304	-200.000	0.023	-0.331
-336.289	-86.889	-0.152	-0.046
-335.275	-200.000	-0.010	-0.074
-334.260	64.540	0.088	0.088
-333.245	-0.972	-0.254	0.178
-332.231	208.314	0.101	-0.156
-331.216	79.202	-0.154	-0.163
-330.202	25.456	0.161	-0.132
-329.187	-29.035	0.330	-0.188
-328.172	-151.040	-0.380	-0.028
-327.158	-63.897	0.167	-0.067
-326.143	25.468	0.170	0.140
-325.129	63.205	-0.125	0.124
-324.114	-200.000	-0.026	0.173
-323.099	217.240	0.030	0.047
-322.085	-38.270	0.156	-0.082
-321.070	-10.328	-0.127	-0.084
-320.056	222.006	0.103	0.164
-319.041	-100.693	-0.197	0.048
-318.026	21.973	0.123	-0.099
-317.012	302.780	0.009	-0.017
-315.997	245.191	0.069	-0.115
-314.983	295.083	0.129	0.233
-313.968	433.282	-0.080	-0.171
-312.953	-117.629	-0.144	-0.026
-311.939	-87.515	0.276	-0.082
-310.924	-128.235	0.183	-0.026
-309.910	-200.000	-0.007	0.148
-308.895	-87.120	-0.428	0.129
-307.880	-200.000	0.022	0.169
-306.866	85.629	-0.126	-0.137
-305.851	39.928	-0.168	-0.149
-304.837	119.949	-0.069	0.084
-303.822	-81.474	0.139	0.045
-302.807	-70.354	0.162	0.061
-301.793	-149.292	0.151	0.012
-300.778	87.701	-0.095	-0.104
-299.764	-102.903	-0.077	-0.018
-298.749	-74.178	0.315	-0.112
-297.735	-107.106	-0.544	0.119
-296.720	-104.173	0.289	0.066
-295.705	586.725	0.056	0.135
-294.691	418.046	-0.070	-0.147
-293.676	-134.855	-0.189	0.023
-292.662	-31.342	0.148	-0.082
-291.647	-100.610	0.309	-0.075
-290.632	-31.055	-0.054	-0.030
-289.618	800.000	0.130	-0.435
-288.603	-170.608	-0.153	-0.005
-287.589	15.397	-0.096	0.075
-286.574	-200.000	0.002	-0.076
-285.559	800.000	0.126	-0.363
-284.545	108.495	-0.058	0.068
-283.530	94.901	-0.098	-0.110
-282.516	87.133	0.285	0.311
-281.501	-200.000	0.052	0.253
-280.486	-9.851	-0.258	-0.169
-279.472	256.159	-0.077	0.130
-278.457	162.514	-0.104	-0.144
-277.443	-1.638	0.235	0.163
-276.428	181.620	0.107	0.155
-275.413	27.709	0.148	0.123
-274.399	-66.582	0.371	-0.145
-273.384	-198.408	0.219	0.001
-272.370	-140.704	0.193	0.020
-271.355	149.033	0.178	0.238
-270.340	559.200	-0.072	0.172
-269.326	-44.376	0.266	-0.132
-268.311	-200.000	0.013	0.193
-267.297	-97.590	-0.063	-0.016
-266.282	39.906	-0.119	-0.106
-265.267	800.000	0.078	0.303
-264.253	200.466	0.108	0.164
-263.238	-200.000	0.023	0.264
-262.224	-29.382	0.352	0.199
-261.209	0.165	-0.128	0.090
-260.195	212.337	-0.197	-0.307
-259.180	293.135	-0.080	-0.145
-258.165	-56.883	0.238	0.104
-257.151	-200.000	0.022	0.195
-256.136	169.092	-0.274	0.385
-255.122	800.000	-0.097	0.313
-254.107	193.708	-0.061	0.091
-253.092	51.708	0.251	0.235
-252.078	-193.298	0.164	0.001
-251.063	121.673	-0.126	0.155
-250.049	-45.434	-0.429	-0.210
-249.034	106.408	0.083	0.097
-248.019	113.729	0.158	0.190
-247.005	156.919	-0.155	0.211
-245.990	-143.402	0.275	0.026
-244.976	-4.947	-0.201	0.136
-243.961	-200.000	0.020	0.241
-242.946	194.341	-0.055	-0.082
-241.932	38.534	-0.115	-0.101
-240.917	493.286	0.168	-0.379
-239.903	249.495	-0.215	0.359
-238.888	118.219	0.064	0.077
-237.873	44.568	0.113	0.102
-236.859	235.261	-0.081	-0.133
-235.844	111.685	-0.183	-0.218
-234.830	-34.420	0.036	-0.019
-233.815	496.950	-0.148	-0.337
-232.800	444.490	0.013	-0.029
-231.786	118.073	-0.114	0.138
-230.771	134.590	0.200	-0.256
-229.757	195.689	-0.182	-0.272
-228.742	-23.863	0.145	-0.086
-227.727	5.083	0.071	0.052
-226.713	-200.000	0.044	-0.226
-225.698	132.702	0.246	-0.312
-224.684	-87.072	-0.262	-0.079
-223.669	0.695	0.170	0.120
-222.655	349.472	0.151	0.293
-221.640	-24.212	-0.196	-0.115
-220.625	-200.000	0.033	-0.167
-219.611	61.628	-0.125	-0.122
-218.596	54.574	-0.049	0.047
-217.582	48.718	-0.348	0.322
-216.567	440.711	0.144	-0.309
-215.552	617.170	0.095	-0.235
-214.538	23.446	-0.213	-0.172
-213.523	-139.823	0.443	0.046
-212.509	150.349	-0.186	-0.248
-211.494	-8.235	-0.227	0.151
-210.479	-165.271	-0.422	0.018
-209.465	800.000	0.032	-0.115
-208.450	-98.890	0.365	0.091
-207.436	-80.106	-0.197	0.065
-206.421	34.448	-0.263	-0.226
-205.406	800.000	-0.022	-0.072
-204.392	-29.671	-0.235	0.132
-203.377	214.553	-0.127	-0.199
-202.363	-165.033	0.226	-0.010
-201.348	800.000	0.077	0.281
-200.333	-39.599	-0.224	-0.115
-199.319	-110.340	0.297	-0.061
-198.304	195.378	0.024	-0.036
-197.290	-200.000	-0.026	0.116
-196.275	-48.496	-0.189	0.090
-195.260	800.000	0.116	0.431
-194.246	-133.830	-0.366	0.045
-193.231	345.809	0.123	0.237
-192.217	-97.321	-0.227	0.058
-191.202	-149.999	0.254	0.020
-190.187	131.735	-0.094	0.120
-189.173	-200.000	0.018	-0.149
-188.158	-171.996	0.235	-0.008
-187.144	-4.860	-0.129	0.088
-186.129	-200.000	-0.004	-0.038
-185.114	-109.266	0.133	0.028
-184.100	72.749	0.287	-0.294
-183.085	-61.568	-0.338	0.140
-182.071	-200.000	-0.031	0.227
-181.056	-200.000	0.035	0.206
-180.042	86.755	-0.148	0.161
-179.027	28.270	0.092	-0.076
-178.012	-58.396	-0.150	-0.064
-176.998	-200.000	-0.024	0.151
-175.983	-158.738	0.120	-0.007
-174.969	-79.741	0.331	0.110
-173.954	800.000	0.054	-0.183
-172.939	-102.482	0.175	-0.041
-171.925	-200.000	-0.117	0.535
-170.910	-200.000	0.008	0.088
-169.896	800.000	-0.108	-0.357
-168.881	150.342	-0.131	-0.175
-167.866	298.636	0.038	-0.069
-166.852	-200.000	-0.017	-0.115
-165.837	238.762	-0.151	0.247
-164.823	473.258	0.076	0.169
-163.808	-200.000	-0.084	-0.445
-162.793	-70.983	-0.291	0.108
-161.779	-69.496	-0.088	-0.033
-160.764	-54.995	0.481	0.213
-159.750	204.813	0.008	-0.012
-158.735	-12.028	0.225	-0.145
-157.720	-146.307	0.261	0.022
-156.706	178.346	-0.190	0.273
-155.691	-6.123	0.245	0.165
-154.677	800.000	-0.072	0.261
-153.662	-123.557	-0.183	-0.029
-152.647	39.481	-0.248	0.219
-151.633	9.108	-0.204	-0.152
-150.618	-200.000	-0.049	0.236
-149.604	-16.986	-0.217	0.134
-148.589	800.000	0.017	0.069
-147.574	800.000	-0.079	-0.216
-146.560	-73.113	-0.036	0.013
-145.545	34.053	0.091	-0.078
-144.531	-200.000	-0.050	0.229
-143.516	43.466	-0.079	0.071
-142.502	-200.000	-0.041	0.322
-141.487	57.549	-0.175	0.168
-140.472	800.000	0.083	0.326
-139.458	-5.706	-0.174	0.117
-138.443	-186.228	-0.295	-0.004
-137.429	-154.420	0.224	0.015
-136.414	800.000	0.058	-0.162
-135.399	800.000	0.085	-0.234
-134.385	-7.235	0.109	0.073
-133.370	-156.810	-0.202	0.012
-132.356	106.529	0.157	0.182
-131.341	-200.000	0.015	0.109
-130.326	327.914	-0.104	0.196
-129.312	705.905	0.041	-0.107
-128.297	-1.970	0.133	0.092
-127.283	-200.000	0.011	-0.192
-126.268	-200.000	0.011	0.169
-125.253	-200.000	0.012	-0.075
-124.239	800.000	0.014	0.040
-123.224	-55.763	-0.423	-0.185
-122.210	91.650	0.154	0.170
-121.195	-200.000	-0.021	0.229
-120.180	-13.584	0.047	-0.030
-119.166	-200.000	0.022	0.357
-118.151	796.538	-0.062	0.168
-117.137	-200.000	0.026	0.201
-116.122	-66.908	0.178	-0.069
-115.107	-148.937	0.337	-0.027
-114.093	-20.475	-0.418	0.252
-113.078	48.216	0.271	0.249
-112.064	800.000	0.080	0.265
-111.049	43.149	-0.430	0.385
-110.034	-200.000	0.351	-0.001
-109.020	193.527	0.058	-0.086
-108.005	337.032	0.093	0.178
-106.991	-200.000	-0.006	-0.178
-105.976	-33.521	0.243	-0.131
-104.962	-200.000	-0.008	0.105
-103.947	-200.000	0.002	-0.258
-102.932	-109.171	0.233	0.049
-101.918	175.772	-0.095	0.136
-100.903	-56.800	0.073	0.031
-99.889	-89.995	-0.315	-0.090
-98.874	-66.341	0.023	-0.009
-97.859	-120.597	-0.240	-0.040
-96.845	-0.196	-0.048	-0.033
-95.830	22.646	0.297	-0.238
-94.816	-56.800	-0.453	-0.196
-93.801	38.867	0.205	-0.179
-92.786	-133.153	0.369	0.046
-91.772	-91.419	-0.283	-0.079
-90.757	-138.744	0.204	0.022
-89.743	412.971	0.054	0.113
-88.728	-183.542	-0.365	-0.006
-87.713	-200.000	-0.013	0.139
-86.699	-95.423	-0.097	-0.025
-85.684	-200.000	0.009	-0.196
-84.670	800.000	0.079	-0.241
-83.655	601.574	-0.103	0.250
-82.640	-67.932	-0.278	-0.106
-81.626	154.960	0.140	0.188
-80.611	-200.000	-0.074	0.379
-79.597	664.308	-0.114	0.287
-78.582	30.993	-0.346	-0.290
-77.567	274.655	0.187	0.325
-76.553	50.484	0.158	-0.146
-75.538	-8.226	0.033	-0.022
-74.524	14.821	-0.180	-0.138
-73.509	-40.628	0.353	-0.179
-72.494	101.598	-0.142	0.162
-71.480	-65.740	0.325	-0.127
-70.465	19.438	0.220	0.173
-69.451	-125.449	0.367	0.055
-68.436	200.446	-0.107	-0.161
-67.422	-200.000	0.086	0.375
-66.407	-200.000	0.011	-0.199
-65.392	-56.522	0.211	-0.092
-64.378	800.000	-0.042	0.153
-63.363	-52.586	-0.225	0.102
-62.349	-27.196	-0.109	-0.062
-61.334	221.893	-0.731	-1.150
-60.319	-77.492	0.808	0.274
-59.305	800.000	-0.304	-1.200
-58.290	800.000	0.316	0.969
-57.276	800.000	0.581	1.710
-56.261	-200.000	112.697	638.969
-55.246	469.842	1504.282	3308.140
-54.232	147.059	2678.589	3526.479
-53.217	97.017	2289.700	2569.600
-52.203	36.365	1900.273	1639.838
-51.188	30.543	1689.882	1414.092
-50.173	27.981	1647.846	1359.823
-49.159	49.872	1702.302	1570.669
-48.144	48.623	1716.449	1574.243
-47.130	30.220	1675.027	1398.998
-46.115	27.470	1660.864	1366.519
-45.100	27.288	1655.771	1360.910
-44.086	27.174	1653.907	1358.474
-43.071	27.220	1650.771	1356.185
-42.057	27.306	1648.401	1354.827
-41.042	27.249	1646.609	1352.874
-40.027	27.275	1644.796	1351.524
-39.013	27.257	1642.183	1349.193
-37.998	27.281	1640.506	1347.938
-36.984	27.225	1639.554	1346.685
-35.969	27.275	1638.137	1345.840
-34.954	27.448	1636.123	1345.406
-33.940	27.353	1634.637	1343.433
-32.925	27.266	1633.013	1341.400
-31.911	27.323	1630.804	1339.951
-30.896	27.358	1628.874	1338.575
-29.881	27.315	1627.814	1337.332
-28.867	27.406	1625.599	1336.130
-27.852	27.437	1624.099	1335.070
-26.838	27.387	1622.760	1333.546
-25.823	27.433	1621.178	1332.532
-24.809	27.451	1620.287	1331.879
-23.794	27.428	1618.899	1330.517
-22.779	27.444	1617.269	1329.240
-21.765	27.353	1615.926	1327.424
-20.750	27.428	1614.244	1326.536
-19.736	27.403	1613.324	1325.543
-18.721	27.449	1611.800	1324.571
-17.706	27.465	1610.087	1323.225
-16.692	27.418	1608.625	1321.631
-15.677	27.390	1607.279	1320.271
-14.663	27.480	1606.122	1319.924
-13.648	27.478	1604.443	1318.478
-12.633	27.495	1602.918	1317.293
-11.619	27.398	1601.957	1315.746
-10.604	27.405	1600.244	1314.339
-9.590	27.531	1598.416	1313.693
-8.575	27.418	1597.531	1312.101
-7.560	27.525	1596.433	1311.922
-6.546	27.428	1595.228	1310.175
-5.531	27.379	1594.418	1309.110
-4.517	27.452	1593.144	1308.536
-3.502	27.388	1592.397	1307.410
-2.487	27.537	1590.415	1306.804
-1.473	27.283	1578.633	1295.257
-0.458	24.529	1559.704	1260.273
0.556	19.414	1561.250	1230.068
1.571	17.063	1584.751	1231.437
2.586	16.834	1596.695	1238.939
3.600	15.397	1543.679	1187.530
4.615	8.498	1435.768	1058.863
5.629	1.616	1372.363	968.325
6.644	0.212	1365.128	954.242
7.659	0.073	1363.711	952.289
8.673	0.143	1362.594	951.867
9.688	0.051	1360.536	949.761
10.702	-0.067	1357.335	946.699
11.717	3.307	1362.799	971.739
12.731	11.194	1375.166	1030.520
13.746	16.584	1382.050	1069.762
14.761	17.104	1381.675	1072.665
15.775	16.321	1379.023	1065.572
16.790	15.231	1376.987	1057.028
17.804	14.426	1374.546	1049.996
18.819	14.027	1373.611	1046.672
19.834	13.816	1372.172	1044.161
20.848	13.554	1370.645	1041.255
21.863	13.327	1369.535	1038.894
22.877	13.274	1367.949	1037.270
23.892	13.171	1367.100	1035.885
24.907	13.126	1366.203	1034.836
25.921	13.168	1365.823	1034.714
26.936	13.247	1365.098	1034.568
27.950	13.287	1363.742	1033.701
28.965	13.301	1362.982	1033.121
29.980	13.362	1361.724	1032.460
30.994	13.413	1360.985	1032.121
32.009	13.398	1359.965	1031.163
33.023	13.378	1359.059	1030.262
34.038	13.310	1358.110	1029.028
35.053	13.333	1356.479	1027.842
36.067	13.261	1355.984	1026.930
37.082	13.427	1354.512	1026.754
38.096	13.343	1353.886	1025.673
39.111	13.323	1353.091	1024.854
40.126	13.239	1352.174	1023.546
41.140	13.207	1351.471	1022.726
42.155	13.148	1350.910	1021.846
43.169	13.189	1350.566	1021.749
44.184	13.162	1350.378	1021.350
45.199	13.112	1350.165	1020.790
46.213	13.167	1349.053	1020.198
47.228	13.201	1348.610	1019.982
48.242	13.300	1347.181	1019.423
49.257	13.210	1345.947	1017.846
50.271	13.307	1344.348	1017.139
51.286	13.325	1342.866	1016.039
52.301	13.238	1341.830	1014.632
53.315	13.261	1341.024	1014.074
54.330	13.157	1339.831	1012.445
55.344	13.249	1338.476	1011.898
56.359	13.179	1337.683	1010.775
57.374	13.177	1336.484	1009.771
58.388	13.171	1336.215	1009.443
59.403	13.141	1335.294	1008.473
60.417	13.170	1334.523	1007.977
61.432	13.079	1333.880	1006.850
62.447	12.948	1333.039	1005.324
63.461	13.064	1331.299	1004.628
64.476	13.051	1330.655	1003.976
65.490	13.092	1329.275	1003.097
66.505	13.091	1327.672	1001.794
67.520	13.068	1326.544	1000.713
68.534	13.265	1325.107	1000.736
69.549	13.095	1324.716	999.322
70.563	13.024	1323.722	998.049
71.578	13.021	1322.296	996.870
72.593	13.018	1321.299	996.012
73.607	13.065	1320.704	995.759
74.622	13.008	1319.740	994.600
75.636	13.066	1318.596	994.001
76.651	13.067	1318.366	993.743
77.666	13.022	1317.957	993.080
78.680	13.112	1316.859	992.703
79.695	13.109	1315.774	991.781
80.709	13.072	1315.058	990.931
81.724	13.109	1314.470	990.621
82.739	13.144	1313.321	989.880
83.753	13.229	1312.425	989.626
84.768	13.213	1311.688	988.882
85.782	13.390	1310.357	988.850
86.797	13.272	1309.091	987.107
87.812	13.232	1307.776	985.786
88.826	13.246	1306.801	985.051
89.841	13.292	1305.551	984.291
90.855	13.261	1304.845	983.491
91.870	13.234	1304.417	982.921
92.884	13.365	1303.157	982.661
93.899	13.340	1301.867	981.455
94.914	13.347	1301.580	981.189
95.928	13.331	1300.927	980.517
96.943	13.496	1299.361	980.228
97.957	13.246	1299.258	978.584
98.972	13.305	1297.873	977.801
99.987	13.354	1296.580	977.032
101.001	13.274	1296.078	976.095
102.016	13.307	1294.975	975.370
103.030	13.415	1293.805	975.038
104.045	13.376	1292.789	973.961
105.060	13.378	1291.490	972.907
106.074	13.236	1290.489	971.230
107.089	13.221	1289.132	970.036
108.103	13.150	1287.888	968.600
109.118	13.219	1286.426	967.814
110.133	13.141	1285.322	966.446
111.147	13.130	1284.055	965.341
112.162	13.242	1282.541	964.768
113.176	13.147	1281.936	963.675
114.191	13.188	1281.112	963.210
115.206	13.212	1279.739	962.235
116.220	13.143	1278.553	960.856
117.235	13.222	1277.721	960.606
118.249	13.234	1276.573	959.723
119.264	13.165	1275.714	958.595
120.279	13.188	1274.657	957.847
121.293	13.173	1273.460	956.778
122.308	13.226	1272.227	956.073
123.322	13.178	1271.493	955.162
124.337	13.175	1270.598	954.386
125.352	13.054	1269.622	952.868
126.366	13.076	1268.773	952.274
127.381	13.125	1267.630	951.618
128.395	13.097	1266.598	950.596
129.410	13.127	1266.138	950.336
130.424	13.042	1264.752	948.723
131.439	13.235	1263.692	948.957
132.454	13.207	1262.949	948.153
133.468	13.288	1261.863	947.716
134.483	13.266	1261.205	947.012
135.497	13.238	1260.154	945.978
136.512	13.233	1259.067	945.053
137.527	13.242	1257.637	943.946
138.541	13.271	1255.642	942.532
139.556	13.277	1254.543	941.655
140.570	13.263	1253.716	940.870
141.585	13.428	1252.286	940.656
142.600	13.364	1251.130	939.338
143.614	13.299	1250.594	938.487
144.629	13.372	1249.181	937.753
145.643	13.396	1248.480	937.282
146.658	13.380	1247.082	936.059
147.673	13.277	1246.165	934.707
148.687	13.299	1244.601	933.572
149.702	13.399	1243.134	932.955
150.716	13.344	1241.425	931.282
151.731	13.301	1240.644	930.372
152.746	13.313	1239.624	929.592
153.760	13.336	1238.215	928.580
154.775	13.497	1236.846	928.373
155.789	13.506	1236.257	927.901
156.804	13.462	1234.937	926.582
157.819	13.495	1234.430	926.301
158.833	13.570	1233.328	925.812
159.848	13.592	1232.513	925.245
160.862	13.450	1231.263	923.429
161.877	13.482	1229.968	922.557
162.892	13.419	1229.176	921.527
163.906	13.443	1228.020	920.718
164.921	13.458	1227.659	920.445
165.935	13.480	1226.546	919.653
166.950	13.507	1225.788	919.151
167.964	13.503	1224.922	918.399
168.979	13.507	1224.392	917.945
169.994	13.495	1223.676	917.257
171.008	13.553	1222.870	916.894
172.023	13.690	1221.741	916.727
173.037	13.536	1221.490	915.601
174.052	13.645	1220.357	915.277
175.067	13.592	1219.474	914.239
176.081	13.586	1218.555	913.439
177.096	13.509	1217.511	912.147
178.110	13.538	1216.652	911.584
179.125	13.635	1214.924	910.742
180.140	13.668	1213.529	909.798
181.154	13.729	1212.425	909.221
182.169	13.628	1211.320	907.762
183.183	13.635	1210.287	906.947
184.198	13.672	1209.137	906.203
185.213	13.814	1207.793	905.895
186.227	13.833	1206.638	905.050
187.242	13.774	1205.755	903.988
188.256	13.792	1205.114	903.525
189.271	13.948	1203.794	903.301
190.286	13.735	1203.218	901.632
191.300	13.605	1202.036	899.961
192.315	13.541	1201.618	899.224
193.329	13.606	1201.101	899.108
194.344	13.676	1200.168	898.709
195.359	13.742	1199.874	898.768
196.373	13.813	1198.640	898.146
197.388	13.918	1198.341	898.411
198.402	14.027	1197.405	898.220
199.417	13.949	1197.320	897.656
200.432	14.046	1196.318	897.347
201.446	13.967	1195.681	896.363
202.461	14.158	1194.425	896.370
203.475	14.139	1193.169	895.251
204.490	14.122	1192.252	894.390
205.504	14.078	1190.630	892.860
206.519	14.036	1189.724	891.874
207.534	14.013	1188.454	890.720
208.548	13.899	1188.334	889.941
209.563	13.992	1187.196	889.506
210.577	14.012	1185.955	888.606
211.592	14.006	1185.559	888.201
212.607	14.073	1184.450	887.647
213.621	14.225	1183.682	887.805
214.636	14.187	1182.320	886.501
215.650	14.156	1181.932	885.969
216.665	14.170	1180.956	885.230
217.680	14.233	1179.920	884.709
218.694	14.270	1178.969	884.115
219.709	14.157	1178.660	883.206
220.723	14.218	1177.937	882.912
221.738	14.245	1177.032	882.296
222.753	14.262	1176.315	881.773
223.767	14.252	1175.695	881.174
224.782	14.348	1175.004	881.086
225.796	14.386	1174.053	880.498
226.811	14.401	1173.423	880.025
227.826	14.375	1172.913	879.430
228.840	14.345	1172.264	878.703
229.855	14.309	1171.436	877.819
230.869	14.263	1170.339	876.673
231.884	14.484	1169.142	876.866
232.899	14.354	1168.797	875.845
233.913	14.429	1167.882	875.476
234.928	14.319	1167.088	874.227
235.942	14.277	1166.403	873.414
236.957	14.292	1166.056	873.157
237.972	14.397	1165.020	872.850
238.986	14.367	1164.471	872.208
240.001	14.270	1164.144	871.380
241.015	14.354	1163.062	870.931
242.030	14.388	1162.137	870.336
243.045	14.448	1161.134	869.824
244.059	14.519	1160.516	869.654
245.074	14.543	1160.021	869.332
246.088	14.570	1158.948	868.588
247.103	14.600	1158.247	868.142
248.117	14.786	1157.086	868.163
249.132	14.651	1156.480	866.930
250.147	14.758	1155.962	867.020
251.161	14.812	1155.340	866.758
252.176	14.711	1154.852	865.791
253.190	14.826	1154.001	865.672
254.205	14.903	1153.584	865.681
255.220	14.887	1152.973	865.062
256.234	14.876	1152.321	864.439
257.249	14.940	1151.075	863.759
258.263	14.910	1150.286	862.936
259.278	14.940	1150.102	862.879
260.293	14.863	1149.655	862.067
261.307	15.056	1148.843	862.378
262.322	14.935	1148.408	861.354
263.336	14.946	1147.637	860.753
264.351	15.063	1147.109	860.884
265.366	15.032	1146.102	859.893
266.380	15.084	1145.423	859.575
267.395	15.162	1144.532	859.229
268.409	15.054	1143.911	858.132
269.424	15.118	1143.416	858.012
270.439	15.152	1142.775	857.629
271.453	15.051	1142.260	856.649
272.468	15.020	1141.175	855.604
273.482	14.948	1140.771	854.856
274.497	15.061	1140.225	854.952
275.512	15.152	1139.201	854.570
276.526	15.144	1138.501	853.930
277.541	15.159	1137.634	853.281
278.555	15.164	1137.196	852.902
279.570	15.141	1136.404	852.114
280.585	15.267	1135.200	851.776
281.599	15.223	1134.557	850.995
282.614	15.315	1133.463	850.566
283.628	15.302	1132.532	849.725
284.643	15.230	1132.081	848.947
285.657	15.174	1131.227	847.950
286.672	15.354	1129.427	847.434
287.687	15.357	1129.357	847.324
288.701	15.291	1128.215	846.060
289.716	15.333	1127.681	845.794
290.730	15.318	1126.918	845.070
291.745	15.291	1126.354	844.435
292.760	15.431	1125.527	844.449
293.774	15.390	1124.889	843.687
294.789	15.422	1124.663	843.602
295.803	15.358	1123.876	842.619
296.818	15.503	1122.763	842.435
297.833	15.521	1122.297	842.100
298.847	15.488	1121.465	841.239
299.862	15.405	1120.778	840.230
300.876	15.452	1120.077	839.866
301.891	15.517	1119.147	839.421
302.906	15.543	1118.425	838.936
303.920	15.530	1118.142	838.582
304.935	15.669	1117.230	838.517
305.949	15.668	1116.339	837.770
306.964	15.577	1116.194	837.134
307.979	15.748	1115.013	837.027
308.993	15.582	1114.878	836.025
310.008	15.641	1113.735	835.388
311.022	15.715	1113.140	835.234
312.037	15.815	1111.559	834.469
313.052	15.625	1111.138	833.137
314.066	15.693	1110.189	832.690
315.081	15.608	1109.543	831.713
316.095	15.788	1108.530	831.767
317.110	15.567	1108.133	830.302
318.125	15.633	1107.274	829.911
319.139	15.694	1106.833	829.810
320.154	15.778	1105.942	829.485
321.168	15.627	1105.756	828.526
322.183	15.668	1105.040	828.118
323.197	15.765	1104.026	827.762
324.212	15.731	1103.698	827.274
325.227	15.772	1103.170	827.007
326.241	15.893	1102.171	826.782
327.256	15.770	1101.556	825.644
328.270	15.798	1100.327	824.786
329.285	15.774	1099.470	823.954
330.300	15.791	1098.528	823.257
331.314	15.797	1097.734	822.620
332.329	15.797	1097.010	822.003
333.343	15.869	1095.969	821.499
334.358	15.824	1095.427	820.805
335.373	15.837	1094.751	820.286
336.387	15.833	1094.181	819.769
337.402	15.985	1092.889	819.467
338.416	16.009	1092.664	819.341
339.431	15.973	1091.867	818.499
340.446	16.073	1091.135	818.363
341.460	16.218	1090.132	818.239
342.475	16.231	1089.559	817.799
343.489	16.087	1088.900	816.538
344.504	16.156	1088.194	816.269
345.519	16.160	1087.289	815.534
346.533	16.296	1086.053	815.195
347.548	16.328	1085.468	814.839
348.562	16.251	1084.951	814.004
349.577	16.149	1084.085	812.793
350.592	16.258	1082.946	812.392
351.606	16.219	1082.572	811.852
352.621	16.156	1081.921	810.988
353.635	16.190	1081.380	810.674
354.650	16.217	1080.700	810.222
355.665	16.222	1079.742	809.455
356.679	16.304	1079.091	809.291
357.694	16.302	1078.449	808.728
358.708	16.347	1078.015	808.544
359.723	16.340	1077.202	807.829
360.738	16.310	1076.807	807.318
361.752	16.368	1076.018	806.935
362.767	16.376	1075.801	806.737
363.781	16.419	1075.071	806.327
364.796	16.447	1074.665	806.083
365.810	16.462	1073.696	805.353
366.825	16.547	1073.241	805.347
367.840	16.458	1073.034	804.695
368.854	16.512	1072.339	804.361
369.869	16.663	1071.189	804.146
370.883	16.642	1070.178	803.215
371.898	16.630	1069.417	802.514
372.913	16.502	1069.457	801.870
373.927	16.586	1069.017	801.866
374.942	16.633	1068.304	801.484
375.956	16.605	1067.556	800.717
376.971	16.561	1067.012	800.031
377.986	16.578	1066.493	799.650
379.000	16.685	1065.786	799.558
380.015	16.733	1065.512	799.505
381.029	16.764	1064.736	799.001
382.044	16.826	1063.799	798.520
383.059	16.790	1063.086	797.741
384.073	16.819	1062.390	797.288
385.088	16.858	1061.357	796.623
386.102	16.873	1060.673	796.109
387.117	16.892	1059.326	795.118
388.132	16.803	1058.714	794.169
389.146	16.772	1058.208	793.574
390.161	16.762	1057.442	792.887
391.175	16.808	1056.738	792.501
392.190	16.799	1056.065	791.886
393.205	16.910	1055.229	791.708
394.219	16.956	1054.377	791.213
395.234	16.949	1053.441	790.406
396.248	16.923	1052.297	789.356
397.263	16.872	1051.539	788.482
398.278	16.866	1051.133	788.078
399.292	16.756	1050.504	787.025
400.307	16.931	1049.743	787.200
401.321	16.766	1049.320	786.049
402.336	16.857	1048.754	785.974
403.350	16.963	1047.790	785.675
404.365	16.942	1047.095	784.984
405.380	16.931	1046.383	784.333
406.394	16.973	1045.507	783.803
407.409	17.027	1044.868	783.504
408.423	17.124	1044.204	783.382
409.438	17.072	1043.422	782.487
410.453	17.029	1043.252	782.090
411.467	17.179	1041.953	781.739
412.482	17.214	1040.906	781.043
413.496	17.252	1040.755	781.038
414.511	17.276	1040.171	780.641
415.526	17.363	1039.746	780.650
416.540	17.394	1039.322	780.406
417.555	17.442	1038.769	780.144
418.569	17.406	1037.991	779.323
419.584	17.305	1037.625	778.517
420.599	17.261	1037.384	778.066
421.613	105.429	1324.435	1478.736
422.628	96.710	1366.189	1478.814
