DTS Sentinel unit serial number:	SN413079Multiplexer serial number:	ORYXHardware model number:	OX4-SRSoftware version number:	ORYX F/W v4.00 Oryx Data Collector v3.7.2.0data status	okinstallation	princeton_trtdifferential loss correction	single-endedforward channel	channel 2reverse channel	N/Adate	2019/09/13time	08:15:35forward acquisition time	60.00reverse acquisition time	0.00gamma	496.2192k internal	0.2334k external	0.2334temperature offset calibration	1.0193default loss term (dB/km)	0.3790temperature slope calibration	1.0000multiplexer offset coefficient	1.0000multiplexer slope coefficient	1.0000fibre end	0.00T internal ref (°C)	27.17T ext. ref 1 (°C)	4.28T ext. ref 2 (°C)	23.08length (m)	temperature (°C)	Stokes	anti-Stokes-747.200	-77.558	0.200	0.070
-746.185	-6.942	-0.189	0.129
-745.171	-8.610	0.141	-0.095
-744.156	-121.428	-0.488	0.082
-743.142	65.208	-0.056	0.057
-742.127	0.653	-0.206	0.148
-741.112	18.296	0.123	0.098
-740.098	16.037	-0.211	0.167
-739.083	118.243	0.281	0.348
-738.069	-11.388	0.235	-0.155
-737.054	-99.220	0.291	-0.074
-736.039	800.000	-0.037	-0.157
-735.025	511.853	0.133	-0.312
-734.010	-149.528	-0.300	-0.024
-732.996	42.637	0.282	-0.258
-731.981	-147.408	-0.201	-0.017
-730.966	68.128	0.061	-0.063
-729.952	-114.248	-0.204	-0.039
-728.937	-157.266	0.112	-0.007
-727.923	800.000	-0.059	0.203
-726.908	-56.165	-0.207	-0.093
-725.894	1.398	-0.345	-0.249
-724.879	225.128	0.028	-0.045
-723.864	116.590	-0.119	0.147
-722.850	-120.914	-0.271	-0.046
-721.835	141.667	0.227	0.302
-720.821	110.921	-0.092	0.112
-719.806	710.639	-0.119	0.318
-718.791	479.930	-0.189	-0.430
-717.777	30.896	-0.064	-0.055
-716.762	-104.105	-0.146	-0.034
-715.748	-118.936	0.278	0.049
-714.733	-200.000	-0.005	-0.152
-713.718	-116.953	0.151	-0.028
-712.704	115.467	0.048	-0.059
-711.689	-120.990	-0.133	0.022
-710.675	231.971	0.235	-0.387
-709.660	-135.276	-0.191	0.023
-708.645	-91.034	0.136	-0.039
-707.631	-105.702	0.155	0.035
-706.616	-99.675	0.236	0.059
-705.602	470.180	-0.024	0.054
-704.587	-107.509	-0.244	-0.054
-703.572	-200.000	-0.004	0.314
-702.558	-96.819	-0.048	0.013
-701.543	-172.402	-0.446	-0.014
-700.529	222.184	0.181	0.292
-699.514	800.000	-0.057	0.184
-698.499	-200.000	-0.011	-0.076
-697.485	133.230	-0.318	0.412
-696.470	-37.354	-0.110	-0.059
-695.456	-34.369	0.030	0.017
-694.441	47.389	-0.114	0.106
-693.426	-93.406	-0.317	0.088
-692.412	299.600	-0.036	-0.066
-691.397	800.000	0.026	0.098
-690.383	102.645	0.077	-0.090
-689.368	-68.357	0.230	0.090
-688.354	12.304	-0.245	-0.189
-687.339	24.793	-0.351	-0.292
-686.324	35.126	-0.200	0.176
-685.310	-200.000	-0.012	0.140
-684.295	-200.000	0.011	0.229
-683.281	-99.511	0.200	-0.050
-682.266	-52.445	-0.025	0.011
-681.251	540.401	-0.137	0.327
-680.237	-166.780	-0.352	-0.015
-679.222	-26.731	0.204	-0.120
-678.208	321.484	0.124	-0.236
-677.193	-147.041	-0.273	0.023
-676.178	147.767	0.053	-0.071
-675.164	-6.859	-0.121	0.083
-674.149	40.016	-0.067	0.060
-673.135	49.980	0.222	-0.210
-672.120	126.675	-0.090	-0.114
-671.105	188.164	-0.119	0.178
-670.091	-7.473	0.259	-0.176
-669.076	482.184	0.093	0.211
-668.062	698.217	-0.099	-0.261
-667.047	-200.000	-0.020	-0.363
-666.032	7.525	-0.140	-0.105
-665.018	279.524	-0.058	0.104
-664.003	227.386	0.041	0.066
-662.989	52.900	-0.166	-0.159
-661.974	55.055	0.196	-0.190
-660.959	324.519	-0.095	0.183
-659.945	-52.494	0.130	0.060
-658.930	-0.067	-0.344	-0.245
-657.916	-126.108	-0.309	-0.046
-656.901	-108.062	-0.221	0.048
-655.886	263.960	0.148	-0.258
-654.872	647.105	0.098	-0.251
-653.857	82.143	-0.164	-0.179
-652.843	312.475	-0.146	-0.275
-651.828	-73.739	-0.087	-0.032
-650.814	227.065	-0.189	-0.308
-649.799	114.403	0.066	0.080
-648.784	20.807	-0.225	0.183
-647.770	-168.337	-0.346	0.013
-646.755	449.206	-0.071	-0.157
-645.741	800.000	-0.056	-0.170
-644.726	-200.000	0.026	-0.390
-643.711	4.814	0.139	-0.103
-642.697	-140.358	-0.314	-0.033
-641.682	-82.018	-0.199	0.065
-640.668	-181.090	0.325	0.007
-639.653	-200.000	0.018	-0.085
-638.638	-42.303	-0.222	-0.113
-637.624	-116.461	0.169	-0.031
-636.609	10.657	0.097	-0.074
-635.595	402.359	0.089	-0.188
-634.580	-200.000	0.038	-0.265
-633.565	216.006	-0.060	0.095
-632.551	156.005	-0.169	0.233
-631.536	59.139	-0.205	-0.202
-630.522	800.000	0.186	0.552
-629.507	-126.822	-0.075	-0.011
-628.492	-200.000	-0.036	0.166
-627.478	120.523	0.124	0.154
-626.463	-120.204	-0.333	-0.057
-625.449	-99.381	0.088	-0.022
-624.434	-53.194	0.521	0.239
-623.419	142.684	0.215	0.286
-622.405	-50.369	0.186	0.088
-621.390	800.000	-0.084	0.322
-620.376	4.320	0.105	-0.077
-619.361	-97.607	-0.042	-0.011
-618.346	602.400	-0.115	0.286
-617.332	87.758	0.162	0.180
-616.317	-141.533	-0.413	-0.042
-615.303	550.630	0.057	0.137
-614.288	-133.260	-0.286	-0.036
-613.273	66.467	-0.064	0.065
-612.259	104.711	-0.272	-0.321
-611.244	-49.454	0.075	0.036
-610.230	-0.953	-0.192	-0.136
-609.215	702.704	-0.027	0.071
-608.201	800.000	0.033	-0.121
-607.186	-110.036	-0.347	0.073
-606.171	800.000	-0.038	0.151
-605.157	-10.566	-0.118	-0.078
-604.142	-88.955	0.129	-0.038
-603.128	-33.883	-0.209	-0.115
-602.113	-38.151	0.318	-0.169
-601.098	800.000	0.066	-0.249
-600.084	-200.000	-0.039	-0.400
-599.069	-190.126	-0.212	0.002
-598.055	800.000	0.063	-0.189
-597.040	-46.781	-0.232	0.113
-596.025	-59.996	0.180	0.077
-595.011	-200.000	-0.041	-0.309
-593.996	-112.764	0.191	0.038
-592.982	92.634	-0.235	0.265
-591.967	62.503	-0.233	-0.233
-590.952	-171.426	-0.124	0.004
-589.938	-53.826	0.103	-0.047
-588.923	157.773	-0.202	-0.279
-587.909	-151.139	0.202	-0.015
-586.894	608.937	-0.006	-0.014
-585.879	-200.000	0.011	-0.189
-584.865	593.285	0.129	-0.318
-583.850	337.701	0.069	-0.134
-582.836	146.832	0.234	0.315
-581.821	-52.976	0.297	0.136
-580.806	-17.940	0.132	0.083
-579.792	-200.000	-0.015	-0.155
-578.777	-134.197	-0.221	-0.027
-577.763	35.091	-0.399	0.349
-576.748	189.687	0.054	-0.082
-575.733	-25.598	-0.246	-0.145
-574.719	-3.841	-0.346	0.240
-573.704	-200.000	-0.046	0.383
-572.690	335.899	0.117	-0.226
-571.675	284.127	-0.037	0.067
-570.661	-73.176	0.304	-0.111
-569.646	-47.062	-0.331	0.161
-568.631	-38.399	0.286	0.151
-567.617	-156.422	-0.114	0.007
-566.602	800.000	-0.044	-0.186
-565.588	83.215	0.180	0.196
-564.573	499.862	0.120	0.276
-563.558	-82.464	0.213	0.069
-562.544	-35.970	0.142	-0.076
-561.529	-200.000	0.017	-0.323
-560.515	-180.142	-0.395	-0.008
-559.500	0.231	-0.136	-0.097
-558.485	-67.213	-0.230	-0.090
-557.471	-1.560	0.209	-0.147
-556.456	82.491	-0.244	-0.265
-555.442	-110.883	-0.126	0.026
-554.427	-67.532	-0.134	-0.053
-553.412	-200.000	-0.005	-0.178
-552.398	-200.000	0.007	-0.297
-551.383	-200.000	-0.010	0.086
-550.369	27.948	-0.272	0.229
-549.354	800.000	0.014	-0.043
-548.339	-200.000	-0.084	-0.400
-547.325	-200.000	-0.256	-0.000
-546.310	-200.000	-0.032	-0.324
-545.296	-200.000	-0.051	-0.278
-544.281	-194.948	-0.099	-0.001
-543.266	-99.987	0.091	0.023
-542.252	-43.702	0.111	-0.056
-541.237	-200.000	-0.005	0.150
-540.223	800.000	0.036	0.148
-539.208	-155.170	-0.112	-0.007
-538.193	-200.000	-0.060	-0.296
-537.179	584.084	-0.113	0.276
-536.164	-70.273	0.172	-0.065
-535.150	207.357	-0.076	-0.119
-534.135	62.059	0.157	-0.156
-533.121	286.810	-0.163	0.293
-532.106	0.491	0.054	-0.038
-531.091	-122.707	-0.337	0.054
-530.077	750.073	-0.038	-0.102
-529.062	96.348	-0.141	0.161
-528.048	-68.860	0.161	0.062
-527.033	30.003	0.171	-0.146
-526.018	23.385	0.253	0.207
-525.004	-82.990	-0.277	-0.089
-523.989	331.031	0.089	0.172
-522.975	236.511	0.233	0.384
-521.960	800.000	0.091	-0.289
-520.945	800.000	-0.083	-0.255
-519.931	14.966	0.287	0.224
-518.916	17.756	-0.243	-0.193
-517.902	-200.000	-0.003	0.246
-516.887	-94.860	-0.167	-0.045
-515.872	0.523	-0.288	0.205
-514.858	-200.000	-0.009	-0.065
-513.843	-170.663	-0.391	0.013
-512.829	180.339	-0.279	0.408
-511.814	-58.606	0.117	-0.050
-510.799	258.730	0.106	0.182
-509.785	-122.097	-0.167	-0.027
-508.770	-101.506	0.177	0.043
-507.756	158.078	-0.153	-0.212
-506.741	1.573	0.226	-0.162
-505.726	-160.351	0.180	-0.010
-504.712	-15.369	0.204	0.130
-503.697	800.000	0.138	-0.526
-502.683	25.301	-0.361	-0.298
-501.668	-102.785	0.312	-0.074
-500.653	-107.998	0.220	-0.047
-499.639	17.878	0.253	0.201
-498.624	348.538	0.024	0.047
-497.610	-103.700	-0.230	-0.054
-496.595	-120.397	-0.044	0.007
-495.581	-200.000	0.014	0.157
-494.566	-16.872	0.289	0.182
-493.551	-200.000	-0.055	0.245
-492.537	-40.668	0.110	-0.057
-491.522	800.000	0.011	0.046
-490.508	57.935	-0.183	0.179
-489.493	-200.000	0.029	-0.214
-488.478	800.000	0.069	-0.298
-487.464	160.738	0.075	-0.104
-486.449	-81.279	-0.119	0.039
-485.435	-137.254	0.190	0.021
-484.420	-104.964	0.367	0.084
-483.405	-130.197	-0.258	0.035
-482.391	13.954	0.314	-0.243
-481.376	64.958	-0.105	-0.105
-480.362	74.698	0.150	0.157
-479.347	-200.000	-0.008	0.119
-478.332	800.000	0.090	-0.297
-477.318	-26.595	0.243	-0.142
-476.303	-200.000	0.004	0.080
-475.289	-49.922	0.090	-0.043
-474.274	53.587	0.119	0.113
-473.259	-39.461	-0.106	-0.055
-472.245	-200.000	-0.016	-0.207
-471.230	-200.000	0.039	-0.229
-470.216	68.059	0.313	-0.319
-469.201	-200.000	-0.048	0.249
-468.186	173.207	0.084	-0.120
-467.172	28.893	-0.279	-0.235
-466.157	800.000	-0.025	-0.109
-465.143	-115.258	0.253	0.048
-464.128	-200.000	-0.001	0.009
-463.113	-200.000	0.019	-0.183
-462.099	800.000	-0.011	-0.044
-461.084	-164.679	0.159	-0.007
-460.070	277.002	-0.222	0.392
-459.055	34.263	-0.091	0.079
-458.040	-104.886	0.227	0.052
-457.026	76.086	0.088	-0.093
-456.011	2.453	0.186	-0.134
-454.997	-200.000	-0.022	0.262
-453.982	95.615	-0.180	-0.204
-452.968	-132.455	0.539	-0.069
-451.953	-200.000	-0.019	0.103
-450.938	-0.968	-0.224	0.158
-449.924	-45.792	-0.111	-0.054
-448.909	-18.953	-0.092	-0.057
-447.895	-8.580	-0.295	-0.197
-446.880	167.699	-0.083	0.117
-445.865	800.000	0.011	-0.040
-444.851	-153.172	0.126	-0.009
-443.836	800.000	0.115	-0.340
-442.822	561.654	-0.068	0.162
-441.807	12.410	-0.217	-0.166
-440.792	-180.029	-0.231	0.005
-439.778	-200.000	0.009	0.226
-438.763	206.573	-0.123	-0.190
-437.749	-150.201	-0.230	-0.018
-436.734	-200.000	0.046	-0.370
-435.719	44.560	-0.060	-0.055
-434.705	-200.000	0.169	0.001
-433.690	5.226	0.054	0.040
-432.676	-200.000	-0.059	0.308
-431.661	-28.230	0.045	0.026
-430.646	311.794	0.084	0.156
-429.632	60.965	-0.210	0.206
-428.617	41.517	-0.208	0.187
-427.603	60.905	-0.254	0.250
-426.588	-107.295	-0.232	-0.051
-425.573	-26.719	-0.195	-0.113
-424.559	-200.000	0.055	-0.248
-423.544	-104.777	0.123	0.028
-422.530	42.289	0.128	0.115
-421.515	-139.091	-0.059	0.006
-420.500	-72.608	0.123	-0.045
-419.486	800.000	-0.107	-0.321
-418.471	-10.079	0.061	0.040
-417.457	309.549	0.019	-0.036
-416.442	-200.000	-0.031	0.210
-415.428	604.202	0.089	0.221
-414.413	-110.073	-0.248	-0.051
-413.398	-19.649	-0.067	-0.041
-412.384	234.470	-0.195	-0.319
-411.369	800.000	0.023	-0.096
-410.355	-116.329	0.045	0.008
-409.340	-176.291	-0.263	0.007
-408.325	-200.000	-0.022	-0.133
-407.311	800.000	-0.037	-0.148
-406.296	800.000	0.119	0.359
-405.282	379.665	0.119	0.242
-404.267	800.000	-0.057	0.189
-403.252	534.523	-0.048	0.112
-402.238	-172.983	-0.223	-0.007
-401.223	618.569	0.180	0.448
-400.209	-100.529	-0.183	-0.045
-399.194	141.001	0.089	0.117
-398.179	-67.720	0.191	0.074
-397.165	-33.291	-0.347	-0.191
-396.150	34.419	0.148	0.128
-395.136	800.000	0.018	-0.050
-394.121	48.817	0.167	0.155
-393.106	49.278	0.080	-0.074
-392.092	293.020	-0.122	0.221
-391.077	-136.264	-0.190	0.022
-390.063	-200.000	0.048	0.212
-389.048	244.928	0.070	-0.117
-388.033	407.334	0.043	-0.090
-387.019	330.739	0.075	0.144
-386.004	800.000	-0.050	0.157
-384.990	646.715	-0.078	-0.197
-383.975	800.000	-0.099	-0.367
-382.960	306.299	-0.154	0.284
-381.946	-50.314	0.263	-0.123
-380.931	800.000	0.065	0.246
-379.917	265.646	0.106	0.183
-378.902	-0.119	-0.137	0.097
-377.888	132.371	0.097	-0.124
-376.873	743.255	-0.166	0.442
-375.858	-111.257	0.155	-0.031
-374.844	187.577	0.105	-0.155
-373.829	252.158	0.025	-0.043
-372.815	-115.068	-0.103	-0.019
-371.800	9.910	0.103	0.077
-370.785	-64.455	0.286	0.115
-369.771	88.302	-0.155	0.170
-368.756	-200.000	0.020	0.296
-367.742	-179.646	0.268	0.006
-366.727	279.311	0.083	-0.146
-365.712	-67.978	-0.206	0.080
-364.698	11.894	0.349	0.266
-363.683	-125.641	0.256	0.038
-362.669	-44.821	0.212	0.105
-361.654	800.000	0.028	0.097
-360.639	800.000	0.013	0.054
-359.625	-200.000	0.022	-0.145
-358.610	-69.281	0.140	0.053
-357.596	-61.335	-0.344	0.143
-356.581	405.064	-0.047	0.098
-355.566	-121.169	0.274	-0.045
-354.552	668.181	0.080	-0.204
-353.537	-129.890	0.080	-0.011
-352.523	-200.000	-0.003	-0.040
-351.508	151.866	-0.159	-0.215
-350.493	315.225	-0.094	0.175
-349.479	1.764	-0.222	0.159
-348.464	12.093	-0.313	-0.239
-347.450	-62.060	0.267	0.110
-346.435	-126.338	0.044	0.007
-345.420	169.553	0.272	0.384
-344.406	0.359	-0.246	-0.174
-343.391	114.345	-0.151	-0.182
-342.377	-59.561	0.132	0.056
-341.362	-200.000	0.010	-0.091
-340.348	-28.676	-0.137	-0.078
-339.333	-83.820	-0.202	-0.064
-338.318	800.000	0.077	0.257
-337.304	36.348	0.226	0.197
-336.289	-34.587	-0.253	-0.137
-335.275	268.930	-0.071	-0.123
-334.260	800.000	0.029	-0.107
-333.245	-20.319	-0.312	0.190
-332.231	20.628	0.173	-0.139
-331.216	-93.891	0.244	-0.066
-330.202	-200.000	-0.037	-0.306
-329.187	-200.000	-0.018	-0.314
-328.172	-200.000	-0.001	0.092
-327.158	-200.000	-0.016	-0.150
-326.143	235.833	0.021	-0.034
-325.129	264.616	-0.168	0.290
-324.114	1.586	0.158	-0.113
-323.099	317.499	-0.079	-0.148
-322.085	-200.000	-0.003	0.059
-321.070	194.410	0.128	-0.192
-320.056	800.000	-0.022	-0.077
-319.041	800.000	0.098	-0.333
-318.026	-11.317	0.201	-0.131
-317.012	233.609	0.155	-0.252
-315.997	-16.246	0.280	-0.176
-314.983	83.963	-0.094	-0.102
-313.968	-5.248	-0.260	0.176
-312.953	-200.000	-0.035	0.317
-311.939	49.096	0.223	-0.207
-310.924	-110.247	-0.204	0.042
-309.910	800.000	-0.087	0.357
-308.895	-139.645	-0.259	0.027
-307.880	-79.292	0.453	-0.152
-306.866	-195.897	-0.314	0.002
-305.851	487.085	-0.043	0.097
-304.837	-123.016	0.290	-0.046
-303.822	-153.750	0.245	0.017
-302.807	-91.955	0.078	0.022
-301.793	-106.510	-0.215	0.047
-300.778	-96.826	-0.489	-0.127
-299.764	88.150	-0.173	0.190
-298.749	-115.502	-0.207	0.039
-297.735	-82.393	0.238	-0.077
-296.720	224.800	-0.032	-0.051
-295.705	19.879	-0.065	0.052
-294.691	-138.414	0.301	0.033
-293.676	-33.533	0.136	0.074
-292.662	-77.092	-0.272	0.094
-291.647	-2.921	0.195	-0.135
-290.632	32.266	0.374	-0.319
-289.618	52.616	0.239	0.226
-288.603	207.720	0.201	-0.310
-287.589	-200.000	0.003	-0.215
-286.574	-116.167	-0.304	0.056
-285.559	-154.803	0.052	-0.003
-284.545	8.465	-0.148	-0.110
-283.530	357.418	0.082	0.161
-282.516	138.501	-0.147	0.190
-281.501	-60.860	-0.249	-0.104
-280.486	3.004	0.228	0.163
-279.472	-200.000	0.001	0.125
-278.457	-200.000	-0.032	0.216
-277.443	-86.933	0.067	0.020
-276.428	-200.000	-0.049	0.297
-275.413	-127.860	0.437	0.062
-274.399	17.931	-0.116	0.091
-273.384	471.181	-0.187	0.415
-272.370	232.780	0.162	0.263
-271.355	-76.870	-0.244	0.084
-270.340	-200.000	0.056	0.344
-269.326	108.737	0.117	0.138
-268.311	-200.000	-0.028	-0.128
-267.297	207.515	-0.199	0.306
-266.282	68.480	-0.133	-0.135
-265.267	-200.000	-0.102	-0.456
-264.253	-113.203	-0.079	0.015
-263.238	-159.130	-0.117	0.007
-262.224	-148.532	-0.055	0.004
-261.209	-106.129	0.133	0.029
-260.195	-200.000	0.011	0.190
-259.180	131.671	0.163	0.206
-258.165	134.616	-0.126	-0.162
-257.151	8.036	0.211	-0.156
-256.136	-21.444	0.256	0.154
-255.122	-200.000	0.087	-0.396
-254.107	800.000	0.045	-0.182
-253.092	638.971	-0.075	-0.188
-252.078	-200.000	0.016	0.117
-251.063	-192.160	-0.297	0.003
-250.049	33.267	-0.185	0.158
-249.034	74.259	0.156	0.162
-248.019	-35.688	0.221	-0.118
-247.005	-200.000	-0.002	0.093
-245.990	172.781	0.151	0.215
-244.976	-81.274	0.247	-0.080
-243.961	-146.725	-0.176	-0.015
-242.946	-200.000	0.065	0.328
-241.932	-31.296	0.408	-0.227
-240.917	-89.977	-0.277	-0.080
-239.903	-167.556	-0.170	-0.007
-238.888	337.504	-0.060	-0.116
-237.873	250.332	0.136	-0.227
-236.859	-173.818	-0.203	0.006
-235.844	36.024	0.169	0.147
-234.830	699.490	0.079	0.206
-233.815	-140.354	-0.323	0.033
-232.800	-10.469	-0.262	-0.171
-231.786	568.420	-0.057	0.137
-230.771	-97.574	0.181	-0.046
-229.757	-124.962	0.431	-0.065
-228.742	-184.512	-0.418	-0.007
-227.727	-92.447	0.174	0.048
-226.713	134.021	0.236	-0.301
-225.698	-104.182	0.058	0.013
-224.684	113.246	-0.209	0.250
-223.669	800.000	-0.044	0.184
-222.655	-200.000	-0.017	0.255
-221.640	481.814	0.108	0.242
-220.625	-200.000	-0.088	0.386
-219.611	31.021	0.103	0.087
-218.596	-175.461	0.038	0.001
-217.582	-37.904	-0.307	0.160
-216.567	-6.901	-0.157	-0.105
-215.552	800.000	-0.065	-0.235
-214.538	-124.703	-0.112	0.017
-213.523	-142.816	0.096	-0.009
-212.509	800.000	-0.068	-0.206
-211.494	-121.273	-0.213	0.035
-210.479	800.000	-0.029	0.096
-209.465	800.000	-0.058	-0.178
-208.450	380.308	-0.063	-0.127
-207.436	-132.763	0.019	0.002
-206.421	-60.611	-0.182	0.076
-205.406	-10.744	0.169	0.110
-204.392	-56.093	-0.139	-0.061
-203.377	-16.414	0.199	-0.124
-202.363	5.588	-0.137	-0.099
-201.348	800.000	0.073	0.235
-200.333	1.746	0.166	-0.118
-199.319	752.632	0.195	0.518
-198.304	-200.000	-0.014	-0.118
-197.290	115.213	-0.062	-0.075
-196.275	-126.979	0.250	0.036
-195.260	-200.000	-0.001	0.129
-194.246	-102.301	0.332	-0.078
-193.231	-136.654	0.286	0.032
-192.217	800.000	0.066	0.183
-191.202	-200.000	-0.001	0.050
-190.187	68.836	0.229	0.231
-189.173	-200.000	-0.053	0.265
-188.158	3.716	-0.133	0.096
-187.144	-200.000	0.048	-0.370
-186.129	-200.000	0.059	0.260
-185.114	52.519	-0.131	0.123
-184.100	-34.920	-0.158	-0.085
-183.085	102.232	-0.057	0.065
-182.071	-200.000	0.080	0.417
-181.056	800.000	0.038	0.155
-180.042	361.025	0.143	-0.282
-179.027	304.029	-0.129	-0.235
-178.012	40.515	0.223	-0.198
-176.998	124.822	-0.032	-0.040
-175.983	-28.892	-0.049	0.028
-174.969	-200.000	0.030	-0.145
-173.954	-37.840	0.116	-0.061
-172.939	-93.547	0.223	-0.061
-171.925	41.141	0.028	-0.025
-170.910	-62.314	0.293	0.120
-169.896	72.883	-0.209	-0.215
-168.881	-126.150	0.233	-0.034
-167.866	92.008	-0.070	-0.078
-166.852	-10.884	-0.087	0.057
-165.837	800.000	-0.026	-0.095
-164.823	57.528	0.112	-0.108
-163.808	800.000	0.014	0.060
-162.793	-102.090	0.343	-0.081
-161.779	800.000	-0.027	-0.096
-160.764	128.294	0.005	-0.007
-159.750	165.930	0.179	0.249
-158.735	-64.730	-0.325	-0.129
-157.720	-55.501	0.320	0.141
-156.706	203.711	-0.191	-0.290
-155.691	-200.000	-0.039	-0.324
-154.677	-51.505	0.187	-0.086
-153.662	461.716	0.183	-0.400
-152.647	-69.048	-0.385	-0.146
-151.633	-134.289	0.311	0.038
-150.618	-200.000	0.009	0.116
-149.604	-39.296	0.147	-0.076
-148.589	-200.000	0.010	0.122
-147.574	-194.122	-0.351	-0.003
-146.560	634.453	0.101	0.251
-145.545	39.279	-0.215	-0.189
-144.531	-99.495	0.333	0.082
-143.516	-55.487	0.249	0.109
-142.502	8.114	-0.251	-0.185
-141.487	186.854	-0.042	0.062
-140.472	-55.378	-0.104	0.046
-139.458	-137.270	0.218	-0.024
-138.443	-79.056	-0.234	-0.078
-137.429	772.785	0.149	0.398
-136.414	206.507	0.173	0.265
-135.399	54.454	0.040	0.037
-134.385	-40.379	0.353	0.180
-133.370	174.654	0.164	-0.233
-132.356	55.826	-0.036	0.035
-131.341	336.263	-0.203	0.388
-130.326	26.207	-0.125	0.102
-129.312	746.444	0.082	0.218
-128.297	125.321	0.232	0.288
-127.283	766.575	0.108	0.289
-126.268	361.796	0.100	0.197
-125.253	-200.000	0.029	-0.269
-124.239	355.172	-0.087	-0.170
-123.224	-200.000	-0.048	-0.270
-122.210	800.000	0.091	0.355
-121.195	-200.000	0.010	0.175
-120.180	288.893	0.167	0.298
-119.166	199.682	0.031	-0.046
-118.151	-169.342	0.094	0.003
-117.137	-200.000	-0.018	0.340
-116.122	-38.045	0.275	-0.143
-115.107	-200.000	0.027	0.122
-114.093	-113.034	-0.259	0.050
-113.078	-200.000	-0.046	0.224
-112.064	-139.954	0.293	0.030
-111.049	53.673	-0.364	0.342
-110.034	82.847	-0.277	-0.295
-109.020	-25.590	0.209	0.121
-108.005	-200.000	-0.035	0.193
-106.991	-200.000	-0.024	-0.158
-105.976	-200.000	-0.030	0.221
-104.962	-175.396	0.425	0.011
-103.947	800.000	0.185	0.551
-102.932	107.829	0.151	-0.176
-101.918	-200.000	-0.065	-0.370
-100.903	273.002	-0.061	0.106
-99.889	90.959	0.079	-0.087
-98.874	66.462	0.180	0.179
-97.859	21.038	0.099	-0.079
-96.845	167.766	-0.084	0.117
-95.830	-46.735	0.052	-0.025
-94.816	-134.571	-0.125	0.015
-93.801	-200.000	-0.069	-0.552
-92.786	-200.000	0.104	0.473
-91.772	-200.000	-0.074	0.376
-90.757	-89.143	0.212	-0.061
-89.743	-163.979	0.332	-0.015
-88.728	-53.579	0.155	0.069
-87.713	-170.605	0.131	-0.004
-86.699	22.767	-0.217	-0.174
-85.684	-200.000	0.077	-0.352
-84.670	177.870	-0.227	0.325
-83.655	-113.131	-0.127	-0.024
-82.640	28.657	-0.158	-0.131
-81.626	-101.398	0.121	-0.029
-80.611	381.778	-0.185	-0.373
-79.597	800.000	0.044	0.122
-78.582	-36.599	-0.075	0.040
-77.567	179.217	0.119	-0.170
-76.553	252.411	-0.058	-0.097
-75.538	207.739	0.078	-0.119
-74.524	-200.000	0.000	-0.214
-73.509	519.022	0.057	0.131
-72.494	171.592	-0.016	0.022
-71.480	-136.723	0.304	-0.034
-70.465	71.910	0.199	-0.202
-69.451	113.678	-0.239	-0.284
-68.436	-45.903	0.349	-0.169
-67.422	-105.090	-0.073	-0.016
-66.407	407.747	-0.176	0.364
-65.392	-120.464	0.069	0.012
-64.378	14.706	0.323	0.247
-63.363	-73.241	0.283	0.101
-62.349	-200.000	-0.010	-0.334
-61.334	280.105	-0.691	-1.209
-60.319	247.948	0.217	0.360
-59.305	-200.000	-0.256	-1.237
-58.290	533.900	0.442	1.025
-57.276	402.076	0.772	1.588
-56.261	-200.000	114.211	648.305
-55.246	532.577	1528.395	3539.896
-54.232	175.166	2710.389	3841.821
-53.217	101.566	2303.941	2627.500
-52.203	36.533	1906.140	1646.019
-51.188	30.308	1693.870	1415.361
-50.173	27.884	1652.152	1362.390
-49.159	49.762	1707.602	1574.434
-48.144	48.252	1722.033	1576.257
-47.130	29.995	1679.291	1400.591
-46.115	27.216	1664.833	1367.606
-45.100	27.081	1659.772	1362.380
-44.086	27.050	1657.435	1360.176
-43.071	27.028	1654.258	1357.358
-42.057	27.075	1651.719	1355.567
-41.042	26.975	1650.379	1353.670
-40.027	26.977	1648.204	1351.850
-39.013	27.053	1646.187	1350.704
-37.998	27.095	1644.132	1349.277
-36.984	27.037	1643.032	1347.889
-35.969	27.226	1641.189	1347.726
-34.954	27.259	1639.646	1346.646
-33.940	27.148	1638.176	1344.569
-32.925	27.208	1636.260	1343.381
-31.911	27.159	1634.748	1341.728
-30.896	27.162	1632.732	1340.042
-29.881	27.111	1631.429	1338.543
-28.867	27.218	1629.256	1337.493
-27.852	27.132	1628.321	1336.039
-26.838	27.176	1626.501	1334.817
-25.823	27.073	1625.438	1333.137
-24.809	27.169	1624.136	1332.719
-23.794	27.152	1622.968	1331.587
-22.779	27.207	1621.067	1330.372
-21.765	27.153	1619.325	1328.497
-20.750	27.171	1618.012	1327.498
-19.736	27.178	1616.447	1326.214
-18.721	27.213	1615.107	1325.316
-17.706	27.237	1613.758	1324.329
-16.692	27.164	1612.438	1322.662
-15.677	27.206	1610.622	1321.430
-14.663	27.303	1609.070	1320.805
-13.648	27.279	1607.733	1319.482
-12.633	27.226	1606.361	1317.919
-11.619	27.169	1605.201	1316.506
-10.604	27.241	1602.700	1314.917
-9.590	27.197	1601.978	1313.954
-8.575	27.151	1600.894	1312.686
-7.560	27.236	1599.767	1312.323
-6.546	27.174	1599.021	1311.210
-5.531	27.193	1597.542	1310.079
-4.517	27.183	1596.021	1308.708
-3.502	27.200	1595.457	1308.318
-2.487	27.297	1593.552	1307.398
-1.473	27.007	1581.806	1295.646
-0.458	24.380	1562.599	1261.312
0.556	22.990	1564.649	1231.251
1.571	20.592	1588.638	1233.037
2.586	20.056	1600.636	1238.406
3.600	17.950	1546.599	1181.936
4.615	11.215	1439.842	1056.716
5.629	5.362	1379.708	976.036
6.644	4.241	1372.528	963.906
7.659	4.247	1371.700	963.276
8.673	4.278	1370.539	962.568
9.688	4.363	1368.503	961.579
10.702	4.323	1365.964	959.463
11.717	7.061	1371.247	980.061
12.731	14.478	1384.349	1035.567
13.746	20.789	1394.502	1082.428
14.761	22.465	1396.493	1094.301
15.775	21.929	1395.185	1089.852
16.790	21.011	1392.290	1081.801
17.804	20.248	1390.448	1075.548
18.819	19.921	1389.351	1072.579
19.834	19.829	1388.182	1071.012
20.848	19.749	1387.352	1069.785
21.863	19.617	1386.021	1067.847
22.877	19.437	1385.125	1065.948
23.892	19.427	1384.180	1065.062
24.907	19.405	1383.092	1063.998
25.921	19.350	1382.355	1062.999
26.936	19.396	1381.294	1062.371
27.950	19.518	1380.173	1062.166
28.965	19.618	1379.258	1061.980
29.980	19.747	1378.203	1061.869
30.994	19.842	1377.372	1061.717
32.009	19.874	1376.355	1061.034
33.023	19.838	1375.336	1059.932
34.038	19.765	1373.851	1058.249
35.053	19.651	1372.636	1056.521
36.067	19.543	1371.678	1055.034
37.082	19.687	1370.889	1055.213
38.096	19.691	1369.850	1054.341
39.111	19.657	1369.717	1053.942
40.126	19.518	1368.788	1052.282
41.140	19.334	1366.987	1049.688
42.155	19.121	1366.444	1047.881
43.169	19.148	1366.034	1047.640
44.184	19.109	1365.841	1047.160
45.199	19.203	1365.551	1047.416
46.213	19.267	1365.551	1047.715
47.228	19.534	1364.470	1048.412
48.242	19.641	1363.596	1048.298
49.257	19.519	1361.828	1046.103
50.271	19.592	1359.953	1045.017
51.286	19.497	1359.542	1044.030
52.301	19.540	1357.927	1042.961
53.315	19.265	1357.556	1040.920
54.330	19.316	1355.576	1039.620
55.344	19.218	1354.510	1038.119
56.359	19.220	1353.147	1036.995
57.374	19.105	1352.764	1035.919
58.388	19.075	1351.906	1034.989
59.403	19.018	1351.435	1034.195
60.417	18.967	1350.866	1033.361
61.432	19.027	1349.681	1032.720
62.447	18.926	1348.416	1031.055
63.461	18.857	1347.333	1029.722
64.476	18.794	1346.590	1028.690
65.490	18.848	1344.818	1027.565
66.505	18.909	1343.400	1026.754
67.520	18.876	1342.307	1025.634
68.534	18.880	1341.752	1025.141
69.549	18.916	1340.626	1024.408
70.563	18.815	1339.696	1023.001
71.578	18.680	1337.867	1020.711
72.593	18.691	1337.167	1020.157
73.607	18.584	1337.201	1019.454
74.622	18.545	1336.517	1018.610
75.636	18.766	1335.419	1018.998
76.651	18.740	1334.624	1018.142
77.666	18.769	1334.278	1017.962
78.680	18.841	1334.088	1018.155
79.695	18.910	1333.108	1017.725
80.709	18.990	1332.524	1017.663
81.724	19.153	1331.778	1017.965
82.739	19.221	1331.044	1017.715
83.753	19.420	1330.794	1018.608
84.768	19.567	1329.478	1018.381
85.782	19.599	1328.588	1017.793
86.797	19.686	1327.212	1017.165
87.812	19.607	1325.493	1015.295
88.826	19.449	1325.138	1014.002
89.841	19.587	1323.538	1013.499
90.855	19.651	1323.173	1013.507
91.870	19.697	1322.152	1012.901
92.884	19.829	1321.347	1012.971
93.899	19.809	1320.432	1012.061
94.914	19.916	1319.841	1012.141
95.928	19.831	1318.666	1010.659
96.943	19.721	1317.937	1009.366
97.957	19.640	1317.096	1008.158
98.972	19.652	1316.103	1007.380
99.987	19.762	1314.790	1006.925
101.001	19.763	1313.869	1006.136
102.016	19.678	1313.323	1005.138
103.030	19.752	1312.356	1004.738
104.045	19.732	1311.380	1003.787
105.060	19.521	1310.046	1001.451
106.074	19.188	1308.663	998.375
107.089	19.067	1306.440	995.893
108.103	18.823	1305.909	993.987
109.118	18.913	1304.295	993.191
110.133	18.819	1303.216	991.738
111.147	18.922	1301.641	991.044
112.162	18.915	1300.301	989.901
113.176	19.022	1299.624	989.909
114.191	19.184	1298.588	989.966
115.206	19.138	1297.782	989.001
116.220	19.145	1295.806	987.448
117.235	19.028	1295.185	986.217
118.249	19.035	1293.778	985.097
119.264	18.957	1292.873	983.874
120.279	18.882	1291.900	982.618
121.293	18.821	1290.744	981.303
122.308	18.714	1289.510	979.665
123.322	18.694	1288.430	978.648
124.337	18.674	1287.731	977.913
125.352	18.686	1286.362	976.860
126.366	18.561	1285.299	975.250
127.381	18.557	1284.400	974.462
128.395	18.486	1283.707	973.447
129.410	18.741	1282.611	973.976
130.424	18.803	1282.381	974.066
131.439	18.926	1281.131	973.727
132.454	18.990	1280.346	973.409
133.468	19.049	1279.294	972.852
134.483	19.091	1278.813	972.640
135.497	18.997	1278.438	971.738
136.512	19.015	1277.017	970.673
137.527	19.108	1274.925	969.523
138.541	19.129	1273.857	968.741
139.556	19.292	1272.993	968.916
140.570	19.299	1272.074	968.167
141.585	19.398	1270.867	967.719
142.600	19.467	1270.242	967.547
143.614	19.604	1269.571	967.720
144.629	19.771	1268.122	967.461
145.643	19.609	1267.375	965.902
146.658	19.516	1265.792	964.091
147.673	19.198	1264.202	961.018
148.687	19.167	1262.596	959.541
149.702	19.126	1261.029	958.036
150.716	19.027	1260.191	956.763
151.731	19.127	1258.599	956.026
152.746	19.092	1257.680	955.050
153.760	19.155	1256.955	954.763
154.775	19.348	1255.545	954.677
155.789	19.324	1254.971	954.022
156.804	19.339	1253.893	953.204
157.819	19.376	1253.191	952.789
158.833	19.556	1252.683	953.314
159.848	19.765	1251.615	953.566
160.862	19.631	1251.158	952.397
161.877	19.285	1249.022	948.783
162.892	19.158	1248.196	947.374
163.906	19.050	1246.837	945.661
164.921	19.048	1245.961	944.905
165.935	19.176	1245.741	945.353
166.950	19.352	1244.819	945.535
167.964	19.316	1243.759	944.453
168.979	19.271	1243.414	943.861
169.994	19.300	1242.327	943.110
171.008	19.198	1241.808	942.076
172.023	19.531	1241.014	943.206
173.037	19.564	1240.858	943.184
174.052	19.638	1239.520	942.492
175.067	19.296	1238.240	939.569
176.081	19.229	1236.938	938.133
177.096	19.108	1236.025	936.698
178.110	19.114	1235.210	936.034
179.125	19.276	1234.027	935.929
180.140	19.309	1232.520	934.886
181.154	19.389	1231.659	934.585
182.169	19.538	1230.853	934.694
183.183	19.723	1229.562	934.631
184.198	19.671	1228.778	933.672
185.213	19.610	1227.693	932.436
186.227	19.632	1226.749	931.757
187.242	19.677	1225.782	931.180
188.256	19.938	1224.705	931.687
189.271	19.885	1223.928	930.726
190.286	19.614	1222.760	928.298
191.300	19.207	1221.423	925.017
192.315	18.946	1220.355	922.726
193.329	19.260	1219.946	924.021
194.344	19.332	1219.596	924.058
195.359	19.414	1218.667	923.715
196.373	19.380	1218.657	923.441
197.388	19.579	1218.051	923.966
198.402	19.840	1218.097	925.315
199.417	19.942	1217.664	925.450
200.432	19.996	1216.925	925.094
201.446	20.119	1215.932	924.912
202.461	20.128	1215.285	924.388
203.475	20.107	1214.469	923.573
204.490	19.901	1212.494	920.896
205.504	19.788	1211.130	919.176
206.519	19.726	1209.899	917.831
207.534	19.747	1208.986	917.169
208.548	19.611	1208.326	915.867
209.563	19.753	1207.058	915.574
210.577	19.645	1206.601	914.577
211.592	19.829	1205.480	914.620
212.607	20.029	1204.788	915.072
213.621	19.940	1203.919	913.857
214.636	19.996	1202.719	913.164
215.650	19.930	1202.222	912.355
216.665	20.041	1201.367	912.213
217.680	20.213	1200.764	912.577
218.694	20.204	1199.688	911.630
219.709	20.171	1199.001	910.855
220.723	20.082	1198.016	909.560
221.738	20.169	1197.176	909.299
222.753	20.090	1196.690	908.433
223.767	20.075	1196.316	907.993
224.782	20.287	1195.631	908.501
225.796	20.367	1195.337	908.619
226.811	20.353	1194.119	907.535
227.826	20.170	1193.364	905.925
228.840	20.022	1192.768	904.622
229.855	19.984	1191.814	903.618
230.869	20.045	1190.935	903.189
231.884	20.035	1189.658	902.091
232.899	19.856	1189.346	900.843
233.913	19.787	1188.538	899.791
234.928	19.759	1187.637	898.885
235.942	19.796	1186.690	898.281
236.957	19.731	1186.065	897.388
237.972	19.747	1185.297	896.811
238.986	19.836	1184.268	896.417
240.001	19.760	1184.024	895.760
241.015	19.952	1182.686	895.658
242.030	19.993	1182.474	895.633
243.045	19.990	1182.059	895.221
244.059	19.977	1181.452	894.618
245.074	20.267	1180.104	895.014
246.088	20.125	1179.804	893.976
247.103	20.212	1179.128	893.831
248.117	20.408	1178.407	894.216
249.132	20.628	1177.809	894.814
250.147	20.826	1177.607	895.600
251.161	20.948	1176.996	895.681
252.176	21.016	1176.366	895.475
253.190	21.058	1175.690	895.097
254.205	21.206	1174.712	895.028
255.220	21.114	1174.468	894.292
256.234	20.986	1173.564	892.870
257.249	21.167	1172.418	892.843
258.263	21.022	1172.383	891.998
259.278	21.006	1171.748	891.355
260.293	20.971	1171.572	890.961
261.307	21.220	1170.348	891.221
262.322	21.218	1170.163	890.994
263.336	21.205	1169.291	890.183
264.351	21.208	1168.401	889.445
265.366	21.237	1168.000	889.209
266.380	21.271	1167.575	888.976
267.395	21.111	1166.490	887.263
268.409	21.032	1165.046	885.683
269.424	20.953	1165.048	885.202
270.439	20.925	1164.203	884.341
271.453	20.900	1163.358	883.496
272.468	20.790	1161.894	881.747
273.482	20.769	1161.416	881.201
274.497	20.809	1160.968	880.984
275.512	20.769	1160.470	880.328
276.526	20.814	1159.569	879.792
277.541	20.888	1158.708	879.438
278.555	20.832	1158.490	878.909
279.570	21.058	1157.956	879.566
280.585	21.168	1157.160	879.439
281.599	21.191	1156.255	878.786
282.614	21.063	1155.207	877.271
283.628	20.981	1153.397	875.408
284.643	21.042	1152.481	874.939
285.657	20.927	1151.925	873.862
286.672	20.951	1150.600	872.900
287.687	21.071	1149.885	872.881
288.701	20.965	1149.419	871.921
289.716	21.000	1148.968	871.679
290.730	21.012	1148.008	870.931
291.745	20.962	1147.947	870.559
292.760	21.146	1146.908	870.613
293.774	21.156	1146.354	870.161
294.789	21.294	1146.251	870.698
295.803	21.296	1145.491	870.052
296.818	21.048	1144.171	867.741
297.833	21.118	1142.976	867.102
298.847	21.062	1142.646	866.496
299.862	21.085	1141.506	865.672
300.876	21.115	1141.241	865.543
301.891	21.125	1140.767	865.156
302.906	21.411	1140.177	866.049
303.920	21.441	1139.905	865.912
304.935	21.561	1139.074	865.799
305.949	21.683	1138.486	865.882
306.964	21.690	1137.893	865.388
307.979	21.414	1137.482	863.636
308.993	21.400	1136.694	862.889
310.008	21.589	1135.633	862.941
311.022	21.617	1134.764	862.341
312.037	21.645	1133.562	861.490
313.052	21.381	1132.905	859.614
314.066	21.321	1131.720	858.344
315.081	20.891	1130.655	855.354
316.095	20.970	1129.875	855.075
317.110	20.917	1129.126	854.172
318.125	21.033	1128.484	854.179
319.139	21.032	1127.449	853.317
320.154	21.174	1127.136	853.694
321.168	21.124	1126.239	852.697
322.183	21.156	1125.714	852.383
323.197	21.184	1125.219	852.067
324.212	21.219	1124.761	851.813
325.227	21.205	1124.056	851.136
326.241	21.310	1123.452	851.115
327.256	21.194	1122.544	849.787
328.270	21.253	1121.483	849.195
329.285	21.123	1120.821	847.989
330.300	21.179	1120.192	847.710
331.314	21.099	1118.887	846.261
332.329	21.183	1117.792	845.766
333.343	21.256	1117.298	845.671
334.358	21.556	1116.264	846.260
335.373	21.430	1115.898	845.302
336.387	21.447	1115.552	845.048
337.402	21.466	1114.693	844.410
338.416	21.594	1114.111	844.511
339.431	21.703	1113.524	844.520
340.446	21.796	1112.656	844.234
341.460	21.923	1112.164	844.397
342.475	21.987	1111.512	844.136
343.489	22.108	1110.555	843.914
344.504	22.111	1109.821	843.297
345.519	22.165	1108.817	842.721
346.533	22.228	1108.184	842.467
347.548	22.345	1107.244	842.238
348.562	22.172	1106.745	840.953
349.577	22.018	1105.468	839.173
350.592	21.715	1104.355	836.808
351.606	21.607	1103.860	835.844
352.621	21.559	1103.193	835.037
353.635	21.623	1102.277	834.574
354.650	21.596	1101.723	833.952
355.665	21.549	1100.974	833.087
356.679	21.668	1100.759	833.416
357.694	21.748	1100.189	833.292
358.708	21.945	1099.339	833.508
359.723	21.947	1099.077	833.246
360.738	21.871	1098.203	832.150
361.752	21.872	1097.620	831.637
362.767	21.828	1097.192	831.030
363.781	21.973	1096.120	830.832
364.796	22.103	1095.924	831.227
365.810	22.170	1095.644	831.258
366.825	22.391	1094.805	831.590
367.840	22.535	1094.822	832.210
368.854	22.581	1094.122	831.823
369.869	22.439	1093.257	830.424
370.883	22.420	1092.192	829.451
371.898	22.275	1091.264	827.989
372.913	22.306	1090.842	827.740
373.927	22.378	1090.442	827.705
374.942	22.467	1089.830	827.585
375.956	22.400	1089.466	826.920
376.971	22.359	1088.554	825.963
377.986	22.471	1088.300	826.220
379.000	22.589	1087.856	826.366
380.015	22.709	1087.253	826.394
381.029	22.676	1086.251	825.404
382.044	22.727	1086.115	825.468
383.059	22.614	1085.020	824.036
384.073	22.548	1084.431	823.207
385.088	22.612	1083.666	822.851
386.102	22.571	1082.492	821.698
387.117	22.407	1081.346	819.990
388.132	22.249	1080.179	818.296
389.146	22.260	1079.462	817.734
390.161	22.186	1078.745	816.774
391.175	22.296	1077.601	816.346
392.190	22.521	1077.022	816.879
393.205	22.627	1076.971	817.257
394.219	22.560	1075.898	816.060
395.234	22.349	1075.090	814.401
396.248	22.371	1073.950	813.567
397.263	22.312	1072.997	812.500
398.278	22.117	1072.547	811.189
399.292	21.982	1071.700	809.852
400.307	22.124	1070.620	809.620
401.321	22.024	1070.492	808.992
402.336	21.988	1069.486	807.993
403.350	22.102	1068.788	807.919
404.365	22.086	1068.307	807.409
405.380	22.372	1067.086	807.727
406.394	22.416	1066.398	807.334
407.409	22.586	1066.129	807.840
408.423	22.601	1065.702	807.513
409.438	22.832	1064.759	807.786
410.453	22.915	1064.259	807.713
411.467	22.997	1063.475	807.422
412.482	22.802	1063.444	806.435
413.496	22.937	1062.885	806.556
414.511	23.050	1062.216	806.493
415.526	23.146	1061.932	806.645
416.540	23.171	1061.718	806.526
417.555	23.204	1060.723	805.850
418.569	23.103	1059.692	804.536
419.584	23.023	1059.365	803.852
420.599	23.068	1059.039	803.739
421.613	157.303	1403.265	1795.470
422.628	144.640	1453.371	1795.569
