DTS Sentinel unit serial number:	SN413079Multiplexer serial number:	ORYXHardware model number:	OX4-SRSoftware version number:	ORYX F/W v4.00 Oryx Data Collector v3.7.2.0data status	okinstallation	princeton_trtdifferential loss correction	single-endedforward channel	channel 2reverse channel	N/Adate	2019/09/16time	01:55:35forward acquisition time	60.00reverse acquisition time	0.00gamma	496.2192k internal	0.2336k external	0.2336temperature offset calibration	0.9967default loss term (dB/km)	0.3790temperature slope calibration	1.0000multiplexer offset coefficient	1.0000multiplexer slope coefficient	1.0000fibre end	0.00T internal ref (°C)	27.41T ext. ref 1 (°C)	10.06T ext. ref 2 (°C)	22.32length (m)	temperature (°C)	Stokes	anti-Stokes-747.200	-200.000	0.028	0.195
-746.185	-200.000	-0.053	0.304
-745.171	-75.212	0.139	-0.050
-744.156	297.936	-0.172	0.318
-743.142	-200.000	-0.016	0.223
-742.127	23.143	0.175	0.145
-741.112	42.326	0.108	0.099
-740.098	48.672	-0.450	0.423
-739.083	80.583	0.109	0.118
-738.069	-35.903	-0.107	0.058
-737.054	37.451	0.280	-0.249
-736.039	-73.920	-0.045	-0.016
-735.025	-82.654	0.252	0.082
-734.010	-0.667	-0.125	0.089
-732.996	370.634	-0.044	0.089
-731.981	-167.758	-0.237	-0.009
-730.966	-200.000	0.020	0.120
-729.952	-128.275	0.157	-0.022
-728.937	800.000	-0.097	0.312
-727.923	-86.484	-0.173	0.053
-726.908	800.000	0.035	-0.141
-725.894	82.541	0.260	0.283
-724.879	82.110	-0.227	-0.247
-723.864	-136.779	-0.163	-0.019
-722.850	-93.701	-0.127	0.035
-721.835	800.000	-0.080	0.264
-720.821	-96.702	-0.165	0.044
-719.806	146.055	-0.032	-0.042
-718.791	-89.724	0.036	-0.010
-717.777	-111.957	0.334	0.068
-716.762	461.085	-0.131	-0.294
-715.748	-200.000	-0.005	-0.163
-714.733	-38.156	0.120	-0.064
-713.718	55.947	-0.030	-0.029
-712.704	800.000	-0.038	0.108
-711.689	-78.821	-0.143	0.049
-710.675	-65.548	-0.185	-0.075
-709.660	-200.000	0.004	-0.075
-708.645	-90.022	-0.249	0.073
-707.631	-73.053	0.254	0.094
-706.616	-82.885	0.199	-0.064
-705.602	-133.480	-0.129	-0.016
-704.587	253.807	-0.063	-0.109
-703.572	-83.262	-0.258	-0.083
-702.558	27.981	-0.085	0.072
-701.543	418.072	0.167	-0.359
-700.529	800.000	-0.041	0.142
-699.514	-105.505	0.338	0.077
-698.499	-200.000	0.010	0.230
-697.485	221.629	-0.116	-0.187
-696.470	-34.538	0.154	-0.085
-695.456	305.991	-0.119	-0.221
-694.441	-200.000	0.022	-0.127
-693.426	800.000	0.097	-0.299
-692.412	184.972	-0.182	-0.270
-691.397	-169.246	-0.166	-0.006
-690.383	384.683	-0.062	0.128
-689.368	553.689	-0.203	-0.488
-688.354	219.633	0.011	0.017
-687.339	312.673	0.098	0.185
-686.324	-58.528	-0.132	0.058
-685.310	18.754	-0.051	-0.041
-684.295	-200.000	0.004	-0.290
-683.281	-14.160	-0.142	0.092
-682.266	-83.897	0.182	0.058
-681.251	101.585	0.173	0.201
-680.237	-145.050	-0.249	0.023
-679.222	-200.000	-0.000	0.026
-678.208	276.681	0.174	-0.309
-677.193	800.000	-0.075	-0.270
-676.178	12.711	0.086	0.067
-675.164	800.000	-0.047	0.188
-674.149	-128.543	0.260	-0.037
-673.135	-110.777	0.343	-0.071
-672.120	45.504	-0.096	-0.088
-671.105	-200.000	-0.015	0.211
-670.091	73.688	-0.064	0.067
-669.076	-116.955	0.244	-0.045
-668.062	-200.000	-0.013	-0.091
-667.047	-128.149	-0.383	-0.055
-666.032	-200.000	0.026	0.263
-665.018	135.138	0.118	-0.153
-664.003	125.796	0.078	0.098
-662.989	-4.112	-0.242	0.168
-661.974	-200.000	0.013	0.080
-660.959	800.000	-0.066	-0.202
-659.945	-191.771	0.157	0.002
-658.930	38.021	-0.149	-0.133
-657.916	-200.000	-0.006	-0.107
-656.901	344.026	0.057	-0.112
-655.886	237.827	-0.191	-0.318
-654.872	-54.295	0.263	0.119
-653.857	39.867	0.046	-0.041
-652.843	-90.791	-0.326	0.094
-651.828	-123.401	-0.208	-0.033
-650.814	88.283	0.202	-0.224
-649.799	-118.186	0.272	0.049
-648.784	-97.567	-0.136	-0.035
-647.770	800.000	-0.099	-0.410
-646.755	-89.612	0.175	0.051
-645.741	-104.070	-0.175	0.041
-644.726	-31.262	0.420	-0.237
-643.711	-149.182	0.138	0.011
-642.697	-200.000	0.003	0.274
-641.682	37.896	0.294	0.261
-640.668	715.883	0.103	-0.274
-639.653	-121.298	-0.145	0.024
-638.638	65.331	-0.121	-0.122
-637.624	4.549	-0.132	-0.097
-636.609	-145.348	0.151	0.014
-635.595	224.816	-0.095	-0.154
-634.580	126.951	-0.202	-0.257
-633.565	-153.595	0.358	-0.025
-632.551	216.646	-0.173	-0.275
-631.536	-84.759	0.186	-0.058
-630.522	51.745	0.164	-0.156
-629.507	-200.000	-0.023	-0.120
-628.492	-62.835	-0.140	0.058
-627.478	-107.061	-0.062	-0.014
-626.463	26.528	0.116	-0.097
-625.449	-49.318	-0.039	-0.019
-624.434	800.000	-0.040	0.128
-623.419	18.516	-0.090	-0.072
-622.405	132.380	0.317	-0.408
-621.390	-200.000	0.040	0.402
-620.376	-136.759	-0.293	-0.034
-619.361	139.157	0.101	-0.132
-618.346	-200.000	-0.058	0.295
-617.332	36.709	0.065	0.058
-616.317	-200.000	-0.005	-0.320
-615.303	800.000	-0.087	-0.284
-614.288	-181.037	0.071	0.001
-613.273	-200.000	-0.028	-0.423
-612.259	-55.286	-0.119	-0.053
-611.244	-50.018	-0.291	0.138
-610.230	-200.000	0.034	0.164
-609.215	-200.000	0.013	-0.234
-608.201	48.022	-0.082	-0.076
-607.186	4.196	0.134	0.098
-606.171	-70.201	0.121	0.046
-605.157	-148.065	0.171	-0.014
-604.142	-169.456	-0.084	0.003
-603.128	-126.239	-0.288	-0.043
-602.113	-21.341	-0.049	-0.030
-601.098	-200.000	-0.004	0.075
-600.084	-13.832	0.238	-0.154
-599.069	-103.469	0.144	0.034
-598.055	-135.050	0.412	-0.050
-597.040	89.704	0.170	-0.190
-596.025	154.556	-0.190	0.261
-595.011	-102.614	-0.334	0.080
-593.996	142.463	0.094	0.125
-592.982	241.058	-0.049	0.081
-591.967	143.078	-0.151	0.201
-590.952	800.000	0.027	-0.081
-589.938	-200.000	-0.019	-0.230
-588.923	-200.000	-0.041	-0.350
-587.909	800.000	-0.060	-0.238
-586.894	-65.808	-0.107	0.043
-585.879	60.391	0.119	0.118
-584.865	-191.709	-0.082	0.001
-583.850	-156.927	0.229	-0.014
-582.836	24.380	-0.013	0.011
-581.821	800.000	-0.135	-0.502
-580.806	-107.340	-0.297	-0.065
-579.792	10.564	-0.133	-0.101
-578.777	-159.454	-0.284	-0.016
-577.763	-55.829	0.039	-0.017
-576.748	-23.475	0.200	-0.120
-575.733	181.620	0.217	0.319
-574.719	-138.269	0.026	-0.003
-573.704	356.289	-0.081	0.161
-572.690	-53.540	-0.236	-0.108
-571.675	-61.119	0.207	0.087
-570.661	-108.813	0.355	-0.076
-569.646	-44.915	-0.336	0.167
-568.631	-65.081	0.100	-0.040
-567.617	-116.878	-0.312	-0.057
-566.602	-85.946	0.204	-0.063
-565.588	48.044	-0.071	-0.066
-564.573	-102.105	-0.231	-0.055
-563.558	800.000	-0.072	0.306
-562.544	-68.197	-0.164	-0.064
-561.529	255.422	-0.021	0.036
-560.515	-98.436	-0.114	-0.029
-559.500	-2.482	-0.231	-0.162
-558.485	-36.045	-0.219	-0.118
-557.471	-145.221	-0.158	-0.014
-556.456	223.603	0.191	-0.307
-555.442	800.000	-0.016	-0.057
-554.427	-66.728	-0.184	-0.073
-553.412	-67.493	0.187	0.073
-552.398	-200.000	0.003	-0.094
-551.383	-200.000	-0.039	-0.214
-550.369	-111.406	-0.114	0.023
-549.354	-89.716	0.147	-0.043
-548.339	-100.579	0.171	0.042
-547.325	152.903	-0.121	-0.165
-546.310	266.449	0.162	-0.282
-545.296	800.000	0.031	0.117
-544.281	-22.146	0.139	0.084
-543.266	131.585	-0.125	-0.160
-542.252	-200.000	0.033	-0.204
-541.237	-42.715	0.306	-0.155
-540.223	321.102	0.034	-0.065
-539.208	-148.218	-0.398	0.033
-538.193	164.589	-0.180	0.253
-537.179	-77.844	-0.111	0.038
-536.164	800.000	-0.046	-0.174
-535.150	-200.000	0.075	-0.334
-534.135	263.286	-0.024	0.042
-533.121	-94.722	-0.196	-0.053
-532.106	-200.000	0.009	-0.338
-531.091	105.433	-0.037	-0.043
-530.077	174.268	-0.158	0.227
-529.062	169.165	0.100	0.143
-528.048	40.440	-0.058	0.052
-527.033	-200.000	0.015	-0.130
-526.018	157.483	0.093	0.129
-525.004	-41.476	-0.045	0.023
-523.989	-156.884	0.254	-0.016
-522.975	0.895	0.201	-0.143
-521.960	-88.824	0.219	-0.065
-520.945	28.378	0.105	-0.088
-519.931	800.000	0.081	0.236
-518.916	-108.958	-0.167	-0.035
-517.902	-200.000	-0.017	-0.434
-516.887	345.260	0.057	-0.112
-515.872	-142.700	0.231	-0.022
-514.858	-36.050	-0.228	0.122
-513.843	-18.757	-0.073	-0.045
-512.829	154.614	-0.119	0.163
-511.814	-144.037	0.118	0.011
-510.799	84.067	-0.117	-0.127
-509.785	28.104	-0.074	0.062
-508.770	-200.000	0.010	-0.096
-507.756	-93.379	-0.194	0.054
-506.741	295.587	-0.083	-0.151
-505.726	-75.754	-0.212	0.075
-504.712	249.823	-0.242	-0.408
-503.697	73.377	-0.070	0.073
-502.683	-142.929	-0.073	-0.007
-501.668	800.000	0.013	-0.041
-500.653	800.000	0.095	0.353
-499.639	75.471	0.176	0.185
-498.624	-200.000	0.059	-0.393
-497.610	-200.000	-0.028	-0.139
-496.595	-106.736	-0.164	-0.036
-495.581	-200.000	0.033	-0.360
-494.566	158.968	-0.043	-0.059
-493.551	-200.000	0.037	-0.230
-492.537	400.117	-0.099	0.207
-491.522	-94.635	0.246	0.067
-490.508	800.000	0.035	0.141
-489.493	-97.364	-0.036	0.009
-488.478	607.813	0.146	-0.362
-487.464	-96.923	-0.096	-0.025
-486.449	-25.835	-0.049	-0.029
-485.435	800.000	0.031	-0.088
-484.420	-80.248	0.232	-0.077
-483.405	166.557	-0.026	0.036
-482.391	-88.166	0.421	0.125
-481.376	-43.061	-0.419	-0.211
-480.362	-140.489	0.270	-0.028
-479.347	-200.000	-0.001	-0.213
-478.332	572.054	0.096	0.234
-477.318	-1.287	-0.283	0.199
-476.303	-41.539	-0.305	-0.156
-475.289	-139.175	-0.125	-0.013
-474.274	-200.000	-0.012	-0.319
-473.259	-200.000	-0.029	0.156
-472.245	-64.832	0.170	0.068
-471.230	-200.000	-0.010	0.263
-470.216	-6.144	-0.147	0.100
-469.201	-200.000	0.058	0.292
-468.186	-200.000	-0.046	-0.383
-467.172	-200.000	0.039	-0.267
-466.157	215.356	-0.118	0.187
-465.143	-200.000	0.009	-0.201
-464.128	-22.136	-0.252	0.152
-463.113	-82.708	-0.233	0.075
-462.099	-122.260	-0.263	-0.043
-461.084	-49.372	0.188	-0.089
-460.070	224.545	-0.049	-0.079
-459.055	24.174	0.224	0.184
-458.040	-200.000	-0.009	-0.232
-457.026	348.500	-0.154	-0.301
-456.011	-200.000	0.011	0.062
-454.997	37.222	0.284	-0.250
-453.982	-98.323	0.217	0.055
-452.968	27.661	0.322	0.269
-451.953	105.310	0.061	0.072
-450.938	87.129	-0.177	-0.194
-449.924	-122.122	0.161	-0.026
-448.909	78.770	-0.163	-0.174
-447.895	-82.197	-0.125	-0.040
-446.880	6.834	0.160	0.118
-445.865	228.393	0.095	-0.153
-444.851	278.652	-0.163	0.289
-443.836	-196.117	-0.377	0.003
-442.822	-200.000	-0.015	-0.226
-441.807	105.950	0.088	0.103
-440.792	-27.868	-0.178	-0.102
-439.778	312.267	0.141	0.263
-438.763	-22.810	-0.203	0.121
-437.749	7.828	0.131	0.097
-436.734	458.899	0.052	0.114
-435.719	-14.961	-0.193	0.123
-434.705	-106.936	-0.040	-0.009
-433.690	9.165	0.048	0.036
-432.676	-39.250	0.218	-0.114
-431.661	-157.606	-0.272	0.016
-430.646	191.960	0.145	0.217
-429.632	-198.013	0.117	0.001
-428.617	-200.000	0.000	-0.166
-427.603	-86.022	-0.284	0.087
-426.588	-5.692	0.280	-0.190
-425.573	-29.792	0.438	0.248
-424.559	-167.651	-0.299	-0.012
-423.544	-111.838	-0.284	-0.057
-422.530	174.881	0.144	0.207
-421.515	-120.196	-0.246	0.042
-420.500	26.897	0.198	0.165
-419.486	-55.011	-0.484	0.216
-418.471	-8.153	-0.119	0.080
-417.457	800.000	0.060	-0.229
-416.442	800.000	-0.042	0.125
-415.428	350.461	0.064	0.125
-414.413	-61.004	0.059	0.025
-413.398	434.612	-0.084	-0.181
-412.384	273.473	-0.065	0.114
-411.369	-200.000	-0.020	0.157
-410.355	-200.000	0.004	-0.240
-409.340	52.773	0.240	0.227
-408.325	-200.000	-0.003	0.110
-407.311	48.641	0.081	0.075
-406.296	-56.744	-0.165	-0.072
-405.282	-200.000	0.025	-0.203
-404.267	734.583	0.140	-0.373
-403.252	263.612	-0.162	-0.279
-402.238	134.699	-0.109	-0.140
-401.223	800.000	0.057	0.165
-400.209	431.016	0.011	0.023
-399.194	-14.629	-0.114	0.073
-398.179	18.659	0.226	0.179
-397.165	280.293	-0.020	0.035
-396.150	-88.255	-0.068	-0.020
-395.136	137.975	-0.112	-0.146
-394.121	-51.737	-0.184	-0.085
-393.106	-89.924	0.290	-0.084
-392.092	800.000	0.021	-0.077
-391.077	130.265	0.240	0.304
-390.063	52.242	-0.119	0.113
-389.048	-64.709	0.296	0.119
-388.033	-26.035	-0.264	0.154
-387.019	-134.457	0.248	0.030
-386.004	-66.279	-0.302	0.119
-384.990	-146.463	0.120	0.010
-383.975	-200.000	0.021	0.100
-382.960	0.312	0.080	0.057
-381.946	551.516	0.104	0.247
-380.931	-110.133	-0.222	0.046
-379.917	-38.986	0.181	0.094
-378.902	800.000	0.079	-0.253
-377.888	-157.192	0.384	-0.023
-376.873	-200.000	-0.029	-0.192
-375.858	440.796	0.119	0.258
-374.844	800.000	0.086	-0.275
-373.829	-116.887	-0.135	-0.024
-372.815	314.923	0.038	-0.070
-371.800	167.656	0.179	0.252
-370.785	-45.137	-0.476	0.234
-369.771	-79.487	0.432	0.145
-368.756	545.136	-0.089	0.210
-367.742	-84.271	-0.108	-0.034
-366.727	-138.414	-0.319	-0.035
-365.712	217.111	-0.089	-0.140
-364.698	395.600	-0.090	0.185
-363.683	-47.658	-0.206	-0.099
-362.669	42.232	0.276	-0.248
-361.654	-109.881	-0.319	0.066
-360.639	800.000	0.091	-0.257
-359.625	-28.540	-0.386	-0.220
-358.610	-139.467	-0.152	0.016
-357.596	-76.737	0.137	-0.047
-356.581	110.415	-0.132	-0.157
-355.566	800.000	0.066	0.275
-354.552	-95.451	0.086	0.023
-353.537	800.000	-0.050	0.214
-352.523	-84.744	0.327	-0.102
-351.508	-112.363	-0.311	-0.062
-350.493	49.066	0.228	-0.212
-349.479	-30.570	-0.187	-0.105
-348.464	285.374	0.060	-0.107
-347.450	157.156	0.073	-0.100
-346.435	60.412	0.217	-0.213
-345.420	12.153	-0.139	0.106
-344.406	-119.676	-0.180	-0.031
-343.391	-200.000	-0.011	0.229
-342.377	691.629	-0.125	0.324
-341.362	495.515	0.062	-0.141
-340.348	-74.998	-0.467	0.165
-339.333	-18.650	-0.175	0.108
-338.318	-40.330	-0.155	0.080
-337.304	800.000	-0.037	-0.126
-336.289	-43.082	0.067	0.033
-335.275	-123.956	-0.195	-0.030
-334.260	79.635	0.012	-0.013
-333.245	-99.181	0.071	0.018
-332.231	-95.982	0.066	0.017
-331.216	-200.000	-0.026	0.224
-330.202	125.862	-0.117	-0.146
-329.187	290.020	-0.028	-0.051
-328.172	-200.000	-0.039	-0.178
-327.158	-200.000	0.043	-0.189
-326.143	-0.960	0.132	-0.092
-325.129	-29.588	0.397	-0.224
-324.114	141.722	-0.331	-0.433
-323.099	239.329	-0.089	0.146
-322.085	-120.631	0.064	0.011
-321.070	-86.336	0.149	0.045
-320.056	-121.537	-0.128	-0.021
-319.041	248.666	0.083	-0.139
-318.026	65.603	0.146	0.146
-317.012	188.576	0.106	-0.156
-315.997	348.026	0.051	-0.099
-314.983	-159.868	0.417	-0.023
-313.968	69.213	-0.168	0.171
-312.953	-200.000	-0.058	-0.337
-311.939	-26.171	0.354	0.205
-310.924	-0.431	-0.042	-0.029
-309.910	-134.989	0.283	0.034
-308.895	-200.000	0.007	-0.030
-307.880	171.675	0.019	0.026
-306.866	-200.000	0.002	-0.038
-305.851	226.709	0.120	0.192
-304.837	111.113	-0.077	0.092
-303.822	-200.000	0.022	0.161
-302.807	-200.000	0.009	0.268
-301.793	-137.211	0.140	-0.016
-300.778	800.000	-0.052	0.187
-299.764	-98.967	0.163	-0.041
-298.749	96.104	-0.142	0.160
-297.735	-179.388	-0.161	0.004
-296.720	-200.000	-0.016	0.219
-295.705	-67.399	0.249	-0.096
-294.691	-152.625	0.167	-0.012
-293.676	-200.000	0.042	0.195
-292.662	-17.804	-0.247	0.153
-291.647	-49.451	-0.500	0.235
-290.632	-19.540	-0.046	0.028
-289.618	384.507	0.059	0.119
-288.603	-112.895	0.181	0.035
-287.589	-10.658	-0.162	-0.106
-286.574	-37.681	0.189	-0.099
-285.559	800.000	-0.088	0.349
-284.545	-99.628	0.331	0.082
-283.530	-200.000	-0.079	-0.439
-282.516	-200.000	-0.008	0.235
-281.501	149.868	-0.170	0.227
-280.486	45.054	0.258	0.234
-279.472	214.969	0.057	-0.089
-278.457	800.000	-0.082	-0.275
-277.443	513.000	0.105	0.241
-276.428	8.702	0.064	0.048
-275.413	81.848	0.015	-0.017
-274.399	-90.829	0.305	-0.087
-273.384	112.023	0.216	0.258
-272.370	-52.598	-0.133	0.061
-271.355	800.000	0.043	0.122
-270.340	800.000	0.049	0.160
-269.326	56.759	-0.164	0.157
-268.311	-30.644	0.143	0.080
-267.297	155.757	0.041	-0.056
-266.282	108.538	-0.088	0.104
-265.267	-50.697	-0.192	-0.089
-264.253	-152.924	-0.325	-0.023
-263.238	102.615	0.181	0.209
-262.224	52.662	0.210	0.198
-261.209	800.000	-0.015	0.043
-260.195	-30.787	-0.285	0.159
-259.180	-159.705	0.165	-0.009
-258.165	-192.106	-0.133	0.001
-257.151	617.983	-0.044	0.110
-256.136	315.368	-0.123	-0.228
-255.122	600.689	-0.120	-0.295
-254.107	-10.458	-0.060	0.039
-253.092	199.940	0.094	-0.142
-252.078	-30.572	0.272	0.152
-251.063	-62.443	-0.075	-0.031
-250.049	-13.903	0.152	0.097
-249.034	800.000	0.089	0.297
-248.019	142.847	0.150	0.197
-247.005	-74.644	0.163	0.058
-245.990	-55.794	-0.243	0.107
-244.976	-41.916	0.177	-0.089
-243.961	-67.217	-0.194	0.075
-242.946	-71.759	0.160	0.059
-241.932	-56.991	0.261	-0.113
-240.917	277.255	-0.192	-0.336
-239.903	-105.184	-0.134	-0.030
-238.888	-66.382	-0.121	-0.047
-237.873	92.669	0.123	-0.137
-236.859	44.735	-0.172	0.156
-235.844	-200.000	0.060	0.268
-234.830	800.000	0.042	0.181
-233.815	800.000	0.009	0.032
-232.800	-200.000	-0.013	0.082
-231.786	-82.171	-0.193	-0.062
-230.771	-200.000	0.003	0.020
-229.757	-200.000	-0.022	0.154
-228.742	-200.000	0.047	0.308
-227.727	-55.110	-0.057	0.025
-226.713	216.179	-0.075	0.117
-225.698	-29.732	0.118	0.066
-224.684	-23.868	0.403	-0.237
-223.669	-10.744	-0.111	-0.072
-222.655	-70.834	0.253	-0.094
-221.640	-27.092	-0.161	0.093
-220.625	21.426	0.159	0.127
-219.611	106.885	0.219	-0.256
-218.596	-74.369	0.074	-0.026
-217.582	-200.000	0.001	0.134
-216.567	13.776	-0.219	0.168
-215.552	-139.459	-0.346	0.036
-214.538	252.348	0.086	0.144
-213.523	4.151	0.286	-0.206
-212.509	-10.670	0.152	0.099
-211.494	-74.027	0.073	0.026
-210.479	800.000	0.055	0.156
-209.465	531.149	-0.102	0.238
-208.450	-83.049	-0.125	0.040
-207.436	-200.000	-0.039	-0.289
-206.421	800.000	-0.078	0.251
-205.406	380.551	-0.167	0.337
-204.392	16.652	0.077	-0.060
-203.377	-120.253	0.320	-0.054
-202.363	737.705	0.131	0.344
-201.348	70.024	-0.166	-0.168
-200.333	57.471	-0.193	-0.185
-199.319	118.158	-0.119	0.144
-198.304	-200.000	0.039	0.192
-197.290	102.532	0.107	0.123
-196.275	-197.249	-0.348	0.002
-195.260	-65.597	0.070	-0.028
-194.246	94.533	0.127	-0.142
-193.231	-50.501	0.242	0.112
-192.217	-42.404	0.051	0.026
-191.202	-20.201	-0.244	0.147
-190.187	-26.822	-0.107	-0.062
-189.173	-37.271	0.129	-0.068
-188.158	-60.145	0.327	0.137
-187.144	11.703	0.291	0.219
-186.129	-26.837	0.301	0.173
-185.114	367.974	0.204	0.404
-184.100	800.000	-0.042	0.178
-183.085	221.590	-0.191	-0.301
-182.071	228.380	0.078	0.125
-181.056	46.980	-0.156	0.142
-180.042	96.112	-0.229	-0.257
-179.027	570.472	0.128	0.306
-178.012	-120.700	-0.295	0.049
-176.998	-136.946	0.120	0.014
-175.983	-129.017	-0.062	-0.009
-174.969	-153.218	-0.092	0.006
-173.954	-185.783	0.216	-0.003
-172.939	-200.000	0.005	0.324
-171.925	60.351	-0.059	0.057
-170.910	-126.434	0.403	-0.059
-169.896	479.615	0.127	0.282
-168.881	-66.498	-0.133	-0.052
-167.866	211.019	-0.085	-0.131
-166.852	-200.000	-0.014	-0.184
-165.837	800.000	0.042	0.133
-164.823	-87.390	0.230	-0.068
-163.808	-120.144	0.314	0.053
-162.793	-7.322	-0.202	0.134
-161.779	-83.692	0.257	0.081
-160.764	800.000	-0.070	-0.200
-159.750	-107.328	-0.365	0.079
-158.735	-103.403	-0.095	0.022
-157.720	800.000	-0.052	0.174
-156.706	555.597	0.124	-0.294
-155.691	-128.175	-0.068	0.010
-154.677	-23.596	-0.209	0.123
-153.662	-200.000	0.020	-0.154
-152.647	-200.000	0.032	-0.158
-151.633	397.598	0.153	-0.314
-150.618	-86.582	-0.191	-0.057
-149.604	-67.161	-0.136	0.052
-148.589	-104.601	-0.230	0.052
-147.574	78.476	-0.112	-0.118
-146.560	-154.324	0.439	-0.029
-145.545	5.684	0.296	0.215
-144.531	153.227	0.084	-0.112
-143.516	-32.630	0.340	0.186
-142.502	-0.631	-0.138	-0.096
-141.487	156.656	0.089	-0.121
-140.472	800.000	0.080	0.297
-139.458	-86.446	0.142	-0.043
-138.443	-200.000	-0.007	-0.145
-137.429	-28.220	-0.261	0.148
-136.414	-200.000	0.017	0.133
-135.399	-119.931	-0.308	-0.052
-134.385	800.000	0.088	-0.288
-133.370	-97.928	0.051	0.013
-132.356	-200.000	0.110	0.549
-131.341	95.515	0.055	-0.062
-130.326	-25.876	0.183	0.106
-129.312	-200.000	0.025	0.195
-128.297	-63.585	-0.245	-0.099
-127.283	-160.940	0.330	0.017
-126.268	-61.777	0.287	0.118
-125.253	357.318	-0.053	0.103
-124.239	416.526	-0.062	-0.130
-123.224	108.343	0.127	-0.148
-122.210	-6.483	0.083	0.055
-121.195	-2.823	0.151	-0.104
-120.180	1.478	-0.231	0.163
-119.166	31.167	0.299	-0.252
-118.151	-200.000	0.034	0.450
-117.137	36.405	-0.241	0.208
-116.122	800.000	-0.052	0.205
-115.107	-73.710	0.314	0.112
-114.093	-37.253	0.213	0.112
-113.078	-200.000	0.006	-0.125
-112.064	-71.865	-0.190	0.069
-111.049	17.842	-0.279	0.217
-110.034	8.955	0.352	-0.261
-109.020	1.195	0.121	0.085
-108.005	-134.479	-0.595	-0.071
-106.991	-17.849	0.055	-0.034
-105.976	-200.000	0.017	-0.151
-104.962	-200.000	-0.016	-0.365
-103.947	-14.226	0.186	-0.118
-102.932	-133.220	0.451	0.056
-101.918	-120.460	0.304	-0.051
-100.903	-59.960	0.215	0.090
-99.889	-200.000	0.013	-0.140
-98.874	162.492	0.076	0.104
-97.859	-200.000	-0.024	0.144
-96.845	-131.449	-0.420	0.054
-95.830	-11.759	0.131	-0.084
-94.816	800.000	-0.063	0.177
-93.801	163.328	0.068	-0.094
-92.786	175.245	-0.212	-0.301
-91.772	-200.000	-0.027	-0.133
-90.757	-164.245	0.233	0.010
-89.743	137.775	-0.146	0.188
-88.728	239.329	0.117	-0.191
-87.713	-98.946	-0.320	-0.079
-86.699	-200.000	-0.050	-0.295
-85.684	-200.000	0.017	-0.258
-84.670	-100.684	-0.101	-0.024
-83.655	126.440	-0.250	-0.310
-82.640	4.316	0.059	0.042
-81.626	502.306	0.077	0.175
-80.611	193.262	0.157	0.233
-79.597	800.000	0.098	-0.404
-78.582	270.633	-0.128	-0.220
-77.567	-200.000	0.003	0.089
-76.553	-114.561	-0.161	-0.030
-75.538	264.887	0.080	-0.137
-74.524	251.572	0.047	-0.078
-73.509	-200.000	0.037	-0.306
-72.494	-71.684	0.159	0.058
-71.480	-184.016	0.158	0.003
-70.465	-72.530	-0.164	0.059
-69.451	542.043	-0.114	0.267
-68.436	-87.954	0.180	-0.053
-67.422	-22.678	0.195	-0.115
-66.407	-141.825	0.464	0.045
-65.392	20.576	-0.078	0.062
-64.378	2.111	0.293	0.207
-63.363	-200.000	0.053	0.259
-62.349	517.990	-0.126	-0.289
-61.334	9.796	-0.984	-0.730
-60.319	33.897	0.390	0.332
-59.305	527.040	-0.265	-0.612
-58.290	149.143	1.022	1.352
-57.276	800.000	0.575	1.596
-56.261	-200.000	113.274	640.462
-55.246	475.093	1501.010	3313.116
-54.232	147.842	2674.011	3524.648
-53.217	97.055	2283.598	2560.531
-52.203	36.339	1897.221	1635.344
-51.188	30.441	1690.129	1412.098
-50.173	28.023	1648.832	1359.582
-49.159	49.866	1703.072	1569.756
-48.144	48.905	1717.610	1575.853
-47.130	30.132	1676.324	1398.010
-46.115	27.436	1662.236	1366.012
-45.100	27.301	1657.162	1360.784
-44.086	27.264	1654.634	1358.374
-43.071	27.223	1652.091	1355.929
-42.057	27.216	1649.630	1353.800
-41.042	27.257	1647.443	1352.259
-40.027	27.326	1645.430	1351.064
-39.013	27.232	1643.857	1349.024
-37.998	27.232	1642.318	1347.706
-36.984	27.280	1640.932	1346.867
-35.969	27.373	1639.811	1346.586
-34.954	27.416	1637.756	1345.161
-33.940	27.406	1635.961	1343.557
-32.925	27.324	1634.398	1341.615
-31.911	27.356	1632.713	1340.420
-30.896	27.374	1630.909	1339.014
-29.881	27.335	1629.265	1337.329
-28.867	27.422	1627.404	1336.381
-27.852	27.374	1625.857	1334.712
-26.838	27.421	1624.238	1333.668
-25.823	27.397	1623.037	1332.459
-24.809	27.424	1621.836	1331.617
-23.794	27.444	1620.323	1330.467
-22.779	27.470	1618.765	1329.321
-21.765	27.358	1617.737	1327.608
-20.750	27.468	1615.422	1326.458
-19.736	27.568	1614.151	1326.087
-18.721	27.415	1613.283	1324.209
-17.706	27.403	1612.229	1323.210
-16.692	27.365	1610.474	1321.435
-15.677	27.454	1608.911	1320.748
-14.663	27.578	1607.237	1320.223
-13.648	27.499	1605.903	1318.496
-12.633	27.492	1604.614	1317.338
-11.619	27.430	1602.961	1315.482
-10.604	27.461	1601.454	1314.415
-9.590	27.396	1600.523	1313.134
-8.575	27.453	1599.717	1312.826
-7.560	27.490	1597.899	1311.548
-6.546	27.502	1596.682	1310.591
-5.531	27.444	1595.761	1309.364
-4.517	27.394	1594.607	1308.003
-3.502	27.344	1594.004	1307.095
-2.487	27.555	1591.505	1306.508
-1.473	27.237	1580.141	1294.863
-0.458	24.527	1561.566	1260.490
0.556	19.486	1563.377	1232.199
1.571	17.429	1587.382	1236.080
2.586	17.119	1600.212	1243.694
3.600	16.497	1549.274	1199.582
4.615	13.640	1450.959	1104.352
5.629	10.632	1395.753	1042.931
6.644	10.130	1388.600	1034.288
7.659	10.057	1387.545	1032.945
8.673	10.047	1386.362	1031.905
9.688	10.026	1384.124	1030.016
10.702	9.822	1381.070	1026.358
11.717	11.261	1383.129	1036.956
12.731	14.593	1389.092	1062.586
13.746	17.175	1392.552	1081.601
14.761	17.438	1391.842	1082.628
15.775	16.502	1389.306	1074.613
16.790	15.608	1385.941	1066.244
17.804	14.603	1384.273	1058.497
18.819	14.220	1382.824	1054.864
19.834	13.960	1381.353	1052.003
20.848	13.593	1380.311	1048.792
21.863	13.504	1378.731	1046.935
22.877	13.230	1377.823	1044.424
23.892	13.307	1376.697	1043.962
24.907	13.226	1375.988	1042.827
25.921	13.221	1375.367	1042.227
26.936	13.266	1373.919	1041.326
27.950	13.231	1373.217	1040.478
28.965	13.408	1371.948	1040.539
29.980	13.516	1370.554	1040.066
30.994	13.642	1369.330	1039.834
32.009	13.489	1368.696	1038.301
33.023	13.545	1367.157	1037.393
34.038	13.559	1365.698	1036.284
35.053	13.429	1364.679	1034.604
36.067	13.346	1363.756	1033.300
37.082	13.374	1362.627	1032.525
38.096	13.458	1361.703	1032.257
39.111	13.404	1361.436	1031.629
40.126	13.311	1360.267	1030.074
41.140	13.260	1358.788	1028.543
42.155	13.182	1358.739	1027.926
43.169	13.192	1358.587	1027.782
44.184	13.246	1358.146	1027.696
45.199	13.182	1357.850	1026.984
46.213	13.243	1357.335	1026.879
47.228	13.390	1356.458	1027.040
48.242	13.240	1355.459	1025.261
49.257	13.342	1353.305	1024.177
50.271	13.399	1351.700	1023.223
51.286	13.379	1350.516	1022.109
52.301	13.297	1349.225	1020.540
53.315	13.307	1348.369	1019.862
54.330	13.362	1346.545	1018.730
55.344	13.251	1346.119	1017.637
56.359	13.228	1344.996	1016.552
57.374	13.242	1344.268	1016.002
58.388	13.099	1343.625	1014.545
59.403	13.272	1342.366	1014.563
60.417	13.167	1342.091	1013.626
61.432	13.147	1341.293	1012.809
62.447	13.060	1340.647	1011.702
63.461	13.130	1338.692	1010.565
64.476	12.955	1338.139	1008.982
65.490	13.071	1337.262	1008.941
66.505	13.149	1335.080	1007.687
67.520	13.041	1334.229	1006.292
68.534	13.111	1333.350	1005.971
69.549	13.115	1331.889	1004.803
70.563	13.138	1331.248	1004.370
71.578	12.978	1330.199	1002.520
72.593	13.125	1329.174	1002.547
73.607	12.964	1328.625	1001.067
74.622	13.030	1327.934	1000.860
75.636	13.101	1327.138	1000.599
76.651	13.080	1326.662	1000.024
77.666	12.991	1325.906	998.830
78.680	13.122	1325.258	999.043
79.695	13.051	1324.610	998.039
80.709	13.214	1323.398	998.019
81.724	13.102	1322.783	996.794
82.739	13.225	1322.030	996.878
83.753	13.226	1321.096	996.095
84.768	13.330	1319.845	995.692
85.782	13.406	1318.848	995.307
86.797	13.451	1317.222	994.262
87.812	13.305	1316.440	992.709
88.826	13.299	1315.171	991.628
89.841	13.274	1314.532	990.903
90.855	13.383	1313.024	990.331
91.870	13.357	1312.399	989.616
92.884	13.380	1311.608	989.076
93.899	13.335	1310.903	988.184
94.914	13.431	1310.284	988.206
95.928	13.456	1308.981	987.284
96.943	13.422	1308.129	986.352
97.957	13.450	1307.300	985.807
98.972	13.427	1305.891	984.520
99.987	13.435	1304.731	983.607
101.001	13.468	1304.074	983.219
102.016	13.366	1303.143	981.825
103.030	13.358	1302.241	981.010
104.045	13.433	1300.914	980.365
105.060	13.399	1299.931	979.336
106.074	13.240	1298.529	977.257
107.089	13.271	1297.278	976.410
108.103	13.132	1296.324	974.785
109.118	13.280	1294.907	974.505
110.133	13.118	1293.617	972.494
111.147	13.113	1292.225	971.335
112.162	13.108	1290.927	970.242
113.176	13.270	1289.769	970.241
114.191	13.336	1288.737	969.765
115.206	13.268	1287.572	968.404
116.220	13.188	1286.511	967.049
117.235	13.266	1285.115	966.373
118.249	13.343	1284.130	965.997
119.264	13.247	1283.093	964.568
120.279	13.151	1282.157	963.217
121.293	13.282	1280.633	962.751
122.308	13.230	1279.725	961.681
123.322	13.265	1278.651	960.997
124.337	13.143	1277.937	959.665
125.352	13.081	1276.600	958.212
126.366	13.183	1275.365	957.795
127.381	13.139	1274.814	957.042
128.395	13.149	1273.508	956.033
129.410	13.151	1272.473	955.185
130.424	13.149	1272.159	954.853
131.439	13.232	1270.803	954.228
132.454	13.243	1269.974	953.586
133.468	13.230	1268.973	952.676
134.483	13.216	1268.204	951.931
135.497	13.217	1267.078	951.006
136.512	13.319	1265.772	950.531
137.527	13.294	1264.807	949.581
138.541	13.213	1262.911	947.607
139.556	13.315	1261.784	947.263
140.570	13.321	1260.513	946.258
141.585	13.362	1259.524	945.665
142.600	13.346	1258.431	944.672
143.614	13.549	1257.327	944.917
144.629	13.517	1256.710	944.185
145.643	13.480	1255.257	942.798
146.658	13.443	1253.937	941.514
147.673	13.397	1252.945	940.424
148.687	13.433	1250.917	939.026
149.702	13.306	1249.998	937.533
150.716	13.288	1248.730	936.398
151.731	13.435	1247.231	936.021
152.746	13.460	1246.142	935.264
153.760	13.422	1245.198	934.254
154.775	13.436	1244.001	933.352
155.789	13.474	1243.207	932.890
156.804	13.533	1242.175	932.364
157.819	13.442	1241.245	931.073
158.833	13.672	1239.915	931.287
159.848	13.609	1239.027	930.185
160.862	13.683	1238.269	929.948
161.877	13.518	1236.843	927.867
162.892	13.474	1236.244	927.091
163.906	13.450	1235.389	926.232
164.921	13.497	1234.077	925.428
165.935	13.369	1233.588	924.266
166.950	13.514	1233.105	924.631
167.964	13.604	1232.275	924.427
168.979	13.622	1231.645	923.975
169.994	13.676	1230.470	923.314
171.008	13.594	1229.803	922.277
172.023	13.649	1228.680	921.659
173.037	13.634	1228.395	921.281
174.052	13.713	1227.121	920.680
175.067	13.638	1225.904	919.268
176.081	13.460	1225.318	917.763
177.096	13.551	1224.605	917.648
178.110	13.526	1222.987	916.217
179.125	13.610	1222.046	915.899
180.140	13.663	1220.801	915.177
181.154	13.708	1218.939	913.949
182.169	13.717	1217.891	913.127
183.183	13.778	1217.129	912.811
184.198	13.874	1215.608	912.117
185.213	13.781	1215.312	911.305
186.227	13.814	1213.815	910.283
187.242	13.779	1213.111	909.481
188.256	13.893	1211.931	909.139
189.271	14.006	1210.966	908.956
190.286	13.839	1209.876	907.145
191.300	13.642	1209.214	905.490
192.315	13.566	1208.518	904.477
193.329	13.613	1208.033	904.288
194.344	13.630	1207.559	903.948
195.359	13.560	1207.400	903.366
196.373	13.781	1206.062	903.489
197.388	13.843	1205.767	903.526
198.402	13.915	1205.062	903.307
199.417	14.107	1204.615	903.936
200.432	14.147	1203.352	903.128
201.446	14.067	1203.031	902.371
202.461	14.138	1202.282	902.116
203.475	14.118	1201.010	900.971
204.490	14.252	1199.370	900.388
205.504	14.105	1198.312	898.720
206.519	14.075	1197.311	897.725
207.534	14.022	1195.827	896.247
208.548	14.021	1194.933	895.493
209.563	13.992	1194.545	894.971
210.577	14.026	1193.612	894.374
211.592	14.136	1192.551	894.090
212.607	14.190	1191.669	893.639
213.621	14.213	1191.047	893.219
214.636	14.172	1190.019	892.147
215.650	14.196	1189.139	891.541
216.665	14.183	1188.356	890.800
217.680	14.222	1187.108	889.997
218.694	14.322	1186.381	889.908
219.709	14.321	1185.245	888.974
220.723	14.392	1184.824	888.956
221.738	14.315	1184.448	888.184
222.753	14.347	1183.437	887.518
223.767	14.393	1182.820	887.223
224.782	14.427	1182.402	887.009
225.796	14.401	1181.696	886.266
226.811	14.419	1180.974	885.740
227.826	14.436	1180.324	885.263
228.840	14.395	1179.298	884.201
229.855	14.379	1179.008	883.820
230.869	14.325	1177.970	882.674
231.884	14.390	1177.342	882.470
232.899	14.345	1176.542	881.557
233.913	14.273	1175.914	880.624
234.928	14.364	1174.891	880.266
235.942	14.400	1173.966	879.684
236.957	14.385	1173.247	878.988
237.972	14.297	1172.806	878.116
238.986	14.384	1171.895	877.814
240.001	14.495	1171.077	877.707
241.015	14.291	1170.488	876.113
242.030	14.532	1169.504	876.566
243.045	14.467	1168.636	875.500
244.059	14.564	1167.729	875.250
245.074	14.630	1166.860	874.867
246.088	14.559	1166.435	874.099
247.103	14.568	1165.651	873.483
248.117	14.613	1165.043	873.183
249.132	14.733	1164.269	873.156
250.147	14.817	1163.836	873.190
251.161	14.896	1162.937	872.851
252.176	14.949	1162.199	872.498
253.190	14.901	1161.295	871.491
254.205	14.948	1160.986	871.428
255.220	15.042	1160.206	871.255
256.234	14.921	1160.048	870.425
257.249	14.882	1159.362	869.635
258.263	14.925	1158.552	869.173
259.278	15.004	1157.667	868.842
260.293	15.089	1157.084	868.769
261.307	15.051	1156.794	868.277
262.322	15.001	1156.136	867.448
263.336	14.955	1155.565	866.703
264.351	15.130	1154.536	866.762
265.366	15.217	1153.660	866.477
266.380	15.193	1152.758	865.599
267.395	15.166	1152.455	865.156
268.409	15.212	1151.250	864.411
269.424	15.144	1150.729	863.589
270.439	15.014	1150.997	863.048
271.453	14.983	1149.844	861.943
272.468	15.022	1148.747	861.250
273.482	15.188	1147.607	861.172
274.497	15.047	1147.579	860.350
275.512	15.064	1147.017	859.939
276.526	15.161	1145.455	859.189
277.541	15.118	1145.156	858.668
278.555	15.118	1144.489	858.091
279.570	15.131	1143.920	857.656
280.585	15.225	1143.114	857.457
281.599	15.309	1141.769	856.799
282.614	15.264	1141.193	856.062
283.628	15.169	1140.109	854.691
284.643	15.245	1139.133	854.269
285.657	15.307	1138.022	853.676
286.672	15.278	1137.107	852.769
287.687	15.357	1136.060	852.310
288.701	15.332	1135.457	851.652
289.716	15.321	1134.874	851.085
290.730	15.384	1134.173	850.802
291.745	15.302	1133.711	849.965
292.760	15.401	1132.786	849.699
293.774	15.432	1132.502	849.565
294.789	15.496	1131.868	849.339
295.803	15.444	1131.782	848.938
296.818	15.376	1130.600	847.634
297.833	15.466	1129.432	847.135
298.847	15.521	1128.208	846.421
299.862	15.326	1128.342	845.462
300.876	15.526	1127.412	845.699
301.891	15.586	1126.736	845.416
302.906	15.570	1126.110	844.792
303.920	15.564	1125.613	844.316
304.935	15.736	1124.388	844.183
305.949	15.696	1123.904	843.546
306.964	15.946	1122.684	843.807
307.979	15.679	1122.718	842.420
308.993	15.611	1121.952	841.431
310.008	15.710	1121.119	841.230
311.022	15.890	1120.040	841.244
312.037	15.758	1119.543	840.136
313.052	15.764	1118.401	839.237
314.066	15.677	1117.706	838.207
315.081	15.640	1116.931	837.367
316.095	15.615	1116.156	836.585
317.110	15.788	1115.387	836.797
318.125	15.744	1114.611	835.924
319.139	15.506	1114.145	834.317
320.154	15.691	1112.896	834.225
321.168	15.675	1112.709	833.934
322.183	15.686	1112.292	833.598
323.197	15.654	1111.510	832.779
324.212	15.776	1110.822	832.796
325.227	15.750	1110.307	832.210
326.241	15.678	1109.677	831.306
327.256	15.804	1108.854	831.240
328.270	15.722	1107.890	830.038
329.285	15.749	1107.071	829.482
330.300	15.786	1106.372	829.071
331.314	15.743	1105.081	827.817
332.329	15.845	1103.965	827.407
333.343	15.789	1103.359	826.606
334.358	15.845	1102.344	826.050
335.373	15.915	1101.530	825.709
336.387	15.922	1101.120	825.359
337.402	16.007	1100.073	824.921
338.416	15.924	1099.487	824.000
339.431	15.974	1098.735	823.607
340.446	16.058	1097.996	823.392
341.460	16.112	1097.398	823.135
342.475	16.224	1096.252	822.748
343.489	16.146	1095.613	821.818
344.504	16.215	1094.839	821.498
345.519	16.279	1093.969	821.083
346.533	16.402	1092.743	820.691
347.548	16.317	1092.861	820.292
348.562	16.255	1091.919	819.211
349.577	16.112	1091.414	818.066
350.592	16.200	1090.171	817.490
351.606	16.109	1089.673	816.604
352.621	16.152	1088.826	816.103
353.635	16.170	1087.916	815.439
354.650	16.153	1087.597	815.044
355.665	16.149	1087.061	814.550
356.679	16.174	1086.257	813.998
357.694	16.254	1085.662	813.866
358.708	16.211	1085.050	813.128
359.723	16.349	1084.347	813.191
360.738	16.359	1083.562	812.580
361.752	16.358	1083.455	812.422
362.767	16.300	1082.815	811.592
363.781	16.398	1081.904	811.307
364.796	16.413	1081.207	810.787
365.810	16.620	1080.481	811.162
366.825	16.481	1080.243	810.245
367.840	16.661	1079.664	810.600
368.854	16.621	1079.166	809.964
369.869	16.709	1077.912	809.371
370.883	16.604	1077.458	808.456
371.898	16.583	1077.235	808.120
372.913	16.648	1076.207	807.585
373.927	16.652	1075.514	807.014
374.942	16.661	1075.210	806.759
375.956	16.630	1074.644	806.114
376.971	16.658	1074.122	805.782
377.986	16.703	1073.639	805.565
379.000	16.827	1072.758	805.421
380.015	16.814	1072.106	804.799
381.029	16.763	1071.857	804.297
382.044	16.786	1070.848	803.578
383.059	16.779	1070.450	803.175
384.073	16.805	1069.230	802.311
385.088	16.756	1068.726	801.631
386.102	16.885	1067.425	801.193
387.117	16.797	1066.816	800.250
388.132	16.719	1065.429	798.770
389.146	16.893	1064.987	799.191
390.161	16.821	1064.258	798.233
391.175	16.812	1063.328	797.423
392.190	16.890	1062.871	797.374
393.205	16.937	1062.387	797.165
394.219	16.911	1061.418	796.242
395.234	16.927	1060.152	795.298
396.248	16.925	1059.018	794.367
397.263	16.883	1058.256	793.530
398.278	16.829	1058.020	793.031
399.292	16.824	1057.244	792.357
400.307	16.734	1056.605	791.386
401.321	16.934	1055.800	791.646
402.336	16.796	1055.251	790.521
403.350	16.855	1054.532	790.187
404.365	16.891	1053.696	789.658
405.380	16.929	1053.432	789.568
406.394	16.901	1052.741	788.847
407.409	17.041	1051.670	788.629
408.423	17.091	1051.101	788.362
409.438	17.079	1050.464	787.762
410.453	17.157	1049.303	787.183
411.467	17.227	1049.022	787.223
412.482	17.087	1048.425	786.061
413.496	17.286	1047.835	786.467
414.511	17.382	1046.851	786.105
415.526	17.354	1046.893	785.935
416.540	17.448	1046.046	785.663
417.555	17.355	1045.660	784.875
418.569	17.369	1044.904	784.303
419.584	17.292	1044.637	783.677
420.599	17.374	1044.158	783.627
421.613	104.893	1325.334	1476.918
422.628	96.373	1366.257	1477.004
