DTS Sentinel unit serial number:	SN413079Multiplexer serial number:	ORYXHardware model number:	OX4-SRSoftware version number:	ORYX F/W v4.00 Oryx Data Collector v3.7.2.0data status	okinstallation	princeton_trtdifferential loss correction	single-endedforward channel	channel 2reverse channel	N/Adate	2019/09/14time	00:55:35forward acquisition time	60.00reverse acquisition time	0.00gamma	496.2192k internal	0.2338k external	0.2338temperature offset calibration	1.0128default loss term (dB/km)	0.3790temperature slope calibration	1.0000multiplexer offset coefficient	1.0000multiplexer slope coefficient	1.0000fibre end	0.00T internal ref (°C)	26.37T ext. ref 1 (°C)	3.18T ext. ref 2 (°C)	21.28length (m)	temperature (°C)	Stokes	anti-Stokes-747.200	610.424	0.089	0.224
-746.185	363.855	-0.079	0.160
-745.171	22.146	-0.132	0.108
-744.156	-93.832	-0.050	0.014
-743.142	399.657	-0.045	0.095
-742.127	-200.000	-0.076	0.440
-741.112	800.000	0.072	-0.201
-740.098	-60.569	0.115	0.049
-739.083	800.000	0.075	0.265
-738.069	-200.000	0.090	0.479
-737.054	135.787	0.133	0.173
-736.039	-24.475	-0.270	-0.161
-735.025	-37.325	0.173	-0.093
-734.010	-40.020	0.051	-0.027
-732.996	-32.879	-0.107	-0.060
-731.981	-102.922	-0.375	-0.089
-730.966	149.905	0.204	-0.277
-729.952	800.000	-0.084	-0.318
-728.937	6.859	-0.010	0.008
-727.923	312.059	-0.090	-0.170
-726.908	-185.963	0.078	0.001
-725.894	-200.000	-0.026	0.184
-724.879	-149.771	0.202	-0.016
-723.864	151.789	0.041	-0.057
-722.850	-163.053	0.019	-0.001
-721.835	-200.000	0.068	-0.310
-720.821	281.366	-0.083	0.149
-719.806	474.926	-0.032	-0.072
-718.791	133.315	-0.062	-0.081
-717.777	-200.000	-0.008	-0.063
-716.762	326.317	-0.093	-0.178
-715.748	-173.605	-0.226	-0.007
-714.733	-133.089	-0.388	0.049
-713.718	-200.000	0.008	-0.163
-712.704	192.712	-0.170	-0.257
-711.689	-200.000	-0.025	-0.179
-710.675	-126.566	0.385	0.057
-709.660	-200.000	-0.044	0.318
-708.645	364.070	-0.081	0.163
-707.631	628.550	0.191	-0.485
-706.616	492.996	-0.249	-0.573
-705.602	-125.527	0.277	-0.042
-704.587	115.247	0.263	-0.322
-703.572	-141.905	0.346	0.035
-702.558	-200.000	0.010	-0.291
-701.543	563.139	0.118	0.285
-700.529	-200.000	-0.012	-0.183
-699.514	332.370	0.045	0.087
-698.499	372.152	0.092	0.188
-697.485	491.522	0.060	0.137
-696.470	-88.845	-0.156	-0.046
-695.456	21.732	-0.286	0.233
-694.441	-200.000	-0.014	-0.132
-693.426	-128.941	-0.322	-0.045
-692.412	-50.207	-0.081	-0.038
-691.397	123.395	-0.208	-0.261
-690.383	585.391	0.152	0.374
-689.368	60.587	0.081	0.081
-688.354	-112.558	-0.296	0.059
-687.339	30.836	0.099	-0.085
-686.324	278.932	0.107	-0.191
-685.310	800.000	-0.037	0.132
-684.295	2.731	-0.201	-0.146
-683.281	-82.792	-0.269	-0.087
-682.266	237.974	0.026	-0.043
-681.251	-107.470	0.265	0.058
-680.237	-41.219	-0.181	-0.093
-679.222	213.031	-0.100	0.158
-678.208	-65.658	-0.137	0.055
-677.193	127.854	-0.041	-0.052
-676.178	54.164	-0.064	0.061
-675.164	-132.410	0.058	-0.008
-674.149	-72.597	0.167	0.062
-673.135	-62.071	0.178	0.074
-672.120	9.663	0.218	0.166
-671.105	-200.000	0.025	-0.150
-670.091	24.991	-0.290	-0.241
-669.076	385.212	-0.228	-0.471
-668.062	40.976	-0.081	0.073
-667.047	-200.000	-0.024	0.205
-666.032	-200.000	0.023	-0.187
-665.018	111.138	-0.146	0.176
-664.003	-86.928	-0.127	0.039
-662.989	-3.189	0.202	0.141
-661.974	-200.000	-0.094	-0.427
-660.959	-131.664	0.124	-0.016
-659.945	-135.794	0.389	-0.046
-658.930	-97.588	-0.041	0.011
-657.916	800.000	0.101	-0.318
-656.901	-200.000	-0.046	-0.471
-655.886	-200.000	0.020	0.149
-654.872	-200.000	-0.026	0.203
-653.857	296.409	-0.101	-0.185
-652.843	-200.000	0.038	-0.231
-651.828	-200.000	-0.033	-0.169
-650.814	-53.656	-0.197	-0.090
-649.799	0.329	0.301	-0.215
-648.784	-200.000	0.019	-0.156
-647.770	54.566	-0.288	-0.277
-646.755	-103.692	0.401	0.094
-645.741	-200.000	-0.015	0.154
-644.726	-51.596	-0.275	-0.128
-643.711	-200.000	0.001	0.021
-642.697	-200.000	-0.073	-0.389
-641.682	-43.087	-0.291	0.147
-640.668	69.432	-0.169	0.174
-639.653	760.004	-0.012	0.034
-638.638	-86.892	-0.195	0.060
-637.624	-138.260	0.369	0.041
-636.609	18.938	-0.099	-0.079
-635.595	-105.545	0.069	-0.016
-634.580	-200.000	-0.056	0.340
-633.565	-113.420	-0.288	0.056
-632.551	382.143	0.025	0.051
-631.536	-119.186	0.070	0.012
-630.522	-59.392	-0.138	-0.059
-629.507	-200.000	-0.059	-0.786
-628.492	634.538	0.023	0.057
-627.478	-173.529	0.320	0.010
-626.463	-92.751	-0.039	-0.011
-625.449	-117.310	0.203	-0.037
-624.434	250.428	0.116	0.196
-623.419	-200.000	0.246	0.001
-622.405	-19.905	0.231	-0.142
-621.390	800.000	0.038	-0.154
-620.376	-44.031	0.258	-0.129
-619.361	-97.670	-0.167	0.043
-618.346	219.693	-0.185	0.295
-617.332	-200.000	-0.001	0.081
-616.317	-2.106	-0.207	0.145
-615.303	-132.356	-0.047	0.006
-614.288	800.000	-0.077	0.265
-613.273	-14.670	-0.094	-0.060
-612.259	-87.741	-0.205	-0.062
-611.244	261.823	0.152	-0.264
-610.230	-148.965	0.211	0.017
-609.215	-102.340	-0.131	0.031
-608.201	249.984	-0.020	0.033
-607.186	-131.034	0.061	-0.008
-606.171	212.721	-0.169	-0.266
-605.157	-103.530	-0.212	0.050
-604.142	-58.986	-0.211	0.091
-603.128	102.746	-0.035	0.040
-602.113	-56.928	0.267	-0.118
-601.098	-15.838	-0.183	-0.116
-600.084	496.705	-0.140	-0.322
-599.069	480.493	0.178	-0.403
-598.055	-200.000	-0.019	-0.293
-597.040	-103.443	-0.439	0.103
-596.025	88.187	-0.273	-0.303
-595.011	-200.000	-0.013	-0.321
-593.996	14.368	0.174	-0.136
-592.982	219.448	-0.102	-0.163
-591.967	-30.540	0.118	0.067
-590.952	-174.831	-0.133	-0.004
-589.938	20.643	-0.064	0.052
-588.923	800.000	0.129	0.358
-587.909	-200.000	0.056	-0.364
-586.894	263.272	-0.027	-0.046
-585.879	150.918	0.087	0.118
-584.865	800.000	-0.083	-0.229
-583.850	179.318	-0.241	-0.352
-582.836	-200.000	-0.038	0.207
-581.821	-35.894	-0.141	-0.076
-580.806	96.945	0.116	-0.133
-579.792	-115.640	0.080	-0.015
-578.777	800.000	-0.002	-0.007
-577.763	173.871	-0.190	-0.273
-576.748	110.389	-0.101	0.121
-575.733	370.836	-0.087	0.176
-574.719	-29.005	-0.236	0.135
-573.704	-86.044	0.131	-0.040
-572.690	-70.676	0.279	0.105
-571.675	-5.928	0.169	-0.115
-570.661	800.000	0.070	0.282
-569.646	627.747	0.031	0.077
-568.631	-86.777	0.065	0.020
-567.617	21.415	0.204	0.165
-566.602	264.807	-0.109	-0.190
-565.588	800.000	0.013	0.045
-564.573	-200.000	-0.022	-0.259
-563.558	-42.474	-0.188	-0.096
-562.544	-200.000	0.014	0.352
-561.529	-200.000	0.002	0.330
-560.515	162.694	-0.278	0.389
-559.500	-90.338	0.222	-0.064
-558.485	17.222	0.345	-0.272
-557.471	4.222	0.352	-0.257
-556.456	800.000	-0.047	0.170
-555.442	-200.000	-0.003	-0.043
-554.427	109.856	-0.040	0.048
-553.412	-200.000	-0.043	0.265
-552.398	-77.097	-0.312	-0.108
-551.383	-119.262	0.262	-0.046
-550.369	-55.417	0.188	-0.084
-549.354	-29.774	-0.074	0.042
-548.339	-26.170	0.174	-0.102
-547.325	355.116	0.161	0.318
-546.310	800.000	0.105	-0.297
-545.296	439.481	-0.143	-0.311
-544.281	-114.529	-0.032	0.006
-543.266	-12.411	0.179	-0.117
-542.252	-200.000	-0.003	-0.171
-541.237	-1.755	0.165	-0.116
-540.223	-34.884	-0.156	-0.085
-539.208	800.000	0.023	-0.093
-538.193	-28.288	-0.137	0.079
-537.179	-38.799	0.238	0.125
-536.164	-74.120	0.240	0.086
-535.150	782.001	-0.009	0.025
-534.135	546.899	-0.133	0.316
-533.121	-104.695	0.306	-0.070
-532.106	-200.000	-0.002	-0.163
-531.091	-75.344	0.131	0.046
-530.077	-44.843	-0.103	-0.051
-529.062	46.865	0.540	0.499
-528.048	800.000	-0.064	-0.219
-527.033	800.000	-0.062	0.266
-526.018	-119.690	0.147	-0.025
-525.004	8.433	0.068	0.051
-523.989	-200.000	0.021	0.131
-522.975	-124.126	0.204	0.032
-521.960	436.887	0.136	0.295
-520.945	-127.901	-0.362	-0.052
-519.931	-151.007	0.332	0.025
-518.916	-200.000	0.060	0.307
-517.902	-124.334	0.246	0.038
-516.887	457.743	0.102	-0.226
-515.872	629.584	0.109	-0.274
-514.858	800.000	0.082	-0.347
-513.843	10.346	-0.097	0.073
-512.829	143.233	0.171	0.227
-511.814	-63.024	0.153	0.063
-510.799	121.305	-0.203	0.252
-509.785	-11.042	0.103	0.067
-508.770	-200.000	-0.019	-0.094
-507.756	-28.905	-0.201	0.115
-506.741	-200.000	0.007	0.262
-505.726	-22.460	0.018	-0.011
-504.712	182.849	0.148	0.217
-503.697	99.353	-0.137	-0.158
-502.683	-200.000	-0.060	-0.366
-501.668	-73.816	-0.086	0.031
-500.653	221.562	-0.174	-0.278
-499.639	477.493	0.098	0.221
-498.624	-200.000	-0.045	-0.283
-497.610	739.462	-0.130	0.347
-496.595	800.000	0.036	-0.141
-495.581	-200.000	-0.062	0.308
-494.566	-94.714	0.208	-0.056
-493.551	-195.590	0.229	-0.002
-492.537	-15.104	0.193	-0.123
-491.522	77.266	-0.203	0.214
-490.508	0.685	0.194	-0.138
-489.493	-111.827	0.131	0.026
-488.478	-200.000	-0.041	-0.351
-487.464	800.000	-0.075	0.253
-486.449	-49.027	-0.203	-0.096
-485.435	-60.715	-0.311	-0.131
-484.420	101.604	-0.263	0.305
-483.405	302.635	-0.172	-0.316
-482.391	-36.979	-0.150	-0.080
-481.376	-200.000	-0.012	-0.066
-480.362	494.419	0.035	0.080
-479.347	-12.912	0.152	0.098
-478.332	750.226	0.087	0.234
-477.318	108.051	0.113	-0.134
-476.303	-132.268	0.217	0.028
-475.289	-200.000	-0.021	-0.287
-474.274	800.000	0.019	0.071
-473.259	-128.494	0.216	0.030
-472.245	-77.390	-0.425	-0.146
-471.230	-200.000	-0.016	-0.092
-470.216	-200.000	-0.012	-0.264
-469.201	-200.000	-0.002	0.040
-468.186	-124.179	-0.099	-0.015
-467.172	-144.273	0.333	0.031
-466.157	174.111	-0.130	-0.186
-465.143	171.255	-0.169	0.241
-464.128	124.747	-0.057	-0.072
-463.113	-134.427	-0.261	0.032
-462.099	-132.918	0.261	0.033
-461.084	74.983	-0.116	-0.121
-460.070	-200.000	-0.095	0.445
-459.055	-4.918	0.218	-0.149
-458.040	60.658	-0.236	-0.232
-457.026	-67.500	0.111	-0.043
-456.011	48.834	-0.076	0.070
-454.997	-51.982	0.247	0.114
-453.982	-35.212	-0.235	0.127
-452.968	95.323	0.099	0.112
-451.953	24.722	-0.161	-0.132
-450.938	432.345	-0.116	-0.251
-449.924	-13.458	0.262	-0.169
-448.909	800.000	-0.028	-0.096
-447.895	443.390	0.121	0.263
-446.880	-200.000	0.017	0.173
-445.865	-200.000	0.032	0.316
-444.851	-200.000	0.110	-0.717
-443.836	-6.311	-0.082	-0.055
-442.822	-32.015	-0.129	-0.072
-441.807	-84.315	0.514	-0.161
-440.792	300.199	0.233	-0.426
-439.778	-130.324	-0.134	0.018
-438.763	800.000	-0.015	-0.046
-437.749	-116.495	-0.282	-0.052
-436.734	-67.753	0.122	-0.047
-435.719	336.006	0.097	0.187
-434.705	311.412	0.130	-0.241
-433.690	800.000	-0.042	-0.129
-432.676	-137.604	0.213	-0.024
-431.661	28.907	0.085	-0.072
-430.646	-200.000	-0.139	0.000
-429.632	222.240	0.150	0.240
-428.617	-200.000	0.100	-0.517
-427.603	800.000	-0.086	0.288
-426.588	-120.925	-0.088	0.015
-425.573	800.000	-0.055	0.150
-424.559	53.609	0.344	0.327
-423.544	337.028	0.155	0.299
-422.530	131.194	0.059	0.075
-421.515	-153.749	-0.243	0.017
-420.500	362.169	-0.095	0.189
-419.486	-93.736	0.231	-0.063
-418.471	-55.876	-0.183	0.081
-417.457	291.555	0.034	0.061
-416.442	-124.452	0.222	0.034
-415.428	32.101	-0.040	-0.034
-414.413	-200.000	0.044	0.309
-413.398	-83.498	0.412	-0.131
-412.384	-128.835	-0.186	-0.026
-411.369	-128.648	0.387	0.054
-410.355	205.888	-0.063	0.098
-409.340	-147.025	0.424	-0.036
-408.325	798.726	0.156	-0.425
-407.311	305.199	-0.041	-0.075
-406.296	130.510	-0.101	-0.128
-405.282	55.802	-0.086	0.082
-404.267	-200.000	-0.015	-0.115
-403.252	437.719	-0.110	0.237
-402.238	104.686	0.113	0.131
-401.223	800.000	-0.072	-0.198
-400.209	147.830	-0.165	0.221
-399.194	-142.735	-0.421	-0.041
-398.179	-83.015	-0.212	-0.068
-397.165	40.887	-0.038	-0.034
-396.150	800.000	0.096	0.293
-395.136	155.593	0.058	-0.079
-394.121	705.235	-0.031	-0.081
-393.106	514.222	0.097	-0.223
-392.092	150.046	-0.240	0.322
-391.077	-200.000	-0.022	-0.251
-390.063	156.111	0.100	-0.136
-389.048	-200.000	-0.024	0.185
-388.033	284.009	0.119	-0.212
-387.019	-85.246	0.266	0.082
-386.004	250.575	0.142	0.239
-384.990	77.924	0.145	0.153
-383.975	-57.393	-0.092	0.040
-382.960	-200.000	-0.010	0.143
-381.946	587.112	-0.166	0.405
-380.931	-84.305	0.179	0.056
-379.917	-200.000	-0.063	0.299
-378.902	-145.439	0.167	0.015
-377.888	-126.685	-0.240	0.035
-376.873	800.000	-0.081	-0.268
-375.858	-117.685	-0.126	-0.022
-374.844	338.683	-0.071	0.137
-373.829	-91.864	0.069	0.019
-372.815	52.900	0.075	0.071
-371.800	-102.575	-0.124	-0.029
-370.785	790.094	-0.124	0.338
-369.771	800.000	-0.023	0.088
-368.756	-140.317	0.191	0.020
-367.742	134.440	0.067	0.085
-366.727	-47.830	0.054	0.026
-365.712	-200.000	0.001	-0.006
-364.698	107.036	-0.074	-0.086
-363.683	-36.214	-0.299	0.159
-362.669	238.470	0.077	-0.126
-361.654	-45.433	0.124	0.061
-360.639	-66.274	0.101	0.040
-359.625	296.806	0.110	0.200
-358.610	147.605	-0.121	-0.162
-357.596	31.743	0.107	0.091
-356.581	-58.967	-0.283	0.121
-355.566	-176.705	0.111	0.003
-354.552	128.367	0.147	-0.185
-353.537	180.331	-0.116	0.168
-352.523	638.817	0.018	0.046
-351.508	-171.645	-0.074	-0.002
-350.493	53.530	0.111	-0.105
-349.479	-50.361	-0.101	-0.047
-348.464	409.075	0.037	0.077
-347.450	-46.260	0.151	0.073
-346.435	-200.000	-0.017	0.148
-345.420	-200.000	-0.099	0.490
-344.406	-200.000	-0.080	0.463
-343.391	-200.000	-0.040	-0.229
-342.377	74.326	-0.046	0.048
-341.362	286.782	0.155	0.277
-340.348	-18.868	0.224	0.138
-339.333	-200.000	0.045	-0.232
-338.318	57.367	-0.115	-0.111
-337.304	800.000	0.096	-0.398
-336.289	593.166	0.111	-0.272
-335.275	-200.000	-0.008	-0.099
-334.260	714.507	0.013	0.033
-333.245	-200.000	0.060	-0.458
-332.231	15.380	-0.099	-0.076
-331.216	800.000	0.043	-0.125
-330.202	101.154	-0.142	-0.163
-329.187	-2.970	-0.259	0.179
-328.172	-77.504	0.141	0.048
-327.158	30.734	-0.176	-0.149
-326.143	800.000	0.045	0.169
-325.129	176.531	0.087	0.124
-324.114	252.328	-0.082	0.138
-323.099	215.659	-0.056	0.087
-322.085	664.696	-0.121	-0.307
-321.070	422.580	0.240	0.510
-320.056	-191.461	0.146	-0.001
-319.041	26.769	-0.096	-0.080
-318.026	-56.261	-0.154	0.068
-317.012	-49.224	-0.164	0.077
-315.997	89.338	0.121	0.133
-314.983	163.070	-0.165	0.229
-313.968	-11.917	-0.128	0.083
-312.953	-200.000	-0.022	0.167
-311.939	-79.146	-0.100	0.034
-310.924	135.139	0.127	-0.163
-309.910	-200.000	-0.088	-0.398
-308.895	203.498	-0.170	-0.260
-307.880	-200.000	0.001	0.125
-306.866	-83.738	0.228	0.072
-305.851	800.000	-0.064	0.256
-304.837	11.485	-0.173	0.131
-303.822	800.000	0.055	0.171
-302.807	-21.889	0.166	0.100
-301.793	147.365	-0.052	0.070
-300.778	307.533	0.123	-0.227
-299.764	800.000	-0.042	-0.127
-298.749	-92.636	-0.194	-0.054
-297.735	-200.000	-0.021	-0.192
-296.720	-49.740	0.254	-0.119
-295.705	114.083	-0.180	-0.215
-294.691	-25.616	0.151	-0.088
-293.676	319.605	-0.091	-0.171
-292.662	583.266	-0.082	0.198
-291.647	-15.393	0.116	0.073
-290.632	800.000	-0.098	-0.318
-289.618	800.000	-0.069	0.209
-288.603	-200.000	-0.000	-0.185
-287.589	169.006	0.166	0.234
-286.574	-65.175	0.093	0.037
-285.559	-9.674	-0.186	0.122
-284.545	-197.022	0.306	-0.002
-283.530	132.780	0.104	-0.132
-282.516	-44.996	-0.043	-0.021
-281.501	-72.707	0.099	0.036
-280.486	36.062	-0.161	0.140
-279.472	256.221	-0.073	0.123
-278.457	370.318	-0.149	-0.297
-277.443	-200.000	-0.005	0.192
-276.428	-59.212	0.218	0.092
-275.413	-168.300	0.290	0.011
-274.399	800.000	-0.087	0.302
-273.384	-63.423	-0.141	0.057
-272.370	253.465	0.026	0.044
-271.355	-41.858	0.172	0.087
-270.340	70.243	0.067	-0.068
-269.326	-43.631	-0.404	-0.201
-268.311	-165.495	0.211	-0.009
-267.297	-200.000	0.002	-0.072
-266.282	800.000	-0.086	-0.244
-265.267	49.400	-0.092	-0.085
-264.253	-169.213	-0.195	0.007
-263.238	-200.000	-0.031	0.210
-262.224	-192.984	0.137	-0.001
-261.209	-61.706	-0.214	-0.088
-260.195	-200.000	0.029	0.153
-259.180	-97.329	0.246	-0.063
-258.165	80.765	-0.030	-0.032
-257.151	-135.139	0.200	-0.024
-256.136	-200.000	0.001	-0.138
-255.122	-100.316	0.305	0.075
-254.107	273.177	0.077	0.134
-253.092	196.856	-0.290	-0.435
-252.078	-110.457	0.137	-0.028
-251.063	131.701	-0.173	0.219
-250.049	-200.000	-0.018	-0.133
-249.034	189.495	-0.358	-0.527
-248.019	800.000	0.018	-0.063
-247.005	-175.806	-0.243	0.006
-245.990	185.787	0.105	0.154
-244.976	49.871	0.180	0.167
-243.961	800.000	0.054	-0.185
-242.946	40.112	-0.252	-0.223
-241.932	-200.000	0.044	0.289
-240.917	-113.635	-0.220	-0.042
-239.903	21.192	-0.240	-0.192
-238.888	-200.000	-0.030	-0.191
-237.873	36.446	0.092	-0.080
-236.859	800.000	-0.058	0.158
-235.844	583.565	-0.062	-0.151
-234.830	-126.177	-0.316	0.046
-233.815	800.000	0.045	-0.134
-232.800	125.166	-0.018	0.023
-231.786	-123.529	0.161	0.025
-230.771	-200.000	0.003	0.044
-229.757	-119.358	0.275	-0.047
-228.742	800.000	-0.035	0.110
-227.727	417.085	-0.074	-0.155
-226.713	-200.000	0.031	-0.178
-225.698	-200.000	-0.043	0.207
-224.684	-32.067	0.547	0.301
-223.669	183.050	-0.189	0.274
-222.655	40.474	-0.216	0.192
-221.640	127.181	-0.227	-0.283
-220.625	800.000	-0.079	0.219
-219.611	-47.991	0.115	-0.054
-218.596	-200.000	-0.012	0.308
-217.582	77.116	-0.257	0.268
-216.567	-0.387	-0.389	-0.272
-215.552	138.500	0.061	-0.079
-214.538	20.729	-0.160	0.127
-213.523	800.000	0.085	0.268
-212.509	66.298	-0.181	0.181
-211.494	800.000	-0.053	-0.184
-210.479	-75.458	-0.210	0.073
-209.465	265.168	0.014	-0.024
-208.450	-85.125	-0.213	-0.065
-207.436	205.803	0.133	0.203
-206.421	288.868	-0.072	0.128
-205.406	-80.792	-0.235	0.077
-204.392	72.192	0.104	-0.106
-203.377	-81.345	-0.216	0.070
-202.363	53.522	-0.200	-0.188
-201.348	-200.000	-0.017	-0.247
-200.333	-23.823	-0.230	-0.135
-199.319	292.162	0.185	0.331
-198.304	-129.066	-0.317	-0.044
-197.290	-85.464	0.090	-0.027
-196.275	306.955	-0.141	0.257
-195.260	-200.000	0.037	0.213
-194.246	279.371	-0.034	-0.060
-193.231	-171.241	-0.098	0.003
-192.217	-117.736	0.076	0.013
-191.202	236.920	-0.167	0.272
-190.187	660.448	0.115	-0.291
-189.173	38.801	-0.196	0.172
-188.158	15.533	0.408	-0.315
-187.144	-128.154	0.208	-0.029
-186.129	254.871	0.194	0.326
-185.114	800.000	0.072	0.206
-184.100	800.000	-0.060	0.242
-183.085	-69.208	-0.284	-0.107
-182.071	-177.121	0.265	-0.006
-181.056	-200.000	-0.058	0.298
-180.042	-20.359	-0.199	0.120
-179.027	-200.000	0.010	-0.163
-178.012	69.204	-0.045	0.046
-176.998	-137.347	0.172	0.019
-175.983	-33.181	0.154	-0.084
-174.969	464.373	-0.086	0.188
-173.954	800.000	-0.065	-0.198
-172.939	-200.000	-0.005	-0.164
-171.925	-200.000	0.011	-0.281
-170.910	-165.692	0.084	-0.004
-169.896	37.952	0.179	-0.156
-168.881	-12.975	-0.211	0.135
-167.866	21.656	-0.053	-0.042
-166.852	116.174	-0.113	-0.136
-165.837	-8.115	-0.081	-0.054
-164.823	-191.709	0.155	-0.002
-163.808	239.531	0.153	-0.250
-162.793	-13.337	-0.169	-0.107
-161.779	-12.690	-0.115	0.073
-160.764	367.739	-0.026	-0.052
-159.750	506.103	-0.176	0.401
-158.735	41.811	-0.183	0.163
-157.720	197.367	0.053	-0.080
-156.706	275.867	0.173	-0.301
-155.691	-71.893	0.170	0.062
-154.677	340.114	0.074	-0.141
-153.662	-86.218	0.089	-0.027
-152.647	6.751	-0.029	0.021
-151.633	-55.985	0.248	0.109
-150.618	-92.148	0.246	0.068
-149.604	-72.584	-0.196	-0.071
-148.589	-200.000	-0.017	0.178
-147.574	-65.852	0.309	-0.121
-146.560	234.290	-0.062	0.100
-145.545	262.116	-0.043	0.073
-144.531	692.522	-0.083	-0.214
-143.516	596.234	0.053	-0.130
-142.502	586.934	0.158	0.381
-141.487	-93.384	0.388	0.106
-140.472	-151.724	-0.404	-0.029
-139.458	-114.953	0.087	0.016
-138.443	-200.000	-0.005	0.175
-137.429	183.451	-0.088	-0.128
-136.414	-43.230	-0.057	0.028
-135.399	-132.759	0.283	-0.035
-134.385	-200.000	0.029	-0.310
-133.370	-151.817	0.247	-0.018
-132.356	-114.695	-0.206	0.039
-131.341	-200.000	-0.031	0.161
-130.326	176.046	-0.098	0.139
-129.312	685.786	0.049	0.124
-128.297	-29.219	0.132	0.074
-127.283	0.536	0.236	0.165
-126.268	-47.640	-0.090	0.043
-125.253	-200.000	0.001	-0.160
-124.239	-2.524	0.208	-0.143
-123.224	-200.000	-0.047	0.226
-122.210	800.000	-0.050	-0.173
-121.195	450.887	-0.156	-0.338
-120.180	-112.875	0.105	0.020
-119.166	-53.048	0.239	0.107
-118.151	256.858	0.042	0.070
-117.137	800.000	-0.063	0.187
-116.122	712.692	0.052	-0.134
-115.107	-200.000	0.019	-0.411
-114.093	-129.362	-0.135	-0.018
-113.078	-17.432	-0.074	0.045
-112.064	-72.685	0.153	-0.055
-111.049	-200.000	0.014	-0.073
-110.034	-200.000	0.011	0.244
-109.020	-1.152	0.232	-0.160
-108.005	83.405	0.131	0.140
-106.991	-54.068	-0.106	0.047
-105.976	-67.599	-0.243	0.093
-104.962	-200.000	-0.017	-0.297
-103.947	701.188	-0.047	-0.121
-102.932	66.651	0.486	-0.484
-101.918	379.239	-0.125	0.251
-100.903	-2.129	0.058	-0.040
-99.889	-12.233	-0.169	-0.108
-98.874	635.380	0.133	-0.331
-97.859	553.613	0.030	0.072
-96.845	-117.912	-0.091	0.016
-95.830	23.821	-0.125	0.101
-94.816	104.050	-0.247	-0.285
-93.801	58.132	0.116	0.111
-92.786	80.374	0.087	-0.092
-91.772	0.113	-0.202	0.141
-90.757	-104.824	0.329	-0.074
-89.743	-81.051	-0.233	0.075
-88.728	-97.298	0.150	0.038
-87.713	170.914	0.106	0.148
-86.699	-81.343	-0.320	0.103
-85.684	57.423	-0.157	-0.150
-84.670	-90.455	0.087	-0.025
-83.655	420.325	-0.090	0.188
-82.640	-111.083	-0.431	-0.086
-81.626	76.673	0.231	-0.240
-80.611	-87.255	-0.233	0.069
-79.597	-192.837	0.103	-0.001
-78.582	800.000	-0.047	-0.138
-77.567	-159.149	0.377	-0.021
-76.553	-200.000	-0.031	0.219
-75.538	-107.882	-0.335	0.071
-74.524	121.261	-0.058	-0.071
-73.509	416.177	-0.077	0.161
-72.494	-89.329	0.125	-0.036
-71.480	215.494	-0.022	0.035
-70.465	-107.347	0.168	-0.036
-69.451	113.926	-0.193	0.230
-68.436	221.784	-0.145	0.228
-67.422	-67.395	-0.324	-0.125
-66.407	-130.307	0.199	-0.026
-65.392	769.061	-0.095	-0.252
-64.378	-200.000	-0.060	0.346
-63.363	-27.930	-0.250	0.141
-62.349	800.000	-0.063	0.244
-61.334	154.441	-1.024	-1.374
-60.319	61.133	0.648	0.629
-59.305	-200.000	-0.147	-0.899
-58.290	586.981	0.546	1.313
-57.276	77.584	0.960	0.998
-56.261	-200.000	116.394	642.456
-55.246	496.381	1540.857	3460.543
-54.232	174.549	2719.784	3842.247
-53.217	97.746	2293.129	2575.037
-52.203	35.317	1901.126	1628.378
-51.188	29.525	1695.113	1407.855
-50.173	27.104	1653.967	1355.589
-49.159	46.773	1711.833	1552.999
-48.144	45.546	1725.085	1555.646
-47.130	29.011	1682.383	1393.169
-46.115	26.360	1668.763	1361.891
-45.100	26.263	1663.312	1356.661
-44.086	26.212	1660.749	1354.133
-43.071	26.160	1658.321	1351.712
-42.057	26.223	1655.918	1350.169
-41.042	26.251	1653.703	1348.523
-40.027	26.243	1651.907	1346.942
-39.013	26.254	1649.860	1345.302
-37.998	26.254	1648.035	1343.759
-36.984	26.387	1646.549	1343.483
-35.969	26.317	1645.851	1342.338
-34.954	26.348	1644.489	1341.405
-33.940	26.376	1642.157	1339.658
-32.925	26.368	1640.677	1338.342
-31.911	26.337	1639.194	1336.847
-30.896	26.274	1637.487	1334.935
-29.881	26.353	1635.673	1333.991
-28.867	26.326	1633.983	1332.358
-27.852	26.408	1632.579	1331.767
-26.838	26.397	1631.073	1330.404
-25.823	26.376	1629.946	1329.277
-24.809	26.433	1627.993	1328.048
-23.794	26.394	1627.014	1326.911
-22.779	26.397	1625.880	1325.957
-21.765	26.451	1623.200	1324.114
-20.750	26.382	1622.429	1322.927
-19.736	26.400	1621.347	1322.124
-18.721	26.489	1619.624	1321.313
-17.706	26.396	1618.160	1319.387
-16.692	26.467	1616.111	1318.184
-15.677	26.412	1614.833	1316.690
-14.663	26.471	1613.455	1315.945
-13.648	26.430	1612.224	1314.591
-12.633	26.371	1610.900	1313.029
-11.619	26.406	1609.123	1311.779
-10.604	26.348	1607.695	1310.145
-9.590	26.447	1606.165	1309.566
-8.575	26.380	1604.632	1307.775
-7.560	26.368	1603.867	1307.012
-6.546	26.380	1602.421	1305.873
-5.531	26.395	1601.547	1305.216
-4.517	26.389	1600.510	1304.277
-3.502	26.384	1599.617	1303.458
-2.487	26.524	1597.078	1302.343
-1.473	26.108	1585.896	1290.202
-0.458	23.288	1566.907	1254.756
0.556	20.732	1568.501	1224.090
1.571	18.542	1592.187	1226.815
2.586	18.005	1604.689	1232.466
3.600	15.993	1549.588	1176.011
4.615	9.403	1441.994	1051.326
5.629	4.031	1383.693	974.972
6.644	3.221	1376.725	964.900
7.659	3.126	1375.414	963.303
8.673	3.144	1374.250	962.516
9.688	3.239	1372.258	961.628
10.702	3.003	1369.828	958.369
11.717	5.672	1374.001	977.877
12.731	12.893	1387.612	1032.858
13.746	18.950	1397.755	1078.418
14.761	20.393	1399.043	1088.369
15.775	19.802	1396.563	1082.644
16.790	18.822	1394.123	1074.532
17.804	17.940	1391.906	1067.216
18.819	17.599	1390.594	1063.986
19.834	17.442	1389.819	1062.316
20.848	17.362	1388.638	1060.819
21.863	17.025	1387.366	1057.654
22.877	17.024	1385.804	1056.366
23.892	16.979	1385.033	1055.407
24.907	16.983	1384.371	1054.830
25.921	16.967	1382.996	1053.591
26.936	17.027	1382.493	1053.486
27.950	17.045	1381.583	1052.812
28.965	17.075	1380.712	1052.243
29.980	17.117	1379.773	1051.696
30.994	17.206	1378.463	1051.152
32.009	17.439	1377.152	1051.500
33.023	17.285	1375.329	1049.063
34.038	17.249	1374.555	1048.158
35.053	17.111	1373.614	1046.496
36.067	17.191	1372.000	1045.667
37.082	17.183	1371.785	1045.364
38.096	17.212	1370.523	1044.487
39.111	17.233	1369.850	1044.013
40.126	17.110	1368.606	1042.215
41.140	16.917	1367.641	1040.205
42.155	16.766	1366.766	1038.520
43.169	16.780	1367.125	1038.786
44.184	16.756	1366.523	1038.092
45.199	16.791	1366.184	1037.957
46.213	16.929	1365.402	1038.115
47.228	16.990	1365.020	1038.108
48.242	17.104	1363.420	1037.495
49.257	17.102	1361.905	1036.237
50.271	17.041	1360.795	1034.930
51.286	17.100	1358.985	1033.820
52.301	17.041	1357.990	1032.615
53.315	16.981	1357.014	1031.414
54.330	16.824	1355.763	1029.421
55.344	16.843	1354.396	1028.408
56.359	16.850	1353.211	1027.456
57.374	16.796	1352.506	1026.504
58.388	16.766	1351.933	1025.798
59.403	16.761	1351.774	1025.556
60.417	16.699	1350.733	1024.300
61.432	16.680	1349.885	1023.450
62.447	16.576	1348.887	1021.976
63.461	16.633	1347.090	1020.866
64.476	16.599	1346.151	1019.859
65.490	16.630	1345.285	1019.303
66.505	16.575	1343.638	1017.628
67.520	16.685	1342.055	1017.001
68.534	16.603	1341.256	1015.813
69.549	16.658	1340.470	1015.462
70.563	16.559	1339.342	1013.920
71.578	16.426	1337.911	1011.956
72.593	16.431	1336.797	1011.049
73.607	16.481	1336.122	1010.751
74.622	16.467	1335.611	1010.189
75.636	16.484	1334.871	1009.640
76.651	16.335	1334.670	1008.513
77.666	16.495	1333.803	1008.722
78.680	16.572	1333.219	1008.651
79.695	16.574	1332.556	1008.073
80.709	16.671	1332.066	1008.190
81.724	16.677	1331.342	1007.589
82.739	16.822	1330.209	1007.506
83.753	16.906	1329.647	1007.486
84.768	17.146	1328.703	1008.108
85.782	17.190	1327.727	1007.541
86.797	17.071	1326.235	1005.611
87.812	17.012	1324.993	1004.234
88.826	17.013	1323.648	1003.133
89.841	17.136	1323.063	1003.326
90.855	17.202	1321.906	1002.750
91.870	17.225	1320.842	1001.987
92.884	17.218	1320.448	1001.560
93.899	17.188	1319.372	1000.476
94.914	17.308	1318.548	1000.474
95.928	17.245	1317.662	999.341
96.943	17.191	1316.942	998.387
97.957	17.180	1315.792	997.364
98.972	17.092	1314.882	996.069
99.987	17.213	1313.624	995.735
101.001	17.149	1312.700	994.572
102.016	17.105	1312.039	993.726
103.030	17.122	1311.071	993.003
104.045	17.228	1309.544	992.382
105.060	17.168	1308.119	990.864
106.074	16.890	1306.859	988.200
107.089	16.633	1305.615	985.676
108.103	16.665	1304.304	984.786
109.118	16.595	1303.066	983.354
110.133	16.689	1301.376	982.542
111.147	16.632	1300.452	981.425
112.162	16.615	1299.235	980.322
113.176	16.806	1298.094	980.479
114.191	16.778	1296.831	979.278
115.206	16.730	1296.123	978.379
116.220	16.830	1294.698	977.795
117.235	16.778	1293.755	976.696
118.249	16.622	1293.185	975.277
119.264	16.751	1291.619	974.752
120.279	16.696	1290.181	973.264
121.293	16.614	1289.239	971.999
122.308	16.532	1288.209	970.664
123.322	16.427	1287.311	969.300
124.337	16.419	1286.470	968.535
125.352	16.509	1284.794	967.701
126.366	16.447	1284.508	967.046
127.381	16.415	1282.776	965.477
128.395	16.518	1282.054	965.435
129.410	16.527	1280.785	964.443
130.424	16.661	1280.133	964.632
131.439	16.643	1279.760	964.160
132.454	16.723	1278.341	963.462
133.468	16.752	1277.720	963.077
134.483	16.699	1277.258	962.342
135.497	16.790	1275.820	961.691
136.512	16.810	1274.684	960.862
137.527	16.828	1273.193	959.752
138.541	16.813	1271.974	958.662
139.556	16.852	1270.982	958.054
140.570	16.988	1269.792	957.839
141.585	17.071	1268.696	957.395
142.600	17.109	1267.622	956.713
143.614	17.214	1266.608	956.456
144.629	17.237	1265.596	955.735
145.643	17.226	1264.714	954.925
146.658	17.066	1262.862	952.543
147.673	16.945	1262.382	951.417
148.687	16.932	1260.602	949.917
149.702	16.820	1259.293	948.222
150.716	16.875	1258.006	947.476
151.731	16.818	1257.097	946.387
152.746	16.910	1256.072	946.048
153.760	17.032	1254.675	945.590
154.775	16.945	1254.094	944.589
155.789	17.032	1252.976	944.146
156.804	17.024	1251.952	943.244
157.819	17.160	1250.672	942.954
158.833	17.046	1250.067	941.781
159.848	17.273	1249.578	942.588
160.862	17.252	1248.185	941.335
161.877	17.028	1247.003	939.125
162.892	16.989	1245.406	937.621
163.906	16.833	1244.801	936.223
164.921	16.892	1244.060	935.906
165.935	17.015	1242.987	935.693
166.950	17.100	1242.258	935.533
167.964	17.106	1241.545	934.948
168.979	17.004	1240.787	933.728
169.994	16.985	1240.202	933.103
171.008	17.082	1239.290	932.868
172.023	17.164	1238.563	932.687
173.037	17.357	1237.568	932.914
174.052	17.208	1237.185	931.727
175.067	17.073	1235.844	929.897
176.081	17.033	1234.627	928.679
177.096	17.032	1233.484	927.732
178.110	17.081	1232.621	927.265
179.125	17.124	1231.369	926.475
180.140	17.146	1229.948	925.447
181.154	17.153	1229.534	925.093
182.169	17.250	1228.830	925.006
183.183	17.281	1227.472	924.073
184.198	17.329	1225.887	923.056
185.213	17.275	1224.974	921.997
186.227	17.438	1223.634	921.789
187.242	17.390	1223.219	921.137
188.256	17.372	1222.240	920.220
189.271	17.572	1221.033	920.311
190.286	17.367	1219.830	918.214
191.300	17.038	1218.734	915.533
192.315	16.838	1217.919	913.761
193.329	17.059	1217.328	914.430
194.344	17.053	1217.096	914.139
195.359	17.105	1216.417	913.831
196.373	17.217	1216.321	914.279
197.388	17.320	1215.738	914.317
198.402	17.397	1215.298	914.317
199.417	17.617	1214.509	914.821
200.432	17.648	1213.944	914.485
201.446	17.642	1213.238	913.837
202.461	17.853	1212.053	913.996
203.475	17.786	1211.286	912.978
204.490	17.635	1209.656	910.862
205.504	17.536	1208.204	909.158
206.519	17.607	1206.718	908.340
207.534	17.574	1205.808	907.397
208.548	17.577	1204.957	906.690
209.563	17.540	1204.530	906.092
210.577	17.559	1203.709	905.498
211.592	17.659	1202.554	905.081
212.607	17.682	1201.739	904.509
213.621	17.720	1200.903	904.000
214.636	17.719	1199.716	903.024
215.650	17.694	1199.336	902.521
216.665	17.623	1198.385	901.354
217.680	17.788	1197.721	901.646
218.694	17.859	1196.510	901.028
219.709	17.867	1195.735	900.407
220.723	17.857	1195.420	900.041
221.738	17.912	1194.464	899.528
222.753	17.846	1193.359	898.269
223.767	17.983	1192.480	898.249
224.782	18.143	1192.166	898.775
225.796	18.000	1192.034	897.845
226.811	18.039	1190.790	897.034
227.826	17.854	1190.156	895.502
228.840	17.937	1189.321	895.233
229.855	17.816	1188.563	893.947
230.869	17.833	1187.888	893.450
231.884	17.764	1187.046	892.377
232.899	17.774	1185.982	891.549
233.913	17.755	1185.217	890.795
234.928	17.691	1184.483	889.830
235.942	17.640	1183.563	888.796
236.957	17.652	1183.001	888.359
237.972	17.697	1182.078	887.819
238.986	17.760	1181.537	887.665
240.001	17.679	1181.128	886.858
241.015	17.816	1179.962	886.612
242.030	17.811	1179.507	886.166
243.045	17.843	1178.486	885.490
244.059	17.920	1177.644	885.176
245.074	17.953	1177.049	884.824
246.088	18.007	1176.314	884.470
247.103	18.062	1175.632	884.165
248.117	18.094	1174.883	883.688
249.132	18.258	1174.114	883.878
250.147	18.389	1173.641	884.123
251.161	18.509	1172.963	884.149
252.176	18.536	1172.351	883.752
253.190	18.622	1171.645	883.581
254.205	18.715	1170.925	883.439
255.220	18.611	1170.806	882.736
256.234	18.617	1170.292	882.300
257.249	18.732	1169.045	881.877
258.263	18.581	1168.727	880.782
259.278	18.486	1168.512	880.053
260.293	18.629	1167.557	879.991
261.307	18.852	1166.675	880.391
262.322	18.702	1166.200	879.187
263.336	18.683	1165.610	878.569
264.351	18.612	1165.572	878.097
265.366	18.756	1164.717	878.111
266.380	18.787	1163.540	877.305
267.395	18.774	1162.586	876.439
268.409	18.689	1162.055	875.532
269.424	18.613	1161.584	874.708
270.439	18.599	1160.753	873.936
271.453	18.606	1159.949	873.289
272.468	18.471	1158.831	871.682
273.482	18.503	1158.265	871.344
274.497	18.565	1157.980	871.366
275.512	18.545	1157.037	870.478
276.526	18.606	1156.194	870.076
277.541	18.663	1155.272	869.592
278.555	18.597	1154.856	868.869
279.570	18.822	1153.755	869.102
280.585	18.825	1153.204	868.628
281.599	18.888	1152.043	867.991
282.614	18.815	1151.155	866.878
283.628	18.702	1150.148	865.475
284.643	18.782	1149.090	865.004
285.657	18.735	1148.277	864.081
286.672	18.629	1147.859	863.156
287.687	18.720	1146.433	862.466
288.701	18.670	1146.164	861.933
289.716	18.752	1145.306	861.626
290.730	18.697	1144.599	860.739
291.745	18.733	1144.045	860.427
292.760	18.927	1143.362	860.807
293.774	19.034	1142.406	860.550
294.789	19.044	1142.181	860.350
295.803	19.019	1141.782	859.849
296.818	18.947	1140.439	858.405
297.833	19.024	1139.362	857.903
298.847	18.966	1138.871	857.165
299.862	18.850	1137.845	855.742
300.876	18.867	1137.551	855.527
301.891	18.868	1137.122	855.134
302.906	19.013	1136.651	855.429
303.920	19.145	1135.444	855.101
304.935	19.281	1135.033	855.387
305.949	19.331	1134.229	854.956
306.964	19.352	1133.719	854.600
307.979	19.270	1132.635	853.298
308.993	19.118	1132.295	852.213
310.008	19.349	1131.081	852.368
311.022	19.347	1130.457	851.811
312.037	19.286	1129.701	850.866
313.052	19.155	1128.926	849.560
314.066	18.973	1127.995	847.888
315.081	18.897	1126.719	846.479
316.095	18.965	1126.133	846.300
317.110	19.062	1125.062	845.899
318.125	19.093	1124.482	845.539
319.139	19.033	1123.944	844.762
320.154	18.997	1122.959	843.770
321.168	19.053	1122.317	843.489
322.183	18.965	1122.212	842.904
323.197	19.049	1121.667	842.835
324.212	19.048	1121.155	842.369
325.227	19.205	1120.100	842.269
326.241	19.206	1119.366	841.647
327.256	19.157	1118.484	840.673
328.270	19.204	1117.313	839.944
329.285	19.133	1116.791	839.134
330.300	19.115	1115.909	838.310
331.314	19.190	1115.046	837.952
332.329	19.142	1114.097	836.932
333.343	19.205	1112.928	836.285
334.358	19.279	1112.019	835.887
335.373	19.349	1111.424	835.702
336.387	19.315	1110.965	835.121
337.402	19.359	1110.194	834.677
338.416	19.348	1109.364	833.926
339.431	19.392	1109.060	833.840
340.446	19.574	1108.470	834.201
341.460	19.579	1107.829	833.667
342.475	19.609	1106.969	833.092
343.489	19.691	1106.227	832.856
344.504	19.889	1104.781	832.648
345.519	19.837	1104.226	831.904
346.533	19.859	1103.664	831.514
347.548	19.957	1102.751	831.219
348.562	19.934	1101.879	830.379
349.577	19.789	1101.100	829.023
350.592	19.582	1100.423	827.449
351.606	19.385	1100.083	826.175
352.621	19.456	1099.098	825.706
353.635	19.388	1098.158	824.600
354.650	19.574	1097.427	824.869
355.665	19.483	1097.350	824.302
356.679	19.523	1096.239	823.585
357.694	19.835	1095.267	824.267
358.708	19.791	1095.253	823.977
359.723	19.675	1094.701	822.933
360.738	19.769	1093.938	822.737
361.752	19.710	1093.471	822.031
362.767	19.774	1092.637	821.638
363.781	19.847	1092.207	821.586
364.796	19.888	1092.276	821.758
365.810	19.899	1091.279	820.991
366.825	20.136	1090.204	821.233
367.840	20.123	1090.297	821.167
368.854	20.195	1089.482	820.822
369.869	20.193	1088.894	820.295
370.883	20.153	1087.792	819.205
371.898	20.032	1086.982	817.950
372.913	20.080	1086.573	817.795
373.927	20.113	1086.005	817.452
374.942	20.144	1085.374	817.050
375.956	20.147	1085.134	816.814
376.971	20.140	1084.365	816.130
377.986	20.152	1083.588	815.527
379.000	20.329	1083.211	816.006
380.015	20.280	1082.665	815.292
381.029	20.274	1082.739	815.247
382.044	20.470	1081.451	815.123
383.059	20.336	1080.426	813.650
384.073	20.327	1079.803	813.066
385.088	20.306	1079.035	812.318
386.102	20.450	1077.767	811.967
387.117	20.357	1076.479	810.488
388.132	20.222	1075.520	809.065
389.146	20.160	1074.708	808.096
390.161	20.098	1074.293	807.424
391.175	20.146	1073.614	807.064
392.190	20.287	1072.834	807.063
393.205	20.359	1072.265	806.898
394.219	20.351	1071.491	806.206
395.234	20.308	1070.304	805.040
396.248	20.269	1069.347	804.070
397.263	20.257	1068.236	803.109
398.278	20.284	1067.497	802.609
399.292	20.084	1067.067	801.287
400.307	19.997	1066.313	800.249
401.321	20.054	1065.758	800.026
402.336	20.093	1065.217	799.730
403.350	20.092	1064.453	799.079
404.365	20.087	1063.646	798.381
405.380	20.335	1062.877	798.874
406.394	20.294	1062.266	798.153
407.409	20.471	1061.854	798.585
408.423	20.486	1061.282	798.157
409.438	20.588	1060.497	797.963
410.453	20.697	1059.883	797.928
411.467	20.630	1059.125	796.981
412.482	20.695	1058.310	796.593
413.496	20.795	1057.590	796.440
414.511	20.684	1057.492	795.788
415.526	20.827	1056.955	795.966
416.540	20.963	1056.536	796.202
417.555	20.832	1055.467	794.730
418.569	20.816	1055.208	794.390
419.584	20.732	1054.742	793.587
420.599	20.749	1054.395	793.334
421.613	155.338	1405.716	1797.343
422.628	142.549	1456.891	1797.418
