DTS Sentinel unit serial number:	SN413079Multiplexer serial number:	ORYXHardware model number:	OX4-SRSoftware version number:	ORYX F/W v4.00 Oryx Data Collector v3.7.2.0data status	okinstallation	princeton_trtdifferential loss correction	single-endedforward channel	channel 2reverse channel	N/Adate	2019/09/16time	00:07:34forward acquisition time	60.00reverse acquisition time	0.00gamma	496.2192k internal	0.2337k external	0.2337temperature offset calibration	0.9959default loss term (dB/km)	0.3790temperature slope calibration	1.0000multiplexer offset coefficient	1.0000multiplexer slope coefficient	1.0000fibre end	0.00T internal ref (°C)	27.78T ext. ref 1 (°C)	9.41T ext. ref 2 (°C)	21.75length (m)	temperature (°C)	Stokes	anti-Stokes-747.200	127.730	0.103	0.131
-746.185	240.087	0.050	0.084
-745.171	289.928	-0.125	0.228
-744.156	13.493	0.071	-0.055
-743.142	-200.000	0.013	0.091
-742.127	-83.415	-0.288	-0.093
-741.112	-153.297	0.262	0.018
-740.098	141.928	-0.028	0.037
-739.083	90.177	-0.168	0.189
-738.069	196.825	0.064	-0.097
-737.054	-87.675	-0.088	-0.027
-736.039	-83.701	-0.513	0.164
-735.025	60.642	0.145	0.144
-734.010	196.451	-0.109	-0.167
-732.996	-135.332	-0.205	0.025
-731.981	108.307	0.061	-0.073
-730.966	-200.000	0.056	-0.276
-729.952	-44.000	-0.031	-0.015
-728.937	-200.000	0.002	0.155
-727.923	171.369	-0.064	0.092
-726.908	-28.689	-0.379	-0.219
-725.894	55.304	-0.409	0.396
-724.879	-92.819	0.294	0.082
-723.864	-6.577	-0.432	0.295
-722.850	565.632	-0.122	-0.296
-721.835	51.335	0.198	-0.189
-720.821	115.854	0.204	-0.250
-719.806	100.860	-0.105	0.122
-718.791	800.000	0.091	-0.388
-717.777	-17.125	-0.132	0.084
-716.762	-22.278	0.358	-0.218
-715.748	-118.856	0.165	0.029
-714.733	181.748	0.149	0.220
-713.718	-160.737	-0.055	-0.003
-712.704	-161.160	-0.173	-0.009
-711.689	31.364	-0.098	0.084
-710.675	256.923	-0.104	0.180
-709.660	118.098	0.095	-0.117
-708.645	-6.218	-0.245	-0.168
-707.631	800.000	0.033	-0.098
-706.616	800.000	-0.041	-0.178
-705.602	273.976	-0.056	-0.100
-704.587	800.000	0.064	-0.211
-703.572	65.774	-0.149	-0.152
-702.558	-200.000	-0.079	-0.517
-701.543	-24.733	0.314	-0.187
-700.529	320.150	0.068	0.130
-699.514	-90.360	-0.177	-0.052
-698.499	-75.330	-0.022	-0.008
-697.485	-82.582	-0.389	-0.126
-696.470	-80.802	0.253	0.084
-695.456	239.534	-0.196	-0.327
-694.441	-200.000	0.013	0.121
-693.426	-200.000	-0.032	0.354
-692.412	800.000	0.095	-0.300
-691.397	800.000	0.116	-0.377
-690.383	92.319	0.085	-0.096
-689.368	183.498	0.191	0.283
-688.354	599.291	-0.135	0.335
-687.339	-64.915	0.208	-0.084
-686.324	66.499	-0.186	0.189
-685.310	37.599	0.043	-0.039
-684.295	-200.000	-0.011	-0.053
-683.281	-172.645	-0.352	-0.011
-682.266	800.000	-0.048	0.210
-681.251	-200.000	-0.008	-0.575
-680.237	109.047	-0.182	0.218
-679.222	73.274	-0.224	-0.235
-678.208	-38.328	-0.284	0.150
-677.193	55.409	-0.141	0.137
-676.178	11.747	0.263	-0.202
-675.164	-200.000	0.029	-0.370
-674.149	-134.840	0.228	-0.028
-673.135	-50.632	-0.266	0.125
-672.120	-130.331	0.140	-0.019
-671.105	-200.000	-0.004	0.179
-670.091	800.000	-0.122	-0.341
-669.076	328.317	-0.033	0.064
-668.062	800.000	-0.042	-0.176
-667.047	110.369	-0.049	0.059
-666.032	235.483	0.091	-0.150
-665.018	800.000	-0.110	-0.308
-664.003	-4.796	-0.179	0.123
-662.989	18.060	0.230	-0.184
-661.974	-20.652	-0.180	0.111
-660.959	181.232	-0.090	-0.132
-659.945	280.913	-0.271	-0.486
-658.930	-12.775	0.024	-0.016
-657.916	-28.133	-0.173	0.100
-656.901	84.103	-0.184	0.201
-655.886	234.901	-0.129	0.214
-654.872	117.655	-0.092	-0.113
-653.857	-163.666	-0.240	-0.011
-652.843	-96.802	0.054	0.014
-651.828	-200.000	0.043	-0.455
-650.814	-111.616	-0.328	-0.067
-649.799	-3.046	0.371	-0.259
-648.784	-29.521	0.308	-0.176
-647.770	800.000	-0.061	-0.230
-646.755	457.082	0.169	-0.376
-645.741	-200.000	0.020	0.133
-644.726	90.709	-0.065	-0.073
-643.711	-149.138	0.040	0.003
-642.697	384.985	-0.181	-0.373
-641.682	146.993	-0.023	-0.031
-640.668	-87.087	0.129	-0.039
-639.653	-2.198	-0.364	-0.255
-638.638	800.000	0.022	-0.087
-637.624	800.000	-0.049	0.170
-636.609	-168.371	0.304	-0.012
-635.595	46.133	0.140	-0.130
-634.580	-78.920	-0.637	0.217
-633.565	-200.000	0.016	-0.389
-632.551	-72.217	-0.418	-0.155
-631.536	132.328	0.114	-0.147
-630.522	-79.356	-0.250	-0.084
-629.507	304.784	-0.140	0.259
-628.492	340.820	-0.058	-0.113
-627.478	258.569	0.035	0.060
-626.463	352.048	0.020	-0.039
-625.449	54.329	0.151	0.145
-624.434	-65.438	-0.375	0.151
-623.419	224.646	-0.162	0.262
-622.405	-3.243	-0.189	-0.132
-621.390	21.450	0.187	-0.152
-620.376	-86.443	-0.330	0.101
-619.361	-19.779	-0.324	-0.200
-618.346	47.172	-0.036	-0.033
-617.332	-63.462	-0.210	0.086
-616.317	158.315	-0.062	0.085
-615.303	84.022	0.220	-0.240
-614.288	-200.000	0.011	-0.363
-613.273	-20.181	0.052	-0.032
-612.259	-200.000	-0.080	-0.371
-611.244	399.516	-0.081	-0.169
-610.230	-182.858	0.266	0.005
-609.215	-87.201	-0.227	-0.069
-608.201	-200.000	0.019	0.239
-607.186	-25.914	0.214	0.126
-606.171	-35.882	0.329	0.178
-605.157	74.458	-0.072	0.075
-604.142	-22.127	-0.294	0.178
-603.128	73.682	-0.067	0.071
-602.113	-105.127	0.084	-0.019
-601.098	179.526	0.066	-0.097
-600.084	119.463	-0.077	0.095
-599.069	17.072	-0.082	0.065
-598.055	11.446	-0.315	0.241
-597.040	74.430	0.104	0.109
-596.025	-121.454	-0.125	-0.021
-595.011	-190.353	0.233	-0.003
-593.996	39.537	-0.153	0.137
-592.982	-122.562	-0.209	0.034
-591.967	176.358	-0.104	0.150
-590.952	-16.599	-0.253	0.160
-589.938	701.417	0.044	0.115
-588.923	-200.000	0.016	-0.147
-587.909	-83.412	0.039	0.012
-586.894	-107.934	-0.109	-0.024
-585.879	-44.039	0.077	-0.039
-584.865	5.428	-0.214	-0.157
-583.850	2.628	-0.136	-0.098
-582.836	-124.665	0.282	0.044
-581.821	-107.907	-0.377	-0.082
-580.806	-16.927	0.083	0.052
-579.792	102.126	0.152	0.177
-578.777	-200.000	-0.046	-0.260
-577.763	390.994	-0.160	-0.332
-576.748	491.279	0.106	0.243
-575.733	16.318	0.158	0.124
-574.719	800.000	-0.060	-0.210
-573.704	1.102	-0.134	-0.096
-572.690	-149.914	0.196	0.015
-571.675	-200.000	-0.010	-0.174
-570.661	102.910	-0.208	-0.243
-569.646	-200.000	-0.026	0.225
-568.631	-58.930	-0.135	-0.058
-567.617	-78.963	-0.338	0.115
-566.602	-119.058	0.145	-0.025
-565.588	-43.169	0.020	-0.010
-564.573	-200.000	-0.006	0.033
-563.558	-200.000	0.051	0.320
-562.544	-103.940	-0.158	-0.037
-561.529	86.537	0.315	0.346
-560.515	682.061	0.025	0.066
-559.500	800.000	-0.033	0.096
-558.485	-144.817	-0.252	-0.023
-557.471	103.054	-0.114	-0.133
-556.456	-135.639	0.102	-0.012
-555.442	800.000	-0.013	0.050
-554.427	-200.000	0.048	0.252
-553.412	474.520	-0.232	0.521
-552.398	129.951	0.072	-0.092
-551.383	125.717	-0.089	0.112
-550.369	-200.000	0.009	0.049
-549.354	37.635	-0.129	0.114
-548.339	52.604	0.157	-0.149
-547.325	589.804	-0.118	-0.290
-546.310	223.864	-0.167	0.269
-545.296	-52.490	0.118	-0.054
-544.281	13.309	-0.296	-0.228
-543.266	-200.000	0.008	0.241
-542.252	53.909	0.250	-0.239
-541.237	-162.740	-0.223	0.011
-540.223	800.000	-0.057	0.207
-539.208	95.546	0.134	0.152
-538.193	-200.000	-0.018	0.133
-537.179	20.430	-0.261	0.210
-536.164	21.928	-0.035	0.028
-535.150	-133.253	0.286	-0.036
-534.135	800.000	-0.081	-0.348
-533.121	-85.165	-0.085	-0.026
-532.106	-159.278	-0.115	-0.006
-531.091	147.035	0.294	-0.393
-530.077	-174.323	-0.118	0.003
-529.062	508.010	-0.173	-0.399
-528.048	-69.054	0.345	-0.132
-527.033	221.563	0.160	-0.257
-526.018	23.547	-0.134	0.109
-525.004	-46.352	0.135	-0.066
-523.989	168.006	-0.209	-0.296
-522.975	155.696	0.118	-0.162
-521.960	-79.601	0.259	0.087
-520.945	-158.286	-0.389	0.023
-519.931	-19.407	0.221	-0.136
-518.916	800.000	0.101	-0.392
-517.902	345.208	-0.057	-0.111
-516.887	24.219	-0.228	0.187
-515.872	800.000	0.043	-0.125
-514.858	469.167	-0.086	-0.191
-513.843	-200.000	-0.001	0.031
-512.829	203.371	0.156	-0.240
-511.814	111.594	-0.102	-0.123
-510.799	320.175	-0.067	0.127
-509.785	-29.925	0.207	0.117
-508.770	-30.032	0.159	-0.090
-507.756	-50.350	0.113	-0.053
-506.741	-53.246	-0.186	-0.085
-505.726	-103.700	-0.310	0.072
-504.712	713.764	0.077	-0.202
-503.697	-76.171	-0.327	0.115
-502.683	-200.000	-0.022	-0.317
-501.668	-116.578	-0.223	0.041
-500.653	-200.000	0.039	0.319
-499.639	-200.000	0.011	0.232
-498.624	-18.827	0.186	-0.115
-497.610	-200.000	0.007	0.078
-496.595	-3.855	-0.104	0.072
-495.581	604.596	-0.040	0.099
-494.566	553.749	0.117	-0.280
-493.551	-15.024	0.355	-0.226
-492.537	-200.000	0.050	-0.307
-491.522	-128.527	0.137	0.019
-490.508	-91.763	-0.242	-0.068
-489.493	-200.000	0.005	0.191
-488.478	-73.409	-0.454	0.165
-487.464	800.000	0.023	0.089
-486.449	99.517	0.152	-0.175
-485.435	-200.000	0.078	0.428
-484.420	16.708	0.236	0.186
-483.405	154.467	-0.018	-0.025
-482.391	-200.000	-0.016	0.100
-481.376	57.775	-0.051	-0.050
-480.362	-160.611	-0.187	-0.010
-479.347	-200.000	0.038	-0.167
-478.332	509.667	-0.004	0.008
-477.318	38.559	0.273	0.242
-476.303	35.727	0.087	-0.076
-475.289	22.167	-0.088	-0.071
-474.274	159.939	0.078	-0.108
-473.259	66.243	0.185	-0.187
-472.245	-200.000	0.000	0.136
-471.230	25.427	-0.161	-0.133
-470.216	133.827	0.189	-0.243
-469.201	800.000	0.051	-0.177
-468.186	6.165	-0.200	-0.148
-467.172	315.941	0.075	-0.140
-466.157	260.837	-0.055	0.095
-465.143	-63.446	-0.423	-0.173
-464.128	20.927	0.440	0.354
-463.113	-200.000	-0.252	0.001
-462.099	490.551	0.089	0.203
-461.084	-15.837	-0.217	0.137
-460.070	24.049	0.216	0.177
-459.055	800.000	0.071	0.250
-458.040	-7.822	0.178	0.119
-457.026	800.000	0.063	0.244
-456.011	43.020	-0.242	0.220
-454.997	800.000	0.073	0.239
-453.982	800.000	0.089	0.333
-452.968	-21.767	0.180	-0.109
-451.953	397.016	-0.082	-0.171
-450.938	-85.897	0.168	0.052
-449.924	800.000	0.071	0.208
-448.909	280.432	0.103	-0.183
-447.895	-93.702	0.227	-0.062
-446.880	-141.320	0.053	0.005
-445.865	91.113	0.123	0.137
-444.851	-148.324	-0.164	-0.013
-443.836	-67.815	-0.097	0.038
-442.822	450.886	0.021	-0.046
-441.807	-200.000	0.004	-0.083
-440.792	800.000	0.075	0.299
-439.778	-141.686	-0.064	-0.006
-438.763	-1.358	0.482	0.338
-437.749	597.305	0.017	0.042
-436.734	-116.718	0.202	-0.037
-435.719	12.096	0.310	0.237
-434.705	-117.395	-0.149	-0.027
-433.690	5.481	0.200	-0.146
-432.676	-29.320	0.168	0.095
-431.661	-117.497	0.308	-0.055
-430.646	-155.602	-0.391	-0.025
-429.632	-200.000	-0.013	-0.291
-428.617	-103.155	-0.296	-0.069
-427.603	-49.392	-0.122	-0.058
-426.588	-48.137	0.460	-0.220
-425.573	-69.608	0.278	0.105
-424.559	106.753	0.146	0.171
-423.544	-87.730	0.237	-0.071
-422.530	139.616	0.191	0.250
-421.515	-200.000	0.022	-0.153
-420.500	284.754	-0.016	0.028
-419.486	-200.000	0.062	-0.378
-418.471	386.147	0.066	-0.136
-417.457	-138.038	0.094	-0.010
-416.442	-200.000	0.011	-0.055
-415.428	187.714	0.056	0.082
-414.413	-147.399	0.152	0.013
-413.398	-92.099	-0.130	0.037
-412.384	192.808	0.083	-0.124
-411.369	-200.000	0.020	-0.124
-410.355	-16.304	0.076	0.048
-409.340	786.252	0.056	-0.153
-408.325	800.000	-0.032	0.115
-407.311	-194.497	0.165	-0.001
-406.296	592.066	0.038	-0.094
-405.282	-200.000	-0.053	0.251
-404.267	-105.407	-0.183	0.041
-403.252	66.028	0.103	-0.104
-402.238	-133.376	-0.074	-0.009
-401.223	-148.315	0.129	-0.010
-400.209	800.000	-0.038	-0.127
-399.194	-200.000	-0.007	0.257
-398.179	-53.549	0.172	-0.078
-397.165	-79.944	-0.325	0.108
-396.150	-10.463	0.170	-0.112
-395.136	-78.911	-0.171	-0.058
-394.121	148.451	-0.245	0.327
-393.106	232.353	-0.077	0.125
-392.092	82.700	-0.124	-0.133
-391.077	760.343	-0.064	-0.172
-390.063	800.000	-0.061	-0.241
-389.048	-200.000	0.001	0.373
-388.033	100.522	0.306	-0.352
-387.019	-100.063	0.106	0.026
-386.004	-200.000	0.021	0.187
-384.990	-200.000	0.010	0.110
-383.975	-8.781	0.158	-0.105
-382.960	-37.575	0.011	0.006
-381.946	509.988	-0.131	-0.302
-380.931	198.504	0.289	-0.438
-379.917	-48.547	-0.208	0.099
-378.902	800.000	-0.036	0.144
-377.888	-48.117	-0.234	0.112
-376.873	800.000	0.022	0.087
-375.858	-200.000	0.003	0.092
-374.844	211.982	0.119	-0.185
-373.829	60.622	0.208	0.204
-372.815	370.032	-0.106	-0.212
-371.800	-103.505	-0.411	-0.096
-370.785	68.879	0.124	-0.126
-369.771	214.718	0.082	-0.128
-368.756	800.000	0.045	-0.126
-367.742	-68.734	0.222	0.085
-366.727	73.383	-0.191	0.198
-365.712	-102.557	-0.148	-0.035
-364.698	-123.789	-0.189	-0.030
-363.683	-163.909	-0.254	-0.012
-362.669	5.597	0.200	0.146
-361.654	-97.916	0.035	0.009
-360.639	66.078	-0.285	-0.286
-359.625	-75.385	0.236	0.083
-358.610	-68.921	0.015	-0.006
-357.596	-117.393	0.037	-0.007
-356.581	31.400	0.188	0.160
-355.566	-1.581	0.065	0.045
-354.552	447.897	-0.060	-0.132
-353.537	-31.052	0.392	-0.219
-352.523	-200.000	-0.023	-0.114
-351.508	-44.857	-0.160	-0.079
-350.493	-105.747	-0.245	0.055
-349.479	-137.025	0.201	-0.023
-348.464	112.756	-0.165	-0.197
-347.450	-108.479	0.248	0.053
-346.435	17.461	0.295	0.232
-345.420	800.000	-0.067	0.218
-344.406	-200.000	0.010	-0.057
-343.391	-54.520	0.282	0.126
-342.377	370.553	-0.098	-0.196
-341.362	16.577	-0.118	0.092
-340.348	119.329	0.262	-0.321
-339.333	388.547	-0.030	0.062
-338.318	-200.000	0.018	0.440
-337.304	-102.356	0.037	0.009
-336.289	-200.000	-0.043	-0.264
-335.275	-200.000	0.028	0.231
-334.260	-200.000	-0.258	0.001
-333.245	800.000	0.037	-0.155
-332.231	-124.017	0.170	0.026
-331.216	94.525	0.135	0.152
-330.202	21.867	0.228	0.183
-329.187	-15.977	0.101	-0.063
-328.172	-200.000	0.040	0.340
-327.158	236.552	0.071	-0.116
-326.143	588.759	0.054	0.132
-325.129	329.916	0.047	0.090
-324.114	1.071	-0.042	-0.030
-323.099	112.122	-0.111	-0.132
-322.085	-200.000	0.024	-0.146
-321.070	609.383	-0.054	-0.132
-320.056	-200.000	0.013	0.122
-319.041	800.000	0.042	0.177
-318.026	82.682	0.039	0.042
-317.012	-13.040	0.159	-0.102
-315.997	-200.000	0.033	-0.194
-314.983	49.223	-0.168	-0.156
-313.968	93.320	-0.218	0.243
-312.953	-63.460	-0.129	-0.053
-311.939	-200.000	0.045	0.424
-310.924	728.822	-0.059	0.156
-309.910	-20.743	-0.274	0.166
-308.895	-71.239	-0.060	0.022
-307.880	11.339	-0.124	0.093
-306.866	203.072	-0.023	-0.035
-305.851	-200.000	-0.011	0.125
-304.837	331.549	0.311	0.592
-303.822	-56.262	-0.158	0.069
-302.807	800.000	-0.112	0.474
-301.793	137.768	-0.059	0.076
-300.778	-200.000	0.033	-0.285
-299.764	-29.800	-0.246	-0.138
-298.749	128.094	-0.027	-0.034
-297.735	-54.911	-0.127	0.057
-296.720	-15.167	-0.142	-0.090
-295.705	-200.000	0.072	0.473
-294.691	-200.000	-0.018	0.090
-293.676	191.688	0.039	-0.057
-292.662	-46.566	-0.347	0.168
-291.647	42.203	-0.136	0.122
-290.632	1.192	-0.075	-0.053
-289.618	346.245	0.055	0.106
-288.603	-110.883	0.046	-0.009
-287.589	-8.784	0.365	-0.241
-286.574	-200.000	-0.065	0.400
-285.559	51.902	0.187	0.175
-284.545	-117.130	0.160	-0.029
-283.530	772.670	-0.032	-0.086
-282.516	-4.212	-0.253	0.173
-281.501	-200.000	0.020	0.155
-280.486	-92.052	0.062	0.017
-279.472	26.901	0.253	0.209
-278.457	-94.931	0.052	-0.014
-277.443	-81.500	0.159	-0.051
-276.428	441.602	0.158	-0.341
-275.413	-133.453	0.333	0.041
-274.399	127.438	-0.171	-0.214
-273.384	44.598	-0.231	0.210
-272.370	-65.838	0.295	-0.116
-271.355	-200.000	-0.036	-0.170
-270.340	104.740	-0.071	0.082
-269.326	-141.586	-0.488	0.049
-268.311	13.896	0.078	0.060
-267.297	-97.462	-0.145	-0.037
-266.282	-200.000	-0.071	-0.418
-265.267	-129.158	0.155	0.021
-264.253	187.126	0.067	0.098
-263.238	-200.000	0.005	0.158
-262.224	316.463	-0.126	0.235
-261.209	-152.089	0.534	-0.038
-260.195	-161.170	0.207	0.011
-259.180	-24.223	0.302	-0.177
-258.165	-200.000	0.013	0.228
-257.151	-135.758	0.287	0.033
-256.136	65.146	-0.186	-0.185
-255.122	-68.301	-0.129	-0.049
-254.107	-106.831	0.222	0.048
-253.092	-78.596	0.188	-0.063
-252.078	-117.314	-0.253	0.045
-251.063	-66.313	-0.209	-0.082
-250.049	800.000	-0.048	-0.206
-249.034	282.421	-0.108	-0.191
-248.019	-160.626	-0.356	0.019
-247.005	5.961	-0.045	0.033
-245.990	-71.383	0.213	0.079
-244.976	179.263	0.064	0.092
-243.961	117.588	-0.131	-0.159
-242.946	29.939	-0.246	-0.207
-241.932	46.774	0.090	-0.083
-240.917	82.761	0.124	-0.133
-239.903	81.294	-0.457	0.486
-238.888	800.000	-0.084	0.287
-237.873	57.925	-0.110	0.106
-236.859	-80.730	-0.389	-0.127
-235.844	160.427	0.115	-0.158
-234.830	181.898	0.066	0.096
-233.815	194.515	0.274	0.409
-232.800	-47.513	-0.103	0.049
-231.786	259.271	-0.074	-0.125
-230.771	-170.152	0.233	-0.008
-229.757	800.000	0.196	0.550
-228.742	-65.899	0.135	0.053
-227.727	-200.000	-0.034	0.280
-226.713	80.256	0.230	0.243
-225.698	615.329	-0.025	-0.062
-224.684	-84.434	-0.350	0.109
-223.669	-118.900	0.056	0.010
-222.655	-200.000	-0.007	0.065
-221.640	37.430	-0.246	-0.214
-220.625	-117.714	-0.056	0.010
-219.611	800.000	-0.074	0.205
-218.596	-200.000	0.006	-0.098
-217.582	-104.733	0.091	0.021
-216.567	-166.091	-0.184	-0.008
-215.552	800.000	-0.101	-0.308
-214.538	-100.923	-0.515	-0.124
-213.523	-51.374	0.463	0.213
-212.509	103.103	-0.238	0.274
-211.494	-146.302	0.155	0.013
-210.479	67.325	0.190	0.191
-209.465	-32.184	-0.219	0.120
-208.450	-78.182	0.107	-0.036
-207.436	431.365	0.078	-0.167
-206.421	-82.067	0.223	-0.072
-205.406	57.256	-0.123	-0.118
-204.392	504.357	0.037	-0.084
-203.377	-200.000	-0.031	0.163
-202.363	45.172	0.290	-0.262
-201.348	326.058	-0.085	0.160
-200.333	271.984	0.043	-0.074
-199.319	-200.000	0.030	0.202
-198.304	76.049	-0.017	0.017
-197.290	-200.000	-0.035	-0.277
-196.275	285.239	-0.075	0.132
-195.260	85.802	-0.315	-0.341
-194.246	-52.557	0.151	-0.069
-193.231	-5.894	0.112	0.075
-192.217	31.511	-0.083	-0.070
-191.202	55.081	-0.201	-0.191
-190.187	-99.063	0.345	-0.086
-189.173	-200.000	0.075	0.610
-188.158	-48.324	0.333	0.158
-187.144	26.641	-0.126	-0.103
-186.129	23.035	0.076	0.062
-185.114	-200.000	-0.025	-0.121
-184.100	-86.707	0.051	-0.015
-183.085	74.945	-0.219	0.227
-182.071	112.090	-0.038	-0.045
-181.056	-131.977	0.204	-0.026
-180.042	-5.091	0.093	0.063
-179.027	651.635	0.121	-0.303
-178.012	-200.000	0.019	-0.156
-176.998	-136.116	-0.064	0.007
-175.983	-8.624	-0.274	-0.181
-174.969	-113.301	0.195	0.038
-173.954	-200.000	-0.016	0.102
-172.939	181.431	0.255	0.368
-171.925	163.097	0.116	-0.159
-170.910	-115.505	0.182	-0.034
-169.896	-52.326	-0.261	-0.118
-168.881	53.156	0.129	-0.121
-167.866	-145.789	0.114	0.010
-166.852	800.000	-0.186	-0.630
-165.837	-101.792	0.153	-0.036
-164.823	-7.896	-0.229	-0.152
-163.808	-11.422	0.303	0.196
-162.793	55.573	-0.060	0.057
-161.779	-91.490	0.140	0.039
-160.764	800.000	0.109	-0.353
-159.750	-153.128	0.037	0.003
-158.735	-43.930	0.063	0.031
-157.720	70.862	-0.202	-0.205
-156.706	800.000	-0.040	0.140
-155.691	523.184	0.105	-0.242
-154.677	47.541	-0.264	-0.242
-153.662	60.382	-0.090	0.087
-152.647	-122.622	-0.228	0.036
-151.633	-101.006	-0.166	-0.040
-150.618	-49.179	-0.204	-0.096
-149.604	137.463	-0.178	-0.228
-148.589	412.597	-0.111	0.231
-147.574	253.637	-0.133	0.223
-146.560	74.435	0.067	-0.069
-145.545	-200.000	-0.052	-0.424
-144.531	460.527	0.114	-0.248
-143.516	73.149	-0.026	0.027
-142.502	-29.572	0.200	0.112
-141.487	-46.212	0.287	0.139
-140.472	-100.318	0.178	0.043
-139.458	-200.000	-0.007	-0.163
-138.443	-123.523	-0.174	0.027
-137.429	-43.686	0.227	0.112
-136.414	800.000	-0.031	0.130
-135.399	34.362	0.260	-0.223
-134.385	697.113	-0.145	0.372
-133.370	-97.805	-0.364	-0.092
-132.356	-39.760	-0.298	0.153
-131.341	-200.000	-0.011	-0.057
-130.326	211.831	0.223	-0.344
-129.312	113.304	0.137	-0.163
-128.297	50.633	-0.200	-0.185
-127.283	261.627	0.029	-0.049
-126.268	284.159	-0.389	0.686
-125.253	85.382	0.173	-0.186
-124.239	-74.633	0.350	-0.123
-123.224	-69.413	-0.454	-0.171
-122.210	800.000	-0.101	0.294
-121.195	-166.527	-0.280	0.011
-120.180	0.125	0.103	0.072
-119.166	800.000	0.118	-0.383
-118.151	-39.274	0.290	-0.149
-117.137	800.000	0.038	0.144
-116.122	406.713	0.132	0.274
-115.107	-13.717	-0.244	0.155
-114.093	-147.599	-0.070	0.006
-113.078	13.965	-0.069	-0.053
-112.064	-200.000	-0.008	0.091
-111.049	-90.614	-0.238	0.068
-110.034	-200.000	-0.040	-0.261
-109.020	-90.965	0.140	-0.040
-108.005	-181.435	0.427	-0.008
-106.991	24.599	-0.380	-0.308
-105.976	78.975	0.113	-0.119
-104.962	-200.000	0.026	0.132
-103.947	-183.838	-0.136	-0.002
-102.932	325.704	-0.099	0.185
-101.918	-200.000	-0.031	0.182
-100.903	-57.977	-0.282	0.121
-99.889	224.747	-0.164	-0.259
-98.874	169.481	0.147	0.206
-97.859	59.782	0.033	0.031
-96.845	-89.643	0.080	0.023
-95.830	40.375	-0.138	-0.121
-94.816	-200.000	0.028	-0.204
-93.801	-156.263	0.234	0.014
-92.786	51.475	-0.099	-0.093
-91.772	-39.914	-0.210	0.107
-90.757	334.860	-0.079	0.150
-89.743	-200.000	0.038	-0.285
-88.728	-200.000	-0.016	0.233
-87.713	-95.416	0.316	-0.083
-86.699	-200.000	-0.001	0.151
-85.684	-200.000	-0.051	0.291
-84.670	381.084	0.070	0.140
-83.655	-200.000	0.004	-0.033
-82.640	-121.167	-0.275	0.045
-81.626	-74.255	-0.215	0.076
-80.611	-69.844	0.165	0.062
-79.597	-200.000	0.023	-0.112
-78.582	-200.000	0.023	-0.155
-77.567	-110.230	0.185	0.038
-76.553	-200.000	0.039	-0.250
-75.538	335.077	0.155	-0.294
-74.524	-63.060	0.226	-0.091
-73.509	163.039	-0.154	-0.212
-72.494	364.858	0.060	-0.118
-71.480	101.969	-0.134	-0.152
-70.465	569.087	0.043	-0.101
-69.451	-28.041	0.273	0.154
-68.436	800.000	-0.053	-0.200
-67.422	-3.421	-0.067	0.045
-66.407	-141.090	-0.224	-0.022
-65.392	-200.000	0.080	-0.386
-64.378	-46.792	0.154	0.073
-63.363	-123.473	0.442	-0.069
-62.349	154.906	-0.140	0.187
-61.334	34.504	-1.005	-0.858
-60.319	196.244	0.482	0.718
-59.305	366.062	-0.552	-1.087
-58.290	196.014	0.891	1.324
-57.276	791.367	0.540	1.452
-56.261	-200.000	112.065	646.654
-55.246	490.151	1487.047	3323.998
-54.232	150.157	2658.799	3525.646
-53.217	98.646	2273.932	2563.178
-52.203	36.785	1891.492	1633.421
-51.188	30.960	1685.703	1411.690
-50.173	28.463	1643.844	1358.109
-49.159	50.428	1698.753	1569.239
-48.144	49.459	1713.125	1575.180
-47.130	30.591	1671.863	1397.100
-46.115	27.880	1657.636	1364.933
-45.100	27.708	1652.580	1359.432
-44.086	27.633	1650.537	1357.135
-43.071	27.629	1648.057	1355.018
-42.057	27.546	1645.798	1352.488
-41.042	27.658	1643.345	1351.250
-40.027	27.640	1641.703	1349.715
-39.013	27.625	1639.805	1347.984
-37.998	27.599	1638.437	1346.618
-36.984	27.644	1637.273	1345.939
-35.969	27.794	1635.678	1345.683
-34.954	27.871	1633.363	1344.292
-33.940	27.703	1631.677	1341.611
-32.925	27.794	1629.925	1340.791
-31.911	27.744	1628.447	1339.151
-30.896	27.734	1626.957	1337.801
-29.881	27.699	1625.263	1336.098
-28.867	27.801	1623.276	1335.154
-27.852	27.813	1621.497	1333.729
-26.838	27.724	1620.585	1332.277
-25.823	27.828	1618.790	1331.509
-24.809	27.744	1618.529	1330.626
-23.794	27.786	1616.719	1329.389
-22.779	27.852	1615.044	1328.442
-21.765	27.895	1612.992	1327.014
-20.750	27.702	1612.466	1325.123
-19.736	27.871	1610.254	1324.483
-18.721	27.851	1609.120	1323.354
-17.706	27.817	1607.656	1321.850
-16.692	27.765	1606.912	1320.810
-15.677	27.790	1605.031	1319.392
-14.663	27.884	1603.668	1318.893
-13.648	27.843	1602.504	1317.592
-12.633	27.825	1600.770	1315.983
-11.619	27.894	1598.910	1314.901
-10.604	27.708	1598.336	1313.034
-9.590	27.821	1596.558	1312.332
-8.575	27.825	1595.459	1311.408
-7.560	27.830	1594.249	1310.394
-6.546	27.896	1593.009	1309.800
-5.531	27.830	1592.068	1308.504
-4.517	27.824	1590.444	1307.074
-3.502	27.929	1589.771	1307.214
-2.487	27.959	1587.989	1305.917
-1.473	27.505	1576.443	1293.148
-0.458	24.619	1556.861	1256.764
0.556	18.980	1558.442	1225.076
1.571	16.762	1580.785	1226.486
2.586	16.328	1593.451	1233.030
3.600	15.575	1542.975	1188.546
4.615	12.887	1445.236	1095.325
5.629	10.006	1390.370	1035.211
6.644	9.489	1383.322	1026.577
7.659	9.474	1382.333	1025.656
8.673	9.298	1381.277	1023.666
9.688	9.369	1378.787	1022.180
10.702	9.278	1375.838	1019.326
11.717	10.613	1377.412	1028.873
12.731	14.006	1383.058	1054.562
13.746	16.917	1387.400	1076.283
14.761	17.290	1387.222	1078.417
15.775	16.328	1385.136	1070.605
16.790	15.390	1381.937	1062.100
17.804	14.449	1379.789	1054.405
18.819	14.121	1377.956	1050.837
19.834	13.794	1377.182	1048.092
20.848	13.534	1376.209	1045.619
21.863	13.337	1374.405	1042.915
22.877	13.217	1373.011	1041.009
23.892	13.188	1371.856	1039.855
24.907	13.217	1371.265	1039.499
25.921	13.153	1370.868	1038.706
26.936	13.262	1369.412	1038.192
27.950	13.201	1368.890	1037.322
28.965	13.260	1367.589	1036.614
29.980	13.375	1366.670	1036.544
30.994	13.348	1365.604	1035.478
32.009	13.434	1364.372	1034.987
33.023	13.466	1362.705	1033.835
34.038	13.420	1361.254	1032.352
35.053	13.258	1360.543	1030.716
36.067	13.247	1359.279	1029.599
37.082	13.332	1357.795	1028.912
38.096	13.383	1356.882	1028.443
39.111	13.313	1356.273	1027.455
40.126	13.333	1355.333	1026.776
41.140	13.160	1354.606	1025.061
42.155	13.053	1353.967	1023.825
43.169	13.068	1353.918	1023.790
44.184	13.078	1353.290	1023.288
45.199	13.059	1352.975	1022.838
46.213	13.131	1352.612	1022.922
47.228	13.280	1351.633	1023.014
48.242	13.217	1350.197	1021.448
49.257	13.282	1348.606	1020.553
50.271	13.228	1347.022	1018.931
51.286	13.167	1346.443	1018.025
52.301	13.216	1344.977	1017.132
53.315	13.202	1344.076	1016.271
54.330	13.202	1343.023	1015.388
55.344	13.065	1341.275	1013.135
56.359	13.117	1340.808	1013.010
57.374	13.093	1340.095	1012.238
58.388	12.960	1338.976	1010.488
59.403	12.987	1338.711	1010.363
60.417	13.066	1337.570	1009.896
61.432	13.004	1336.890	1008.914
62.447	13.029	1336.098	1008.379
63.461	12.994	1334.723	1007.038
64.476	12.996	1333.486	1006.028
65.490	13.089	1331.986	1005.372
66.505	12.899	1330.954	1003.351
67.520	12.979	1329.604	1002.727
68.534	13.055	1328.561	1002.318
69.549	13.001	1328.054	1001.516
70.563	12.987	1326.874	1000.452
71.578	12.948	1325.538	999.123
72.593	12.886	1324.918	998.191
73.607	12.925	1324.027	997.667
74.622	12.860	1322.953	996.376
75.636	12.922	1322.365	996.218
76.651	12.842	1322.355	995.639
77.666	12.903	1321.489	995.270
78.680	13.091	1320.286	995.407
79.695	12.969	1320.165	994.496
80.709	13.008	1319.185	993.900
81.724	13.068	1318.444	993.615
82.739	13.133	1317.900	993.513
83.753	13.085	1317.028	992.475
84.768	13.249	1315.516	992.235
85.782	13.198	1314.426	991.016
86.797	13.271	1313.171	990.424
87.812	13.147	1312.054	988.748
88.826	13.217	1310.958	988.256
89.841	13.141	1309.891	986.908
90.855	13.356	1308.557	987.097
91.870	13.310	1307.747	986.130
92.884	13.263	1307.332	985.445
93.899	13.282	1306.378	984.753
94.914	13.384	1305.598	984.683
95.928	13.359	1304.428	983.569
96.943	13.343	1303.534	982.712
97.957	13.333	1302.658	981.903
98.972	13.369	1301.613	981.245
99.987	13.252	1300.597	979.695
101.001	13.330	1299.499	979.246
102.016	13.296	1298.409	978.137
103.030	13.276	1297.716	977.408
104.045	13.395	1296.577	977.166
105.060	13.287	1295.737	975.812
106.074	13.163	1294.036	973.713
107.089	13.047	1292.947	972.122
108.103	13.072	1291.129	970.819
109.118	13.064	1290.171	969.967
110.133	13.024	1289.247	968.951
111.147	13.107	1287.752	968.228
112.162	13.039	1286.522	966.818
113.176	13.017	1285.760	966.034
114.191	13.265	1284.322	966.317
115.206	13.142	1282.960	964.488
116.220	13.112	1281.938	963.461
117.235	13.125	1281.040	962.777
118.249	13.125	1279.987	961.898
119.264	13.255	1278.725	961.618
120.279	13.152	1277.509	960.021
121.293	12.988	1277.352	958.866
122.308	13.097	1275.678	958.156
123.322	12.948	1275.444	957.029
124.337	13.049	1273.768	956.275
125.352	13.088	1272.630	955.559
126.366	13.024	1271.121	953.973
127.381	12.977	1271.177	953.663
128.395	13.066	1269.076	952.511
129.410	13.092	1268.380	952.057
130.424	12.992	1268.250	951.297
131.439	13.049	1266.858	950.496
132.454	13.136	1265.577	949.955
133.468	13.186	1264.985	949.713
134.483	13.132	1264.042	948.611
135.497	13.172	1263.171	948.100
136.512	13.136	1261.662	946.676
137.527	13.192	1260.120	945.761
138.541	13.185	1258.944	944.754
139.556	13.143	1257.594	943.419
140.570	13.300	1256.875	943.689
141.585	13.393	1255.045	942.763
142.600	13.324	1254.120	941.589
143.614	13.362	1253.796	941.478
144.629	13.404	1252.706	940.817
145.643	13.319	1251.398	939.271
146.658	13.304	1249.928	938.001
147.673	13.360	1248.248	936.973
148.687	13.209	1247.911	935.780
149.702	13.255	1245.940	934.478
150.716	13.208	1244.829	933.298
151.731	13.264	1243.244	932.343
152.746	13.246	1242.455	931.570
153.760	13.290	1241.369	930.921
154.775	13.426	1240.224	930.742
155.789	13.306	1239.158	929.184
156.804	13.403	1237.973	928.762
157.819	13.468	1236.840	928.192
158.833	13.481	1236.002	927.556
159.848	13.526	1235.227	927.143
160.862	13.522	1234.486	926.481
161.877	13.415	1232.982	924.671
162.892	13.440	1231.479	923.601
163.906	13.381	1231.245	923.016
164.921	13.367	1230.272	922.127
165.935	13.368	1229.578	921.531
166.950	13.325	1229.163	920.899
167.964	13.487	1227.972	920.827
168.979	13.473	1227.215	920.102
169.994	13.467	1226.510	919.457
171.008	13.520	1225.579	918.971
172.023	13.569	1225.075	918.782
173.037	13.549	1224.403	918.091
174.052	13.594	1223.314	917.438
175.067	13.539	1221.911	916.003
176.081	13.501	1220.929	914.974
177.096	13.460	1220.148	914.081
178.110	13.435	1219.261	913.201
179.125	13.437	1218.071	912.236
180.140	13.512	1216.430	911.339
181.154	13.634	1215.257	911.050
182.169	13.608	1214.251	910.077
183.183	13.646	1213.150	909.377
184.198	13.650	1212.037	908.483
185.213	13.620	1211.036	907.488
186.227	13.710	1209.636	906.854
187.242	13.716	1208.972	906.307
188.256	13.707	1207.928	905.394
189.271	13.726	1206.704	904.499
190.286	13.585	1205.824	902.994
191.300	13.513	1205.085	901.966
192.315	13.412	1204.323	900.766
193.329	13.440	1203.890	900.517
194.344	13.489	1202.866	899.940
195.359	13.595	1202.483	900.147
196.373	13.612	1202.191	899.941
197.388	13.800	1201.214	900.149
198.402	13.821	1201.092	900.092
199.417	14.015	1199.973	900.226
200.432	14.034	1199.338	899.774
201.446	13.899	1199.024	898.727
202.461	14.095	1197.487	898.552
203.475	14.072	1196.922	897.926
204.490	13.986	1195.203	896.093
205.504	13.785	1194.339	894.285
206.519	13.857	1193.188	893.730
207.534	13.848	1192.144	892.823
208.548	13.873	1191.158	892.139
209.563	13.947	1190.259	891.785
210.577	13.878	1189.207	890.545
211.592	14.045	1188.226	890.630
212.607	14.018	1187.483	889.848
213.621	14.097	1186.749	889.639
214.636	14.083	1185.523	888.569
215.650	14.111	1184.254	887.690
216.665	14.101	1183.901	887.292
217.680	14.233	1182.799	887.093
218.694	14.222	1182.157	886.469
219.709	14.203	1181.197	885.573
220.723	14.194	1180.619	885.012
221.738	14.237	1179.690	884.469
222.753	14.210	1179.217	883.890
223.767	14.148	1178.752	883.134
224.782	14.236	1178.330	883.207
225.796	14.283	1177.678	882.890
226.811	14.349	1176.343	882.160
227.826	14.235	1175.838	881.103
228.840	14.329	1175.269	881.093
229.855	14.258	1174.403	879.993
230.869	14.208	1173.795	879.192
231.884	14.224	1172.807	878.461
232.899	14.309	1171.600	877.924
233.913	14.299	1171.109	877.428
234.928	14.293	1170.155	876.604
235.942	14.269	1169.523	875.925
236.957	14.313	1168.703	875.468
237.972	14.165	1168.157	874.201
238.986	14.267	1167.426	874.112
240.001	14.319	1166.871	873.894
241.015	14.226	1166.381	872.962
242.030	14.354	1165.141	872.626
243.045	14.322	1164.423	871.845
244.059	14.395	1163.816	871.692
245.074	14.415	1163.004	871.112
246.088	14.368	1162.180	870.174
247.103	14.565	1161.278	870.451
248.117	14.404	1160.759	869.141
249.132	14.609	1160.282	869.777
250.147	14.725	1159.246	869.529
251.161	14.750	1158.609	869.102
252.176	14.675	1158.024	868.199
253.190	14.781	1157.354	868.170
254.205	14.763	1156.839	867.611
255.220	14.860	1155.787	867.252
256.234	14.758	1156.054	866.843
257.249	14.917	1154.656	866.545
258.263	14.765	1154.254	865.377
259.278	14.808	1153.465	864.932
260.293	14.873	1153.293	865.063
261.307	14.866	1152.703	864.507
262.322	14.953	1151.675	864.109
263.336	15.002	1151.017	863.793
264.351	15.016	1150.121	863.117
265.366	14.946	1150.001	862.587
266.380	15.011	1149.158	862.214
267.395	15.007	1148.410	861.555
268.409	14.998	1147.519	860.767
269.424	14.925	1146.845	859.811
270.439	14.861	1146.658	859.265
271.453	14.971	1145.290	858.727
272.468	14.917	1144.723	857.949
273.482	14.775	1144.324	856.845
274.497	14.940	1143.625	857.091
275.512	14.966	1143.028	856.703
276.526	15.080	1141.671	856.190
277.541	14.981	1141.202	855.256
278.555	15.014	1140.566	854.875
279.570	14.969	1140.328	854.390
280.585	15.185	1138.954	854.389
281.599	15.121	1137.951	853.233
282.614	15.152	1136.903	852.528
283.628	15.122	1135.745	851.434
284.643	15.073	1135.316	850.789
285.657	15.193	1134.220	850.498
286.672	15.131	1133.649	849.685
287.687	15.111	1132.570	848.699
288.701	15.142	1132.110	848.433
289.716	15.236	1131.428	848.324
290.730	15.282	1130.130	847.511
291.745	15.314	1129.500	847.121
292.760	15.217	1128.858	846.076
293.774	15.192	1128.597	845.678
294.789	15.381	1127.975	846.094
295.803	15.371	1127.457	845.580
296.818	15.434	1126.278	844.937
297.833	15.385	1125.148	843.768
298.847	15.187	1125.133	842.684
299.862	15.461	1124.010	843.148
300.876	15.389	1123.015	841.965
301.891	15.525	1122.707	842.344
302.906	15.450	1122.388	841.651
303.920	15.486	1121.376	840.997
304.935	15.557	1120.754	840.815
305.949	15.527	1120.371	840.302
306.964	15.615	1119.106	839.718
307.979	15.532	1118.568	838.826
308.993	15.538	1118.020	838.371
310.008	15.669	1116.937	838.138
311.022	15.638	1116.302	837.433
312.037	15.609	1115.795	836.834
313.052	15.620	1114.720	836.007
314.066	15.530	1113.565	834.618
315.081	15.448	1113.338	833.967
316.095	15.484	1112.323	833.311
317.110	15.462	1111.743	832.698
318.125	15.564	1110.614	832.282
319.139	15.598	1110.076	831.975
320.154	15.632	1109.442	831.591
321.168	15.551	1108.953	830.752
322.183	15.549	1107.832	829.828
323.197	15.585	1107.465	829.659
324.212	15.618	1106.636	829.128
325.227	15.672	1106.392	829.137
326.241	15.557	1105.709	827.985
327.256	15.563	1104.708	827.193
328.270	15.652	1103.974	827.008
329.285	15.509	1103.396	825.795
330.300	15.564	1102.017	824.962
331.314	15.618	1101.022	824.408
332.329	15.696	1100.338	824.208
333.343	15.702	1099.425	823.479
334.358	15.772	1098.424	823.001
335.373	15.672	1098.312	822.353
336.387	15.749	1097.436	822.000
337.402	15.803	1096.367	821.393
338.416	15.776	1095.869	820.811
339.431	15.868	1095.011	820.548
340.446	15.838	1095.173	820.450
341.460	16.052	1093.709	820.323
342.475	16.002	1092.749	819.284
343.489	16.102	1092.161	819.257
344.504	16.111	1091.190	818.502
345.519	16.110	1090.305	817.761
346.533	16.137	1089.603	817.294
347.548	16.160	1089.115	816.968
348.562	16.176	1088.306	816.362
349.577	16.105	1087.474	815.325
350.592	15.914	1086.908	813.904
351.606	15.964	1085.816	813.257
352.621	15.966	1085.497	812.955
353.635	15.959	1084.918	812.414
354.650	16.025	1083.840	811.855
355.665	16.042	1083.211	811.392
356.679	16.093	1082.604	811.113
357.694	16.049	1082.268	810.578
358.708	16.151	1081.511	810.427
359.723	16.081	1081.079	809.696
360.738	16.146	1080.337	809.383
361.752	16.138	1079.344	808.529
362.767	16.198	1078.824	808.355
363.781	16.198	1078.051	807.704
364.796	16.296	1077.887	807.977
365.810	16.374	1077.344	807.873
366.825	16.307	1076.758	807.043
367.840	16.451	1076.328	807.337
368.854	16.483	1075.673	806.924
369.869	16.594	1074.423	806.444
370.883	16.493	1073.935	805.529
371.898	16.418	1072.665	804.146
372.913	16.503	1072.256	804.172
373.927	16.437	1072.198	803.745
374.942	16.514	1071.760	803.711
375.956	16.467	1070.958	802.817
376.971	16.421	1070.719	802.347
377.986	16.584	1070.138	802.613
379.000	16.571	1069.403	801.931
380.015	16.710	1068.778	802.047
381.029	16.603	1068.321	801.126
382.044	16.713	1067.041	800.619
383.059	16.708	1066.687	800.258
384.073	16.757	1065.651	799.639
385.088	16.722	1065.099	798.991
386.102	16.653	1064.274	797.972
387.117	16.722	1063.072	797.328
388.132	16.684	1062.054	796.315
389.146	16.500	1061.669	795.091
390.161	16.577	1061.024	794.900
391.175	16.707	1060.135	794.772
392.190	16.670	1059.625	794.147
393.205	16.820	1058.785	794.150
394.219	16.839	1057.829	793.451
395.234	16.758	1057.068	792.431
396.248	16.778	1055.562	791.325
397.263	16.808	1054.622	790.693
398.278	16.783	1054.104	790.116
399.292	16.624	1053.973	789.206
400.307	16.569	1052.802	788.006
401.321	16.673	1052.467	788.170
402.336	16.689	1051.699	787.597
403.350	16.621	1050.975	786.668
404.365	16.717	1050.424	786.633
405.380	16.727	1049.802	786.146
406.394	16.810	1048.622	785.576
407.409	16.869	1048.362	785.584
408.423	16.904	1047.742	785.215
409.438	17.017	1046.725	784.902
410.453	17.110	1045.754	784.538
411.467	17.070	1045.013	783.727
412.482	17.182	1044.309	783.647
413.496	17.262	1043.690	783.483
414.511	17.142	1043.607	782.798
415.526	17.207	1043.091	782.637
416.540	17.317	1042.602	782.712
417.555	17.251	1041.994	781.881
418.569	17.208	1041.685	781.383
419.584	17.334	1040.978	781.362
420.599	17.349	1040.482	780.988
421.613	104.884	1325.818	1477.857
422.628	96.251	1367.336	1477.957
