DTS Sentinel unit serial number:	SN413079Multiplexer serial number:	ORYXHardware model number:	OX4-SRSoftware version number:	ORYX F/W v4.00 Oryx Data Collector v3.7.2.0data status	okinstallation	princeton_trtdifferential loss correction	single-endedforward channel	channel 2reverse channel	N/Adate	2019/09/14time	20:31:35forward acquisition time	60.00reverse acquisition time	0.00gamma	496.2192k internal	0.2322k external	0.2322temperature offset calibration	1.0092default loss term (dB/km)	0.3790temperature slope calibration	1.0000multiplexer offset coefficient	1.0000multiplexer slope coefficient	1.0000fibre end	0.00T internal ref (°C)	33.52T ext. ref 1 (°C)	4.86T ext. ref 2 (°C)	28.12length (m)	temperature (°C)	Stokes	anti-Stokes-747.200	-12.746	-0.103	-0.068
-746.185	-200.000	0.068	0.328
-745.171	-125.810	-0.297	-0.045
-744.156	-189.267	0.312	0.004
-743.142	800.000	-0.102	0.361
-742.127	68.857	-0.029	0.030
-741.112	676.790	0.074	0.194
-740.098	-69.155	0.182	-0.071
-739.083	33.510	0.149	-0.131
-738.069	711.035	-0.107	0.285
-737.054	-85.894	0.245	-0.077
-736.039	-200.000	0.002	0.028
-735.025	-52.962	0.248	-0.115
-734.010	-89.555	-0.190	-0.056
-732.996	-111.425	0.131	-0.027
-731.981	271.570	-0.101	-0.180
-730.966	-71.016	-0.579	-0.220
-729.952	-110.379	-0.453	0.095
-728.937	-200.000	0.046	0.347
-727.923	370.137	-0.142	-0.290
-726.908	-135.024	0.299	-0.036
-725.894	373.029	0.039	0.080
-724.879	122.681	-0.029	0.037
-723.864	35.372	-0.249	-0.221
-722.850	-70.164	-0.056	0.021
-721.835	170.923	-0.089	0.129
-720.821	472.760	0.137	-0.311
-719.806	41.037	0.128	0.116
-718.791	406.466	-0.065	0.139
-717.777	74.609	0.163	-0.173
-716.762	126.393	-0.054	0.069
-715.748	-58.521	-0.317	0.139
-714.733	112.943	-0.134	-0.165
-713.718	43.013	0.303	-0.279
-712.704	800.000	-0.082	-0.238
-711.689	800.000	0.102	-0.309
-710.675	-121.131	-0.365	0.062
-709.660	-200.000	-0.006	0.045
-708.645	-126.303	0.218	0.033
-707.631	-200.000	-0.016	-0.283
-706.616	108.083	-0.192	-0.232
-705.602	-143.970	0.269	0.026
-704.587	800.000	-0.020	-0.060
-703.572	-21.241	-0.229	-0.141
-702.558	800.000	-0.046	0.177
-701.543	-186.367	0.284	-0.004
-700.529	-106.644	-0.294	0.066
-699.514	-200.000	0.071	-0.379
-698.499	-38.110	-0.353	0.189
-697.485	-94.536	0.031	0.008
-696.470	-200.000	0.030	-0.295
-695.456	203.581	0.020	-0.031
-694.441	800.000	0.077	-0.266
-693.426	55.167	-0.372	-0.362
-692.412	-109.849	0.381	-0.081
-691.397	87.993	-0.198	-0.221
-690.383	800.000	-0.060	0.197
-689.368	-4.747	-0.097	-0.067
-688.354	140.232	0.135	0.180
-687.339	109.207	-0.065	-0.079
-686.324	-200.000	-0.024	-0.177
-685.310	-143.113	0.036	-0.004
-684.295	-74.401	0.102	-0.037
-683.281	-70.331	0.226	0.086
-682.266	-40.009	-0.099	0.052
-681.251	650.555	-0.097	-0.250
-680.237	-34.045	-0.076	0.042
-679.222	30.384	-0.264	-0.227
-678.208	180.054	-0.176	0.261
-677.193	-200.000	-0.015	-0.078
-676.178	-200.000	0.022	0.216
-675.164	-68.959	0.108	-0.042
-674.149	68.962	0.337	-0.349
-673.135	-200.000	-0.292	-0.001
-672.120	149.694	0.196	-0.267
-671.105	-85.397	-0.382	0.120
-670.091	-69.931	-0.114	-0.044
-669.076	41.662	0.181	-0.165
-668.062	-63.043	-0.229	0.095
-667.047	800.000	0.086	-0.351
-666.032	-200.000	-0.026	-0.238
-665.018	208.554	0.261	0.411
-664.003	45.874	0.202	-0.188
-662.989	-62.294	0.188	-0.079
-661.974	-66.387	-0.069	-0.028
-660.959	-77.784	0.122	0.042
-659.945	517.280	-0.068	0.161
-658.930	246.634	0.051	-0.086
-657.916	-200.000	-0.028	-0.315
-656.901	487.066	0.077	-0.177
-655.886	-175.124	0.384	-0.011
-654.872	313.018	0.107	-0.202
-653.857	-200.000	-0.028	-0.139
-652.843	-15.639	0.345	-0.221
-651.828	278.658	-0.031	-0.055
-650.814	176.070	0.186	0.272
-649.799	790.545	-0.071	0.195
-648.784	-200.000	0.025	-0.237
-647.770	-30.207	-0.034	0.020
-646.755	-200.000	0.035	0.187
-645.741	-180.751	-0.091	0.002
-644.726	-200.000	-0.036	0.000
-643.711	386.495	0.072	-0.149
-642.697	118.908	-0.105	-0.130
-641.682	88.851	-0.259	-0.290
-640.668	98.767	0.064	-0.074
-639.653	-6.357	-0.038	0.026
-638.638	-52.861	-0.229	0.106
-637.624	341.473	-0.152	0.299
-636.609	-113.869	-0.109	0.021
-635.595	-170.600	0.194	0.007
-634.580	-117.428	-0.123	0.022
-633.565	-200.000	0.003	0.026
-632.551	-200.000	0.013	0.327
-631.536	665.678	0.060	-0.157
-630.522	227.989	-0.046	0.076
-629.507	800.000	0.019	-0.064
-628.492	21.838	-0.119	0.098
-627.478	-200.000	0.052	0.332
-626.463	311.975	0.107	0.202
-625.449	453.700	-0.085	-0.190
-624.434	754.991	-0.120	-0.327
-623.419	-45.006	-0.207	-0.104
-622.405	-48.562	0.267	0.129
-621.390	7.462	0.309	0.232
-620.376	717.686	-0.108	-0.287
-619.361	-139.901	-0.148	-0.016
-618.346	6.163	0.151	-0.112
-617.332	-88.614	0.160	0.048
-616.317	800.000	0.066	-0.273
-615.303	275.764	-0.204	-0.364
-614.288	-129.748	-0.081	-0.011
-613.273	79.300	-0.187	0.201
-612.259	-200.000	0.050	-0.257
-611.244	435.249	0.104	-0.226
-610.230	-72.840	0.427	0.158
-609.215	-104.144	0.203	-0.047
-608.201	800.000	0.069	-0.197
-607.186	207.982	0.132	0.207
-606.171	-200.000	0.030	-0.402
-605.157	-200.000	0.011	0.094
-604.142	-147.917	0.473	0.040
-603.128	800.000	0.032	0.138
-602.113	-44.807	0.162	-0.081
-601.098	383.272	0.136	-0.282
-600.084	-40.502	-0.234	0.122
-599.069	-18.101	-0.233	-0.147
-598.055	325.465	-0.022	0.042
-597.040	-63.959	0.175	0.072
-596.025	35.413	0.140	0.124
-595.011	12.783	-0.351	-0.272
-593.996	646.076	0.120	-0.308
-592.982	265.027	0.109	0.190
-591.967	164.761	-0.118	-0.167
-590.952	9.937	-0.351	-0.268
-589.938	-154.919	-0.237	-0.016
-588.923	226.889	0.091	0.148
-587.909	321.148	0.081	-0.154
-586.894	98.139	0.144	0.166
-585.879	-130.301	0.036	0.005
-584.865	186.733	-0.122	-0.183
-583.850	214.257	0.134	-0.213
-582.836	-7.797	0.172	-0.116
-581.821	-103.776	-0.100	-0.024
-580.806	800.000	-0.068	0.212
-579.792	242.307	-0.070	0.118
-578.777	-106.734	0.016	-0.004
-577.763	-18.120	0.083	0.052
-576.748	-45.089	-0.246	-0.123
-575.733	-122.806	0.165	0.027
-574.719	8.227	0.118	-0.089
-573.704	9.522	0.158	0.120
-572.690	-6.427	-0.009	0.006
-571.675	7.652	-0.340	-0.255
-570.661	107.638	-0.254	-0.303
-569.646	374.388	0.026	-0.053
-568.631	20.505	-0.241	-0.196
-567.617	-57.323	-0.181	-0.080
-566.602	-152.684	-0.418	0.030
-565.588	-196.926	0.336	-0.002
-564.573	800.000	-0.016	0.050
-563.558	-200.000	0.023	-0.233
-562.544	176.419	0.044	0.064
-561.529	-19.160	-0.174	0.109
-560.515	-200.000	0.003	-0.085
-559.500	-82.152	-0.219	0.072
-558.485	-37.724	0.035	0.019
-557.471	-85.607	0.084	-0.026
-556.456	180.333	-0.212	0.312
-555.442	-200.000	-0.013	0.139
-554.427	-109.201	-0.231	-0.049
-553.412	-200.000	-0.031	0.139
-552.398	800.000	0.058	-0.222
-551.383	242.330	0.129	0.216
-550.369	-106.840	0.087	-0.019
-549.354	-65.807	-0.363	-0.146
-548.339	800.000	-0.024	-0.102
-547.325	58.491	0.260	0.256
-546.310	-82.433	-0.012	-0.004
-545.296	762.480	0.067	-0.183
-544.281	7.929	-0.063	0.048
-543.266	-102.122	0.036	0.009
-542.252	-8.481	0.075	-0.050
-541.237	236.505	0.185	-0.306
-540.223	27.145	0.175	0.148
-539.208	-120.311	-0.341	-0.058
-538.193	79.717	0.191	0.206
-537.179	-45.365	-0.168	-0.084
-536.164	771.932	0.077	-0.212
-535.150	-42.715	-0.079	0.040
-534.135	-37.866	-0.123	-0.066
-533.121	-113.196	-0.273	0.054
-532.106	1.916	0.046	0.033
-531.091	374.663	0.090	0.183
-530.077	451.736	-0.081	-0.179
-529.062	706.763	-0.103	0.272
-528.048	192.559	0.122	0.184
-527.033	800.000	-0.041	-0.118
-526.018	55.335	0.099	0.096
-525.004	-61.840	-0.216	-0.091
-523.989	49.751	0.116	-0.110
-522.975	-190.895	0.167	-0.002
-521.960	220.551	-0.062	-0.100
-520.945	183.254	-0.059	-0.087
-519.931	154.465	-0.262	0.360
-518.916	-127.016	0.249	0.037
-517.902	404.531	-0.127	-0.268
-516.887	7.281	-0.108	0.080
-515.872	377.016	0.066	0.135
-514.858	5.444	-0.128	-0.095
-513.843	48.517	0.146	-0.137
-512.829	-72.302	0.204	0.076
-511.814	-117.427	-0.310	0.056
-510.799	-200.000	0.010	0.444
-509.785	188.049	-0.166	-0.248
-508.770	-81.652	0.199	-0.065
-507.756	800.000	0.023	-0.082
-506.741	81.949	-0.140	-0.152
-505.726	800.000	0.039	0.131
-504.712	229.949	0.169	-0.276
-503.697	116.218	-0.137	-0.167
-502.683	108.281	0.182	-0.218
-501.668	-43.423	0.148	-0.075
-500.653	-200.000	-0.031	-0.189
-499.639	-200.000	0.076	0.000
-498.624	84.821	-0.250	-0.275
-497.610	-200.000	0.019	0.119
-496.595	800.000	-0.026	0.112
-495.581	-17.103	-0.126	-0.079
-494.566	38.974	-0.179	0.160
-493.551	243.262	-0.133	-0.223
-492.537	-200.000	-0.027	0.168
-491.522	-109.479	-0.085	-0.018
-490.508	649.253	0.027	0.069
-489.493	-82.180	0.316	-0.103
-488.478	465.296	0.182	0.407
-487.464	-188.754	-0.274	0.003
-486.449	195.234	-0.080	-0.121
-485.435	-79.294	-0.125	0.042
-484.420	-92.315	-0.142	0.040
-483.405	-129.032	0.036	-0.005
-482.391	-200.000	-0.031	0.140
-481.376	-200.000	0.018	-0.197
-480.362	23.332	-0.255	0.209
-479.347	-135.734	0.266	-0.031
-478.332	-62.009	0.132	0.055
-477.318	-153.308	0.274	0.019
-476.303	800.000	0.092	0.323
-475.289	-171.814	-0.297	0.010
-474.274	-121.443	0.088	-0.015
-473.259	104.153	-0.259	-0.305
-472.245	46.100	0.166	0.154
-471.230	31.217	0.138	0.119
-470.216	9.674	-0.014	0.011
-469.201	-77.604	-0.123	-0.042
-468.186	35.561	-0.052	0.046
-467.172	800.000	-0.053	-0.189
-466.157	-13.324	-0.191	0.124
-465.143	92.439	0.071	0.080
-464.128	98.052	0.166	0.191
-463.113	-134.676	0.263	-0.032
-462.099	-135.712	0.150	-0.018
-461.084	-200.000	-0.002	-0.237
-460.070	-54.902	0.309	-0.139
-459.055	265.324	-0.055	0.096
-458.040	9.107	0.226	-0.170
-457.026	-34.228	-0.159	0.087
-456.011	800.000	0.081	-0.285
-454.997	338.863	-0.190	0.369
-453.982	-116.182	-0.246	0.046
-452.968	-200.000	0.042	-0.428
-451.953	50.050	-0.222	0.210
-450.938	-10.162	0.244	-0.162
-449.924	505.091	-0.134	-0.311
-448.909	800.000	0.051	0.144
-447.895	182.528	-0.053	0.079
-446.880	52.378	-0.207	-0.197
-445.865	-4.805	-0.042	-0.029
-444.851	-182.732	-0.036	-0.001
-443.836	-110.543	-0.197	0.041
-442.822	800.000	0.065	0.213
-441.807	-3.355	-0.042	-0.029
-440.792	-64.144	-0.340	-0.139
-439.778	800.000	0.112	-0.455
-438.763	-165.647	-0.293	0.013
-437.749	97.606	0.205	-0.235
-436.734	-95.544	-0.077	-0.021
-435.719	11.024	0.140	0.106
-434.705	55.232	-0.151	0.145
-433.690	800.000	-0.068	-0.215
-432.676	-200.000	0.003	0.088
-431.661	-92.568	0.121	-0.034
-430.646	-200.000	-0.013	-0.114
-429.632	-60.359	0.330	0.140
-428.617	-73.409	0.244	0.089
-427.603	139.183	0.074	-0.097
-426.588	-200.000	0.015	-0.369
-425.573	-200.000	0.001	0.023
-424.559	494.608	-0.053	0.121
-423.544	-95.908	0.316	-0.084
-422.530	800.000	-0.045	-0.156
-421.515	-200.000	-0.042	0.216
-420.500	60.271	0.066	-0.065
-419.486	177.176	0.183	0.265
-418.471	402.050	0.068	-0.142
-417.457	65.389	-0.288	0.291
-416.442	65.059	0.216	0.218
-415.428	248.181	0.017	-0.028
-414.413	-200.000	0.018	-0.094
-413.398	-118.910	-0.091	0.016
-412.384	-15.764	0.222	0.141
-411.369	-34.152	-0.152	0.083
-410.355	-74.094	0.355	0.128
-409.340	800.000	0.055	0.154
-408.325	-54.328	-0.081	0.036
-407.311	19.042	-0.134	-0.107
-406.296	-200.000	0.024	0.418
-405.282	91.486	-0.090	0.101
-404.267	207.530	0.266	0.414
-403.252	298.474	-0.040	0.073
-402.238	-18.497	-0.190	0.118
-401.223	-161.580	-0.203	0.010
-400.209	800.000	0.066	-0.253
-399.194	120.445	-0.232	0.288
-398.179	-188.204	-0.273	-0.003
-397.165	-156.542	0.239	-0.015
-396.150	-85.472	-0.376	0.117
-395.136	-52.750	0.301	-0.138
-394.121	800.000	-0.086	-0.278
-393.106	800.000	0.010	-0.045
-392.092	-177.433	-0.220	-0.005
-391.077	28.536	-0.179	0.151
-390.063	232.591	-0.157	0.258
-389.048	-21.054	-0.072	0.044
-388.033	-55.689	-0.128	0.057
-387.019	-154.810	0.129	0.008
-386.004	19.829	0.058	-0.046
-384.990	9.969	-0.221	-0.167
-383.975	-69.444	0.642	0.245
-382.960	14.257	-0.143	-0.111
-381.946	-57.092	0.306	0.134
-380.931	-200.000	0.038	-0.207
-379.917	-161.477	0.057	0.003
-378.902	-132.949	-0.223	-0.028
-377.888	-117.220	0.519	0.094
-376.873	-122.806	-0.115	-0.019
-375.858	30.459	0.081	0.069
-374.844	-87.520	-0.184	0.055
-373.829	105.160	0.250	0.294
-372.815	-16.735	0.155	0.098
-371.800	800.000	-0.078	-0.306
-370.785	-111.525	-0.097	-0.020
-369.771	-96.154	0.245	-0.065
-368.756	-58.359	-0.039	-0.017
-367.742	-9.192	0.187	-0.125
-366.727	54.963	-0.054	-0.052
-365.712	-160.932	0.360	-0.019
-364.698	-27.176	-0.205	-0.119
-363.683	-130.027	-0.336	-0.046
-362.669	41.943	-0.161	-0.145
-361.654	12.563	0.138	0.106
-360.639	29.366	0.072	0.061
-359.625	78.019	0.326	0.346
-358.610	-200.000	-0.025	0.425
-357.596	-133.367	0.296	-0.037
-356.581	-176.758	-0.200	0.005
-355.566	-35.838	-0.328	-0.177
-354.552	-200.000	0.043	-0.282
-353.537	-200.000	0.067	-0.330
-352.523	595.600	0.016	0.040
-351.508	-19.412	0.280	-0.173
-350.493	800.000	-0.103	0.332
-349.479	199.872	-0.076	0.115
-348.464	223.983	-0.085	0.137
-347.450	151.159	0.231	0.312
-346.435	-15.910	0.215	-0.136
-345.420	800.000	0.013	-0.052
-344.406	-50.082	0.533	-0.251
-343.391	238.889	0.087	-0.144
-342.377	685.578	-0.062	0.161
-341.362	-64.036	0.226	-0.092
-340.348	127.835	0.123	-0.156
-339.333	-121.523	0.204	-0.034
-338.318	-19.136	-0.151	0.093
-337.304	800.000	0.069	0.224
-336.289	357.546	0.059	-0.117
-335.275	-144.636	-0.153	-0.014
-334.260	118.463	-0.117	-0.144
-333.245	-86.476	-0.337	-0.103
-332.231	150.382	-0.221	-0.298
-331.216	-64.129	0.289	0.117
-330.202	182.017	0.193	-0.283
-329.187	-45.186	-0.019	0.010
-328.172	57.998	0.097	-0.094
-327.158	-0.832	-0.253	0.178
-326.143	-44.659	0.059	0.029
-325.129	198.675	-0.209	-0.318
-324.114	-12.463	0.485	-0.315
-323.099	-81.883	0.137	0.044
-322.085	238.560	-0.078	0.129
-321.070	-57.873	0.047	-0.020
-320.056	-32.692	-0.118	0.065
-319.041	289.028	0.125	0.226
-318.026	-200.000	0.065	0.309
-317.012	157.741	-0.129	0.177
-315.997	45.147	-0.097	-0.089
-314.983	-107.874	-0.146	-0.031
-313.968	113.876	0.226	-0.273
-312.953	-31.189	-0.180	-0.101
-311.939	138.355	-0.235	0.306
-310.924	800.000	-0.085	0.281
-309.910	-200.000	0.009	0.375
-308.895	-17.402	0.199	-0.124
-307.880	153.213	0.116	-0.158
-306.866	53.170	-0.156	0.149
-305.851	-88.427	0.300	-0.089
-304.837	800.000	-0.063	-0.175
-303.822	800.000	-0.094	-0.300
-302.807	-200.000	0.022	-0.264
-301.793	51.979	-0.118	-0.112
-300.778	-16.464	-0.188	0.118
-299.764	800.000	-0.072	0.292
-298.749	330.067	0.075	-0.144
-297.735	800.000	-0.072	-0.218
-296.720	-200.000	-0.021	0.128
-295.705	160.300	0.171	0.237
-294.691	-89.217	-0.124	-0.036
-293.676	-200.000	-0.008	0.050
-292.662	633.937	-0.146	0.367
-291.647	-200.000	-0.106	0.671
-290.632	314.693	0.058	-0.109
-289.618	45.390	-0.162	0.148
-288.603	-29.567	0.054	0.031
-287.589	-109.797	0.236	0.049
-286.574	-200.000	-0.055	-0.426
-285.559	-126.546	0.085	0.012
-284.545	-78.239	-0.266	0.091
-283.530	-58.984	-0.293	-0.126
-282.516	-126.293	-0.307	-0.045
-281.501	1.470	0.330	0.235
-280.486	142.383	-0.097	-0.128
-279.472	-144.214	0.098	0.009
-278.457	86.519	0.171	0.187
-277.443	603.232	-0.035	0.087
-276.428	-121.351	-0.173	-0.029
-275.413	800.000	0.040	-0.139
-274.399	-63.180	0.102	-0.042
-273.384	-200.000	0.016	-0.237
-272.370	800.000	-0.003	-0.011
-271.355	-200.000	0.057	-0.316
-270.340	800.000	-0.069	-0.270
-269.326	9.276	0.227	-0.171
-268.311	80.588	0.171	-0.183
-267.297	-2.414	0.089	0.062
-266.282	-134.218	0.113	-0.014
-265.267	135.200	-0.091	-0.117
-264.253	355.484	-0.073	0.144
-263.238	-33.008	-0.176	0.097
-262.224	-135.823	-0.033	-0.004
-261.209	-32.875	-0.304	-0.168
-260.195	-200.000	-0.016	-0.202
-259.180	-150.359	-0.448	-0.034
-258.165	-200.000	-0.001	0.183
-257.151	-44.198	-0.173	-0.086
-256.136	-51.280	0.269	-0.125
-255.122	-157.400	-0.264	0.016
-254.107	-200.000	-0.044	0.224
-253.092	129.653	-0.046	0.058
-252.078	234.297	-0.116	-0.189
-251.063	3.191	0.404	0.291
-250.049	-200.000	-0.008	0.074
-249.034	-200.000	-0.036	-0.343
-248.019	46.978	0.041	-0.038
-247.005	-1.410	-0.043	-0.030
-245.990	-200.000	0.016	-0.110
-244.976	-200.000	0.006	0.062
-243.961	-69.443	0.301	0.114
-242.946	25.478	0.128	0.106
-241.932	78.969	-0.272	-0.288
-240.917	800.000	0.020	0.081
-239.903	-193.383	-0.252	0.002
-238.888	-29.105	-0.239	-0.136
-237.873	800.000	-0.093	0.353
-236.859	154.454	0.083	0.113
-235.844	-32.025	0.274	0.152
-234.830	-64.785	0.187	-0.075
-233.815	-1.864	0.293	-0.204
-232.800	124.620	-0.074	0.092
-231.786	-200.000	0.030	0.266
-230.771	-16.800	-0.025	0.016
-229.757	-200.000	-0.001	0.102
-228.742	210.887	-0.099	-0.155
-227.727	-200.000	0.011	0.211
-226.713	28.646	-0.172	0.144
-225.698	242.166	-0.069	-0.115
-224.684	-82.919	-0.066	-0.021
-223.669	800.000	0.070	0.270
-222.655	-200.000	0.013	0.179
-221.640	-141.523	0.279	-0.028
-220.625	50.046	0.212	0.198
-219.611	-199.656	-0.185	-0.001
-218.596	19.678	0.301	-0.240
-217.582	661.234	-0.031	-0.080
-216.567	370.177	-0.063	0.126
-215.552	800.000	-0.070	0.203
-214.538	800.000	-0.066	0.233
-213.523	-77.948	-0.174	-0.060
-212.509	-200.000	0.008	-0.168
-211.494	-200.000	-0.033	0.205
-210.479	582.607	-0.092	-0.223
-209.465	0.740	0.249	-0.176
-208.450	-34.794	0.396	0.214
-207.436	129.041	0.068	0.086
-206.421	-5.641	-0.409	0.278
-205.406	800.000	-0.057	0.219
-204.392	278.616	-0.046	-0.081
-203.377	-152.692	0.201	-0.014
-202.363	678.671	0.057	-0.145
-201.348	68.744	-0.104	0.106
-200.333	-200.000	0.030	0.197
-199.319	594.529	-0.131	-0.321
-198.304	-99.124	-0.359	-0.090
-197.290	-200.000	-0.068	0.338
-196.275	8.822	-0.178	-0.133
-195.260	-63.279	0.233	0.095
-194.246	22.580	0.243	0.197
-193.231	-4.392	-0.308	0.211
-192.217	-200.000	0.059	0.393
-191.202	-154.063	0.372	0.025
-190.187	-60.527	0.193	-0.081
-189.173	159.920	-0.118	0.162
-188.158	390.846	0.022	-0.045
-187.144	119.955	-0.165	0.203
-186.129	-111.769	0.382	0.077
-185.114	12.568	-0.109	-0.083
-184.100	235.781	0.041	-0.066
-183.085	800.000	-0.116	-0.452
-182.071	-118.806	-0.051	0.009
-181.056	-200.000	-0.019	-0.126
-180.042	159.097	-0.100	0.138
-179.027	-10.936	-0.357	0.233
-178.012	-199.403	-0.224	-0.001
-176.998	737.767	0.078	-0.206
-175.983	120.702	-0.195	-0.239
-174.969	-194.357	0.174	-0.001
-173.954	48.159	0.147	0.136
-172.939	594.212	-0.019	-0.047
-171.925	-0.804	0.222	-0.156
-170.910	-200.000	-0.008	0.044
-169.896	-13.946	0.102	-0.065
-168.881	176.797	0.117	0.168
-167.866	350.332	0.068	-0.132
-166.852	398.199	-0.059	0.123
-165.837	70.640	-0.196	0.200
-164.823	98.335	0.085	-0.097
-163.808	35.978	0.168	0.146
-162.793	416.423	0.152	-0.320
-161.779	-54.048	-0.252	0.113
-160.764	207.818	-0.199	0.306
-159.750	-65.934	0.097	0.038
-158.735	188.651	0.100	0.148
-157.720	707.991	0.051	0.134
-156.706	-36.155	0.265	-0.141
-155.691	328.861	-0.093	-0.176
-154.677	-88.015	0.258	0.077
-153.662	-51.545	0.070	0.032
-152.647	91.590	0.060	0.067
-151.633	-142.057	0.131	-0.013
-150.618	-200.000	0.047	-0.225
-149.604	401.627	0.139	0.288
-148.589	800.000	0.083	-0.273
-147.574	468.794	0.084	0.187
-146.560	-29.211	0.151	0.086
-145.545	642.777	-0.097	-0.245
-144.531	390.841	0.050	0.103
-143.516	27.515	-0.165	-0.137
-142.502	800.000	-0.059	0.171
-141.487	-131.638	-0.471	0.061
-140.472	-122.479	-0.149	0.024
-139.458	206.747	-0.083	-0.127
-138.443	90.275	-0.120	0.132
-137.429	800.000	-0.140	0.495
-136.414	-200.000	-0.005	-0.104
-135.399	94.379	0.198	-0.221
-134.385	800.000	0.047	-0.188
-133.370	800.000	-0.035	-0.149
-132.356	-35.751	0.133	0.071
-131.341	-200.000	0.004	0.052
-130.326	-200.000	-0.062	0.301
-129.312	800.000	-0.145	-0.400
-128.297	69.073	-0.133	-0.135
-127.283	23.253	0.467	-0.378
-126.268	-200.000	0.038	0.206
-125.253	17.362	0.363	-0.285
-124.239	-68.030	0.144	0.056
-123.224	-38.322	-0.045	0.023
-122.210	716.745	0.166	-0.436
-121.195	-84.947	0.371	0.115
-120.180	-20.406	0.037	-0.023
-119.166	-67.243	0.227	-0.088
-118.151	-80.004	0.211	-0.070
-117.137	74.585	0.124	0.129
-116.122	77.900	-0.039	-0.041
-115.107	55.600	0.102	0.097
-114.093	-72.205	0.490	0.179
-113.078	-200.000	-0.062	-0.433
-112.064	216.968	0.062	0.097
-111.049	-10.079	0.282	0.185
-110.034	60.326	-0.242	0.236
-109.020	393.009	-0.106	0.218
-108.005	69.883	-0.266	0.271
-106.991	-133.155	0.166	-0.021
-105.976	-200.000	0.018	0.266
-104.962	800.000	0.021	0.058
-103.947	-61.810	0.193	-0.080
-102.932	-127.735	0.238	0.034
-101.918	-38.201	0.124	-0.065
-100.903	2.138	-0.024	-0.017
-99.889	-123.187	0.437	0.069
-98.874	-16.556	-0.152	0.095
-97.859	-62.790	0.264	0.108
-96.845	-159.532	0.404	0.022
-95.830	-34.194	0.122	-0.066
-94.816	87.191	0.033	0.036
-93.801	-46.529	-0.242	0.117
-92.786	-200.000	-0.033	0.170
-91.772	-41.982	0.218	0.110
-90.757	162.784	-0.210	0.291
-89.743	-47.326	-0.066	-0.031
-88.728	-107.228	-0.272	0.059
-87.713	-200.000	0.041	0.192
-86.699	542.228	-0.021	0.048
-85.684	-58.201	0.236	0.101
-84.670	-200.000	0.001	0.068
-83.655	632.977	-0.027	-0.066
-82.640	306.016	-0.045	0.082
-81.626	800.000	0.041	-0.170
-80.611	22.568	0.222	0.179
-79.597	-17.345	0.238	0.148
-78.582	-200.000	0.020	0.147
-77.567	800.000	0.020	0.061
-76.553	451.002	0.067	0.146
-75.538	-64.077	-0.257	-0.103
-74.524	800.000	-0.084	-0.290
-73.509	59.224	0.191	-0.186
-72.494	72.555	0.032	-0.033
-71.480	-127.091	0.138	0.020
-70.465	18.432	-0.256	-0.202
-69.451	75.825	0.236	-0.245
-68.436	-200.000	0.040	0.503
-67.422	-49.143	-0.321	-0.151
-66.407	691.153	0.029	-0.075
-65.392	-7.731	0.142	0.094
-64.378	-121.122	0.151	-0.025
-63.363	30.520	0.160	-0.134
-62.349	82.889	-0.078	-0.084
-61.334	172.978	-0.728	-1.032
-60.319	154.283	0.356	0.481
-59.305	-200.000	-0.130	-1.033
-58.290	800.000	0.336	0.983
-57.276	204.931	0.865	1.320
-56.261	-200.000	95.460	566.318
-55.246	632.014	1382.836	3444.804
-54.232	194.768	2573.161	3840.309
-53.217	113.351	2276.973	2717.828
-52.203	42.817	1899.673	1702.375
-51.188	36.869	1690.055	1469.517
-50.173	34.086	1645.975	1410.534
-49.159	51.409	1691.596	1580.075
-48.144	53.526	1708.537	1611.722
-47.130	36.364	1668.546	1446.798
-46.115	33.650	1653.612	1413.605
-45.100	33.397	1649.307	1407.988
-44.086	33.411	1645.831	1405.065
-43.071	33.441	1643.776	1403.478
-42.057	33.328	1641.546	1400.685
-41.042	33.363	1639.385	1399.039
-40.027	33.365	1636.950	1396.926
-39.013	33.356	1635.087	1395.211
-37.998	33.378	1634.041	1394.427
-36.984	33.463	1632.762	1393.906
-35.969	33.471	1631.210	1392.584
-34.954	33.579	1629.154	1391.564
-33.940	33.454	1628.030	1389.630
-32.925	33.614	1625.718	1388.777
-31.911	33.419	1624.378	1386.148
-30.896	33.488	1622.309	1384.835
-29.881	33.487	1620.562	1383.281
-28.867	33.599	1618.828	1382.564
-27.852	33.529	1617.391	1380.767
-26.838	33.626	1615.853	1380.108
-25.823	33.574	1614.543	1378.554
-24.809	33.466	1613.543	1376.860
-23.794	33.508	1611.998	1375.791
-22.779	33.535	1610.189	1374.394
-21.765	33.523	1608.373	1372.698
-20.750	33.516	1607.181	1371.576
-19.736	33.495	1605.923	1370.301
-18.721	33.688	1603.865	1369.878
-17.706	33.510	1602.895	1367.710
-16.692	33.469	1601.360	1366.052
-15.677	33.504	1600.349	1365.388
-14.663	33.524	1598.499	1363.901
-13.648	33.500	1597.355	1362.698
-12.633	33.554	1595.764	1361.673
-11.619	33.503	1593.986	1359.737
-10.604	33.637	1592.225	1359.141
-9.590	33.596	1591.010	1357.759
-8.575	33.619	1589.820	1356.849
-7.560	33.527	1588.526	1355.038
-6.546	33.543	1587.644	1354.344
-5.531	33.530	1586.712	1353.405
-4.517	33.527	1585.501	1352.298
-3.502	33.596	1584.331	1351.737
-2.487	33.647	1582.113	1350.154
-1.473	33.397	1570.763	1338.647
-0.458	30.469	1551.140	1301.398
0.556	27.029	1551.178	1267.547
1.571	24.547	1573.890	1268.390
2.586	23.940	1586.522	1274.113
3.600	21.136	1533.609	1212.062
4.615	12.957	1425.581	1073.566
5.629	6.110	1362.179	983.029
6.644	4.957	1354.369	970.132
7.659	4.825	1352.627	967.975
8.673	4.827	1351.593	967.162
9.688	4.832	1349.995	965.964
10.702	4.846	1347.181	963.956
11.717	7.919	1353.077	987.167
12.731	15.487	1367.128	1044.579
13.746	20.177	1374.049	1079.029
14.761	19.945	1371.924	1075.826
15.775	18.799	1369.839	1066.981
16.790	17.760	1366.810	1058.087
17.804	16.934	1364.566	1051.139
18.819	16.579	1363.171	1047.772
19.834	16.347	1361.884	1045.250
20.848	16.078	1360.842	1042.695
21.863	15.959	1359.495	1040.840
22.877	15.886	1357.859	1039.041
23.892	15.840	1357.062	1038.054
24.907	15.814	1355.885	1036.902
25.921	15.721	1355.964	1036.298
26.936	15.792	1355.054	1035.947
27.950	15.848	1353.662	1035.142
28.965	15.841	1353.132	1034.596
29.980	16.030	1351.827	1034.669
30.994	16.067	1350.783	1034.007
32.009	16.089	1349.754	1033.264
33.023	16.090	1348.150	1031.950
34.038	16.013	1346.728	1030.300
35.053	15.918	1345.137	1028.412
36.067	16.014	1344.102	1028.115
37.082	15.953	1343.573	1027.244
38.096	15.855	1342.949	1026.083
39.111	15.968	1341.871	1025.851
40.126	15.919	1341.099	1024.876
41.140	15.716	1340.180	1022.847
42.155	15.704	1339.432	1022.111
43.169	15.622	1339.178	1021.328
44.184	15.608	1339.201	1021.171
45.199	15.668	1338.666	1021.040
46.213	15.707	1338.103	1020.758
47.228	15.754	1337.330	1020.360
48.242	15.847	1336.264	1020.022
49.257	15.774	1334.571	1018.199
50.271	15.865	1333.077	1017.517
51.286	15.884	1331.875	1016.626
52.301	15.816	1330.497	1015.071
53.315	15.681	1329.824	1013.655
54.330	15.633	1329.050	1012.688
55.344	15.744	1327.248	1011.890
56.359	15.684	1326.200	1010.644
57.374	15.621	1325.785	1009.858
58.388	15.613	1324.661	1008.865
59.403	15.509	1324.526	1008.045
60.417	15.608	1323.642	1007.881
61.432	15.572	1322.837	1006.964
62.447	15.499	1321.287	1005.253
63.461	15.408	1320.845	1004.283
64.476	15.417	1319.135	1002.950
65.490	15.547	1317.959	1002.745
66.505	15.564	1316.614	1001.734
67.520	15.751	1314.571	1001.205
68.534	15.548	1314.263	999.673
69.549	15.564	1313.552	999.139
70.563	15.592	1312.021	998.054
71.578	15.458	1311.373	996.675
72.593	15.465	1309.746	995.391
73.607	15.362	1309.456	994.475
74.622	15.283	1309.364	993.845
75.636	15.355	1308.434	993.480
76.651	15.342	1307.910	992.917
77.666	15.396	1306.906	992.387
78.680	15.516	1306.461	992.672
79.695	15.577	1305.372	992.113
80.709	15.600	1304.969	991.853
81.724	15.597	1304.289	991.236
82.739	15.612	1303.594	990.705
83.753	15.691	1302.683	990.389
84.768	15.895	1301.553	990.647
85.782	15.891	1300.391	989.652
86.797	15.923	1299.169	988.817
87.812	15.863	1297.608	987.195
88.826	15.801	1296.853	986.170
89.841	15.838	1295.981	985.634
90.855	15.958	1294.709	985.283
91.870	15.981	1293.965	984.761
92.884	15.876	1293.608	983.787
93.899	15.966	1292.699	983.539
94.914	15.986	1292.217	983.198
95.928	15.938	1291.364	982.183
96.943	15.940	1289.999	981.068
97.957	16.043	1288.541	980.476
98.972	15.923	1287.728	979.069
99.987	15.929	1287.295	978.691
101.001	15.914	1285.851	977.418
102.016	15.893	1285.111	976.650
103.030	15.885	1284.254	975.861
104.045	15.907	1283.189	975.095
105.060	15.825	1282.194	973.778
106.074	15.627	1281.193	971.790
107.089	15.647	1279.241	970.336
108.103	15.513	1278.070	968.590
109.118	15.549	1276.882	967.811
110.133	15.691	1274.885	967.026
111.147	15.559	1274.121	965.605
112.162	15.582	1272.966	964.778
113.176	15.605	1271.725	963.883
114.191	15.620	1270.784	963.170
115.206	15.659	1269.291	962.179
116.220	15.712	1268.419	961.733
117.235	15.767	1267.501	961.265
118.249	15.667	1266.683	959.989
119.264	15.556	1265.242	958.181
120.279	15.618	1264.390	957.800
121.293	15.473	1263.591	956.289
122.308	15.587	1262.177	955.783
123.322	15.546	1260.992	954.565
124.337	15.485	1260.205	953.539
125.352	15.543	1259.002	952.876
126.366	15.625	1257.404	952.047
127.381	15.496	1257.162	951.045
128.395	15.568	1255.662	950.237
129.410	15.576	1255.108	949.775
130.424	15.624	1254.418	949.442
131.439	15.563	1253.410	948.248
132.454	15.631	1252.531	947.882
133.468	15.730	1251.433	947.531
134.483	15.726	1250.590	946.786
135.497	15.731	1249.754	946.097
136.512	15.660	1248.865	944.937
137.527	15.761	1246.987	944.000
138.541	15.741	1245.914	942.993
139.556	15.725	1244.995	942.123
140.570	15.683	1244.163	941.179
141.585	15.809	1242.905	940.846
142.600	15.914	1241.556	940.327
143.614	15.985	1240.882	940.129
144.629	15.906	1239.708	938.721
145.643	15.935	1238.414	937.816
146.658	15.867	1237.152	936.397
147.673	15.822	1236.030	935.219
148.687	15.707	1234.861	933.610
149.702	15.742	1233.516	932.708
150.716	15.720	1232.082	931.419
151.731	15.818	1230.842	930.942
152.746	15.758	1229.638	929.618
153.760	15.755	1228.798	928.884
154.775	15.870	1227.966	928.808
155.789	15.918	1226.719	928.045
156.804	15.913	1225.907	927.321
157.819	15.900	1225.273	926.689
158.833	15.937	1224.504	926.226
159.848	16.088	1223.272	926.041
160.862	16.152	1221.942	925.306
161.877	15.898	1221.168	923.246
162.892	15.833	1220.069	921.977
163.906	15.793	1219.150	920.982
164.921	15.897	1218.130	920.698
165.935	15.932	1217.361	920.229
166.950	15.895	1216.669	919.418
167.964	15.988	1216.004	919.344
168.979	15.931	1215.437	918.523
169.994	15.783	1214.918	917.243
171.008	15.903	1213.610	916.827
172.023	16.044	1212.839	916.932
173.037	16.165	1211.584	916.558
174.052	16.184	1211.242	916.320
175.067	16.002	1209.960	914.282
176.081	15.947	1209.046	913.214
177.096	15.928	1208.159	912.361
178.110	15.900	1207.136	911.353
179.125	16.004	1205.652	910.716
180.140	16.121	1204.496	910.395
181.154	15.997	1203.749	909.078
182.169	16.058	1202.433	908.335
183.183	16.126	1201.484	907.903
184.198	16.144	1200.491	907.167
185.213	16.205	1199.705	906.824
186.227	16.305	1198.054	906.031
187.242	16.322	1197.221	905.415
188.256	16.283	1196.514	904.590
189.271	16.303	1195.461	903.817
190.286	16.264	1194.257	902.621
191.300	16.044	1193.205	900.569
192.315	15.865	1192.657	899.120
193.329	15.910	1192.141	898.894
194.344	15.973	1191.483	898.652
195.359	16.108	1190.986	898.920
196.373	16.272	1190.204	899.120
197.388	16.283	1189.723	898.740
198.402	16.347	1189.507	898.836
199.417	16.454	1188.876	898.851
200.432	16.614	1187.879	898.865
201.446	16.574	1187.143	898.017
202.461	16.612	1186.157	897.393
203.475	16.664	1185.117	896.804
204.490	16.613	1183.606	895.307
205.504	16.460	1182.903	893.887
206.519	16.419	1181.940	892.867
207.534	16.397	1180.980	891.944
208.548	16.506	1179.701	891.475
209.563	16.389	1179.230	890.424
210.577	16.431	1177.995	889.634
211.592	16.563	1177.352	889.763
212.607	16.574	1176.783	889.312
213.621	16.596	1175.686	888.519
214.636	16.724	1174.163	887.963
215.650	16.663	1173.998	887.441
216.665	16.660	1173.047	886.627
217.680	16.696	1171.943	885.902
218.694	16.760	1170.898	885.368
219.709	16.609	1170.969	884.552
220.723	16.688	1169.973	884.138
221.738	16.757	1168.890	883.600
222.753	16.647	1168.513	882.661
223.767	16.779	1167.523	882.526
224.782	16.789	1167.235	882.282
225.796	16.851	1166.497	881.970
226.811	16.823	1166.025	881.387
227.826	16.767	1165.119	880.332
228.840	16.737	1164.418	879.569
229.855	16.847	1163.596	879.444
230.869	16.910	1162.619	878.953
231.884	16.815	1161.707	877.692
232.899	16.747	1160.720	876.518
233.913	16.705	1160.398	875.978
234.928	16.658	1160.076	875.419
235.942	16.637	1159.041	874.452
236.957	16.701	1158.149	874.031
237.972	16.723	1157.303	873.427
238.986	16.749	1156.605	872.957
240.001	16.714	1155.948	872.205
241.015	16.709	1155.410	871.695
242.030	16.748	1154.857	871.403
243.045	16.847	1153.730	870.982
244.059	16.777	1153.216	870.159
245.074	16.833	1152.251	869.639
246.088	16.916	1151.143	869.150
247.103	17.103	1150.369	869.446
248.117	17.131	1149.866	869.137
249.132	17.187	1149.036	868.718
250.147	17.224	1148.592	868.494
251.161	17.316	1148.055	868.480
252.176	17.336	1147.222	867.878
253.190	17.354	1146.881	867.632
254.205	17.397	1146.302	867.339
255.220	17.380	1145.364	866.463
256.234	17.453	1144.795	866.327
257.249	17.402	1144.234	865.567
258.263	17.385	1143.429	864.798
259.278	17.475	1143.075	864.909
260.293	17.442	1142.537	864.256
261.307	17.583	1141.889	864.407
262.322	17.449	1141.122	863.071
263.336	17.626	1140.371	863.320
264.351	17.622	1139.766	862.768
265.366	17.561	1139.383	862.093
266.380	17.613	1138.244	861.417
267.395	17.520	1137.682	860.445
268.409	17.451	1137.031	859.531
269.424	17.528	1136.111	859.145
270.439	17.607	1135.197	858.777
271.453	17.496	1134.623	857.707
272.468	17.478	1133.613	856.779
273.482	17.408	1133.043	855.919
274.497	17.443	1132.561	855.658
275.512	17.379	1132.482	855.195
276.526	17.515	1131.222	854.853
277.541	17.433	1130.722	853.987
278.555	17.493	1130.163	853.794
279.570	17.596	1129.296	853.579
280.585	17.662	1128.434	853.183
281.599	17.713	1127.669	852.783
282.614	17.625	1126.864	851.657
283.628	17.559	1125.538	850.252
284.643	17.633	1124.442	849.715
285.657	17.591	1123.659	848.843
286.672	17.548	1123.010	848.060
287.687	17.679	1121.885	847.786
288.701	17.700	1121.394	847.448
289.716	17.698	1120.379	846.593
290.730	17.769	1119.783	846.422
291.745	17.653	1119.422	845.501
292.760	17.747	1118.534	845.217
293.774	17.769	1118.064	844.897
294.789	17.912	1117.588	845.173
295.803	17.907	1116.691	844.392
296.818	17.790	1116.242	843.402
297.833	17.832	1114.938	842.547
298.847	17.840	1114.288	842.024
299.862	17.815	1113.359	841.121
300.876	17.862	1112.999	841.009
301.891	17.971	1112.247	840.900
302.906	17.987	1111.487	840.332
303.920	18.140	1110.527	840.284
304.935	18.093	1110.522	839.975
305.949	18.121	1109.850	839.527
306.964	18.265	1108.848	839.402
307.979	18.088	1108.024	837.839
308.993	17.974	1107.292	836.649
310.008	18.164	1106.414	836.846
311.022	18.140	1105.824	836.206
312.037	18.208	1105.120	835.934
313.052	18.118	1103.873	834.477
314.066	18.126	1102.906	833.712
315.081	17.969	1102.391	832.483
316.095	17.872	1101.788	831.482
317.110	17.991	1100.803	831.242
318.125	17.937	1100.386	830.590
319.139	17.996	1099.320	829.999
320.154	17.923	1098.769	829.157
321.168	17.931	1098.145	828.648
322.183	18.085	1097.645	828.945
323.197	18.153	1096.987	828.704
324.212	18.092	1096.406	827.900
325.227	18.115	1095.850	827.517
326.241	18.185	1095.235	827.320
327.256	18.086	1094.087	825.900
328.270	18.046	1093.385	825.104
329.285	18.122	1092.686	824.870
330.300	18.083	1091.727	823.881
331.314	17.991	1091.061	822.865
332.329	18.039	1089.837	822.100
333.343	18.209	1088.706	821.993
334.358	18.329	1088.119	822.053
335.373	18.228	1087.694	821.176
336.387	18.347	1086.896	821.067
337.402	18.352	1086.219	820.510
338.416	18.473	1085.470	820.447
339.431	18.318	1084.902	819.204
340.446	18.489	1084.316	819.507
341.460	18.626	1083.376	819.381
342.475	18.577	1082.847	818.674
343.489	18.504	1082.222	817.780
344.504	18.675	1081.174	817.729
345.519	18.602	1080.265	816.623
346.533	18.637	1079.415	816.074
347.548	18.650	1079.055	815.793
348.562	18.635	1077.980	814.838
349.577	18.730	1077.144	814.584
350.592	18.542	1076.606	813.212
351.606	18.599	1075.507	812.583
352.621	18.518	1074.704	811.520
353.635	18.388	1074.577	810.737
354.650	18.431	1073.657	810.175
355.665	18.430	1073.279	809.811
356.679	18.597	1072.602	810.018
357.694	18.674	1071.677	809.609
358.708	18.703	1071.217	809.327
359.723	18.700	1070.657	808.821
360.738	18.748	1069.997	808.474
361.752	18.755	1069.118	807.774
362.767	18.651	1068.616	806.833
363.781	18.694	1068.424	806.820
364.796	18.763	1067.758	806.566
365.810	18.892	1067.446	806.867
366.825	18.980	1066.848	806.757
367.840	18.979	1066.069	806.093
368.854	19.011	1065.173	805.492
369.869	18.970	1065.091	805.166
370.883	19.029	1063.579	804.227
371.898	18.850	1063.101	802.959
372.913	18.926	1062.401	802.715
373.927	18.937	1062.304	802.623
374.942	19.177	1061.365	802.961
375.956	18.989	1060.960	801.709
376.971	18.981	1060.362	801.147
377.986	19.067	1059.997	801.198
379.000	19.107	1059.549	800.976
380.015	19.194	1059.004	800.901
381.029	19.155	1058.224	800.059
382.044	19.158	1057.354	799.341
383.059	19.199	1056.728	798.986
384.073	19.270	1055.952	798.659
385.088	19.324	1054.877	798.026
386.102	19.331	1053.970	797.301
387.117	19.238	1052.838	795.946
388.132	19.056	1052.089	794.470
389.146	19.030	1051.675	793.967
390.161	19.168	1050.585	793.710
391.175	19.236	1049.877	793.417
392.190	19.168	1049.555	792.790
393.205	19.288	1048.761	792.671
394.219	19.239	1048.016	791.812
395.234	19.247	1046.894	790.932
396.248	19.243	1045.483	789.778
397.263	19.135	1045.048	788.886
398.278	19.101	1044.488	788.237
399.292	19.020	1044.029	787.452
400.307	19.063	1043.242	786.985
401.321	19.211	1042.434	786.978
402.336	19.111	1041.581	785.809
403.350	19.117	1040.995	785.328
404.365	19.148	1040.297	784.873
405.380	19.181	1039.559	784.395
406.394	19.222	1039.111	784.175
407.409	19.454	1037.923	784.262
408.423	19.422	1037.185	783.491
409.438	19.524	1036.571	783.422
410.453	19.510	1036.347	783.121
411.467	19.582	1035.494	782.731
412.482	19.638	1034.996	782.540
413.496	19.601	1034.425	781.872
414.511	19.643	1033.897	781.592
415.526	19.765	1033.464	781.746
416.540	19.882	1032.635	781.580
417.555	19.864	1032.175	781.079
418.569	19.722	1031.824	780.105
419.584	19.698	1031.450	779.648
420.599	19.775	1030.750	779.395
421.613	151.875	1400.933	1793.259
422.628	138.605	1454.867	1793.368
