DTS Sentinel unit serial number:	SN413079Multiplexer serial number:	ORYXHardware model number:	OX4-SRSoftware version number:	ORYX F/W v4.00 Oryx Data Collector v3.7.2.0data status	okinstallation	princeton_trtdifferential loss correction	single-endedforward channel	channel 2reverse channel	N/Adate	2019/09/15time	12:51:35forward acquisition time	60.00reverse acquisition time	0.00gamma	496.2192k internal	0.2310k external	0.2310temperature offset calibration	1.0005default loss term (dB/km)	0.3790temperature slope calibration	1.0000multiplexer offset coefficient	1.0000multiplexer slope coefficient	1.0000fibre end	0.00T internal ref (°C)	36.06T ext. ref 1 (°C)	5.02T ext. ref 2 (°C)	34.10length (m)	temperature (°C)	Stokes	anti-Stokes-747.200	800.000	-0.119	0.358
-746.185	57.317	-0.220	0.218
-745.171	-122.845	-0.246	0.040
-744.156	104.445	-0.049	-0.059
-743.142	-111.203	0.317	0.066
-742.127	53.584	-0.166	0.162
-741.112	317.779	-0.041	0.079
-740.098	-200.000	-0.059	0.329
-739.083	145.116	0.171	0.232
-738.069	144.927	-0.283	0.384
-737.054	89.423	-0.045	-0.051
-736.039	-200.000	-0.003	-0.024
-735.025	52.642	0.243	-0.235
-734.010	108.075	0.304	-0.368
-732.996	-16.285	-0.178	0.115
-731.981	-80.798	-0.236	0.080
-730.966	-128.326	-0.393	-0.057
-729.952	800.000	-0.061	-0.203
-728.937	-126.320	0.079	-0.012
-727.923	800.000	-0.126	-0.537
-726.908	-200.000	0.005	-0.072
-725.894	32.047	-0.266	0.233
-724.879	-141.433	0.077	0.008
-723.864	304.919	-0.049	-0.093
-722.850	-79.562	-0.076	0.026
-721.835	-198.395	-0.678	-0.004
-720.821	435.413	-0.257	-0.566
-719.806	-200.000	-0.009	0.078
-718.791	0.402	-0.328	-0.238
-717.777	333.572	-0.092	-0.180
-716.762	-43.800	-0.096	-0.049
-715.748	-88.829	-0.322	0.097
-714.733	800.000	-0.088	0.257
-713.718	-80.441	-0.229	-0.077
-712.704	800.000	0.042	-0.150
-711.689	-121.539	0.097	-0.016
-710.675	-40.109	0.268	0.142
-709.660	379.179	0.043	0.090
-708.645	-200.000	0.011	0.048
-707.631	-96.573	-0.239	0.064
-706.616	173.245	-0.229	-0.335
-705.602	-44.117	-0.145	0.074
-704.587	71.341	-0.188	0.198
-703.572	112.755	0.116	-0.142
-702.558	572.996	-0.043	-0.107
-701.543	208.949	0.059	-0.094
-700.529	-14.139	-0.059	0.038
-699.514	-122.221	0.176	0.029
-698.499	-153.635	0.165	-0.012
-697.485	80.839	0.252	-0.275
-696.470	-65.720	-0.417	-0.169
-695.456	800.000	-0.020	0.080
-694.441	-89.381	0.264	0.079
-693.426	-200.000	0.044	-0.382
-692.412	328.793	0.141	-0.275
-691.397	11.987	-0.046	0.036
-690.383	-200.000	-0.022	-0.150
-689.368	800.000	-0.046	0.153
-688.354	14.031	-0.113	0.089
-687.339	38.957	0.203	0.184
-686.324	242.277	-0.202	0.343
-685.310	561.197	-0.045	0.109
-684.295	88.149	-0.047	0.053
-683.281	-57.621	-0.202	0.090
-682.266	-200.000	0.007	0.168
-681.251	253.601	-0.140	0.243
-680.237	165.802	-0.175	0.251
-679.222	-79.016	-0.280	0.096
-678.208	-60.847	-0.259	0.111
-677.193	23.093	-0.219	0.182
-676.178	172.862	-0.208	-0.303
-675.164	155.901	-0.116	0.162
-674.149	525.299	-0.039	0.094
-673.135	-200.000	-0.028	0.161
-672.120	-200.000	-0.004	-0.278
-671.105	-142.323	-0.338	-0.034
-670.091	768.229	-0.076	-0.208
-669.076	-18.764	-0.399	-0.252
-668.062	-27.237	-0.095	-0.056
-667.047	-159.503	-0.599	0.034
-666.032	39.855	-0.136	0.124
-665.018	296.712	-0.099	-0.184
-664.003	47.519	0.062	0.058
-662.989	-20.908	0.106	0.066
-661.974	586.803	-0.046	-0.114
-660.959	-72.641	0.148	0.055
-659.945	-200.000	0.030	0.161
-658.930	-24.404	-0.430	-0.259
-657.916	-139.303	0.194	-0.021
-656.901	-37.910	-0.168	-0.091
-655.886	-75.329	-0.319	-0.115
-654.872	-140.889	0.027	-0.003
-653.857	68.183	0.215	0.223
-652.843	-2.714	0.152	0.107
-651.828	-82.683	-0.093	0.031
-650.814	-7.175	-0.302	0.207
-649.799	-200.000	0.015	-0.100
-648.784	-200.000	-0.040	-0.232
-647.770	-82.424	-0.058	-0.019
-646.755	125.511	-0.269	0.343
-645.741	-200.000	-0.042	0.282
-644.726	180.443	-0.033	-0.048
-643.711	778.557	-0.051	0.142
-642.697	800.000	-0.086	-0.288
-641.682	234.602	-0.021	0.036
-640.668	96.768	-0.035	0.040
-639.653	25.379	0.077	-0.064
-638.638	21.282	0.102	0.084
-637.624	800.000	0.061	0.194
-636.609	-42.398	-0.268	0.138
-635.595	-115.432	0.088	-0.017
-634.580	-66.231	0.272	0.110
-633.565	-200.000	0.076	-0.367
-632.551	-200.000	-0.008	-0.322
-631.536	-46.466	-0.101	-0.050
-630.522	122.335	-0.148	-0.188
-629.507	-138.825	-0.384	-0.042
-628.492	-20.001	-0.069	0.043
-627.478	56.547	0.218	0.214
-626.463	-182.060	0.329	0.006
-625.449	25.625	0.144	0.121
-624.434	227.573	0.031	-0.050
-623.419	-137.489	0.217	0.025
-622.405	-200.000	0.066	0.387
-621.390	8.455	-0.184	0.140
-620.376	222.966	-0.251	-0.409
-619.361	403.343	-0.085	-0.180
-618.346	225.327	0.163	-0.267
-617.332	800.000	-0.099	-0.299
-616.317	-200.000	0.016	-0.261
-615.303	-121.883	0.265	-0.044
-614.288	-67.207	-0.100	0.040
-613.273	-105.354	0.191	-0.044
-612.259	53.591	0.026	-0.025
-611.244	-131.021	0.195	-0.026
-610.230	149.799	-0.142	0.195
-609.215	-200.000	-0.009	-0.164
-608.201	-109.967	-0.334	-0.071
-607.186	488.736	0.087	-0.201
-606.171	636.721	-0.071	0.182
-605.157	800.000	0.116	-0.429
-604.142	-56.910	-0.105	0.047
-603.128	-200.000	-0.061	-0.334
-602.113	63.627	-0.197	-0.200
-601.098	-142.729	0.112	-0.011
-600.084	100.407	-0.051	-0.060
-599.069	470.716	0.075	0.170
-598.055	-200.000	0.053	0.303
-597.040	714.028	-0.051	0.137
-596.025	-20.903	-0.169	0.105
-595.011	90.846	-0.180	0.204
-593.996	-200.000	-0.005	-0.138
-592.982	-200.000	-0.330	-0.001
-591.967	-200.000	-0.005	-0.169
-590.952	393.218	-0.145	0.304
-589.938	-67.019	-0.094	0.037
-588.923	44.937	-0.100	-0.093
-587.909	-200.000	-0.012	0.142
-586.894	-200.000	0.091	0.535
-585.879	-200.000	-0.009	0.042
-584.865	-9.252	-0.119	0.080
-583.850	-120.400	0.197	0.034
-582.836	-102.891	-0.034	0.008
-581.821	800.000	-0.053	0.203
-580.806	-61.467	-0.400	0.170
-579.792	133.797	-0.193	0.252
-578.777	-200.000	0.020	-0.258
-577.763	761.574	0.153	-0.418
-576.748	800.000	0.090	-0.307
-575.733	800.000	0.016	-0.064
-574.719	407.051	0.073	-0.156
-573.704	-168.643	0.129	0.005
-572.690	-65.354	0.306	-0.124
-571.675	35.052	-0.240	0.212
-570.661	-200.000	0.020	0.218
-569.646	17.766	-0.063	-0.051
-568.631	-13.556	0.147	0.096
-567.617	-93.919	0.233	0.065
-566.602	143.444	0.136	-0.183
-565.588	112.109	0.069	0.085
-564.573	800.000	-0.147	0.511
-563.558	-51.504	-0.237	-0.112
-562.544	91.988	-0.058	0.066
-561.529	-140.563	0.093	-0.010
-560.515	215.491	-0.154	-0.247
-559.500	152.169	0.192	-0.265
-558.485	-53.270	-0.105	0.049
-557.471	-131.677	-0.175	0.023
-556.456	800.000	0.036	0.101
-555.442	-36.021	0.249	0.136
-554.427	-200.000	0.028	0.224
-553.412	-124.419	-0.187	-0.029
-552.398	164.431	-0.091	-0.130
-551.383	-31.593	0.166	-0.094
-550.369	-75.059	-0.349	0.126
-549.354	-105.166	-0.483	-0.111
-548.339	-79.601	0.172	0.058
-547.325	800.000	-0.073	-0.270
-546.310	120.338	-0.144	-0.181
-545.296	-44.137	-0.240	0.121
-544.281	-200.000	0.008	0.189
-543.266	133.010	0.215	-0.280
-542.252	92.237	-0.093	0.106
-541.237	66.144	0.179	0.183
-540.223	-200.000	0.013	0.196
-539.208	488.359	-0.046	-0.106
-538.193	-142.838	0.391	0.038
-537.179	-82.052	-0.202	0.066
-536.164	-131.077	0.019	-0.003
-535.150	-43.364	-0.082	-0.042
-534.135	-121.275	0.173	0.029
-533.121	-117.144	-0.077	0.014
-532.106	-2.186	0.135	-0.095
-531.091	-84.728	-0.112	-0.036
-530.077	37.860	0.171	0.153
-529.062	-200.000	0.003	0.103
-528.048	-38.170	-0.048	-0.026
-527.033	-200.000	0.022	0.246
-526.018	-200.000	0.016	0.195
-525.004	483.621	-0.086	0.197
-523.989	270.254	-0.136	-0.241
-522.975	800.000	-0.103	-0.409
-521.960	-123.654	0.039	0.006
-520.945	800.000	0.047	-0.150
-519.931	28.823	-0.278	0.237
-518.916	-200.000	0.066	0.325
-517.902	-200.000	-0.020	-0.240
-516.887	-117.531	0.136	0.025
-515.872	-200.000	-0.031	-0.193
-514.858	68.526	0.114	-0.118
-513.843	-200.000	0.007	-0.255
-512.829	-89.967	0.155	0.045
-511.814	-39.972	-0.162	0.085
-510.799	-61.967	-0.085	-0.036
-509.785	-200.000	0.012	-0.200
-508.770	-200.000	-0.037	-0.258
-507.756	-51.424	-0.247	-0.116
-506.741	800.000	0.071	-0.256
-505.726	-115.637	0.036	0.007
-504.712	123.156	0.192	0.241
-503.697	-94.836	0.216	-0.059
-502.683	-34.579	-0.061	0.034
-501.668	-200.000	-0.013	-0.138
-500.653	3.916	0.174	-0.128
-499.639	-143.464	-0.358	-0.034
-498.624	283.873	-0.118	0.214
-497.610	6.330	0.096	0.071
-496.595	-68.673	0.116	0.045
-495.581	193.074	0.104	0.158
-494.566	-200.000	0.014	-0.448
-493.551	-66.703	0.226	-0.090
-492.537	502.523	0.058	-0.135
-491.522	785.603	0.138	-0.379
-490.508	171.358	-0.156	-0.224
-489.493	-200.000	-0.007	-0.129
-488.478	56.309	-0.035	-0.034
-487.464	24.560	0.215	0.179
-486.449	487.616	-0.129	0.296
-485.435	-114.466	0.208	-0.040
-484.420	-3.111	-0.140	-0.098
-483.405	181.556	-0.157	-0.232
-482.391	-57.133	0.131	0.058
-481.376	764.602	0.052	0.143
-480.362	67.498	0.183	0.188
-479.347	186.035	0.033	-0.050
-478.332	-170.861	0.243	0.008
-477.318	311.288	-0.103	0.195
-476.303	-95.159	-0.297	0.080
-475.289	61.482	0.084	-0.084
-474.274	-200.000	-0.028	-0.224
-473.259	-193.960	-0.309	0.003
-472.245	-84.072	-0.504	0.161
-471.230	-109.395	0.560	-0.119
-470.216	-200.000	-0.002	-0.242
-469.201	73.939	0.280	-0.295
-468.186	-41.697	0.148	0.076
-467.172	-200.000	-0.030	-0.309
-466.157	266.980	0.153	-0.269
-465.143	-200.000	0.028	-0.244
-464.128	-116.998	0.050	-0.009
-463.113	-78.640	0.181	0.062
-462.099	-200.000	-0.041	-0.190
-461.084	-101.164	0.333	0.082
-460.070	96.874	-0.070	0.081
-459.055	-200.000	0.008	0.065
-458.040	800.000	-0.069	0.282
-457.026	-134.302	-0.347	-0.043
-456.011	32.049	-0.255	0.220
-454.997	800.000	-0.035	0.122
-453.982	69.082	0.303	-0.313
-452.968	325.288	0.184	-0.353
-451.953	167.466	-0.285	-0.406
-450.938	-52.604	-0.231	-0.107
-449.924	-39.221	-0.182	-0.096
-448.909	-70.590	-0.147	-0.056
-447.895	800.000	0.114	0.437
-446.880	183.572	-0.040	0.059
-445.865	-85.133	0.358	-0.112
-444.851	6.359	-0.178	-0.133
-443.836	-30.835	-0.077	0.044
-442.822	125.950	-0.311	-0.395
-441.807	111.883	-0.131	-0.158
-440.792	800.000	-0.138	-0.441
-439.778	800.000	0.073	0.213
-438.763	800.000	-0.139	-0.403
-437.749	-200.000	0.017	-0.401
-436.734	-37.404	0.083	-0.045
-435.719	24.515	-0.122	0.101
-434.705	27.565	0.230	-0.194
-433.690	-34.956	-0.142	0.078
-432.676	-200.000	-0.057	0.391
-431.661	-200.000	0.044	0.379
-430.646	378.278	-0.057	0.118
-429.632	-39.266	-0.367	-0.193
-428.617	800.000	0.056	-0.219
-427.603	252.129	-0.145	-0.248
-426.588	-138.966	-0.155	-0.017
-425.573	434.844	-0.100	0.217
-424.559	-25.105	-0.270	-0.161
-423.544	800.000	-0.111	-0.345
-422.530	-125.420	-0.042	-0.006
-421.515	-113.531	-0.195	-0.038
-420.500	235.946	-0.182	0.302
-419.486	9.534	0.140	-0.106
-418.471	-46.417	-0.101	0.050
-417.457	103.669	0.116	-0.137
-416.442	-200.000	-0.048	-0.249
-415.428	-200.000	-0.051	-0.281
-414.413	800.000	0.053	-0.174
-413.398	-154.083	0.284	0.019
-412.384	-124.673	0.206	0.032
-411.369	179.016	-0.091	-0.133
-410.355	2.737	-0.183	0.133
-409.340	-14.046	-0.070	0.046
-408.325	-97.348	-0.112	0.029
-407.311	-61.550	-0.413	0.174
-406.296	178.013	0.200	-0.292
-405.282	467.976	0.023	-0.051
-404.267	-119.290	-0.035	-0.006
-403.252	-200.000	0.029	-0.225
-402.238	476.278	0.234	0.530
-401.223	116.151	0.110	-0.135
-400.209	63.093	0.145	0.145
-399.194	-9.070	0.168	0.112
-398.179	-32.097	-0.265	0.149
-397.165	95.207	-0.052	0.059
-396.150	-200.000	-0.007	-0.126
-395.136	-59.270	0.126	-0.054
-394.121	72.425	-0.159	0.166
-393.106	-106.682	-0.081	-0.018
-392.092	174.727	-0.106	-0.154
-391.077	179.165	-0.140	-0.206
-390.063	-161.697	0.285	0.015
-389.048	27.625	0.164	-0.138
-388.033	127.008	0.097	-0.123
-387.019	-200.000	0.008	-0.064
-386.004	-200.000	0.040	0.259
-384.990	71.881	0.178	-0.185
-383.975	12.328	-0.255	-0.197
-382.960	242.978	0.123	-0.206
-381.946	104.024	-0.197	0.232
-380.931	-200.000	0.025	0.267
-379.917	-101.187	0.030	0.007
-378.902	-167.088	0.220	0.009
-377.888	230.747	-0.094	0.154
-376.873	-152.618	-0.032	0.002
-375.858	96.369	0.037	0.043
-374.844	-200.000	-0.035	-0.194
-373.829	-139.301	0.308	-0.033
-372.815	302.349	0.055	-0.102
-371.800	-137.821	0.370	0.041
-370.785	48.322	0.046	0.043
-369.771	749.491	0.040	0.108
-368.756	-37.411	-0.091	-0.049
-367.742	-4.273	-0.057	0.040
-366.727	11.489	-0.205	-0.157
-365.712	-136.268	-0.169	0.020
-364.698	-23.247	-0.057	0.034
-363.683	65.423	-0.017	-0.017
-362.669	-200.000	-0.005	0.351
-361.654	-72.896	0.159	-0.058
-360.639	521.792	-0.131	-0.309
-359.625	-46.705	-0.258	-0.126
-358.610	46.811	-0.037	-0.034
-357.596	-165.537	-0.124	0.005
-356.581	97.265	-0.013	0.015
-355.566	257.490	0.238	0.410
-354.552	-33.163	-0.460	0.255
-353.537	146.159	-0.109	-0.146
-352.523	-171.278	0.113	-0.004
-351.508	-184.471	0.105	-0.002
-350.493	-35.439	-0.174	0.095
-349.479	-27.731	-0.127	0.074
-348.464	55.408	0.185	-0.179
-347.450	-36.188	-0.169	0.091
-346.435	-72.552	-0.173	-0.064
-345.420	22.106	0.175	-0.143
-344.406	-147.247	-0.313	-0.027
-343.391	800.000	-0.097	0.353
-342.377	-82.661	-0.202	-0.065
-341.362	-200.000	-0.033	0.189
-340.348	800.000	-0.102	0.401
-339.333	-81.801	0.455	0.149
-338.318	71.854	0.099	0.103
-337.304	-200.000	0.009	0.046
-336.289	440.493	-0.082	0.179
-335.275	-200.000	-0.010	0.152
-334.260	-2.414	-0.064	-0.045
-333.245	95.833	0.154	-0.176
-332.231	-200.000	0.047	-0.226
-331.216	208.201	-0.105	0.164
-330.202	98.734	0.209	0.241
-329.187	149.033	-0.122	-0.165
-328.172	-200.000	-0.005	-0.093
-327.158	-107.353	-0.214	-0.047
-326.143	-131.896	-0.145	-0.019
-325.129	-145.614	0.178	-0.016
-324.114	-33.480	0.166	0.092
-323.099	116.708	0.205	0.251
-322.085	161.911	0.241	-0.338
-321.070	-133.997	0.298	0.037
-320.056	-200.000	-0.361	-0.001
-319.041	183.808	-0.150	0.222
-318.026	-5.853	-0.244	0.167
-317.012	-18.790	0.278	-0.173
-315.997	-137.696	-0.142	-0.016
-314.983	-138.265	-0.244	-0.027
-313.968	-200.000	-0.017	-0.279
-312.953	765.017	-0.077	0.209
-311.939	346.591	0.120	0.235
-310.924	-50.830	-0.158	-0.074
-309.910	102.028	0.135	0.157
-308.895	-115.584	-0.129	0.024
-307.880	-145.647	0.215	-0.019
-306.866	18.303	-0.303	-0.242
-305.851	373.511	-0.080	-0.162
-304.837	-87.176	-0.130	-0.039
-303.822	161.927	0.152	-0.212
-302.807	-166.650	-0.170	-0.007
-301.793	77.097	0.171	-0.181
-300.778	-66.725	-0.050	0.020
-299.764	-200.000	0.009	-0.220
-298.749	-68.219	0.133	0.052
-297.735	268.558	-0.072	-0.126
-296.720	-179.329	0.225	0.005
-295.705	-200.000	0.046	0.275
-294.691	133.074	0.022	0.029
-293.676	20.499	0.146	0.118
-292.662	-200.000	-0.060	0.402
-291.647	-122.352	0.090	-0.015
-290.632	-101.237	-0.053	-0.013
-289.618	590.330	0.159	0.390
-288.603	16.069	0.042	-0.033
-287.589	-200.000	0.046	-0.361
-286.574	-25.749	-0.154	0.090
-285.559	-133.390	-0.420	-0.053
-284.545	800.000	0.062	0.173
-283.530	-123.864	0.377	0.059
-282.516	-102.283	0.321	0.077
-281.501	800.000	0.049	0.162
-280.486	-120.321	0.020	0.003
-279.472	37.296	0.127	0.112
-278.457	253.443	0.092	-0.157
-277.443	-21.903	0.448	0.271
-276.428	800.000	0.048	0.154
-275.413	-200.000	0.007	0.090
-274.399	-66.437	0.405	-0.161
-273.384	182.779	-0.166	0.244
-272.370	4.900	-0.273	-0.200
-271.355	282.411	0.188	0.336
-270.340	-94.159	-0.328	-0.090
-269.326	188.126	0.012	-0.017
-268.311	646.394	0.118	-0.301
-267.297	27.900	0.434	0.365
-266.282	75.745	-0.187	0.197
-265.267	-24.985	0.071	-0.042
-264.253	-168.223	0.144	-0.006
-263.238	88.430	0.315	0.349
-262.224	-200.000	-0.061	0.335
-261.209	335.532	0.131	0.252
-260.195	76.279	0.098	0.103
-259.180	-24.174	-0.115	0.069
-258.165	-200.000	0.002	-0.289
-257.151	-200.000	-0.037	0.207
-256.136	86.900	0.152	-0.167
-255.122	800.000	-0.058	0.169
-254.107	-84.049	-0.249	0.079
-253.092	-200.000	0.035	-0.175
-252.078	146.270	-0.139	0.186
-251.063	800.000	-0.052	0.162
-250.049	11.524	-0.037	-0.029
-249.034	-39.711	-0.336	0.175
-248.019	800.000	-0.115	0.331
-247.005	-25.508	-0.249	0.146
-245.990	78.775	0.049	-0.052
-244.976	191.590	0.113	-0.170
-243.961	-95.618	-0.275	0.073
-242.946	-179.533	0.106	-0.002
-241.932	128.423	-0.119	0.150
-240.917	-159.827	0.277	0.015
-239.903	-142.834	0.256	0.025
-238.888	-200.000	-0.001	0.008
-237.873	95.624	0.101	-0.115
-236.859	-95.881	0.296	-0.079
-235.844	-151.973	0.183	0.013
-234.830	20.667	-0.182	0.147
-233.815	-71.627	0.186	0.069
-232.800	-125.947	-0.186	0.028
-231.786	800.000	-0.072	0.305
-230.771	157.502	0.048	-0.066
-229.757	451.628	-0.018	0.040
-228.742	51.561	0.156	0.147
-227.727	800.000	0.076	0.232
-226.713	-113.157	0.317	0.062
-225.698	-200.000	0.008	-0.188
-224.684	21.031	0.161	0.130
-223.669	573.433	0.052	-0.127
-222.655	2.161	0.130	0.093
-221.640	56.619	-0.241	0.234
-220.625	-200.000	0.032	-0.276
-219.611	-98.421	0.262	-0.067
-218.596	141.019	-0.109	-0.143
-217.582	83.068	0.210	-0.227
-216.567	438.598	0.111	-0.241
-215.552	139.558	0.181	0.237
-214.538	-145.604	0.234	0.021
-213.523	-138.985	-0.197	0.021
-212.509	-144.610	-0.045	-0.004
-211.494	-120.835	-0.230	-0.038
-210.479	-123.670	0.078	0.012
-209.465	-134.058	0.197	-0.024
-208.450	-101.522	-0.025	0.006
-207.436	121.336	0.025	0.030
-206.421	389.592	0.043	-0.089
-205.406	287.079	0.091	0.164
-204.392	-96.292	-0.313	-0.083
-203.377	110.881	-0.088	0.106
-202.363	58.216	-0.049	-0.048
-201.348	558.118	-0.108	0.258
-200.333	-200.000	0.033	-0.355
-199.319	-36.746	-0.474	-0.253
-198.304	800.000	-0.074	0.322
-197.290	680.883	-0.088	-0.229
-196.275	-179.797	-0.233	-0.005
-195.260	478.930	0.134	-0.301
-194.246	128.502	0.032	-0.040
-193.231	-190.340	0.090	-0.001
-192.217	186.863	-0.168	0.248
-191.202	-90.046	0.318	-0.092
-190.187	-116.868	0.466	0.085
-189.173	132.159	-0.132	-0.168
-188.158	356.113	0.081	0.161
-187.144	40.464	-0.181	-0.162
-186.129	519.322	-0.028	0.065
-185.114	95.988	0.104	0.118
-184.100	140.403	0.069	0.091
-183.085	79.940	-0.198	0.211
-182.071	-9.638	-0.254	0.168
-181.056	-200.000	-0.003	-0.267
-180.042	-200.000	-0.033	-0.301
-179.027	800.000	-0.052	0.189
-178.012	129.610	0.153	-0.194
-176.998	-94.404	-0.119	0.032
-175.983	322.025	-0.165	0.312
-174.969	-34.383	0.113	-0.062
-173.954	-200.000	-0.014	0.359
-172.939	78.728	0.111	0.118
-171.925	-200.000	0.003	0.192
-170.910	-132.582	0.087	-0.011
-169.896	-86.100	0.330	-0.101
-168.881	-54.148	0.341	-0.154
-167.866	147.364	-0.151	-0.202
-166.852	292.881	-0.112	0.202
-165.837	498.756	-0.023	-0.053
-164.823	-200.000	0.001	-0.135
-163.808	-20.684	-0.056	0.034
-162.793	-17.376	0.107	-0.067
-161.779	-56.140	0.088	-0.039
-160.764	-169.459	0.169	0.006
-159.750	800.000	0.058	0.205
-158.735	800.000	-0.076	0.270
-157.720	-156.345	0.287	0.018
-156.706	-153.685	-0.231	0.016
-155.691	-170.563	0.390	-0.013
-154.677	-52.905	-0.071	-0.032
-153.662	671.258	-0.085	0.218
-152.647	-73.551	0.119	-0.043
-151.633	-56.487	0.419	0.185
-150.618	-110.084	0.199	0.041
-149.604	-164.039	-0.044	-0.002
-148.589	-67.446	-0.288	0.112
-147.574	800.000	0.035	0.103
-146.560	-200.000	0.014	-0.132
-145.545	12.755	-0.103	-0.079
-144.531	10.121	0.038	0.029
-143.516	800.000	-0.126	0.478
-142.502	-10.043	0.210	0.138
-141.487	116.950	-0.051	-0.062
-140.472	-91.165	-0.307	-0.087
-139.458	-147.606	-0.326	-0.027
-138.443	-200.000	0.009	-0.223
-137.429	84.623	0.047	0.052
-136.414	643.154	-0.087	-0.221
-135.399	-200.000	0.010	-0.230
-134.385	-200.000	0.027	0.270
-133.370	-200.000	-0.035	-0.185
-132.356	-78.261	-0.316	0.108
-131.341	136.785	0.230	-0.298
-130.326	-200.000	0.331	0.001
-129.312	-200.000	-0.017	-0.137
-128.297	800.000	-0.056	0.213
-127.283	59.170	-0.250	0.244
-126.268	-32.798	-0.073	-0.040
-125.253	-82.400	-0.132	0.043
-124.239	-68.771	0.375	-0.144
-123.224	-172.787	-0.395	0.012
-122.210	-35.025	-0.128	0.069
-121.195	65.728	0.234	-0.235
-120.180	406.048	0.198	-0.413
-119.166	206.459	-0.147	0.227
-118.151	260.544	0.106	-0.181
-117.137	-35.206	0.320	-0.172
-116.122	-141.152	-0.312	-0.032
-115.107	-29.627	0.188	0.106
-114.093	-153.042	0.160	0.011
-113.078	144.335	-0.157	0.208
-112.064	-81.287	0.331	-0.108
-111.049	-200.000	-0.026	0.274
-110.034	-76.992	-0.115	0.040
-109.020	8.341	-0.374	0.279
-108.005	-200.000	0.039	-0.225
-106.991	-153.463	-0.362	-0.025
-105.976	-78.910	0.391	0.132
-104.962	-60.069	-0.247	0.104
-103.947	-99.461	-0.099	-0.025
-102.932	395.467	-0.109	-0.225
-101.918	800.000	-0.048	-0.182
-100.903	-200.000	0.004	0.067
-99.889	-32.315	0.121	-0.067
-98.874	-200.000	0.021	0.158
-97.859	155.459	0.135	0.185
-96.845	-59.461	-0.175	-0.074
-95.830	751.443	-0.063	0.169
-94.816	800.000	-0.025	0.096
-93.801	-134.206	0.328	0.040
-92.786	-87.818	-0.357	-0.107
-91.772	4.464	0.200	-0.146
-90.757	-156.214	0.078	-0.005
-89.743	776.196	0.116	0.313
-88.728	-76.200	-0.094	0.033
-87.713	263.200	-0.249	0.429
-86.699	-13.994	-0.110	0.070
-85.684	-96.349	-0.135	0.035
-84.670	-200.000	-0.078	-0.430
-83.655	-163.609	0.242	0.011
-82.640	140.331	-0.121	0.158
-81.626	76.461	0.172	-0.181
-80.611	-78.313	0.198	0.067
-79.597	-176.354	0.049	-0.001
-78.582	33.795	0.010	0.009
-77.567	800.000	0.106	-0.330
-76.553	-199.366	0.267	0.001
-75.538	-96.406	-0.273	0.071
-74.524	-99.972	-0.247	-0.061
-73.509	-38.248	0.257	0.135
-72.494	-19.673	-0.059	0.036
-71.480	-1.997	0.076	-0.053
-70.465	-200.000	-0.036	0.170
-69.451	-200.000	-0.008	-0.204
-68.436	-17.422	0.126	0.079
-67.422	36.905	0.063	-0.055
-66.407	-1.017	-0.298	0.208
-65.392	-200.000	-0.003	0.097
-64.378	-71.790	0.098	-0.036
-63.363	-151.550	0.114	0.008
-62.349	46.688	-0.116	0.106
-61.334	44.644	-0.799	-0.726
-60.319	-156.527	0.424	-0.026
-59.305	-200.000	-0.231	-1.015
-58.290	133.286	0.829	1.059
-57.276	552.742	0.631	1.498
-56.261	-200.000	89.466	502.549
-55.246	517.874	1404.136	3248.015
-54.232	184.345	2616.626	3831.036
-53.217	112.031	2337.406	2791.622
-52.203	44.962	1944.135	1769.587
-51.188	39.159	1730.328	1529.916
-50.173	36.402	1685.133	1468.962
-49.159	51.795	1729.746	1626.749
-48.144	55.218	1747.747	1669.986
-47.130	39.089	1706.611	1508.170
-46.115	36.184	1691.294	1472.431
-45.100	36.003	1686.540	1466.856
-44.086	35.861	1684.794	1464.206
-43.071	35.883	1681.782	1461.694
-42.057	35.806	1679.558	1459.121
-41.042	35.848	1677.620	1457.695
-40.027	35.838	1675.662	1455.860
-39.013	35.883	1673.300	1454.093
-37.998	35.913	1671.819	1452.970
-36.984	35.945	1670.567	1452.066
-35.969	36.083	1669.141	1451.812
-34.954	36.106	1667.805	1450.762
-33.940	36.090	1665.834	1448.872
-32.925	36.060	1663.640	1446.683
-31.911	36.068	1661.979	1445.240
-30.896	36.092	1660.366	1443.960
-29.881	36.020	1658.897	1442.086
-28.867	36.052	1657.020	1440.639
-27.852	35.922	1655.863	1438.604
-26.838	35.992	1654.595	1437.964
-25.823	36.098	1652.613	1436.979
-24.809	36.146	1651.176	1436.030
-23.794	36.115	1649.913	1434.639
-22.779	36.141	1648.126	1433.226
-21.765	36.089	1646.887	1431.704
-20.750	36.055	1645.210	1429.935
-19.736	36.072	1643.781	1428.763
-18.721	36.169	1641.976	1427.856
-17.706	36.073	1640.652	1425.934
-16.692	36.038	1639.095	1424.267
-15.677	36.042	1637.578	1422.922
-14.663	36.115	1635.767	1421.835
-13.648	36.143	1634.516	1420.891
-12.633	36.180	1632.664	1419.501
-11.619	36.096	1631.720	1418.006
-10.604	36.170	1630.209	1417.179
-9.590	36.082	1629.278	1415.668
-8.575	36.072	1627.563	1414.050
-7.560	36.153	1626.353	1413.537
-6.546	36.022	1625.524	1411.798
-5.531	36.070	1624.442	1411.155
-4.517	36.131	1622.989	1410.283
-3.502	36.027	1622.266	1408.838
-2.487	36.165	1620.847	1408.557
-1.473	36.213	1609.075	1398.623
-0.458	34.216	1591.054	1368.566
0.556	29.791	1591.409	1338.259
1.571	27.266	1615.923	1340.175
2.586	26.357	1629.509	1344.565
3.600	23.156	1575.532	1276.852
4.615	14.234	1461.814	1124.575
5.629	6.400	1395.141	1022.491
6.644	5.170	1386.232	1007.939
7.659	5.076	1384.484	1005.967
8.673	4.921	1383.690	1004.304
9.688	4.913	1381.828	1002.815
10.702	4.865	1378.357	999.896
11.717	8.299	1386.314	1027.722
12.731	16.265	1401.003	1090.160
13.746	19.879	1405.658	1117.059
14.761	18.429	1402.264	1104.919
15.775	17.369	1399.028	1095.448
16.790	16.221	1395.957	1085.564
17.804	15.424	1393.761	1078.641
18.819	15.043	1392.647	1075.232
19.834	14.768	1391.114	1072.193
20.848	14.462	1389.722	1069.062
21.863	14.197	1388.980	1066.695
22.877	14.028	1387.807	1064.621
23.892	13.972	1386.968	1063.520
24.907	14.053	1385.576	1062.880
25.921	14.053	1384.607	1062.042
26.936	14.088	1383.449	1061.281
27.950	14.144	1382.645	1060.930
28.965	14.067	1382.001	1059.851
29.980	14.198	1380.877	1059.730
30.994	14.310	1379.399	1059.215
32.009	14.387	1377.906	1058.464
33.023	14.276	1377.063	1057.017
34.038	14.317	1375.300	1055.830
35.053	14.196	1374.712	1054.516
36.067	14.239	1373.051	1053.425
37.082	14.209	1372.459	1052.686
38.096	14.322	1370.839	1052.067
39.111	14.240	1370.563	1051.240
40.126	14.149	1369.764	1049.961
41.140	14.046	1368.575	1048.305
42.155	13.918	1368.635	1047.454
43.169	14.055	1367.875	1047.641
44.184	13.967	1367.773	1046.918
45.199	13.992	1367.031	1046.416
46.213	14.023	1366.705	1046.265
47.228	14.113	1365.890	1046.119
48.242	14.217	1364.165	1045.359
49.257	14.230	1362.585	1044.138
50.271	14.072	1361.402	1042.144
51.286	14.012	1360.876	1041.273
52.301	14.074	1359.386	1040.429
53.315	14.119	1358.073	1039.615
54.330	14.011	1357.333	1038.284
55.344	14.038	1355.616	1037.042
56.359	14.084	1354.401	1036.309
57.374	13.996	1354.169	1035.490
58.388	13.957	1353.045	1034.300
59.403	13.922	1352.302	1033.420
60.417	13.953	1351.882	1033.204
61.432	13.868	1350.861	1031.801
62.447	13.749	1350.130	1030.410
63.461	13.899	1348.401	1029.931
64.476	13.847	1347.140	1028.557
65.490	13.790	1346.210	1027.405
66.505	13.836	1344.929	1026.621
67.520	13.900	1343.359	1025.722
68.534	13.954	1342.313	1025.167
69.549	13.887	1341.392	1023.960
70.563	13.900	1340.413	1023.202
71.578	13.790	1339.126	1021.452
72.593	13.760	1338.485	1020.688
73.607	13.644	1337.733	1019.315
74.622	13.751	1336.827	1019.189
75.636	13.865	1335.977	1019.148
76.651	13.804	1335.222	1018.110
77.666	13.799	1334.677	1017.571
78.680	13.749	1334.665	1017.167
79.695	13.829	1333.566	1016.731
80.709	13.893	1333.072	1016.654
81.724	13.934	1331.661	1015.738
82.739	13.929	1331.321	1015.361
83.753	14.150	1329.904	1015.542
84.768	14.119	1329.104	1014.649
85.782	14.232	1327.695	1014.173
86.797	14.283	1326.384	1013.395
87.812	14.055	1325.203	1011.016
88.826	14.086	1324.522	1010.595
89.841	14.086	1323.447	1009.684
90.855	14.200	1322.336	1009.440
91.870	14.178	1321.648	1008.688
92.884	14.236	1320.341	1007.958
93.899	14.244	1319.594	1007.344
94.914	14.257	1319.018	1006.896
95.928	14.365	1318.081	1006.739
96.943	14.299	1316.966	1005.404
97.957	14.309	1316.036	1004.666
98.972	14.158	1315.264	1003.074
99.987	14.214	1313.815	1002.219
101.001	14.269	1312.687	1001.602
102.016	14.243	1312.016	1000.844
103.030	14.183	1311.225	999.791
104.045	14.248	1310.399	999.462
105.060	14.181	1309.102	997.983
106.074	14.098	1307.825	996.424
107.089	13.982	1306.408	994.565
108.103	13.851	1305.304	992.853
109.118	13.860	1303.942	991.780
110.133	13.909	1302.339	990.763
111.147	13.990	1301.097	990.218
112.162	14.010	1299.906	989.343
113.176	14.113	1298.122	988.509
114.191	14.055	1297.756	987.799
115.206	13.999	1296.966	986.779
116.220	14.022	1295.448	985.672
117.235	13.995	1294.095	984.395
118.249	14.015	1293.145	983.704
119.264	14.001	1292.280	982.877
120.279	14.049	1290.688	981.860
121.293	13.957	1289.716	980.492
122.308	13.872	1289.063	979.406
123.322	13.917	1288.135	978.879
124.337	13.895	1286.732	977.600
125.352	13.904	1285.767	976.833
126.366	13.925	1284.494	975.903
127.381	13.951	1283.512	975.223
128.395	13.825	1282.784	973.843
129.410	13.965	1281.492	973.598
130.424	14.090	1280.702	973.643
131.439	13.963	1280.176	972.414
132.454	14.083	1279.132	972.237
133.468	14.111	1278.059	971.499
134.483	14.066	1277.403	970.648
135.497	14.088	1276.361	969.903
136.512	14.038	1275.490	968.864
137.527	14.058	1274.201	967.912
138.541	14.017	1273.004	966.679
139.556	14.207	1270.842	966.054
140.570	14.115	1270.301	965.024
141.585	14.196	1269.271	964.625
142.600	14.102	1268.080	963.092
143.614	14.172	1267.230	962.764
144.629	14.401	1265.792	962.910
145.643	14.319	1264.623	961.463
146.658	14.194	1263.330	959.676
147.673	14.147	1262.147	958.420
148.687	14.067	1260.793	956.845
149.702	14.044	1259.374	955.556
150.716	14.009	1258.690	954.746
151.731	14.168	1256.981	954.283
152.746	14.084	1256.047	953.005
153.760	14.153	1254.751	952.331
154.775	14.180	1253.844	951.716
155.789	14.224	1252.611	950.943
156.804	14.249	1251.606	950.240
157.819	14.272	1250.652	949.567
158.833	14.336	1249.883	949.262
159.848	14.365	1248.615	948.381
160.862	14.340	1247.588	947.373
161.877	14.261	1246.945	946.355
162.892	14.179	1245.598	944.778
163.906	14.129	1244.367	943.477
164.921	14.184	1244.093	943.501
165.935	14.214	1243.189	942.901
166.950	14.307	1241.841	942.322
167.964	14.329	1241.100	941.803
168.979	14.396	1240.584	941.704
169.994	14.340	1239.879	940.769
171.008	14.420	1238.869	940.369
172.023	14.389	1238.291	939.675
173.037	14.431	1237.311	939.082
174.052	14.381	1236.563	938.150
175.067	14.292	1235.747	936.948
176.081	14.320	1234.317	935.940
177.096	14.181	1233.463	934.428
178.110	14.333	1232.074	934.147
179.125	14.337	1230.926	933.215
180.140	14.391	1229.836	932.610
181.154	14.521	1228.448	932.200
182.169	14.441	1227.555	930.994
183.183	14.518	1226.484	930.530
184.198	14.477	1225.407	929.403
185.213	14.557	1223.935	928.648
186.227	14.578	1222.894	927.892
187.242	14.718	1221.619	927.620
188.256	14.672	1220.760	926.630
189.271	14.594	1220.229	925.716
190.286	14.460	1219.237	924.133
191.300	14.358	1217.911	922.484
192.315	14.344	1217.259	921.832
193.329	14.282	1216.839	921.091
194.344	14.356	1216.221	920.949
195.359	14.368	1215.484	920.376
196.373	14.505	1214.763	920.506
197.388	14.655	1214.017	920.684
198.402	14.663	1214.036	920.659
199.417	14.758	1213.234	920.498
200.432	14.802	1212.391	920.017
201.446	14.828	1211.676	919.538
202.461	14.956	1210.622	919.356
203.475	14.880	1209.710	918.169
204.490	14.854	1208.158	916.767
205.504	14.810	1207.072	915.618
206.519	14.825	1205.714	914.591
207.534	14.802	1204.789	913.683
208.548	14.762	1204.180	912.922
209.563	14.820	1202.928	912.207
210.577	14.721	1202.007	910.889
211.592	14.723	1201.574	910.491
212.607	14.905	1200.271	910.414
213.621	14.919	1199.472	909.803
214.636	14.902	1198.955	909.238
215.650	14.854	1198.099	908.248
216.665	14.880	1197.246	907.660
217.680	14.971	1195.746	906.935
218.694	15.068	1195.250	907.005
219.709	15.051	1194.562	906.312
220.723	14.967	1193.921	905.293
221.738	15.018	1192.851	904.678
222.753	15.235	1191.681	904.877
223.767	15.037	1191.787	903.809
224.782	15.114	1190.935	903.501
225.796	15.082	1190.708	903.073
226.811	15.088	1190.038	902.517
227.826	15.126	1188.443	901.437
228.840	15.098	1188.054	900.910
229.855	15.048	1187.133	899.860
230.869	15.115	1186.065	899.331
231.884	15.081	1185.838	898.899
232.899	15.022	1184.576	897.544
233.913	14.992	1184.358	897.142
234.928	15.042	1183.185	896.441
235.942	14.912	1182.694	895.291
236.957	15.046	1181.695	895.174
237.972	14.988	1181.026	894.280
238.986	15.069	1180.250	894.044
240.001	15.133	1179.799	893.965
241.015	15.181	1178.391	893.075
242.030	15.139	1177.752	892.286
243.045	15.226	1177.103	892.181
244.059	15.170	1176.262	891.168
245.074	15.266	1175.361	890.913
246.088	15.295	1174.722	890.504
247.103	15.341	1173.972	890.103
248.117	15.269	1173.705	889.438
249.132	15.355	1172.727	889.078
250.147	15.522	1171.953	889.296
251.161	15.615	1171.135	889.086
252.176	15.623	1170.397	888.492
253.190	15.642	1170.303	888.440
254.205	15.713	1169.533	888.154
255.220	15.710	1168.765	887.476
256.234	15.747	1168.324	887.254
257.249	15.657	1167.576	886.135
258.263	15.686	1167.001	885.772
259.278	15.694	1166.260	885.173
260.293	15.795	1165.553	885.094
261.307	15.783	1164.880	884.441
262.322	15.845	1164.721	884.568
263.336	15.849	1164.024	883.982
264.351	15.829	1163.201	883.169
265.366	15.855	1162.382	882.607
266.380	15.788	1161.678	881.641
267.395	15.798	1160.741	880.905
268.409	15.730	1160.166	880.039
269.424	15.741	1159.693	879.658
270.439	15.811	1158.743	879.225
271.453	15.742	1158.537	878.630
272.468	15.745	1157.026	877.421
273.482	15.833	1156.252	877.218
274.497	15.742	1156.231	876.649
275.512	15.715	1155.266	875.700
276.526	15.789	1154.377	875.333
277.541	15.840	1153.708	875.011
278.555	15.841	1152.957	874.371
279.570	15.909	1152.400	874.223
280.585	15.996	1151.342	873.798
281.599	15.993	1150.334	872.936
282.614	15.969	1149.583	872.166
283.628	15.993	1148.524	871.412
284.643	15.957	1147.527	870.393
285.657	15.947	1146.668	869.609
286.672	16.028	1146.087	869.512
287.687	16.081	1144.719	868.669
288.701	15.955	1144.298	867.623
289.716	15.987	1143.648	867.221
290.730	16.118	1142.193	866.712
291.745	16.088	1142.064	866.383
292.760	16.086	1141.397	865.789
293.774	16.099	1140.965	865.450
294.789	16.199	1139.987	865.147
295.803	16.189	1139.497	864.647
296.818	16.205	1138.917	864.212
297.833	16.072	1137.846	862.644
298.847	16.144	1136.915	862.227
299.862	16.156	1136.246	861.708
300.876	16.276	1135.661	861.801
301.891	16.335	1134.987	861.511
302.906	16.261	1134.494	860.687
303.920	16.361	1133.494	860.359
304.935	16.323	1132.920	859.655
305.949	16.509	1132.251	860.017
306.964	16.352	1131.934	858.900
307.979	16.366	1130.738	857.990
308.993	16.405	1129.981	857.535
310.008	16.506	1129.129	857.325
311.022	16.428	1128.815	856.616
312.037	16.478	1127.727	855.967
313.052	16.418	1126.394	854.579
314.066	16.502	1125.869	854.529
315.081	16.274	1125.194	852.791
316.095	16.204	1124.227	851.627
317.110	16.296	1123.597	851.540
318.125	16.334	1122.825	851.072
319.139	16.207	1122.063	849.777
320.154	16.350	1121.371	849.898
321.168	16.259	1120.791	848.925
322.183	16.350	1120.241	848.889
323.197	16.394	1119.669	848.603
324.212	16.328	1119.453	848.034
325.227	16.432	1118.630	847.854
326.241	16.515	1117.921	847.658
327.256	16.415	1117.134	846.487
328.270	16.362	1116.085	845.350
329.285	16.440	1114.793	844.687
330.300	16.462	1114.132	844.225
331.314	16.420	1113.539	843.488
332.329	16.459	1112.541	842.855
333.343	16.682	1111.183	842.858
334.358	16.603	1110.351	841.763
335.373	16.570	1109.770	841.082
336.387	16.616	1109.032	840.678
337.402	16.692	1108.276	840.410
338.416	16.674	1107.611	839.739
339.431	16.617	1107.270	839.124
340.446	16.843	1106.849	839.852
341.460	16.862	1105.732	839.024
342.475	16.800	1105.085	838.150
343.489	16.913	1104.098	837.887
344.504	16.848	1102.863	836.555
345.519	17.015	1102.143	836.757
346.533	17.100	1100.983	836.224
347.548	17.043	1100.721	835.666
348.562	16.953	1100.315	834.841
349.577	16.973	1099.079	833.929
350.592	16.949	1098.204	833.075
351.606	16.886	1097.352	832.047
352.621	16.852	1096.752	831.350
353.635	16.849	1096.422	831.009
354.650	16.807	1095.508	830.041
355.665	16.787	1094.858	829.374
356.679	16.940	1094.294	829.622
357.694	16.872	1093.689	828.759
358.708	17.018	1093.026	828.895
359.723	17.006	1092.219	828.151
360.738	16.985	1091.839	827.687
361.752	17.061	1091.276	827.558
362.767	17.015	1090.858	826.945
363.781	17.026	1090.172	826.404
364.796	17.111	1089.508	826.241
365.810	17.354	1088.416	826.524
366.825	17.259	1088.277	825.881
367.840	17.359	1087.392	825.623
368.854	17.377	1086.997	825.339
369.869	17.339	1086.586	824.767
370.883	17.212	1085.488	823.245
371.898	17.341	1084.504	823.049
372.913	17.296	1083.892	822.296
373.927	17.391	1083.642	822.491
374.942	17.383	1083.228	822.066
375.956	17.418	1082.714	821.774
376.971	17.356	1081.834	820.732
377.986	17.448	1081.109	820.554
379.000	17.401	1080.732	819.969
380.015	17.486	1080.651	820.243
381.029	17.483	1080.085	819.730
382.044	17.587	1078.954	819.296
383.059	17.528	1078.216	818.380
384.073	17.680	1077.259	818.314
385.088	17.575	1076.674	817.294
386.102	17.496	1075.555	815.991
387.117	17.604	1074.591	815.706
388.132	17.361	1073.746	813.829
389.146	17.439	1072.785	813.401
390.161	17.468	1072.300	813.098
391.175	17.623	1071.127	812.876
392.190	17.545	1070.829	812.206
393.205	17.597	1070.175	811.887
394.219	17.527	1069.448	810.931
395.234	17.589	1068.235	810.236
396.248	17.652	1067.142	809.632
397.263	17.548	1066.102	808.277
398.278	17.584	1065.379	807.829
399.292	17.526	1064.835	807.073
400.307	17.455	1064.037	806.059
401.321	17.630	1063.326	806.279
402.336	17.530	1062.938	805.441
403.350	17.424	1062.507	804.538
404.365	17.549	1061.440	804.250
405.380	17.704	1060.501	804.198
406.394	17.691	1059.939	803.641
407.409	17.687	1059.575	803.273
408.423	17.715	1058.723	802.691
409.438	17.813	1058.007	802.535
410.453	17.778	1057.884	802.209
411.467	17.906	1056.507	801.693
412.482	17.969	1055.970	801.512
413.496	17.916	1055.507	800.841
414.511	18.004	1054.748	800.604
415.526	17.907	1054.784	800.110
416.540	18.122	1053.821	800.315
417.555	18.095	1053.561	799.921
418.569	18.122	1052.562	799.214
419.584	18.181	1052.138	799.099
420.599	18.106	1052.023	798.590
421.613	145.360	1400.030	1783.937
422.628	133.227	1450.694	1784.046
