DTS Sentinel unit serial number:	SN413079Multiplexer serial number:	ORYXHardware model number:	OX4-SRSoftware version number:	ORYX F/W v4.00 Oryx Data Collector v3.7.2.0data status	okinstallation	princeton_trtdifferential loss correction	single-endedforward channel	channel 2reverse channel	N/Adate	2019/09/13time	23:47:35forward acquisition time	60.00reverse acquisition time	0.00gamma	496.2192k internal	0.2338k external	0.2338temperature offset calibration	1.0129default loss term (dB/km)	0.3790temperature slope calibration	1.0000multiplexer offset coefficient	1.0000multiplexer slope coefficient	1.0000fibre end	0.00T internal ref (°C)	26.62T ext. ref 1 (°C)	3.18T ext. ref 2 (°C)	20.93length (m)	temperature (°C)	Stokes	anti-Stokes-747.200	458.665	-0.126	-0.282
-746.185	45.991	0.167	0.155
-745.171	80.820	-0.241	0.261
-744.156	799.426	-0.071	-0.198
-743.142	41.230	0.134	0.121
-742.127	301.016	-0.154	0.286
-741.112	80.206	-0.313	-0.338
-740.098	246.466	-0.248	-0.419
-739.083	-7.519	0.123	0.083
-738.069	-200.000	-0.021	-0.144
-737.054	-74.924	0.098	0.035
-736.039	-19.121	-0.462	0.288
-735.025	-79.786	0.491	0.166
-734.010	116.410	-0.222	0.273
-732.996	188.382	-0.137	0.205
-731.981	800.000	0.115	-0.398
-730.966	-200.000	-0.034	-0.244
-729.952	218.194	0.058	-0.092
-728.937	-85.652	-0.204	0.064
-727.923	115.577	-0.090	0.111
-726.908	-176.642	-0.156	0.004
-725.894	-50.619	-0.070	0.033
-724.879	296.156	-0.144	-0.264
-723.864	-113.021	0.243	-0.048
-722.850	535.824	-0.108	0.258
-721.835	78.419	0.098	0.105
-720.821	-200.000	-0.009	-0.247
-719.806	161.391	0.045	-0.064
-718.791	229.198	0.164	0.269
-717.777	-24.621	-0.281	0.168
-716.762	78.057	-0.139	0.149
-715.748	219.277	-0.216	0.347
-714.733	23.330	0.052	0.043
-713.718	-123.729	-0.496	-0.079
-712.704	-137.761	0.319	0.036
-711.689	-200.000	0.010	-0.085
-710.675	-200.000	0.038	0.217
-709.660	-106.981	-0.263	0.058
-708.645	-43.392	0.090	-0.046
-707.631	-69.440	-0.067	-0.026
-706.616	81.311	-0.245	0.265
-705.602	-2.902	0.128	0.090
-704.587	-95.671	-0.307	-0.082
-703.572	800.000	-0.081	-0.229
-702.558	306.086	-0.050	0.094
-701.543	-200.000	-0.036	0.281
-700.529	-56.974	-0.135	-0.060
-699.514	28.489	0.106	-0.090
-698.499	105.573	0.209	0.247
-697.485	100.062	-0.157	-0.182
-696.470	-132.443	0.090	-0.012
-695.456	-81.403	0.132	-0.043
-694.441	800.000	-0.057	-0.234
-693.426	-179.454	-0.323	-0.007
-692.412	-200.000	0.358	0.000
-691.397	800.000	0.022	-0.075
-690.383	578.346	-0.097	0.238
-689.368	272.065	-0.147	-0.259
-688.354	-200.000	0.018	0.185
-687.339	-127.312	0.280	0.041
-686.324	503.492	-0.115	0.266
-685.310	800.000	-0.015	0.046
-684.295	-21.590	-0.245	-0.149
-683.281	55.934	0.061	-0.060
-682.266	-169.885	0.157	0.006
-681.251	-159.802	0.356	0.020
-680.237	-5.583	-0.128	-0.088
-679.222	236.437	-0.133	0.220
-678.208	102.573	-0.303	-0.355
-677.193	42.360	0.137	-0.124
-676.178	-200.000	-0.087	0.420
-675.164	-196.921	0.158	-0.001
-674.149	800.000	0.057	0.207
-673.135	-66.263	-0.099	-0.040
-672.120	-186.754	0.559	-0.008
-671.105	-200.000	-0.060	-0.401
-670.091	-67.304	-0.131	-0.052
-669.076	-12.964	0.170	0.111
-668.062	-136.973	-0.608	0.070
-667.047	-131.193	0.202	-0.027
-666.032	-125.155	0.023	0.004
-665.018	-128.648	0.186	0.026
-664.003	-94.665	0.039	-0.011
-662.989	-64.373	-0.081	0.033
-661.974	-45.858	0.338	0.167
-660.959	-52.575	-0.274	-0.127
-659.945	-21.294	0.172	-0.105
-658.930	41.464	0.114	0.103
-657.916	171.536	0.031	-0.044
-656.901	-24.686	0.117	0.069
-655.886	4.805	-0.121	-0.089
-654.872	-45.855	-0.275	0.136
-653.857	-200.000	0.079	-0.452
-652.843	-200.000	0.029	-0.155
-651.828	93.205	0.229	0.259
-650.814	-109.954	0.246	0.051
-649.799	-139.227	0.306	0.033
-648.784	25.527	-0.273	-0.227
-647.770	243.446	0.128	-0.215
-646.755	-34.144	-0.248	0.136
-645.741	60.513	-0.015	0.015
-644.726	51.527	0.196	-0.186
-643.711	2.731	-0.079	-0.058
-642.697	-200.000	0.007	0.050
-641.682	-54.298	-0.166	0.075
-640.668	129.964	0.230	-0.295
-639.653	158.505	-0.291	-0.404
-638.638	-200.000	-0.037	0.401
-637.624	37.597	0.130	-0.115
-636.609	106.155	0.035	0.041
-635.595	-29.096	-0.380	0.218
-634.580	313.265	0.027	-0.050
-633.565	-200.000	-0.016	-0.260
-632.551	-71.603	-0.329	-0.123
-631.536	-135.141	-0.312	0.038
-630.522	150.351	-0.077	0.104
-629.507	-8.477	0.135	-0.091
-628.492	65.112	0.296	-0.299
-627.478	-88.869	-0.164	0.049
-626.463	-85.779	0.241	0.075
-625.449	-136.210	-0.146	0.017
-624.434	-57.455	-0.252	0.111
-623.419	-77.514	0.242	-0.084
-622.405	800.000	-0.049	0.170
-621.390	-86.712	-0.100	-0.031
-620.376	9.152	-0.169	0.128
-619.361	-71.256	0.124	0.046
-618.346	800.000	0.090	-0.250
-617.332	-112.852	-0.403	-0.080
-616.317	-200.000	-0.002	-0.053
-615.303	0.195	-0.173	0.123
-614.288	-27.160	-0.055	-0.032
-613.273	-39.222	-0.088	0.046
-612.259	-88.401	0.166	0.049
-611.244	-133.818	-0.111	0.014
-610.230	-200.000	-0.045	-0.230
-609.215	-109.003	0.235	-0.050
-608.201	-34.678	-0.229	-0.125
-607.186	-117.300	-0.330	-0.060
-606.171	-200.000	0.007	-0.074
-605.157	144.634	-0.223	0.298
-604.142	319.087	-0.143	-0.271
-603.128	-200.000	-0.022	-0.134
-602.113	96.484	0.148	-0.169
-601.098	59.688	0.047	0.046
-600.084	-99.620	-0.073	0.018
-599.069	37.868	-0.143	0.127
-598.055	-200.000	-0.054	-0.288
-597.040	800.000	0.125	0.387
-596.025	417.741	-0.048	0.103
-595.011	-41.517	0.367	0.188
-593.996	202.361	-0.138	0.212
-592.982	-103.474	-0.315	0.074
-591.967	-200.000	0.004	-0.202
-590.952	-105.363	-0.065	-0.015
-589.938	-200.000	-0.028	-0.242
-588.923	7.059	0.257	-0.191
-587.909	329.003	-0.224	-0.429
-586.894	36.043	0.153	-0.134
-585.879	-15.429	-0.397	0.253
-584.865	-13.356	0.072	0.047
-583.850	-22.708	0.195	0.117
-582.836	-200.000	0.016	0.326
-581.821	216.733	0.030	-0.048
-580.806	-54.944	0.157	-0.071
-579.792	800.000	-0.035	-0.135
-578.777	197.659	-0.286	0.435
-577.763	-200.000	0.014	-0.108
-576.748	368.072	0.032	0.065
-575.733	163.457	0.043	0.060
-574.719	-107.067	-0.037	0.008
-573.704	800.000	-0.052	-0.155
-572.690	800.000	0.126	-0.356
-571.675	191.558	0.222	0.333
-570.661	-30.465	0.182	0.103
-569.646	800.000	-0.063	-0.247
-568.631	80.378	0.207	-0.222
-567.617	-25.000	-0.102	0.060
-566.602	425.666	-0.136	-0.292
-565.588	22.541	-0.361	0.295
-564.573	-23.319	-0.263	-0.158
-563.558	139.886	0.053	0.070
-562.544	-62.494	-0.307	-0.127
-561.529	195.649	0.096	0.146
-560.515	-98.000	-0.210	-0.054
-559.500	-102.711	0.210	-0.050
-558.485	90.400	-0.132	0.147
-557.471	-159.189	-0.383	-0.021
-556.456	77.552	0.248	0.263
-555.442	-119.144	-0.329	0.057
-554.427	188.648	0.106	-0.159
-553.412	-26.422	-0.092	0.054
-552.398	-60.903	0.335	0.141
-551.383	-30.852	-0.151	0.085
-550.369	147.044	0.187	-0.250
-549.354	-110.821	0.197	-0.040
-548.339	381.428	0.090	0.185
-547.325	-200.000	-0.027	0.140
-546.310	-16.737	0.015	-0.009
-545.296	-30.125	0.098	-0.056
-544.281	101.662	0.181	-0.210
-543.266	-200.000	0.008	0.225
-542.252	542.739	0.042	-0.101
-541.237	-44.493	-0.119	-0.059
-540.223	-19.683	-0.197	-0.121
-539.208	78.774	-0.134	-0.143
-538.193	176.615	0.046	-0.067
-537.179	58.015	0.070	-0.069
-536.164	199.117	-0.093	-0.142
-535.150	23.964	-0.107	-0.088
-534.135	-53.995	0.206	0.093
-533.121	453.353	0.067	0.147
-532.106	-200.000	-0.002	-0.056
-531.091	800.000	0.083	0.336
-530.077	221.318	-0.070	0.112
-529.062	800.000	-0.044	0.162
-528.048	800.000	0.057	-0.223
-527.033	277.074	0.047	-0.083
-526.018	89.046	0.033	-0.037
-525.004	111.247	0.100	0.120
-523.989	-10.674	-0.302	-0.199
-522.975	413.627	0.116	-0.245
-521.960	-84.326	-0.195	0.061
-520.945	-200.000	-0.034	0.182
-519.931	-200.000	-0.018	-0.253
-518.916	12.432	0.170	0.130
-517.902	-138.544	-0.171	0.019
-516.887	800.000	-0.054	-0.190
-515.872	800.000	-0.038	-0.126
-514.858	-200.000	0.020	-0.371
-513.843	800.000	-0.074	-0.219
-512.829	-54.989	-0.090	-0.040
-511.814	-200.000	-0.008	0.113
-510.799	-42.436	0.126	0.064
-509.785	13.104	-0.112	-0.086
-508.770	800.000	0.149	-0.439
-507.756	-200.000	0.035	0.331
-506.741	-200.000	0.022	0.408
-505.726	-170.477	0.419	0.015
-504.712	-200.000	-0.019	0.216
-503.697	-18.039	-0.168	-0.105
-502.683	-200.000	0.036	-0.245
-501.668	800.000	-0.053	-0.184
-500.653	800.000	0.014	0.057
-499.639	800.000	-0.090	0.286
-498.624	800.000	-0.009	0.031
-497.610	-125.089	0.113	-0.017
-496.595	32.869	-0.218	0.188
-495.581	800.000	-0.071	-0.202
-494.566	-148.531	-0.288	-0.023
-493.551	569.935	0.156	0.377
-492.537	219.245	-0.117	0.186
-491.522	10.567	0.103	0.078
-490.508	-30.249	0.094	-0.053
-489.493	800.000	-0.097	-0.333
-488.478	-81.343	-0.274	0.090
-487.464	160.146	0.110	-0.153
-486.449	123.056	-0.110	0.137
-485.435	-24.273	0.098	-0.058
-484.420	2.054	0.114	-0.082
-483.405	191.227	0.073	-0.110
-482.391	100.975	0.090	0.104
-481.376	-200.000	-0.003	-0.268
-480.362	187.458	-0.026	0.038
-479.347	85.847	-0.189	-0.207
-478.332	515.642	0.144	0.334
-477.318	-121.593	0.281	-0.046
-476.303	-73.458	-0.079	0.029
-475.289	503.026	-0.062	0.141
-474.274	268.520	0.033	0.058
-473.259	-108.580	-0.181	-0.039
-472.245	-200.000	-0.043	0.230
-471.230	-87.697	0.281	0.084
-470.216	339.480	0.084	0.163
-469.201	606.836	-0.071	-0.175
-468.186	87.078	0.075	0.082
-467.172	215.389	-0.190	-0.299
-466.157	338.806	-0.125	0.241
-465.143	800.000	-0.109	0.416
-464.128	800.000	-0.153	-0.536
-463.113	800.000	0.055	-0.237
-462.099	181.336	0.056	0.082
-461.084	800.000	0.099	0.289
-460.070	-48.084	-0.146	-0.070
-459.055	-74.626	0.108	-0.039
-458.040	800.000	0.050	-0.176
-457.026	800.000	-0.111	0.384
-456.011	160.575	0.205	0.283
-454.997	675.709	0.082	-0.211
-453.982	27.455	0.138	0.115
-452.968	394.498	-0.078	-0.162
-451.953	-85.816	0.408	-0.125
-450.938	62.100	-0.044	-0.044
-449.924	-45.941	-0.098	0.048
-448.909	172.720	0.141	0.202
-447.895	29.088	-0.230	-0.194
-446.880	-37.166	0.319	0.169
-445.865	800.000	0.097	-0.312
-444.851	-35.901	-0.298	-0.160
-443.836	134.874	0.210	-0.271
-442.822	126.385	-0.148	-0.185
-441.807	-200.000	0.013	-0.174
-440.792	-82.347	-0.269	0.087
-439.778	1.532	0.285	0.203
-438.763	-120.653	-0.292	-0.049
-437.749	-200.000	-0.091	-0.396
-436.734	800.000	0.031	0.089
-435.719	-102.024	0.484	-0.116
-434.705	-154.318	-0.129	-0.009
-433.690	-22.720	-0.342	-0.205
-432.676	16.155	-0.137	0.107
-431.661	-105.622	-0.106	-0.024
-430.646	347.652	0.091	-0.178
-429.632	800.000	-0.119	-0.459
-428.617	326.101	0.114	-0.217
-427.603	74.453	0.216	-0.225
-426.588	-23.888	-0.105	0.062
-425.573	-115.904	0.246	-0.046
-424.559	208.550	0.161	-0.250
-423.544	-99.539	0.076	0.019
-422.530	-200.000	0.032	-0.199
-421.515	51.483	-0.084	-0.079
-420.500	539.748	0.165	0.389
-419.486	118.774	0.245	0.300
-418.471	-44.436	-0.235	0.117
-417.457	-27.142	0.055	-0.032
-416.442	772.562	-0.041	0.110
-415.428	48.803	-0.112	-0.104
-414.413	-39.236	-0.274	0.142
-413.398	-61.823	0.155	-0.064
-412.384	-39.437	-0.260	-0.135
-411.369	-200.000	-0.018	0.113
-410.355	-38.911	-0.197	-0.103
-409.340	-147.568	0.050	0.004
-408.325	315.950	0.054	-0.101
-407.311	221.003	0.094	0.149
-406.296	-200.000	-0.000	0.043
-405.282	-102.347	-0.134	0.032
-404.267	-200.000	0.016	-0.088
-403.252	-16.255	0.194	0.122
-402.238	-32.706	0.306	0.169
-401.223	-5.591	-0.055	0.038
-400.209	800.000	0.047	-0.147
-399.194	-75.230	-0.042	0.015
-398.179	660.442	-0.044	-0.112
-397.165	-200.000	0.011	0.311
-396.150	79.445	0.123	0.130
-395.136	-116.568	0.094	-0.017
-394.121	-128.856	-0.156	0.022
-393.106	-90.592	-0.339	-0.097
-392.092	-200.000	-0.025	0.198
-391.077	-137.067	0.429	0.048
-390.063	188.495	0.107	0.159
-389.048	447.696	-0.024	-0.052
-388.033	128.190	0.064	-0.081
-387.019	18.423	0.110	0.087
-386.004	-85.630	-0.265	-0.081
-384.990	-24.983	0.109	0.064
-383.975	800.000	-0.106	0.409
-382.960	-110.463	0.511	0.105
-381.946	75.545	0.130	0.136
-380.931	-100.323	-0.264	0.065
-379.917	800.000	0.067	-0.216
-378.902	800.000	-0.074	-0.253
-377.888	252.178	-0.120	0.202
-376.873	-200.000	-0.009	0.100
-375.858	-200.000	-0.056	-0.313
-374.844	-133.752	0.208	-0.026
-373.829	-77.894	0.148	-0.050
-372.815	123.142	0.053	-0.065
-371.800	-51.810	-0.276	-0.127
-370.785	251.739	0.068	0.115
-369.771	593.690	-0.020	-0.048
-368.756	282.367	0.043	-0.077
-367.742	-130.731	-0.275	0.036
-366.727	-47.590	0.164	-0.079
-365.712	-134.040	0.351	-0.043
-364.698	-200.000	-0.002	-0.066
-363.683	214.754	-0.099	-0.156
-362.669	-200.000	0.020	0.097
-361.654	-40.688	-0.100	-0.051
-360.639	-96.523	-0.304	-0.079
-359.625	223.343	0.045	-0.072
-358.610	46.207	-0.055	0.050
-357.596	52.546	0.179	0.169
-356.581	306.737	0.153	0.282
-355.566	258.581	0.108	-0.185
-354.552	-132.062	-0.206	-0.027
-353.537	-57.923	0.170	0.074
-352.523	-101.333	0.172	-0.041
-351.508	-49.513	0.272	0.128
-350.493	-200.000	0.017	0.261
-349.479	474.806	-0.081	-0.181
-348.464	468.061	0.054	0.119
-347.450	12.604	0.084	0.064
-346.435	391.998	0.059	0.121
-345.420	800.000	0.111	0.388
-344.406	47.974	0.257	-0.237
-343.391	-153.879	0.116	-0.008
-342.377	-70.694	0.141	-0.053
-341.362	462.716	-0.014	-0.031
-340.348	67.410	0.038	-0.038
-339.333	177.558	-0.080	-0.115
-338.318	77.475	0.134	-0.140
-337.304	356.310	-0.005	0.010
-336.289	-56.296	-0.312	0.137
-335.275	-133.668	0.299	0.037
-334.260	138.966	0.187	0.243
-333.245	-116.564	0.320	0.058
-332.231	36.176	-0.100	0.087
-331.216	84.869	0.134	-0.145
-330.202	70.262	-0.133	0.136
-329.187	-86.329	0.209	-0.064
-328.172	-19.696	-0.304	0.186
-327.158	-118.958	-0.128	-0.022
-326.143	-200.000	0.031	-0.235
-325.129	800.000	-0.059	-0.183
-324.114	199.906	0.075	0.113
-323.099	221.371	0.097	-0.154
-322.085	-16.412	0.065	0.041
-321.070	117.004	0.074	0.090
-320.056	-83.593	-0.342	0.108
-319.041	-200.000	0.023	0.112
-318.026	-62.613	-0.101	-0.041
-317.012	615.981	-0.063	0.156
-315.997	4.071	-0.129	0.093
-314.983	-165.554	-0.300	-0.013
-313.968	-200.000	-0.020	0.221
-312.953	-200.000	-0.009	0.605
-311.939	63.492	-0.256	0.253
-310.924	-86.178	-0.078	0.024
-309.910	-21.942	-0.043	-0.026
-308.895	-200.000	-0.012	0.207
-307.880	-87.603	-0.069	0.020
-306.866	-80.472	0.286	0.094
-305.851	173.658	0.175	-0.249
-304.837	97.719	0.120	-0.136
-303.822	228.782	-0.101	-0.163
-302.807	-200.000	-0.001	-0.299
-301.793	-141.892	0.254	-0.025
-300.778	800.000	0.098	0.275
-299.764	96.509	-0.169	0.191
-298.749	-166.309	-0.082	-0.003
-297.735	-24.327	0.192	0.113
-296.720	304.210	0.239	0.437
-295.705	-22.671	-0.226	0.135
-294.691	1.741	0.243	0.172
-293.676	-157.770	-0.238	-0.014
-292.662	-94.806	-0.350	0.094
-291.647	669.476	-0.093	-0.238
-290.632	-200.000	-0.024	0.151
-289.618	800.000	-0.057	-0.189
-288.603	734.673	0.035	0.093
-287.589	430.776	0.060	-0.128
-286.574	-80.182	-0.211	0.070
-285.559	33.712	-0.357	0.306
-284.545	82.168	0.143	0.153
-283.530	-89.962	-0.363	0.104
-282.516	221.495	-0.125	-0.199
-281.501	-95.120	0.100	-0.027
-280.486	-36.327	-0.206	0.110
-279.472	800.000	0.026	0.107
-278.457	87.985	0.261	0.285
-277.443	36.439	-0.089	0.077
-276.428	-12.383	-0.281	-0.181
-275.413	-107.412	0.221	-0.048
-274.399	-155.011	0.381	0.025
-273.384	64.027	0.097	-0.096
-272.370	-79.454	-0.191	0.064
-271.355	-115.186	-0.140	-0.026
-270.340	-105.861	-0.063	-0.014
-269.326	335.218	-0.154	-0.294
-268.311	-48.584	0.151	0.072
-267.297	205.445	0.064	0.098
-266.282	-31.416	0.354	0.196
-265.267	-151.242	0.215	0.016
-264.253	90.874	-0.124	0.137
-263.238	-6.233	-0.317	-0.213
-262.224	-200.000	-0.014	-0.081
-261.209	7.833	0.253	0.187
-260.195	-200.000	-0.008	0.270
-259.180	21.940	-0.153	0.123
-258.165	-120.202	0.197	0.033
-257.151	800.000	0.075	-0.310
-256.136	685.338	0.076	-0.195
-255.122	-200.000	0.031	-0.179
-254.107	9.783	0.557	-0.416
-253.092	-172.925	-0.160	-0.005
-252.078	74.532	0.250	0.259
-251.063	14.941	-0.061	-0.047
-250.049	-200.000	-0.012	0.289
-249.034	-123.309	0.238	0.037
-248.019	106.499	0.076	-0.089
-247.005	160.747	-0.129	-0.177
-245.990	-200.000	0.017	-0.095
-244.976	-15.503	0.316	0.199
-243.961	-41.178	-0.074	-0.038
-242.946	-40.689	-0.236	0.120
-241.932	800.000	-0.046	-0.196
-240.917	800.000	0.012	-0.048
-239.903	-200.000	-0.000	-0.027
-238.888	-122.307	0.341	0.055
-237.873	791.212	0.078	0.211
-236.859	-200.000	0.042	0.201
-235.844	-34.884	0.140	0.075
-234.830	-137.592	-0.248	0.027
-233.815	-9.555	-0.104	-0.069
-232.800	-88.329	0.244	0.072
-231.786	377.593	-0.223	0.449
-230.771	320.900	-0.118	0.221
-229.757	-126.846	0.173	-0.025
-228.742	268.682	-0.134	0.230
-227.727	-92.155	-0.203	0.056
-226.713	290.219	-0.063	-0.113
-225.698	800.000	-0.173	-0.640
-224.684	223.792	0.270	-0.428
-223.669	483.241	0.091	0.203
-222.655	-72.536	0.167	-0.061
-221.640	289.809	0.174	-0.310
-220.625	-99.194	-0.128	0.032
-219.611	39.857	0.086	0.076
-218.596	278.482	0.144	-0.252
-217.582	54.495	-0.144	-0.136
-216.567	-200.000	0.001	0.372
-215.552	71.318	-0.156	0.159
-214.538	-200.000	0.007	0.125
-213.523	-45.005	-0.098	-0.048
-212.509	351.786	0.133	0.259
-211.494	-55.421	0.280	-0.123
-210.479	-80.669	0.161	0.053
-209.465	405.470	-0.128	-0.265
-208.450	18.937	-0.201	-0.158
-207.436	-151.791	-0.203	-0.015
-206.421	-118.452	-0.147	-0.026
-205.406	-200.000	0.024	0.381
-204.392	5.986	0.101	-0.074
-203.377	458.650	-0.136	-0.297
-202.363	91.971	0.028	0.031
-201.348	-171.858	0.116	0.004
-200.333	236.574	0.008	0.013
-199.319	39.738	0.184	-0.162
-198.304	-144.478	0.064	0.006
-197.290	204.694	0.139	0.212
-196.275	206.955	0.342	-0.523
-195.260	-83.456	0.164	-0.052
-194.246	-2.665	-0.086	0.059
-193.231	-39.698	0.120	0.062
-192.217	800.000	0.057	-0.195
-191.202	362.830	0.036	-0.072
-190.187	182.238	0.029	-0.042
-189.173	-0.717	0.116	-0.081
-188.158	35.403	0.071	0.061
-187.144	65.702	-0.257	0.256
-186.129	800.000	0.050	0.157
-185.114	362.035	0.127	-0.249
-184.100	37.921	0.164	0.143
-183.085	-115.048	0.290	0.054
-182.071	-200.000	-0.035	-0.174
-181.056	-77.627	-0.282	-0.096
-180.042	-69.540	0.179	0.067
-179.027	84.367	0.275	0.295
-178.012	-156.496	0.090	0.005
-176.998	800.000	0.069	0.275
-175.983	645.308	-0.116	0.292
-174.969	-69.180	0.225	0.085
-173.954	38.479	0.248	-0.217
-172.939	130.723	-0.111	0.140
-171.925	-200.000	0.012	0.131
-170.910	800.000	-0.051	-0.170
-169.896	28.797	-0.096	0.080
-168.881	-97.781	-0.214	0.054
-167.866	-200.000	-0.028	0.206
-166.852	800.000	-0.088	0.285
-165.837	-200.000	0.010	-0.156
-164.823	-197.944	-0.353	-0.002
-163.808	104.522	-0.254	0.293
-162.793	-200.000	0.013	-0.126
-161.779	-48.518	-0.143	-0.068
-160.764	-128.889	0.053	0.007
-159.750	71.886	-0.095	0.097
-158.735	-125.338	-0.249	-0.037
-157.720	800.000	0.094	-0.267
-156.706	-200.000	-0.026	-0.258
-155.691	470.104	0.121	-0.268
-154.677	17.015	-0.455	-0.354
-153.662	-200.000	0.040	-0.177
-152.647	32.054	0.169	0.143
-151.633	24.984	-0.182	0.148
-150.618	800.000	0.156	-0.454
-149.604	-200.000	-0.037	0.199
-148.589	99.828	0.266	-0.302
-147.574	-109.554	0.585	-0.121
-146.560	175.052	0.020	-0.029
-145.545	308.631	-0.038	-0.069
-144.531	-200.000	0.082	0.467
-143.516	-200.000	0.005	0.180
-142.502	-55.488	0.144	-0.063
-141.487	-21.744	0.264	0.157
-140.472	83.085	-0.051	0.055
-139.458	-80.235	-0.452	-0.148
-138.443	368.585	-0.035	-0.069
-137.429	544.074	0.020	-0.046
-136.414	-65.192	-0.330	0.130
-135.399	4.922	-0.243	-0.175
-134.385	800.000	0.074	-0.258
-133.370	298.729	0.089	-0.161
-132.356	-200.000	0.048	-0.272
-131.341	17.582	0.074	-0.058
-130.326	-76.059	-0.333	-0.115
-129.312	800.000	0.115	0.466
-128.297	800.000	0.029	0.086
-127.283	-81.072	0.264	-0.085
-126.268	-70.526	-0.333	0.123
-125.253	-33.570	0.116	-0.063
-124.239	-14.050	0.298	0.189
-123.224	-200.000	0.001	0.143
-122.210	61.810	-0.109	0.107
-121.195	30.211	-0.415	0.347
-120.180	28.447	-0.066	0.054
-119.166	-200.000	-0.027	0.227
-118.151	716.189	0.143	0.371
-117.137	19.974	-0.262	0.207
-116.122	248.544	-0.105	-0.174
-115.107	-75.204	-0.328	0.115
-114.093	-1.282	-0.285	0.197
-113.078	-122.103	0.147	-0.024
-112.064	-136.617	0.059	0.007
-111.049	-81.780	-0.091	0.029
-110.034	729.374	0.090	-0.235
-109.020	-200.000	0.021	-0.336
-108.005	-200.000	0.016	0.159
-106.991	-46.471	-0.027	-0.013
-105.976	800.000	-0.050	-0.182
-104.962	58.097	0.219	0.210
-103.947	115.309	0.102	-0.122
-102.932	-6.238	0.042	0.028
-101.918	-36.874	-0.240	0.126
-100.903	306.508	-0.049	-0.090
-99.889	-145.449	0.362	0.032
-98.874	60.848	-0.081	0.078
-97.859	-37.170	-0.179	-0.094
-96.845	-200.000	-0.038	-0.180
-95.830	-107.562	0.350	-0.075
-94.816	-200.000	-0.029	0.310
-93.801	308.870	-0.011	-0.019
-92.786	-200.000	0.005	-0.075
-91.772	-108.546	0.100	-0.021
-90.757	-200.000	0.033	-0.215
-89.743	-40.596	0.092	0.047
-88.728	205.874	0.194	0.296
-87.713	800.000	0.046	0.168
-86.699	-147.570	0.176	-0.015
-85.684	-200.000	-0.016	-0.125
-84.670	-73.765	0.166	0.059
-83.655	800.000	-0.094	0.351
-82.640	168.843	-0.145	-0.203
-81.626	800.000	0.016	-0.064
-80.611	560.720	-0.111	0.261
-79.597	-200.000	0.012	0.097
-78.582	-140.970	0.498	0.050
-77.567	-200.000	0.025	-0.335
-76.553	43.397	-0.260	-0.233
-75.538	-88.802	-0.099	0.029
-74.524	-102.592	0.175	0.041
-73.509	57.502	-0.069	0.066
-72.494	-150.297	-0.228	0.017
-71.480	-154.543	0.207	0.014
-70.465	-15.313	-0.105	-0.066
-69.451	800.000	-0.077	0.223
-68.436	-28.979	-0.136	-0.076
-67.422	39.655	-0.186	-0.163
-66.407	-200.000	-0.002	-0.159
-65.392	-200.000	-0.003	0.100
-64.378	183.134	-0.105	0.151
-63.363	177.277	0.080	-0.113
-62.349	800.000	0.042	0.150
-61.334	-11.868	-1.314	-0.842
-60.319	-14.376	0.652	0.410
-59.305	800.000	-0.361	-1.283
-58.290	93.733	0.872	0.966
-57.276	-200.000	0.197	1.387
-56.261	-200.000	115.338	644.909
-55.246	508.441	1531.822	3475.024
-54.232	175.914	2710.206	3842.039
-53.217	99.423	2287.346	2584.334
-52.203	35.692	1897.216	1628.383
-51.188	29.773	1691.078	1406.533
-50.173	27.347	1650.085	1354.357
-49.159	47.035	1707.524	1551.224
-48.144	45.902	1720.463	1554.339
-47.130	29.215	1678.634	1391.754
-46.115	26.684	1664.250	1360.785
-45.100	26.544	1658.969	1355.369
-44.086	26.444	1656.836	1352.826
-43.071	26.486	1654.388	1351.085
-42.057	26.450	1651.966	1348.782
-41.042	26.532	1649.466	1347.301
-40.027	26.483	1647.883	1345.591
-39.013	26.489	1645.642	1343.752
-37.998	26.512	1643.861	1342.412
-36.984	26.466	1643.030	1341.337
-35.969	26.614	1641.331	1340.993
-34.954	26.607	1640.136	1339.917
-33.940	26.553	1638.431	1338.070
-32.925	26.634	1636.296	1336.869
-31.911	26.642	1634.675	1335.553
-30.896	26.605	1633.025	1333.881
-29.881	26.600	1631.862	1332.841
-28.867	26.545	1630.264	1331.076
-27.852	26.667	1628.498	1330.480
-26.838	26.611	1627.077	1328.852
-25.823	26.628	1625.642	1327.754
-24.809	26.632	1624.617	1326.897
-23.794	26.691	1622.683	1325.691
-22.779	26.715	1620.886	1324.350
-21.765	26.675	1619.514	1322.879
-20.750	26.553	1618.395	1321.022
-19.736	26.603	1617.082	1320.268
-18.721	26.736	1615.204	1319.645
-17.706	26.692	1613.978	1318.272
-16.692	26.564	1612.408	1316.005
-15.677	26.673	1610.672	1315.332
-14.663	26.808	1609.121	1314.992
-13.648	26.682	1608.161	1313.239
-12.633	26.643	1607.101	1312.039
-11.619	26.686	1604.894	1310.499
-10.604	26.642	1603.443	1308.945
-9.590	26.654	1601.991	1307.796
-8.575	26.710	1600.348	1306.804
-7.560	26.541	1600.199	1305.413
-6.546	26.689	1598.291	1304.868
-5.531	26.736	1596.969	1304.079
-4.517	26.533	1596.998	1302.588
-3.502	26.624	1595.779	1302.199
-2.487	26.793	1593.174	1301.234
-1.473	26.454	1581.201	1288.988
-0.458	23.360	1562.070	1251.521
0.556	20.704	1563.524	1220.032
1.571	18.418	1587.719	1222.503
2.586	17.990	1600.421	1229.101
3.600	15.794	1545.116	1171.248
4.615	9.302	1437.956	1047.740
5.629	3.957	1379.796	971.777
6.644	3.188	1372.136	961.491
7.659	3.086	1370.985	959.963
8.673	3.222	1369.881	959.958
9.688	3.214	1368.220	958.659
10.702	3.213	1364.793	956.167
11.717	5.554	1370.238	974.483
12.731	12.821	1382.758	1028.809
13.746	18.975	1393.219	1075.089
14.761	20.440	1394.835	1085.402
15.775	19.803	1392.344	1079.396
16.790	18.750	1390.119	1071.007
17.804	17.995	1387.697	1064.349
18.819	17.688	1386.754	1061.619
19.834	17.481	1385.745	1059.462
20.848	17.302	1384.369	1057.201
21.863	17.134	1383.272	1055.229
22.877	17.135	1381.544	1053.824
23.892	16.943	1381.246	1052.313
24.907	16.979	1379.911	1051.423
25.921	17.099	1379.348	1051.648
26.936	17.101	1378.266	1050.743
27.950	17.129	1377.575	1050.294
28.965	17.159	1376.476	1049.547
29.980	17.370	1375.240	1049.816
30.994	17.359	1374.299	1048.939
32.009	17.403	1373.191	1048.271
33.023	17.329	1371.900	1046.736
34.038	17.211	1370.633	1044.949
35.053	17.226	1369.459	1044.056
36.067	17.162	1368.215	1042.621
37.082	17.200	1367.210	1041.995
38.096	17.260	1366.510	1041.735
39.111	17.313	1365.811	1041.434
40.126	17.110	1365.104	1039.567
41.140	16.936	1363.852	1037.454
42.155	16.837	1363.002	1036.111
43.169	16.841	1363.014	1036.051
44.184	16.862	1362.583	1035.760
45.199	16.811	1362.201	1035.065
46.213	17.039	1361.062	1035.500
47.228	17.055	1360.943	1035.417
48.242	17.240	1359.618	1035.447
49.257	17.125	1358.057	1033.464
50.271	17.066	1356.864	1032.109
51.286	17.143	1355.327	1031.315
52.301	17.119	1353.907	1029.998
53.315	16.960	1353.148	1028.365
54.330	16.951	1351.778	1027.179
55.344	16.835	1350.616	1025.499
56.359	16.919	1349.580	1025.131
57.374	16.896	1349.015	1024.471
58.388	16.891	1348.190	1023.724
59.403	16.712	1347.844	1022.291
60.417	16.743	1346.799	1021.598
61.432	16.713	1346.098	1020.796
62.447	16.715	1344.476	1019.484
63.461	16.635	1343.653	1018.290
64.476	16.719	1342.594	1017.900
65.490	16.583	1341.119	1015.879
66.505	16.680	1339.870	1015.424
67.520	16.566	1339.018	1014.002
68.534	16.732	1337.494	1013.750
69.549	16.686	1336.588	1012.700
70.563	16.635	1335.567	1011.536
71.578	16.542	1334.483	1010.066
72.593	16.505	1333.637	1009.120
73.607	16.528	1332.737	1008.486
74.622	16.473	1332.271	1007.716
75.636	16.570	1331.536	1007.647
76.651	16.515	1330.776	1006.653
77.666	16.527	1330.313	1006.286
78.680	16.613	1330.112	1006.557
79.695	16.660	1329.441	1006.241
80.709	16.673	1328.717	1005.681
81.724	16.794	1328.158	1005.886
82.739	16.938	1326.720	1005.564
83.753	17.033	1325.757	1005.310
84.768	17.133	1325.055	1005.280
85.782	17.238	1324.401	1005.315
86.797	17.242	1322.697	1003.953
87.812	17.147	1321.226	1002.190
88.826	17.087	1320.455	1001.165
89.841	17.117	1319.795	1000.752
90.855	17.221	1318.106	999.992
91.870	17.311	1317.340	999.850
92.884	17.214	1317.241	999.120
93.899	17.331	1315.538	998.426
94.914	17.404	1314.738	998.158
95.928	17.323	1314.269	997.239
96.943	17.265	1313.332	996.098
97.957	17.265	1312.315	995.238
98.972	17.158	1311.583	993.973
99.987	17.329	1310.333	993.934
101.001	17.304	1309.484	993.055
102.016	17.247	1308.384	991.805
103.030	17.232	1307.553	990.996
104.045	17.231	1306.749	990.293
105.060	17.203	1305.058	988.761
106.074	16.911	1303.778	986.004
107.089	16.750	1302.029	983.663
108.103	16.667	1301.216	982.482
109.118	16.704	1299.886	981.601
110.133	16.820	1297.888	980.678
111.147	16.815	1296.904	979.822
112.162	16.813	1295.874	978.946
113.176	16.757	1295.009	977.879
114.191	16.887	1293.985	977.768
115.206	16.960	1292.635	977.085
116.220	16.872	1291.598	975.708
117.235	16.834	1290.437	974.524
118.249	16.853	1289.350	973.730
119.264	16.784	1288.300	972.450
120.279	16.745	1286.799	971.010
121.293	16.755	1285.855	970.266
122.308	16.668	1284.772	968.869
123.322	16.654	1283.640	967.850
124.337	16.561	1283.189	966.889
125.352	16.687	1281.399	966.174
126.366	16.526	1280.528	964.516
127.381	16.594	1279.797	964.267
128.395	16.605	1278.261	963.084
129.410	16.603	1277.845	962.675
130.424	16.704	1277.095	962.600
131.439	16.705	1276.267	961.898
132.454	16.726	1275.380	961.261
133.468	16.942	1273.635	961.087
134.483	16.803	1274.155	960.606
135.497	16.732	1272.960	959.218
136.512	16.760	1271.811	958.424
137.527	16.754	1270.651	957.434
138.541	16.895	1268.957	956.870
139.556	16.892	1267.979	956.031
140.570	16.986	1266.786	955.574
141.585	17.212	1265.252	955.601
142.600	17.185	1264.595	954.869
143.614	17.299	1263.483	954.587
144.629	17.289	1262.474	953.685
145.643	17.268	1261.087	952.434
146.658	17.109	1259.906	950.568
147.673	17.009	1259.035	949.268
148.687	16.920	1257.551	947.569
149.702	16.903	1256.214	946.378
150.716	16.911	1254.889	945.346
151.731	17.021	1253.560	944.874
152.746	16.966	1253.151	944.173
153.760	16.976	1251.717	943.068
154.775	16.986	1250.754	942.310
155.789	17.041	1249.706	941.744
156.804	17.110	1248.877	941.417
157.819	17.145	1247.648	940.602
158.833	17.380	1246.722	941.122
159.848	17.396	1246.032	940.606
160.862	17.411	1244.762	939.646
161.877	17.176	1243.485	937.302
162.892	17.080	1242.389	935.867
163.906	16.971	1241.746	934.696
164.921	16.943	1241.168	934.026
165.935	17.104	1239.828	933.822
166.950	17.163	1239.118	933.527
167.964	17.119	1238.417	932.672
168.979	17.054	1237.979	931.905
169.994	16.951	1237.262	930.720
171.008	17.200	1235.766	930.873
172.023	17.315	1235.267	931.047
173.037	17.373	1235.224	931.250
174.052	17.257	1234.086	929.676
175.067	17.106	1232.794	927.796
176.081	16.980	1231.734	926.228
177.096	17.028	1230.800	925.706
178.110	17.144	1229.268	925.104
179.125	17.147	1228.167	924.205
180.140	17.163	1227.261	923.533
181.154	17.189	1226.236	922.819
182.169	17.366	1224.964	922.742
183.183	17.398	1224.208	922.262
184.198	17.396	1222.935	921.213
185.213	17.505	1221.660	920.759
186.227	17.473	1220.891	919.926
187.242	17.541	1219.512	919.169
188.256	17.540	1218.947	918.660
189.271	17.581	1217.619	917.799
190.286	17.486	1216.425	916.305
191.300	17.110	1215.744	913.688
192.315	16.928	1215.006	912.072
193.329	17.001	1214.697	912.153
194.344	17.194	1213.382	912.123
195.359	17.381	1213.077	912.814
196.373	17.363	1212.521	912.219
197.388	17.380	1212.278	912.045
198.402	17.455	1212.520	912.553
199.417	17.732	1211.570	913.236
200.432	17.799	1210.778	912.921
201.446	17.852	1210.411	912.847
202.461	17.970	1209.164	912.453
203.475	17.872	1208.419	911.289
204.490	17.760	1207.014	909.554
205.504	17.527	1205.427	907.033
206.519	17.567	1204.302	906.318
207.534	17.544	1203.011	905.144
208.548	17.618	1202.220	904.863
209.563	17.556	1201.631	904.012
210.577	17.580	1200.733	903.382
211.592	17.671	1200.231	903.410
212.607	17.794	1199.285	903.269
213.621	17.830	1198.388	902.703
214.636	17.608	1197.423	900.722
215.650	17.697	1196.659	900.537
216.665	17.878	1195.722	900.709
217.680	17.988	1194.947	900.622
218.694	18.119	1193.534	900.171
219.709	17.961	1193.177	898.990
220.723	18.005	1192.429	898.579
221.738	17.936	1191.582	897.499
222.753	17.941	1190.990	896.999
223.767	17.935	1190.039	896.170
224.782	17.964	1190.126	896.309
225.796	18.057	1189.547	896.283
226.811	18.036	1188.358	895.196
227.826	17.994	1187.888	894.544
228.840	17.897	1187.222	893.453
229.855	17.934	1186.209	892.806
230.869	17.908	1185.432	892.006
231.884	17.910	1184.502	891.237
232.899	17.874	1183.658	890.336
233.913	17.755	1183.287	889.360
234.928	17.875	1182.008	888.944
235.942	17.628	1181.459	887.166
236.957	17.829	1180.514	887.422
237.972	17.763	1179.672	886.370
238.986	17.823	1179.197	886.247
240.001	17.811	1178.376	885.487
241.015	17.792	1177.873	884.933
242.030	17.843	1176.868	884.362
243.045	18.029	1176.085	884.663
244.059	18.010	1175.464	884.017
245.074	18.113	1174.538	883.773
246.088	18.050	1173.837	882.845
247.103	18.165	1173.192	882.875
248.117	18.189	1172.686	882.538
249.132	18.409	1171.764	882.901
250.147	18.484	1171.197	882.782
251.161	18.570	1170.473	882.602
252.176	18.596	1170.224	882.467
253.190	18.527	1169.631	881.587
254.205	18.587	1169.140	881.450
255.220	18.691	1168.494	881.417
256.234	18.674	1167.896	880.801
257.249	18.827	1166.650	880.571
258.263	18.660	1166.329	879.395
259.278	18.771	1165.351	879.145
260.293	18.736	1164.992	878.618
261.307	18.808	1164.483	878.523
262.322	18.875	1163.293	877.892
263.336	18.873	1163.316	877.821
264.351	18.798	1162.721	876.912
265.366	18.947	1161.639	876.776
266.380	18.854	1161.028	875.766
267.395	18.822	1160.036	874.778
268.409	18.731	1159.581	873.891
269.424	18.690	1158.847	873.055
270.439	18.673	1158.155	872.366
271.453	18.706	1157.166	871.715
272.468	18.674	1156.212	870.755
273.482	18.576	1155.637	869.749
274.497	18.655	1155.018	869.607
275.512	18.700	1154.390	869.286
276.526	18.653	1153.553	868.338
277.541	18.612	1152.856	867.528
278.555	18.824	1151.987	867.871
279.570	18.903	1151.216	867.613
280.585	19.012	1150.753	867.737
281.599	18.974	1149.888	866.813
282.614	18.886	1148.786	865.466
283.628	18.806	1147.387	863.933
284.643	18.756	1146.698	863.084
285.657	18.633	1146.279	862.074
286.672	18.712	1145.250	861.624
287.687	18.828	1144.119	861.279
288.701	18.864	1143.504	860.919
289.716	18.926	1142.032	860.045
290.730	18.866	1141.803	859.496
291.745	18.942	1140.934	859.143
292.760	18.921	1140.659	858.756
293.774	19.019	1140.333	858.924
294.789	19.120	1139.800	858.950
295.803	19.063	1139.197	858.135
296.818	19.005	1137.934	856.818
297.833	18.951	1136.951	855.735
298.847	18.988	1135.974	855.108
299.862	18.955	1135.554	854.553
300.876	18.951	1134.880	853.949
301.891	19.085	1134.086	853.943
302.906	19.080	1133.574	853.458
303.920	19.282	1132.943	853.908
304.935	19.282	1132.347	853.383
305.949	19.508	1131.531	853.809
306.964	19.407	1131.330	853.082
307.979	19.305	1130.368	851.780
308.993	19.211	1129.822	850.826
310.008	19.419	1128.802	851.010
311.022	19.406	1128.110	850.349
312.037	19.424	1127.085	849.589
313.052	19.327	1125.957	848.188
314.066	19.158	1125.240	846.738
315.081	19.078	1124.189	845.483
316.095	19.047	1123.592	844.805
317.110	19.044	1122.601	843.968
318.125	19.036	1122.013	843.416
319.139	19.100	1121.511	843.276
320.154	19.092	1121.131	842.879
321.168	19.051	1120.005	841.753
322.183	19.238	1119.504	842.220
323.197	19.178	1118.721	841.263
324.212	19.093	1118.598	840.678
325.227	19.056	1118.250	840.163
326.241	19.248	1117.294	840.307
327.256	19.136	1116.796	839.310
328.270	19.210	1115.299	838.472
329.285	19.118	1114.328	837.223
330.300	19.231	1113.649	837.186
331.314	19.134	1112.829	836.024
332.329	19.230	1111.851	835.679
333.343	19.235	1111.067	835.041
334.358	19.420	1109.887	834.978
335.373	19.402	1109.455	834.491
336.387	19.501	1108.737	834.354
337.402	19.420	1108.232	833.513
338.416	19.437	1107.792	833.190
339.431	19.544	1106.843	832.920
340.446	19.680	1106.282	833.078
341.460	19.714	1106.214	833.116
342.475	19.730	1105.103	832.283
343.489	19.795	1104.176	831.822
344.504	19.836	1103.248	831.245
345.519	19.812	1102.417	830.433
346.533	19.961	1101.756	830.578
347.548	20.017	1101.129	830.299
348.562	19.998	1100.012	829.293
349.577	19.872	1099.205	828.006
350.592	19.641	1098.110	826.006
351.606	19.646	1097.604	825.573
352.621	19.558	1096.698	824.398
353.635	19.489	1096.351	823.739
354.650	19.575	1095.119	823.150
355.665	19.528	1095.023	822.781
356.679	19.593	1094.622	822.714
357.694	19.716	1093.835	822.636
358.708	19.806	1093.168	822.490
359.723	19.854	1092.125	821.859
360.738	19.798	1091.663	821.175
361.752	19.828	1091.333	820.997
362.767	19.800	1090.865	820.436
363.781	19.911	1089.755	820.057
364.796	19.960	1089.509	820.029
365.810	20.035	1089.188	820.070
366.825	20.090	1088.322	819.606
367.840	20.281	1087.871	820.099
368.854	20.242	1087.480	819.546
369.869	20.244	1086.348	818.629
370.883	20.221	1085.684	817.949
371.898	20.062	1084.818	816.476
372.913	20.170	1084.169	816.424
373.927	20.161	1083.884	816.093
374.942	20.243	1083.517	816.130
375.956	20.276	1082.944	815.784
376.971	20.317	1081.742	814.996
377.986	20.292	1081.661	814.745
379.000	20.248	1081.193	814.116
380.015	20.449	1080.554	814.507
381.029	20.447	1080.167	814.132
382.044	20.413	1079.391	813.315
383.059	20.464	1078.349	812.697
384.073	20.427	1077.836	812.065
385.088	20.475	1076.843	811.470
386.102	20.484	1075.634	810.527
387.117	20.337	1074.730	809.092
388.132	20.257	1073.868	807.999
389.146	20.243	1072.906	807.137
390.161	20.215	1072.018	806.268
391.175	20.235	1071.591	805.970
392.190	20.232	1071.031	805.460
393.205	20.526	1070.257	806.172
394.219	20.354	1069.409	804.664
395.234	20.355	1068.349	803.801
396.248	20.362	1067.203	802.902
397.263	20.229	1066.698	801.833
398.278	20.272	1065.611	801.144
399.292	20.220	1064.715	800.159
400.307	20.143	1064.235	799.374
401.321	20.245	1063.818	799.459
402.336	20.182	1062.825	798.353
403.350	20.225	1062.015	797.872
404.365	20.250	1061.625	797.621
405.380	20.315	1060.942	797.340
406.394	20.399	1060.121	797.038
407.409	20.508	1059.296	796.844
408.423	20.508	1058.782	796.390
409.438	20.769	1057.806	796.779
410.453	20.751	1057.714	796.556
411.467	20.680	1057.252	795.814
412.482	20.773	1056.435	795.554
413.496	20.817	1055.791	795.197
414.511	20.814	1055.215	794.681
415.526	21.050	1054.450	795.109
416.540	21.086	1054.151	794.978
417.555	21.075	1053.573	794.419
418.569	20.955	1052.808	793.226
419.584	20.880	1052.436	792.536
420.599	20.858	1052.424	792.355
421.613	155.373	1405.047	1796.683
422.628	142.536	1456.396	1796.765
