DTS Sentinel unit serial number:	SN413079Multiplexer serial number:	ORYXHardware model number:	OX4-SRSoftware version number:	ORYX F/W v4.00 Oryx Data Collector v3.7.2.0data status	okinstallation	princeton_trtdifferential loss correction	single-endedforward channel	channel 2reverse channel	N/Adate	2019/09/13time	16:15:35forward acquisition time	60.00reverse acquisition time	0.00gamma	496.2192k internal	0.2314k external	0.2314temperature offset calibration	1.0209default loss term (dB/km)	0.3790temperature slope calibration	1.0000multiplexer offset coefficient	1.0000multiplexer slope coefficient	1.0000fibre end	0.00T internal ref (°C)	34.86T ext. ref 1 (°C)	4.86T ext. ref 2 (°C)	31.64length (m)	temperature (°C)	Stokes	anti-Stokes-747.200	-200.000	-0.005	-0.051
-746.185	-121.036	0.168	0.029
-745.171	-118.343	0.121	-0.022
-744.156	-157.243	0.207	0.013
-743.142	25.550	-0.193	-0.163
-742.127	-109.954	0.190	-0.040
-741.112	-77.462	-0.263	0.092
-740.098	-200.000	0.002	0.266
-739.083	-200.000	0.063	0.315
-738.069	-200.000	-0.014	0.187
-737.054	80.667	0.079	-0.086
-736.039	201.693	0.133	-0.208
-735.025	-200.000	0.006	0.146
-734.010	508.355	0.137	-0.323
-732.996	-0.158	-0.111	-0.080
-731.981	286.361	0.108	-0.198
-730.966	800.000	-0.078	-0.238
-729.952	-48.009	-0.427	-0.209
-728.937	578.964	0.054	-0.133
-727.923	-61.420	0.343	0.146
-726.908	-200.000	-0.050	0.282
-725.894	-88.041	-0.271	-0.082
-724.879	103.343	-0.112	-0.133
-723.864	-38.536	-0.183	0.098
-722.850	-25.471	-0.203	-0.121
-721.835	800.000	-0.110	0.392
-720.821	-200.000	-0.045	-0.280
-719.806	-39.275	0.302	-0.161
-718.791	-164.770	0.404	-0.018
-717.777	106.007	-0.100	0.120
-716.762	800.000	0.007	-0.029
-715.748	94.266	0.110	0.126
-714.733	-35.332	0.138	0.076
-713.718	800.000	0.106	0.309
-712.704	-191.986	0.062	0.001
-711.689	-40.229	-0.229	-0.121
-710.675	-84.822	0.062	-0.020
-709.660	-138.157	-0.062	-0.007
-708.645	-102.202	-0.073	0.018
-707.631	-61.003	-0.247	-0.106
-706.616	-66.935	0.178	-0.071
-705.602	71.581	0.208	-0.219
-704.587	-200.000	-0.002	0.143
-703.572	-200.000	0.011	0.373
-702.558	49.908	-0.200	0.191
-701.543	-109.606	0.233	-0.050
-700.529	168.990	-0.206	-0.297
-699.514	86.779	0.197	-0.220
-698.499	800.000	-0.096	-0.273
-697.485	-165.167	-0.147	-0.007
-696.470	-17.839	-0.411	-0.261
-695.456	-10.469	0.164	0.110
-694.441	-166.999	-0.165	0.007
-693.426	104.596	-0.164	-0.196
-692.412	-51.619	-0.080	0.038
-691.397	-113.307	0.099	0.020
-690.383	397.816	-0.040	-0.085
-689.368	-91.273	-0.232	0.067
-688.354	-24.805	0.273	0.164
-687.339	284.454	0.105	0.191
-686.324	176.809	-0.135	-0.198
-685.310	133.855	-0.048	-0.062
-684.295	-138.969	0.142	-0.016
-683.281	-103.575	0.253	-0.060
-682.266	-200.000	-0.017	-0.270
-681.251	166.462	0.066	-0.094
-680.237	174.461	0.165	0.242
-679.222	-27.333	-0.347	-0.204
-678.208	37.051	0.231	-0.207
-677.193	4.196	0.150	-0.111
-676.178	-32.510	0.481	-0.271
-675.164	8.115	-0.202	0.153
-674.149	244.183	0.123	0.209
-673.135	800.000	0.020	-0.069
-672.120	-77.356	-0.111	-0.039
-671.105	414.287	-0.099	-0.214
-670.091	-48.688	0.126	0.061
-669.076	97.299	-0.059	0.068
-668.062	-200.000	-0.009	0.304
-667.047	-200.000	0.000	-0.158
-666.032	312.058	-0.166	0.315
-665.018	92.022	-0.179	-0.203
-664.003	-50.781	-0.234	-0.111
-662.989	-32.895	-0.232	0.130
-661.974	533.084	-0.068	-0.164
-660.959	168.601	0.161	-0.232
-659.945	800.000	0.025	0.081
-658.930	-200.000	-0.007	-0.142
-657.916	7.789	0.270	0.204
-656.901	-63.755	0.213	0.088
-655.886	800.000	-0.135	0.488
-654.872	4.530	0.181	0.134
-653.857	-35.873	0.160	-0.088
-652.843	-38.935	-0.198	-0.105
-651.828	-29.294	0.114	0.066
-650.814	273.524	-0.019	-0.033
-649.799	-134.874	0.286	-0.035
-648.784	-170.060	0.307	-0.011
-647.770	14.735	0.029	-0.023
-646.755	-79.070	-0.247	0.085
-645.741	-87.708	0.153	0.046
-644.726	-100.350	-0.387	0.097
-643.711	32.249	0.338	-0.295
-642.697	359.603	-0.082	-0.166
-641.682	-90.089	-0.204	-0.060
-640.668	800.000	0.155	-0.489
-639.653	-68.036	0.032	0.013
-638.638	-59.059	0.216	0.094
-637.624	-200.000	-0.003	0.176
-636.609	-200.000	0.107	-0.547
-635.595	-200.000	-0.014	-0.094
-634.580	1.046	-0.145	0.105
-633.565	-62.615	-0.321	0.135
-632.551	-28.480	0.374	0.217
-631.536	68.934	-0.208	-0.215
-630.522	643.238	-0.142	-0.366
-629.507	44.039	0.176	-0.163
-628.492	74.296	-0.174	0.185
-627.478	-3.478	-0.189	0.132
-626.463	-200.000	0.025	0.282
-625.449	40.965	-0.089	-0.081
-624.434	-56.958	0.126	-0.056
-623.419	42.908	0.101	0.093
-622.405	764.967	0.053	0.146
-621.390	301.589	-0.032	0.060
-620.376	-154.653	0.222	-0.015
-619.361	-63.851	-0.156	0.064
-618.346	-106.722	0.296	-0.066
-617.332	-200.000	0.002	0.286
-616.317	58.299	-0.067	-0.066
-615.303	-31.156	-0.070	-0.040
-614.288	800.000	-0.100	-0.284
-613.273	-187.249	0.259	-0.004
-612.259	-92.323	-0.175	0.050
-611.244	15.816	0.060	-0.048
-610.230	800.000	0.034	-0.097
-609.215	-120.598	0.211	-0.036
-608.201	773.094	-0.029	0.081
-607.186	139.034	-0.231	-0.306
-606.171	368.782	-0.174	0.356
-605.157	800.000	-0.092	-0.263
-604.142	-106.926	0.317	0.071
-603.128	-67.613	-0.207	-0.082
-602.113	112.916	0.129	0.158
-601.098	-97.474	-0.084	-0.022
-600.084	800.000	-0.054	-0.180
-599.069	-200.000	0.053	-0.246
-598.055	329.838	-0.077	0.150
-597.040	800.000	0.084	0.297
-596.025	-27.927	0.060	0.035
-595.011	-200.000	0.052	0.306
-593.996	-200.000	-0.015	0.171
-592.982	-34.598	0.116	0.064
-591.967	159.237	-0.041	0.058
-590.952	208.015	-0.104	-0.163
-589.938	-36.201	-0.038	-0.021
-588.923	11.572	0.056	0.043
-587.909	58.392	-0.230	-0.227
-586.894	-14.204	-0.073	-0.047
-585.879	104.476	0.095	0.112
-584.865	281.561	-0.161	0.290
-583.850	569.044	0.130	-0.318
-582.836	-182.388	-0.279	0.005
-581.821	-83.793	-0.230	-0.074
-580.806	226.779	-0.185	-0.303
-579.792	-63.982	0.263	-0.108
-578.777	800.000	0.013	-0.050
-577.763	91.478	-0.232	-0.263
-576.748	-200.000	0.044	-0.384
-575.733	-86.725	0.329	-0.101
-574.719	3.079	0.235	-0.172
-573.704	-38.222	-0.106	-0.057
-572.690	-2.631	-0.228	0.161
-571.675	-58.785	-0.169	-0.074
-570.661	-118.838	0.038	0.007
-569.646	800.000	0.116	-0.376
-568.631	800.000	-0.038	0.131
-567.617	-185.309	0.174	-0.003
-566.602	96.224	0.261	-0.301
-565.588	-156.246	0.218	0.014
-564.573	-200.000	-0.017	-0.131
-563.558	800.000	-0.058	-0.189
-562.544	-200.000	0.049	-0.645
-561.529	91.095	-0.106	0.120
-560.515	89.070	-0.105	-0.118
-559.500	277.265	0.228	-0.408
-558.485	-102.232	0.093	0.022
-557.471	112.514	-0.185	-0.226
-556.456	-31.568	0.286	-0.162
-555.442	214.864	-0.251	0.401
-554.427	8.944	-0.272	0.206
-553.412	-10.774	-0.309	-0.205
-552.398	-95.023	-0.088	-0.024
-551.383	-181.614	-0.474	-0.009
-550.369	-189.057	0.346	0.004
-549.354	-200.000	0.013	-0.208
-548.339	148.195	-0.224	-0.304
-547.325	-200.000	0.014	0.150
-546.310	-168.206	0.210	0.008
-545.296	-177.606	0.153	-0.004
-544.281	62.942	-0.016	0.016
-543.266	-200.000	0.015	0.187
-542.252	143.643	0.059	-0.080
-541.237	-39.411	0.091	-0.048
-540.223	800.000	-0.053	0.175
-539.208	-200.000	0.013	0.071
-538.193	374.062	-0.058	-0.118
-537.179	-95.900	-0.333	0.089
-536.164	25.390	0.058	0.048
-535.150	-141.809	0.240	-0.024
-534.135	-200.000	0.055	0.265
-533.121	-57.071	-0.250	-0.111
-532.106	-68.232	-0.208	-0.081
-531.091	54.810	-0.199	-0.193
-530.077	140.466	0.339	-0.451
-529.062	-200.000	0.014	0.159
-528.048	94.387	-0.181	0.207
-527.033	-107.808	-0.266	-0.058
-526.018	42.887	-0.022	-0.020
-525.004	800.000	0.062	-0.226
-523.989	136.798	0.097	0.127
-522.975	155.114	0.024	0.033
-521.960	-79.845	-0.020	0.007
-520.945	266.894	0.110	-0.193
-519.931	-200.000	-0.009	-0.098
-518.916	-7.998	0.192	0.130
-517.902	-96.748	0.311	0.082
-516.887	140.680	-0.166	0.221
-515.872	436.319	-0.044	0.096
-514.858	-118.361	0.245	-0.044
-513.843	-61.921	0.115	0.048
-512.829	415.078	-0.165	0.354
-511.814	-200.000	0.044	-0.237
-510.799	212.893	0.118	0.186
-509.785	-31.594	-0.129	0.073
-508.770	122.712	0.138	0.174
-507.756	270.029	-0.130	0.230
-506.741	-200.000	-0.009	-0.071
-505.726	-8.349	0.239	-0.162
-504.712	634.258	-0.132	-0.337
-503.697	-97.926	0.120	0.031
-502.683	-200.000	-0.009	0.100
-501.668	-200.000	-0.029	0.238
-500.653	-200.000	-0.071	0.367
-499.639	-200.000	0.026	0.389
-498.624	37.981	0.108	0.097
-497.610	800.000	-0.097	0.274
-496.595	31.998	-0.288	0.249
-495.581	-48.009	0.407	0.197
-494.566	242.533	-0.082	-0.138
-493.551	-71.343	-0.427	0.160
-492.537	-12.818	0.052	0.034
-491.522	-137.483	-0.109	0.012
-490.508	58.221	0.158	0.155
-489.493	-85.391	-0.274	-0.086
-488.478	-108.518	-0.196	0.042
-487.464	-12.996	-0.059	0.039
-486.449	-91.174	0.209	0.060
-485.435	-111.769	-0.209	-0.042
-484.420	-200.000	0.054	-0.258
-483.405	-125.258	-0.371	0.057
-482.391	-126.783	0.146	0.022
-481.376	-24.791	-0.273	-0.163
-480.362	-41.402	-0.375	-0.194
-479.347	-200.000	-0.069	0.305
-478.332	800.000	-0.105	0.340
-477.318	11.303	-0.103	-0.079
-476.303	-200.000	-0.010	0.090
-475.289	-200.000	-0.030	0.224
-474.274	129.902	-0.084	0.108
-473.259	800.000	0.088	0.326
-472.245	89.349	0.103	-0.116
-471.230	112.590	0.064	-0.078
-470.216	-64.886	-0.098	0.040
-469.201	284.666	0.106	-0.191
-468.186	47.672	-0.193	0.180
-467.172	800.000	-0.088	0.373
-466.157	800.000	0.040	0.133
-465.143	432.334	0.142	0.308
-464.128	-200.000	0.031	0.265
-463.113	-200.000	-0.011	0.133
-462.099	342.861	0.067	-0.131
-461.084	800.000	-0.034	-0.117
-460.070	12.945	0.209	-0.162
-459.055	788.868	-0.122	0.336
-458.040	-120.317	0.164	0.028
-457.026	6.387	-0.037	0.028
-456.011	800.000	0.019	0.074
-454.997	-200.000	-0.066	0.425
-453.982	17.931	0.157	-0.125
-452.968	800.000	-0.044	0.179
-451.953	117.454	0.181	-0.223
-450.938	55.710	0.127	0.123
-449.924	-192.987	0.376	0.003
-448.909	-30.702	-0.189	-0.107
-447.895	130.086	0.302	-0.388
-446.880	-71.150	-0.073	0.028
-445.865	160.753	-0.280	-0.392
-444.851	325.219	0.068	-0.130
-443.836	-200.000	0.011	-0.243
-442.822	-200.000	-0.019	-0.415
-441.807	386.164	0.157	-0.326
-440.792	800.000	-0.065	0.203
-439.778	800.000	0.050	-0.179
-438.763	800.000	-0.064	0.195
-437.749	60.824	0.060	-0.060
-436.734	-69.446	-0.124	0.048
-435.719	-140.895	0.139	-0.014
-434.705	552.122	0.067	-0.162
-433.690	385.827	-0.033	-0.069
-432.676	27.149	-0.289	-0.243
-431.661	290.974	0.095	0.174
-430.646	99.971	0.112	-0.130
-429.632	-85.083	-0.370	-0.116
-428.617	-200.000	-0.024	-0.166
-427.603	-34.231	-0.227	-0.125
-426.588	-87.248	0.175	0.053
-425.573	60.868	-0.236	-0.234
-424.559	357.558	-0.105	-0.210
-423.544	-23.463	0.221	-0.133
-422.530	-200.000	-0.001	0.077
-421.515	427.629	0.120	0.259
-420.500	163.328	0.097	0.137
-419.486	-200.000	0.009	-0.092
-418.471	-49.364	-0.217	-0.104
-417.457	448.420	-0.053	0.116
-416.442	-200.000	-0.005	-0.098
-415.428	-41.490	-0.291	0.150
-414.413	-157.809	-0.178	0.011
-413.398	361.878	-0.161	-0.323
-412.384	91.764	0.106	0.119
-411.369	-200.000	-0.015	0.304
-410.355	59.579	-0.285	0.281
-409.340	800.000	0.057	0.185
-408.325	-80.517	-0.088	-0.029
-407.311	-8.921	0.306	0.205
-406.296	-76.849	0.231	0.081
-405.282	-200.000	-0.000	0.344
-404.267	-155.371	0.378	0.025
-403.252	5.192	0.276	0.204
-402.238	-200.000	-0.025	-0.161
-401.223	-91.538	-0.241	-0.069
-400.209	-80.651	0.198	-0.066
-399.194	-9.058	0.313	0.209
-398.179	-93.532	-0.272	0.075
-397.165	800.000	0.069	0.273
-396.150	800.000	0.091	0.256
-395.136	184.580	0.278	-0.412
-394.121	322.200	0.134	-0.255
-393.106	-200.000	-0.014	-0.063
-392.092	208.250	-0.039	-0.060
-391.077	800.000	-0.045	0.158
-390.063	321.968	-0.089	-0.168
-389.048	-16.918	-0.403	0.255
-388.033	192.782	0.140	0.211
-387.019	800.000	-0.017	0.071
-386.004	123.982	-0.175	0.220
-384.990	-1.851	-0.157	0.110
-383.975	800.000	0.064	0.208
-382.960	-200.000	0.010	-0.286
-381.946	84.759	0.049	-0.054
-380.931	-55.945	0.193	-0.086
-379.917	214.027	0.085	-0.134
-378.902	415.076	0.080	0.171
-377.888	-24.512	0.322	-0.192
-376.873	132.982	0.074	-0.095
-375.858	72.307	0.134	-0.140
-374.844	-84.969	-0.158	-0.049
-373.829	796.670	0.069	-0.189
-372.815	800.000	-0.042	0.141
-371.800	73.204	-0.260	0.272
-370.785	329.765	-0.158	0.303
-369.771	800.000	0.058	-0.209
-368.756	454.545	-0.032	0.072
-367.742	224.804	0.164	0.265
-366.727	450.066	0.224	0.494
-365.712	155.396	0.077	-0.106
-364.698	-200.000	0.069	-0.308
-363.683	670.585	0.121	-0.312
-362.669	-163.410	0.171	0.008
-361.654	-90.703	0.113	-0.033
-360.639	-200.000	0.008	-0.188
-359.625	-94.172	0.137	0.037
-358.610	23.097	-0.111	0.091
-357.596	-200.000	-0.064	-0.393
-356.581	-200.000	-0.007	0.155
-355.566	-139.199	-0.140	-0.015
-354.552	-106.829	0.183	0.040
-353.537	415.980	-0.058	-0.123
-352.523	222.025	0.168	0.270
-351.508	-122.989	0.332	-0.053
-350.493	76.935	-0.079	-0.084
-349.479	800.000	0.097	-0.342
-348.464	-18.435	-0.173	0.108
-347.450	623.450	-0.111	-0.279
-346.435	-110.440	-0.433	-0.090
-345.420	800.000	-0.144	0.413
-344.406	22.030	0.072	0.059
-343.391	437.856	0.033	-0.073
-342.377	-158.249	-0.174	-0.010
-341.362	800.000	0.037	-0.103
-340.348	-64.294	0.085	-0.035
-339.333	479.929	0.067	0.152
-338.318	-58.791	0.376	-0.163
-337.304	-60.338	0.127	0.054
-336.289	-40.208	-0.269	0.140
-335.275	94.993	0.262	-0.297
-334.260	36.999	-0.242	-0.213
-333.245	-135.366	0.194	0.023
-332.231	-200.000	-0.051	-0.285
-331.216	-32.598	0.112	-0.062
-330.202	-41.408	0.068	-0.035
-329.187	-200.000	-0.009	-0.107
-328.172	37.897	0.044	-0.039
-327.158	98.683	-0.140	-0.162
-326.143	-200.000	0.383	-0.001
-325.129	14.449	0.155	0.121
-324.114	-143.392	-0.156	-0.015
-323.099	-24.523	-0.185	-0.110
-322.085	236.607	-0.125	0.206
-321.070	-200.000	0.007	-0.167
-320.056	42.372	-0.161	0.146
-319.041	79.446	0.240	-0.256
-318.026	4.962	-0.121	0.088
-317.012	800.000	0.056	-0.158
-315.997	-87.700	-0.182	-0.055
-314.983	-55.025	0.374	0.168
-313.968	-14.707	-0.082	-0.053
-312.953	-10.298	-0.540	0.357
-311.939	-43.632	-0.227	-0.114
-310.924	-87.165	-0.112	-0.034
-309.910	800.000	0.024	-0.067
-308.895	472.702	0.129	-0.289
-307.880	-120.541	0.081	0.014
-306.866	-149.719	-0.108	0.008
-305.851	80.257	-0.079	0.085
-304.837	-8.014	-0.315	0.212
-303.822	193.630	-0.112	0.169
-302.807	65.055	0.032	0.032
-301.793	76.498	0.098	0.103
-300.778	-57.598	0.231	0.101
-299.764	-121.630	-0.268	-0.044
-298.749	-146.027	0.074	0.007
-297.735	139.436	-0.103	0.136
-296.720	265.231	-0.070	0.121
-295.705	800.000	-0.016	-0.043
-294.691	-200.000	-0.013	-0.081
-293.676	-141.688	-0.190	-0.019
-292.662	143.745	-0.101	0.134
-291.647	46.269	0.150	-0.138
-290.632	-139.029	0.085	-0.009
-289.618	-6.895	0.228	-0.154
-288.603	-52.771	0.241	0.111
-287.589	-200.000	0.026	0.174
-286.574	-200.000	-0.037	0.207
-285.559	164.693	-0.291	0.409
-284.545	31.067	0.219	-0.187
-283.530	13.650	0.261	-0.202
-282.516	135.286	-0.058	-0.075
-281.501	-200.000	-0.046	-0.222
-280.486	-180.860	-0.163	0.003
-279.472	-133.717	-0.227	0.028
-278.457	593.242	0.027	-0.066
-277.443	800.000	0.123	-0.368
-276.428	-200.000	0.031	0.238
-275.413	120.059	-0.122	0.151
-274.399	59.552	-0.194	0.191
-273.384	-200.000	0.027	-0.131
-272.370	26.761	-0.421	-0.351
-271.355	-200.000	-0.059	0.365
-270.340	-125.268	-0.208	-0.032
-269.326	225.160	0.240	0.386
-268.311	-43.055	0.294	-0.149
-267.297	-118.507	-0.055	-0.010
-266.282	121.046	0.128	-0.158
-265.267	-5.478	-0.154	-0.105
-264.253	-99.915	-0.278	-0.069
-263.238	106.418	0.106	0.125
-262.224	52.923	0.057	0.054
-261.209	-149.174	-0.150	-0.012
-260.195	-123.328	-0.211	0.034
-259.180	32.110	0.319	-0.274
-258.165	800.000	0.016	0.062
-257.151	-79.681	0.320	-0.107
-256.136	128.336	0.123	0.156
-255.122	5.774	-0.063	-0.047
-254.107	-200.000	-0.013	-0.119
-253.092	-142.706	0.306	0.030
-252.078	26.567	0.209	0.174
-251.063	-22.766	-0.095	-0.057
-250.049	678.223	0.059	0.153
-249.034	-121.613	0.069	0.011
-248.019	-82.723	-0.388	0.125
-247.005	28.924	0.129	0.108
-245.990	308.502	-0.113	0.210
-244.976	54.153	-0.239	-0.228
-243.961	381.364	-0.128	0.262
-242.946	59.934	-0.221	-0.217
-241.932	800.000	-0.102	-0.298
-240.917	34.128	-0.169	0.147
-239.903	71.202	-0.220	0.227
-238.888	351.708	0.170	0.334
-237.873	-2.049	0.323	0.226
-236.859	-17.599	0.072	0.045
-235.844	-85.382	-0.044	-0.013
-234.830	68.255	0.226	-0.230
-233.815	-43.921	0.328	-0.164
-232.800	208.155	0.078	0.122
-231.786	-96.761	0.331	0.086
-230.771	-140.372	0.121	-0.013
-229.757	68.485	0.137	-0.139
-228.742	-18.745	0.214	0.132
-227.727	480.166	0.067	0.152
-226.713	-65.393	-0.074	0.030
-225.698	-165.241	-0.030	-0.001
-224.684	265.823	0.135	0.235
-223.669	-107.689	-0.356	-0.077
-222.655	404.223	-0.077	0.160
-221.640	-157.659	0.178	-0.011
-220.625	-74.770	-0.125	0.045
-219.611	-102.722	0.154	0.037
-218.596	-200.000	-0.005	-0.057
-217.582	-18.082	0.226	-0.141
-216.567	-117.456	-0.208	-0.037
-215.552	367.651	-0.135	0.271
-214.538	800.000	-0.055	0.206
-213.523	724.158	0.084	0.223
-212.509	-200.000	0.021	0.159
-211.494	-73.850	0.135	-0.049
-210.479	-155.142	-0.221	0.014
-209.465	-42.365	0.117	0.059
-208.450	800.000	0.038	-0.107
-207.436	-149.408	-0.384	-0.030
-206.421	-24.267	-0.122	0.072
-205.406	-35.491	-0.246	0.133
-204.392	34.500	0.081	-0.070
-203.377	-200.000	-0.025	0.280
-202.363	101.053	0.239	-0.276
-201.348	-179.534	0.424	-0.009
-200.333	-200.000	0.021	-0.184
-199.319	218.257	-0.158	0.250
-198.304	-200.000	0.003	0.165
-197.290	-26.799	-0.198	0.115
-196.275	16.342	-0.040	-0.031
-195.260	86.553	0.043	0.047
-194.246	-190.056	0.265	0.003
-193.231	156.978	0.179	-0.245
-192.217	-200.000	-0.014	-0.069
-191.202	800.000	-0.040	-0.134
-190.187	233.539	0.074	-0.120
-189.173	-120.084	-0.419	0.071
-188.158	-73.844	0.249	-0.090
-187.144	-103.107	-0.154	-0.036
-186.129	-35.274	0.573	0.309
-185.114	-121.139	0.278	-0.046
-184.100	-153.445	-0.279	-0.019
-183.085	-98.861	0.175	-0.044
-182.071	-200.000	-0.022	-0.099
-181.056	572.796	0.027	0.065
-180.042	-113.349	0.293	0.057
-179.027	-146.624	0.216	0.019
-178.012	10.116	-0.115	-0.087
-176.998	9.468	0.078	0.059
-175.983	287.938	-0.266	0.477
-174.969	-118.400	-0.169	-0.030
-173.954	611.535	-0.057	0.142
-172.939	800.000	-0.089	-0.247
-171.925	-200.000	-0.020	0.113
-170.910	373.778	-0.028	-0.056
-169.896	-200.000	-0.030	-0.367
-168.881	251.165	-0.141	0.238
-167.866	-119.721	-0.160	0.027
-166.852	568.852	0.185	-0.446
-165.837	417.092	0.095	0.200
-164.823	800.000	0.103	-0.415
-163.808	800.000	-0.036	0.120
-162.793	800.000	0.014	0.050
-161.779	33.718	0.172	0.148
-160.764	-200.000	0.042	-0.337
-159.750	800.000	-0.098	-0.315
-158.735	800.000	-0.017	0.063
-157.720	101.697	0.210	-0.243
-156.706	800.000	-0.066	0.269
-155.691	519.449	-0.103	-0.238
-154.677	193.208	-0.065	0.098
-153.662	-33.083	0.084	0.046
-152.647	696.022	-0.068	0.178
-151.633	-149.994	-0.456	-0.035
-150.618	-75.504	-0.268	0.095
-149.604	94.607	0.196	-0.221
-148.589	-17.690	-0.184	-0.115
-147.574	-99.469	-0.317	-0.079
-146.560	800.000	-0.058	-0.184
-145.545	151.242	-0.096	-0.129
-144.531	-200.000	0.027	-0.126
-143.516	-105.875	0.254	-0.057
-142.502	-2.519	-0.238	-0.165
-141.487	-173.649	-0.064	0.002
-140.472	159.897	-0.004	0.006
-139.458	349.104	-0.079	0.155
-138.443	-27.438	-0.207	0.119
-137.429	-118.508	-0.153	-0.027
-136.414	-89.386	0.345	0.101
-135.399	-142.691	-0.198	0.019
-134.385	-200.000	-0.061	0.391
-133.370	-200.000	-0.029	0.198
-132.356	326.007	0.051	-0.097
-131.341	-200.000	0.007	0.368
-130.326	404.841	-0.159	-0.332
-129.312	-27.756	-0.306	-0.176
-128.297	-39.239	0.109	-0.057
-127.283	24.766	-0.304	-0.249
-126.268	138.455	-0.163	0.212
-125.253	-105.614	-0.274	0.061
-124.239	-200.000	-0.022	0.235
-123.224	-45.906	0.067	-0.033
-122.210	-18.040	0.366	0.227
-121.195	45.475	0.111	-0.101
-120.180	63.594	-0.337	-0.334
-119.166	800.000	-0.069	0.193
-118.151	-30.373	0.134	-0.075
-117.137	-200.000	-0.015	0.098
-116.122	-200.000	0.031	0.168
-115.107	-200.000	0.064	0.347
-114.093	-157.656	-0.143	-0.008
-113.078	399.496	-0.028	0.058
-112.064	-200.000	-0.009	0.074
-111.049	-50.369	0.216	0.101
-110.034	-132.417	-0.299	0.038
-109.020	56.547	-0.075	0.073
-108.005	-200.000	0.002	0.036
-106.991	-55.342	-0.184	0.081
-105.976	-200.000	-0.018	-0.099
-104.962	196.657	0.154	0.232
-103.947	-61.532	0.094	-0.039
-102.932	-200.000	-0.036	0.407
-101.918	-125.989	0.254	-0.038
-100.903	436.221	-0.093	-0.199
-99.889	-121.179	-0.355	-0.059
-98.874	800.000	-0.067	-0.258
-97.859	-131.009	-0.017	0.002
-96.845	-138.632	0.187	-0.020
-95.830	-113.636	-0.420	0.081
-94.816	-200.000	-0.006	-0.281
-93.801	-200.000	0.072	-0.345
-92.786	-63.445	-0.121	0.049
-91.772	125.160	0.332	0.413
-90.757	60.469	0.273	-0.268
-89.743	-89.189	0.180	0.053
-88.728	-200.000	0.019	-0.095
-87.713	323.359	-0.050	-0.094
-86.699	-28.138	-0.144	0.082
-85.684	-94.479	0.182	0.049
-84.670	800.000	-0.090	0.261
-83.655	220.009	0.161	0.255
-82.640	-200.000	-0.014	-0.341
-81.626	361.732	-0.100	-0.199
-80.611	-200.000	-0.008	0.183
-79.597	-200.000	-0.010	0.094
-78.582	-49.398	0.196	0.092
-77.567	-36.144	-0.099	-0.053
-76.553	231.026	-0.137	-0.221
-75.538	530.297	-0.201	0.469
-74.524	-75.698	0.199	0.070
-73.509	110.410	-0.290	-0.344
-72.494	800.000	0.050	0.198
-71.480	57.952	0.288	0.279
-70.465	-10.845	0.130	-0.085
-69.451	800.000	0.126	0.386
-68.436	-62.646	-0.519	0.212
-67.422	4.710	-0.060	0.043
-66.407	-81.286	0.158	-0.052
-65.392	118.182	-0.016	0.020
-64.378	-200.000	0.020	0.208
-63.363	72.661	-0.108	0.111
-62.349	199.864	0.108	0.164
-61.334	2.524	-0.781	-0.559
-60.319	-28.156	0.528	0.301
-59.305	800.000	-0.349	-1.195
-58.290	172.833	0.437	0.621
-57.276	222.972	0.976	1.553
-56.261	-200.000	95.052	561.268
-55.246	642.774	1379.103	3469.035
-54.232	187.593	2604.764	3836.335
-53.217	116.725	2309.747	2796.880
-52.203	44.713	1922.658	1744.893
-51.188	38.168	1709.355	1501.161
-50.173	35.384	1663.969	1440.376
-49.159	52.082	1712.029	1609.481
-48.144	55.612	1729.523	1652.721
-47.130	37.853	1686.309	1478.300
-46.115	35.020	1670.452	1443.015
-45.100	34.797	1665.803	1437.264
-44.086	34.797	1663.109	1434.887
-43.071	34.673	1661.332	1432.367
-42.057	34.709	1658.261	1429.929
-41.042	34.705	1656.309	1428.160
-40.027	34.720	1654.807	1426.918
-39.013	34.743	1652.629	1425.158
-37.998	34.557	1651.677	1422.895
-36.984	34.727	1650.109	1422.757
-35.969	34.894	1648.089	1422.199
-34.954	34.912	1646.061	1420.527
-33.940	34.788	1644.708	1418.376
-32.925	34.827	1643.133	1417.252
-31.911	34.866	1640.859	1415.522
-30.896	34.798	1639.677	1413.946
-29.881	34.913	1637.635	1412.983
-28.867	34.894	1635.872	1411.263
-27.852	34.928	1634.566	1410.332
-26.838	34.863	1633.013	1408.453
-25.823	34.864	1631.885	1407.430
-24.809	34.857	1630.419	1406.060
-23.794	34.859	1628.904	1404.715
-22.779	34.977	1627.490	1404.307
-21.765	34.903	1625.508	1402.000
-20.750	34.888	1624.053	1400.576
-19.736	34.959	1622.417	1399.628
-18.721	34.925	1621.448	1398.490
-17.706	34.818	1619.936	1396.347
-16.692	34.859	1618.259	1395.147
-15.677	34.786	1616.590	1393.121
-14.663	34.855	1615.371	1392.519
-13.648	34.932	1613.439	1391.359
-12.633	34.979	1611.965	1390.370
-11.619	34.861	1610.372	1388.084
-10.604	34.986	1608.720	1387.516
-9.590	34.942	1607.612	1386.185
-8.575	34.946	1606.408	1385.122
-7.560	34.816	1605.510	1383.348
-6.546	34.878	1604.410	1382.793
-5.531	34.875	1603.088	1381.583
-4.517	34.826	1602.321	1380.508
-3.502	34.829	1601.187	1379.500
-2.487	34.955	1599.445	1378.849
-1.473	34.892	1588.814	1369.184
-0.458	32.448	1568.770	1334.553
0.556	30.969	1568.236	1298.388
1.571	27.770	1591.609	1294.968
2.586	26.471	1604.118	1295.731
3.600	23.062	1550.271	1228.486
4.615	14.212	1439.370	1083.155
5.629	6.405	1373.228	984.639
6.644	4.856	1364.308	968.532
7.659	4.763	1362.914	966.878
8.673	4.882	1361.980	966.871
9.688	4.919	1360.281	965.811
10.702	4.886	1358.095	963.968
11.717	8.400	1365.196	990.748
12.731	16.909	1380.619	1055.010
13.746	22.230	1388.754	1094.344
14.761	22.577	1388.058	1095.854
15.775	21.707	1385.636	1088.446
16.790	20.710	1383.024	1080.114
17.804	19.934	1380.570	1073.292
18.819	19.559	1379.533	1070.066
19.834	19.355	1378.634	1068.012
20.848	19.196	1377.235	1065.850
21.863	19.012	1376.004	1063.663
22.877	18.900	1375.067	1062.156
23.892	18.728	1374.712	1060.724
24.907	18.847	1373.239	1060.224
25.921	18.869	1372.160	1059.437
26.936	18.917	1371.139	1058.851
27.950	18.915	1370.561	1058.294
28.965	19.039	1369.701	1058.303
29.980	19.151	1368.626	1058.066
30.994	19.244	1367.218	1057.454
32.009	19.370	1365.946	1057.149
33.023	19.237	1364.971	1055.484
34.038	19.244	1363.566	1054.351
35.053	19.052	1362.578	1052.318
36.067	19.131	1361.169	1051.622
37.082	19.154	1360.193	1050.910
38.096	19.161	1359.734	1050.511
39.111	19.216	1358.552	1049.835
40.126	19.094	1357.830	1048.444
41.140	18.782	1356.369	1045.325
42.155	18.618	1356.379	1044.238
43.169	18.608	1355.810	1043.651
44.184	18.660	1355.584	1043.702
45.199	18.677	1354.936	1043.215
46.213	18.849	1354.687	1043.971
47.228	19.039	1353.944	1044.459
48.242	19.124	1352.562	1043.817
49.257	19.017	1351.098	1041.950
50.271	18.886	1349.992	1040.213
51.286	18.944	1348.764	1039.521
52.301	19.011	1346.926	1038.416
53.315	18.890	1346.242	1037.070
54.330	18.716	1345.308	1035.206
55.344	18.773	1343.763	1034.271
56.359	18.800	1342.466	1033.345
57.374	18.702	1342.395	1032.607
58.388	18.660	1341.183	1031.333
59.403	18.610	1340.690	1030.563
60.417	18.519	1339.931	1029.340
61.432	18.457	1339.094	1028.235
62.447	18.467	1337.947	1027.325
63.461	18.431	1336.973	1026.267
64.476	18.341	1335.986	1024.881
65.490	18.332	1334.673	1023.731
66.505	18.397	1333.006	1022.751
67.520	18.514	1331.975	1022.566
68.534	18.541	1330.702	1021.659
69.549	18.428	1330.027	1020.376
70.563	18.453	1328.386	1019.178
71.578	18.317	1327.532	1017.623
72.593	18.170	1327.192	1016.401
73.607	18.212	1326.069	1015.700
74.622	18.178	1325.550	1015.006
75.636	18.224	1325.006	1014.774
76.651	18.283	1324.192	1014.414
77.666	18.314	1323.647	1014.087
78.680	18.482	1323.355	1014.771
79.695	18.537	1322.278	1014.176
80.709	18.618	1321.530	1013.992
81.724	18.673	1321.054	1013.862
82.739	18.850	1320.157	1014.132
83.753	18.877	1319.919	1014.019
84.768	19.115	1318.915	1014.557
85.782	19.172	1317.740	1013.903
86.797	19.128	1316.571	1012.652
87.812	18.996	1315.358	1010.853
88.826	18.970	1314.133	1009.669
89.841	19.040	1313.238	1009.302
90.855	19.149	1312.212	1009.066
91.870	19.195	1311.440	1008.654
92.884	19.160	1310.737	1007.820
93.899	19.196	1309.951	1007.335
94.914	19.359	1308.856	1007.355
95.928	19.262	1308.292	1006.265
96.943	19.261	1307.042	1005.211
97.957	19.031	1306.595	1003.436
98.972	19.038	1305.592	1002.616
99.987	19.059	1304.562	1001.859
101.001	19.069	1303.601	1001.090
102.016	19.097	1303.016	1000.717
103.030	19.185	1301.716	1000.139
104.045	19.152	1300.803	999.158
105.060	19.038	1299.283	997.243
106.074	18.783	1297.757	994.507
107.089	18.509	1296.152	991.603
108.103	18.508	1294.655	990.365
109.118	18.356	1294.033	988.926
110.133	18.423	1292.438	988.004
111.147	18.522	1291.177	987.522
112.162	18.462	1289.761	986.006
113.176	18.698	1288.343	986.191
114.191	18.651	1287.847	985.455
115.206	18.606	1286.910	984.395
116.220	18.684	1285.174	983.425
117.235	18.563	1284.614	982.217
118.249	18.642	1283.419	981.670
119.264	18.563	1282.032	980.070
120.279	18.483	1281.029	978.759
121.293	18.462	1280.204	977.925
122.308	18.351	1278.990	976.277
123.322	18.295	1278.163	975.238
124.337	18.324	1276.698	974.198
125.352	18.284	1275.877	973.260
126.366	18.300	1274.753	972.407
127.381	18.254	1273.774	971.310
128.395	18.407	1272.560	971.171
129.410	18.358	1271.966	970.350
130.424	18.367	1270.870	969.480
131.439	18.588	1270.208	970.140
132.454	18.533	1269.292	969.042
133.468	18.647	1268.459	968.964
134.483	18.642	1267.853	968.392
135.497	18.803	1266.695	968.328
136.512	18.779	1265.423	967.135
137.527	18.682	1264.157	965.534
138.541	18.754	1262.764	964.792
139.556	18.745	1261.937	964.021
140.570	18.850	1261.134	963.913
141.585	18.976	1259.835	963.539
142.600	19.096	1258.621	963.197
143.614	19.228	1257.548	963.028
144.629	19.174	1256.653	961.958
145.643	19.075	1255.860	960.711
146.658	18.875	1254.311	958.330
147.673	18.790	1252.974	956.748
148.687	18.676	1251.811	955.142
149.702	18.613	1250.092	953.395
150.716	18.601	1248.520	952.047
151.731	18.670	1247.140	951.293
152.746	18.750	1246.329	951.034
153.760	18.722	1245.576	950.215
154.775	18.849	1244.184	949.772
155.789	19.009	1243.155	949.786
156.804	18.968	1242.434	948.928
157.819	18.958	1241.473	948.054
158.833	19.126	1240.596	948.224
159.848	19.186	1239.817	947.877
160.862	19.195	1238.951	947.177
161.877	18.855	1237.523	944.134
162.892	18.692	1235.998	941.996
163.906	18.737	1235.388	941.692
164.921	18.746	1234.565	941.032
165.935	18.806	1233.787	940.685
166.950	18.776	1233.219	940.006
167.964	18.922	1232.212	939.953
168.979	18.790	1231.701	938.758
169.994	18.945	1230.341	938.483
171.008	18.906	1229.900	937.849
172.023	19.011	1229.326	937.901
173.037	19.051	1228.912	937.721
174.052	19.055	1228.068	937.019
175.067	18.907	1226.876	935.220
176.081	18.664	1225.452	932.730
177.096	18.731	1224.272	932.114
178.110	18.813	1223.527	931.909
179.125	18.843	1222.310	931.062
180.140	18.928	1220.997	930.439
181.154	19.133	1219.897	930.630
182.169	19.148	1218.952	929.905
183.183	19.092	1218.203	928.949
184.198	19.226	1216.453	928.255
185.213	19.082	1216.143	927.160
186.227	19.247	1214.603	926.791
187.242	19.273	1213.869	926.288
188.256	19.384	1213.120	926.235
189.271	19.445	1212.062	925.669
190.286	19.177	1210.603	923.036
191.300	18.892	1209.165	920.333
192.315	18.718	1208.718	918.979
193.329	18.764	1208.403	918.905
194.344	18.792	1207.992	918.665
195.359	18.907	1207.803	919.055
196.373	19.018	1206.760	918.770
197.388	19.172	1206.917	919.634
198.402	19.329	1206.566	920.121
199.417	19.419	1205.955	920.051
200.432	19.509	1205.172	919.856
201.446	19.599	1204.719	919.906
202.461	19.800	1203.629	920.060
203.475	19.596	1203.093	918.484
204.490	19.313	1201.432	915.631
205.504	19.329	1199.693	914.309
206.519	19.422	1198.309	913.668
207.534	19.301	1197.254	912.143
208.548	19.291	1196.737	911.617
209.563	19.252	1196.136	910.873
210.577	19.355	1194.853	910.357
211.592	19.526	1194.102	910.608
212.607	19.575	1193.327	910.192
213.621	19.595	1192.611	909.673
214.636	19.468	1191.918	908.396
215.650	19.570	1190.839	908.028
216.665	19.543	1190.496	907.547
217.680	19.753	1189.431	907.757
218.694	19.841	1188.370	907.327
219.709	19.633	1187.556	905.536
220.723	19.664	1186.841	905.074
221.738	19.553	1186.279	903.984
222.753	19.723	1185.282	904.031
223.767	19.709	1184.798	903.509
224.782	19.818	1183.975	903.369
225.796	20.067	1183.348	904.113
226.811	19.864	1182.680	902.462
227.826	19.663	1182.040	900.849
228.840	19.659	1181.064	900.004
229.855	19.691	1180.445	899.618
230.869	19.650	1179.501	898.607
231.884	19.654	1178.527	897.806
232.899	19.573	1177.742	896.708
233.913	19.561	1176.633	895.720
234.928	19.430	1176.418	894.799
235.942	19.387	1175.433	893.748
236.957	19.391	1174.808	893.214
237.972	19.428	1174.045	892.747
238.986	19.581	1173.598	893.119
240.001	19.440	1172.980	891.840
241.015	19.565	1171.679	891.416
242.030	19.630	1170.747	890.962
243.045	19.638	1170.262	890.557
244.059	19.640	1169.306	889.762
245.074	19.756	1168.997	890.044
246.088	19.897	1168.018	889.947
247.103	19.896	1167.321	889.329
248.117	19.940	1166.879	889.141
249.132	20.049	1166.168	889.082
250.147	20.315	1165.669	889.984
251.161	20.422	1165.355	890.216
252.176	20.549	1164.335	890.010
253.190	20.394	1164.353	889.149
254.205	20.678	1163.170	889.618
255.220	20.682	1162.409	888.978
256.234	20.649	1161.869	888.319
257.249	20.583	1161.000	887.241
258.263	20.457	1161.057	886.562
259.278	20.650	1159.264	886.099
260.293	20.541	1159.488	885.634
261.307	20.752	1158.729	886.050
262.322	20.645	1158.381	885.159
263.336	20.619	1157.728	884.454
264.351	20.725	1156.742	884.161
265.366	20.761	1156.422	884.022
266.380	20.692	1155.465	882.860
267.395	20.714	1154.189	881.920
268.409	20.627	1153.254	880.682
269.424	20.444	1152.931	879.436
270.439	20.565	1152.197	879.407
271.453	20.450	1151.729	878.392
272.468	20.358	1150.712	877.072
273.482	20.446	1149.969	876.872
274.497	20.385	1149.770	876.335
275.512	20.474	1148.798	875.968
276.526	20.430	1147.929	875.006
277.541	20.396	1147.372	874.330
278.555	20.556	1146.335	874.267
279.570	20.579	1146.450	874.395
280.585	20.874	1145.094	874.763
281.599	20.823	1144.299	873.824
282.614	20.709	1143.203	872.338
283.628	20.645	1141.977	871.005
284.643	20.551	1141.496	870.092
285.657	20.580	1140.661	869.522
286.672	20.628	1139.554	868.840
287.687	20.677	1138.448	868.168
288.701	20.676	1137.807	867.598
289.716	20.683	1137.228	867.111
290.730	20.495	1136.761	865.742
291.745	20.590	1135.868	865.462
292.760	20.704	1135.234	865.466
293.774	20.760	1134.798	865.335
294.789	20.867	1134.714	865.727
295.803	20.864	1133.454	864.674
296.818	20.741	1133.039	863.672
297.833	20.665	1131.706	862.204
298.847	20.785	1130.728	861.975
299.862	20.667	1130.083	860.823
300.876	20.744	1129.814	860.920
301.891	20.870	1129.258	861.045
302.906	20.962	1128.425	860.786
303.920	20.986	1127.974	860.487
304.935	21.157	1127.306	860.746
305.949	21.207	1126.429	860.245
306.964	21.177	1126.007	859.699
307.979	21.042	1125.324	858.435
308.993	21.086	1124.275	857.776
310.008	21.141	1123.602	857.460
311.022	21.125	1123.333	857.100
312.037	21.173	1122.107	856.322
313.052	21.105	1120.877	854.976
314.066	20.919	1119.699	853.088
315.081	20.700	1119.075	851.469
316.095	20.760	1117.933	850.817
317.110	20.741	1117.777	850.530
318.125	20.748	1116.996	849.896
319.139	20.756	1116.448	849.443
320.154	20.793	1115.457	848.792
321.168	20.936	1114.698	848.837
322.183	20.940	1113.949	848.208
323.197	20.965	1113.782	848.130
324.212	20.959	1113.481	847.795
325.227	20.935	1112.597	846.931
326.241	20.963	1112.418	846.858
327.256	20.976	1110.779	845.597
328.270	20.945	1110.119	844.872
329.285	20.977	1108.903	844.023
330.300	20.952	1108.045	843.177
331.314	20.967	1107.358	842.649
332.329	20.930	1106.800	841.971
333.343	20.951	1106.061	841.438
334.358	21.092	1105.289	841.454
335.373	21.131	1104.303	840.821
336.387	21.253	1103.453	840.687
337.402	21.307	1102.905	840.452
338.416	21.343	1102.101	839.936
339.431	21.279	1102.050	839.516
340.446	21.423	1101.157	839.454
341.460	21.577	1100.717	839.784
342.475	21.563	1100.108	839.178
343.489	21.616	1099.102	838.590
344.504	21.798	1097.848	838.427
345.519	21.635	1097.310	837.165
346.533	21.781	1096.781	837.385
347.548	21.771	1095.932	836.615
348.562	21.819	1094.930	836.005
349.577	21.608	1094.579	834.657
350.592	21.498	1092.875	832.760
351.606	21.464	1091.962	831.830
352.621	21.387	1091.698	831.189
353.635	21.217	1091.113	829.860
354.650	21.288	1090.374	829.562
355.665	21.323	1089.646	829.101
356.679	21.339	1089.350	828.879
357.694	21.514	1088.861	829.266
358.708	21.589	1087.914	828.825
359.723	21.629	1087.543	828.656
360.738	21.559	1086.925	827.780
361.752	21.647	1085.914	827.354
362.767	21.612	1085.654	826.917
363.781	21.652	1085.267	826.738
364.796	21.744	1084.819	826.756
365.810	21.814	1084.433	826.722
366.825	21.988	1083.421	826.694
367.840	22.081	1083.131	826.839
368.854	22.206	1082.291	826.713
369.869	22.115	1081.871	825.893
370.883	22.044	1080.778	824.650
371.898	21.935	1079.569	823.143
372.913	21.896	1079.520	822.852
373.927	21.949	1079.330	822.883
374.942	22.028	1078.745	822.730
375.956	22.007	1077.934	821.944
376.971	22.091	1077.149	821.666
377.986	22.094	1076.889	821.407
379.000	22.122	1076.606	821.249
380.015	22.178	1076.062	821.023
381.029	22.336	1075.054	820.917
382.044	22.271	1074.450	820.083
383.059	22.250	1073.831	819.438
384.073	22.371	1072.691	819.062
385.088	22.235	1071.770	817.652
386.102	22.168	1071.321	816.925
387.117	22.130	1070.095	815.743
388.132	21.924	1069.299	814.107
389.146	22.005	1068.234	813.602
390.161	22.062	1067.261	813.051
391.175	22.067	1066.701	812.575
392.190	22.057	1066.356	812.195
393.205	22.109	1065.582	811.771
394.219	22.213	1065.096	811.813
395.234	22.178	1063.788	810.580
396.248	22.052	1062.961	809.298
397.263	22.105	1061.569	808.410
398.278	21.888	1061.049	806.945
399.292	21.736	1060.405	805.685
400.307	21.819	1059.414	805.245
401.321	21.947	1058.545	805.098
402.336	21.815	1057.961	803.976
403.350	21.974	1057.270	804.110
404.365	21.924	1056.713	803.388
405.380	22.071	1056.052	803.483
406.394	22.157	1055.408	803.317
407.409	22.283	1054.986	803.502
408.423	22.409	1054.292	803.477
409.438	22.402	1053.704	802.927
410.453	22.453	1052.869	802.450
411.467	22.594	1052.183	802.500
412.482	22.586	1051.758	802.066
413.496	22.650	1051.302	801.941
414.511	22.777	1050.477	801.816
415.526	22.787	1050.314	801.667
416.540	22.850	1049.837	801.515
417.555	22.794	1049.160	800.675
418.569	22.548	1048.804	799.215
419.584	22.611	1048.012	798.829
420.599	22.594	1048.026	798.692
421.613	154.348	1399.501	1788.635
422.628	141.572	1450.693	1788.777
