DTS Sentinel unit serial number:	SN413079Multiplexer serial number:	ORYXHardware model number:	OX4-SRSoftware version number:	ORYX F/W v4.00 Oryx Data Collector v3.7.2.0data status	okinstallation	princeton_trtdifferential loss correction	single-endedforward channel	channel 2reverse channel	N/Adate	2019/09/17time	23:35:35forward acquisition time	60.00reverse acquisition time	0.00gamma	496.2192k internal	0.2349k external	0.2349temperature offset calibration	0.9985default loss term (dB/km)	0.3790temperature slope calibration	1.0000multiplexer offset coefficient	1.0000multiplexer slope coefficient	1.0000fibre end	0.00T internal ref (°C)	24.19T ext. ref 1 (°C)	0.17T ext. ref 2 (°C)	17.55length (m)	temperature (°C)	Stokes	anti-Stokes-747.200	-1.185	0.427	-0.301
-746.185	800.000	-0.138	0.426
-745.171	313.383	-0.258	0.485
-744.156	800.000	0.090	0.367
-743.142	131.790	0.135	-0.173
-742.127	-200.000	0.001	0.321
-741.112	-88.363	0.096	0.029
-740.098	-35.719	-0.186	-0.101
-739.083	-45.373	-0.273	-0.135
-738.069	-200.000	0.028	0.163
-737.054	800.000	-0.081	-0.315
-736.039	89.104	-0.284	0.316
-735.025	-35.458	0.077	-0.042
-734.010	-200.000	-0.003	-0.087
-732.996	-200.000	0.045	0.253
-731.981	-200.000	-0.003	-0.076
-730.966	-200.000	0.016	0.198
-729.952	85.785	0.320	0.351
-728.937	-131.240	0.346	0.046
-727.923	-200.000	0.000	0.017
-726.908	800.000	-0.065	-0.182
-725.894	79.363	-0.138	-0.147
-724.879	-200.000	0.110	-0.485
-723.864	111.027	0.207	0.249
-722.850	-200.000	0.045	-0.249
-721.835	-75.065	-0.152	-0.054
-720.821	482.383	0.098	-0.223
-719.806	-200.000	0.003	-0.396
-718.791	-116.714	-0.399	-0.073
-717.777	-146.262	0.360	-0.032
-716.762	-86.814	-0.225	-0.069
-715.748	309.442	-0.087	-0.162
-714.733	45.700	-0.051	-0.047
-713.718	-200.000	-0.100	-0.454
-712.704	629.007	-0.063	0.160
-711.689	-114.466	0.145	-0.028
-710.675	-56.683	0.231	-0.102
-709.660	800.000	0.101	0.295
-708.645	-58.863	0.249	-0.107
-707.631	-11.025	0.278	-0.183
-706.616	-167.111	-0.180	0.007
-705.602	319.133	0.048	-0.091
-704.587	-60.559	-0.202	0.085
-703.572	-94.396	-0.099	0.027
-702.558	-38.733	0.304	-0.160
-701.543	-127.041	0.370	0.054
-700.529	-108.531	-0.083	-0.018
-699.514	-166.355	0.384	-0.016
-698.499	166.016	-0.209	0.295
-697.485	9.856	-0.152	-0.115
-696.470	367.211	-0.048	0.097
-695.456	35.220	0.156	0.136
-694.441	800.000	-0.063	-0.247
-693.426	800.000	-0.021	-0.069
-692.412	-200.000	-0.042	-0.206
-691.397	-11.461	-0.023	-0.015
-690.383	-106.653	-0.395	0.088
-689.368	-200.000	-0.011	0.084
-688.354	800.000	-0.075	-0.274
-687.339	-198.153	0.066	0.000
-686.324	800.000	0.029	-0.091
-685.310	267.783	-0.185	0.323
-684.295	-102.632	0.151	-0.036
-683.281	94.317	0.119	-0.135
-682.266	-40.032	0.281	-0.146
-681.251	-90.915	-0.098	0.028
-680.237	657.034	-0.083	-0.212
-679.222	-200.000	0.039	0.177
-678.208	-11.778	0.111	-0.073
-677.193	280.308	0.154	0.275
-676.178	-200.000	-0.005	-0.120
-675.164	-99.064	0.231	-0.058
-674.149	132.007	0.076	0.098
-673.135	-200.000	-0.033	0.235
-672.120	1.783	-0.336	-0.241
-671.105	-7.511	0.180	-0.121
-670.091	-58.143	0.277	-0.120
-669.076	800.000	-0.071	0.218
-668.062	67.282	0.063	0.064
-667.047	-144.861	0.125	0.011
-666.032	315.208	-0.271	-0.509
-665.018	-200.000	0.015	-0.064
-664.003	800.000	-0.002	-0.006
-662.989	113.898	0.062	0.075
-661.974	-78.541	-0.354	-0.121
-660.959	376.153	-0.169	-0.344
-659.945	196.999	-0.199	0.302
-658.930	30.729	0.175	-0.149
-657.916	-191.393	-0.158	-0.002
-656.901	-108.799	0.194	0.041
-655.886	242.525	-0.045	-0.076
-654.872	200.638	0.190	0.291
-653.857	800.000	0.084	-0.273
-652.843	338.036	-0.023	0.044
-651.828	614.647	0.126	-0.315
-650.814	-94.279	0.088	0.024
-649.799	-107.402	-0.140	-0.031
-648.784	427.933	-0.207	-0.444
-647.770	206.815	0.163	-0.253
-646.755	130.824	0.056	0.072
-645.741	-200.000	0.000	-0.195
-644.726	-23.257	-0.367	-0.220
-643.711	-77.132	0.206	-0.071
-642.697	-200.000	0.006	0.201
-641.682	-200.000	0.004	0.031
-640.668	19.320	-0.137	-0.110
-639.653	-200.000	0.029	0.234
-638.638	-134.436	0.226	-0.028
-637.624	-36.705	-0.269	-0.144
-636.609	133.564	0.108	0.138
-635.595	757.220	0.051	-0.137
-634.580	120.081	-0.092	-0.114
-633.565	-144.113	-0.277	-0.026
-632.551	71.378	-0.320	0.331
-631.536	209.980	0.101	-0.158
-630.522	-87.699	-0.330	-0.099
-629.507	338.253	0.117	-0.227
-628.492	-13.404	0.021	-0.014
-627.478	-3.326	-0.365	-0.253
-626.463	775.179	0.031	0.083
-625.449	230.876	0.194	0.315
-624.434	91.017	0.098	0.109
-623.419	-143.096	-0.109	-0.011
-622.405	-200.000	-0.006	0.209
-621.390	-70.148	-0.244	0.092
-620.376	31.569	0.261	0.223
-619.361	-200.000	-0.026	-0.295
-618.346	75.469	-0.155	-0.162
-617.332	-38.934	-0.256	-0.134
-616.317	48.722	0.167	-0.156
-615.303	-200.000	0.010	-0.278
-614.288	389.686	0.027	0.056
-613.273	46.541	0.187	0.173
-612.259	-44.362	-0.044	-0.022
-611.244	-114.498	0.230	0.044
-610.230	-14.176	-0.211	-0.135
-609.215	-117.143	0.349	0.063
-608.201	-52.741	-0.383	-0.175
-607.186	573.401	-0.089	-0.216
-606.171	532.327	-0.053	-0.125
-605.157	490.594	0.067	-0.153
-604.142	153.631	0.088	-0.120
-603.128	-41.423	-0.189	-0.097
-602.113	800.000	0.060	0.229
-601.098	-162.690	0.350	-0.017
-600.084	-200.000	-0.009	-0.150
-599.069	-200.000	0.215	-0.000
-598.055	-56.339	-0.038	0.017
-597.040	-80.899	-0.298	0.098
-596.025	611.479	0.161	-0.400
-595.011	-115.455	0.125	0.023
-593.996	505.936	0.129	-0.298
-592.982	800.000	-0.074	-0.315
-591.967	-128.317	0.226	-0.032
-590.952	187.070	-0.123	-0.182
-589.938	141.997	0.086	-0.113
-588.923	-101.889	-0.361	0.087
-587.909	60.419	0.226	0.222
-586.894	-73.661	0.048	0.017
-585.879	-200.000	-0.023	-0.140
-584.865	-200.000	0.041	0.328
-583.850	800.000	0.058	-0.186
-582.836	-5.039	-0.240	0.164
-581.821	218.005	-0.069	0.109
-580.806	-200.000	0.016	-0.094
-579.792	-135.272	0.212	0.025
-578.777	-14.404	-0.088	0.056
-577.763	-5.582	0.154	-0.105
-576.748	400.073	0.029	-0.061
-575.733	561.847	-0.012	0.030
-574.719	-81.077	-0.205	0.067
-573.704	51.415	0.171	-0.162
-572.690	-200.000	0.001	-0.032
-571.675	-200.000	0.020	0.347
-570.661	800.000	0.108	0.306
-569.646	108.595	0.088	0.104
-568.631	6.702	-0.051	-0.038
-567.617	299.358	-0.206	0.377
-566.602	444.658	-0.081	0.175
-565.588	41.308	-0.096	-0.086
-564.573	-200.000	0.068	-0.297
-563.558	41.800	0.044	0.040
-562.544	-104.729	-0.326	0.074
-561.529	84.719	-0.107	-0.117
-560.515	198.861	0.144	-0.218
-559.500	800.000	0.091	-0.282
-558.485	-13.995	0.335	0.215
-557.471	18.481	0.267	-0.212
-556.456	-200.000	-0.027	0.217
-555.442	-165.386	0.108	0.005
-554.427	-57.251	-0.113	0.049
-553.412	-66.594	-0.332	0.131
-552.398	795.188	-0.065	-0.177
-551.383	-200.000	0.022	-0.285
-550.369	-58.592	0.227	-0.097
-549.354	800.000	0.041	-0.142
-548.339	25.030	-0.174	-0.143
-547.325	800.000	-0.038	-0.144
-546.310	-142.510	-0.156	0.015
-545.296	-130.145	-0.119	-0.016
-544.281	800.000	-0.035	-0.131
-543.266	770.298	-0.083	0.225
-542.252	40.098	-0.095	-0.084
-541.237	131.113	-0.152	0.193
-540.223	253.534	0.075	-0.127
-539.208	800.000	-0.029	0.095
-538.193	-78.292	0.173	-0.059
-537.179	-200.000	0.019	0.325
-536.164	124.527	-0.092	-0.115
-535.150	-200.000	0.057	-0.395
-534.135	-200.000	-0.017	-0.278
-533.121	-96.513	0.141	-0.037
-532.106	293.155	-0.091	-0.165
-531.091	-69.948	0.067	0.025
-530.077	-3.356	-0.283	0.195
-529.062	-17.384	-0.167	-0.104
-528.048	800.000	-0.022	0.063
-527.033	-115.126	-0.151	-0.028
-526.018	43.018	-0.283	-0.256
-525.004	476.372	0.022	-0.048
-523.989	800.000	-0.090	-0.268
-522.975	-200.000	0.017	-0.431
-521.960	112.223	0.105	-0.126
-520.945	-200.000	-0.050	-0.713
-519.931	-140.065	0.109	-0.011
-518.916	299.682	-0.114	0.208
-517.902	316.243	0.052	0.097
-516.887	-141.879	0.115	-0.011
-515.872	800.000	0.042	0.134
-514.858	601.625	-0.059	-0.145
-513.843	-80.716	0.513	0.169
-512.829	299.726	-0.166	0.303
-511.814	-63.803	0.096	0.039
-510.799	187.009	-0.041	-0.060
-509.785	-117.498	-0.091	0.016
-508.770	91.223	-0.134	-0.149
-507.756	42.165	0.107	-0.096
-506.741	14.679	0.061	-0.047
-505.726	33.012	0.184	-0.158
-504.712	124.995	-0.084	-0.105
-503.697	-200.000	0.007	-0.173
-502.683	-200.000	-0.022	0.217
-501.668	-8.667	0.137	0.091
-500.653	-94.207	0.149	0.040
-499.639	98.669	-0.216	-0.246
-498.624	249.501	0.074	-0.124
-497.610	369.890	-0.150	-0.300
-496.595	-92.129	-0.180	-0.050
-495.581	800.000	-0.067	0.271
-494.566	698.617	-0.141	0.367
-493.551	-200.000	0.006	-0.111
-492.537	592.008	-0.083	0.203
-491.522	686.209	-0.058	0.149
-490.508	16.339	-0.216	-0.169
-489.493	-200.000	-0.024	-0.153
-488.478	800.000	0.047	0.127
-487.464	800.000	-0.049	0.170
-486.449	97.001	0.070	0.079
-485.435	-61.556	-0.500	0.207
-484.420	232.975	0.080	-0.130
-483.405	-33.519	0.148	0.081
-482.391	20.868	-0.232	0.186
-481.376	118.368	0.111	0.135
-480.362	800.000	0.084	-0.240
-479.347	800.000	0.058	0.218
-478.332	3.325	0.105	0.076
-477.318	190.282	0.197	0.292
-476.303	3.107	0.127	0.091
-475.289	-20.265	-0.139	0.084
-474.274	-184.767	0.248	-0.004
-473.259	177.969	-0.108	0.156
-472.245	-115.962	0.336	0.062
-471.230	800.000	-0.025	-0.095
-470.216	-80.042	-0.202	0.067
-469.201	-126.528	-0.215	-0.032
-468.186	577.052	-0.172	-0.415
-467.172	553.631	-0.081	-0.193
-466.157	272.846	-0.118	0.206
-465.143	-92.862	-0.180	0.050
-464.128	-200.000	-0.074	-0.405
-463.113	245.318	0.235	0.391
-462.099	-200.000	0.039	-0.186
-461.084	-132.788	0.200	-0.025
-460.070	152.275	-0.160	0.216
-459.055	165.302	-0.087	0.121
-458.040	-200.000	-0.052	0.264
-457.026	-141.826	-0.175	-0.017
-456.011	307.651	0.108	-0.199
-454.997	294.197	-0.047	0.085
-453.982	425.836	-0.165	0.352
-452.968	571.738	-0.183	-0.440
-451.953	800.000	0.042	0.167
-450.938	637.186	-0.085	-0.213
-449.924	800.000	-0.044	0.187
-448.909	-151.533	-0.424	-0.031
-447.895	-200.000	-0.010	0.297
-446.880	486.973	-0.022	-0.050
-445.865	800.000	-0.018	0.074
-444.851	-131.916	0.223	-0.029
-443.836	-32.759	0.067	-0.037
-442.822	-72.210	-0.320	-0.117
-441.807	-126.296	0.107	-0.016
-440.792	-164.045	0.129	-0.006
-439.778	169.335	0.118	0.166
-438.763	58.036	0.128	-0.123
-437.749	-15.260	-0.110	0.070
-436.734	507.115	0.017	-0.039
-435.719	386.509	0.022	-0.046
-434.705	39.730	-0.178	0.157
-433.690	-200.000	0.002	-0.244
-432.676	49.576	-0.095	0.088
-431.661	-116.554	-0.521	0.095
-430.646	55.367	0.117	-0.111
-429.632	787.720	0.050	0.136
-428.617	512.697	-0.081	0.186
-427.603	33.236	0.176	0.151
-426.588	0.069	0.098	0.069
-425.573	800.000	0.044	-0.160
-424.559	71.046	0.343	0.351
-423.544	90.655	0.207	-0.229
-422.530	-146.772	0.343	-0.029
-421.515	800.000	-0.061	-0.220
-420.500	-23.473	0.294	-0.174
-419.486	-161.185	0.359	-0.018
-418.471	-200.000	-0.025	-0.227
-417.457	239.150	-0.137	0.225
-416.442	-40.839	-0.264	-0.135
-415.428	-52.785	0.127	0.058
-414.413	-81.747	-0.238	-0.077
-413.398	777.770	0.073	0.197
-412.384	-139.385	0.665	-0.070
-411.369	-51.200	0.091	0.042
-410.355	249.325	0.078	-0.130
-409.340	-112.190	0.172	-0.034
-408.325	130.754	-0.135	0.170
-407.311	117.152	0.159	0.193
-406.296	114.731	-0.118	0.142
-405.282	-16.821	0.188	-0.117
-404.267	87.987	0.095	0.104
-403.252	46.405	-0.240	-0.219
-402.238	-1.969	-0.107	0.074
-401.223	-172.548	-0.159	-0.005
-400.209	18.768	-0.277	0.219
-399.194	800.000	-0.037	0.150
-398.179	-200.000	-0.035	0.399
-397.165	171.735	0.099	0.140
-396.150	167.772	-0.276	0.387
-395.136	-34.085	-0.146	0.079
-394.121	-36.226	0.256	-0.136
-393.106	141.751	0.095	0.124
-392.092	-36.835	0.153	-0.081
-391.077	-200.000	0.023	-0.261
-390.063	-200.000	-0.025	0.168
-389.048	-21.531	0.502	0.302
-388.033	-33.986	0.284	0.154
-387.019	-200.000	-0.006	-0.058
-386.004	-13.812	0.202	-0.129
-384.990	-0.719	-0.447	0.312
-383.975	16.549	-0.011	0.008
-382.960	-200.000	0.001	0.325
-381.946	-200.000	0.003	-0.161
-380.931	-106.548	0.467	-0.103
-379.917	800.000	0.055	-0.173
-378.902	-171.081	0.180	0.006
-377.888	-126.177	-0.309	-0.046
-376.873	-200.000	0.015	-0.076
-375.858	128.923	0.242	0.304
-374.844	74.562	0.356	0.368
-373.829	-84.595	-0.079	0.025
-372.815	285.842	-0.110	0.194
-371.800	149.235	0.125	-0.167
-370.785	149.019	-0.118	-0.157
-369.771	392.067	-0.032	-0.065
-368.756	159.234	0.065	0.089
-367.742	800.000	-0.022	-0.085
-366.727	-12.593	-0.215	0.138
-365.712	152.836	0.243	0.327
-364.698	171.223	-0.109	-0.154
-363.683	800.000	0.042	0.164
-362.669	-170.505	-0.236	0.008
-361.654	3.380	-0.244	-0.175
-360.639	329.710	0.121	-0.229
-359.625	20.237	0.095	0.075
-358.610	198.326	0.171	-0.257
-357.596	-40.626	0.181	0.092
-356.581	39.744	0.214	0.189
-355.566	-63.651	-0.166	-0.067
-354.552	-52.865	-0.300	-0.136
-353.537	-60.141	0.209	-0.088
-352.523	171.652	-0.047	0.066
-351.508	692.745	0.070	0.181
-350.493	-9.259	-0.035	0.023
-349.479	-31.468	0.165	0.091
-348.464	50.503	-0.178	0.165
-347.450	87.013	0.127	-0.138
-346.435	-200.000	-0.048	-0.230
-345.420	463.315	0.107	-0.235
-344.406	61.860	-0.230	0.226
-343.391	58.704	-0.221	-0.213
-342.377	-20.362	0.401	0.242
-341.362	90.675	-0.150	-0.165
-340.348	-126.289	-0.168	-0.025
-339.333	-5.068	-0.134	-0.091
-338.318	800.000	0.082	0.230
-337.304	-142.059	0.088	0.009
-336.289	164.229	0.134	-0.185
-335.275	390.283	0.103	-0.209
-334.260	800.000	0.076	0.263
-333.245	25.109	0.086	-0.070
-332.231	-94.689	0.287	-0.077
-331.216	-4.770	-0.148	0.101
-330.202	42.323	0.070	0.062
-329.187	-120.917	0.040	0.007
-328.172	800.000	-0.062	0.215
-327.158	-200.000	-0.024	-0.195
-326.143	-95.135	-0.165	0.044
-325.129	-200.000	-0.024	0.167
-324.114	53.709	0.232	-0.219
-323.099	76.086	0.111	0.116
-322.085	340.547	-0.166	-0.318
-321.070	715.392	-0.151	-0.392
-320.056	60.955	0.120	-0.117
-319.041	484.623	-0.108	0.242
-318.026	-191.235	0.080	-0.001
-317.012	16.853	0.039	-0.030
-315.997	65.050	-0.131	-0.130
-314.983	57.475	0.180	0.173
-313.968	-200.000	0.016	-0.198
-312.953	-82.584	-0.211	0.067
-311.939	165.573	0.122	-0.170
-310.924	72.577	0.236	0.242
-309.910	-56.694	-0.117	0.051
-308.895	-17.933	-0.067	-0.041
-307.880	17.946	-0.153	-0.119
-306.866	-200.000	0.034	0.214
-305.851	-200.000	0.036	-0.196
-304.837	-117.787	0.071	-0.013
-303.822	-22.101	-0.138	0.082
-302.807	-200.000	-0.001	-0.222
-301.793	321.875	0.070	-0.131
-300.778	247.384	0.096	0.159
-299.764	-200.000	-0.034	0.168
-298.749	112.582	-0.113	0.135
-297.735	-46.331	-0.211	0.102
-296.720	17.581	-0.258	0.202
-295.705	172.125	0.100	-0.141
-294.691	22.260	-0.249	0.199
-293.676	64.438	-0.048	0.047
-292.662	-106.805	0.257	0.056
-291.647	25.391	0.298	-0.243
-290.632	-192.983	0.063	-0.001
-289.618	-129.307	0.310	0.042
-288.603	-162.328	0.321	-0.016
-287.589	131.602	-0.272	-0.344
-286.574	125.026	-0.214	-0.264
-285.559	283.513	0.279	-0.492
-284.545	84.841	0.191	-0.205
-283.530	-71.807	-0.228	0.083
-282.516	-200.000	0.003	0.325
-281.501	-100.092	-0.122	-0.030
-280.486	104.030	-0.218	0.251
-279.472	227.207	0.034	0.055
-278.457	46.142	-0.077	0.070
-277.443	435.479	0.153	0.327
-276.428	160.031	-0.181	0.248
-275.413	-200.000	-0.056	0.317
-274.399	-42.686	0.216	0.108
-273.384	272.467	-0.085	-0.147
-272.370	4.709	-0.027	-0.019
-271.355	-38.238	-0.204	0.106
-270.340	-18.502	0.179	0.109
-269.326	-150.824	-0.298	-0.022
-268.311	114.542	-0.137	-0.164
-267.297	-21.660	-0.176	0.105
-266.282	75.114	0.244	0.252
-265.267	-113.985	0.357	-0.068
-264.253	-200.000	-0.055	-0.329
-263.238	-92.968	0.160	0.044
-262.224	800.000	-0.103	0.348
-261.209	-200.000	-0.006	0.049
-260.195	-114.880	0.203	-0.038
-259.180	72.481	-0.111	0.114
-258.165	220.731	-0.131	-0.206
-257.151	29.934	-0.137	0.114
-256.136	-200.000	-0.023	0.200
-255.122	139.730	0.097	0.126
-254.107	-124.825	0.253	-0.038
-253.092	17.525	-0.075	-0.058
-252.078	-65.584	0.085	0.034
-251.063	279.626	-0.038	-0.067
-250.049	-122.054	-0.123	-0.020
-249.034	18.711	-0.046	-0.036
-248.019	-11.601	-0.105	0.067
-247.005	-138.071	-0.268	0.029
-245.990	99.225	-0.015	0.017
-244.976	40.263	0.135	0.119
-243.961	16.714	0.408	0.316
-242.946	-19.629	0.046	0.028
-241.932	-28.826	0.260	-0.146
-240.917	800.000	-0.072	0.225
-239.903	665.040	0.125	0.316
-238.888	596.546	-0.013	-0.031
-237.873	-142.472	-0.068	0.007
-236.859	231.791	-0.063	-0.102
-235.844	-134.000	-0.221	-0.027
-234.830	-27.123	0.202	0.116
-233.815	-200.000	0.097	0.466
-232.800	3.338	-0.197	-0.140
-231.786	126.167	-0.276	-0.342
-230.771	192.036	0.088	0.131
-229.757	-24.303	0.116	-0.068
-228.742	-110.631	0.218	0.044
-227.727	-95.072	-0.076	0.020
-226.713	-32.518	-0.321	-0.175
-225.698	88.569	-0.196	-0.214
-224.684	-137.450	0.147	0.016
-223.669	49.976	-0.152	0.140
-222.655	800.000	-0.027	0.098
-221.640	-166.850	0.419	-0.017
-220.625	-109.912	-0.195	0.040
-219.611	170.177	0.231	0.324
-218.596	-189.201	0.146	-0.002
-217.582	732.884	-0.087	0.228
-216.567	83.804	-0.264	-0.281
-215.552	-25.289	-0.062	-0.036
-214.538	-77.800	0.224	-0.076
-213.523	-200.000	0.017	-0.175
-212.509	-5.101	-0.060	-0.040
-211.494	176.133	-0.041	0.058
-210.479	233.058	0.177	0.285
-209.465	800.000	0.111	0.310
-208.450	13.009	0.314	-0.238
-207.436	-200.000	0.017	0.382
-206.421	146.204	0.258	0.339
-205.406	118.754	-0.282	0.341
-204.392	24.465	-0.202	-0.164
-203.377	-90.397	-0.240	-0.068
-202.363	-90.725	0.267	-0.075
-201.348	-20.827	0.175	-0.105
-200.333	-142.927	-0.303	-0.029
-199.319	9.645	0.287	0.213
-198.304	-44.637	0.280	0.137
-197.290	35.037	-0.180	-0.154
-196.275	159.063	0.123	-0.167
-195.260	332.862	0.114	-0.215
-194.246	103.571	0.024	-0.027
-193.231	-62.820	0.125	-0.050
-192.217	800.000	-0.080	0.326
-191.202	-25.524	-0.296	-0.171
-190.187	341.303	-0.120	0.229
-189.173	-200.000	0.016	-0.114
-188.158	184.786	-0.132	0.191
-187.144	-25.141	0.143	-0.083
-186.129	205.797	0.119	-0.181
-185.114	21.356	-0.081	0.064
-184.100	-120.738	-0.135	-0.022
-183.085	404.233	-0.119	-0.245
-182.071	226.774	-0.075	0.119
-181.056	54.570	0.135	-0.127
-180.042	-200.000	-0.019	0.289
-179.027	-29.223	0.118	-0.066
-178.012	-118.997	-0.258	0.044
-176.998	26.879	-0.374	0.306
-175.983	-200.000	0.006	-0.103
-174.969	800.000	0.051	0.163
-173.954	-87.780	0.130	-0.038
-172.939	-200.000	0.006	0.091
-171.925	-117.437	0.073	0.013
-170.910	-59.501	-0.189	0.079
-169.896	55.148	0.181	0.171
-168.881	-200.000	0.051	-0.244
-167.866	-90.806	-0.189	-0.053
-166.852	800.000	0.156	-0.487
-165.837	-63.717	0.288	-0.115
-164.823	-85.977	-0.100	-0.030
-163.808	-48.061	-0.339	-0.160
-162.793	-68.807	0.302	-0.114
-161.779	533.895	-0.104	0.241
-160.764	604.838	0.121	0.295
-159.750	2.676	-0.110	0.078
-158.735	439.194	0.157	-0.334
-157.720	530.654	-0.090	0.206
-156.706	-200.000	-0.001	-0.288
-155.691	427.042	0.196	-0.414
-154.677	-88.727	-0.363	0.105
-153.662	-200.000	0.027	-0.181
-152.647	410.694	0.076	-0.157
-151.633	33.189	0.129	-0.109
-150.618	-143.510	-0.094	0.009
-149.604	-31.878	0.045	0.025
-148.589	-122.459	-0.337	-0.054
-147.574	-27.526	0.258	0.146
-146.560	800.000	0.101	0.278
-145.545	-66.556	-0.104	0.040
-144.531	800.000	-0.060	-0.184
-143.516	43.989	0.212	0.190
-142.502	67.960	-0.174	0.174
-141.487	306.208	-0.141	0.256
-140.472	-76.112	-0.163	-0.056
-139.458	-111.569	0.164	0.033
-138.443	-130.523	0.035	-0.005
-137.429	25.739	-0.464	0.377
-136.414	800.000	0.055	0.176
-135.399	402.936	0.112	-0.229
-134.385	-111.290	0.243	0.048
-133.370	80.783	-0.188	0.198
-132.356	291.704	0.107	0.191
-131.341	45.299	-0.161	-0.144
-130.326	177.713	0.057	0.080
-129.312	119.775	0.144	0.174
-128.297	75.804	0.195	-0.201
-127.283	-112.172	0.192	-0.038
-126.268	48.694	0.047	0.043
-125.253	-162.897	-0.205	0.010
-124.239	-200.000	-0.050	0.267
-123.224	88.193	0.218	-0.236
-122.210	338.232	0.026	-0.050
-121.195	24.292	-0.160	0.129
-120.180	219.919	-0.169	0.264
-119.166	273.674	0.103	-0.177
-118.151	-117.361	0.432	0.076
-117.137	-200.000	0.047	-0.494
-116.122	-200.000	-0.008	-0.333
-115.107	-200.000	0.004	0.095
-114.093	-24.040	0.135	0.079
-113.078	-9.068	-0.101	0.066
-112.064	-200.000	0.016	-0.259
-111.049	98.104	0.022	0.024
-110.034	-64.377	-0.172	0.068
-109.020	154.166	0.249	-0.333
-108.005	800.000	-0.071	0.283
-106.991	65.546	0.307	0.303
-105.976	466.987	-0.107	-0.234
-104.962	32.990	0.047	-0.040
-103.947	217.840	-0.365	-0.567
-102.932	51.531	-0.079	0.073
-101.918	29.303	-0.271	-0.224
-100.903	27.742	0.062	-0.051
-99.889	-97.242	-0.164	0.042
-98.874	-75.700	0.135	0.047
-97.859	-200.000	0.066	0.304
-96.845	443.187	0.086	-0.183
-95.830	-80.127	-0.458	0.149
-94.816	54.474	-0.180	-0.169
-93.801	14.498	0.098	-0.074
-92.786	-33.249	0.148	0.080
-91.772	800.000	0.035	0.095
-90.757	521.472	-0.062	-0.142
-89.743	123.920	-0.086	-0.105
-88.728	-119.855	0.130	0.022
-87.713	-78.775	0.193	0.064
-86.699	84.055	0.196	-0.208
-85.684	800.000	-0.026	-0.103
-84.670	3.373	-0.046	0.033
-83.655	-200.000	-0.011	0.160
-82.640	-94.618	-0.208	-0.055
-81.626	-80.461	-0.322	-0.105
-80.611	-101.014	0.136	-0.032
-79.597	-179.889	-0.116	0.002
-78.582	-56.982	-0.187	0.080
-77.567	-118.218	0.253	-0.044
-76.553	800.000	-0.068	0.187
-75.538	204.313	0.138	0.208
-74.524	-200.000	-0.025	0.149
-73.509	-68.048	0.113	0.043
-72.494	111.883	0.190	0.223
-71.480	800.000	-0.110	0.398
-70.465	800.000	0.140	0.433
-69.451	107.403	-0.139	0.160
-68.436	800.000	0.072	0.237
-67.422	-200.000	-0.003	0.023
-66.407	-37.927	0.302	-0.156
-65.392	-134.292	0.168	-0.020
-64.378	9.105	0.066	0.048
-63.363	-200.000	-0.007	-0.211
-62.349	133.489	0.179	-0.226
-61.334	52.147	-1.346	-1.248
-60.319	77.562	0.639	0.661
-59.305	252.109	-0.839	-1.390
-58.290	371.510	0.662	1.307
-57.276	667.636	0.580	1.457
-56.261	-200.000	121.573	643.575
-55.246	439.890	1530.462	3251.082
-54.232	149.223	2685.149	3533.178
-53.217	92.790	2270.254	2492.130
-52.203	33.285	1887.860	1592.545
-51.188	27.273	1686.473	1377.243
-50.173	25.007	1647.430	1328.522
-49.159	45.655	1715.908	1541.173
-48.144	43.963	1727.317	1538.530
-47.130	26.821	1678.896	1367.432
-46.115	24.279	1663.807	1336.067
-45.100	24.145	1659.133	1331.253
-44.086	23.930	1657.274	1328.102
-43.071	24.019	1654.102	1326.172
-42.057	24.062	1652.028	1324.783
-41.042	24.135	1649.318	1323.096
-40.027	24.052	1648.004	1321.376
-39.013	24.079	1645.970	1319.889
-37.998	24.096	1644.566	1318.837
-36.984	24.107	1643.587	1318.078
-35.969	24.226	1641.551	1317.278
-34.954	24.262	1640.228	1316.429
-33.940	24.183	1638.803	1314.648
-32.925	24.155	1637.298	1313.187
-31.911	24.159	1635.743	1311.911
-30.896	24.232	1633.674	1310.737
-29.881	24.231	1631.988	1309.325
-28.867	24.231	1630.690	1308.233
-27.852	24.107	1629.620	1306.414
-26.838	24.059	1628.341	1304.985
-25.823	24.246	1626.283	1304.652
-24.809	24.198	1625.261	1303.429
-23.794	24.180	1624.068	1302.292
-22.779	24.179	1622.441	1300.929
-21.765	24.139	1620.914	1299.356
-20.750	24.134	1619.296	1297.973
-19.736	24.255	1617.875	1297.662
-18.721	24.191	1616.616	1296.139
-17.706	24.195	1614.996	1294.814
-16.692	24.181	1613.598	1293.541
-15.677	24.232	1612.045	1292.617
-14.663	24.242	1611.297	1292.035
-13.648	24.270	1609.213	1290.519
-12.633	24.251	1607.565	1289.004
-11.619	24.190	1606.395	1287.578
-10.604	24.204	1604.845	1286.386
-9.590	24.250	1603.657	1285.713
-8.575	24.233	1602.475	1284.592
-7.560	24.296	1601.262	1284.023
-6.546	24.166	1600.470	1282.403
-5.531	24.240	1599.010	1281.714
-4.517	24.118	1598.523	1280.391
-3.502	24.239	1597.087	1280.059
-2.487	24.284	1595.281	1278.886
-1.473	23.937	1582.594	1266.193
-0.458	20.793	1563.322	1228.578
0.556	15.625	1564.330	1196.409
1.571	13.280	1587.303	1196.919
2.586	12.983	1599.625	1203.932
3.600	11.805	1546.020	1155.177
4.615	6.569	1440.345	1041.608
5.629	1.270	1380.847	964.868
6.644	0.200	1374.168	953.341
7.659	0.172	1373.072	952.320
8.673	0.153	1371.913	951.316
9.688	0.155	1370.072	949.966
10.702	-0.066	1366.750	946.188
11.717	2.624	1370.239	965.480
12.731	9.627	1380.738	1017.118
13.746	15.351	1389.002	1059.366
14.761	16.887	1390.373	1070.020
15.775	16.274	1388.215	1064.404
16.790	15.234	1385.891	1055.976
17.804	14.512	1383.346	1049.403
18.819	14.045	1382.657	1045.849
19.834	13.893	1380.967	1043.521
20.848	13.599	1379.928	1040.799
21.863	13.298	1379.011	1038.124
22.877	13.257	1377.311	1036.498
23.892	13.174	1376.194	1035.043
24.907	13.204	1375.435	1034.570
25.921	13.273	1374.402	1034.132
26.936	13.240	1373.648	1033.268
27.950	13.269	1372.984	1032.857
28.965	13.298	1371.959	1032.179
29.980	13.359	1371.248	1031.932
30.994	13.418	1369.974	1031.246
32.009	13.477	1369.065	1030.839
33.023	13.492	1367.575	1029.718
34.038	13.426	1366.590	1028.480
35.053	13.411	1365.505	1027.480
36.067	13.405	1364.428	1026.540
37.082	13.283	1363.850	1025.255
38.096	13.422	1362.510	1025.018
39.111	13.418	1361.506	1024.150
40.126	13.399	1360.577	1023.243
41.140	13.322	1359.812	1022.100
42.155	13.247	1359.324	1021.181
43.169	13.158	1359.615	1020.758
44.184	13.149	1359.610	1020.608
45.199	13.218	1358.699	1020.262
46.213	13.245	1358.126	1019.907
47.228	13.201	1357.487	1019.064
48.242	13.229	1355.801	1017.884
49.257	13.307	1354.288	1017.135
50.271	13.275	1353.243	1016.066
51.286	13.304	1351.597	1014.916
52.301	13.379	1349.951	1014.050
53.315	13.321	1349.599	1013.340
54.330	13.163	1348.588	1011.526
55.344	13.241	1347.307	1010.953
56.359	13.242	1346.030	1009.907
57.374	13.166	1345.624	1009.050
58.388	13.167	1344.532	1008.150
59.403	13.166	1344.003	1007.655
60.417	13.134	1343.500	1006.998
61.432	13.208	1342.195	1006.377
62.447	13.136	1341.313	1005.189
63.461	13.089	1340.157	1003.953
64.476	13.027	1339.276	1002.823
65.490	13.064	1338.088	1002.070
66.505	13.137	1336.383	1001.147
67.520	13.150	1335.067	1000.151
68.534	13.190	1334.143	999.611
69.549	13.230	1332.779	998.745
70.563	13.158	1331.990	997.631
71.578	13.098	1330.942	996.397
72.593	12.981	1330.317	995.131
73.607	13.063	1329.023	994.568
74.622	13.099	1328.320	994.175
75.636	13.165	1327.202	993.644
76.651	13.151	1326.474	992.928
77.666	13.026	1326.064	991.780
78.680	13.037	1325.825	991.582
79.695	13.028	1324.677	990.585
80.709	13.195	1323.675	990.745
81.724	13.148	1323.078	989.929
82.739	13.231	1321.530	989.184
83.753	13.250	1321.209	988.967
84.768	13.299	1320.244	988.452
85.782	13.304	1318.470	987.062
86.797	13.285	1316.999	985.763
87.812	13.256	1316.282	984.966
88.826	13.262	1315.143	984.065
89.841	13.271	1313.771	983.004
90.855	13.251	1313.056	982.262
91.870	13.364	1312.111	982.139
92.884	13.414	1311.586	981.954
93.899	13.418	1310.302	980.933
94.914	13.452	1309.673	980.572
95.928	13.344	1309.066	979.392
96.943	13.385	1308.158	978.873
97.957	13.321	1307.109	977.621
98.972	13.354	1305.764	976.725
99.987	13.496	1304.593	976.599
101.001	13.441	1303.649	975.483
102.016	13.342	1302.659	974.069
103.030	13.462	1301.701	973.975
104.045	13.284	1301.387	972.609
105.060	13.375	1300.056	972.058
106.074	13.334	1298.386	970.482
107.089	13.146	1297.747	968.817
108.103	13.093	1296.841	967.747
109.118	13.170	1294.999	966.738
110.133	13.188	1293.887	965.929
111.147	13.197	1292.679	964.990
112.162	13.206	1291.549	964.118
113.176	13.215	1290.724	963.469
114.191	13.156	1289.675	962.256
115.206	13.303	1288.128	961.869
116.220	13.338	1286.609	960.856
117.235	13.206	1285.836	959.428
118.249	13.253	1285.003	958.994
119.264	13.220	1283.955	957.936
120.279	13.277	1282.619	957.183
121.293	13.202	1281.984	956.190
122.308	13.191	1280.714	955.091
123.322	13.233	1279.882	954.634
124.337	13.223	1278.594	953.530
125.352	13.195	1277.862	952.737
126.366	13.222	1276.684	951.931
127.381	13.281	1275.372	951.209
128.395	13.241	1274.081	949.932
129.410	13.326	1272.898	949.450
130.424	13.232	1272.502	948.536
131.439	13.229	1271.563	947.732
132.454	13.220	1270.660	946.926
133.468	13.257	1269.266	946.013
134.483	13.249	1268.497	945.310
135.497	13.303	1267.612	944.876
136.512	13.238	1266.395	943.516
137.527	13.249	1265.210	942.613
138.541	13.330	1263.422	941.657
139.556	13.341	1262.009	940.581
140.570	13.401	1261.289	940.302
141.585	13.397	1259.937	939.188
142.600	13.408	1259.098	938.544
143.614	13.463	1258.340	938.206
144.629	13.520	1256.937	937.401
145.643	13.426	1255.678	935.846
146.658	13.414	1254.903	935.120
147.673	13.416	1253.457	933.970
148.687	13.390	1252.160	932.772
149.702	13.382	1250.896	931.703
150.716	13.227	1249.803	929.938
151.731	13.280	1248.787	929.394
152.746	13.412	1247.435	929.048
153.760	13.501	1245.879	928.308
154.775	13.477	1244.463	927.034
155.789	13.563	1243.777	926.924
156.804	13.389	1243.006	925.295
157.819	13.565	1242.080	925.508
158.833	13.576	1241.057	924.726
159.848	13.577	1240.078	923.918
160.862	13.552	1238.908	922.827
161.877	13.536	1237.872	921.884
162.892	13.483	1236.945	920.817
163.906	13.540	1236.098	920.420
164.921	13.507	1235.153	919.455
165.935	13.479	1234.193	918.503
166.950	13.594	1232.975	918.149
167.964	13.653	1232.262	917.867
168.979	13.526	1231.862	916.783
169.994	13.585	1231.288	916.600
171.008	13.646	1230.256	916.089
172.023	13.620	1229.307	915.159
173.037	13.640	1228.540	914.616
174.052	13.727	1227.636	914.343
175.067	13.661	1226.776	913.258
176.081	13.673	1226.028	912.686
177.096	13.751	1224.634	911.995
178.110	13.728	1223.437	910.898
179.125	13.701	1222.212	909.759
180.140	13.732	1220.860	908.841
181.154	13.695	1220.295	908.135
182.169	13.701	1218.732	906.928
183.183	13.751	1218.018	906.585
184.198	13.885	1216.807	906.338
185.213	13.854	1215.670	905.240
186.227	13.781	1214.467	903.867
187.242	13.920	1213.205	903.607
188.256	13.944	1212.179	902.891
189.271	13.957	1211.535	902.404
190.286	13.874	1209.881	900.640
191.300	13.678	1209.459	899.183
192.315	13.681	1208.947	898.742
193.329	13.658	1208.149	897.943
194.344	13.718	1207.898	898.003
195.359	13.827	1207.047	897.880
196.373	13.827	1206.291	897.237
197.388	13.896	1206.086	897.380
198.402	13.941	1205.531	897.129
199.417	14.191	1204.622	897.724
200.432	14.021	1204.179	896.394
201.446	14.045	1203.360	895.834
202.461	14.231	1201.578	895.432
203.475	14.199	1200.584	894.436
204.490	14.020	1199.962	892.936
205.504	14.011	1198.789	891.936
206.519	14.108	1197.020	891.058
207.534	14.060	1195.861	889.863
208.548	14.035	1195.428	889.323
209.563	14.024	1194.778	888.704
210.577	14.090	1193.576	888.086
211.592	14.126	1193.193	887.911
212.607	14.149	1192.147	887.180
213.621	14.166	1191.019	886.349
214.636	14.113	1190.239	885.410
215.650	14.127	1189.133	884.583
216.665	14.313	1188.277	884.855
217.680	14.196	1187.738	883.756
218.694	14.317	1186.598	883.471
219.709	14.331	1186.191	883.164
220.723	14.400	1185.315	882.799
221.738	14.278	1184.737	881.645
222.753	14.291	1183.551	880.752
223.767	14.464	1182.666	880.930
224.782	14.380	1182.335	880.166
225.796	14.402	1181.934	879.902
226.811	14.463	1181.238	879.629
227.826	14.482	1180.289	878.945
228.840	14.535	1179.322	878.424
229.855	14.503	1178.619	877.654
230.869	14.410	1178.058	876.669
231.884	14.395	1177.405	876.030
232.899	14.395	1175.943	874.865
233.913	14.351	1175.467	874.201
234.928	14.377	1174.876	873.819
235.942	14.321	1174.111	872.881
236.957	14.386	1173.022	872.335
237.972	14.499	1172.351	872.351
238.986	14.414	1172.080	871.626
240.001	14.370	1171.359	870.780
241.015	14.445	1170.648	870.571
242.030	14.427	1170.005	869.918
243.045	14.512	1168.900	869.465
244.059	14.693	1167.727	869.459
245.074	14.582	1167.239	868.438
246.088	14.546	1166.728	867.792
247.103	14.672	1165.271	867.291
248.117	14.681	1164.885	866.973
249.132	14.716	1163.975	866.400
250.147	14.582	1163.745	865.457
251.161	14.870	1162.768	866.145
252.176	14.761	1161.975	864.915
253.190	14.785	1161.747	864.793
254.205	14.922	1161.437	865.192
255.220	14.886	1160.250	864.046
256.234	14.967	1159.338	863.711
257.249	14.883	1159.270	863.149
258.263	14.947	1158.308	862.687
259.278	14.978	1157.872	862.443
260.293	15.023	1157.345	862.208
261.307	15.097	1156.465	861.856
262.322	15.075	1155.765	861.147
263.336	15.010	1155.387	860.455
264.351	15.109	1154.534	860.253
265.366	15.009	1153.964	859.236
266.380	15.069	1153.036	858.777
267.395	15.017	1152.319	857.900
268.409	15.079	1151.445	857.493
269.424	15.091	1150.977	857.129
270.439	15.061	1150.272	856.375
271.453	15.169	1149.210	856.059
272.468	15.098	1148.706	855.249
273.482	15.173	1147.891	854.945
274.497	15.094	1147.708	854.333
275.512	15.177	1146.463	853.750
276.526	15.032	1146.212	852.751
277.541	15.242	1145.230	853.016
278.555	15.219	1144.460	852.250
279.570	15.256	1143.636	851.745
280.585	15.310	1143.060	851.518
281.599	15.221	1142.198	850.345
282.614	15.321	1140.950	849.849
283.628	15.312	1139.769	848.850
284.643	15.306	1139.153	848.287
285.657	15.336	1138.227	847.673
286.672	15.335	1137.229	846.849
287.687	15.457	1136.201	846.624
288.701	15.288	1135.634	845.273
289.716	15.345	1134.846	844.901
290.730	15.420	1133.793	844.420
291.745	15.432	1133.500	844.189
292.760	15.544	1132.964	844.278
293.774	15.413	1132.400	843.122
294.789	15.523	1131.882	843.214
295.803	15.618	1130.872	842.862
296.818	15.436	1130.067	841.277
297.833	15.415	1129.362	840.572
298.847	15.430	1128.923	840.249
299.862	15.581	1127.569	839.920
300.876	15.513	1126.973	839.062
301.891	15.508	1126.811	838.843
302.906	15.594	1125.919	838.534
303.920	15.611	1125.248	838.042
304.935	15.661	1124.338	837.539
305.949	15.764	1123.689	837.494
306.964	15.612	1123.569	836.574
307.979	15.622	1122.702	835.906
308.993	15.746	1121.629	835.648
310.008	15.617	1120.919	834.405
311.022	15.631	1120.308	833.947
312.037	15.752	1119.272	833.703
313.052	15.758	1118.413	833.018
314.066	15.750	1117.437	832.180
315.081	15.695	1117.129	831.603
316.095	15.725	1116.122	830.927
317.110	15.707	1115.276	830.135
318.125	15.748	1114.691	829.830
319.139	15.780	1113.770	829.225
320.154	15.842	1113.072	828.940
321.168	15.722	1113.096	828.293
322.183	15.869	1112.254	828.315
323.197	15.848	1111.407	827.510
324.212	15.781	1110.926	826.748
325.227	15.766	1110.339	826.167
326.241	15.942	1109.243	826.138
327.256	15.863	1108.734	825.299
328.270	15.799	1108.145	824.473
329.285	15.774	1107.241	823.606
330.300	15.853	1105.641	822.731
331.314	15.797	1105.088	821.975
332.329	15.832	1104.417	821.572
333.343	15.870	1103.256	820.819
334.358	15.900	1102.796	820.553
335.373	15.931	1101.619	819.754
336.387	15.982	1101.474	819.822
337.402	15.992	1100.577	819.131
338.416	16.079	1099.129	818.403
339.431	15.997	1099.246	818.018
340.446	16.104	1098.805	818.139
341.460	16.169	1097.696	817.556
342.475	16.176	1096.527	816.644
343.489	16.227	1095.458	816.026
344.504	16.301	1094.480	815.579
345.519	16.265	1094.029	814.997
346.533	16.340	1093.216	814.684
347.548	16.213	1092.690	813.608
348.562	16.455	1091.693	813.956
349.577	16.182	1091.448	812.390
350.592	16.132	1091.111	811.823
351.606	16.245	1089.731	811.268
352.621	16.257	1089.042	810.744
353.635	16.236	1088.500	810.167
354.650	16.323	1087.526	809.787
355.665	16.327	1087.106	809.422
356.679	16.278	1086.531	808.690
357.694	16.388	1085.513	808.385
358.708	16.288	1085.340	807.708
359.723	16.455	1084.094	807.505
360.738	16.442	1083.651	807.044
361.752	16.392	1083.291	806.463
362.767	16.455	1082.520	806.118
363.781	16.399	1082.246	805.577
364.796	16.479	1081.587	805.397
365.810	16.556	1080.472	804.863
366.825	16.631	1080.088	804.860
367.840	16.575	1079.647	804.192
368.854	16.673	1079.130	804.201
369.869	16.583	1078.437	803.189
370.883	16.651	1077.450	802.704
371.898	16.523	1076.981	801.677
372.913	16.611	1075.987	801.283
373.927	16.680	1075.909	801.482
374.942	16.687	1075.272	800.967
375.956	16.778	1074.437	800.705
376.971	16.654	1073.857	799.620
377.986	16.819	1073.079	799.744
379.000	16.840	1072.621	799.432
380.015	16.705	1072.686	798.775
381.029	16.830	1071.964	798.757
382.044	16.742	1071.057	797.591
383.059	16.752	1070.511	797.164
384.073	16.851	1069.406	796.735
385.088	16.817	1068.163	795.580
386.102	16.878	1067.356	795.196
387.117	16.839	1066.756	794.493
388.132	16.829	1065.747	793.623
389.146	16.844	1065.233	793.242
390.161	16.790	1064.559	792.416
391.175	16.921	1063.489	792.164
392.190	16.947	1063.078	791.908
393.205	17.096	1061.965	791.706
394.219	16.968	1061.235	790.492
395.234	16.990	1060.364	789.879
396.248	16.879	1059.678	788.782
397.263	16.969	1058.439	788.207
398.278	17.045	1057.553	787.831
399.292	17.027	1056.820	787.130
400.307	17.007	1056.264	786.553
401.321	16.916	1055.697	785.639
402.336	16.995	1054.962	785.391
403.350	16.946	1054.400	784.677
404.365	16.951	1054.207	784.484
405.380	17.123	1052.858	784.205
406.394	17.100	1052.558	783.805
407.409	17.116	1051.489	783.016
408.423	17.172	1050.889	782.758
409.438	17.190	1050.015	782.121
410.453	17.264	1049.325	781.877
411.467	17.291	1048.937	781.642
412.482	17.335	1047.967	781.053
413.496	17.290	1047.318	780.292
414.511	17.231	1046.957	779.686
415.526	17.323	1046.562	779.745
416.540	17.380	1046.419	779.829
417.555	17.450	1045.635	779.499
418.569	17.370	1044.835	778.467
419.584	17.266	1044.581	777.732
420.599	17.415	1044.057	777.956
421.613	107.905	1329.445	1485.897
422.628	99.144	1371.007	1485.974
