DTS Sentinel unit serial number:	SN413079Multiplexer serial number:	ORYXHardware model number:	OX4-SRSoftware version number:	ORYX F/W v4.00 Oryx Data Collector v3.7.2.0data status	okinstallation	princeton_trtdifferential loss correction	single-endedforward channel	channel 2reverse channel	N/Adate	2019/09/18time	07:47:35forward acquisition time	60.00reverse acquisition time	0.00gamma	496.2192k internal	0.2349k external	0.2349temperature offset calibration	0.9980default loss term (dB/km)	0.3790temperature slope calibration	1.0000multiplexer offset coefficient	1.0000multiplexer slope coefficient	1.0000fibre end	0.00T internal ref (°C)	23.33T ext. ref 1 (°C)	0.20T ext. ref 2 (°C)	18.77length (m)	temperature (°C)	Stokes	anti-Stokes-747.200	800.000	0.067	-0.203
-746.185	-200.000	-0.021	0.184
-745.171	-57.860	0.265	0.116
-744.156	-122.233	-0.266	0.043
-743.142	34.753	0.214	-0.187
-742.127	158.487	-0.278	-0.385
-741.112	-86.634	0.107	0.033
-740.098	-133.862	-0.191	0.024
-739.083	19.681	-0.044	0.035
-738.069	101.021	0.127	0.148
-737.054	-100.639	-0.192	-0.047
-736.039	184.921	0.189	-0.279
-735.025	-155.733	0.223	0.014
-734.010	157.793	-0.162	-0.224
-732.996	305.039	-0.167	0.309
-731.981	207.778	-0.224	-0.349
-730.966	-0.196	0.215	0.153
-729.952	-158.083	0.159	0.009
-728.937	800.000	-0.089	0.340
-727.923	-70.178	-0.345	0.131
-726.908	-200.000	-0.006	-0.076
-725.894	-200.000	-0.084	-0.373
-724.879	52.696	0.114	-0.108
-723.864	24.226	0.071	-0.058
-722.850	800.000	0.075	-0.277
-721.835	506.448	0.089	-0.206
-720.821	-200.000	0.004	-0.362
-719.806	-194.224	-0.424	-0.003
-718.791	-200.000	-0.026	-0.328
-717.777	-200.000	0.009	-0.112
-716.762	-83.223	-0.437	-0.140
-715.748	-50.713	0.269	0.126
-714.733	2.313	0.138	-0.099
-713.718	-70.867	-0.166	-0.063
-712.704	92.070	-0.186	-0.209
-711.689	96.123	-0.158	0.181
-710.675	-109.239	-0.272	0.058
-709.660	26.989	0.207	0.174
-708.645	-200.000	-0.042	-0.308
-707.631	-5.197	-0.253	0.174
-706.616	-78.664	-0.283	0.096
-705.602	-97.977	-0.073	0.019
-704.587	-200.000	-0.023	0.183
-703.572	568.164	0.172	-0.416
-702.558	33.952	-0.008	-0.007
-701.543	423.629	-0.085	-0.183
-700.529	-200.000	-0.057	-0.370
-699.514	189.084	0.037	0.055
-698.499	-70.938	-0.258	0.097
-697.485	69.357	0.154	-0.158
-696.470	462.504	0.033	-0.074
-695.456	-91.968	0.144	0.041
-694.441	800.000	0.060	0.220
-693.426	-200.000	0.022	0.283
-692.412	800.000	-0.090	-0.263
-691.397	37.040	-0.069	0.061
-690.383	-62.691	-0.239	-0.099
-689.368	-200.000	0.007	0.247
-688.354	-200.000	0.018	0.180
-687.339	-200.000	-0.002	-0.087
-686.324	-97.002	0.268	0.070
-685.310	76.417	0.222	-0.235
-684.295	800.000	-0.084	-0.318
-683.281	-200.000	0.021	-0.148
-682.266	-200.000	0.003	-0.188
-681.251	-129.332	0.133	0.018
-680.237	248.104	0.194	0.327
-679.222	211.650	-0.111	0.175
-678.208	-79.594	0.364	-0.122
-677.193	-31.285	-0.187	-0.105
-676.178	-52.592	0.131	0.060
-675.164	317.278	0.053	-0.099
-674.149	800.000	-0.056	0.221
-673.135	800.000	-0.052	-0.198
-672.120	-40.546	-0.153	-0.079
-671.105	278.818	0.283	-0.503
-670.091	143.628	-0.128	0.169
-669.076	1.706	0.059	0.042
-668.062	800.000	0.031	-0.124
-667.047	-125.374	0.351	-0.053
-666.032	62.301	-0.115	0.115
-665.018	167.249	-0.171	0.242
-664.003	241.963	-0.187	-0.312
-662.989	340.075	-0.113	0.219
-661.974	-200.000	-0.032	-0.498
-660.959	-170.388	-0.150	-0.005
-659.945	78.076	-0.221	0.234
-658.930	-200.000	0.005	-0.165
-657.916	34.034	0.210	-0.183
-656.901	32.103	-0.186	-0.160
-655.886	-200.000	0.016	0.109
-654.872	16.306	-0.142	0.111
-653.857	-200.000	-0.048	-0.312
-652.843	-30.550	0.175	-0.099
-651.828	504.520	0.205	-0.471
-650.814	-159.347	-0.191	0.011
-649.799	-41.925	0.115	-0.059
-648.784	-200.000	-0.006	0.115
-647.770	143.311	0.227	-0.301
-646.755	330.586	-0.044	0.085
-645.741	800.000	0.060	-0.261
-644.726	-132.678	-0.381	-0.049
-643.711	109.915	0.104	-0.124
-642.697	108.523	-0.210	0.249
-641.682	-143.797	-0.189	0.018
-640.668	-133.397	0.402	-0.050
-639.653	-200.000	-0.020	-0.255
-638.638	270.264	0.181	-0.316
-637.624	236.494	0.085	0.140
-636.609	9.445	-0.301	-0.227
-635.595	-40.195	0.170	0.088
-634.580	-200.000	-0.022	-0.112
-633.565	698.252	-0.072	-0.190
-632.551	-96.181	0.186	-0.049
-631.536	-77.300	-0.189	-0.066
-630.522	295.778	-0.109	-0.199
-629.507	-28.450	0.138	0.079
-628.492	-200.000	-0.004	0.201
-627.478	-136.384	-0.068	0.008
-626.463	351.889	-0.084	-0.166
-625.449	5.999	0.229	0.168
-624.434	-106.394	-0.283	0.063
-623.419	-200.000	0.011	-0.208
-622.405	800.000	0.035	0.132
-621.390	800.000	0.082	-0.304
-620.376	112.268	0.149	0.179
-619.361	339.097	-0.088	-0.170
-618.346	-200.000	-0.011	0.157
-617.332	-200.000	0.017	0.243
-616.317	-200.000	0.023	-0.124
-615.303	24.977	-0.047	0.039
-614.288	-200.000	0.014	-0.181
-613.273	-127.390	-0.215	-0.031
-612.259	-30.087	-0.056	-0.032
-611.244	-200.000	-0.003	-0.155
-610.230	-69.803	0.208	-0.079
-609.215	78.003	0.096	-0.102
-608.201	11.546	0.244	0.186
-607.186	5.795	-0.244	0.179
-606.171	11.118	0.110	0.084
-605.157	-86.398	0.056	-0.017
-604.142	-121.246	-0.302	-0.050
-603.128	-132.217	-0.332	-0.043
-602.113	-172.798	-0.271	0.008
-601.098	-200.000	0.089	0.427
-600.084	73.067	0.089	-0.093
-599.069	275.907	0.088	0.155
-598.055	800.000	-0.091	-0.305
-597.040	264.832	-0.034	-0.059
-596.025	-200.000	-0.012	-0.157
-595.011	103.858	-0.068	0.079
-593.996	115.189	-0.144	-0.175
-592.982	-46.880	0.243	-0.118
-591.967	800.000	0.059	0.237
-590.952	-167.431	-0.049	0.002
-589.938	355.164	-0.173	-0.343
-588.923	31.257	-0.231	-0.197
-587.909	-181.293	-0.255	0.005
-586.894	-200.000	-0.054	0.341
-585.879	-200.000	0.013	0.223
-584.865	-200.000	0.032	-0.285
-583.850	349.639	-0.180	0.354
-582.836	363.606	0.113	-0.226
-581.821	-46.739	0.378	-0.184
-580.806	117.609	0.135	-0.165
-579.792	-145.787	0.289	-0.026
-578.777	-200.000	0.008	0.169
-577.763	-200.000	0.034	-0.150
-576.748	204.715	0.127	0.195
-575.733	-9.074	-0.102	0.068
-574.719	70.950	0.326	-0.335
-573.704	40.042	-0.178	0.159
-572.690	-200.000	0.010	-0.322
-571.675	-57.237	-0.320	0.140
-570.661	-64.090	0.066	-0.027
-569.646	800.000	0.096	0.314
-568.631	79.125	-0.185	0.197
-567.617	-197.432	0.233	0.001
-566.602	239.849	-0.116	-0.191
-565.588	62.596	-0.269	-0.266
-564.573	473.450	0.083	0.185
-563.558	-83.912	-0.164	0.052
-562.544	-200.000	-0.031	-0.291
-561.529	-200.000	-0.050	-0.375
-560.515	98.013	0.196	0.224
-559.500	11.870	-0.455	-0.347
-558.485	272.297	-0.127	0.223
-557.471	-99.389	-0.286	0.071
-556.456	125.754	-0.187	-0.234
-555.442	-118.919	-0.327	0.057
-554.427	162.747	0.045	0.063
-553.412	249.031	-0.203	0.340
-552.398	-103.164	-0.058	0.014
-551.383	-99.757	-0.127	-0.031
-550.369	-10.807	0.220	-0.144
-549.354	13.557	-0.205	-0.158
-548.339	140.320	-0.148	0.194
-547.325	5.800	0.500	-0.367
-546.310	154.480	-0.086	-0.116
-545.296	-200.000	0.016	-0.145
-544.281	130.072	-0.114	-0.144
-543.266	800.000	-0.061	-0.189
-542.252	-127.616	-0.091	0.013
-541.237	800.000	0.055	0.177
-540.223	-33.629	0.073	-0.040
-539.208	-60.431	-0.376	0.158
-538.193	-43.794	0.033	-0.016
-537.179	-200.000	-0.033	0.246
-536.164	-200.000	0.079	0.353
-535.150	-176.221	-0.073	0.002
-534.135	110.089	0.122	-0.145
-533.121	58.300	0.129	-0.126
-532.106	-32.215	0.066	-0.036
-531.091	-188.201	0.215	-0.003
-530.077	-87.867	0.293	-0.087
-529.062	-200.000	-0.024	-0.430
-528.048	96.407	0.258	-0.292
-527.033	-101.057	0.007	0.002
-526.018	-200.000	-0.027	0.217
-525.004	-200.000	0.006	0.035
-523.989	150.012	-0.027	0.036
-522.975	-200.000	-0.004	-0.038
-521.960	-122.294	-0.162	-0.026
-520.945	-152.798	-0.341	0.024
-519.931	-58.840	-0.407	0.174
-518.916	118.521	0.059	-0.072
-517.902	800.000	-0.039	0.138
-516.887	-90.721	-0.294	0.084
-515.872	166.461	0.189	0.265
-514.858	153.117	0.155	-0.210
-513.843	-115.291	-0.060	-0.011
-512.829	373.222	0.032	-0.064
-511.814	-85.159	0.146	0.045
-510.799	-78.256	0.126	0.043
-509.785	-112.222	-0.375	0.074
-508.770	305.579	-0.041	0.076
-507.756	-150.227	-0.080	0.006
-506.741	550.629	-0.016	0.037
-505.726	201.926	0.084	0.129
-504.712	60.333	0.153	0.150
-503.697	46.198	-0.397	-0.364
-502.683	62.979	-0.080	0.079
-501.668	-67.105	0.290	-0.113
-500.653	254.474	0.058	-0.098
-499.639	267.762	0.186	-0.323
-498.624	-200.000	-0.005	0.272
-497.610	-162.827	-0.123	0.006
-496.595	-128.793	-0.338	-0.047
-495.581	374.629	-0.035	-0.070
-494.566	-200.000	0.017	0.243
-493.551	-97.727	0.105	-0.027
-492.537	44.136	-0.103	-0.093
-491.522	-200.000	-0.034	0.252
-490.508	-17.804	0.082	-0.051
-489.493	-77.416	0.460	0.158
-488.478	-200.000	0.028	-0.212
-487.464	-166.720	-0.171	0.007
-486.449	268.689	0.109	0.188
-485.435	-85.024	-0.036	-0.011
-484.420	-200.000	0.037	-0.524
-483.405	-200.000	0.017	-0.155
-482.391	-94.467	-0.069	0.018
-481.376	92.136	-0.033	-0.037
-480.362	444.267	-0.192	-0.416
-479.347	5.074	-0.389	-0.283
-478.332	8.299	0.287	-0.213
-477.318	-47.491	0.353	0.170
-476.303	-200.000	-0.019	0.200
-475.289	128.611	-0.094	-0.118
-474.274	-85.383	0.254	0.078
-473.259	800.000	-0.058	0.179
-472.245	-200.000	-0.050	-0.276
-471.230	179.915	-0.160	-0.231
-470.216	-32.132	0.233	0.129
-469.201	-1.723	0.370	0.258
-468.186	-118.917	0.201	0.035
-467.172	-111.160	-0.440	-0.089
-466.157	-160.242	0.244	0.013
-465.143	308.739	0.093	0.172
-464.128	155.134	0.040	-0.054
-463.113	-200.000	0.012	-0.135
-462.099	-131.488	0.211	-0.027
-461.084	432.823	-0.025	-0.054
-460.070	-47.704	-0.292	-0.140
-459.055	-109.004	-0.294	-0.062
-458.040	93.771	-0.161	-0.180
-457.026	295.765	0.087	-0.157
-456.011	-67.979	-0.158	0.061
-454.997	181.861	-0.061	0.089
-453.982	12.286	0.056	0.043
-452.968	-200.000	-0.040	-0.211
-451.953	-16.795	0.209	0.131
-450.938	138.475	-0.165	0.214
-449.924	-59.613	-0.015	-0.006
-448.909	-200.000	0.013	-0.178
-447.895	-92.237	0.162	-0.045
-446.880	-4.817	-0.329	0.224
-445.865	800.000	-0.023	0.088
-444.851	300.758	0.127	0.232
-443.836	-200.000	-0.001	-0.214
-442.822	-193.729	0.161	0.001
-441.807	26.568	-0.096	-0.079
-440.792	133.247	0.179	-0.229
-439.778	-142.024	-0.296	-0.029
-438.763	-177.517	0.326	0.008
-437.749	597.689	-0.174	0.426
-436.734	115.094	0.075	-0.090
-435.719	800.000	0.023	-0.093
-434.705	800.000	-0.066	0.252
-433.690	-6.959	-0.157	0.105
-432.676	800.000	-0.057	-0.236
-431.661	346.882	0.146	0.283
-430.646	336.117	-0.124	0.238
-429.632	-200.000	0.004	0.018
-428.617	87.083	-0.212	-0.231
-427.603	800.000	0.117	-0.324
-426.588	297.575	0.105	0.191
-425.573	113.226	-0.220	-0.264
-424.559	404.545	0.097	-0.202
-423.544	163.976	-0.230	-0.320
-422.530	-131.073	0.087	0.011
-421.515	-200.000	0.017	-0.326
-420.500	800.000	0.033	-0.112
-419.486	-68.184	-0.084	0.032
-418.471	327.584	0.076	0.144
-417.457	-35.082	0.257	-0.138
-416.442	-34.915	-0.183	0.098
-415.428	179.941	0.228	0.329
-414.413	-200.000	0.015	0.079
-413.398	-29.799	0.313	0.176
-412.384	406.554	-0.137	-0.284
-411.369	-200.000	0.015	0.191
-410.355	125.498	-0.122	-0.152
-409.340	-130.139	-0.120	0.016
-408.325	-200.000	-0.138	0.000
-407.311	206.256	-0.309	0.474
-406.296	-41.208	-0.184	-0.094
-405.282	800.000	0.082	0.236
-404.267	73.315	-0.143	-0.148
-403.252	-133.969	0.244	-0.030
-402.238	-93.126	-0.041	-0.011
-401.223	127.768	-0.102	0.127
-400.209	-152.905	0.358	0.025
-399.194	294.101	-0.081	-0.146
-398.179	-74.027	0.204	0.073
-397.165	187.830	-0.031	0.045
-396.150	26.389	0.134	0.110
-395.136	-200.000	0.017	0.095
-394.121	-200.000	0.025	0.125
-393.106	457.368	-0.015	0.033
-392.092	-31.808	0.185	0.102
-391.077	83.568	0.092	-0.099
-390.063	60.829	0.131	-0.128
-389.048	-79.838	-0.329	-0.109
-388.033	-49.269	0.354	0.167
-387.019	-45.563	0.119	-0.058
-386.004	-147.214	-0.321	-0.027
-384.990	35.942	0.246	-0.213
-383.975	-97.796	0.087	0.022
-382.960	-115.970	0.072	0.013
-381.946	-35.366	0.169	0.091
-380.931	-7.578	-0.193	0.129
-379.917	800.000	-0.042	0.121
-378.902	-66.118	0.220	-0.086
-377.888	-11.546	-0.231	0.150
-376.873	-87.209	-0.070	0.021
-375.858	-75.749	0.034	0.012
-374.844	-200.000	-0.038	0.265
-373.829	729.975	-0.041	-0.108
-372.815	204.576	-0.078	0.119
-371.800	-200.000	0.028	0.160
-370.785	711.024	-0.066	0.172
-369.771	87.384	0.123	0.134
-368.756	76.512	0.116	-0.121
-367.742	47.652	-0.296	-0.272
-366.727	31.539	-0.094	0.079
-365.712	2.527	-0.164	0.117
-364.698	-200.000	-0.021	-0.203
-363.683	-167.751	0.473	0.018
-362.669	-137.612	0.114	-0.013
-361.654	359.284	0.052	0.103
-360.639	11.261	-0.053	0.040
-359.625	-200.000	0.105	0.481
-358.610	-200.000	-0.033	0.325
-357.596	84.559	-0.242	-0.260
-356.581	88.351	0.240	0.262
-355.566	12.103	0.098	0.074
-354.552	214.134	0.162	0.253
-353.537	182.715	-0.011	0.015
-352.523	-94.821	0.208	-0.056
-351.508	187.931	0.098	0.144
-350.493	-161.286	0.070	-0.004
-349.479	-143.451	0.327	0.031
-348.464	438.597	0.030	0.064
-347.450	-200.000	0.029	-0.252
-346.435	511.320	0.131	-0.300
-345.420	-99.677	-0.212	-0.052
-344.406	-200.000	0.019	-0.197
-343.391	800.000	-0.068	0.198
-342.377	-2.696	0.437	0.301
-341.362	388.406	0.099	-0.201
-340.348	-187.276	0.264	0.004
-339.333	155.208	-0.033	-0.044
-338.318	180.427	-0.141	-0.203
-337.304	800.000	-0.034	0.147
-336.289	237.586	0.238	-0.387
-335.275	543.114	-0.038	0.089
-334.260	800.000	-0.038	0.105
-333.245	-200.000	-0.020	-0.110
-332.231	56.302	0.251	-0.240
-331.216	-200.000	-0.016	0.145
-330.202	75.045	0.142	-0.147
-329.187	228.916	0.203	-0.326
-328.172	40.263	0.115	-0.102
-327.158	103.351	-0.151	-0.174
-326.143	197.007	0.122	0.183
-325.129	179.575	-0.152	-0.219
-324.114	485.772	0.024	-0.054
-323.099	-200.000	-0.004	0.393
-322.085	-127.677	0.179	-0.025
-321.070	330.200	0.102	0.192
-320.056	136.320	-0.169	-0.217
-319.041	800.000	-0.056	-0.216
-318.026	-58.159	-0.448	0.192
-317.012	3.659	-0.111	0.080
-315.997	800.000	-0.046	-0.157
-314.983	59.473	0.244	0.236
-313.968	35.772	-0.221	-0.191
-312.953	581.135	0.036	-0.086
-311.939	148.080	0.135	0.179
-310.924	-107.833	0.282	-0.060
-309.910	24.792	-0.014	0.012
-308.895	441.527	0.171	0.367
-307.880	-129.830	-0.314	0.042
-306.866	47.757	-0.256	-0.234
-305.851	-36.270	0.186	-0.099
-304.837	116.178	-0.165	-0.198
-303.822	117.147	-0.137	0.165
-302.807	65.658	0.140	0.139
-301.793	569.572	-0.110	0.262
-300.778	800.000	-0.171	0.580
-299.764	47.687	0.152	-0.139
-298.749	20.396	0.238	-0.189
-297.735	-37.581	0.128	-0.067
-296.720	168.516	-0.101	-0.141
-295.705	-70.564	-0.159	0.059
-294.691	-13.561	-0.157	-0.100
-293.676	-81.025	-0.124	-0.040
-292.662	-97.763	-0.315	0.080
-291.647	469.104	0.103	-0.228
-290.632	800.000	-0.049	0.209
-289.618	-32.580	0.314	0.172
-288.603	210.704	0.174	0.269
-287.589	-182.042	0.110	0.002
-286.574	-200.000	-0.020	-0.245
-285.559	800.000	0.117	-0.364
-284.545	-200.000	0.004	0.036
-283.530	-200.000	-0.026	0.232
-282.516	-200.000	0.056	-0.289
-281.501	142.059	-0.156	-0.203
-280.486	519.294	-0.133	-0.306
-279.472	-156.468	-0.202	-0.012
-278.457	800.000	-0.077	-0.276
-277.443	111.737	0.180	0.213
-276.428	539.518	-0.038	0.088
-275.413	287.328	-0.106	-0.188
-274.399	-65.692	0.229	0.090
-273.384	-68.759	0.320	-0.121
-272.370	-116.428	-0.092	0.017
-271.355	-200.000	-0.035	0.187
-270.340	92.810	-0.123	-0.137
-269.326	-178.553	-0.382	-0.009
-268.311	22.009	-0.154	-0.123
-267.297	46.301	0.266	0.242
-266.282	800.000	0.054	0.155
-265.267	349.141	-0.126	-0.245
-264.253	800.000	0.032	-0.133
-263.238	-87.861	0.232	-0.068
-262.224	-34.205	-0.143	-0.077
-261.209	800.000	0.052	-0.143
-260.195	213.023	-0.194	-0.300
-259.180	-77.502	-0.500	-0.170
-258.165	79.457	-0.018	-0.019
-257.151	-43.650	-0.347	0.171
-256.136	-5.410	0.072	-0.049
-255.122	-124.009	0.118	-0.018
-254.107	-200.000	-0.025	0.133
-253.092	-200.000	-0.008	0.186
-252.078	-69.726	0.354	0.133
-251.063	-68.686	0.118	0.045
-250.049	-200.000	0.047	-0.483
-249.034	64.951	0.125	-0.124
-248.019	-124.985	-0.359	-0.054
-247.005	69.630	0.247	0.249
-245.990	217.025	-0.207	0.323
-244.976	259.889	-0.175	0.296
-243.961	275.314	0.226	0.393
-242.946	214.619	-0.075	0.116
-241.932	800.000	-0.030	-0.097
-240.917	88.680	-0.203	0.221
-239.903	-142.061	0.173	-0.017
-238.888	-13.883	-0.259	-0.164
-237.873	800.000	0.022	-0.065
-236.859	59.976	-0.267	-0.258
-235.844	-81.907	0.334	-0.107
-234.830	-200.000	-0.013	-0.075
-233.815	693.376	0.114	0.292
-232.800	800.000	0.080	0.311
-231.786	-96.646	-0.121	-0.031
-230.771	-39.889	0.154	0.079
-229.757	-200.000	-0.029	-0.130
-228.742	89.433	-0.142	0.156
-227.727	-200.000	-0.019	-0.156
-226.713	-50.834	0.225	-0.104
-225.698	-20.973	0.082	0.049
-224.684	-200.000	-0.042	0.329
-223.669	88.053	-0.084	0.091
-222.655	-160.911	-0.258	0.013
-221.640	800.000	0.041	0.113
-220.625	607.247	0.104	0.255
-219.611	-200.000	-0.011	0.069
-218.596	166.536	0.056	-0.078
-217.582	305.886	0.161	0.293
-216.567	-200.000	-0.059	-0.354
-215.552	352.817	0.012	-0.023
-214.538	-42.477	-0.203	0.101
-213.523	-75.030	-0.388	-0.136
-212.509	-152.166	-0.137	0.010
-211.494	93.692	-0.266	0.295
-210.479	-200.000	-0.011	0.074
-209.465	-200.000	-0.009	0.237
-208.450	362.493	-0.025	-0.050
-207.436	295.184	-0.226	0.405
-206.421	-200.000	0.060	0.292
-205.406	135.114	-0.040	0.051
-204.392	169.766	-0.102	0.143
-203.377	-35.550	-0.061	0.032
-202.363	31.629	0.310	0.261
-201.348	-52.474	-0.332	-0.150
-200.333	91.670	-0.033	0.036
-199.319	-200.000	-0.006	-0.194
-198.304	-200.000	0.001	-0.168
-197.290	-103.749	-0.249	0.057
-196.275	174.097	-0.323	-0.456
-195.260	800.000	0.050	-0.151
-194.246	-92.662	0.570	0.156
-193.231	-102.820	-0.082	0.019
-192.217	-200.000	0.047	0.241
-191.202	-77.140	-0.392	-0.133
-190.187	-103.442	0.438	0.101
-189.173	-69.548	0.073	-0.027
-188.158	459.104	0.053	0.115
-187.144	379.727	0.138	0.276
-186.129	-165.345	-0.286	0.012
-185.114	-196.241	0.218	-0.001
-184.100	800.000	-0.079	0.216
-183.085	800.000	-0.046	-0.130
-182.071	-200.000	0.011	0.213
-181.056	-200.000	0.066	-0.499
-180.042	90.223	0.273	-0.299
-179.027	-200.000	-0.004	0.444
-178.012	-110.179	0.407	-0.083
-176.998	153.914	0.237	0.318
-175.983	298.110	0.153	0.275
-174.969	275.304	0.094	0.163
-173.954	310.718	0.096	0.176
-172.939	-200.000	0.020	0.092
-171.925	-3.886	0.295	-0.200
-170.910	-200.000	0.008	-0.159
-169.896	85.114	-0.101	-0.108
-168.881	-129.055	0.175	0.024
-167.866	-143.294	-0.130	-0.012
-166.852	800.000	0.053	0.173
-165.837	76.370	0.161	0.166
-164.823	60.770	-0.102	-0.098
-163.808	67.151	-0.132	0.131
-162.793	460.506	-0.077	0.167
-161.779	115.045	0.048	0.058
-160.764	-200.000	-0.045	0.194
-159.750	-200.000	-0.011	-0.293
-158.735	164.164	-0.039	0.054
-157.720	51.820	0.321	0.298
-156.706	84.046	0.174	0.186
-155.691	-200.000	-0.004	-0.023
-154.677	83.760	0.252	-0.269
-153.662	387.586	-0.128	-0.258
-152.647	-63.341	0.151	-0.061
-151.633	-200.000	0.030	0.160
-150.618	800.000	0.029	-0.109
-149.604	-200.000	-0.116	0.611
-148.589	-68.410	0.163	0.062
-147.574	-200.000	-0.036	0.362
-146.560	116.768	-0.173	0.207
-145.545	-200.000	0.048	0.222
-144.531	-39.613	-0.056	-0.029
-143.516	-136.551	-0.084	0.009
-142.502	-66.939	-0.221	0.085
-141.487	-71.233	0.173	-0.063
-140.472	-138.175	0.211	-0.023
-139.458	-50.517	0.232	-0.107
-138.443	-34.743	-0.050	0.027
-137.429	573.454	-0.066	-0.157
-136.414	-200.000	0.001	-0.329
-135.399	-1.334	-0.044	0.031
-134.385	-52.667	0.134	0.060
-133.370	-81.941	0.303	0.097
-132.356	62.329	-0.217	0.211
-131.341	-200.000	0.016	0.075
-130.326	39.891	0.022	0.019
-129.312	-98.930	0.267	0.066
-128.297	9.526	0.133	0.098
-127.283	-200.000	-0.035	0.205
-126.268	622.542	-0.139	0.342
-125.253	687.044	0.135	-0.343
-124.239	35.049	-0.071	-0.060
-123.224	-181.162	-0.327	0.006
-122.210	115.368	-0.250	0.298
-121.195	250.735	0.015	0.024
-120.180	-127.531	-0.218	-0.031
-119.166	-200.000	0.004	0.153
-118.151	-75.082	-0.201	0.070
-117.137	212.143	0.002	-0.003
-116.122	45.955	-0.270	0.244
-115.107	-118.259	0.216	0.037
-114.093	-200.000	0.031	-0.186
-113.078	-20.880	-0.148	0.089
-112.064	113.088	-0.080	0.095
-111.049	328.192	0.105	0.197
-110.034	93.507	-0.146	0.161
-109.020	-112.319	-0.277	0.054
-108.005	62.179	-0.194	0.189
-106.991	-200.000	0.024	0.230
-105.976	-86.665	0.312	0.093
-104.962	-188.093	-0.151	0.002
-103.947	315.222	0.048	-0.088
-102.932	-125.447	-0.271	-0.040
-101.918	-67.769	-0.374	0.142
-100.903	433.539	0.136	0.287
-99.889	13.428	0.125	0.094
-98.874	-200.000	0.058	0.312
-97.859	204.187	-0.095	-0.144
-96.845	-179.922	-0.091	0.002
-95.830	-88.856	-0.133	0.038
-94.816	-106.587	-0.189	0.041
-93.801	-200.000	-0.073	-0.344
-92.786	266.916	0.119	0.203
-91.772	-96.575	-0.270	0.069
-90.757	216.086	-0.148	0.228
-89.743	-200.000	0.077	0.521
-88.728	427.633	-0.163	-0.343
-87.713	18.782	0.056	0.044
-86.699	-200.000	0.005	0.079
-85.684	800.000	-0.071	-0.292
-84.670	575.510	0.041	0.098
-83.655	132.856	-0.153	0.193
-82.640	-95.931	0.197	-0.051
-81.626	-92.883	-0.135	-0.037
-80.611	-65.762	-0.089	0.035
-79.597	-138.956	0.289	0.031
-78.582	728.270	-0.051	0.133
-77.567	186.516	0.138	-0.199
-76.553	-15.268	-0.066	0.041
-75.538	453.309	-0.047	-0.101
-74.524	182.890	-0.130	-0.187
-73.509	347.137	0.034	0.066
-72.494	-200.000	0.098	-0.461
-71.480	-26.115	-0.218	-0.124
-70.465	-91.970	-0.163	-0.045
-69.451	-55.264	-0.201	0.088
-68.436	-1.887	0.206	-0.141
-67.422	122.413	0.170	0.207
-66.407	-65.614	-0.090	0.035
-65.392	-200.000	0.043	-0.249
-64.378	-134.677	0.189	0.022
-63.363	10.611	0.128	-0.095
-62.349	-200.000	0.000	-0.183
-61.334	49.775	-1.167	-1.070
-60.319	-40.346	0.895	0.453
-59.305	488.371	-0.557	-1.238
-58.290	235.720	0.821	1.319
-57.276	800.000	0.723	1.963
-56.261	-200.000	123.117	629.198
-55.246	401.233	1565.124	3194.865
-54.232	142.400	2738.164	3534.292
-53.217	88.752	2310.788	2498.671
-52.203	32.441	1918.068	1610.892
-51.188	26.326	1713.621	1392.194
-50.173	24.175	1674.384	1344.058
-49.159	44.881	1743.301	1559.939
-48.144	43.299	1754.313	1557.533
-47.130	25.988	1705.569	1382.843
-46.115	23.482	1689.903	1351.020
-45.100	23.285	1685.173	1345.693
-44.086	23.233	1683.062	1343.556
-43.071	23.158	1681.080	1341.351
-42.057	23.250	1678.545	1339.971
-41.042	23.290	1676.164	1338.321
-40.027	23.194	1674.658	1336.337
-39.013	23.207	1672.476	1334.642
-37.998	23.149	1671.541	1333.408
-36.984	23.293	1670.170	1333.342
-35.969	23.343	1668.336	1332.207
-34.954	23.330	1666.798	1330.822
-33.940	23.335	1665.145	1329.490
-32.925	23.326	1663.193	1327.808
-31.911	23.304	1661.528	1326.264
-30.896	23.275	1660.131	1324.882
-29.881	23.365	1658.213	1323.971
-28.867	23.415	1656.597	1322.997
-27.852	23.370	1655.113	1321.430
-26.838	23.314	1653.927	1320.009
-25.823	23.374	1652.813	1319.519
-24.809	23.458	1651.064	1318.693
-23.794	23.321	1650.227	1316.952
-22.779	23.368	1648.671	1316.005
-21.765	23.323	1646.965	1314.259
-20.750	23.238	1645.527	1312.426
-19.736	23.327	1644.094	1311.897
-18.721	23.383	1642.467	1310.960
-17.706	23.285	1641.126	1309.111
-16.692	23.338	1639.131	1307.856
-15.677	23.392	1637.932	1307.247
-14.663	23.360	1636.912	1306.143
-13.648	23.410	1634.958	1304.901
-12.633	23.319	1634.080	1303.484
-11.619	23.287	1632.460	1301.906
-10.604	23.304	1630.800	1300.649
-9.590	23.376	1629.552	1300.131
-8.575	23.395	1628.310	1299.234
-7.560	23.381	1627.086	1298.103
-6.546	23.384	1626.033	1297.228
-5.531	23.333	1625.159	1296.110
-4.517	23.357	1623.759	1295.115
-3.502	23.399	1622.582	1294.430
-2.487	23.421	1621.085	1293.346
-1.473	23.005	1609.165	1280.773
-0.458	20.445	1590.087	1247.185
0.556	15.629	1591.871	1218.083
1.571	13.697	1615.855	1222.102
2.586	13.529	1628.061	1229.978
3.600	12.461	1573.433	1180.933
4.615	6.780	1464.754	1061.183
5.629	1.293	1405.216	982.514
6.644	0.247	1398.055	970.684
7.659	0.217	1397.058	969.709
8.673	0.157	1396.275	968.693
9.688	0.169	1393.740	966.931
10.702	-0.048	1390.562	963.245
11.717	2.873	1394.082	984.346
12.731	9.703	1404.821	1035.847
13.746	15.213	1413.092	1077.368
14.761	16.573	1414.615	1087.180
15.775	16.220	1412.682	1083.335
16.790	15.184	1410.218	1074.705
17.804	14.385	1407.793	1067.643
18.819	14.088	1406.297	1064.513
19.834	13.770	1405.252	1061.594
20.848	13.539	1403.962	1059.051
21.863	13.269	1402.886	1056.416
22.877	13.129	1401.527	1054.410
23.892	13.157	1399.996	1053.340
24.907	13.006	1399.884	1052.201
25.921	13.164	1398.593	1052.143
26.936	13.195	1397.754	1051.620
27.950	13.150	1396.977	1050.652
28.965	13.325	1395.749	1050.750
29.980	13.408	1394.671	1050.371
30.994	13.386	1393.783	1049.469
32.009	13.320	1393.003	1048.370
33.023	13.313	1392.230	1047.650
34.038	13.316	1390.256	1046.096
35.053	13.277	1389.772	1045.390
36.067	13.187	1388.794	1043.992
37.082	13.226	1387.998	1043.549
38.096	13.370	1386.402	1043.164
39.111	13.309	1385.622	1042.098
40.126	13.129	1384.827	1040.277
41.140	13.194	1384.033	1039.999
42.155	13.161	1383.554	1039.335
43.169	13.075	1383.878	1038.945
44.184	13.175	1382.793	1038.671
45.199	13.055	1382.723	1037.770
46.213	13.234	1381.734	1038.059
47.228	13.220	1380.904	1037.256
48.242	13.226	1380.346	1036.787
49.257	13.260	1378.207	1035.301
50.271	13.158	1377.094	1033.737
51.286	13.296	1375.192	1033.078
52.301	13.259	1374.040	1031.887
53.315	13.191	1373.381	1030.878
54.330	13.155	1372.395	1029.824
55.344	13.112	1371.351	1028.678
56.359	13.230	1369.722	1028.103
57.374	13.205	1368.864	1027.210
58.388	13.162	1367.968	1026.179
59.403	13.151	1367.829	1025.917
60.417	13.139	1366.644	1024.866
61.432	13.113	1365.759	1023.950
62.447	13.078	1364.634	1022.799
63.461	12.983	1363.424	1021.213
64.476	13.056	1362.078	1020.561
65.490	12.987	1361.557	1019.655
66.505	12.978	1359.874	1018.250
67.520	13.117	1358.109	1017.699
68.534	13.152	1357.048	1017.026
69.549	13.079	1356.404	1016.003
70.563	12.980	1355.685	1014.765
71.578	13.091	1354.042	1014.130
72.593	13.041	1353.149	1013.066
73.607	13.025	1352.326	1012.260
74.622	12.970	1351.391	1011.133
75.636	12.970	1350.489	1010.370
76.651	13.044	1349.615	1010.082
77.666	12.979	1349.602	1009.584
78.680	13.068	1348.493	1009.207
79.695	12.995	1348.239	1008.482
80.709	13.105	1346.782	1007.974
81.724	13.013	1346.409	1007.046
82.739	13.176	1345.143	1007.002
83.753	13.271	1344.190	1006.780
84.768	13.196	1343.126	1005.436
85.782	13.297	1341.957	1005.084
86.797	13.230	1340.366	1003.397
87.812	13.171	1339.249	1002.114
88.826	13.170	1338.278	1001.297
89.841	13.176	1337.358	1000.556
90.855	13.235	1335.933	999.756
91.870	13.297	1335.381	999.630
92.884	13.328	1334.028	998.716
93.899	13.320	1333.795	998.402
94.914	13.339	1332.871	997.737
95.928	13.330	1331.922	996.889
96.943	13.286	1331.171	995.969
97.957	13.285	1330.345	995.257
98.972	13.257	1328.781	993.833
99.987	13.298	1328.016	993.417
101.001	13.329	1326.897	992.677
102.016	13.340	1325.818	991.851
103.030	13.318	1324.806	990.873
104.045	13.328	1323.689	990.011
105.060	13.222	1323.043	988.803
106.074	13.201	1321.196	987.209
107.089	13.165	1319.907	985.948
108.103	13.113	1318.920	984.812
109.118	13.192	1317.524	984.151
110.133	13.190	1315.969	982.896
111.147	13.215	1314.632	981.954
112.162	13.236	1313.374	981.056
113.176	13.198	1312.490	980.083
114.191	13.273	1311.627	979.795
115.206	13.173	1310.498	978.274
116.220	13.191	1309.462	977.518
117.235	13.269	1307.793	976.650
118.249	13.215	1306.949	975.609
119.264	13.209	1305.567	974.460
120.279	13.263	1304.472	973.875
121.293	13.185	1303.704	972.755
122.308	13.104	1302.967	971.645
123.322	13.170	1301.886	971.138
124.337	13.261	1300.175	970.309
125.352	13.146	1299.266	968.874
126.366	13.018	1298.455	967.429
127.381	13.007	1297.712	966.725
128.395	13.261	1295.698	966.625
129.410	13.210	1295.229	965.891
130.424	13.186	1293.995	964.746
131.439	13.158	1293.048	963.795
132.454	13.207	1291.806	963.068
133.468	13.168	1291.297	962.373
134.483	13.189	1290.474	961.801
135.497	13.177	1289.239	960.723
136.512	13.199	1287.932	959.795
137.527	13.163	1286.449	958.392
138.541	13.164	1285.453	957.571
139.556	13.252	1283.833	956.792
140.570	13.418	1282.582	956.730
141.585	13.356	1281.321	955.351
142.600	13.300	1280.678	954.460
143.614	13.433	1279.506	954.273
144.629	13.420	1278.267	953.191
145.643	13.341	1277.166	951.827
146.658	13.346	1275.745	950.714
147.673	13.344	1274.523	949.707
148.687	13.262	1273.795	948.613
149.702	13.315	1271.982	947.478
150.716	13.337	1270.954	946.755
151.731	13.351	1269.687	945.809
152.746	13.353	1268.626	944.949
153.760	13.347	1267.402	943.919
154.775	13.476	1265.520	943.164
155.789	13.394	1264.913	942.167
156.804	13.441	1264.062	941.716
157.819	13.521	1262.863	941.193
158.833	13.517	1262.300	940.667
159.848	13.682	1260.697	940.326
160.862	13.546	1259.985	938.938
161.877	13.434	1258.946	937.446
162.892	13.430	1257.811	936.494
163.906	13.418	1256.808	935.598
164.921	13.478	1255.862	935.153
165.935	13.573	1255.125	935.059
166.950	13.561	1254.626	934.537
167.964	13.651	1253.495	934.117
168.979	13.541	1252.648	932.782
169.994	13.541	1252.468	932.564
171.008	13.511	1251.170	931.348
172.023	13.553	1250.479	930.990
173.037	13.685	1249.645	931.027
174.052	13.587	1248.847	929.799
175.067	13.621	1247.282	928.741
176.081	13.578	1246.432	927.785
177.096	13.525	1245.865	926.985
178.110	13.660	1244.488	926.631
179.125	13.600	1243.666	925.602
180.140	13.634	1242.182	924.608
181.154	13.647	1241.260	923.913
182.169	13.661	1239.829	922.843
183.183	13.754	1238.634	922.389
184.198	13.761	1237.702	921.653
185.213	13.794	1236.197	920.635
186.227	13.738	1235.571	919.775
187.242	13.808	1234.138	919.012
188.256	13.945	1232.944	918.801
189.271	13.819	1232.460	917.665
190.286	13.690	1231.905	916.455
191.300	13.653	1230.757	915.317
192.315	13.611	1229.921	914.382
193.329	13.671	1229.208	914.102
194.344	13.713	1228.811	913.958
195.359	13.722	1228.063	913.369
196.373	13.860	1227.434	913.578
197.388	13.887	1226.917	913.262
198.402	13.901	1226.864	913.221
199.417	13.958	1225.682	912.574
200.432	13.981	1225.027	912.129
201.446	14.086	1223.814	911.722
202.461	14.100	1222.849	911.001
203.475	14.043	1222.089	910.043
204.490	14.031	1220.782	908.924
205.504	13.948	1219.853	907.695
206.519	13.985	1218.670	906.937
207.534	13.956	1217.504	905.830
208.548	14.035	1216.005	905.066
209.563	14.114	1215.425	904.985
210.577	14.025	1214.442	903.689
211.592	14.081	1213.553	903.249
212.607	14.176	1212.596	902.976
213.621	14.170	1211.889	902.333
214.636	14.150	1211.074	901.538
215.650	14.174	1210.111	900.875
216.665	14.248	1208.815	900.230
217.680	14.317	1208.131	900.014
218.694	14.234	1207.628	899.108
219.709	14.157	1206.776	897.984
220.723	14.316	1205.988	898.172
221.738	14.352	1204.958	897.523
222.753	14.284	1204.333	896.611
223.767	14.246	1203.229	895.501
224.782	14.417	1202.821	896.041
225.796	14.384	1202.149	895.284
226.811	14.425	1201.564	894.987
227.826	14.310	1201.250	894.058
228.840	14.419	1200.010	893.642
229.855	14.472	1199.412	893.400
230.869	14.298	1198.761	891.903
231.884	14.259	1197.845	890.936
232.899	14.361	1196.652	890.512
233.913	14.266	1196.572	889.868
234.928	14.290	1195.530	889.142
235.942	14.308	1195.046	888.801
236.957	14.353	1193.666	887.936
237.972	14.424	1193.348	887.996
238.986	14.450	1192.642	887.532
240.001	14.444	1191.942	886.901
241.015	14.335	1191.074	885.598
242.030	14.369	1190.120	884.992
243.045	14.481	1189.171	884.802
244.059	14.396	1188.956	884.111
245.074	14.540	1187.251	883.527
246.088	14.512	1186.866	883.014
247.103	14.525	1186.324	882.603
248.117	14.620	1185.365	882.315
249.132	14.583	1184.657	881.514
250.147	14.663	1183.919	881.307
251.161	14.669	1182.907	880.506
252.176	14.792	1182.337	880.655
253.190	14.816	1181.652	880.190
254.205	14.864	1181.501	880.255
255.220	14.731	1181.133	879.205
256.234	14.832	1179.977	878.797
257.249	14.843	1179.077	878.104
258.263	14.798	1178.607	877.443
259.278	14.836	1177.676	876.868
260.293	14.881	1177.492	876.891
261.307	14.893	1176.519	876.154
262.322	15.044	1175.830	876.352
263.336	15.000	1175.285	875.635
264.351	15.052	1174.672	875.378
265.366	14.927	1174.034	874.169
266.380	14.978	1172.927	873.537
267.395	15.067	1172.348	873.493
268.409	14.961	1171.645	872.338
269.424	15.045	1170.711	872.003
270.439	15.096	1170.334	871.908
271.453	15.129	1169.258	871.203
272.468	14.991	1168.789	870.056
273.482	15.069	1167.795	869.646
274.497	15.031	1167.587	869.216
275.512	15.064	1166.444	868.461
276.526	15.087	1165.780	868.008
277.541	15.084	1165.193	867.481
278.555	15.083	1164.541	866.912
279.570	15.096	1163.801	866.352
280.585	15.311	1162.441	866.374
281.599	15.206	1161.663	865.173
282.614	15.210	1160.894	864.549
283.628	15.105	1159.991	863.256
284.643	15.054	1159.214	862.340
285.657	15.266	1157.899	862.374
286.672	15.309	1156.849	861.739
287.687	15.206	1156.191	860.641
288.701	15.298	1155.399	860.450
289.716	15.216	1154.772	859.483
290.730	15.191	1154.083	858.769
291.745	15.302	1153.490	858.820
292.760	15.410	1152.524	858.577
293.774	15.366	1152.131	857.985
294.789	15.478	1151.349	857.897
295.803	15.456	1150.530	857.098
296.818	15.367	1150.162	856.293
297.833	15.346	1149.506	855.624
298.847	15.320	1148.810	854.896
299.862	15.423	1147.792	854.587
300.876	15.519	1147.264	854.609
301.891	15.428	1146.518	853.514
302.906	15.478	1145.532	852.958
303.920	15.591	1144.706	852.842
304.935	15.635	1143.923	852.408
305.949	15.694	1143.673	852.444
306.964	15.729	1142.715	851.833
307.979	15.607	1141.843	850.488
308.993	15.667	1141.205	850.242
310.008	15.657	1140.542	849.619
311.022	15.662	1139.604	848.871
312.037	15.693	1138.792	848.350
313.052	15.689	1137.980	847.649
314.066	15.740	1136.809	846.956
315.081	15.651	1136.482	846.193
316.095	15.685	1135.228	845.357
317.110	15.636	1134.671	844.617
318.125	15.633	1133.944	843.987
319.139	15.615	1133.479	843.477
320.154	15.667	1132.624	843.028
321.168	15.700	1132.067	842.704
322.183	15.706	1131.473	842.215
323.197	15.701	1130.887	841.680
324.212	15.792	1129.813	841.262
325.227	15.795	1129.301	840.819
326.241	15.743	1129.182	840.397
327.256	15.754	1128.129	839.594
328.270	15.777	1127.009	838.803
329.285	15.735	1126.252	837.957
330.300	15.739	1125.518	837.352
331.314	15.785	1124.411	836.687
332.329	15.734	1123.621	835.770
333.343	15.784	1122.773	835.315
334.358	16.004	1121.390	835.302
335.373	15.990	1120.653	834.611
336.387	15.873	1119.778	833.306
337.402	15.974	1119.184	833.287
338.416	15.968	1118.605	832.754
339.431	15.940	1118.119	832.179
340.446	15.971	1117.467	831.775
341.460	16.120	1116.845	831.974
342.475	16.068	1115.679	830.777
343.489	16.177	1114.583	830.424
344.504	16.265	1113.513	829.984
345.519	16.172	1113.105	829.149
346.533	16.199	1112.164	828.508
347.548	16.153	1111.614	827.798
348.562	16.218	1110.865	827.484
349.577	16.127	1110.116	826.409
350.592	16.154	1109.328	825.884
351.606	16.242	1108.551	825.659
352.621	16.175	1107.925	824.793
353.635	16.111	1107.276	823.925
354.650	16.206	1106.631	823.834
355.665	16.136	1105.788	822.795
356.679	16.249	1104.880	822.596
357.694	16.274	1104.381	822.273
358.708	16.278	1103.797	821.784
359.723	16.306	1103.338	821.508
360.738	16.228	1102.451	820.396
361.752	16.385	1101.700	820.525
362.767	16.417	1101.374	820.368
363.781	16.403	1100.648	819.683
364.796	16.467	1099.696	819.216
365.810	16.481	1099.583	819.124
366.825	16.433	1098.878	818.294
367.840	16.457	1098.500	818.057
368.854	16.550	1097.775	817.895
369.869	16.492	1096.941	816.920
370.883	16.515	1096.177	816.392
371.898	16.575	1095.746	816.285
372.913	16.545	1094.888	815.431
373.927	16.570	1094.273	815.022
374.942	16.497	1093.796	814.241
375.956	16.518	1093.508	814.055
376.971	16.458	1092.618	813.032
377.986	16.580	1092.011	813.097
379.000	16.744	1091.809	813.660
380.015	16.741	1090.719	812.764
381.029	16.756	1090.069	812.279
382.044	16.700	1089.203	811.292
383.059	16.673	1089.027	810.961
384.073	16.736	1088.191	810.566
385.088	16.768	1087.485	810.122
386.102	16.780	1086.296	809.222
387.117	16.687	1085.109	807.826
388.132	16.832	1084.298	807.843
389.146	16.701	1083.575	806.605
390.161	16.700	1083.061	806.149
391.175	16.830	1081.980	805.889
392.190	16.966	1081.442	806.066
393.205	16.961	1080.642	805.372
394.219	16.842	1080.190	804.401
395.234	16.857	1079.043	803.547
396.248	16.935	1077.650	802.806
397.263	16.890	1076.589	801.734
398.278	16.863	1076.315	801.329
399.292	16.891	1075.403	800.713
400.307	16.818	1074.937	799.951
401.321	16.953	1073.682	799.583
402.336	16.915	1073.500	799.197
403.350	16.992	1072.733	798.917
404.365	16.950	1071.969	798.077
405.380	16.944	1071.467	797.606
406.394	16.977	1070.591	797.040
407.409	17.016	1069.760	796.532
408.423	17.120	1069.085	796.447
409.438	17.185	1068.270	796.074
410.453	17.167	1067.916	795.657
411.467	17.169	1066.947	794.875
412.482	17.259	1066.475	794.871
413.496	17.166	1065.938	793.968
414.511	17.247	1065.324	793.820
415.526	17.285	1064.419	793.248
416.540	17.287	1064.115	792.963
417.555	17.450	1063.317	793.059
418.569	17.438	1062.678	792.454
419.584	17.283	1062.620	791.618
420.599	17.395	1062.148	791.721
421.613	107.714	1330.921	1487.287
422.628	99.470	1370.031	1487.359
