DTS Sentinel unit serial number:	SN413079Multiplexer serial number:	ORYXHardware model number:	OX4-SRSoftware version number:	ORYX F/W v4.00 Oryx Data Collector v3.7.2.0data status	okinstallation	princeton_trtdifferential loss correction	single-endedforward channel	channel 2reverse channel	N/Adate	2019/09/17time	03:39:35forward acquisition time	60.00reverse acquisition time	0.00gamma	496.2192k internal	0.2326k external	0.2326temperature offset calibration	0.9974default loss term (dB/km)	0.3790temperature slope calibration	1.0000multiplexer offset coefficient	1.0000multiplexer slope coefficient	1.0000fibre end	0.00T internal ref (°C)	30.00T ext. ref 1 (°C)	0.13T ext. ref 2 (°C)	24.50length (m)	temperature (°C)	Stokes	anti-Stokes-747.200	404.463	-0.048	-0.102
-746.185	24.172	0.070	-0.058
-745.171	-143.663	-0.091	-0.009
-744.156	800.000	0.148	0.492
-743.142	188.385	-0.102	0.153
-742.127	-200.000	0.007	-0.149
-741.112	-53.416	0.155	-0.072
-740.098	-200.000	-0.019	0.361
-739.083	-200.000	0.002	0.052
-738.069	64.707	-0.086	-0.088
-737.054	74.975	-0.243	0.258
-736.039	55.074	-0.190	0.185
-735.025	-85.054	0.192	0.061
-734.010	-38.414	-0.091	0.049
-732.996	60.243	0.080	-0.080
-731.981	-200.000	0.046	0.219
-730.966	218.835	-0.079	-0.127
-729.952	83.652	0.101	-0.111
-728.937	-83.060	-0.478	-0.155
-727.923	-98.081	-0.136	-0.035
-726.908	241.737	0.094	0.158
-725.894	165.851	-0.314	-0.447
-724.879	58.004	0.211	0.208
-723.864	-14.627	0.102	0.066
-722.850	53.081	-0.105	-0.101
-721.835	-53.729	-0.220	0.101
-720.821	571.325	-0.033	-0.082
-719.806	800.000	0.062	-0.258
-718.791	-120.758	-0.133	0.023
-717.777	800.000	-0.039	-0.117
-716.762	-100.385	-0.036	0.009
-715.748	-200.000	-0.085	-0.423
-714.733	-156.196	0.308	-0.020
-713.718	-25.916	-0.137	0.081
-712.704	-148.919	-0.308	-0.025
-711.689	-179.087	-0.162	-0.004
-710.675	-110.532	0.179	0.037
-709.660	265.732	0.120	0.210
-708.645	-52.855	-0.031	0.014
-707.631	-23.944	-0.110	-0.066
-706.616	-23.780	0.281	0.169
-705.602	-58.626	0.171	-0.075
-704.587	553.700	0.053	0.129
-703.572	285.474	-0.270	0.489
-702.558	630.285	-0.011	-0.027
-701.543	6.787	-0.168	-0.126
-700.529	-21.487	0.211	0.130
-699.514	701.476	0.032	0.084
-698.499	7.357	0.087	-0.065
-697.485	-58.281	0.007	0.003
-696.470	106.526	0.146	-0.174
-695.456	-98.063	-0.249	-0.065
-694.441	-200.000	-0.005	-0.316
-693.426	140.509	0.117	0.156
-692.412	166.770	-0.094	0.135
-691.397	-200.000	-0.016	-0.298
-690.383	-200.000	-0.043	-0.355
-689.368	109.889	-0.172	0.207
-688.354	-200.000	-0.001	-0.023
-687.339	166.547	0.104	-0.149
-686.324	-89.596	0.361	0.107
-685.310	199.109	0.038	-0.059
-684.295	126.732	0.138	0.176
-683.281	-105.155	0.156	0.036
-682.266	-74.130	-0.180	0.065
-681.251	-200.000	-0.079	-0.360
-680.237	-200.000	-0.013	-0.215
-679.222	22.434	-0.064	0.052
-678.208	-63.377	0.371	0.154
-677.193	-16.561	-0.197	-0.126
-676.178	-16.140	-0.030	-0.019
-675.164	-60.256	-0.105	-0.045
-674.149	-5.196	0.092	-0.064
-673.135	-28.070	0.162	-0.094
-672.120	21.709	0.123	-0.101
-671.105	-2.816	-0.136	0.096
-670.091	405.712	-0.133	-0.281
-669.076	-100.169	-0.252	0.063
-668.062	-200.000	0.015	0.265
-667.047	800.000	0.089	0.307
-666.032	229.923	-0.032	0.053
-665.018	800.000	0.127	-0.435
-664.003	-61.731	0.411	0.173
-662.989	-200.000	0.022	-0.278
-661.974	800.000	0.011	-0.032
-660.959	106.395	-0.080	0.096
-659.945	-94.965	0.337	0.092
-658.930	-76.898	0.268	-0.094
-657.916	-200.000	0.000	0.042
-656.901	-163.519	0.247	0.012
-655.886	-38.462	0.243	0.129
-654.872	100.769	-0.111	-0.130
-653.857	74.580	0.048	-0.051
-652.843	-22.538	-0.399	0.243
-651.828	-148.506	-0.154	0.013
-650.814	-43.938	0.169	-0.086
-649.799	-22.507	-0.159	0.097
-648.784	601.443	-0.125	0.313
-647.770	-103.656	-0.265	-0.063
-646.755	60.316	-0.228	0.226
-645.741	-2.767	-0.180	0.126
-644.726	30.679	0.140	0.121
-643.711	44.202	-0.086	0.079
-642.697	-61.711	-0.107	-0.045
-641.682	-121.023	-0.217	-0.037
-640.668	370.145	-0.125	-0.253
-639.653	-200.000	0.011	0.073
-638.638	-48.851	0.248	0.119
-637.624	382.757	-0.043	0.089
-636.609	103.692	0.153	0.181
-635.595	800.000	-0.060	0.241
-634.580	217.963	-0.072	-0.116
-633.565	800.000	-0.084	-0.245
-632.551	-96.830	0.423	0.111
-631.536	32.458	0.259	0.225
-630.522	-200.000	0.047	0.219
-629.507	800.000	0.028	0.080
-628.492	800.000	0.034	-0.138
-627.478	800.000	0.100	-0.388
-626.463	82.932	-0.141	-0.154
-625.449	-128.745	-0.083	-0.012
-624.434	-15.592	0.103	0.066
-623.419	795.959	-0.095	0.263
-622.405	-65.609	0.307	-0.123
-621.390	-200.000	0.017	0.150
-620.376	22.919	0.306	-0.252
-619.361	6.591	-0.299	0.223
-618.346	182.908	0.187	-0.277
-617.332	-156.490	-0.053	0.003
-616.317	-112.603	-0.181	-0.036
-615.303	23.526	-0.248	0.205
-614.288	41.242	-0.054	-0.049
-613.273	-47.579	0.046	-0.022
-612.259	-200.000	-0.003	-0.075
-611.244	-200.000	0.008	0.112
-610.230	21.546	-0.087	-0.071
-609.215	-143.735	-0.182	0.017
-608.201	-200.000	-0.040	-0.215
-607.186	272.706	-0.087	-0.154
-606.171	297.298	-0.113	-0.208
-605.157	92.844	0.240	-0.271
-604.142	12.281	0.100	0.077
-603.128	-200.000	-0.002	-0.268
-602.113	-149.320	-0.420	0.034
-601.098	48.021	0.228	-0.214
-600.084	167.829	0.303	-0.433
-599.069	-64.612	0.079	0.032
-598.055	800.000	-0.086	0.360
-597.040	149.046	0.097	-0.131
-596.025	-200.000	-0.032	-0.192
-595.011	-200.000	-0.006	0.397
-593.996	-200.000	-0.037	0.210
-592.982	292.575	-0.095	-0.174
-591.967	-200.000	-0.051	0.331
-590.952	-5.784	0.243	0.167
-589.938	65.899	-0.371	-0.378
-588.923	-72.258	0.358	-0.133
-587.909	-63.041	0.116	0.048
-586.894	-110.720	0.306	0.063
-585.879	-66.020	-0.222	-0.089
-584.865	-18.722	-0.130	-0.081
-583.850	-200.000	-0.004	-0.073
-582.836	800.000	0.084	-0.322
-581.821	58.320	-0.103	-0.101
-580.806	34.728	0.128	-0.112
-579.792	55.387	-0.141	-0.137
-578.777	-48.582	-0.154	0.074
-577.763	-118.079	-0.032	-0.006
-576.748	-41.786	0.069	-0.035
-575.733	184.124	0.148	0.220
-574.719	-200.000	-0.001	0.011
-573.704	-96.852	0.376	-0.099
-572.690	-26.155	0.222	0.131
-571.675	-112.389	-0.520	-0.104
-570.661	800.000	0.031	0.119
-569.646	-63.291	-0.058	0.024
-568.631	227.002	0.138	-0.224
-567.617	-12.201	-0.102	-0.067
-566.602	-78.475	0.044	-0.015
-565.588	312.608	0.160	-0.302
-564.573	-63.056	0.345	-0.142
-563.558	-200.000	-0.039	-0.293
-562.544	140.009	0.115	0.152
-561.529	169.342	-0.180	0.257
-560.515	-200.000	0.007	0.280
-559.500	-156.614	0.443	-0.028
-558.485	-101.979	0.220	-0.053
-557.471	-92.499	-0.147	0.041
-556.456	129.439	0.146	-0.187
-555.442	-200.000	0.001	-0.250
-554.427	-200.000	-0.005	0.037
-553.412	-110.079	0.261	-0.055
-552.398	-135.894	0.420	0.050
-551.383	-193.650	0.097	-0.001
-550.369	-108.924	0.084	0.018
-549.354	-128.305	-0.372	-0.053
-548.339	225.023	0.013	0.021
-547.325	-200.000	-0.017	-0.182
-546.310	104.135	0.082	-0.097
-545.296	-27.304	0.117	-0.068
-544.281	800.000	-0.103	-0.322
-543.266	-200.000	0.033	0.173
-542.252	56.157	-0.054	0.052
-541.237	-106.870	-0.252	0.056
-540.223	-67.170	-0.156	-0.061
-539.208	683.367	-0.087	-0.228
-538.193	-109.454	0.230	-0.049
-537.179	-23.421	0.105	0.063
-536.164	66.980	0.071	0.072
-535.150	-166.945	0.295	-0.012
-534.135	-200.000	0.010	-0.139
-533.121	212.936	0.135	-0.213
-532.106	302.919	-0.069	0.128
-531.091	800.000	0.037	-0.115
-530.077	90.260	0.155	0.174
-529.062	800.000	0.033	-0.097
-528.048	-136.820	-0.038	-0.004
-527.033	-94.544	-0.218	-0.059
-526.018	800.000	0.125	-0.490
-525.004	-1.379	0.111	-0.078
-523.989	-166.271	-0.259	-0.011
-522.975	108.664	0.029	-0.035
-521.960	155.310	-0.110	0.151
-520.945	-85.429	0.185	-0.057
-519.931	-123.001	-0.475	0.076
-518.916	-152.205	0.048	0.003
-517.902	-54.415	-0.239	0.108
-516.887	-200.000	0.029	0.200
-515.872	185.001	-0.118	-0.175
-514.858	-138.110	-0.078	-0.009
-513.843	49.057	0.232	0.218
-512.829	-200.000	-0.029	-0.203
-511.814	-200.000	-0.043	-0.440
-510.799	-39.480	0.249	0.131
-509.785	-82.215	-0.094	-0.030
-508.770	-184.934	0.229	0.004
-507.756	-200.000	-0.000	-0.149
-506.741	154.752	0.192	0.263
-505.726	791.272	-0.013	-0.035
-504.712	239.712	-0.112	0.186
-503.697	-200.000	0.013	0.185
-502.683	-200.000	-0.034	0.340
-501.668	65.105	0.112	0.113
-500.653	752.997	-0.022	0.061
-499.639	-121.295	-0.098	-0.016
-498.624	800.000	0.185	0.536
-497.610	-106.269	-0.257	-0.057
-496.595	-53.688	-0.324	-0.148
-495.581	-131.602	0.509	0.067
-494.566	800.000	-0.033	0.132
-493.551	-57.630	0.238	0.104
-492.537	800.000	-0.030	-0.124
-491.522	-95.800	0.101	0.027
-490.508	33.591	-0.189	0.164
-489.493	261.154	-0.033	0.058
-488.478	428.225	0.073	0.157
-487.464	259.711	0.056	0.096
-486.449	-80.998	-0.329	-0.109
-485.435	800.000	0.039	0.169
-484.420	526.415	-0.087	-0.205
-483.405	-162.414	-0.208	0.010
-482.391	101.349	0.160	-0.186
-481.376	-140.334	0.226	-0.024
-480.362	140.249	0.054	-0.072
-479.347	25.309	-0.200	-0.166
-478.332	-67.605	0.055	-0.022
-477.318	-30.879	0.287	-0.162
-476.303	-0.334	0.212	0.150
-475.289	-99.565	-0.291	0.073
-474.274	800.000	0.038	-0.104
-473.259	347.734	0.119	0.233
-472.245	211.532	-0.190	0.299
-471.230	378.924	0.097	0.198
-470.216	-44.852	0.125	0.062
-469.201	106.509	0.076	-0.090
-468.186	-64.854	0.373	0.150
-467.172	-200.000	0.030	-0.252
-466.157	-200.000	-0.028	-0.163
-465.143	11.192	0.129	-0.098
-464.128	-200.000	-0.018	-0.177
-463.113	18.105	-0.103	0.082
-462.099	29.351	0.134	0.114
-461.084	146.069	0.053	-0.071
-460.070	-7.652	0.163	0.110
-459.055	800.000	0.100	-0.310
-458.040	236.460	-0.170	-0.280
-457.026	-200.000	-0.007	-0.068
-456.011	800.000	-0.036	-0.155
-454.997	585.939	-0.051	-0.126
-453.982	139.643	-0.153	-0.201
-452.968	800.000	-0.029	0.108
-451.953	247.361	-0.190	0.320
-450.938	225.206	-0.134	-0.217
-449.924	32.087	-0.062	-0.054
-448.909	98.962	-0.100	0.115
-447.895	115.154	0.291	0.354
-446.880	-118.974	-0.255	0.045
-445.865	-158.104	-0.215	-0.013
-444.851	52.540	0.165	-0.157
-443.836	324.852	0.054	-0.103
-442.822	-200.000	0.020	-0.219
-441.807	-12.877	-0.243	-0.158
-440.792	800.000	-0.053	-0.227
-439.778	125.809	-0.101	-0.128
-438.763	-200.000	0.013	0.349
-437.749	-100.324	0.197	0.049
-436.734	-129.853	-0.278	0.038
-435.719	800.000	-0.040	-0.159
-434.705	-149.924	-0.361	-0.028
-433.690	70.247	-0.172	0.177
-432.676	-200.000	0.060	0.318
-431.661	107.418	-0.211	-0.250
-430.646	-200.000	0.023	0.205
-429.632	247.423	0.034	0.057
-428.617	-200.000	-0.001	0.021
-427.603	183.388	-0.002	-0.004
-426.588	-39.741	0.384	-0.200
-425.573	35.465	0.159	0.139
-424.559	78.049	-0.173	0.184
-423.544	197.182	-0.101	-0.153
-422.530	-124.212	0.171	-0.027
-421.515	-150.139	-0.216	-0.017
-420.500	152.513	-0.073	-0.099
-419.486	800.000	-0.058	-0.241
-418.471	-58.450	0.030	0.013
-417.457	76.447	-0.107	0.113
-416.442	-23.961	0.362	0.216
-415.428	-200.000	0.028	0.175
-414.413	-14.183	-0.109	0.070
-413.398	-25.538	0.353	0.208
-412.384	-200.000	-0.040	0.190
-411.369	296.222	-0.098	0.179
-410.355	-90.364	-0.255	-0.074
-409.340	-128.267	0.222	0.031
-408.325	-39.027	-0.208	-0.109
-407.311	-43.890	-0.122	0.061
-406.296	800.000	0.144	0.599
-405.282	59.632	0.136	0.133
-404.267	800.000	-0.052	0.183
-403.252	-198.189	0.138	0.001
-402.238	-170.650	0.455	-0.016
-401.223	22.960	0.175	0.143
-400.209	-18.131	0.184	0.115
-399.194	-85.940	-0.142	0.044
-398.179	-185.098	-0.308	0.005
-397.165	788.519	0.029	0.079
-396.150	-152.004	-0.215	0.016
-395.136	-7.364	-0.246	-0.166
-394.121	-52.805	0.303	-0.139
-393.106	-200.000	0.008	-0.038
-392.092	93.446	-0.218	0.245
-391.077	-59.477	-0.297	0.127
-390.063	-155.983	-0.015	0.001
-389.048	-115.706	0.190	0.036
-388.033	567.901	-0.080	0.192
-387.019	-17.134	-0.022	0.014
-386.004	-103.618	-0.205	0.048
-384.990	13.346	-0.295	0.227
-383.975	23.877	-0.262	-0.215
-382.960	130.754	-0.190	-0.242
-381.946	800.000	0.128	-0.391
-380.931	193.550	0.179	-0.269
-379.917	282.949	-0.095	-0.169
-378.902	21.125	0.158	-0.127
-377.888	467.300	0.145	0.322
-376.873	-145.671	-0.084	-0.008
-375.858	800.000	0.034	-0.124
-374.844	76.580	-0.253	-0.267
-373.829	116.208	-0.204	-0.249
-372.815	51.423	-0.247	0.233
-371.800	-14.154	0.157	-0.101
-370.785	-64.870	0.124	0.050
-369.771	-13.624	-0.291	-0.187
-368.756	-42.868	-0.290	-0.146
-367.742	-68.124	-0.226	0.087
-366.727	-83.325	-0.218	-0.069
-365.712	543.736	-0.136	0.323
-364.698	-146.962	-0.181	0.015
-363.683	86.898	0.303	-0.332
-362.669	724.465	-0.086	-0.226
-361.654	107.313	0.108	-0.128
-360.639	-38.139	-0.067	-0.036
-359.625	-79.267	-0.210	-0.071
-358.610	-52.695	-0.493	0.226
-357.596	102.018	0.270	-0.313
-356.581	-197.455	-0.369	0.002
-355.566	-181.127	0.259	-0.005
-354.552	99.120	0.253	0.291
-353.537	800.000	0.112	0.356
-352.523	-99.778	0.129	0.032
-351.508	700.710	-0.128	0.335
-350.493	98.405	-0.140	0.161
-349.479	-58.092	-0.184	0.080
-348.464	-200.000	-0.025	-0.292
-347.450	645.112	-0.120	0.303
-346.435	-200.000	-0.032	-0.258
-345.420	-135.665	-0.042	-0.005
-344.406	800.000	-0.043	-0.143
-343.391	-44.481	-0.272	-0.135
-342.377	-107.698	-0.314	0.068
-341.362	-123.278	0.085	-0.013
-340.348	-2.831	-0.217	0.151
-339.333	190.406	-0.082	-0.122
-338.318	-23.945	0.184	-0.109
-337.304	11.912	-0.272	0.208
-336.289	-111.441	0.314	-0.064
-335.275	-11.341	-0.169	-0.111
-334.260	-163.957	0.184	0.009
-333.245	-200.000	-0.026	-0.220
-332.231	-200.000	0.003	-0.053
-331.216	-12.919	-0.155	-0.100
-330.202	-112.040	-0.260	-0.052
-329.187	7.380	-0.144	0.107
-328.172	800.000	0.049	-0.145
-327.158	-14.043	-0.266	0.170
-326.143	-171.452	-0.267	-0.009
-325.129	-58.160	0.136	-0.059
-324.114	-79.551	-0.351	0.118
-323.099	-200.000	0.008	0.062
-322.085	-200.000	0.015	0.115
-321.070	-75.221	0.274	0.097
-320.056	31.623	-0.314	-0.268
-319.041	245.117	-0.082	-0.136
-318.026	-200.000	-0.031	-0.152
-317.012	271.016	0.073	-0.128
-315.997	-200.000	0.026	0.359
-314.983	800.000	0.046	-0.190
-313.968	-106.357	0.407	-0.090
-312.953	800.000	-0.057	-0.199
-311.939	-53.592	-0.444	0.201
-310.924	800.000	-0.096	0.271
-309.910	800.000	-0.031	0.108
-308.895	-104.061	-0.262	-0.060
-307.880	193.773	-0.006	-0.008
-306.866	-200.000	-0.012	0.110
-305.851	22.756	-0.184	0.149
-304.837	79.498	0.293	-0.312
-303.822	800.000	-0.063	0.191
-302.807	-200.000	0.020	0.117
-301.793	-83.530	0.354	0.112
-300.778	-35.931	0.306	-0.164
-299.764	32.986	-0.120	-0.103
-298.749	-13.710	-0.123	0.079
-297.735	-114.605	0.220	-0.042
-296.720	-200.000	-0.029	0.170
-295.705	5.859	0.129	-0.095
-294.691	65.535	0.245	0.246
-293.676	6.350	-0.153	-0.112
-292.662	-119.210	0.163	0.028
-291.647	-96.441	0.223	0.058
-290.632	271.561	-0.078	-0.136
-289.618	-27.349	0.333	0.192
-288.603	384.489	-0.054	0.110
-287.589	-38.888	0.240	-0.125
-286.574	-97.041	0.257	-0.067
-285.559	-80.361	0.302	0.100
-284.545	10.135	0.136	0.103
-283.530	616.782	-0.140	0.347
-282.516	-85.498	-0.124	0.038
-281.501	800.000	0.077	0.256
-280.486	654.457	0.079	0.202
-279.472	18.753	0.025	-0.020
-278.457	663.454	-0.052	0.133
-277.443	-51.082	-0.139	0.065
-276.428	-108.075	-0.125	0.027
-275.413	99.732	0.327	0.375
-274.399	157.800	0.050	0.069
-273.384	-26.997	0.120	-0.069
-272.370	-3.042	0.360	-0.249
-271.355	273.936	-0.145	-0.253
-270.340	-60.553	0.147	0.062
-269.326	-16.597	-0.290	0.182
-268.311	-200.000	0.028	0.158
-267.297	95.671	0.191	0.216
-266.282	-166.511	-0.224	0.009
-265.267	800.000	0.118	-0.469
-264.253	86.561	-0.132	0.144
-263.238	36.358	0.114	0.099
-262.224	60.645	0.058	-0.057
-261.209	-192.009	0.304	-0.003
-260.195	-28.576	0.115	-0.066
-259.180	-146.447	-0.075	0.006
-258.165	90.915	-0.139	0.154
-257.151	-33.437	-0.177	0.097
-256.136	-21.961	-0.270	-0.162
-255.122	-139.409	-0.174	-0.018
-254.107	306.147	-0.070	-0.128
-253.092	-200.000	0.016	-0.167
-252.078	800.000	0.034	-0.103
-251.063	-69.280	-0.247	0.094
-250.049	-100.672	0.326	-0.080
-249.034	-200.000	0.004	-0.095
-248.019	106.100	-0.246	0.288
-247.005	444.335	-0.092	-0.199
-245.990	38.930	-0.093	-0.082
-244.976	29.774	0.186	0.157
-243.961	-47.148	-0.064	-0.031
-242.946	780.861	-0.074	0.200
-241.932	-38.269	0.158	-0.083
-240.917	-200.000	-0.063	0.431
-239.903	10.553	0.271	0.204
-238.888	530.769	0.191	0.446
-237.873	-116.192	-0.085	-0.016
-236.859	-89.441	-0.200	-0.058
-235.844	777.149	0.020	-0.054
-234.830	-200.000	0.031	0.256
-233.815	-54.299	-0.110	-0.049
-232.800	800.000	0.091	0.317
-231.786	213.202	-0.226	0.353
-230.771	104.525	0.140	-0.162
-229.757	-13.640	0.226	0.145
-228.742	756.843	0.071	-0.189
-227.727	-76.859	0.252	0.087
-226.713	-172.465	0.130	0.004
-225.698	-72.787	-0.078	0.029
-224.684	800.000	0.110	-0.373
-223.669	-115.399	0.180	-0.034
-222.655	-158.287	0.300	-0.017
-221.640	51.818	0.051	-0.048
-220.625	46.080	0.142	0.130
-219.611	-200.000	-0.045	0.341
-218.596	-37.284	0.280	-0.148
-217.582	-200.000	-0.065	-0.472
-216.567	424.747	-0.127	0.271
-215.552	394.147	-0.082	0.170
-214.538	255.951	-0.243	-0.411
-213.523	-3.633	0.300	-0.206
-212.509	800.000	0.054	-0.231
-211.494	559.981	-0.074	0.177
-210.479	-55.429	0.096	0.042
-209.465	-74.421	-0.257	-0.092
-208.450	88.894	0.149	-0.164
-207.436	-48.495	-0.069	0.033
-206.421	800.000	-0.005	0.015
-205.406	91.500	0.132	-0.146
-204.392	800.000	0.032	-0.117
-203.377	800.000	0.108	-0.298
-202.363	49.175	0.100	0.093
-201.348	-111.311	-0.217	-0.044
-200.333	-102.710	0.259	-0.061
-199.319	377.137	0.115	0.231
-198.304	-113.891	0.044	0.009
-197.290	-200.000	0.011	-0.102
-196.275	-82.879	-0.248	0.079
-195.260	800.000	0.097	0.295
-194.246	-200.000	-0.031	0.200
-193.231	-132.485	-0.225	-0.029
-192.217	-53.754	0.343	-0.154
-191.202	90.239	0.254	-0.280
-190.187	800.000	0.137	0.466
-189.173	-67.875	0.081	0.031
-188.158	-200.000	0.038	-0.223
-187.144	225.895	-0.048	0.077
-186.129	71.277	0.158	0.162
-185.114	16.980	-0.200	0.156
-184.100	-24.751	-0.135	-0.079
-183.085	-59.675	0.117	0.049
-182.071	800.000	0.060	-0.199
-181.056	-200.000	-0.005	-0.029
-180.042	351.148	0.025	0.049
-179.027	205.673	-0.161	-0.247
-178.012	800.000	-0.020	0.056
-176.998	-200.000	0.031	0.352
-175.983	-20.720	-0.325	0.197
-174.969	-9.382	0.058	0.038
-173.954	-69.213	-0.137	0.052
-172.939	-12.847	-0.100	-0.064
-171.925	-70.166	0.082	0.031
-170.910	240.651	0.105	-0.172
-169.896	-19.153	0.170	0.104
-168.881	-200.000	-0.008	-0.114
-167.866	17.446	0.083	-0.065
-166.852	800.000	-0.101	-0.366
-165.837	-35.876	-0.142	0.076
-164.823	-77.594	0.445	-0.152
-163.808	-139.442	-0.144	0.015
-162.793	96.622	-0.189	-0.213
-161.779	471.613	0.109	-0.241
-160.764	-89.657	0.096	0.028
-159.750	33.139	0.273	-0.233
-158.735	-101.445	-0.417	0.100
-157.720	-32.512	-0.234	-0.129
-156.706	-200.000	-0.027	0.194
-155.691	249.556	-0.094	-0.157
-154.677	-200.000	-0.029	-0.310
-153.662	-79.290	0.269	0.090
-152.647	-167.420	-0.197	-0.008
-151.633	-9.144	0.100	0.066
-150.618	26.666	-0.156	0.129
-149.604	-19.563	-0.349	0.213
-148.589	-200.000	-0.020	-0.241
-147.574	-119.216	0.288	-0.049
-146.560	-200.000	0.010	-0.136
-145.545	-200.000	-0.017	-0.316
-144.531	-200.000	0.003	0.438
-143.516	-140.821	0.391	-0.040
-142.502	-53.710	-0.249	0.112
-141.487	-102.255	-0.341	-0.081
-140.472	-200.000	0.004	-0.023
-139.458	-200.000	0.000	0.276
-138.443	800.000	-0.072	-0.296
-137.429	-19.513	-0.247	0.151
-136.414	132.799	-0.084	0.106
-135.399	-72.359	0.388	-0.142
-134.385	149.655	0.118	0.157
-133.370	-84.746	-0.150	0.046
-132.356	127.313	0.133	-0.166
-131.341	90.365	0.149	0.164
-130.326	800.000	0.007	0.021
-129.312	-103.335	0.166	-0.038
-128.297	-9.220	0.263	-0.173
-127.283	-40.361	0.253	-0.129
-126.268	107.736	0.091	0.107
-125.253	-141.725	-0.254	-0.025
-124.239	-137.730	-0.131	-0.014
-123.224	-140.817	-0.353	-0.036
-122.210	-9.828	-0.159	0.104
-121.195	800.000	-0.115	0.426
-120.180	-200.000	0.006	0.185
-119.166	-87.566	0.389	-0.116
-118.151	-74.812	-0.311	-0.110
-117.137	146.352	0.144	0.190
-116.122	-179.278	-0.220	0.005
-115.107	-200.000	0.014	0.307
-114.093	-200.000	-0.004	-0.040
-113.078	87.797	-0.057	0.062
-112.064	-196.209	0.116	0.001
-111.049	72.482	0.089	-0.091
-110.034	-88.761	0.113	0.033
-109.020	-200.000	0.123	0.541
-108.005	-84.831	0.541	0.167
-106.991	127.746	-0.072	-0.090
-105.976	74.234	-0.320	-0.330
-104.962	132.292	0.269	0.340
-103.947	102.168	0.252	0.290
-102.932	80.225	-0.178	0.188
-101.918	95.757	-0.230	-0.258
-100.903	-139.361	0.481	0.051
-99.889	-186.934	0.301	-0.004
-98.874	610.469	0.168	-0.412
-97.859	-126.532	0.235	-0.034
-96.845	-200.000	0.013	0.291
-95.830	-200.000	0.027	0.200
-94.816	-122.828	0.120	-0.019
-93.801	-200.000	0.029	-0.157
-92.786	-87.454	0.155	0.046
-91.772	81.571	0.033	0.035
-90.757	800.000	-0.088	0.285
-89.743	-49.161	-0.229	0.108
-88.728	-32.205	0.100	0.055
-87.713	-34.280	0.102	0.055
-86.699	-9.315	0.273	-0.179
-85.684	-75.034	-0.087	0.030
-84.670	186.271	-0.045	-0.066
-83.655	-67.371	-0.162	0.063
-82.640	800.000	0.028	-0.102
-81.626	-200.000	-0.022	0.156
-80.611	534.443	0.090	-0.210
-79.597	6.147	-0.121	0.088
-78.582	-200.000	-0.018	0.156
-77.567	-200.000	-0.035	0.202
-76.553	-74.357	0.553	0.196
-75.538	-5.115	0.082	-0.056
-74.524	618.574	0.092	0.227
-73.509	142.352	-0.060	0.078
-72.494	107.076	0.121	-0.141
-71.480	-200.000	0.008	0.127
-70.465	-183.900	-0.113	-0.002
-69.451	206.370	0.043	0.066
-68.436	38.524	-0.172	0.151
-67.422	29.036	0.159	-0.132
-66.407	-200.000	-0.029	-0.261
-65.392	-43.161	-0.269	-0.134
-64.378	278.928	0.126	-0.220
-63.363	800.000	0.124	-0.384
-62.349	132.079	0.207	0.262
-61.334	32.879	-0.951	-0.808
-60.319	136.409	0.505	0.646
-59.305	800.000	-0.280	-1.149
-58.290	260.140	0.707	1.199
-57.276	800.000	0.668	1.948
-56.261	-200.000	106.435	579.160
-55.246	458.999	1459.725	3187.743
-54.232	148.522	2651.610	3515.422
-53.217	100.802	2291.644	2614.443
-52.203	39.113	1904.904	1672.015
-51.188	33.292	1693.094	1441.852
-50.173	30.607	1649.432	1384.655
-49.159	48.372	1701.685	1563.394
-48.144	49.270	1717.331	1584.499
-47.130	32.777	1675.885	1423.084
-46.115	30.061	1661.459	1390.428
-45.100	29.923	1656.807	1385.453
-44.086	29.912	1654.085	1383.033
-43.071	29.968	1651.138	1380.935
-42.057	29.865	1648.721	1378.093
-41.042	29.889	1647.260	1376.995
-40.027	29.886	1644.974	1375.006
-39.013	29.904	1642.912	1373.366
-37.998	29.851	1641.546	1371.776
-36.984	29.837	1640.352	1370.618
-35.969	30.083	1638.470	1370.808
-34.954	30.073	1636.786	1369.270
-33.940	29.986	1635.390	1367.410
-32.925	30.023	1633.813	1366.311
-31.911	29.997	1631.783	1364.364
-30.896	30.007	1630.070	1362.950
-29.881	29.975	1628.730	1361.545
-28.867	30.057	1626.465	1360.198
-27.852	30.149	1625.202	1359.759
-26.838	30.015	1623.973	1357.699
-25.823	29.984	1623.020	1356.618
-24.809	30.008	1621.754	1355.683
-23.794	29.995	1620.117	1354.164
-22.779	29.999	1618.358	1352.669
-21.765	29.989	1616.474	1350.968
-20.750	29.992	1614.952	1349.668
-19.736	30.045	1613.405	1348.709
-18.721	30.036	1612.446	1347.782
-17.706	30.025	1611.175	1346.588
-16.692	30.004	1609.597	1345.066
-15.677	30.006	1608.189	1343.850
-14.663	30.062	1606.662	1342.923
-13.648	30.057	1605.389	1341.774
-12.633	29.902	1604.140	1339.550
-11.619	30.003	1602.218	1338.621
-10.604	29.983	1601.017	1337.422
-9.590	30.055	1599.659	1336.758
-8.575	30.061	1598.302	1335.610
-7.560	30.063	1596.989	1334.478
-6.546	30.008	1596.190	1333.360
-5.531	30.014	1595.423	1332.707
-4.517	30.042	1594.098	1331.749
-3.502	29.981	1592.729	1330.119
-2.487	30.117	1591.604	1330.097
-1.473	29.685	1579.501	1316.856
-0.458	26.930	1559.793	1280.958
0.556	21.581	1561.034	1249.236
1.571	19.314	1584.711	1251.633
2.586	18.956	1597.773	1259.214
3.600	17.292	1545.693	1206.267
4.615	9.665	1436.178	1070.234
5.629	1.866	1370.979	971.975
6.644	0.224	1362.423	955.410
7.659	0.166	1361.002	953.964
8.673	0.064	1360.148	952.636
9.688	0.076	1358.396	951.402
10.702	-0.049	1354.583	947.854
11.717	3.704	1361.001	976.009
12.731	12.235	1374.235	1039.652
13.746	17.339	1381.276	1077.301
14.761	17.382	1379.665	1076.220
15.775	16.247	1377.026	1066.898
16.790	15.271	1374.926	1059.013
17.804	14.432	1372.286	1051.592
18.819	14.068	1371.305	1048.453
19.834	13.844	1369.550	1045.607
20.848	13.600	1368.453	1043.143
21.863	13.347	1367.040	1040.380
22.877	13.172	1366.041	1038.428
23.892	13.161	1365.273	1037.684
24.907	13.146	1364.071	1036.581
25.921	13.147	1363.200	1035.838
26.936	13.210	1362.272	1035.437
27.950	13.186	1361.504	1034.607
28.965	13.292	1360.845	1034.679
29.980	13.313	1359.529	1033.717
30.994	13.415	1358.462	1033.452
32.009	13.472	1357.672	1033.120
33.023	13.382	1357.242	1032.137
34.038	13.440	1355.469	1031.060
35.053	13.349	1354.693	1029.810
36.067	13.316	1353.464	1028.582
37.082	13.426	1352.006	1028.063
38.096	13.309	1351.488	1026.851
39.111	13.416	1350.681	1026.810
40.126	13.319	1349.815	1025.459
41.140	13.178	1349.400	1024.181
42.155	13.158	1349.227	1023.837
43.169	13.081	1348.825	1022.963
44.184	13.226	1348.426	1023.471
45.199	13.179	1347.856	1022.655
46.213	13.219	1347.051	1022.199
47.228	13.249	1346.405	1021.805
48.242	13.232	1345.188	1020.685
49.257	13.269	1343.914	1019.857
50.271	13.220	1342.608	1018.473
51.286	13.331	1341.076	1017.905
52.301	13.242	1340.110	1016.533
53.315	13.249	1338.993	1015.641
54.330	13.186	1337.922	1014.353
55.344	13.164	1337.188	1013.572
56.359	13.238	1336.069	1013.089
57.374	13.184	1334.841	1011.732
58.388	13.158	1334.426	1011.169
59.403	13.146	1333.337	1010.182
60.417	13.195	1332.362	1009.653
61.432	13.144	1331.916	1008.914
62.447	12.993	1330.833	1007.085
63.461	13.061	1329.876	1006.688
64.476	12.976	1328.482	1005.024
65.490	13.037	1327.432	1004.510
66.505	13.084	1325.902	1003.548
67.520	13.182	1324.456	1002.964
68.534	13.137	1323.849	1002.139
69.549	13.189	1322.288	1001.187
70.563	13.203	1321.281	1000.419
71.578	13.124	1320.315	999.121
72.593	13.072	1319.728	998.275
73.607	12.989	1318.690	996.902
74.622	13.002	1318.179	996.502
75.636	13.075	1316.938	995.916
76.651	13.042	1316.286	995.137
77.666	12.975	1316.037	994.461
78.680	13.067	1315.481	994.502
79.695	13.034	1314.200	993.248
80.709	13.104	1313.618	993.145
81.724	13.117	1313.007	992.672
82.739	13.149	1311.771	991.837
83.753	13.267	1310.598	991.572
84.768	13.321	1309.869	991.257
85.782	13.271	1308.392	989.753
86.797	13.353	1307.429	989.427
87.812	13.172	1306.411	987.491
88.826	13.271	1304.871	986.830
89.841	13.182	1304.344	985.811
90.855	13.442	1302.717	986.041
91.870	13.339	1302.006	984.805
92.884	13.415	1301.403	984.713
93.899	13.292	1300.392	983.129
94.914	13.455	1299.608	983.419
95.928	13.420	1298.830	982.535
96.943	13.410	1297.957	981.730
97.957	13.350	1296.816	980.421
98.972	13.374	1295.944	979.820
99.987	13.356	1294.866	978.811
101.001	13.390	1293.805	978.123
102.016	13.374	1292.492	976.946
103.030	13.395	1291.947	976.575
104.045	13.290	1291.324	975.397
105.060	13.282	1289.994	974.260
106.074	13.201	1288.793	972.790
107.089	13.098	1287.465	971.098
108.103	13.158	1286.102	970.333
109.118	13.192	1284.844	969.502
110.133	13.209	1283.271	968.328
111.147	13.237	1282.246	967.628
112.162	13.283	1281.156	966.990
113.176	13.219	1280.572	966.089
114.191	13.300	1279.277	965.502
115.206	13.340	1278.143	964.796
116.220	13.247	1276.843	963.183
117.235	13.216	1275.861	962.180
118.249	13.266	1274.789	961.575
119.264	13.199	1273.847	960.392
120.279	13.065	1273.281	959.104
121.293	13.193	1271.969	958.770
122.308	13.168	1270.961	957.782
123.322	13.204	1269.767	957.003
124.337	13.158	1268.836	955.950
125.352	13.214	1267.397	955.110
126.366	13.117	1266.579	953.846
127.381	13.164	1265.933	953.549
128.395	13.153	1264.769	952.524
129.410	13.186	1263.750	951.863
130.424	13.214	1262.976	951.352
131.439	13.244	1261.801	950.558
132.454	13.252	1261.182	950.051
133.468	13.234	1259.870	948.880
134.483	13.336	1258.966	948.696
135.497	13.226	1258.593	947.702
136.512	13.307	1256.910	946.813
137.527	13.372	1255.494	946.039
138.541	13.309	1254.118	944.557
139.556	13.398	1252.791	943.980
140.570	13.389	1251.929	943.195
141.585	13.342	1250.503	941.769
142.600	13.399	1249.162	941.000
143.614	13.414	1248.816	940.742
144.629	13.430	1248.132	940.234
145.643	13.424	1246.740	939.070
146.658	13.394	1245.355	937.774
147.673	13.359	1243.655	936.211
148.687	13.271	1242.734	934.936
149.702	13.269	1241.607	933.997
150.716	13.339	1239.787	932.940
151.731	13.359	1238.811	932.236
152.746	13.414	1237.689	931.616
153.760	13.378	1236.309	930.295
154.775	13.575	1235.015	930.347
155.789	13.418	1234.431	928.945
156.804	13.473	1233.119	928.181
157.819	13.539	1232.080	927.683
158.833	13.512	1231.415	926.951
159.848	13.598	1230.453	926.629
160.862	13.643	1229.538	926.107
161.877	13.512	1228.361	924.409
162.892	13.425	1227.369	923.097
163.906	13.466	1226.457	922.552
164.921	13.552	1225.113	921.943
165.935	13.484	1225.011	921.407
166.950	13.599	1223.859	921.098
167.964	13.576	1223.070	920.294
168.979	13.565	1222.527	919.739
169.994	13.618	1221.972	919.536
171.008	13.537	1220.999	918.274
172.023	13.621	1220.239	918.088
173.037	13.663	1219.654	917.798
174.052	13.577	1218.819	916.612
175.067	13.603	1217.294	915.530
176.081	13.513	1216.644	914.462
177.096	13.562	1215.665	913.914
178.110	13.576	1214.756	913.228
179.125	13.677	1212.977	912.367
180.140	13.691	1212.217	911.791
181.154	13.714	1210.760	910.741
182.169	13.764	1209.839	910.238
183.183	13.779	1208.611	909.317
184.198	13.706	1207.739	908.183
185.213	13.732	1206.416	907.251
186.227	13.840	1205.387	906.987
187.242	13.821	1204.278	905.968
188.256	13.957	1203.363	905.939
189.271	13.861	1202.680	904.826
190.286	13.718	1201.847	903.337
191.300	13.593	1200.766	901.764
192.315	13.614	1200.093	901.292
193.329	13.594	1199.555	900.701
194.344	13.638	1199.233	900.617
195.359	13.800	1198.096	900.567
196.373	13.793	1197.480	899.983
197.388	13.816	1197.407	899.975
198.402	13.921	1196.520	899.799
199.417	14.017	1195.745	899.653
200.432	14.041	1195.013	899.152
201.446	14.157	1194.227	899.110
202.461	14.110	1193.106	897.930
203.475	14.149	1192.321	897.470
204.490	14.164	1190.549	896.140
205.504	13.945	1190.096	894.542
206.519	13.964	1188.590	893.429
207.534	14.078	1187.250	892.955
208.548	14.070	1186.807	892.503
209.563	14.128	1185.720	891.914
210.577	14.165	1184.697	891.268
211.592	14.168	1184.005	890.685
212.607	14.172	1183.229	890.044
213.621	14.108	1182.714	889.235
214.636	14.134	1181.571	888.436
215.650	14.296	1180.346	888.298
216.665	14.276	1179.582	887.538
217.680	14.232	1178.669	886.539
218.694	14.264	1177.744	885.937
219.709	14.386	1176.955	885.915
220.723	14.209	1176.521	884.565
221.738	14.378	1175.619	884.708
222.753	14.278	1175.149	883.744
223.767	14.386	1174.352	883.639
224.782	14.360	1174.015	883.168
225.796	14.473	1173.293	883.147
226.811	14.487	1172.414	882.481
227.826	14.451	1171.714	881.688
228.840	14.472	1171.106	881.265
229.855	14.336	1170.626	880.103
230.869	14.379	1169.610	879.490
231.884	14.280	1168.717	878.216
232.899	14.316	1168.096	877.865
233.913	14.316	1167.407	877.269
234.928	14.283	1166.579	876.396
235.942	14.425	1165.495	876.250
236.957	14.404	1164.495	875.308
237.972	14.378	1164.030	874.748
238.986	14.401	1164.096	874.838
240.001	14.369	1162.800	873.622
241.015	14.335	1162.284	872.974
242.030	14.417	1161.299	872.590
243.045	14.570	1160.199	872.484
244.059	14.507	1159.490	871.544
245.074	14.656	1158.558	871.547
246.088	14.565	1157.718	870.364
247.103	14.710	1157.085	870.567
248.117	14.699	1156.551	870.030
249.132	14.784	1155.911	869.912
250.147	14.744	1155.500	869.317
251.161	14.784	1154.697	868.848
252.176	14.803	1153.601	868.041
253.190	14.862	1152.666	867.569
254.205	14.889	1152.486	867.496
255.220	14.829	1152.344	867.003
256.234	14.962	1151.495	866.977
257.249	14.942	1150.721	866.214
258.263	14.820	1150.483	865.325
259.278	14.848	1149.633	864.752
260.293	15.020	1148.456	864.683
261.307	14.999	1147.891	864.072
262.322	15.024	1147.285	863.665
263.336	14.989	1146.880	863.108
264.351	15.085	1146.459	863.209
265.366	15.154	1145.636	862.865
266.380	15.106	1144.785	861.900
267.395	15.153	1143.759	861.295
268.409	15.005	1143.233	860.061
269.424	15.187	1142.424	860.312
270.439	15.107	1141.743	859.310
271.453	15.164	1141.227	859.142
272.468	15.020	1140.404	857.708
273.482	14.989	1139.695	856.940
274.497	15.146	1138.954	857.109
275.512	15.104	1138.844	856.733
276.526	15.181	1138.057	856.462
277.541	15.152	1136.539	855.096
278.555	15.223	1135.896	854.900
279.570	15.135	1135.430	854.022
280.585	15.223	1134.668	853.825
281.599	15.302	1133.704	853.423
282.614	15.265	1132.629	852.353
283.628	15.241	1131.444	851.262
284.643	15.417	1130.327	851.237
285.657	15.372	1129.757	850.505
286.672	15.257	1129.103	849.359
287.687	15.215	1128.302	848.465
288.701	15.298	1127.687	848.349
289.716	15.307	1126.634	847.527
290.730	15.438	1125.593	847.332
291.745	15.424	1125.374	847.017
292.760	15.440	1124.570	846.421
293.774	15.353	1124.092	845.546
294.789	15.494	1123.463	845.712
295.803	15.421	1122.862	844.816
296.818	15.502	1122.179	844.631
297.833	15.487	1121.072	843.650
298.847	15.461	1120.588	843.082
299.862	15.407	1120.330	842.540
300.876	15.413	1119.778	842.083
301.891	15.518	1119.042	841.977
302.906	15.589	1117.953	841.442
303.920	15.571	1117.406	840.863
304.935	15.596	1116.842	840.491
305.949	15.688	1115.998	840.244
306.964	15.650	1115.321	839.470
307.979	15.630	1114.942	839.006
308.993	15.645	1113.920	838.240
310.008	15.725	1113.163	837.993
311.022	15.763	1112.184	837.373
312.037	15.697	1111.892	836.749
313.052	15.636	1110.981	835.685
314.066	15.708	1109.687	834.997
315.081	15.627	1109.136	834.106
316.095	15.659	1108.684	833.853
317.110	15.707	1107.365	833.024
318.125	15.636	1106.752	832.136
319.139	15.734	1106.112	832.066
320.154	15.670	1105.485	831.205
321.168	15.648	1105.189	830.800
322.183	15.719	1104.296	830.405
323.197	15.777	1103.855	830.291
324.212	15.662	1103.622	829.472
325.227	15.803	1102.492	829.245
326.241	15.951	1101.787	829.368
327.256	15.842	1101.165	828.291
328.270	15.773	1099.869	826.907
329.285	15.810	1099.114	826.447
330.300	15.726	1098.622	825.590
331.314	15.801	1097.591	825.110
332.329	15.796	1096.629	824.288
333.343	15.785	1095.837	823.569
334.358	15.868	1095.193	823.415
335.373	15.837	1094.563	822.720
336.387	15.884	1093.542	822.106
337.402	15.915	1092.916	821.714
338.416	16.012	1092.324	821.671
339.431	15.948	1091.540	820.694
340.446	16.077	1090.845	820.731
341.460	16.133	1090.069	820.345
342.475	16.037	1089.606	819.459
343.489	16.147	1088.212	818.870
344.504	16.281	1087.296	818.758
345.519	16.232	1086.660	817.970
346.533	16.198	1085.964	817.208
347.548	16.263	1085.263	816.925
348.562	16.333	1084.403	816.542
349.577	16.340	1083.311	815.683
350.592	16.244	1082.530	814.560
351.606	16.205	1082.313	814.136
352.621	16.170	1081.532	813.304
353.635	16.156	1080.884	812.678
354.650	16.238	1079.834	812.211
355.665	16.284	1079.270	811.941
356.679	16.352	1078.351	811.503
357.694	16.313	1077.971	810.956
358.708	16.322	1077.188	810.341
359.723	16.380	1076.745	810.213
360.738	16.331	1076.334	809.597
361.752	16.361	1075.781	809.254
362.767	16.430	1074.885	808.837
363.781	16.487	1074.675	808.879
364.796	16.487	1073.923	808.243
365.810	16.379	1073.675	807.467
366.825	16.603	1072.677	807.715
367.840	16.536	1072.253	807.006
368.854	16.649	1071.400	806.829
369.869	16.631	1071.069	806.424
370.883	16.592	1070.139	805.467
371.898	16.611	1068.994	804.626
372.913	16.685	1068.540	804.562
373.927	16.592	1068.163	803.768
374.942	16.657	1067.708	803.663
375.956	16.751	1067.025	803.520
376.971	16.685	1066.156	802.483
377.986	16.622	1066.026	802.018
379.000	16.795	1065.329	802.239
380.015	16.693	1065.015	801.452
381.029	16.793	1064.141	801.192
382.044	16.828	1063.461	800.778
383.059	16.794	1062.540	799.851
384.073	16.638	1062.271	798.844
385.088	16.858	1061.058	798.896
386.102	16.993	1059.743	798.470
387.117	16.848	1059.024	797.178
388.132	16.729	1058.665	796.275
389.146	16.874	1057.447	795.970
390.161	16.891	1056.721	795.434
391.175	16.828	1056.218	794.688
392.190	16.919	1055.346	794.388
393.205	16.979	1054.897	794.261
394.219	16.872	1054.158	793.136
395.234	17.035	1053.303	793.183
396.248	16.801	1052.047	791.074
397.263	16.884	1050.977	790.586
398.278	16.919	1050.419	790.261
399.292	16.848	1050.184	789.684
400.307	16.833	1049.518	789.045
401.321	16.930	1048.365	788.560
402.336	16.955	1047.705	788.106
403.350	16.965	1047.225	787.723
404.365	16.991	1046.687	787.368
405.380	17.149	1045.618	787.226
406.394	17.091	1044.838	786.300
407.409	16.978	1044.378	785.363
408.423	17.158	1043.630	785.564
409.438	17.087	1042.912	784.624
410.453	17.278	1042.531	785.150
411.467	17.219	1041.913	784.343
412.482	17.216	1041.371	783.853
413.496	17.152	1040.748	783.022
414.511	17.288	1040.112	783.101
415.526	17.502	1039.164	783.302
416.540	17.383	1038.884	782.473
417.555	17.351	1038.569	782.019
418.569	17.371	1037.586	781.302
419.584	17.444	1037.199	781.279
420.599	17.421	1036.599	780.650
421.613	102.861	1322.048	1467.508
422.628	94.282	1363.613	1467.586
