DTS Sentinel unit serial number:	SN413079Multiplexer serial number:	ORYXHardware model number:	OX4-SRSoftware version number:	ORYX F/W v4.00 Oryx Data Collector v3.7.2.0data status	okinstallation	princeton_trtdifferential loss correction	single-endedforward channel	channel 2reverse channel	N/Adate	2019/09/16time	00:03:35forward acquisition time	60.00reverse acquisition time	0.00gamma	496.2192k internal	0.2336k external	0.2336temperature offset calibration	0.9959default loss term (dB/km)	0.3790temperature slope calibration	1.0000multiplexer offset coefficient	1.0000multiplexer slope coefficient	1.0000fibre end	0.00T internal ref (°C)	27.81T ext. ref 1 (°C)	9.40T ext. ref 2 (°C)	21.78length (m)	temperature (°C)	Stokes	anti-Stokes-747.200	-188.760	-0.463	0.006
-746.185	-200.000	-0.076	0.417
-745.171	-120.914	0.120	0.020
-744.156	195.163	-0.061	-0.093
-743.142	380.099	-0.052	-0.107
-742.127	90.016	0.213	0.239
-741.112	147.938	-0.248	0.336
-740.098	46.939	0.172	0.161
-739.083	-128.449	-0.201	-0.029
-738.069	-69.709	0.327	-0.125
-737.054	140.328	0.194	-0.257
-736.039	-86.833	-0.314	0.096
-735.025	-118.581	0.360	-0.064
-734.010	-115.319	0.262	-0.050
-732.996	-95.034	-0.193	-0.052
-731.981	-111.304	-0.339	0.069
-730.966	800.000	-0.044	-0.157
-729.952	800.000	0.100	-0.336
-728.937	-121.980	-0.172	-0.028
-727.923	-13.953	0.159	-0.103
-726.908	282.123	0.038	0.068
-725.894	-200.000	-0.007	0.102
-724.879	-128.193	-0.267	0.038
-723.864	-95.597	0.249	0.067
-722.850	-88.294	-0.274	0.082
-721.835	-200.000	0.004	0.091
-720.821	-14.212	0.142	0.092
-719.806	-46.886	0.189	0.093
-718.791	144.285	-0.030	-0.041
-717.777	800.000	0.067	-0.188
-716.762	-118.878	0.200	0.035
-715.748	-55.451	-0.229	0.103
-714.733	800.000	-0.073	-0.217
-713.718	684.802	-0.127	-0.332
-712.704	-121.098	-0.081	-0.014
-711.689	800.000	-0.065	-0.192
-710.675	14.048	-0.294	-0.229
-709.660	-200.000	-0.029	0.152
-708.645	-146.388	-0.245	-0.021
-707.631	800.000	-0.054	-0.208
-706.616	411.352	-0.068	-0.144
-705.602	800.000	0.032	0.089
-704.587	170.648	-0.164	-0.235
-703.572	359.301	-0.108	-0.217
-702.558	130.010	-0.158	0.202
-701.543	-200.000	-0.025	-0.320
-700.529	-97.377	-0.153	0.040
-699.514	249.012	0.166	-0.282
-698.499	114.880	-0.060	-0.073
-697.485	-200.000	0.004	-0.232
-696.470	-200.000	0.011	-0.198
-695.456	36.151	0.186	-0.165
-694.441	800.000	-0.112	-0.329
-693.426	141.959	-0.169	0.225
-692.412	455.677	-0.046	-0.101
-691.397	-101.953	-0.245	0.059
-690.383	-200.000	0.009	-0.368
-689.368	-200.000	0.060	-0.383
-688.354	-23.480	-0.206	0.124
-687.339	-113.223	-0.306	-0.060
-686.324	-47.578	-0.140	0.068
-685.310	-139.292	-0.070	-0.008
-684.295	544.595	0.137	-0.328
-683.281	800.000	-0.114	-0.375
-682.266	-200.000	0.026	0.248
-681.251	141.199	-0.069	-0.091
-680.237	148.299	0.091	0.123
-679.222	-100.219	-0.311	-0.078
-678.208	-116.013	-0.271	0.051
-677.193	46.071	0.172	0.159
-676.178	356.937	0.091	-0.181
-675.164	243.974	0.077	0.129
-674.149	-191.163	-0.207	0.002
-673.135	800.000	0.076	-0.215
-672.120	98.187	0.143	-0.165
-671.105	-152.724	0.390	-0.028
-670.091	534.855	-0.096	-0.228
-669.076	-200.000	-0.027	0.234
-668.062	-156.705	-0.453	-0.028
-667.047	800.000	0.148	-0.472
-666.032	-200.000	0.020	0.307
-665.018	31.666	-0.106	-0.091
-664.003	-120.129	0.156	0.027
-662.989	-200.000	0.014	-0.114
-661.974	64.977	0.156	0.158
-660.959	42.137	-0.259	0.236
-659.945	-11.422	0.281	0.185
-658.930	-200.000	0.008	-0.066
-657.916	-200.000	0.001	-0.023
-656.901	-82.830	-0.260	-0.084
-655.886	539.029	-0.088	0.209
-654.872	14.454	0.148	0.116
-653.857	-6.837	-0.235	0.160
-652.843	-78.054	0.320	0.110
-651.828	-66.849	-0.257	-0.102
-650.814	769.468	0.076	0.207
-649.799	-70.182	0.118	-0.045
-648.784	-200.000	0.012	0.305
-647.770	189.337	-0.056	0.084
-646.755	664.434	-0.115	0.296
-645.741	-200.000	-0.025	-0.423
-644.726	-200.000	-0.070	-0.393
-643.711	-111.057	-0.316	0.065
-642.697	101.300	0.131	-0.152
-641.682	86.467	0.160	0.176
-640.668	-6.761	0.114	0.078
-639.653	-200.000	0.004	-0.248
-638.638	324.478	0.164	0.313
-637.624	800.000	0.031	0.130
-636.609	487.538	0.148	0.337
-635.595	110.002	-0.217	-0.261
-634.580	-179.609	0.267	-0.006
-633.565	-68.756	-0.153	0.059
-632.551	320.442	0.052	-0.098
-631.536	281.165	-0.060	-0.107
-630.522	800.000	0.072	0.244
-629.507	-138.014	0.057	-0.006
-628.492	-148.468	0.270	-0.022
-627.478	-117.075	0.162	-0.029
-626.463	184.128	-0.303	0.448
-625.449	171.847	-0.130	0.186
-624.434	-13.134	0.214	-0.139
-623.419	243.996	0.152	-0.255
-622.405	-165.829	-0.214	-0.009
-621.390	69.324	-0.138	0.142
-620.376	28.170	-0.277	0.234
-619.361	-71.948	-0.134	0.050
-618.346	-63.393	-0.149	-0.061
-617.332	-110.383	0.350	0.073
-616.317	79.123	-0.059	0.063
-615.303	40.698	-0.049	0.044
-614.288	-150.061	0.380	0.030
-613.273	-30.332	-0.259	-0.147
-612.259	347.299	0.070	0.137
-611.244	467.540	0.098	-0.219
-610.230	381.110	0.171	-0.351
-609.215	148.162	0.172	-0.231
-608.201	-200.000	0.000	-0.290
-607.186	-184.235	-0.285	-0.005
-606.171	226.819	-0.126	-0.204
-605.157	-200.000	-0.011	-0.089
-604.142	-200.000	0.018	0.432
-603.128	175.700	-0.380	-0.550
-602.113	-109.819	0.258	-0.054
-601.098	-200.000	-0.001	-0.259
-600.084	-18.940	0.312	-0.194
-599.069	-77.096	-0.103	0.036
-598.055	-10.476	-0.230	0.152
-597.040	358.563	-0.156	0.310
-596.025	-200.000	-0.006	0.374
-595.011	-124.419	-0.167	0.026
-593.996	-40.597	-0.308	0.159
-592.982	31.332	-0.157	0.134
-591.967	-114.158	-0.339	-0.065
-590.952	800.000	0.045	0.129
-589.938	51.894	0.251	-0.238
-588.923	-127.604	-0.225	-0.032
-587.909	82.389	0.143	-0.155
-586.894	800.000	-0.048	0.188
-585.879	-128.722	-0.222	-0.031
-584.865	-200.000	0.020	-0.091
-583.850	-200.000	0.004	0.037
-582.836	154.935	-0.205	-0.281
-581.821	-200.000	0.043	-0.494
-580.806	-74.679	0.272	0.098
-579.792	-52.418	-0.135	-0.062
-578.777	-200.000	-0.007	-0.162
-577.763	273.792	-0.076	0.134
-576.748	11.419	-0.065	0.050
-575.733	-18.334	0.179	-0.112
-574.719	-117.749	-0.274	-0.049
-573.704	800.000	-0.078	0.251
-572.690	111.372	-0.107	0.129
-571.675	-13.685	-0.032	-0.021
-570.661	-105.721	-0.117	0.026
-569.646	326.726	0.082	-0.157
-568.631	697.906	-0.029	0.077
-567.617	-125.485	0.238	-0.036
-566.602	-145.579	-0.124	0.011
-565.588	74.401	-0.127	0.133
-564.573	-139.756	0.113	0.012
-563.558	-200.000	0.052	-0.282
-562.544	39.317	0.277	0.248
-561.529	-130.553	-0.212	0.029
-560.515	123.155	0.213	0.266
-559.500	396.236	-0.026	-0.054
-558.485	-200.000	-0.017	0.207
-557.471	4.177	-0.114	0.083
-556.456	-55.609	-0.140	0.063
-555.442	-68.760	0.142	-0.055
-554.427	-29.504	-0.130	0.074
-553.412	-133.236	0.284	-0.036
-552.398	233.375	0.092	0.151
-551.383	-14.726	0.086	-0.055
-550.369	640.581	0.041	0.104
-549.354	75.269	-0.323	0.340
-548.339	149.450	-0.152	0.205
-547.325	109.446	-0.078	-0.093
-546.310	88.679	0.148	-0.164
-545.296	-200.000	0.023	-0.176
-544.281	42.576	-0.261	0.236
-543.266	110.216	-0.257	0.308
-542.252	-96.789	-0.105	-0.027
-541.237	20.302	0.134	0.108
-540.223	-111.941	-0.122	-0.025
-539.208	138.931	0.235	0.308
-538.193	-200.000	0.007	0.200
-537.179	11.979	0.202	-0.154
-536.164	315.946	-0.102	0.192
-535.150	-200.000	-0.067	0.330
-534.135	393.876	0.140	0.290
-533.121	-76.885	0.278	0.097
-532.106	627.304	0.109	-0.274
-531.091	-125.160	-0.258	0.039
-530.077	230.539	-0.056	-0.092
-529.062	-186.558	0.106	-0.001
-528.048	800.000	0.109	0.326
-527.033	-200.000	0.070	0.498
-526.018	-61.275	-0.263	0.110
-525.004	-41.264	-0.320	-0.164
-523.989	800.000	-0.069	0.261
-522.975	43.681	0.179	0.163
-521.960	-8.054	-0.315	0.212
-520.945	-33.510	-0.027	0.015
-519.931	474.101	-0.089	0.200
-518.916	30.269	-0.093	0.079
-517.902	-160.613	-0.203	0.011
-516.887	-37.233	-0.100	-0.053
-515.872	-200.000	-0.009	-0.156
-514.858	800.000	-0.016	-0.043
-513.843	151.531	-0.077	0.105
-512.829	-56.692	0.104	-0.046
-511.814	417.935	0.014	-0.030
-510.799	9.046	0.111	-0.083
-509.785	-16.336	-0.342	0.216
-508.770	-82.482	0.033	-0.011
-507.756	-200.000	0.036	-0.254
-506.741	3.303	0.113	-0.082
-505.726	166.578	0.031	0.043
-504.712	-33.803	0.141	0.077
-503.697	327.221	0.175	-0.333
-502.683	800.000	-0.024	0.102
-501.668	-165.581	0.277	-0.012
-500.653	-85.144	0.213	0.066
-499.639	800.000	-0.087	-0.290
-498.624	-51.193	-0.281	-0.131
-497.610	376.768	0.090	0.182
-496.595	-81.407	-0.402	-0.132
-495.581	-4.472	0.231	-0.159
-494.566	-38.226	0.282	0.148
-493.551	-17.310	0.129	-0.081
-492.537	16.982	-0.241	-0.189
-491.522	-200.000	0.096	0.498
-490.508	-90.120	0.289	-0.084
-489.493	-136.348	-0.231	0.027
-488.478	-46.085	0.320	-0.157
-487.464	-116.023	-0.322	-0.060
-486.449	-200.000	0.011	-0.206
-485.435	-178.126	0.358	-0.008
-484.420	-200.000	0.022	0.259
-483.405	-83.983	-0.150	-0.047
-482.391	87.632	-0.146	-0.161
-481.376	-161.059	-0.039	-0.002
-480.362	-200.000	0.019	-0.144
-479.347	-68.608	0.441	0.170
-478.332	-200.000	0.012	0.161
-477.318	-163.756	-0.240	0.011
-476.303	-152.114	0.339	0.024
-475.289	-100.417	0.110	-0.027
-474.274	242.754	-0.149	-0.248
-473.259	-200.000	-0.368	-0.002
-472.245	-1.976	-0.262	0.183
-471.230	800.000	-0.142	0.422
-470.216	-200.000	0.008	-0.042
-469.201	399.745	-0.087	-0.182
-468.186	-200.000	0.017	-0.193
-467.172	-200.000	0.039	0.396
-466.157	-200.000	-0.023	-0.141
-465.143	2.305	0.109	0.079
-464.128	-50.622	0.089	0.042
-463.113	42.610	-0.065	0.058
-462.099	-23.974	0.104	-0.062
-461.084	151.022	-0.112	-0.151
-460.070	56.601	0.045	0.043
-459.055	110.743	-0.155	0.185
-458.040	38.022	0.252	0.222
-457.026	-200.000	-0.051	0.225
-456.011	800.000	0.096	0.281
-454.997	69.077	-0.117	0.120
-453.982	-200.000	0.059	0.328
-452.968	-200.000	-0.010	-0.101
-451.953	-143.743	-0.191	-0.018
-450.938	-109.608	-0.117	0.025
-449.924	-70.554	-0.178	0.067
-448.909	-200.000	-0.002	0.177
-447.895	-106.328	-0.385	0.086
-446.880	-30.022	0.180	0.102
-445.865	-33.793	0.177	-0.097
-444.851	-151.489	-0.145	-0.011
-443.836	-200.000	0.016	0.084
-442.822	800.000	0.023	-0.068
-441.807	9.790	0.106	-0.080
-440.792	32.503	-0.166	0.143
-439.778	-82.280	-0.252	-0.082
-438.763	15.537	0.132	0.103
-437.749	62.406	0.212	-0.210
-436.734	144.113	0.389	-0.516
-435.719	-72.686	0.277	-0.101
-434.705	55.258	0.253	-0.243
-433.690	800.000	-0.041	0.137
-432.676	148.377	0.109	-0.146
-431.661	-200.000	-0.016	0.193
-430.646	-149.267	-0.237	0.019
-429.632	112.828	0.155	-0.187
-428.617	-200.000	0.033	-0.295
-427.603	-27.108	0.156	-0.090
-426.588	-65.050	0.269	-0.108
-425.573	15.111	-0.433	0.336
-424.559	-200.000	0.041	-0.320
-423.544	11.033	0.273	-0.207
-422.530	800.000	0.031	-0.108
-421.515	334.689	-0.112	0.215
-420.500	684.961	0.072	-0.187
-419.486	31.778	0.286	-0.244
-418.471	-200.000	0.018	-0.262
-417.457	-200.000	-0.022	-0.206
-416.442	-113.140	0.227	-0.044
-415.428	800.000	0.086	0.355
-414.413	-200.000	0.037	-0.195
-413.398	-17.985	-0.384	-0.239
-412.384	-101.018	-0.116	-0.028
-411.369	-200.000	0.005	0.100
-410.355	145.933	-0.192	-0.256
-409.340	29.210	0.137	-0.115
-408.325	84.838	0.245	-0.266
-407.311	-200.000	-0.024	0.157
-406.296	-55.684	0.346	0.153
-405.282	-200.000	-0.003	-0.219
-404.267	35.646	0.100	-0.087
-403.252	-200.000	0.010	0.074
-402.238	443.212	0.125	0.272
-401.223	800.000	-0.042	-0.120
-400.209	-104.742	0.154	-0.035
-399.194	-200.000	-0.007	0.098
-398.179	-37.589	-0.345	0.182
-397.165	-200.000	0.038	-0.277
-396.150	-200.000	0.009	-0.248
-395.136	86.222	-0.291	-0.317
-394.121	-148.209	0.021	0.002
-393.106	339.766	0.009	-0.018
-392.092	432.099	-0.103	-0.222
-391.077	-4.549	0.111	-0.076
-390.063	-59.027	0.065	-0.028
-389.048	37.415	-0.150	0.131
-388.033	171.698	0.028	0.039
-387.019	-200.000	0.004	-0.028
-386.004	-142.568	-0.266	-0.026
-384.990	-200.000	-0.003	0.118
-383.975	68.728	-0.066	0.067
-382.960	-95.564	-0.034	0.009
-381.946	-13.743	0.191	0.122
-380.931	-77.555	-0.045	0.015
-379.917	-144.837	0.443	0.040
-378.902	-33.169	-0.255	0.140
-377.888	800.000	0.022	-0.074
-376.873	138.482	-0.158	-0.206
-375.858	38.785	-0.121	0.107
-374.844	-145.504	-0.259	0.023
-373.829	-104.693	-0.171	-0.039
-372.815	140.681	0.296	-0.387
-371.800	16.495	-0.193	-0.151
-370.785	-200.000	-0.037	-0.264
-369.771	418.228	0.122	0.258
-368.756	-32.528	0.107	-0.059
-367.742	800.000	-0.210	0.623
-366.727	73.055	0.064	0.067
-365.712	37.356	-0.155	-0.136
-364.698	267.918	-0.109	-0.188
-363.683	-200.000	0.085	0.000
-362.669	-112.242	0.028	0.006
-361.654	195.136	-0.077	0.115
-360.639	363.466	-0.233	0.463
-359.625	113.322	0.139	0.167
-358.610	-200.000	0.074	0.353
-357.596	-190.245	-0.196	0.002
-356.581	-66.981	-0.518	-0.202
-355.566	-200.000	0.023	-0.302
-354.552	800.000	-0.097	-0.385
-353.537	338.498	0.110	0.212
-352.523	171.518	-0.043	-0.061
-351.508	-15.444	-0.139	-0.088
-350.493	-133.703	0.136	0.017
-349.479	-173.768	0.199	0.006
-348.464	800.000	0.100	-0.426
-347.450	288.888	0.118	-0.211
-346.435	234.694	-0.114	-0.186
-345.420	547.462	-0.098	-0.232
-344.406	-49.364	-0.081	-0.038
-343.391	107.178	0.095	-0.111
-342.377	113.775	-0.116	-0.139
-341.362	201.642	0.137	-0.209
-340.348	-164.697	0.360	-0.016
-339.333	196.433	0.153	0.230
-338.318	800.000	-0.160	-0.481
-337.304	45.497	-0.135	-0.123
-336.289	12.566	0.094	-0.072
-335.275	200.869	-0.157	0.238
-334.260	-26.023	0.026	-0.015
-333.245	119.267	0.084	-0.103
-332.231	-200.000	0.039	-0.201
-331.216	70.361	0.259	-0.264
-330.202	-85.971	-0.249	-0.076
-329.187	216.833	0.222	-0.349
-328.172	-115.086	0.251	-0.047
-327.158	110.881	-0.012	-0.014
-326.143	-105.842	0.095	-0.021
-325.129	49.959	0.088	0.082
-324.114	-52.554	0.082	0.038
-323.099	140.894	0.236	0.309
-322.085	116.818	-0.159	0.192
-321.070	726.626	-0.034	0.089
-320.056	-200.000	0.024	-0.134
-319.041	177.529	0.142	0.205
-318.026	-143.687	-0.083	-0.008
-317.012	78.729	0.060	-0.064
-315.997	-79.502	0.162	-0.054
-314.983	-91.944	0.271	0.076
-313.968	611.189	0.098	-0.242
-312.953	-200.000	0.109	-0.522
-311.939	-97.640	-0.241	0.062
-310.924	11.888	-0.280	0.212
-309.910	800.000	-0.025	-0.098
-308.895	-200.000	-0.012	-0.210
-307.880	273.135	-0.024	-0.041
-306.866	-200.000	-0.020	0.124
-305.851	-31.752	-0.115	0.064
-304.837	725.507	0.048	-0.126
-303.822	5.806	0.180	-0.131
-302.807	-200.000	-0.003	0.207
-301.793	385.720	-0.046	0.093
-300.778	-1.470	0.263	0.183
-299.764	-200.000	-0.005	-0.124
-298.749	800.000	0.071	0.282
-297.735	-200.000	-0.031	0.196
-296.720	85.805	0.268	0.291
-295.705	21.334	-0.055	0.044
-294.691	-141.679	-0.052	-0.005
-293.676	-200.000	0.007	0.331
-292.662	-200.000	-0.036	-0.172
-291.647	-157.120	0.151	-0.009
-290.632	22.006	-0.088	-0.071
-289.618	-200.000	0.054	0.322
-288.603	109.067	-0.071	0.084
-287.589	-200.000	0.033	0.280
-286.574	-200.000	-0.006	0.326
-285.559	-200.000	0.005	0.115
-284.545	706.501	0.027	-0.070
-283.530	261.097	0.038	0.065
-282.516	180.203	-0.093	-0.134
-281.501	15.313	0.018	0.014
-280.486	-27.603	0.268	0.154
-279.472	-108.276	-0.450	-0.096
-278.457	800.000	-0.060	0.252
-277.443	8.371	-0.235	0.174
-276.428	-74.658	-0.300	0.106
-275.413	55.711	0.230	0.220
-274.399	-200.000	-0.031	0.169
-273.384	-107.454	0.109	0.024
-272.370	-200.000	-0.005	-0.136
-271.355	-80.769	-0.145	0.048
-270.340	-64.864	0.111	-0.044
-269.326	127.219	-0.182	-0.228
-268.311	210.765	-0.074	-0.115
-267.297	800.000	0.022	0.075
-266.282	800.000	0.097	-0.391
-265.267	-67.211	-0.132	-0.051
-264.253	5.885	-0.151	0.110
-263.238	-23.659	-0.177	-0.104
-262.224	-200.000	0.008	-0.157
-261.209	800.000	0.021	0.067
-260.195	-111.591	0.428	0.086
-259.180	800.000	0.071	-0.210
-258.165	-113.947	0.378	-0.072
-257.151	800.000	0.025	0.077
-256.136	-81.177	-0.247	0.081
-255.122	12.560	0.402	0.306
-254.107	800.000	-0.035	-0.138
-253.092	800.000	0.063	-0.195
-252.078	-171.762	0.145	-0.005
-251.063	800.000	-0.059	0.214
-250.049	-200.000	0.013	0.306
-249.034	-9.252	0.322	0.212
-248.019	-57.126	-0.254	-0.110
-247.005	160.236	-0.096	0.132
-245.990	21.892	0.341	0.274
-244.976	167.929	-0.190	-0.266
-243.961	47.933	0.038	-0.035
-242.946	-147.244	0.365	0.031
-241.932	800.000	0.119	0.395
-240.917	800.000	-0.087	0.370
-239.903	-73.061	0.112	0.040
-238.888	-147.736	-0.241	-0.020
-237.873	-45.442	0.264	-0.129
-236.859	-106.837	-0.194	-0.042
-235.844	-200.000	0.008	0.081
-234.830	-50.285	0.092	-0.043
-233.815	-44.897	0.317	-0.155
-232.800	-68.620	0.157	0.060
-231.786	182.609	-0.082	-0.119
-230.771	-53.315	-0.382	0.173
-229.757	-200.000	-0.019	-0.105
-228.742	479.058	0.249	-0.555
-227.727	-200.000	0.003	0.035
-226.713	-125.139	0.178	0.027
-225.698	48.861	0.163	-0.151
-224.684	-12.929	0.066	-0.042
-223.669	-200.000	-0.041	-0.323
-222.655	68.493	-0.071	-0.072
-221.640	-76.711	-0.208	0.072
-220.625	-161.738	-0.189	0.009
-219.611	15.222	-0.250	-0.193
-218.596	50.247	-0.132	-0.123
-217.582	-200.000	-0.010	0.163
-216.567	-200.000	-0.012	0.130
-215.552	696.046	-0.043	0.111
-214.538	-200.000	0.019	0.350
-213.523	-103.047	-0.216	-0.050
-212.509	-17.334	0.311	0.192
-211.494	-200.000	-0.021	0.202
-210.479	800.000	-0.065	-0.211
-209.465	-56.983	0.138	-0.060
-208.450	187.073	-0.097	-0.142
-207.436	1.267	0.141	-0.100
-206.421	170.878	0.153	-0.216
-205.406	800.000	-0.018	-0.073
-204.392	800.000	-0.007	-0.029
-203.377	-200.000	0.035	0.240
-202.363	114.486	0.245	0.293
-201.348	2.804	-0.352	-0.251
-200.333	800.000	-0.070	-0.211
-199.319	-8.207	0.204	0.135
-198.304	-200.000	-0.065	0.307
-197.290	321.907	-0.149	-0.278
-196.275	113.823	0.078	0.094
-195.260	8.632	0.098	-0.073
-194.246	39.858	0.149	0.132
-193.231	40.065	0.177	-0.156
-192.217	164.728	-0.057	-0.078
-191.202	20.784	-0.137	0.109
-190.187	340.660	0.126	-0.242
-189.173	34.638	-0.078	-0.067
-188.158	-23.235	-0.182	-0.108
-187.144	-200.000	-0.017	0.209
-186.129	-28.716	0.279	-0.158
-185.114	800.000	0.018	0.063
-184.100	132.519	0.135	0.171
-183.085	-69.873	-0.254	-0.095
-182.071	-80.853	-0.173	-0.056
-181.056	69.917	0.387	0.392
-180.042	-200.000	-0.058	-0.431
-179.027	-84.958	0.112	0.034
-178.012	-134.799	-0.196	0.023
-176.998	-70.207	-0.318	-0.119
-175.983	-67.109	0.038	0.015
-174.969	518.861	-0.126	0.291
-173.954	-200.000	-0.002	0.112
-172.939	-22.482	-0.320	-0.190
-171.925	-73.257	0.136	0.049
-170.910	800.000	0.028	0.093
-169.896	-106.758	-0.292	-0.064
-168.881	800.000	0.076	-0.208
-167.866	250.979	0.103	0.173
-166.852	-98.327	0.226	0.057
-165.837	800.000	-0.063	0.173
-164.823	241.847	-0.172	-0.282
-163.808	516.265	-0.063	-0.144
-162.793	-128.778	0.375	-0.052
-161.779	223.356	-0.094	-0.149
-160.764	49.147	-0.315	0.291
-159.750	364.551	0.061	0.121
-158.735	-3.442	0.486	-0.332
-157.720	-135.618	-0.256	0.030
-156.706	264.899	-0.188	-0.321
-155.691	-162.225	0.200	0.010
-154.677	72.563	-0.021	0.021
-153.662	-55.651	-0.056	0.025
-152.647	-200.000	0.019	-0.239
-151.633	-139.655	-0.175	-0.018
-150.618	42.206	0.131	-0.117
-149.604	-111.846	-0.359	-0.071
-148.589	150.385	-0.127	0.169
-147.574	199.115	0.202	0.304
-146.560	64.354	0.090	-0.089
-145.545	-145.237	0.202	-0.018
-144.531	474.752	0.094	-0.209
-143.516	-8.815	0.292	0.192
-142.502	-200.000	-0.021	0.096
-141.487	-200.000	-0.015	-0.130
-140.472	-37.758	0.306	0.160
-139.458	-200.000	0.024	-0.141
-138.443	-200.000	0.010	-0.244
-137.429	-200.000	-0.059	-0.386
-136.414	-200.000	-0.074	-0.000
-135.399	-79.721	0.321	0.106
-134.385	-89.029	-0.116	0.034
-133.370	203.426	0.039	-0.059
-132.356	489.947	-0.096	0.216
-131.341	-20.424	-0.196	-0.118
-130.326	559.211	0.033	0.077
-129.312	-200.000	0.029	-0.139
-128.297	-143.752	-0.399	-0.037
-127.283	-123.049	0.059	-0.009
-126.268	35.574	0.071	0.061
-125.253	127.552	0.032	-0.039
-124.239	800.000	-0.041	0.156
-123.224	405.758	-0.031	0.064
-122.210	25.132	-0.067	-0.055
-121.195	62.757	0.174	0.170
-120.180	800.000	-0.106	-0.305
-119.166	-87.326	-0.268	-0.080
-118.151	-44.008	-0.243	-0.120
-117.137	350.330	-0.063	-0.122
-116.122	-2.989	-0.230	0.157
-115.107	-40.832	-0.335	-0.170
-114.093	-12.028	-0.096	0.062
-113.078	139.273	-0.066	-0.085
-112.064	-200.000	-0.010	-0.093
-111.049	-21.185	-0.226	0.135
-110.034	134.260	0.128	0.163
-109.020	239.356	-0.050	-0.082
-108.005	800.000	-0.024	0.100
-106.991	-119.066	-0.238	-0.041
-105.976	215.929	0.130	-0.202
-104.962	-110.696	-0.263	-0.053
-103.947	-174.918	-0.121	0.003
-102.932	-116.214	-0.222	-0.040
-101.918	246.235	0.041	-0.068
-100.903	-97.475	0.062	0.016
-99.889	-173.929	0.316	0.009
-98.874	-200.000	-0.011	-0.150
-97.859	-200.000	-0.087	0.676
-96.845	-12.629	-0.115	0.073
-95.830	-158.615	-0.222	0.013
-94.816	-77.532	0.098	-0.033
-93.801	419.911	-0.076	0.159
-92.786	-56.386	0.135	-0.059
-91.772	800.000	-0.063	-0.251
-90.757	51.819	0.174	0.162
-89.743	-67.418	-0.340	-0.131
-88.728	-157.800	-0.189	0.011
-87.713	757.406	-0.058	0.153
-86.699	90.061	-0.157	0.172
-85.684	-50.259	0.338	0.156
-84.670	-54.458	0.260	0.115
-83.655	612.185	0.041	0.100
-82.640	96.136	-0.167	0.187
-81.626	-70.975	0.147	0.054
-80.611	-5.599	0.218	-0.146
-79.597	-135.161	-0.409	-0.048
-78.582	-200.000	0.013	0.214
-77.567	800.000	-0.120	-0.416
-76.553	800.000	0.011	-0.030
-75.538	70.331	-0.127	0.128
-74.524	19.594	0.222	0.174
-73.509	-84.051	0.250	-0.078
-72.494	-200.000	-0.045	0.273
-71.480	-85.604	-0.279	-0.085
-70.465	206.029	-0.195	0.296
-69.451	232.574	-0.159	-0.256
-68.436	-8.416	0.174	-0.114
-67.422	292.324	0.115	-0.205
-66.407	-200.000	0.030	0.179
-65.392	303.832	-0.154	0.279
-64.378	800.000	-0.108	0.368
-63.363	-15.208	0.110	0.069
-62.349	270.906	0.070	0.121
-61.334	50.158	-0.809	-0.747
-60.319	46.515	0.765	0.694
-59.305	366.290	-0.680	-1.340
-58.290	221.725	0.665	1.045
-57.276	274.246	0.814	1.408
-56.261	-200.000	111.980	648.422
-55.246	491.427	1485.600	3324.940
-54.232	150.375	2657.174	3526.223
-53.217	98.762	2274.257	2565.057
-52.203	36.830	1891.499	1634.087
-51.188	30.999	1684.942	1411.591
-50.173	28.542	1643.511	1358.653
-49.159	50.475	1698.338	1569.472
-48.144	49.372	1712.944	1574.627
-47.130	30.630	1671.759	1397.548
-46.115	27.933	1657.620	1365.550
-45.100	27.793	1652.609	1360.318
-44.086	27.690	1650.214	1357.527
-43.071	27.742	1647.495	1355.629
-42.057	27.633	1645.507	1353.124
-41.042	27.682	1643.218	1351.553
-40.027	27.741	1641.054	1350.158
-39.013	27.707	1639.448	1348.530
-37.998	27.627	1638.097	1346.774
-36.984	27.752	1636.512	1346.339
-35.969	27.750	1635.092	1345.104
-34.954	27.827	1633.521	1344.323
-33.940	27.817	1631.641	1342.650
-32.925	27.823	1629.608	1340.973
-31.911	27.736	1628.050	1339.000
-30.896	27.855	1626.218	1338.308
-29.881	27.759	1624.818	1336.404
-28.867	27.819	1623.155	1335.420
-27.852	27.792	1621.860	1334.106
-26.838	27.744	1620.453	1332.546
-25.823	27.820	1618.849	1331.728
-24.809	27.844	1617.641	1330.852
-23.794	27.820	1616.417	1329.621
-22.779	27.885	1614.619	1328.560
-21.765	27.785	1613.603	1326.944
-20.750	27.846	1611.738	1325.799
-19.736	27.819	1610.622	1324.636
-18.721	27.864	1608.800	1323.410
-17.706	27.851	1607.307	1322.035
-16.692	27.853	1605.885	1320.825
-15.677	27.846	1604.837	1319.860
-14.663	27.907	1603.476	1319.128
-13.648	27.966	1601.429	1317.817
-12.633	27.832	1600.602	1316.118
-11.619	27.820	1599.123	1314.764
-10.604	27.778	1597.618	1313.175
-9.590	27.846	1596.623	1312.792
-8.575	27.910	1594.922	1311.805
-7.560	27.878	1593.701	1310.520
-6.546	27.866	1592.800	1309.638
-5.531	27.812	1591.966	1308.516
-4.517	27.854	1590.320	1307.409
-3.502	27.849	1589.512	1306.657
-2.487	27.897	1588.148	1305.827
-1.473	27.507	1576.179	1293.169
-0.458	24.698	1556.658	1257.373
0.556	19.134	1557.615	1225.770
1.571	16.836	1580.645	1227.162
2.586	16.270	1593.042	1232.548
3.600	15.578	1542.699	1188.598
4.615	12.899	1444.770	1095.273
5.629	10.054	1389.799	1035.306
6.644	9.547	1382.284	1026.390
7.659	9.387	1381.539	1024.722
8.673	9.347	1380.765	1023.802
9.688	9.339	1378.263	1021.810
10.702	9.309	1375.059	1019.153
11.717	10.583	1376.845	1028.468
12.731	13.975	1383.238	1054.718
13.746	16.744	1387.737	1075.663
14.761	17.226	1387.018	1078.071
15.775	16.394	1384.434	1070.701
16.790	15.351	1381.526	1061.754
17.804	14.547	1378.930	1054.584
18.819	14.059	1377.826	1050.565
19.834	13.846	1376.503	1048.116
20.848	13.606	1375.357	1045.639
21.863	13.265	1374.491	1042.737
22.877	13.163	1372.938	1040.824
23.892	13.105	1371.904	1039.584
24.907	13.149	1371.282	1039.298
25.921	13.163	1370.382	1038.612
26.936	13.280	1369.059	1038.253
27.950	13.225	1368.164	1037.136
28.965	13.209	1367.362	1036.337
29.980	13.362	1365.959	1036.140
30.994	13.426	1365.047	1035.755
32.009	13.412	1363.970	1034.760
33.023	13.411	1362.551	1033.584
34.038	13.295	1361.593	1032.043
35.053	13.220	1360.096	1030.352
36.067	13.257	1358.963	1029.633
37.082	13.224	1357.929	1028.546
38.096	13.325	1356.728	1028.175
39.111	13.196	1356.444	1027.068
40.126	13.292	1355.013	1026.491
41.140	13.100	1354.299	1024.665
42.155	13.046	1354.031	1024.040
43.169	13.094	1353.706	1024.002
44.184	13.060	1353.263	1023.366
45.199	13.033	1352.683	1022.668
46.213	13.145	1352.191	1022.902
47.228	13.181	1351.072	1022.186
48.242	13.254	1350.024	1021.752
49.257	13.258	1347.964	1020.129
50.271	13.174	1347.021	1018.803
51.286	13.206	1346.194	1018.290
52.301	13.228	1344.492	1017.047
53.315	13.178	1343.508	1015.900
54.330	13.111	1342.641	1014.749
55.344	13.092	1341.262	1013.498
56.359	13.168	1340.095	1012.993
57.374	13.140	1339.416	1012.215
58.388	13.037	1338.685	1010.943
59.403	13.008	1338.505	1010.544
60.417	13.035	1337.126	1009.576
61.432	13.029	1336.703	1009.129
62.447	12.920	1335.904	1007.773
63.461	12.971	1334.289	1006.778
64.476	12.986	1333.408	1006.116
65.490	12.976	1332.156	1005.017
66.505	12.950	1330.837	1003.777
67.520	12.963	1329.615	1002.843
68.534	13.050	1328.218	1002.233
69.549	13.033	1327.470	1001.475
70.563	12.979	1326.609	1000.407
71.578	12.989	1325.485	999.533
72.593	12.895	1324.200	997.910
73.607	12.815	1323.668	996.937
74.622	12.882	1322.838	996.629
75.636	12.954	1321.666	996.089
76.651	12.883	1321.151	995.184
77.666	12.850	1320.989	994.776
78.680	12.864	1320.854	994.673
79.695	13.028	1319.111	994.259
80.709	13.053	1318.113	993.568
81.724	12.991	1317.954	992.988
82.739	13.182	1316.529	992.974
83.753	13.167	1316.385	992.686
84.768	13.293	1314.823	992.179
85.782	13.250	1314.200	991.362
86.797	13.291	1312.411	990.173
87.812	13.168	1311.129	988.381
88.826	13.127	1310.544	987.604
89.841	13.157	1309.210	986.693
90.855	13.251	1308.296	986.476
91.870	13.187	1307.887	985.700
92.884	13.256	1306.393	984.897
93.899	13.191	1305.653	983.869
94.914	13.243	1305.241	983.779
95.928	13.204	1304.550	982.939
96.943	13.353	1302.823	982.436
97.957	13.284	1302.263	981.516
98.972	13.327	1300.798	980.582
99.987	13.303	1300.274	979.959
101.001	13.230	1299.600	978.931
102.016	13.222	1298.270	977.792
103.030	13.336	1296.906	977.350
104.045	13.308	1296.335	976.668
105.060	13.217	1295.106	975.120
106.074	13.118	1293.421	973.185
107.089	13.120	1292.011	972.050
108.103	13.036	1291.135	970.811
109.118	12.963	1289.697	969.216
110.133	13.059	1288.140	968.520
111.147	13.149	1286.906	968.034
112.162	13.052	1286.091	966.767
113.176	13.147	1284.862	966.316
114.191	13.078	1284.049	965.214
115.206	13.185	1282.572	964.642
116.220	13.259	1281.050	963.845
117.235	13.097	1280.605	962.479
118.249	13.045	1279.506	961.269
119.264	13.120	1278.276	960.691
120.279	13.002	1277.366	959.241
121.293	13.053	1275.794	958.270
122.308	13.011	1275.276	957.549
123.322	13.023	1274.058	956.620
124.337	12.946	1273.286	955.509
125.352	13.048	1271.945	955.009
126.366	13.070	1270.559	954.015
127.381	12.998	1269.979	953.078
128.395	13.081	1268.496	952.357
129.410	13.038	1267.828	951.523
130.424	13.123	1267.125	951.402
131.439	13.045	1266.182	950.163
132.454	13.096	1264.936	949.437
133.468	13.071	1264.621	948.971
134.483	13.123	1263.952	948.684
135.497	13.174	1262.487	947.793
136.512	13.113	1261.253	946.432
137.527	13.114	1259.879	945.325
138.541	13.065	1258.577	943.986
139.556	13.098	1257.246	943.092
140.570	13.259	1256.309	943.224
141.585	13.309	1254.947	942.404
142.600	13.239	1254.121	941.302
143.614	13.328	1253.015	940.891
144.629	13.356	1251.774	940.038
145.643	13.338	1250.804	939.123
146.658	13.394	1249.067	938.055
147.673	13.346	1247.817	936.760
148.687	13.120	1247.484	935.146
149.702	13.145	1246.169	934.219
150.716	13.185	1244.458	933.082
151.731	13.187	1243.690	932.436
152.746	13.169	1242.255	931.176
153.760	13.312	1240.999	930.953
154.775	13.322	1239.418	929.744
155.789	13.406	1238.809	929.673
156.804	13.401	1237.603	928.658
157.819	13.374	1236.603	927.679
158.833	13.447	1235.740	927.357
159.848	13.548	1234.363	926.804
160.862	13.416	1234.039	925.740
161.877	13.405	1232.750	924.632
162.892	13.314	1231.644	923.211
163.906	13.290	1231.051	922.550
164.921	13.326	1229.931	921.830
165.935	13.373	1229.080	921.373
166.950	13.485	1228.536	921.511
167.964	13.376	1227.512	920.053
168.979	13.267	1227.158	919.101
169.994	13.429	1226.186	919.192
171.008	13.402	1225.395	918.365
172.023	13.556	1224.452	918.431
173.037	13.621	1223.513	918.004
174.052	13.567	1222.470	916.846
175.067	13.479	1221.347	915.434
176.081	13.421	1220.329	914.267
177.096	13.403	1219.501	913.469
178.110	13.323	1218.750	912.386
179.125	13.457	1217.297	911.954
180.140	13.439	1216.105	910.883
181.154	13.584	1215.146	910.879
182.169	13.522	1214.192	909.743
183.183	13.627	1212.548	909.008
184.198	13.592	1211.348	907.835
185.213	13.675	1210.319	907.436
186.227	13.672	1209.230	906.528
187.242	13.725	1208.301	906.040
188.256	13.810	1207.245	905.632
189.271	13.811	1205.657	904.363
190.286	13.697	1204.855	903.064
191.300	13.493	1204.410	901.541
192.315	13.441	1203.439	900.449
193.329	13.461	1203.044	900.181
194.344	13.482	1202.633	899.911
195.359	13.612	1201.775	899.891
196.373	13.600	1201.387	899.456
197.388	13.737	1201.339	900.086
198.402	13.779	1200.574	899.661
199.417	13.866	1199.610	899.332
200.432	14.079	1198.480	899.556
201.446	13.974	1198.029	898.571
202.461	13.990	1197.181	897.939
203.475	13.911	1196.319	896.788
204.490	13.937	1194.575	895.540
205.504	13.872	1192.783	893.772
206.519	13.946	1192.266	893.704
207.534	13.940	1190.947	892.599
208.548	13.927	1190.095	891.816
209.563	13.957	1189.174	891.206
210.577	13.896	1188.431	890.244
211.592	13.910	1187.836	889.793
212.607	14.146	1186.950	890.312
213.621	14.016	1185.997	888.826
214.636	14.037	1184.911	888.048
215.650	14.067	1184.030	887.465
216.665	13.957	1183.719	886.566
217.680	14.137	1182.487	886.525
218.694	14.057	1181.599	885.354
219.709	14.170	1180.786	885.271
220.723	14.184	1180.329	884.921
221.738	14.119	1179.145	883.609
222.753	14.194	1178.663	883.572
223.767	14.130	1178.061	882.700
224.782	14.258	1177.156	882.624
225.796	14.288	1176.537	882.239
226.811	14.305	1175.717	881.638
227.826	14.190	1175.155	880.530
228.840	14.153	1174.594	879.837
229.855	14.307	1173.529	879.775
230.869	14.223	1173.073	878.910
231.884	14.286	1171.852	878.251
232.899	14.237	1170.941	877.234
233.913	14.189	1170.733	876.746
234.928	14.218	1170.167	876.394
235.942	14.220	1168.809	875.313
236.957	14.183	1168.128	874.531
237.972	14.135	1167.803	873.959
238.986	14.183	1167.257	873.726
240.001	14.290	1166.107	873.345
241.015	14.228	1165.470	872.469
242.030	14.316	1164.495	872.121
243.045	14.322	1163.776	871.537
244.059	14.408	1162.870	871.229
245.074	14.460	1162.117	870.863
246.088	14.481	1161.453	870.398
247.103	14.429	1160.893	869.628
248.117	14.484	1160.325	869.414
249.132	14.443	1159.577	868.564
250.147	14.655	1158.640	868.887
251.161	14.691	1157.658	868.260
252.176	14.698	1157.169	867.852
253.190	14.809	1156.389	867.769
254.205	14.829	1155.885	867.419
255.220	14.803	1155.507	866.924
256.234	14.763	1154.970	866.233
257.249	14.820	1154.301	865.954
258.263	14.854	1153.568	865.501
259.278	14.947	1152.524	865.121
260.293	14.947	1152.168	864.778
261.307	14.870	1151.608	863.886
262.322	14.967	1150.866	863.754
263.336	14.940	1150.167	863.010
264.351	15.021	1149.863	863.125
265.366	14.978	1149.220	862.344
266.380	14.968	1148.609	861.757
267.395	14.952	1147.684	860.907
268.409	14.840	1147.147	859.849
269.424	15.020	1146.624	860.307
270.439	14.892	1145.618	858.819
271.453	14.945	1145.002	858.552
272.468	14.720	1144.233	856.745
273.482	14.943	1143.352	857.154
274.497	14.961	1142.790	856.748
275.512	14.961	1142.041	856.110
276.526	14.985	1141.183	855.515
277.541	14.984	1140.680	855.060
278.555	14.944	1140.020	854.284
279.570	15.067	1138.973	854.052
280.585	15.133	1138.315	853.819
281.599	15.152	1137.271	853.058
282.614	15.153	1136.031	852.054
283.628	15.171	1135.107	851.377
284.643	15.146	1134.444	850.680
285.657	15.044	1134.010	849.763
286.672	15.121	1132.894	849.239
287.687	15.027	1132.155	848.136
288.701	15.319	1131.005	848.676
289.716	15.282	1130.057	847.701
290.730	15.184	1129.369	846.617
291.745	15.154	1129.108	846.192
292.760	15.261	1128.115	845.914
293.774	15.250	1127.841	845.580
294.789	15.352	1127.251	845.575
295.803	15.307	1126.617	844.797
296.818	15.190	1125.983	843.659
297.833	15.307	1124.953	843.399
298.847	15.251	1124.228	842.501
299.862	15.296	1123.533	842.132
300.876	15.351	1122.500	841.561
301.891	15.392	1122.275	841.522
302.906	15.470	1121.458	841.228
303.920	15.417	1120.647	840.277
304.935	15.470	1119.921	839.925
305.949	15.523	1119.792	840.017
306.964	15.530	1118.818	839.249
307.979	15.411	1118.486	838.330
308.993	15.510	1117.890	838.306
310.008	15.534	1116.692	837.454
311.022	15.656	1115.507	837.097
312.037	15.582	1114.483	835.887
313.052	15.492	1114.083	835.065
314.066	15.545	1112.795	834.289
315.081	15.417	1112.374	833.260
316.095	15.369	1111.602	832.373
317.110	15.507	1110.768	832.360
318.125	15.482	1110.069	831.639
319.139	15.559	1109.519	831.533
320.154	15.647	1108.588	831.198
321.168	15.444	1108.361	829.949
322.183	15.500	1107.175	829.264
323.197	15.637	1106.714	829.523
324.212	15.637	1105.928	828.862
325.227	15.575	1105.418	828.096
326.241	15.536	1105.658	828.012
327.256	15.595	1104.025	827.007
328.270	15.661	1103.321	826.731
329.285	15.484	1102.324	825.041
330.300	15.653	1101.625	825.274
331.314	15.757	1100.341	824.749
332.329	15.635	1099.322	823.314
333.343	15.700	1098.748	823.130
334.358	15.754	1097.808	822.617
335.373	15.777	1097.047	822.088
336.387	15.754	1096.347	821.378
337.402	15.719	1095.963	820.847
338.416	15.759	1095.419	820.563
339.431	15.896	1094.404	820.394
340.446	15.898	1093.771	819.860
341.460	16.058	1093.054	820.029
342.475	15.935	1092.543	818.970
343.489	16.031	1091.566	818.635
344.504	16.116	1089.986	817.788
345.519	16.003	1089.729	816.976
346.533	16.003	1089.088	816.424
347.548	16.145	1088.190	816.363
348.562	16.085	1087.470	815.464
349.577	16.000	1086.803	814.480
350.592	16.046	1085.920	813.969
351.606	15.980	1085.256	813.080
352.621	16.023	1084.559	812.694
353.635	15.904	1084.080	811.686
354.650	15.973	1083.241	811.320
355.665	16.018	1082.561	810.958
356.679	16.009	1081.545	810.079
357.694	16.146	1081.241	810.438
358.708	16.130	1080.836	809.988
359.723	16.107	1080.116	809.267
360.738	16.156	1079.136	808.697
361.752	16.155	1078.780	808.353
362.767	16.164	1078.528	808.133
363.781	16.314	1077.592	808.080
364.796	16.358	1076.880	807.686
365.810	16.316	1076.329	807.001
366.825	16.424	1075.424	806.765
367.840	16.435	1075.200	806.576
368.854	16.483	1074.565	806.258
369.869	16.410	1074.038	805.443
370.883	16.545	1072.681	804.996
371.898	16.345	1072.518	803.854
372.913	16.379	1072.192	803.696
373.927	16.354	1071.353	802.881
374.942	16.399	1071.190	802.902
375.956	16.421	1070.245	802.228
376.971	16.451	1069.782	801.952
377.986	16.490	1069.176	801.610
379.000	16.651	1068.278	801.628
380.015	16.611	1068.098	801.234
381.029	16.620	1067.379	800.665
382.044	16.727	1066.456	800.406
383.059	16.780	1065.655	799.984
384.073	16.785	1064.985	799.437
385.088	16.709	1064.083	798.328
386.102	16.752	1062.694	797.420
387.117	16.693	1062.349	796.813
388.132	16.495	1061.668	795.298
389.146	16.595	1060.657	794.940
390.161	16.441	1059.911	793.590
391.175	16.615	1059.382	793.940
392.190	16.688	1058.554	793.591
393.205	16.826	1057.964	793.724
394.219	16.872	1056.895	793.066
395.234	16.669	1056.371	791.654
396.248	16.743	1055.075	790.961
397.263	16.861	1053.982	790.620
398.278	16.638	1053.895	789.444
399.292	16.742	1052.771	789.017
400.307	16.697	1052.088	788.226
401.321	16.719	1051.494	787.812
402.336	16.687	1050.897	787.150
403.350	16.744	1050.462	787.020
404.365	16.651	1049.844	786.052
405.380	16.693	1049.106	785.624
406.394	16.829	1048.268	785.558
407.409	16.876	1047.385	785.046
408.423	16.879	1046.783	784.538
409.438	16.916	1046.230	784.225
410.453	17.071	1045.220	784.117
411.467	17.058	1044.577	783.504
412.482	17.098	1044.095	783.257
413.496	17.142	1043.657	783.064
414.511	17.073	1042.815	782.046
415.526	17.106	1042.414	781.827
416.540	17.134	1042.501	781.950
417.555	17.220	1041.335	781.401
418.569	17.168	1040.957	780.812
419.584	17.322	1040.239	780.909
420.599	17.202	1040.096	780.182
421.613	105.040	1325.331	1478.418
422.628	96.395	1366.856	1478.516
