DTS Sentinel unit serial number:	SN413079Multiplexer serial number:	ORYXHardware model number:	OX4-SRSoftware version number:	ORYX F/W v4.00 Oryx Data Collector v3.7.2.0data status	okinstallation	princeton_trtdifferential loss correction	single-endedforward channel	channel 2reverse channel	N/Adate	2019/09/18time	22:03:35forward acquisition time	60.00reverse acquisition time	0.00gamma	496.2192k internal	0.2348k external	0.2348temperature offset calibration	1.0018default loss term (dB/km)	0.3790temperature slope calibration	1.0000multiplexer offset coefficient	1.0000multiplexer slope coefficient	1.0000fibre end	0.00T internal ref (°C)	24.53T ext. ref 1 (°C)	0.80T ext. ref 2 (°C)	18.29length (m)	temperature (°C)	Stokes	anti-Stokes-747.200	-200.000	-0.016	0.249
-746.185	-200.000	0.020	0.301
-745.171	195.251	-0.125	-0.190
-744.156	-23.866	0.135	0.081
-743.142	-92.506	0.319	0.090
-742.127	-11.522	0.245	0.161
-741.112	189.137	0.164	-0.246
-740.098	417.200	-0.045	-0.096
-739.083	76.547	-0.035	0.037
-738.069	252.217	0.063	0.107
-737.054	-200.000	-0.004	0.243
-736.039	44.949	-0.315	-0.290
-735.025	-115.969	-0.247	-0.046
-734.010	-200.000	-0.031	0.163
-732.996	240.570	-0.162	0.270
-731.981	-200.000	0.221	-0.000
-730.966	-130.370	-0.110	0.015
-729.952	-200.000	-0.071	-0.465
-728.937	15.214	-0.090	-0.070
-727.923	201.489	0.058	0.089
-726.908	-179.466	-0.286	-0.006
-725.894	-129.176	-0.124	-0.017
-724.879	-200.000	-0.013	0.096
-723.864	-6.639	0.231	0.157
-722.850	314.118	-0.144	-0.271
-721.835	548.189	0.024	-0.056
-720.821	-141.512	0.101	0.010
-719.806	187.345	0.194	0.289
-718.791	-62.673	0.510	0.211
-717.777	-54.956	0.095	-0.043
-716.762	53.117	-0.168	0.160
-715.748	-163.189	-0.286	0.014
-714.733	-132.942	-0.345	0.044
-713.718	-47.211	0.362	-0.176
-712.704	-94.049	0.108	0.030
-711.689	239.221	-0.165	0.274
-710.675	-43.259	-0.231	-0.117
-709.660	368.080	-0.038	-0.076
-708.645	107.536	-0.150	-0.178
-707.631	-5.152	0.399	0.274
-706.616	42.800	-0.262	-0.238
-705.602	-95.067	-0.453	-0.122
-704.587	-200.000	-0.066	0.426
-703.572	103.316	0.100	0.118
-702.558	-200.000	-0.462	0.000
-701.543	64.630	0.197	0.198
-700.529	255.726	-0.251	0.430
-699.514	800.000	-0.111	-0.314
-698.499	110.571	-0.171	0.205
-697.485	-161.935	0.139	0.007
-696.470	60.060	-0.125	0.123
-695.456	800.000	0.044	-0.145
-694.441	-79.746	0.190	0.064
-693.426	-152.623	-0.103	0.007
-692.412	131.721	-0.162	-0.208
-691.397	-10.987	-0.305	-0.201
-690.383	79.136	-0.343	0.367
-689.368	89.525	-0.213	-0.237
-688.354	-6.980	-0.116	0.079
-687.339	-125.990	0.284	-0.043
-686.324	-20.629	0.316	0.194
-685.310	-200.000	-0.000	-0.129
-684.295	189.600	-0.200	-0.299
-683.281	-53.923	-0.252	-0.115
-682.266	-50.692	0.162	0.076
-681.251	0.421	0.130	-0.092
-680.237	45.834	0.076	-0.070
-679.222	488.183	0.049	-0.111
-678.208	-91.943	-0.093	0.026
-677.193	-56.923	-0.422	-0.186
-676.178	68.942	-0.159	-0.163
-675.164	-162.371	0.244	0.012
-674.149	137.123	0.076	0.099
-673.135	666.752	0.105	-0.270
-672.120	-39.137	-0.102	-0.054
-671.105	800.000	-0.096	-0.286
-670.091	635.376	-0.150	-0.380
-669.076	-65.700	-0.247	-0.099
-668.062	786.009	-0.077	0.210
-667.047	23.836	0.153	0.125
-666.032	287.453	-0.127	-0.229
-665.018	177.616	0.131	0.191
-664.003	-65.796	-0.166	-0.066
-662.989	-26.043	0.290	0.170
-661.974	-200.000	-0.002	0.031
-660.959	-3.622	-0.111	0.077
-659.945	-200.000	0.330	-0.000
-658.930	-64.322	-0.304	-0.123
-657.916	-200.000	0.045	-0.296
-656.901	212.866	-0.148	-0.232
-655.886	-31.701	0.169	-0.095
-654.872	111.147	-0.074	-0.089
-653.857	-200.000	0.022	-0.169
-652.843	-200.000	0.007	0.266
-651.828	210.579	0.051	-0.079
-650.814	-138.960	-0.362	0.039
-649.799	800.000	0.041	-0.135
-648.784	-200.000	0.030	0.544
-647.770	-118.031	-0.447	0.080
-646.755	27.432	0.241	-0.202
-645.741	-42.281	0.019	0.010
-644.726	800.000	0.028	-0.091
-643.711	31.332	-0.158	-0.135
-642.697	73.554	0.144	0.150
-641.682	800.000	0.136	0.384
-640.668	-96.575	-0.148	-0.039
-639.653	800.000	0.059	0.173
-638.638	196.503	0.080	-0.121
-637.624	-146.726	0.205	0.018
-636.609	-200.000	-0.008	0.040
-635.595	800.000	0.106	-0.302
-634.580	18.913	0.266	-0.212
-633.565	800.000	0.069	0.219
-632.551	298.522	0.194	-0.355
-631.536	363.202	-0.149	-0.298
-630.522	116.777	-0.253	-0.308
-629.507	-200.000	0.098	0.468
-628.492	141.953	0.173	0.228
-627.478	800.000	0.107	0.307
-626.463	-124.105	0.072	-0.011
-625.449	-200.000	0.004	0.233
-624.434	88.569	0.317	-0.351
-623.419	800.000	0.054	-0.220
-622.405	-30.342	0.098	0.055
-621.390	800.000	0.129	0.481
-620.376	-156.468	0.064	-0.004
-619.361	510.376	-0.160	0.371
-618.346	-101.426	0.052	0.013
-617.332	248.549	-0.097	-0.163
-616.317	137.071	-0.114	-0.149
-615.303	23.102	-0.073	-0.060
-614.288	230.356	0.098	0.160
-613.273	154.933	-0.167	-0.228
-612.259	-65.392	0.355	-0.142
-611.244	15.236	-0.120	-0.093
-610.230	-90.201	0.127	-0.037
-609.215	-87.436	0.275	0.083
-608.201	85.719	-0.101	-0.110
-607.186	-128.128	-0.087	0.012
-606.171	-103.182	-0.250	0.059
-605.157	-117.623	0.018	0.003
-604.142	-81.886	0.187	-0.061
-603.128	800.000	0.019	-0.078
-602.113	-117.441	-0.131	0.024
-601.098	-101.261	0.032	-0.008
-600.084	65.577	0.169	0.170
-599.069	-96.828	0.144	0.038
-598.055	-200.000	0.027	0.165
-597.040	200.760	0.097	0.148
-596.025	3.629	-0.210	-0.152
-595.011	-200.000	0.060	-0.274
-593.996	-147.938	-0.109	-0.009
-592.982	-200.000	-0.012	-0.111
-591.967	-200.000	0.001	-0.195
-590.952	-142.966	-0.191	0.018
-589.938	699.492	-0.057	0.150
-588.923	800.000	0.015	-0.047
-587.909	-200.000	-0.030	0.312
-586.894	246.106	0.202	-0.338
-585.879	-134.396	0.261	-0.032
-584.865	-66.768	-0.133	-0.052
-583.850	800.000	0.105	0.313
-582.836	5.890	-0.043	0.031
-581.821	-122.818	-0.154	0.025
-580.806	24.338	-0.101	-0.083
-579.792	-95.579	-0.254	-0.068
-578.777	-68.317	-0.227	-0.088
-577.763	83.260	-0.183	0.197
-576.748	800.000	-0.070	-0.217
-575.733	800.000	0.020	-0.061
-574.719	-92.467	-0.297	-0.083
-573.704	67.470	0.136	-0.138
-572.690	123.611	0.194	0.242
-571.675	266.722	0.105	-0.182
-570.661	93.196	-0.175	0.196
-569.646	-65.448	-0.214	-0.085
-568.631	63.179	0.205	0.204
-567.617	-55.993	0.060	-0.026
-566.602	71.539	0.104	0.107
-565.588	-200.000	0.013	-0.085
-564.573	508.262	0.078	-0.181
-563.558	-200.000	0.016	-0.332
-562.544	-144.775	0.450	-0.041
-561.529	-59.064	-0.088	-0.038
-560.515	-78.836	-0.082	-0.028
-559.500	-164.664	0.342	0.015
-558.485	492.307	0.018	0.041
-557.471	-5.496	-0.293	-0.199
-556.456	-59.719	0.101	0.043
-555.442	54.675	0.105	-0.101
-554.427	298.756	0.060	0.110
-553.412	226.920	-0.134	-0.216
-552.398	16.634	0.048	0.038
-551.383	114.591	0.066	-0.079
-550.369	-200.000	-0.019	-0.270
-549.354	15.742	0.175	-0.137
-548.339	800.000	-0.069	0.233
-547.325	-200.000	0.046	-0.242
-546.310	-200.000	-0.017	0.113
-545.296	158.843	-0.152	0.209
-544.281	9.281	0.289	0.216
-543.266	-20.738	0.092	0.056
-542.252	-0.232	0.266	0.187
-541.237	-200.000	-0.001	0.023
-540.223	83.560	-0.155	-0.168
-539.208	-85.458	0.191	-0.059
-538.193	129.250	0.175	0.221
-537.179	-139.797	-0.238	-0.025
-536.164	81.237	-0.270	-0.289
-535.150	-129.599	-0.192	-0.026
-534.135	-150.258	0.333	0.026
-533.121	-139.416	-0.262	0.028
-532.106	-139.936	-0.063	-0.007
-531.091	-124.971	-0.037	0.006
-530.077	-200.000	-0.006	-0.140
-529.062	42.126	-0.138	-0.124
-528.048	12.056	-0.225	-0.172
-527.033	114.267	-0.281	-0.339
-526.018	-44.987	0.197	-0.097
-525.004	158.972	0.137	0.189
-523.989	625.480	0.172	-0.430
-522.975	19.392	-0.065	0.052
-521.960	618.068	0.113	-0.280
-520.945	8.129	-0.073	0.054
-519.931	413.030	-0.111	0.234
-518.916	-54.956	-0.062	0.028
-517.902	-87.956	-0.150	0.045
-516.887	-36.173	0.113	-0.061
-515.872	-117.166	-0.022	-0.004
-514.858	800.000	0.037	0.142
-513.843	124.846	0.143	0.179
-512.829	-75.306	-0.204	-0.072
-511.814	-39.803	-0.204	-0.105
-510.799	-115.595	0.449	-0.084
-509.785	552.425	0.007	0.016
-508.770	800.000	0.063	0.260
-507.756	34.330	-0.100	0.087
-506.741	-137.158	0.160	-0.018
-505.726	-21.009	0.074	-0.045
-504.712	-56.475	-0.392	0.172
-503.697	-200.000	-0.005	0.112
-502.683	226.898	0.158	-0.253
-501.668	34.699	0.135	-0.116
-500.653	-200.000	-0.007	0.068
-499.639	17.662	-0.129	0.102
-498.624	-200.000	-0.028	0.212
-497.610	-200.000	0.010	-0.181
-496.595	-200.000	-0.065	-0.384
-495.581	219.249	0.179	0.283
-494.566	282.207	0.020	-0.035
-493.551	-148.258	-0.196	0.016
-492.537	-14.612	0.034	-0.021
-491.522	198.048	-0.180	0.272
-490.508	-62.995	0.048	-0.020
-489.493	800.000	-0.092	-0.268
-488.478	-200.000	0.007	-0.075
-487.464	-200.000	-0.002	0.031
-486.449	193.335	0.055	-0.083
-485.435	-200.000	-0.029	0.228
-484.420	-71.730	0.281	-0.104
-483.405	-104.092	-0.184	0.042
-482.391	179.850	-0.054	-0.078
-481.376	418.213	-0.071	-0.151
-480.362	4.956	0.239	-0.174
-479.347	-93.194	-0.072	0.020
-478.332	311.346	0.131	0.242
-477.318	-93.784	0.262	0.071
-476.303	433.980	-0.105	-0.225
-475.289	334.412	0.125	0.239
-474.274	800.000	0.056	0.187
-473.259	370.584	0.126	-0.252
-472.245	105.289	-0.144	-0.169
-471.230	-200.000	-0.001	0.133
-470.216	-200.000	-0.044	0.227
-469.201	-56.076	0.093	0.041
-468.186	-1.767	-0.414	0.288
-467.172	13.193	0.136	-0.104
-466.157	-75.234	0.098	0.035
-465.143	-167.442	-0.224	0.009
-464.128	-200.000	0.008	-0.257
-463.113	-200.000	-0.005	0.150
-462.099	-163.375	0.377	-0.018
-461.084	42.652	-0.115	-0.103
-460.070	-200.000	0.017	0.119
-459.055	-111.089	0.225	-0.046
-458.040	-100.556	-0.221	0.054
-457.026	20.014	0.130	-0.104
-456.011	-26.859	0.205	0.118
-454.997	-92.301	0.316	-0.088
-453.982	24.811	0.180	-0.147
-452.968	81.824	-0.126	0.134
-451.953	-17.254	0.146	0.091
-450.938	-200.000	0.012	-0.105
-449.924	-115.198	-0.080	0.015
-448.909	22.067	-0.241	0.194
-447.895	206.811	0.087	-0.134
-446.880	-65.326	0.094	0.037
-445.865	-107.661	-0.269	0.058
-444.851	-200.000	0.111	0.569
-443.836	-128.182	-0.166	-0.023
-442.822	-200.000	-0.047	0.233
-441.807	-21.974	0.253	0.152
-440.792	-144.218	-0.044	-0.004
-439.778	5.058	-0.028	-0.021
-438.763	-128.654	-0.459	0.064
-437.749	-200.000	-0.021	-0.122
-436.734	80.393	0.076	0.081
-435.719	127.285	0.023	0.029
-434.705	-122.878	-0.366	-0.058
-433.690	-11.699	-0.246	0.160
-432.676	-200.000	-0.003	0.031
-431.661	-151.505	-0.042	-0.003
-430.646	-101.499	0.421	-0.101
-429.632	800.000	0.021	0.073
-428.617	-42.630	-0.413	-0.207
-427.603	800.000	-0.008	-0.033
-426.588	-200.000	0.011	0.107
-425.573	-200.000	0.014	-0.068
-424.559	-35.520	0.340	0.182
-423.544	197.305	0.009	0.014
-422.530	-126.642	0.073	-0.011
-421.515	92.776	0.082	0.091
-420.500	-148.079	-0.158	-0.013
-419.486	58.419	-0.116	-0.113
-418.471	3.745	-0.182	0.131
-417.457	67.778	-0.274	0.276
-416.442	-200.000	-0.001	0.098
-415.428	800.000	0.074	-0.289
-414.413	-200.000	0.016	0.197
-413.398	800.000	-0.046	0.134
-412.384	-18.819	-0.303	0.186
-411.369	52.965	0.148	0.140
-410.355	-156.200	0.167	0.010
-409.340	131.850	0.150	0.190
-408.325	800.000	0.109	-0.369
-407.311	800.000	0.139	0.423
-406.296	-200.000	0.009	-0.126
-405.282	-200.000	0.269	0.001
-404.267	610.652	0.046	-0.113
-403.252	-113.801	-0.171	-0.033
-402.238	189.642	-0.242	-0.359
-401.223	800.000	0.058	0.191
-400.209	63.933	-0.092	-0.092
-399.194	77.032	0.176	0.184
-398.179	-147.849	0.212	-0.017
-397.165	142.097	-0.247	0.323
-396.150	149.144	0.147	-0.196
-395.136	409.142	-0.065	0.135
-394.121	125.210	-0.091	-0.113
-393.106	-33.305	-0.082	-0.045
-392.092	-75.476	0.145	-0.051
-391.077	-17.965	-0.307	0.190
-390.063	210.022	-0.090	0.140
-389.048	88.374	-0.190	0.208
-388.033	27.039	-0.223	-0.185
-387.019	75.659	0.170	0.177
-386.004	-106.409	-0.137	0.030
-384.990	-74.266	-0.486	0.173
-383.975	-87.738	0.321	-0.095
-382.960	-67.704	0.172	0.066
-381.946	-143.113	-0.295	0.028
-380.931	25.422	-0.038	-0.031
-379.917	766.414	-0.083	0.223
-378.902	-158.964	0.118	-0.007
-377.888	27.668	-0.236	0.196
-376.873	-91.867	0.065	0.018
-375.858	-200.000	0.007	0.180
-374.844	533.498	-0.061	0.143
-373.829	487.252	-0.085	-0.190
-372.815	-10.542	-0.228	-0.149
-371.800	800.000	-0.180	0.610
-370.785	42.729	0.141	-0.126
-369.771	-11.037	0.004	0.003
-368.756	81.806	-0.175	-0.186
-367.742	-35.504	0.263	0.141
-366.727	166.437	-0.248	-0.345
-365.712	33.203	-0.055	0.047
-364.698	800.000	-0.032	-0.092
-363.683	502.516	-0.042	-0.096
-362.669	647.017	-0.122	-0.308
-361.654	530.633	-0.128	-0.297
-360.639	162.466	-0.183	0.253
-359.625	-93.345	-0.079	0.022
-358.610	602.685	0.140	0.343
-357.596	-51.365	0.224	0.103
-356.581	-200.000	-0.070	-0.328
-355.566	-25.404	-0.475	0.276
-354.552	-181.101	-0.411	0.008
-353.537	-47.585	0.234	-0.112
-352.523	800.000	0.104	-0.325
-351.508	159.317	0.094	-0.129
-350.493	525.088	-0.114	-0.265
-349.479	-55.928	0.095	-0.042
-348.464	-1.268	-0.102	-0.071
-347.450	-70.416	-0.207	0.077
-346.435	3.406	0.258	-0.185
-345.420	-26.770	-0.117	0.067
-344.406	-200.000	-0.078	0.450
-343.391	372.396	0.085	0.169
-342.377	109.562	0.071	0.084
-341.362	92.906	-0.074	-0.082
-340.348	-46.150	-0.144	-0.070
-339.333	-60.877	0.276	0.115
-338.318	-50.056	0.286	0.133
-337.304	680.825	-0.046	-0.117
-336.289	-200.000	0.009	0.234
-335.275	-8.385	0.247	0.163
-334.260	800.000	-0.036	0.107
-333.245	-71.110	0.140	-0.052
-332.231	-77.339	-0.118	-0.040
-331.216	-200.000	-0.023	0.147
-330.202	45.191	0.142	-0.129
-329.187	800.000	-0.129	-0.389
-328.172	131.965	0.087	0.110
-327.158	-200.000	-0.096	0.438
-326.143	174.353	0.112	0.160
-325.129	-200.000	-0.028	0.335
-324.114	-50.342	0.131	0.061
-323.099	-200.000	-0.023	-0.310
-322.085	800.000	0.040	0.118
-321.070	-83.574	0.395	-0.124
-320.056	117.557	0.066	0.080
-319.041	-58.122	-0.231	-0.099
-318.026	155.369	-0.167	-0.226
-317.012	150.375	0.236	-0.315
-315.997	-31.685	-0.164	-0.090
-314.983	115.611	0.291	-0.350
-313.968	161.880	0.166	-0.228
-312.953	-200.000	0.079	-0.355
-311.939	80.829	-0.189	-0.200
-310.924	-200.000	0.015	-0.210
-309.910	218.702	-0.068	0.107
-308.895	-89.794	0.075	-0.022
-307.880	168.844	-0.093	0.130
-306.866	91.162	-0.164	0.181
-305.851	179.400	-0.147	-0.211
-304.837	-153.774	0.092	0.006
-303.822	-123.707	0.213	-0.033
-302.807	-200.000	0.028	0.129
-301.793	413.066	0.067	-0.140
-300.778	419.905	0.083	-0.175
-299.764	56.295	0.272	-0.259
-298.749	387.592	-0.196	0.397
-297.735	236.878	-0.125	-0.203
-296.720	-76.263	-0.291	-0.101
-295.705	-200.000	-0.022	0.339
-294.691	-139.599	0.212	-0.022
-293.676	157.930	-0.089	-0.121
-292.662	-200.000	0.011	0.216
-291.647	0.723	0.228	-0.160
-290.632	31.819	0.151	0.128
-289.618	-200.000	0.033	0.228
-288.603	245.180	0.159	0.263
-287.589	800.000	-0.102	-0.405
-286.574	800.000	0.055	-0.182
-285.559	-63.796	-0.207	0.083
-284.545	-50.988	-0.178	0.082
-283.530	46.082	-0.314	-0.286
-282.516	-72.347	0.173	0.063
-281.501	-99.235	-0.130	-0.032
-280.486	63.796	-0.122	-0.120
-279.472	-200.000	-0.054	-0.365
-278.457	-50.141	-0.154	-0.071
-277.443	90.347	0.088	-0.097
-276.428	262.061	-0.033	-0.057
-275.413	-93.795	-0.170	0.046
-274.399	53.475	0.091	-0.085
-273.384	-44.467	-0.040	0.020
-272.370	25.595	-0.172	0.141
-271.355	-184.100	0.267	0.004
-270.340	-76.114	0.159	0.055
-269.326	-71.936	-0.224	-0.082
-268.311	800.000	-0.121	0.328
-267.297	433.854	-0.070	-0.149
-266.282	604.111	-0.078	-0.191
-265.267	-41.266	0.301	-0.152
-264.253	-100.173	-0.256	-0.063
-263.238	282.990	0.119	-0.209
-262.224	-112.002	-0.364	0.072
-261.209	-13.552	0.371	-0.236
-260.195	-153.439	-0.214	-0.015
-259.180	-16.552	0.274	0.170
-258.165	591.269	-0.093	-0.224
-257.151	674.828	-0.057	-0.146
-256.136	14.095	0.190	0.145
-255.122	-200.000	-0.053	-0.363
-254.107	87.773	0.337	-0.367
-253.092	227.260	0.109	0.173
-252.078	-200.000	-0.031	0.205
-251.063	-200.000	0.036	0.545
-250.049	-3.662	-0.063	-0.043
-249.034	800.000	0.091	0.358
-248.019	409.244	0.019	-0.040
-247.005	-69.125	-0.125	0.047
-245.990	-5.840	0.246	-0.165
-244.976	508.309	-0.056	0.128
-243.961	-200.000	0.006	0.190
-242.946	89.888	0.200	0.219
-241.932	96.754	-0.073	0.082
-240.917	261.620	0.054	0.091
-239.903	-144.460	0.355	-0.032
-238.888	1.556	-0.085	0.060
-237.873	-174.618	-0.129	-0.004
-236.859	34.021	0.067	-0.057
-235.844	-128.241	-0.080	0.011
-234.830	-148.229	0.107	0.009
-233.815	47.636	-0.153	0.140
-232.800	-141.145	-0.130	0.013
-231.786	-55.029	0.303	0.134
-230.771	-22.547	-0.372	0.220
-229.757	-129.482	0.123	-0.017
-228.742	112.275	0.100	-0.119
-227.727	-190.416	0.324	-0.003
-226.713	-98.674	0.107	-0.027
-225.698	-97.441	-0.333	0.085
-224.684	-16.117	0.208	-0.129
-223.669	-103.562	-0.204	0.047
-222.655	165.828	-0.141	-0.195
-221.640	63.801	0.225	0.221
-220.625	-200.000	0.019	-0.177
-219.611	-11.178	-0.131	0.084
-218.596	-71.038	-0.328	-0.121
-217.582	53.794	0.078	0.074
-216.567	-200.000	0.038	0.290
-215.552	153.834	-0.047	-0.063
-214.538	156.991	-0.166	0.225
-213.523	232.624	0.277	-0.445
-212.509	149.062	-0.077	0.102
-211.494	-200.000	-0.021	-0.296
-210.479	-65.070	-0.096	-0.038
-209.465	-200.000	0.016	-0.222
-208.450	-60.450	0.289	-0.120
-207.436	-104.478	-0.087	0.020
-206.421	71.819	0.239	0.243
-205.406	59.883	-0.240	-0.232
-204.392	800.000	-0.043	0.148
-203.377	-116.740	0.291	0.052
-202.363	800.000	-0.037	-0.139
-201.348	-200.000	-0.012	-0.155
-200.333	18.877	0.394	-0.309
-199.319	800.000	0.073	-0.227
-198.304	-200.000	-0.038	0.262
-197.290	41.757	-0.149	0.132
-196.275	-18.711	0.065	-0.040
-195.260	93.112	-0.114	0.126
-194.246	-83.351	-0.314	0.099
-193.231	168.512	-0.143	0.199
-192.217	-192.728	0.060	-0.001
-191.202	531.357	0.059	0.136
-190.187	-200.000	0.030	-0.136
-189.173	18.126	-0.259	0.202
-188.158	71.518	0.145	0.147
-187.144	107.737	0.187	-0.218
-186.129	800.000	-0.104	0.409
-185.114	800.000	0.098	-0.298
-184.100	800.000	0.129	0.527
-183.085	633.489	0.024	-0.058
-182.071	-109.023	-0.432	0.090
-181.056	1.244	-0.251	0.176
-180.042	-200.000	-0.035	0.179
-179.027	-139.035	0.228	-0.024
-178.012	394.764	-0.115	0.235
-176.998	-11.590	0.175	-0.112
-175.983	58.373	-0.069	0.066
-174.969	-30.389	0.230	0.128
-173.954	1.668	-0.075	-0.053
-172.939	-60.844	-0.132	0.054
-171.925	-39.638	0.084	-0.043
-170.910	59.514	-0.239	0.230
-169.896	-200.000	-0.017	-0.307
-168.881	800.000	-0.058	-0.185
-167.866	-200.000	-0.021	-0.122
-166.852	-84.788	-0.151	-0.047
-165.837	-200.000	-0.041	-0.325
-164.823	-57.898	0.229	-0.098
-163.808	-83.764	0.181	-0.056
-162.793	5.876	-0.287	0.208
-161.779	-200.000	0.015	0.093
-160.764	442.325	-0.246	-0.527
-159.750	612.224	-0.034	0.082
-158.735	-200.000	-0.091	-0.439
-157.720	13.097	-0.251	-0.190
-156.706	-122.320	-0.117	-0.019
-155.691	800.000	-0.092	0.265
-154.677	-9.978	0.373	-0.242
-153.662	-200.000	0.011	0.374
-152.647	41.812	0.232	-0.205
-151.633	-135.920	0.428	0.049
-150.618	-25.197	-0.180	-0.104
-149.604	-161.581	-0.289	0.014
-148.589	-74.886	0.378	-0.132
-147.574	-99.498	0.226	-0.055
-146.560	-67.671	0.207	-0.079
-145.545	265.158	0.051	-0.087
-144.531	142.644	0.089	0.116
-143.516	-138.877	0.138	0.015
-142.502	800.000	-0.121	0.419
-141.487	-42.272	0.056	-0.028
-140.472	427.324	-0.097	0.205
-139.458	281.897	-0.122	0.213
-138.443	652.533	-0.041	-0.104
-137.429	679.113	0.057	0.144
-136.414	-200.000	0.014	0.335
-135.399	186.023	0.211	0.306
-134.385	183.603	-0.156	-0.225
-133.370	71.232	0.149	0.150
-132.356	43.866	0.057	0.051
-131.341	-38.064	0.045	-0.023
-130.326	-200.000	0.022	-0.118
-129.312	-200.000	0.001	0.301
-128.297	-67.265	0.118	0.045
-127.283	36.587	0.119	0.102
-126.268	-200.000	-0.005	0.332
-125.253	17.993	-0.085	0.066
-124.239	-200.000	-0.049	-0.290
-123.224	-99.157	0.146	-0.036
-122.210	-11.861	0.232	0.149
-121.195	-200.000	-0.015	-0.075
-120.180	524.448	0.259	0.594
-119.166	191.451	-0.160	-0.235
-118.151	-50.498	0.249	-0.114
-117.137	-200.000	-0.009	-0.098
-116.122	-104.351	0.520	0.118
-115.107	-200.000	-0.019	0.081
-114.093	800.000	0.131	0.545
-113.078	-200.000	-0.032	0.177
-112.064	44.036	0.066	-0.059
-111.049	-25.375	0.076	0.044
-110.034	4.936	0.402	-0.288
-109.020	-200.000	0.054	0.569
-108.005	-59.372	0.148	-0.062
-106.991	-21.193	0.190	-0.113
-105.976	-200.000	0.027	-0.390
-104.962	-200.000	0.029	-0.124
-103.947	-178.323	-0.181	0.004
-102.932	-31.354	0.167	-0.091
-101.918	-53.945	0.312	-0.139
-100.903	162.935	-0.051	0.070
-99.889	-200.000	-0.063	-0.340
-98.874	-200.000	0.069	0.437
-97.859	-130.667	0.338	0.044
-96.845	-6.479	0.278	0.184
-95.830	-24.321	0.282	-0.164
-94.816	-128.881	0.436	0.060
-93.801	104.737	0.203	0.233
-92.786	-88.607	-0.265	0.077
-91.772	-122.752	-0.152	-0.024
-90.757	-91.140	-0.188	-0.053
-89.743	292.465	0.129	0.228
-88.728	-200.000	-0.009	0.228
-87.713	5.602	-0.178	0.128
-86.699	-200.000	-0.027	-0.177
-85.684	-200.000	0.036	-0.160
-84.670	-47.816	0.343	-0.162
-83.655	67.454	-0.199	0.198
-82.640	-96.134	-0.279	0.072
-81.626	800.000	0.092	0.301
-80.611	-137.284	0.238	-0.026
-79.597	-155.451	-0.152	-0.010
-78.582	677.117	-0.162	-0.409
-77.567	-105.440	-0.273	0.060
-76.553	114.954	-0.175	0.207
-75.538	-84.255	0.232	0.072
-74.524	-2.951	-0.025	-0.017
-73.509	-67.260	0.355	0.136
-72.494	148.504	-0.201	0.264
-71.480	19.430	0.061	0.048
-70.465	130.540	-0.195	-0.243
-69.451	-36.456	0.059	-0.031
-68.436	-200.000	-0.008	0.052
-67.422	-200.000	-0.012	0.087
-66.407	-28.795	0.165	-0.093
-65.392	68.877	0.134	0.134
-64.378	71.869	-0.170	0.172
-63.363	195.112	-0.098	0.145
-62.349	800.000	-0.076	0.303
-61.334	112.899	-1.039	-1.225
-60.319	123.851	0.559	0.683
-59.305	606.916	-0.592	-1.435
-58.290	405.242	0.689	1.412
-57.276	221.129	0.890	1.390
-56.261	-200.000	120.737	642.631
-55.246	437.889	1532.363	3250.259
-54.232	149.303	2686.855	3537.858
-53.217	93.562	2269.636	2499.740
-52.203	33.556	1887.868	1595.574
-51.188	27.676	1685.676	1380.281
-50.173	25.417	1646.736	1331.617
-49.159	46.229	1713.464	1544.006
-48.144	44.286	1725.793	1540.341
-47.130	27.147	1678.241	1369.987
-46.115	24.648	1662.766	1338.609
-45.100	24.409	1658.707	1333.506
-44.086	24.390	1656.189	1331.285
-43.071	24.424	1653.033	1328.948
-42.057	24.408	1650.865	1327.036
-41.042	24.401	1648.689	1325.182
-40.027	24.429	1647.088	1324.053
-39.013	24.353	1645.707	1322.325
-37.998	24.442	1643.592	1321.232
-36.984	24.385	1642.720	1320.055
-35.969	24.498	1641.094	1319.534
-34.954	24.541	1639.089	1318.187
-33.940	24.526	1637.771	1316.960
-32.925	24.522	1635.953	1315.420
-31.911	24.519	1634.608	1314.259
-30.896	24.512	1633.067	1312.917
-29.881	24.511	1631.170	1311.336
-28.867	24.485	1629.808	1309.999
-27.852	24.537	1628.117	1308.965
-26.838	24.528	1626.698	1307.710
-25.823	24.588	1625.686	1307.285
-24.809	24.559	1624.421	1306.003
-23.794	24.471	1622.979	1304.148
-22.779	24.561	1621.281	1303.389
-21.765	24.583	1619.604	1302.145
-20.750	24.512	1618.204	1300.454
-19.736	24.663	1616.303	1299.973
-18.721	24.541	1615.369	1298.280
-17.706	24.596	1613.746	1297.323
-16.692	24.551	1612.645	1296.063
-15.677	24.536	1611.544	1295.022
-14.663	24.574	1609.521	1293.617
-13.648	24.626	1608.314	1292.974
-12.633	24.490	1607.390	1291.198
-11.619	24.533	1605.944	1290.290
-10.604	24.538	1603.993	1288.709
-9.590	24.563	1602.537	1287.670
-8.575	24.621	1601.341	1287.076
-7.560	24.619	1600.299	1286.174
-6.546	24.625	1599.324	1285.378
-5.531	24.588	1598.505	1284.403
-4.517	24.614	1596.719	1283.103
-3.502	24.528	1596.228	1282.040
-2.487	24.492	1594.696	1280.500
-1.473	24.144	1582.370	1268.081
-0.458	21.100	1563.253	1231.263
0.556	16.402	1565.218	1199.196
1.571	14.049	1588.296	1199.807
2.586	13.846	1600.701	1207.594
3.600	13.060	1547.603	1161.900
4.615	7.589	1442.486	1046.908
5.629	1.908	1382.659	967.431
6.644	0.858	1375.863	955.960
7.659	0.819	1374.327	954.561
8.673	0.710	1373.820	953.437
9.688	0.822	1371.214	952.247
10.702	0.601	1367.944	948.505
11.717	3.482	1371.511	969.015
12.731	10.376	1382.410	1020.167
13.746	15.896	1390.152	1060.654
14.761	17.401	1391.351	1070.961
15.775	16.817	1389.523	1065.782
16.790	15.823	1387.022	1057.529
17.804	14.938	1384.993	1050.334
18.819	14.677	1383.027	1047.110
19.834	14.354	1382.337	1044.471
20.848	14.136	1381.025	1042.020
21.863	13.827	1379.695	1038.995
22.877	13.710	1378.324	1037.138
23.892	13.665	1377.393	1036.061
24.907	13.721	1376.756	1035.843
25.921	13.644	1376.140	1034.809
26.936	13.697	1374.668	1033.936
27.950	13.796	1373.830	1033.834
28.965	13.770	1373.066	1033.007
29.980	13.854	1371.916	1032.569
30.994	13.778	1371.469	1031.672
32.009	13.887	1370.174	1031.280
33.023	13.791	1369.102	1029.790
34.038	13.856	1368.000	1029.269
35.053	13.885	1366.541	1028.264
36.067	13.867	1365.581	1027.335
37.082	13.871	1364.175	1026.215
38.096	13.814	1363.575	1025.320
39.111	13.882	1363.040	1025.245
40.126	13.725	1362.128	1023.502
41.140	13.707	1361.190	1022.596
42.155	13.809	1360.531	1022.640
43.169	13.665	1360.935	1021.964
44.184	13.691	1360.715	1021.867
45.199	13.670	1359.843	1020.991
46.213	13.676	1359.087	1020.369
47.228	13.793	1358.181	1020.321
48.242	13.694	1356.733	1018.532
49.257	13.718	1355.940	1017.995
50.271	13.758	1354.202	1016.845
51.286	13.764	1353.127	1015.985
52.301	13.780	1351.733	1014.947
53.315	13.752	1350.754	1013.953
54.330	13.690	1349.844	1012.802
55.344	13.773	1348.660	1012.328
56.359	13.783	1346.764	1010.879
57.374	13.597	1346.472	1009.438
58.388	13.713	1345.769	1009.523
59.403	13.738	1345.147	1009.122
60.417	13.606	1344.742	1007.927
61.432	13.706	1343.495	1007.507
62.447	13.604	1342.707	1006.213
63.461	13.581	1341.345	1004.963
64.476	13.650	1339.972	1004.262
65.490	13.533	1339.191	1002.880
66.505	13.664	1337.656	1002.431
67.520	13.643	1336.449	1001.310
68.534	13.560	1335.680	1000.147
69.549	13.587	1334.335	999.211
70.563	13.671	1332.996	998.630
71.578	13.639	1331.655	997.346
72.593	13.589	1331.184	996.601
73.607	13.634	1330.260	996.094
74.622	13.578	1329.309	994.953
75.636	13.572	1328.987	994.588
76.651	13.496	1328.040	993.338
77.666	13.574	1327.330	993.185
78.680	13.621	1326.869	993.034
79.695	13.734	1325.620	992.691
80.709	13.645	1325.626	992.075
81.724	13.734	1324.372	991.577
82.739	13.600	1323.194	989.811
83.753	13.724	1322.356	989.834
84.768	13.717	1321.166	988.813
85.782	13.775	1320.261	988.392
86.797	13.881	1318.660	987.740
87.812	13.646	1317.517	985.398
88.826	13.781	1315.943	984.938
89.841	13.663	1315.749	984.001
90.855	13.712	1314.688	983.412
91.870	13.753	1313.733	982.857
92.884	13.790	1312.578	982.121
93.899	13.854	1311.747	981.794
94.914	13.853	1310.815	981.006
95.928	13.905	1310.055	980.656
96.943	13.930	1309.154	980.043
97.957	13.724	1308.456	978.214
98.972	13.853	1306.843	977.685
99.987	13.825	1305.710	976.584
101.001	13.776	1305.087	975.742
102.016	13.832	1303.924	975.117
103.030	13.851	1303.279	974.660
104.045	13.787	1302.564	973.667
105.060	13.734	1301.087	972.165
106.074	13.801	1299.952	971.624
107.089	13.655	1298.472	969.573
108.103	13.685	1297.649	969.049
109.118	13.633	1296.210	967.589
110.133	13.682	1294.928	966.829
111.147	13.697	1293.193	965.537
112.162	13.659	1292.205	964.490
113.176	13.696	1291.232	963.895
114.191	13.787	1290.037	963.448
115.206	13.798	1289.089	962.716
116.220	13.734	1287.965	961.423
117.235	13.744	1286.620	960.392
118.249	13.791	1285.332	959.615
119.264	13.669	1284.004	957.833
120.279	13.672	1283.050	957.057
121.293	13.599	1282.663	956.263
122.308	13.700	1281.164	955.639
123.322	13.718	1279.831	954.667
124.337	13.743	1278.710	953.891
125.352	13.709	1278.060	953.126
126.366	13.789	1276.619	952.424
127.381	13.649	1275.920	951.017
128.395	13.687	1274.313	949.950
129.410	13.596	1273.833	948.986
130.424	13.737	1272.455	948.686
131.439	13.732	1271.527	947.881
132.454	13.748	1270.528	947.145
133.468	13.800	1269.871	946.868
134.483	13.843	1268.869	946.278
135.497	13.888	1268.003	945.804
136.512	13.814	1266.638	944.287
137.527	13.798	1265.324	943.130
138.541	13.740	1263.921	941.669
139.556	13.721	1262.950	940.757
140.570	13.828	1261.708	940.355
141.585	13.916	1260.602	939.944
142.600	13.759	1259.703	938.307
143.614	13.847	1258.666	937.948
144.629	14.022	1256.950	937.569
145.643	13.903	1256.664	936.607
146.658	13.856	1254.996	935.013
147.673	13.896	1254.001	934.416
148.687	13.893	1252.872	933.472
149.702	13.766	1251.771	931.859
150.716	13.903	1249.748	931.040
151.731	13.882	1248.917	930.221
152.746	14.003	1247.481	929.741
153.760	14.006	1246.372	928.851
154.775	13.929	1245.520	927.703
155.789	13.921	1244.635	926.917
156.804	14.136	1243.098	926.889
157.819	14.031	1242.324	925.648
158.833	14.051	1241.506	925.066
159.848	14.142	1240.263	924.565
160.862	14.078	1239.096	923.254
161.877	13.991	1238.572	922.303
162.892	14.020	1237.277	921.417
163.906	14.058	1235.969	920.571
164.921	14.172	1235.006	920.404
165.935	14.106	1234.172	919.337
166.950	14.136	1233.480	918.904
167.964	14.174	1232.730	918.473
168.979	14.086	1232.311	917.594
169.994	14.074	1231.211	916.629
171.008	14.144	1230.551	916.444
172.023	14.181	1229.342	915.666
173.037	14.177	1228.796	915.154
174.052	14.195	1228.052	914.620
175.067	14.138	1226.973	913.423
176.081	14.187	1226.039	912.912
177.096	14.101	1225.151	911.699
178.110	14.108	1224.211	910.960
179.125	14.206	1223.053	910.553
180.140	14.105	1221.945	909.094
181.154	14.210	1220.113	908.227
182.169	14.078	1219.477	906.951
183.183	14.262	1217.949	906.738
184.198	14.315	1216.912	906.170
185.213	14.325	1215.848	905.353
186.227	14.339	1214.867	904.620
187.242	14.375	1213.774	903.919
188.256	14.466	1212.928	903.707
189.271	14.367	1211.648	902.133
190.286	14.292	1210.812	901.028
191.300	14.241	1210.063	900.114
192.315	14.229	1209.594	899.618
193.329	14.191	1209.057	898.936
194.344	14.316	1208.187	898.885
195.359	14.366	1207.842	898.816
196.373	14.308	1207.413	898.109
197.388	14.520	1206.700	898.640
198.402	14.481	1206.212	897.988
199.417	14.521	1205.020	897.235
200.432	14.537	1204.062	896.527
201.446	14.560	1203.364	896.052
202.461	14.582	1202.948	895.782
203.475	14.572	1201.400	894.497
204.490	14.646	1200.291	893.987
205.504	14.629	1199.161	892.975
206.519	14.516	1198.077	891.485
207.534	14.561	1196.946	890.807
208.548	14.505	1196.319	889.960
209.563	14.578	1195.320	889.526
210.577	14.646	1194.232	889.003
211.592	14.639	1193.624	888.435
212.607	14.688	1192.556	887.823
213.621	14.753	1191.385	887.216
214.636	14.766	1190.563	886.593
215.650	14.667	1190.080	885.631
216.665	14.779	1188.969	885.319
217.680	14.907	1187.582	884.884
218.694	14.769	1187.113	883.728
219.709	14.852	1186.624	883.725
220.723	14.848	1185.565	882.837
221.738	14.765	1185.176	882.028
222.753	14.789	1184.534	881.600
223.767	14.818	1184.031	881.303
224.782	14.936	1182.957	881.047
225.796	14.992	1182.242	880.729
226.811	14.899	1181.618	879.697
227.826	14.833	1180.999	878.813
228.840	14.948	1180.280	878.804
229.855	14.840	1179.507	877.581
230.869	14.805	1178.780	876.779
231.884	14.924	1178.070	876.801
232.899	14.887	1177.011	875.742
233.913	14.913	1176.210	875.203
234.928	14.875	1175.615	874.484
235.942	14.958	1174.703	874.162
236.957	14.774	1174.537	872.999
237.972	14.961	1173.211	872.911
238.986	14.919	1172.802	872.314
240.001	14.935	1171.937	871.676
241.015	14.996	1170.990	871.209
242.030	14.976	1170.270	870.494
243.045	15.053	1169.361	870.141
244.059	14.940	1169.062	869.253
245.074	14.990	1167.808	868.505
246.088	15.109	1166.678	868.206
247.103	15.016	1166.537	867.539
248.117	15.134	1165.522	867.319
249.132	15.186	1164.758	866.946
250.147	15.312	1163.733	866.755
251.161	15.202	1163.451	865.900
252.176	15.242	1162.656	865.437
253.190	15.265	1162.062	865.036
254.205	15.328	1161.323	864.737
255.220	15.342	1161.001	864.495
256.234	15.331	1160.433	863.939
257.249	15.412	1159.488	863.572
258.263	15.292	1159.057	862.558
259.278	15.491	1157.878	862.626
260.293	15.486	1157.500	862.244
261.307	15.485	1156.747	861.599
262.322	15.440	1156.280	860.949
263.336	15.490	1155.609	860.629
264.351	15.537	1154.958	860.308
265.366	15.607	1154.328	860.117
266.380	15.611	1153.466	859.420
267.395	15.612	1152.816	858.866
268.409	15.561	1151.928	857.870
269.424	15.747	1151.195	858.193
270.439	15.606	1150.732	857.057
271.453	15.640	1149.772	856.440
272.468	15.559	1149.404	855.676
273.482	15.620	1148.512	855.248
274.497	15.538	1147.990	854.364
275.512	15.590	1147.649	854.301
276.526	15.713	1146.426	853.937
277.541	15.601	1145.681	852.740
278.555	15.739	1144.869	852.758
279.570	15.672	1144.642	852.175
280.585	15.872	1143.469	852.242
281.599	15.907	1142.218	851.407
282.614	15.734	1141.442	849.879
283.628	15.819	1140.056	849.203
284.643	15.875	1139.257	848.814
285.657	15.736	1138.575	847.533
286.672	15.801	1137.893	847.278
287.687	15.779	1137.289	846.641
288.701	15.983	1136.093	846.699
289.716	15.844	1135.556	845.528
290.730	15.886	1134.943	845.205
291.745	15.907	1133.999	844.536
292.760	15.894	1133.679	844.155
293.774	15.997	1132.839	843.974
294.789	15.993	1132.227	843.421
295.803	16.075	1131.496	843.212
296.818	16.014	1130.921	842.404
297.833	15.972	1129.910	841.366
298.847	15.959	1129.270	840.753
299.862	16.063	1128.465	840.595
300.876	16.086	1127.857	840.182
301.891	16.097	1127.085	839.586
302.906	16.120	1126.127	838.912
303.920	16.092	1125.936	838.559
304.935	16.168	1125.283	838.377
305.949	16.180	1124.777	837.984
306.964	16.148	1124.019	837.185
307.979	16.219	1123.020	836.719
308.993	16.190	1122.532	836.139
310.008	16.319	1121.353	835.825
311.022	16.152	1120.849	834.553
312.037	16.230	1119.771	834.058
313.052	16.327	1118.728	833.688
314.066	16.250	1118.291	832.908
315.081	16.213	1117.329	831.937
316.095	16.166	1116.202	830.794
317.110	16.151	1116.232	830.666
318.125	16.138	1115.400	829.909
319.139	16.211	1114.150	829.267
320.154	16.270	1113.599	829.073
321.168	16.329	1112.942	828.796
322.183	16.285	1112.221	827.972
323.197	16.284	1111.492	827.350
324.212	16.298	1111.315	827.213
325.227	16.340	1110.881	827.025
326.241	16.278	1110.090	826.058
327.256	16.325	1108.965	825.378
328.270	16.365	1108.306	825.010
329.285	16.339	1107.320	824.076
330.300	16.390	1106.380	823.554
331.314	16.368	1105.535	822.742
332.329	16.391	1104.979	822.369
333.343	16.482	1103.883	821.921
334.358	16.454	1103.154	821.170
335.373	16.455	1102.370	820.520
336.387	16.499	1102.061	820.432
337.402	16.573	1100.770	819.757
338.416	16.641	1100.394	819.734
339.431	16.589	1099.683	818.878
340.446	16.671	1098.947	818.655
341.460	16.762	1098.118	818.405
342.475	16.688	1097.374	817.422
343.489	16.720	1096.340	816.732
344.504	16.713	1095.474	815.981
345.519	16.734	1094.557	815.327
346.533	16.718	1093.718	814.554
347.548	16.854	1093.125	814.695
348.562	16.791	1092.883	814.137
349.577	16.676	1091.918	812.797
350.592	16.770	1090.993	812.484
351.606	16.726	1090.328	811.710
352.621	16.770	1089.595	811.301
353.635	16.776	1088.995	810.810
354.650	16.825	1087.918	810.171
355.665	16.862	1087.060	809.639
356.679	16.814	1087.163	809.411
357.694	16.870	1086.458	809.083
358.708	16.826	1085.918	808.400
359.723	16.885	1085.103	808.004
360.738	16.948	1084.058	807.452
361.752	16.869	1084.049	806.997
362.767	16.916	1083.313	806.604
363.781	16.920	1082.783	806.155
364.796	16.866	1082.297	805.466
365.810	16.991	1081.244	805.204
366.825	16.976	1080.968	804.860
367.840	17.202	1080.096	805.208
368.854	17.193	1079.603	804.726
369.869	17.105	1078.917	803.728
370.883	17.129	1078.037	803.115
371.898	17.135	1077.500	802.670
372.913	17.129	1076.884	802.114
373.927	17.172	1076.124	801.680
374.942	17.259	1075.546	801.586
375.956	17.226	1075.048	800.991
376.971	17.182	1074.269	800.132
377.986	17.287	1073.614	800.069
379.000	17.376	1073.233	800.129
380.015	17.401	1072.561	799.676
381.029	17.468	1071.800	799.352
382.044	17.368	1071.212	798.374
383.059	17.375	1070.936	798.132
384.073	17.342	1069.517	796.848
385.088	17.413	1068.682	796.487
386.102	17.396	1068.076	795.886
387.117	17.430	1067.125	795.268
388.132	17.260	1066.420	793.877
389.146	17.286	1065.822	793.483
390.161	17.297	1064.956	792.818
391.175	17.325	1064.314	792.402
392.190	17.520	1063.250	792.447
393.205	17.419	1062.583	791.410
394.219	17.479	1061.616	790.900
395.234	17.422	1061.081	790.165
396.248	17.412	1060.324	789.486
397.263	17.461	1059.156	788.775
398.278	17.417	1058.819	788.246
399.292	17.423	1057.701	787.376
400.307	17.497	1056.757	786.945
401.321	17.524	1056.427	786.755
402.336	17.442	1055.809	785.844
403.350	17.561	1054.957	785.689
404.365	17.560	1054.399	785.200
405.380	17.462	1053.825	784.253
406.394	17.562	1052.866	783.928
407.409	17.609	1051.915	783.369
408.423	17.766	1051.288	783.552
409.438	17.641	1050.713	782.480
410.453	17.660	1050.033	781.994
411.467	17.689	1049.337	781.539
412.482	17.744	1048.801	781.321
413.496	17.679	1048.193	780.500
414.511	17.799	1047.559	780.512
415.526	17.835	1046.799	780.039
416.540	17.918	1046.339	780.007
417.555	17.927	1046.081	779.784
418.569	17.918	1045.498	779.243
419.584	17.909	1045.041	778.791
420.599	17.906	1044.442	778.261
421.613	109.883	1328.354	1490.441
422.628	101.084	1369.650	1490.535
