DTS Sentinel unit serial number:	SN413079Multiplexer serial number:	ORYXHardware model number:	OX4-SRSoftware version number:	ORYX F/W v4.00 Oryx Data Collector v3.7.2.0data status	okinstallation	princeton_trtdifferential loss correction	single-endedforward channel	channel 2reverse channel	N/Adate	2019/09/12time	08:25:10forward acquisition time	60.00reverse acquisition time	0.00gamma	496.2192k internal	0.2318k external	0.2318temperature offset calibration	1.0063default loss term (dB/km)	0.3790temperature slope calibration	1.0000multiplexer offset coefficient	1.0000multiplexer slope coefficient	1.0000fibre end	0.00T internal ref (°C)	33.56T ext. ref 1 (°C)	1.69T ext. ref 2 (°C)	29.78length (m)	temperature (°C)	Stokes	anti-Stokes-747.200	-158.353	-0.177	0.010
-746.185	800.000	0.059	0.219
-745.171	-28.658	0.172	-0.100
-744.156	422.787	0.090	-0.196
-743.142	420.837	0.159	0.345
-742.127	-200.000	-0.000	-0.330
-741.112	406.101	-0.141	-0.301
-740.098	800.000	0.051	0.193
-739.083	173.305	0.246	0.359
-738.069	100.623	-0.141	0.166
-737.054	800.000	-0.049	0.197
-736.039	-200.000	0.008	0.099
-735.025	-112.954	0.294	0.059
-734.010	-131.898	-0.304	-0.040
-732.996	-200.000	0.003	-0.046
-731.981	-120.348	-0.271	0.047
-730.966	-44.219	-0.136	-0.069
-729.952	-189.729	-0.179	0.002
-728.937	242.593	0.066	-0.113
-727.923	132.764	-0.138	-0.180
-726.908	-113.877	0.338	0.066
-725.894	-85.523	-0.224	0.070
-724.879	38.738	0.089	-0.080
-723.864	-112.859	0.149	-0.030
-722.850	-69.239	-0.128	-0.050
-721.835	148.991	-0.120	-0.164
-720.821	-177.704	-0.275	0.007
-719.806	-85.237	-0.208	0.066
-718.791	-90.236	0.174	0.051
-717.777	-83.011	0.025	-0.008
-716.762	-44.267	0.288	-0.146
-715.748	-21.005	0.168	0.104
-714.733	258.445	0.065	0.114
-713.718	237.622	-0.019	0.033
-712.704	-200.000	-0.044	-0.247
-711.689	68.487	0.181	-0.187
-710.675	-200.000	0.084	-0.545
-709.660	800.000	-0.083	-0.303
-708.645	800.000	-0.070	0.212
-707.631	-153.105	0.171	-0.012
-706.616	800.000	0.014	-0.044
-705.602	-200.000	-0.001	0.038
-704.587	95.010	0.195	-0.224
-703.572	165.949	0.106	-0.152
-702.558	-154.109	-0.207	-0.014
-701.543	68.872	0.135	-0.140
-700.529	-49.924	0.167	0.080
-699.514	123.450	0.162	0.205
-698.499	402.758	-0.135	0.288
-697.485	451.202	-0.084	0.188
-696.470	587.324	-0.155	-0.385
-695.456	-47.434	0.242	-0.119
-694.441	366.632	0.073	-0.149
-693.426	-200.000	0.060	0.292
-692.412	193.658	0.182	-0.278
-691.397	198.765	0.107	-0.165
-690.383	-51.692	0.083	-0.039
-689.368	141.846	0.183	-0.245
-688.354	-189.257	0.290	0.003
-687.339	335.638	-0.133	0.261
-686.324	-17.645	-0.264	-0.167
-685.310	-91.061	-0.293	0.085
-684.295	-71.373	-0.269	0.102
-683.281	-45.156	-0.193	-0.097
-682.266	34.306	-0.082	0.072
-681.251	55.054	0.179	0.174
-680.237	-20.059	-0.241	-0.150
-679.222	-117.904	0.272	-0.049
-678.208	446.150	0.107	0.237
-677.193	100.825	-0.183	-0.215
-676.178	-108.529	-0.173	-0.037
-675.164	800.000	-0.021	0.063
-674.149	-109.145	-0.177	-0.038
-673.135	-29.590	0.292	-0.168
-672.120	-200.000	-0.016	-0.100
-671.105	232.620	-0.160	0.265
-670.091	-200.000	0.011	-0.188
-669.076	-200.000	0.015	0.198
-668.062	-41.037	-0.081	-0.042
-667.047	-200.000	-0.012	-0.121
-666.032	-200.000	-0.012	-0.274
-665.018	155.124	0.213	0.295
-664.003	-200.000	0.078	0.348
-662.989	-17.469	-0.265	-0.168
-661.974	-200.000	-0.011	-0.058
-660.959	-81.572	0.323	0.107
-659.945	-134.896	0.120	-0.015
-658.930	334.339	0.146	0.285
-657.916	73.116	0.121	0.127
-656.901	130.807	0.369	-0.477
-655.886	-200.000	0.003	0.299
-654.872	-200.000	-0.006	-0.109
-653.857	800.000	0.094	-0.344
-652.843	217.116	-0.052	-0.084
-651.828	189.566	-0.205	0.310
-650.814	121.357	0.063	0.079
-649.799	-200.000	0.017	0.092
-648.784	16.609	-0.316	-0.252
-647.770	800.000	0.024	0.075
-646.755	-65.636	-0.276	-0.112
-645.741	442.788	0.077	-0.170
-644.726	-74.883	0.084	-0.031
-643.711	27.894	0.227	0.193
-642.697	-155.223	0.124	0.008
-641.682	231.253	0.120	0.198
-640.668	-200.000	-0.039	-0.330
-639.653	-66.750	-0.146	0.058
-638.638	30.354	-0.081	0.070
-637.624	42.135	-0.188	0.172
-636.609	493.263	0.067	-0.156
-635.595	-103.626	-0.152	-0.036
-634.580	115.209	0.146	0.179
-633.565	-200.000	0.014	-0.093
-632.551	-200.000	-0.004	0.204
-631.536	51.818	-0.066	-0.063
-630.522	135.473	0.151	0.198
-629.507	800.000	-0.040	0.150
-628.492	800.000	-0.053	-0.176
-627.478	-200.000	-0.038	-0.431
-626.463	-102.199	0.294	-0.071
-625.449	-200.000	0.008	-0.225
-624.434	261.268	0.058	0.102
-623.419	800.000	0.028	0.099
-622.405	-49.244	-0.418	-0.201
-621.390	21.434	-0.226	0.185
-620.376	-105.849	-0.187	0.042
-619.361	-72.632	0.106	-0.039
-618.346	-1.046	-0.273	-0.195
-617.332	510.339	-0.136	-0.320
-616.317	-64.504	-0.208	0.085
-615.303	-64.269	-0.127	-0.052
-614.288	-137.394	-0.127	-0.015
-613.273	-200.000	-0.034	-0.228
-612.259	-47.660	-0.104	-0.051
-611.244	452.476	0.062	0.139
-610.230	70.766	0.173	0.180
-609.215	800.000	0.084	0.312
-608.201	23.148	-0.368	0.304
-607.186	-62.203	0.118	-0.049
-606.171	-0.286	0.158	0.113
-605.157	-200.000	-0.008	0.067
-604.142	436.583	0.056	-0.123
-603.128	-200.000	0.038	0.414
-602.113	800.000	-0.083	-0.282
-601.098	-14.965	-0.092	-0.059
-600.084	653.543	0.013	0.033
-599.069	214.470	0.076	-0.121
-598.055	-7.872	0.097	-0.066
-597.040	-200.000	0.006	-0.329
-596.025	615.910	-0.055	-0.138
-595.011	-109.278	0.327	0.070
-593.996	-71.485	-0.245	-0.092
-592.982	-200.000	0.004	-0.067
-591.967	-41.682	0.183	0.095
-590.952	338.175	0.057	-0.112
-589.938	40.575	0.061	-0.056
-588.923	43.585	-0.073	0.068
-587.909	254.857	0.098	0.169
-586.894	10.434	-0.299	-0.229
-585.879	-200.000	-0.028	-0.209
-584.865	-155.138	-0.299	-0.020
-583.850	-168.471	0.289	-0.011
-582.836	-58.074	-0.217	0.095
-581.821	-37.592	0.398	0.213
-580.806	209.535	-0.206	0.324
-579.792	-113.423	-0.305	-0.060
-578.777	29.136	-0.298	0.254
-577.763	125.148	0.064	0.081
-576.748	99.950	-0.157	-0.183
-575.733	800.000	0.039	-0.142
-574.719	49.864	0.047	-0.044
-573.704	800.000	0.046	-0.195
-572.690	-200.000	-0.015	-0.101
-571.675	-200.000	0.002	-0.135
-570.661	42.389	0.279	0.255
-569.646	-200.000	0.040	-0.191
-568.631	-113.953	0.133	0.026
-567.617	271.149	0.112	-0.199
-566.602	37.221	-0.121	-0.107
-565.588	-200.000	0.321	0.001
-564.573	-66.908	0.043	0.017
-563.558	214.258	-0.028	-0.045
-562.544	-167.669	0.371	-0.015
-561.529	-73.388	-0.249	0.091
-560.515	200.928	-0.097	0.150
-559.500	-200.000	-0.037	0.431
-558.485	-127.188	-0.333	-0.049
-557.471	-53.474	0.188	-0.086
-556.456	-200.000	0.001	-0.145
-555.442	-78.143	0.240	-0.083
-554.427	-200.000	0.001	0.123
-553.412	-129.130	-0.400	0.056
-552.398	-200.000	0.039	-0.526
-551.383	-200.000	0.014	-0.523
-550.369	-0.158	0.176	0.126
-549.354	-32.143	-0.412	-0.231
-548.339	800.000	-0.049	0.174
-547.325	800.000	-0.022	-0.069
-546.310	-5.045	0.223	-0.154
-545.296	800.000	-0.051	-0.148
-544.281	-200.000	0.038	-0.233
-543.266	-66.363	-0.179	0.071
-542.252	114.287	-0.197	-0.240
-541.237	216.959	-0.086	0.138
-540.223	33.715	-0.193	-0.169
-539.208	-186.574	-0.281	-0.004
-538.193	5.322	-0.048	0.035
-537.179	296.150	0.251	0.462
-536.164	-44.603	-0.128	0.064
-535.150	-66.419	0.091	-0.036
-534.135	-62.655	-0.155	-0.064
-533.121	13.394	-0.165	0.129
-532.106	-200.000	-0.040	-0.472
-531.091	-86.138	-0.088	0.027
-530.077	337.125	-0.126	-0.245
-529.062	-200.000	-0.040	-0.249
-528.048	-200.000	-0.008	-0.073
-527.033	-110.287	0.241	-0.050
-526.018	-37.103	-0.066	-0.036
-525.004	-62.998	0.172	-0.071
-523.989	-0.207	0.138	0.098
-522.975	-12.376	-0.181	-0.119
-521.960	-10.675	-0.219	-0.145
-520.945	-30.396	-0.104	-0.059
-519.931	-13.894	0.450	-0.291
-518.916	-140.630	-0.090	-0.009
-517.902	-200.000	0.021	-0.126
-516.887	-100.763	-0.181	0.045
-515.872	-102.561	0.232	0.056
-514.858	67.951	0.098	0.101
-513.843	-49.901	0.104	-0.050
-512.829	-200.000	-0.014	-0.071
-511.814	212.947	-0.131	-0.208
-510.799	216.780	-0.092	0.146
-509.785	500.668	-0.017	0.039
-508.770	301.403	0.063	-0.116
-507.756	150.152	0.145	-0.197
-506.741	-61.716	0.090	-0.038
-505.726	-101.751	-0.117	-0.028
-504.712	-92.580	0.062	0.017
-503.697	-50.469	0.206	-0.098
-502.683	-180.784	-0.167	-0.003
-501.668	-200.000	-0.112	0.598
-500.653	-60.225	0.122	-0.052
-499.639	61.616	0.041	0.041
-498.624	236.700	-0.220	-0.365
-497.610	-200.000	-0.056	-0.294
-496.595	183.491	0.073	-0.108
-495.581	-81.455	0.259	0.085
-494.566	146.014	0.196	0.263
-493.551	-200.000	0.009	0.199
-492.537	47.458	0.206	0.193
-491.522	369.124	0.121	-0.245
-490.508	527.436	-0.088	0.207
-489.493	642.051	-0.065	0.165
-488.478	-115.806	-0.112	0.021
-487.464	764.717	-0.051	-0.138
-486.449	553.634	-0.049	-0.118
-485.435	-200.000	-0.029	0.247
-484.420	30.023	-0.149	0.127
-483.405	26.949	0.167	0.140
-482.391	-200.000	-0.052	0.256
-481.376	-33.595	-0.111	-0.061
-480.362	262.846	-0.119	0.207
-479.347	-101.711	0.277	0.067
-478.332	449.613	-0.108	-0.238
-477.318	132.500	-0.087	-0.112
-476.303	-47.276	0.047	0.023
-475.289	800.000	0.081	0.231
-474.274	124.092	-0.091	-0.114
-473.259	15.529	-0.034	-0.027
-472.245	191.939	0.083	-0.126
-471.230	-136.794	0.324	-0.037
-470.216	-200.000	0.013	-0.061
-469.201	800.000	-0.096	0.331
-468.186	-122.645	0.567	0.092
-467.172	205.887	0.058	0.091
-466.157	464.070	-0.051	0.114
-465.143	800.000	-0.085	-0.237
-464.128	-195.648	0.143	-0.001
-463.113	344.829	-0.108	0.212
-462.099	-76.527	0.106	0.037
-461.084	-164.714	0.113	0.005
-460.070	422.914	0.097	-0.207
-459.055	-120.752	-0.129	0.022
-458.040	91.726	0.271	0.305
-457.026	22.141	-0.127	0.104
-456.011	-200.000	0.004	0.267
-454.997	-13.757	-0.023	0.015
-453.982	-25.255	-0.057	0.034
-452.968	-200.000	0.005	-0.223
-451.953	165.871	-0.167	-0.236
-450.938	800.000	0.062	0.248
-449.924	-200.000	0.056	-0.275
-448.909	-131.749	0.079	-0.010
-447.895	69.325	0.113	0.116
-446.880	800.000	0.071	0.277
-445.865	-200.000	0.023	-0.153
-444.851	-136.072	-0.387	0.045
-443.836	60.344	-0.119	-0.117
-442.822	324.425	-0.128	-0.244
-441.807	-200.000	0.161	0.000
-440.792	-200.000	-0.007	-0.090
-439.778	-82.777	-0.209	0.067
-438.763	-23.350	-0.165	0.099
-437.749	800.000	0.050	0.194
-436.734	800.000	0.090	0.307
-435.719	-34.693	-0.085	0.047
-434.705	43.451	0.171	-0.156
-433.690	574.452	0.073	0.179
-432.676	232.574	-0.054	0.088
-431.661	-200.000	0.029	0.422
-430.646	-200.000	0.006	-0.187
-429.632	800.000	0.053	0.190
-428.617	-82.077	0.196	0.064
-427.603	-13.940	0.110	0.071
-426.588	597.717	-0.069	0.170
-425.573	8.316	-0.197	-0.148
-424.559	-84.467	0.232	0.073
-423.544	138.529	0.152	-0.200
-422.530	-135.825	-0.070	0.008
-421.515	-200.000	-0.023	0.189
-420.500	800.000	0.076	0.242
-419.486	261.587	-0.112	-0.194
-418.471	705.719	0.029	-0.077
-417.457	405.977	-0.050	0.105
-416.442	-142.942	-0.219	0.021
-415.428	800.000	0.067	-0.241
-414.413	272.025	0.038	0.068
-413.398	148.571	-0.144	-0.194
-412.384	-200.000	-0.036	-0.164
-411.369	800.000	-0.029	-0.089
-410.355	-200.000	0.004	0.270
-409.340	32.514	-0.136	0.117
-408.325	432.757	0.072	0.157
-407.311	-77.335	0.369	0.128
-406.296	-61.334	0.222	0.093
-405.282	-86.775	0.252	0.077
-404.267	-200.000	0.030	0.401
-403.252	36.928	0.158	0.140
-402.238	-72.020	0.400	0.148
-401.223	108.522	0.208	-0.249
-400.209	342.702	0.034	-0.067
-399.194	-200.000	-0.032	0.170
-398.179	-200.000	-0.038	-0.258
-397.165	-2.815	0.118	-0.082
-396.150	-80.628	0.340	-0.113
-395.136	-200.000	-0.021	-0.404
-394.121	14.522	-0.116	-0.090
-393.106	-160.679	0.464	-0.025
-392.092	19.386	0.015	-0.012
-391.077	109.211	0.156	-0.186
-390.063	363.335	-0.121	0.242
-389.048	-99.838	-0.232	-0.058
-388.033	-200.000	0.018	-0.110
-387.019	46.018	0.138	-0.127
-386.004	58.680	0.115	-0.113
-384.990	80.421	-0.053	0.057
-383.975	497.490	0.153	-0.352
-382.960	-136.118	-0.298	0.035
-381.946	-173.622	0.354	0.011
-380.931	244.847	-0.134	0.225
-379.917	-200.000	-0.040	0.216
-378.902	-200.000	0.017	0.139
-377.888	-200.000	0.026	-0.153
-376.873	3.138	-0.156	-0.113
-375.858	-128.201	0.323	-0.046
-374.844	-24.092	-0.094	-0.056
-373.829	-200.000	-0.010	0.266
-372.815	-93.488	-0.269	-0.074
-371.800	-3.189	-0.291	0.203
-370.785	-105.128	0.047	0.011
-369.771	-200.000	0.051	0.263
-368.756	-150.922	-0.389	0.029
-367.742	-23.044	-0.345	0.208
-366.727	-200.000	-0.037	0.178
-365.712	-66.400	0.120	-0.048
-364.698	91.835	0.145	-0.163
-363.683	-13.288	0.140	0.091
-362.669	45.271	0.256	0.235
-361.654	-9.373	0.120	-0.080
-360.639	-28.023	-0.203	0.117
-359.625	-179.938	-0.309	0.007
-358.610	-79.729	0.125	-0.042
-357.596	391.162	-0.151	-0.313
-356.581	214.112	0.037	-0.058
-355.566	-128.674	-0.200	-0.028
-354.552	-200.000	0.015	-0.114
-353.537	-59.029	0.232	0.100
-352.523	-200.000	-0.014	-0.088
-351.508	307.238	0.083	-0.155
-350.493	-9.331	-0.224	0.149
-349.479	567.512	-0.064	0.154
-348.464	800.000	0.068	0.270
-347.450	119.608	0.293	0.361
-346.435	-17.686	-0.188	0.118
-345.420	57.048	0.018	-0.017
-344.406	-200.000	0.006	0.051
-343.391	587.054	-0.048	0.117
-342.377	-50.459	0.201	0.094
-341.362	-43.710	0.025	0.012
-340.348	-156.747	-0.164	0.010
-339.333	800.000	0.023	-0.069
-338.318	64.315	-0.232	-0.233
-337.304	228.679	0.045	-0.073
-336.289	21.704	0.159	0.129
-335.275	-47.001	-0.090	-0.044
-334.260	800.000	0.054	0.190
-333.245	-200.000	0.018	-0.110
-332.231	-200.000	-0.030	-0.279
-331.216	532.971	-0.156	0.367
-330.202	-51.814	0.313	0.145
-329.187	-200.000	0.021	-0.186
-328.172	-200.000	-0.026	-0.222
-327.158	199.965	-0.235	0.359
-326.143	-120.156	-0.219	-0.037
-325.129	-6.441	0.119	0.081
-324.114	-126.682	0.238	-0.035
-323.099	-200.000	0.035	0.247
-322.085	-64.454	-0.049	-0.020
-321.070	-57.816	-0.168	0.073
-320.056	38.386	0.126	0.111
-319.041	94.445	0.259	0.293
-318.026	-76.997	-0.240	0.083
-317.012	-75.786	0.442	-0.156
-315.997	-178.209	-0.190	0.004
-314.983	-46.272	-0.106	0.052
-313.968	44.504	-0.272	-0.249
-312.953	54.151	-0.157	-0.151
-311.939	-200.000	-0.045	0.242
-310.924	56.839	0.276	-0.267
-309.910	130.348	-0.125	0.160
-308.895	-193.631	-0.098	-0.001
-307.880	231.287	-0.130	0.211
-306.866	28.526	-0.241	-0.203
-305.851	271.544	0.141	-0.248
-304.837	-16.931	-0.351	0.221
-303.822	34.921	-0.091	0.079
-302.807	800.000	-0.047	0.169
-301.793	-200.000	-0.037	0.179
-300.778	-200.000	-0.022	-0.417
-299.764	-32.550	-0.237	0.131
-298.749	-103.401	-0.192	0.045
-297.735	-107.112	0.264	0.058
-296.720	545.857	0.015	0.037
-295.705	-20.516	0.204	-0.124
-294.691	-81.434	-0.241	0.079
-293.676	-121.679	0.402	-0.066
-292.662	-50.285	-0.095	0.045
-291.647	-200.000	0.002	-0.145
-290.632	10.023	-0.082	0.062
-289.618	800.000	-0.108	-0.362
-288.603	32.307	0.173	-0.148
-287.589	20.943	-0.212	-0.171
-286.574	-134.229	-0.235	0.029
-285.559	118.450	0.177	0.218
-284.545	150.606	-0.050	0.068
-283.530	87.094	0.297	-0.326
-282.516	-60.930	-0.187	-0.078
-281.501	114.540	-0.027	-0.032
-280.486	-200.000	-0.007	-0.068
-279.472	-133.843	-0.056	0.007
-278.457	-200.000	-0.058	-0.280
-277.443	236.283	-0.061	0.100
-276.428	13.482	0.128	0.099
-275.413	552.366	0.076	-0.183
-274.399	-200.000	0.000	0.113
-273.384	142.657	-0.176	-0.232
-272.370	-200.000	0.025	-0.115
-271.355	-200.000	0.006	0.190
-270.340	101.392	-0.101	-0.117
-269.326	487.776	-0.070	-0.159
-268.311	250.834	0.141	0.238
-267.297	219.806	0.123	0.196
-266.282	800.000	0.087	-0.283
-265.267	-3.538	0.101	0.070
-264.253	402.471	-0.109	0.227
-263.238	-200.000	-0.001	0.149
-262.224	-100.248	0.357	-0.088
-261.209	-200.000	0.010	-0.102
-260.195	-7.030	-0.165	0.111
-259.180	295.211	-0.076	-0.138
-258.165	-75.784	0.168	-0.059
-257.151	-3.156	0.216	0.149
-256.136	32.679	0.213	0.183
-255.122	-200.000	0.030	0.208
-254.107	236.853	0.082	-0.135
-253.092	-81.997	0.225	-0.073
-252.078	92.587	-0.169	-0.189
-251.063	800.000	-0.124	-0.348
-250.049	-35.842	0.248	-0.133
-249.034	-200.000	-0.022	0.460
-248.019	-24.111	-0.100	-0.059
-247.005	-117.661	0.397	0.071
-245.990	-200.000	-0.020	0.202
-244.976	298.836	-0.041	0.074
-243.961	22.917	-0.117	0.096
-242.946	-46.371	0.070	0.034
-241.932	-200.000	0.019	-0.147
-240.917	800.000	0.028	-0.093
-239.903	-48.082	0.351	0.168
-238.888	800.000	-0.110	0.361
-237.873	800.000	0.084	0.259
-236.859	101.768	0.131	0.152
-235.844	160.338	0.193	-0.267
-234.830	5.381	0.064	-0.047
-233.815	71.085	0.202	-0.208
-232.800	0.676	-0.291	-0.206
-231.786	-200.000	-0.014	-0.143
-230.771	-200.000	-0.097	0.447
-229.757	29.994	0.134	-0.113
-228.742	-99.248	-0.060	-0.015
-227.727	337.781	-0.130	0.251
-226.713	-200.000	0.031	-0.239
-225.698	-9.024	0.125	0.083
-224.684	800.000	-0.055	-0.174
-223.669	495.345	-0.219	-0.498
-222.655	-87.215	0.197	0.059
-221.640	122.308	-0.123	0.153
-220.625	11.022	0.193	0.146
-219.611	-67.005	-0.201	0.079
-218.596	21.624	-0.035	0.028
-217.582	210.623	-0.150	0.233
-216.567	800.000	-0.057	-0.176
-215.552	227.198	0.152	-0.244
-214.538	800.000	0.015	0.059
-213.523	-28.177	0.488	0.279
-212.509	107.531	0.144	0.170
-211.494	-200.000	0.007	0.037
-210.479	279.399	-0.124	0.219
-209.465	48.456	-0.184	-0.171
-208.450	81.976	0.073	-0.078
-207.436	-11.708	0.146	0.095
-206.421	-119.989	-0.072	-0.012
-205.406	-139.380	-0.090	-0.010
-204.392	800.000	-0.044	-0.129
-203.377	-121.336	-0.238	0.039
-202.363	-4.462	-0.212	-0.145
-201.348	52.467	0.173	-0.164
-200.333	-77.253	0.174	0.060
-199.319	-200.000	-0.023	-0.353
-198.304	-200.000	-0.023	0.158
-197.290	-200.000	-0.016	-0.078
-196.275	-186.826	-0.054	-0.001
-195.260	429.370	-0.128	0.275
-194.246	237.247	-0.063	-0.104
-193.231	117.170	0.075	0.092
-192.217	-103.281	-0.160	0.038
-191.202	-129.546	0.292	0.040
-190.187	-17.410	-0.351	0.219
-189.173	230.350	-0.068	-0.110
-188.158	24.070	0.156	-0.127
-187.144	800.000	0.069	0.244
-186.129	-76.750	-0.084	-0.029
-185.114	7.770	-0.196	-0.145
-184.100	69.466	-0.298	-0.304
-183.085	-21.006	-0.115	0.070
-182.071	800.000	-0.106	-0.321
-181.056	-14.949	-0.276	0.175
-180.042	-52.802	0.269	-0.123
-179.027	-70.532	-0.242	-0.091
-178.012	-48.695	-0.242	0.115
-176.998	-71.175	-0.034	0.013
-175.983	-15.419	0.135	0.085
-174.969	800.000	-0.067	-0.197
-173.954	800.000	0.083	0.250
-172.939	800.000	0.034	-0.120
-171.925	-88.234	0.140	-0.041
-170.910	9.110	-0.209	0.157
-169.896	129.154	-0.280	0.354
-168.881	227.921	-0.224	0.361
-167.866	-119.591	-0.042	0.007
-166.852	800.000	-0.094	-0.317
-165.837	-19.764	0.247	-0.151
-164.823	0.195	0.127	-0.089
-163.808	-41.119	0.230	0.117
-162.793	800.000	-0.046	0.156
-161.779	606.647	0.115	0.284
-160.764	-35.651	0.202	-0.108
-159.750	-61.596	0.058	0.024
-158.735	-200.000	0.033	-0.254
-157.720	31.031	0.124	-0.105
-156.706	-200.000	0.017	-0.180
-155.691	143.067	0.154	-0.203
-154.677	49.944	-0.071	-0.067
-153.662	86.764	0.130	0.142
-152.647	26.859	0.062	-0.051
-151.633	-200.000	-0.036	0.169
-150.618	311.600	0.115	0.213
-149.604	-13.782	-0.148	0.095
-148.589	70.619	0.173	-0.177
-147.574	-59.944	-0.144	0.061
-146.560	-3.324	0.121	-0.083
-145.545	130.763	-0.196	0.248
-144.531	-28.005	-0.299	0.171
-143.516	-200.000	0.013	0.225
-142.502	-200.000	0.031	0.368
-141.487	-115.280	-0.136	-0.025
-140.472	244.904	-0.039	-0.064
-139.458	-200.000	-0.008	0.291
-138.443	16.234	0.226	0.177
-137.429	295.788	0.308	0.558
-136.414	-41.230	-0.110	-0.056
-135.399	-72.045	0.164	-0.060
-134.385	800.000	0.080	-0.276
-133.370	800.000	-0.093	-0.400
-132.356	-144.048	0.133	0.012
-131.341	16.454	0.256	0.200
-130.326	50.974	0.216	-0.202
-129.312	22.253	-0.214	0.172
-128.297	-9.385	0.085	0.056
-127.283	-10.152	0.351	-0.230
-126.268	1.204	0.414	-0.294
-125.253	343.091	-0.083	-0.160
-124.239	646.703	0.095	-0.239
-123.224	146.107	0.145	-0.192
-122.210	800.000	0.065	0.180
-121.195	189.813	-0.059	0.088
-120.180	-49.392	0.202	-0.095
-119.166	-109.161	0.476	-0.100
-118.151	-61.581	-0.170	-0.070
-117.137	800.000	-0.054	0.222
-116.122	-103.678	0.264	0.061
-115.107	372.130	-0.158	0.316
-114.093	-0.953	-0.094	-0.065
-113.078	-55.900	-0.284	-0.125
-112.064	-58.687	0.284	-0.122
-111.049	253.080	-0.117	-0.198
-110.034	-79.554	-0.337	-0.112
-109.020	17.495	0.303	0.238
-108.005	-200.000	-0.011	0.310
-106.991	-172.574	0.057	-0.002
-105.976	-84.157	0.230	-0.072
-104.962	-200.000	0.029	0.159
-103.947	-95.804	-0.309	-0.082
-102.932	83.660	0.187	-0.201
-101.918	15.711	0.143	-0.111
-100.903	-54.471	0.298	-0.133
-99.889	-5.690	0.339	0.229
-98.874	-200.000	0.014	0.125
-97.859	-200.000	0.022	0.296
-96.845	-200.000	0.011	0.160
-95.830	-8.991	0.248	0.164
-94.816	800.000	0.037	-0.114
-93.801	0.844	-0.146	0.103
-92.786	308.312	-0.098	0.180
-91.772	800.000	-0.013	0.048
-90.757	221.175	0.189	-0.300
-89.743	8.420	-0.362	0.269
-88.728	64.117	0.035	0.035
-87.713	-26.345	-0.048	-0.028
-86.699	104.129	-0.138	-0.160
-85.684	-200.000	0.055	-0.395
-84.670	426.689	-0.049	0.104
-83.655	-150.508	0.411	0.031
-82.640	-200.000	-0.020	-0.100
-81.626	-200.000	0.058	-0.373
-80.611	-56.757	0.133	-0.058
-79.597	27.375	-0.324	-0.269
-78.582	237.793	-0.196	0.320
-77.567	-152.376	0.331	0.023
-76.553	-200.000	-0.002	0.110
-75.538	20.862	-0.226	-0.180
-74.524	-200.000	0.039	0.269
-73.509	-48.754	-0.215	-0.102
-72.494	-200.000	0.038	0.256
-71.480	-51.484	-0.210	0.097
-70.465	50.142	0.395	0.368
-69.451	261.084	0.102	0.174
-68.436	-34.516	-0.255	-0.137
-67.422	-19.826	0.276	0.168
-66.407	-132.607	0.168	0.021
-65.392	135.553	0.093	0.119
-64.378	455.380	0.019	-0.041
-63.363	-51.074	0.221	-0.102
-62.349	-200.000	0.023	0.146
-61.334	230.727	-0.765	-1.233
-60.319	137.738	0.387	0.499
-59.305	-200.000	-0.205	-0.905
-58.290	766.716	0.344	0.923
-57.276	800.000	0.519	1.545
-56.261	-200.000	98.629	590.718
-55.246	534.068	1415.329	3303.680
-54.232	149.060	2625.535	3498.580
-53.217	106.278	2302.382	2687.090
-52.203	42.865	1914.919	1718.962
-51.188	36.829	1703.616	1483.167
-50.173	34.058	1659.438	1423.940
-49.159	51.839	1708.213	1601.163
-48.144	54.631	1725.273	1638.261
-47.130	36.520	1682.009	1461.788
-46.115	33.628	1666.820	1426.812
-45.100	33.503	1661.851	1421.566
-44.086	33.430	1659.043	1418.563
-43.071	33.470	1656.622	1416.733
-42.057	33.475	1654.037	1414.505
-41.042	33.470	1651.600	1412.330
-40.027	33.452	1650.035	1410.799
-39.013	33.519	1647.693	1409.235
-37.998	33.439	1646.902	1407.909
-36.984	33.572	1644.988	1407.207
-35.969	33.590	1643.569	1406.071
-34.954	33.617	1642.079	1404.940
-33.940	33.515	1640.522	1402.796
-32.925	33.557	1638.339	1401.185
-31.911	33.559	1636.788	1399.819
-30.896	33.546	1634.706	1397.882
-29.881	33.530	1633.270	1396.485
-28.867	33.519	1631.471	1394.809
-27.852	33.569	1629.786	1393.678
-26.838	33.546	1628.634	1392.473
-25.823	33.542	1627.099	1391.078
-24.809	33.657	1625.101	1390.156
-23.794	33.644	1623.957	1389.029
-22.779	33.535	1622.908	1387.277
-21.765	33.545	1621.039	1385.694
-20.750	33.571	1619.330	1384.372
-19.736	33.645	1617.646	1383.414
-18.721	33.589	1616.048	1381.588
-17.706	33.672	1614.569	1380.869
-16.692	33.529	1613.115	1378.532
-15.677	33.535	1612.022	1377.586
-14.663	33.562	1610.620	1376.531
-13.648	33.612	1608.866	1375.342
-12.633	33.562	1607.737	1373.955
-11.619	33.566	1606.435	1372.819
-10.604	33.572	1604.479	1371.140
-9.590	33.618	1602.796	1369.976
-8.575	33.646	1601.808	1369.282
-7.560	33.527	1601.086	1367.746
-6.546	33.559	1599.870	1366.884
-5.531	33.595	1598.681	1366.077
-4.517	33.599	1597.547	1365.084
-3.502	33.566	1596.490	1363.890
-2.487	33.747	1594.950	1363.815
-1.473	33.440	1583.598	1351.869
-0.458	31.078	1564.895	1319.164
0.556	27.725	1565.091	1289.430
1.571	25.386	1589.941	1292.970
2.586	24.935	1603.497	1300.605
3.600	21.565	1548.741	1232.392
4.615	11.648	1434.422	1076.335
5.629	3.185	1367.618	972.798
6.644	1.897	1358.948	958.450
7.659	1.670	1358.005	956.276
8.673	1.637	1357.275	955.471
9.688	1.566	1354.644	953.090
10.702	1.275	1352.297	949.531
11.717	5.010	1359.359	977.866
12.731	15.388	1379.015	1057.646
13.746	23.852	1393.899	1122.663
14.761	26.057	1396.390	1138.500
15.775	26.324	1396.640	1140.288
16.790	26.399	1395.943	1140.091
17.804	26.546	1395.108	1140.236
18.819	26.756	1395.205	1141.532
19.834	26.870	1394.233	1141.354
20.848	26.866	1393.314	1140.477
21.863	26.926	1392.779	1140.314
22.877	26.807	1391.759	1138.636
23.892	26.908	1391.170	1138.686
24.907	26.833	1390.483	1137.550
25.921	26.861	1389.348	1136.698
26.936	26.893	1388.034	1135.719
27.950	26.969	1387.268	1135.469
28.965	26.982	1385.707	1134.170
29.980	26.806	1384.895	1132.309
30.994	26.855	1384.032	1131.808
32.009	26.871	1382.349	1130.434
33.023	26.958	1381.125	1129.872
34.038	26.941	1380.220	1128.924
35.053	26.942	1379.103	1127.920
36.067	26.861	1378.483	1126.808
37.082	26.970	1377.416	1126.512
38.096	26.880	1376.612	1125.199
39.111	26.888	1375.954	1124.612
40.126	26.938	1375.201	1124.206
41.140	26.845	1374.666	1123.094
42.155	26.875	1374.378	1122.942
43.169	26.868	1374.442	1122.852
44.184	26.883	1374.010	1122.494
45.199	26.874	1373.798	1122.165
46.213	26.860	1373.239	1121.526
47.228	26.877	1372.222	1120.698
48.242	26.875	1371.299	1119.836
49.257	26.853	1369.758	1118.338
50.271	26.923	1367.858	1117.119
51.286	26.851	1366.675	1115.613
52.301	26.825	1365.599	1114.476
53.315	26.819	1364.851	1113.730
54.330	26.875	1363.870	1113.177
55.344	26.875	1362.822	1112.221
56.359	26.805	1362.017	1111.040
57.374	26.861	1361.254	1110.658
58.388	26.914	1360.198	1110.024
59.403	26.870	1360.039	1109.529
60.417	26.852	1359.343	1108.753
61.432	26.910	1358.527	1108.339
62.447	26.767	1358.126	1107.046
63.461	26.837	1356.601	1106.125
64.476	26.873	1355.566	1105.405
65.490	26.939	1354.568	1104.895
66.505	26.927	1352.564	1103.094
67.520	26.833	1351.725	1101.740
68.534	26.881	1350.623	1101.032
69.549	26.862	1350.070	1100.371
70.563	26.975	1349.142	1100.199
71.578	26.918	1347.840	1098.698
72.593	26.966	1347.210	1098.374
73.607	26.877	1346.814	1097.420
74.622	26.915	1346.177	1097.034
75.636	26.929	1344.894	1095.974
76.651	26.889	1344.762	1095.528
77.666	26.879	1344.327	1095.017
78.680	26.924	1343.659	1094.646
79.695	26.894	1343.147	1093.952
80.709	26.860	1341.956	1092.679
81.724	26.872	1341.039	1091.907
82.739	26.808	1340.374	1090.884
83.753	26.922	1338.893	1090.266
84.768	26.967	1337.906	1089.641
85.782	26.875	1336.981	1088.240
86.797	26.894	1336.070	1087.516
87.812	26.895	1334.895	1086.466
88.826	26.876	1333.714	1085.295
89.841	26.948	1332.233	1084.424
90.855	27.047	1330.970	1083.893
91.870	26.973	1330.688	1083.124
92.884	26.976	1329.839	1082.356
93.899	26.976	1329.245	1081.774
94.914	26.996	1328.358	1081.077
95.928	26.895	1327.843	1079.961
96.943	26.999	1326.964	1079.773
97.957	26.970	1326.419	1079.058
98.972	26.984	1325.725	1078.485
99.987	26.944	1324.765	1077.367
101.001	26.890	1323.280	1075.743
102.016	26.948	1322.661	1075.491
103.030	26.967	1321.469	1074.540
104.045	26.905	1321.186	1073.845
105.060	26.909	1319.994	1072.804
106.074	26.901	1319.039	1071.886
107.089	26.979	1317.687	1071.153
108.103	26.918	1316.920	1070.078
109.118	26.987	1315.788	1069.471
110.133	26.991	1314.908	1068.684
111.147	26.992	1313.481	1067.431
112.162	26.935	1312.540	1066.238
113.176	26.968	1311.754	1065.700
114.191	27.059	1310.645	1065.237
115.206	27.102	1309.470	1064.444
116.220	26.956	1308.700	1062.866
117.235	26.982	1307.551	1061.991
118.249	27.035	1306.986	1061.751
119.264	27.097	1305.816	1061.064
120.279	27.075	1305.421	1060.525
121.293	27.154	1304.377	1060.042
122.308	27.106	1303.521	1058.976
123.322	27.006	1302.968	1057.849
124.337	27.111	1302.010	1057.586
125.352	27.184	1301.114	1057.189
126.366	27.022	1300.612	1055.746
127.381	27.071	1299.603	1055.118
128.395	27.133	1298.524	1054.511
129.410	27.143	1297.519	1053.656
130.424	27.190	1296.776	1053.234
131.439	27.185	1295.837	1052.351
132.454	27.052	1295.719	1051.391
133.468	27.062	1294.926	1050.713
134.483	26.971	1294.915	1050.083
135.497	27.101	1293.844	1049.874
136.512	27.038	1292.124	1048.021
137.527	27.122	1291.181	1047.650
138.541	26.989	1290.156	1045.955
139.556	27.033	1289.073	1045.242
140.570	27.121	1287.676	1044.518
141.585	27.050	1286.546	1043.102
142.600	27.055	1286.067	1042.651
143.614	27.108	1285.227	1042.185
144.629	27.027	1284.332	1040.898
145.643	26.986	1283.292	1039.729
146.658	26.944	1282.144	1038.471
147.673	27.064	1281.179	1038.279
148.687	26.914	1280.525	1036.804
149.702	26.949	1279.172	1035.816
150.716	26.951	1277.644	1034.497
151.731	26.952	1277.293	1034.126
152.746	27.064	1275.931	1033.568
153.760	27.062	1275.099	1032.794
154.775	26.972	1274.869	1032.001
155.789	27.044	1273.447	1031.173
156.804	27.049	1272.420	1030.277
157.819	27.071	1271.274	1029.383
158.833	27.012	1271.022	1028.750
159.848	27.136	1270.203	1028.698
160.862	27.016	1269.672	1027.502
161.877	27.003	1268.570	1026.445
162.892	27.179	1268.079	1026.952
163.906	27.134	1267.148	1025.850
164.921	27.228	1266.105	1025.448
165.935	27.128	1265.530	1024.325
166.950	27.098	1265.169	1023.775
167.964	27.066	1264.843	1023.239
168.979	27.187	1263.803	1022.989
169.994	27.080	1263.390	1021.960
171.008	27.067	1262.694	1021.236
172.023	27.173	1261.590	1020.845
173.037	27.187	1260.614	1020.047
174.052	27.147	1260.308	1019.485
175.067	27.240	1259.338	1019.131
176.081	27.197	1258.606	1018.205
177.096	27.209	1258.109	1017.782
178.110	27.189	1256.771	1016.497
179.125	27.171	1255.838	1015.550
180.140	27.244	1255.014	1015.206
181.154	27.258	1253.815	1014.222
182.169	27.088	1253.079	1012.590
183.183	27.237	1251.715	1012.227
184.198	27.148	1250.746	1010.859
185.213	27.290	1249.740	1010.743
186.227	27.254	1249.389	1010.174
187.242	27.358	1247.912	1009.467
188.256	27.329	1247.417	1008.815
189.271	27.329	1246.821	1008.243
190.286	27.343	1245.626	1007.269
191.300	27.333	1245.460	1006.985
192.315	27.209	1245.042	1005.876
193.329	27.222	1244.623	1005.516
194.344	27.238	1244.717	1005.596
195.359	27.337	1243.363	1004.959
196.373	27.363	1242.836	1004.587
197.388	27.171	1242.671	1003.302
198.402	27.254	1242.649	1003.658
199.417	27.294	1241.870	1003.160
200.432	27.218	1241.363	1002.239
201.446	27.224	1240.911	1001.819
202.461	27.265	1239.446	1000.773
203.475	27.239	1239.113	1000.273
204.490	27.327	1237.783	999.597
205.504	27.205	1237.437	998.556
206.519	27.238	1236.679	998.037
207.534	27.321	1235.137	997.162
208.548	27.257	1234.022	995.823
209.563	27.410	1233.462	996.118
210.577	27.310	1232.805	994.952
211.592	27.306	1231.763	994.005
212.607	27.525	1231.139	994.607
213.621	27.400	1230.605	993.408
214.636	27.373	1229.888	992.591
215.650	27.373	1228.715	991.558
216.665	27.462	1227.676	991.118
217.680	27.396	1226.956	990.091
218.694	27.510	1226.202	990.012
219.709	27.446	1225.742	989.207
220.723	27.569	1224.916	989.118
221.738	27.477	1224.293	988.030
222.753	27.336	1223.814	986.787
223.767	27.456	1222.781	986.519
224.782	27.545	1222.645	986.803
225.796	27.514	1221.843	985.900
226.811	27.539	1221.124	985.368
227.826	27.581	1221.043	985.446
228.840	27.414	1220.614	984.109
229.855	27.465	1219.572	983.458
230.869	27.473	1218.895	982.868
231.884	27.543	1217.587	982.105
232.899	27.519	1217.059	981.460
233.913	27.505	1216.318	980.701
234.928	27.576	1216.208	980.910
235.942	27.598	1215.338	980.235
236.957	27.619	1214.939	979.942
237.972	27.507	1214.843	979.176
238.986	27.531	1213.929	978.482
240.001	27.502	1213.409	977.821
241.015	27.696	1212.042	977.669
242.030	27.659	1211.625	977.050
243.045	27.635	1210.983	976.319
244.059	27.654	1209.976	975.521
245.074	27.574	1209.163	974.350
246.088	27.650	1208.560	974.186
247.103	27.686	1207.865	973.734
248.117	27.708	1206.805	972.907
249.132	27.706	1206.184	972.309
250.147	27.732	1205.822	972.073
251.161	27.728	1204.596	970.975
252.176	27.817	1204.013	970.893
253.190	27.689	1203.401	969.634
254.205	27.755	1202.857	969.461
255.220	27.663	1202.114	968.289
256.234	27.752	1201.897	968.499
257.249	27.749	1201.158	967.803
258.263	27.781	1200.508	967.364
259.278	27.771	1199.671	966.548
260.293	27.765	1199.230	966.075
261.307	27.729	1198.815	965.469
262.322	27.800	1197.908	965.026
263.336	27.685	1197.653	964.125
264.351	27.715	1197.133	963.782
265.366	27.860	1196.550	963.992
266.380	27.849	1195.829	963.270
267.395	27.903	1194.625	962.497
268.409	27.816	1194.255	961.655
269.424	27.762	1193.842	960.954
270.439	27.840	1193.324	960.861
271.453	27.733	1193.089	960.024
272.468	27.842	1191.845	959.512
273.482	27.878	1191.125	959.037
274.497	27.811	1190.752	958.300
275.512	27.963	1190.121	958.505
276.526	28.020	1188.906	957.740
277.541	28.043	1188.696	957.606
278.555	28.002	1187.734	956.534
279.570	27.952	1187.436	955.948
280.585	27.883	1186.459	954.716
281.599	27.946	1185.400	954.105
282.614	27.918	1185.012	953.564
283.628	27.873	1184.185	952.577
284.643	27.953	1183.347	952.239
285.657	28.035	1182.234	951.683
286.672	27.992	1181.265	950.599
287.687	27.957	1180.625	949.817
288.701	28.084	1180.030	949.915
289.716	27.996	1179.598	949.022
290.730	28.074	1178.412	948.389
291.745	27.985	1177.934	947.463
292.760	28.017	1177.965	947.569
293.774	28.086	1177.267	947.277
294.789	28.105	1177.000	947.077
295.803	28.292	1175.759	946.966
296.818	28.063	1175.390	945.399
297.833	28.221	1174.554	945.458
298.847	28.186	1173.698	944.509
299.862	28.031	1173.423	943.399
300.876	28.127	1172.809	943.317
301.891	28.172	1172.082	942.884
302.906	28.208	1171.393	942.432
303.920	28.244	1170.853	942.096
304.935	28.136	1170.139	940.884
305.949	28.144	1169.730	940.512
306.964	28.207	1168.667	939.902
307.979	28.193	1168.315	939.458
308.993	28.267	1167.375	939.003
310.008	28.354	1166.215	938.432
311.022	28.231	1166.057	937.590
312.037	28.304	1165.075	937.091
313.052	28.338	1164.545	936.754
314.066	28.245	1163.930	935.703
315.081	28.215	1162.842	934.594
316.095	28.277	1162.190	934.301
317.110	28.341	1161.519	934.006
318.125	28.382	1161.154	933.840
319.139	28.325	1160.144	932.657
320.154	28.270	1160.054	932.217
321.168	28.291	1159.501	931.800
322.183	28.324	1158.761	931.290
323.197	28.279	1158.404	930.694
324.212	28.375	1157.530	930.396
325.227	28.292	1157.326	929.727
326.241	28.479	1156.418	929.867
327.256	28.322	1155.846	928.524
328.270	28.357	1154.975	927.920
329.285	28.245	1154.742	927.087
330.300	28.440	1153.279	926.813
331.314	28.466	1152.241	926.029
332.329	28.378	1152.100	925.389
333.343	28.390	1151.141	924.598
334.358	28.510	1150.372	924.503
335.373	28.564	1149.688	924.147
336.387	28.576	1148.847	923.447
337.402	28.552	1148.291	922.798
338.416	28.609	1147.686	922.515
339.431	28.606	1146.958	921.832
340.446	28.627	1146.318	921.344
341.460	28.643	1145.841	920.961
342.475	28.653	1144.865	920.144
343.489	28.556	1144.386	919.190
344.504	28.525	1143.412	918.170
345.519	28.536	1142.457	917.379
346.533	28.603	1141.869	917.162
347.548	28.755	1140.798	916.981
348.562	28.581	1140.341	915.662
349.577	28.628	1139.984	915.529
350.592	28.586	1138.648	914.163
351.606	28.556	1138.344	913.691
352.621	28.704	1137.911	913.998
353.635	28.701	1137.378	913.477
354.650	28.606	1136.624	912.318
355.665	28.749	1135.762	912.257
356.679	28.774	1135.121	911.782
357.694	28.771	1134.722	911.367
358.708	28.619	1134.099	910.032
359.723	28.623	1133.434	909.439
360.738	28.670	1132.959	909.211
361.752	28.726	1132.374	908.934
362.767	28.815	1131.689	908.748
363.781	28.870	1130.874	908.284
364.796	28.953	1130.394	908.225
365.810	28.941	1129.572	907.426
366.825	28.962	1128.915	906.922
367.840	28.994	1128.759	906.874
368.854	28.965	1128.204	906.207
369.869	28.853	1127.690	905.161
370.883	29.022	1126.666	905.090
371.898	29.039	1125.990	904.552
372.913	28.972	1125.311	903.595
373.927	28.952	1124.851	903.049
374.942	29.019	1124.393	902.928
375.956	28.971	1123.988	902.291
376.971	28.916	1123.642	901.660
377.986	28.939	1122.948	901.138
379.000	28.926	1122.764	900.847
380.015	29.044	1121.732	900.516
381.029	29.039	1121.073	899.885
382.044	29.079	1120.079	899.202
383.059	29.117	1120.147	899.362
384.073	29.109	1119.417	898.657
385.088	29.057	1118.379	897.489
386.102	29.260	1117.262	897.506
387.117	29.132	1116.663	896.318
388.132	29.055	1115.666	895.066
389.146	29.118	1115.197	894.916
390.161	29.070	1114.674	894.186
391.175	29.120	1113.866	893.700
392.190	29.190	1113.298	893.506
393.205	29.150	1112.945	892.950
394.219	29.195	1111.577	891.988
395.234	29.272	1111.093	891.896
396.248	29.210	1109.965	890.612
397.263	29.152	1109.576	889.940
398.278	29.323	1108.699	889.985
399.292	29.372	1108.297	889.817
400.307	29.338	1107.696	889.095
401.321	29.259	1107.169	888.210
402.336	29.207	1106.314	887.198
403.350	29.271	1105.700	886.931
404.365	29.291	1104.864	886.279
405.380	29.367	1104.275	886.094
406.394	29.448	1103.409	885.710
407.409	29.299	1103.139	884.700
408.423	29.378	1102.181	884.230
409.438	29.486	1101.665	884.259
410.453	29.435	1101.032	883.426
411.467	29.478	1099.899	882.647
412.482	29.449	1099.593	882.181
413.496	29.338	1098.893	881.014
414.511	29.426	1098.508	881.046
415.526	29.424	1097.893	880.466
416.540	29.401	1097.668	880.095
417.555	29.471	1097.115	879.909
418.569	29.472	1096.374	879.241
419.584	29.605	1095.597	879.173
420.599	29.612	1095.554	879.095
421.613	101.235	1321.289	1450.557
422.628	94.469	1354.150	1450.677
