DTS Sentinel unit serial number:	SN413079Multiplexer serial number:	ORYXHardware model number:	OX4-SRSoftware version number:	ORYX F/W v4.00 Oryx Data Collector v3.7.2.0data status	okinstallation	princeton_trtdifferential loss correction	single-endedforward channel	channel 2reverse channel	N/Adate	2019/09/12time	19:11:49forward acquisition time	15.00reverse acquisition time	0.00gamma	496.2192k internal	0.2325k external	0.2325temperature offset calibration	1.0136default loss term (dB/km)	0.3790temperature slope calibration	1.0000multiplexer offset coefficient	1.0000multiplexer slope coefficient	1.0000fibre end	0.00T internal ref (°C)	32.56T ext. ref 1 (°C)	3.18T ext. ref 2 (°C)	27.14length (m)	temperature (°C)	Stokes	anti-Stokes-747.200	-126.904	0.501	-0.075
-746.185	31.441	-0.248	0.215
-745.171	51.200	0.653	-0.625
-744.156	103.616	-0.231	0.273
-743.142	293.075	-0.313	0.577
-742.127	-32.662	0.691	-0.388
-741.112	72.921	-0.363	-0.383
-740.098	-162.709	-0.543	0.027
-739.083	-38.088	0.697	0.373
-738.069	652.327	0.185	0.479
-737.054	-200.000	0.004	-0.024
-736.039	-44.162	0.376	0.190
-735.025	-138.644	0.963	-0.106
-734.010	-31.136	0.340	-0.193
-732.996	-200.000	-0.081	-1.049
-731.981	44.010	0.133	-0.123
-730.966	451.353	0.098	-0.219
-729.952	-125.292	-0.810	-0.125
-728.937	292.239	0.105	0.192
-727.923	4.812	-0.524	-0.388
-726.908	503.294	-0.552	-1.287
-725.894	800.000	0.051	-0.227
-724.879	-73.962	0.259	-0.095
-723.864	47.857	0.428	0.403
-722.850	616.255	0.136	0.344
-721.835	-47.302	-0.444	-0.218
-720.821	-73.208	0.687	0.254
-719.806	-200.000	-0.036	-0.213
-718.791	-200.000	-0.072	0.744
-717.777	438.634	-0.311	0.684
-716.762	800.000	0.046	-0.167
-715.748	386.624	0.277	-0.577
-714.733	-56.507	-0.424	-0.189
-713.718	800.000	0.263	0.820
-712.704	-200.000	0.129	0.757
-711.689	-50.646	0.184	0.087
-710.675	-163.507	-0.635	0.030
-709.660	-200.000	0.117	-0.721
-708.645	-71.406	-0.900	0.340
-707.631	-200.000	0.011	0.834
-706.616	762.169	0.123	-0.337
-705.602	192.764	0.519	-0.790
-704.587	800.000	0.144	-0.537
-703.572	16.220	-0.245	-0.194
-702.558	-39.624	0.782	0.412
-701.543	800.000	0.105	-0.419
-700.529	-152.064	-0.508	-0.037
-699.514	800.000	0.080	-0.223
-698.499	48.973	0.366	-0.346
-697.485	45.289	0.533	-0.496
-696.470	-200.000	0.041	-0.220
-695.456	447.199	-0.207	-0.459
-694.441	209.138	-0.425	0.670
-693.426	-200.000	-0.023	-0.727
-692.412	800.000	0.087	0.358
-691.397	50.429	-0.362	0.345
-690.383	-200.000	0.014	0.527
-689.368	800.000	-0.104	-0.340
-688.354	0.901	0.663	0.478
-687.339	-104.487	-0.151	0.035
-686.324	301.649	0.163	0.304
-685.310	10.812	0.470	-0.362
-684.295	-36.165	-0.184	0.100
-683.281	800.000	-0.211	0.701
-682.266	800.000	-0.217	0.609
-681.251	-200.000	-0.047	0.590
-680.237	84.706	-0.325	0.358
-679.222	89.061	-0.074	-0.083
-678.208	-129.959	0.509	0.070
-677.193	-200.000	0.011	-0.239
-676.178	-31.910	1.086	0.613
-675.164	800.000	0.145	-0.601
-674.149	-90.272	0.203	-0.059
-673.135	23.453	0.704	-0.583
-672.120	-200.000	-0.142	-0.749
-671.105	-135.592	-0.718	-0.086
-670.091	125.863	0.421	-0.535
-669.076	-200.000	0.009	-0.590
-668.062	-200.000	0.033	-0.436
-667.047	-16.164	0.405	-0.259
-666.032	-78.753	0.645	-0.221
-665.018	-9.711	-0.545	0.366
-664.003	-134.608	0.707	0.087
-662.989	-200.000	0.075	0.335
-661.974	309.680	0.322	0.606
-660.959	800.000	0.263	0.735
-659.945	412.870	-0.482	-1.031
-658.930	-11.512	0.659	0.436
-657.916	-200.000	0.038	-0.465
-656.901	-57.710	-0.715	0.315
-655.886	-74.054	-0.865	0.315
-654.872	-58.841	0.974	-0.424
-653.857	180.158	0.319	-0.471
-652.843	-73.594	0.804	-0.295
-651.828	22.822	-0.212	-0.175
-650.814	800.000	-0.140	-0.501
-649.799	140.150	-0.072	0.095
-648.784	166.403	-0.165	-0.235
-647.770	-121.528	0.664	0.111
-646.755	-197.734	0.426	-0.003
-645.741	-175.280	-0.330	0.009
-644.726	-20.214	0.394	-0.244
-643.711	-200.000	-0.099	-0.986
-642.697	-64.368	0.394	-0.161
-641.682	-53.097	-0.370	-0.171
-640.668	225.215	0.180	0.293
-639.653	-121.107	0.507	-0.085
-638.638	97.140	0.664	-0.766
-637.624	484.178	-0.362	-0.828
-636.609	800.000	-0.093	-0.405
-635.595	-37.052	-0.294	-0.158
-634.580	-61.087	0.463	-0.196
-633.565	-200.000	0.015	0.140
-632.551	-107.354	0.390	-0.086
-631.536	141.861	0.384	-0.512
-630.522	-127.117	-0.785	-0.115
-629.507	378.520	-0.421	-0.866
-628.492	-75.845	0.456	-0.162
-627.478	112.051	0.536	-0.650
-626.463	-61.866	-0.614	-0.258
-625.449	800.000	-0.205	-0.736
-624.434	6.660	-0.387	0.289
-623.419	189.071	-0.200	0.301
-622.405	-200.000	-0.201	-1.012
-621.390	-99.922	-0.282	-0.071
-620.376	-71.159	-0.386	0.146
-619.361	-14.368	-0.454	0.294
-618.346	800.000	0.084	0.353
-617.332	154.870	-0.536	0.740
-616.317	5.094	0.401	0.296
-615.303	-28.100	0.485	-0.282
-614.288	-37.622	0.339	0.181
-613.273	800.000	-0.132	-0.417
-612.259	234.870	0.669	-1.107
-611.244	795.775	0.323	-0.895
-610.230	430.927	0.079	-0.171
-609.215	250.488	0.107	0.182
-608.201	-200.000	-0.064	0.445
-607.186	-102.469	0.592	0.142
-606.171	-200.000	0.038	0.358
-605.157	182.084	-0.210	-0.311
-604.142	18.844	-0.411	-0.331
-603.128	-75.471	0.631	0.226
-602.113	-200.000	0.019	-0.614
-601.098	90.363	0.205	0.230
-600.084	800.000	-0.296	0.886
-599.069	-72.154	-1.133	-0.422
-598.055	-60.987	-0.353	-0.150
-597.040	-88.946	-0.756	-0.225
-596.025	50.054	-0.283	-0.268
-595.011	-60.038	-0.515	-0.221
-593.996	-99.086	0.226	-0.057
-592.982	155.325	-0.457	-0.632
-591.967	-58.762	-0.933	-0.405
-590.952	-200.000	0.065	0.506
-589.938	639.915	-0.184	-0.471
-588.923	86.535	0.383	-0.423
-587.909	-21.008	-0.853	-0.524
-586.894	275.103	-0.178	0.317
-585.879	29.718	-0.146	-0.125
-584.865	-200.000	0.058	-0.850
-583.850	53.948	-0.394	-0.380
-582.836	-140.713	0.355	0.037
-581.821	599.420	0.366	-0.910
-580.806	-200.000	0.006	-0.898
-579.792	267.535	0.130	-0.228
-578.777	15.231	-0.444	0.349
-577.763	244.358	-0.462	-0.777
-576.748	-45.649	-0.228	0.113
-575.733	477.319	-0.360	-0.817
-574.719	178.823	0.382	0.560
-573.704	-10.037	0.238	-0.159
-572.690	-200.000	0.063	0.277
-571.675	-181.916	0.261	0.005
-570.661	702.147	-0.216	-0.571
-569.646	-36.794	0.931	-0.501
-568.631	237.536	-0.565	0.939
-567.617	-21.847	-0.565	0.344
-566.602	4.578	-0.420	0.309
-565.588	7.714	0.330	-0.247
-564.573	-36.525	-0.748	0.403
-563.558	-191.583	-0.230	0.002
-562.544	-75.789	0.111	-0.039
-561.529	362.255	0.189	0.380
-560.515	-108.378	0.750	0.162
-559.500	800.000	0.038	-0.141
-558.485	-79.884	0.612	-0.206
-557.471	236.975	0.262	0.435
-556.456	3.808	0.503	-0.368
-555.442	-108.584	-0.562	-0.121
-554.427	800.000	-0.138	-0.474
-553.412	556.309	0.199	0.481
-552.398	-155.190	0.804	0.053
-551.383	357.147	-0.077	0.154
-550.369	800.000	-0.210	0.654
-549.354	222.048	0.368	-0.593
-548.339	-21.881	0.163	-0.099
-547.325	-80.760	-0.246	0.082
-546.310	-200.000	0.000	-0.540
-545.296	-200.000	0.208	1.224
-544.281	251.505	-0.205	0.350
-543.266	-171.113	0.626	-0.021
-542.252	79.487	0.871	0.936
-541.237	-200.000	0.002	-0.046
-540.223	-158.564	0.437	0.025
-539.208	-119.253	-0.212	-0.037
-538.193	53.100	0.179	0.172
-537.179	112.666	-0.486	-0.589
-536.164	-200.000	-0.131	-0.626
-535.150	-51.629	-0.656	-0.306
-534.135	69.930	-0.665	0.686
-533.121	-89.189	-0.071	-0.021
-532.106	-103.874	-0.525	0.123
-531.091	-200.000	0.003	0.017
-530.077	449.075	-0.027	-0.059
-529.062	-100.099	0.552	-0.137
-528.048	-155.931	0.491	0.031
-527.033	-78.415	-0.151	-0.052
-526.018	-108.764	0.975	-0.209
-525.004	800.000	0.254	-0.716
-523.989	279.919	-0.191	0.342
-522.975	13.856	0.290	-0.226
-521.960	800.000	-0.300	0.832
-520.945	-165.801	-0.807	0.035
-519.931	-200.000	-0.070	-0.316
-518.916	399.842	0.262	0.549
-517.902	-143.788	-0.763	0.072
-516.887	-136.058	0.137	-0.016
-515.872	-124.985	0.433	-0.067
-514.858	-152.828	-0.661	-0.047
-513.843	-105.121	0.625	-0.143
-512.829	-200.000	0.083	-0.467
-511.814	51.075	0.179	0.170
-510.799	-53.434	0.774	-0.354
-509.785	69.327	-0.061	-0.063
-508.770	-30.442	0.572	0.324
-507.756	221.805	0.548	-0.882
-506.741	48.454	0.549	-0.514
-505.726	-200.000	0.030	-0.578
-504.712	800.000	-0.120	0.441
-503.697	68.475	0.613	0.628
-502.683	800.000	0.241	-0.785
-501.668	-200.000	0.101	-0.891
-500.653	-99.538	0.786	0.198
-499.639	160.443	-0.136	-0.190
-498.624	61.872	-0.379	0.377
-497.610	-9.373	0.751	0.501
-496.595	-111.193	-0.690	0.141
-495.581	-200.000	0.067	-0.652
-494.566	-55.681	-1.059	-0.473
-493.551	-128.240	-1.093	-0.156
-492.537	-200.000	-0.141	-0.675
-491.522	-82.295	0.544	-0.177
-490.508	800.000	0.239	-0.670
-489.493	34.314	-0.369	0.322
-488.478	11.144	-0.409	-0.313
-487.464	800.000	-0.064	-0.266
-486.449	800.000	-0.164	-0.488
-485.435	-30.720	-0.851	0.481
-484.420	-200.000	-0.058	-0.545
-483.405	-111.685	0.452	-0.092
-482.391	-192.136	-0.062	-0.001
-481.376	800.000	0.189	0.577
-480.362	-3.533	0.726	0.504
-479.347	191.849	-0.210	-0.316
-478.332	800.000	0.160	-0.499
-477.318	-200.000	0.145	-0.713
-476.303	224.072	-0.795	1.282
-475.289	800.000	0.114	0.387
-474.274	-45.597	0.155	0.077
-473.259	-50.857	0.645	0.303
-472.245	-3.509	-0.298	-0.207
-471.230	258.147	-0.383	0.659
-470.216	-114.862	-0.300	-0.057
-469.201	-21.838	-0.372	0.226
-468.186	-39.175	-0.096	0.050
-467.172	-70.373	0.591	0.224
-466.157	-123.285	-1.188	0.190
-465.143	77.832	-0.678	0.721
-464.128	24.670	0.301	0.249
-463.113	244.532	-0.032	0.054
-462.099	262.308	-0.259	-0.448
-461.084	-200.000	-0.990	0.004
-460.070	-115.034	-0.579	-0.110
-459.055	14.365	-0.223	-0.174
-458.040	-13.388	0.555	0.359
-457.026	9.854	-0.400	0.303
-456.011	386.959	0.022	0.045
-454.997	36.733	0.321	-0.283
-453.982	-65.888	0.354	-0.141
-452.968	-75.822	-0.460	-0.163
-451.953	-173.259	-0.347	0.011
-450.938	-74.792	0.282	0.101
-449.924	-200.000	0.130	-0.686
-448.909	800.000	-0.320	1.039
-447.895	-200.000	-0.002	0.199
-446.880	29.547	-0.303	-0.257
-445.865	674.227	-0.233	-0.602
-444.851	-37.806	0.409	0.217
-443.836	-200.000	-0.025	-0.387
-442.822	-173.816	-0.633	0.019
-441.807	489.484	-0.397	0.905
-440.792	0.650	-0.344	-0.245
-439.778	-41.034	-0.617	0.318
-438.763	-60.698	0.691	0.292
-437.749	-84.065	-0.631	0.200
-436.734	-158.809	0.147	0.008
-435.719	-2.437	-0.739	0.516
-434.705	38.341	-1.313	-1.166
-433.690	-145.557	-0.309	-0.028
-432.676	-25.128	-0.468	-0.277
-431.661	43.669	0.591	-0.539
-430.646	208.759	0.456	0.711
-429.632	-115.857	-0.564	0.105
-428.617	-153.208	0.545	-0.038
-427.603	-171.098	0.957	0.032
-426.588	101.347	-0.185	-0.215
-425.573	605.087	-0.123	0.306
-424.559	-58.285	-0.409	0.177
-423.544	-98.479	-0.538	0.137
-422.530	-200.000	0.063	-0.487
-421.515	-200.000	-0.091	-0.445
-420.500	471.291	-0.158	-0.355
-419.486	800.000	0.611	1.902
-418.471	-200.000	0.130	-1.085
-417.457	8.752	1.049	0.788
-416.442	-200.000	-0.162	0.964
-415.428	-27.612	-0.692	0.400
-414.413	246.622	-0.381	-0.640
-413.398	-200.000	0.045	-0.196
-412.384	94.049	-0.193	-0.218
-411.369	-32.608	0.719	0.399
-410.355	-103.866	0.539	0.125
-409.340	236.792	0.213	-0.352
-408.325	88.223	-0.461	-0.509
-407.311	-200.000	-0.029	-0.193
-406.296	800.000	0.193	0.768
-405.282	138.193	-0.215	0.281
-404.267	-100.241	-0.453	0.112
-403.252	328.436	0.224	-0.429
-402.238	124.971	-0.479	0.601
-401.223	109.927	-0.136	-0.163
-400.209	281.165	-0.074	-0.132
-399.194	-200.000	0.018	0.911
-398.179	13.896	-0.172	0.133
-397.165	97.897	0.540	0.619
-396.150	-200.000	-0.036	-0.273
-395.136	800.000	0.190	-0.781
-394.121	-131.945	0.690	-0.090
-393.106	-18.570	-0.337	-0.209
-392.092	178.235	-0.212	-0.308
-391.077	-200.000	-0.025	0.191
-390.063	800.000	0.078	-0.301
-389.048	800.000	0.270	0.753
-388.033	-122.891	0.423	-0.068
-387.019	-48.177	-0.400	0.192
-386.004	385.033	-0.172	0.353
-384.990	-146.269	-0.748	-0.065
-383.975	-39.795	0.738	-0.384
-382.960	216.655	0.262	0.414
-381.946	631.706	-0.239	-0.602
-380.931	-125.515	-0.405	-0.061
-379.917	800.000	-0.134	0.406
-378.902	-88.847	0.776	0.229
-377.888	-138.354	0.364	0.040
-376.873	23.062	-0.570	0.465
-375.858	23.855	0.206	-0.169
-374.844	-200.000	-0.017	-0.134
-373.829	25.018	0.415	0.342
-372.815	-155.419	-0.106	-0.007
-371.800	55.283	0.330	0.318
-370.785	11.698	0.625	-0.477
-369.771	800.000	0.064	0.256
-368.756	1.227	0.526	-0.376
-367.742	-200.000	0.120	0.608
-366.727	245.657	0.451	0.754
-365.712	-200.000	0.077	0.604
-364.698	-5.888	-0.208	0.142
-363.683	-200.000	0.041	-0.508
-362.669	-200.000	0.005	0.049
-361.654	112.749	-0.269	0.324
-360.639	450.694	-0.168	-0.368
-359.625	-21.346	-0.414	0.251
-358.610	-102.649	0.365	0.087
-357.596	-200.000	-0.747	0.003
-356.581	-200.000	0.041	0.758
-355.566	-200.000	0.062	0.361
-354.552	-200.000	0.087	-0.757
-353.537	-200.000	-0.132	-0.793
-352.523	-69.673	-0.266	-0.101
-351.508	-73.842	0.825	-0.298
-350.493	113.917	0.582	0.704
-349.479	393.187	-0.179	0.370
-348.464	-68.352	0.759	-0.293
-347.450	800.000	0.133	-0.548
-346.435	113.738	-0.340	-0.410
-345.420	-104.712	0.685	0.157
-344.406	793.639	0.044	0.119
-343.391	-39.528	-0.576	0.300
-342.377	-172.747	-0.494	0.015
-341.362	523.938	0.103	-0.241
-340.348	-16.064	-0.557	-0.352
-339.333	-18.915	-0.244	0.151
-338.318	188.799	-0.082	-0.122
-337.304	166.204	0.760	1.069
-336.289	-146.814	0.424	-0.036
-335.275	-13.796	-0.076	0.049
-334.260	-68.335	0.773	-0.298
-333.245	48.048	-0.517	-0.480
-332.231	-200.000	-0.129	-0.949
-331.216	-81.738	0.713	-0.232
-330.202	93.656	-0.232	0.261
-329.187	-200.000	-0.006	-0.263
-328.172	95.560	-0.116	-0.131
-327.158	-200.000	0.027	0.440
-326.143	378.746	-0.307	0.623
-325.129	47.086	-0.070	-0.065
-324.114	-121.109	-0.165	-0.027
-323.099	220.227	-0.087	-0.139
-322.085	-27.377	-0.245	-0.142
-321.070	327.002	-0.294	0.559
-320.056	121.999	-0.084	0.103
-319.041	-52.020	0.287	-0.132
-318.026	-61.635	-0.823	-0.343
-317.012	-108.008	-0.745	0.161
-315.997	412.721	-0.311	0.657
-314.983	126.208	-0.481	0.604
-313.968	11.437	0.824	0.627
-312.953	-88.380	-0.594	-0.176
-311.939	-200.000	-0.105	-0.602
-310.924	772.171	0.190	-0.514
-309.910	56.296	0.287	0.277
-308.895	-73.862	0.066	0.024
-307.880	114.900	0.351	-0.425
-306.866	163.966	0.301	-0.420
-305.851	13.964	-0.514	-0.397
-304.837	338.565	-0.241	0.466
-303.822	-200.000	0.106	1.012
-302.807	-70.270	0.398	-0.150
-301.793	-77.366	-0.284	-0.098
-300.778	-107.914	-0.477	0.103
-299.764	-50.720	-0.691	0.323
-298.749	111.552	0.427	-0.511
-297.735	-85.302	-0.150	0.046
-296.720	51.776	0.766	-0.723
-295.705	-200.000	0.043	0.224
-294.691	-31.207	-0.768	0.429
-293.676	-96.864	-0.335	0.087
-292.662	-200.000	0.040	0.233
-291.647	11.676	0.857	0.652
-290.632	323.541	0.275	0.519
-289.618	-142.397	-0.344	-0.034
-288.603	-200.000	-0.135	0.702
-287.589	-130.914	-0.532	-0.071
-286.574	800.000	0.200	-0.832
-285.559	-96.838	-0.569	0.148
-284.545	15.373	0.246	0.191
-283.530	289.484	0.277	-0.498
-282.516	25.294	0.306	0.252
-281.501	-64.984	0.958	-0.384
-280.486	800.000	0.085	0.259
-279.472	84.726	0.704	0.764
-278.457	800.000	-0.226	0.637
-277.443	-200.000	-0.039	0.317
-276.428	21.355	-0.624	0.502
-275.413	413.853	-0.139	0.293
-274.399	100.140	0.496	0.570
-273.384	155.348	-0.194	-0.265
-272.370	7.999	0.390	0.290
-271.355	197.087	0.496	0.749
-270.340	-114.465	0.156	-0.030
-269.326	-11.460	0.103	0.067
-268.311	-200.000	0.211	-0.962
-267.297	71.139	-0.325	-0.333
-266.282	800.000	0.153	-0.649
-265.267	-35.630	-0.637	0.342
-264.253	12.716	0.416	-0.318
-263.238	294.823	-0.127	-0.230
-262.224	25.163	-0.448	-0.369
-261.209	-111.957	1.002	-0.200
-260.195	15.635	0.543	-0.422
-259.180	-0.618	0.715	0.502
-258.165	-76.388	0.390	0.136
-257.151	800.000	0.250	0.716
-256.136	-200.000	0.091	0.536
-255.122	169.344	0.420	-0.593
-254.107	254.758	-0.606	-1.027
-253.092	-200.000	0.086	1.219
-252.078	-63.054	0.671	-0.274
-251.063	800.000	0.093	0.393
-250.049	-6.381	-0.402	0.272
-249.034	-112.495	-0.771	-0.152
-248.019	161.445	0.447	-0.619
-247.005	-33.311	-0.208	-0.114
-245.990	-200.000	-0.155	0.883
-244.976	-94.894	-0.300	0.080
-243.961	800.000	0.214	0.606
-242.946	402.304	-0.148	-0.307
-241.932	-62.764	0.592	-0.243
-240.917	-43.333	-0.331	0.166
-239.903	-200.000	-0.157	0.683
-238.888	74.006	-0.186	-0.193
-237.873	289.053	-0.109	0.195
-236.859	9.318	0.263	-0.197
-235.844	-56.973	0.639	-0.279
-234.830	-200.000	0.023	-0.150
-233.815	-18.288	0.946	0.585
-232.800	800.000	0.076	0.284
-231.786	-113.043	0.700	-0.137
-230.771	-180.677	0.351	0.007
-229.757	-111.699	0.416	0.083
-228.742	-200.000	0.055	-0.473
-227.727	800.000	-0.264	0.739
-226.713	312.644	-0.136	-0.252
-225.698	-67.425	0.599	0.233
-224.684	-15.754	0.804	-0.507
-223.669	269.161	-0.414	-0.718
-222.655	-102.939	0.225	0.053
-221.640	167.573	-0.593	-0.834
-220.625	-108.272	0.692	-0.148
-219.611	-9.410	0.399	0.263
-218.596	-18.015	0.081	-0.050
-217.582	-33.076	-0.331	0.182
-216.567	172.847	0.254	0.361
-215.552	41.889	-0.175	0.157
-214.538	-132.079	0.730	-0.094
-213.523	800.000	0.111	0.322
-212.509	-146.157	-0.114	0.010
-211.494	580.371	-0.301	0.729
-210.479	-1.245	-0.351	0.245
-209.465	-109.853	-0.421	0.087
-208.450	-200.000	-0.032	0.646
-207.436	63.588	0.501	0.497
-206.421	-200.000	0.083	-0.421
-205.406	800.000	-0.140	0.521
-204.392	-42.503	0.115	-0.058
-203.377	195.262	0.288	-0.432
-202.363	243.932	0.322	0.534
-201.348	590.458	0.303	0.738
-200.333	69.443	0.311	0.316
-199.319	-200.000	0.154	-0.994
-198.304	29.492	0.667	-0.560
-197.290	-35.911	0.447	-0.239
-196.275	154.649	-0.311	-0.421
-195.260	-174.346	-0.982	0.028
-194.246	-82.748	0.231	0.074
-193.231	-50.559	-0.631	-0.294
-192.217	-54.770	-0.502	0.224
-191.202	-200.000	0.003	-0.332
-190.187	515.797	0.141	-0.324
-189.173	-45.308	-0.738	0.362
-188.158	14.805	0.017	0.013
-187.144	90.842	-0.508	-0.563
-186.129	747.257	0.140	-0.373
-185.114	-31.917	-0.742	-0.410
-184.100	141.880	-0.336	0.439
-183.085	339.755	0.332	0.639
-182.071	47.180	0.367	0.337
-181.056	3.275	0.308	0.221
-180.042	-51.205	0.165	0.076
-179.027	103.634	-0.436	0.505
-178.012	-98.458	-0.357	0.090
-176.998	-107.165	0.292	0.063
-175.983	572.156	-0.192	-0.462
-174.969	-11.435	0.451	-0.293
-173.954	-55.036	0.214	-0.095
-172.939	106.890	0.098	0.115
-171.925	-100.967	0.637	0.154
-170.910	-200.000	-0.028	0.441
-169.896	38.974	-0.416	-0.367
-168.881	214.516	-0.507	0.792
-167.866	-5.731	-0.169	0.114
-166.852	-91.236	-0.503	0.142
-165.837	353.793	-0.267	0.523
-164.823	-200.000	-0.035	-0.215
-163.808	-88.305	-0.526	0.155
-162.793	-200.000	-0.118	-1.160
-161.779	418.123	0.034	-0.071
-160.764	55.953	-0.360	-0.345
-159.750	793.079	0.397	1.079
-158.735	245.820	-0.142	0.236
-157.720	800.000	0.107	0.418
-156.706	-113.329	-0.201	0.039
-155.691	-180.984	-0.740	0.015
-154.677	-148.193	0.717	0.058
-153.662	333.292	-0.474	0.904
-152.647	44.782	0.457	0.415
-151.633	-61.830	0.636	0.262
-150.618	-145.623	0.305	0.027
-149.604	-155.745	-0.031	0.002
-148.589	232.417	0.298	-0.482
-147.574	-200.000	0.070	0.314
-146.560	-58.179	-0.952	0.409
-145.545	-61.889	0.416	0.172
-144.531	-77.779	0.717	0.244
-143.516	-73.953	-0.529	0.189
-142.502	197.704	0.225	0.339
-141.487	-96.521	0.552	0.144
-140.472	-59.513	-0.475	-0.201
-139.458	280.401	-0.236	0.415
-138.443	-200.000	0.063	-0.683
-137.429	2.905	0.755	-0.540
-136.414	-91.088	-0.931	0.263
-135.399	-199.103	-0.224	0.001
-134.385	-1.789	-0.040	-0.028
-133.370	-200.000	-0.134	0.750
-132.356	-26.255	0.637	0.368
-131.341	-145.688	-0.456	-0.040
-130.326	2.686	-0.685	-0.490
-129.312	-95.473	0.171	0.045
-128.297	-98.033	-0.131	-0.033
-127.283	-90.757	0.632	0.180
-126.268	-55.964	0.429	0.188
-125.253	800.000	-0.129	0.517
-124.239	-60.922	-0.749	-0.312
-123.224	-39.184	0.216	0.112
-122.210	-200.000	0.125	-0.899
-121.195	10.336	-0.490	-0.367
-120.180	-200.000	-0.153	-0.816
-119.166	-95.837	0.422	0.111
-118.151	-60.796	0.508	0.212
-117.137	-200.000	0.031	1.024
-116.122	-79.276	-0.460	0.154
-115.107	411.475	-0.305	-0.637
-114.093	-60.861	1.218	0.507
-113.078	-53.486	0.211	-0.095
-112.064	-25.781	-0.568	0.330
-111.049	21.451	1.048	-0.839
-110.034	292.940	0.180	0.324
-109.020	800.000	-0.176	0.736
-108.005	-86.871	-0.383	-0.115
-106.991	-200.000	0.005	0.550
-105.976	-200.000	-0.062	-1.024
-104.962	-133.879	0.909	0.111
-103.947	61.953	-0.229	-0.225
-102.932	-200.000	-0.058	0.898
-101.918	-58.624	-0.583	0.249
-100.903	35.330	0.324	-0.280
-99.889	800.000	0.153	0.482
-98.874	-200.000	-0.030	-0.252
-97.859	-200.000	-0.011	0.355
-96.845	151.302	-0.062	-0.083
-95.830	251.652	-0.322	-0.538
-94.816	258.310	-0.100	0.169
-93.801	736.505	-0.060	0.158
-92.786	-49.619	1.112	-0.521
-91.772	-84.200	0.072	-0.023
-90.757	-89.953	-0.294	0.084
-89.743	-181.478	0.569	0.011
-88.728	180.317	-0.341	0.492
-87.713	-95.537	0.484	0.128
-86.699	-102.707	-0.173	0.040
-85.684	-200.000	0.176	0.809
-84.670	-81.096	-0.319	-0.104
-83.655	800.000	-0.078	0.300
-82.640	289.793	-0.024	0.043
-81.626	-91.272	-0.223	-0.063
-80.611	-76.013	0.451	-0.157
-79.597	618.741	0.249	-0.615
-78.582	-200.000	-0.079	-0.410
-77.567	-127.969	0.966	0.136
-76.553	800.000	0.104	0.365
-75.538	-151.556	-0.336	0.024
-74.524	800.000	-0.052	-0.164
-73.509	143.297	-0.365	-0.477
-72.494	800.000	-0.135	-0.474
-71.480	-128.624	-0.132	-0.018
-70.465	800.000	-0.196	0.720
-69.451	-79.270	-0.600	0.200
-68.436	800.000	-0.208	0.797
-67.422	-200.000	0.064	0.806
-66.407	563.211	0.059	0.142
-65.392	-145.499	-0.928	-0.082
-64.378	294.792	0.117	-0.211
-63.363	-87.934	-0.724	0.214
-62.349	118.043	0.118	0.142
-61.334	43.321	-0.792	-0.710
-60.319	232.736	0.681	1.100
-59.305	800.000	-0.091	-0.318
-58.290	308.351	0.536	0.982
-57.276	800.000	0.289	1.204
-56.261	-200.000	95.678	591.707
-55.246	680.124	1354.665	3464.759
-54.232	203.925	2524.651	3840.361
-53.217	113.294	2247.208	2678.281
-52.203	42.167	1880.709	1677.738
-51.188	35.940	1672.528	1445.403
-50.173	33.251	1628.667	1387.751
-49.159	51.652	1677.579	1566.719
-48.144	52.135	1694.912	1586.441
-47.130	35.385	1655.223	1426.098
-46.115	32.626	1639.438	1392.092
-45.100	32.560	1634.713	1387.540
-44.086	32.522	1632.764	1385.550
-43.071	32.589	1629.846	1383.511
-42.057	32.450	1628.439	1381.240
-41.042	32.409	1626.169	1378.962
-40.027	32.372	1623.151	1376.075
-39.013	32.483	1622.332	1376.138
-37.998	32.425	1620.157	1373.813
-36.984	32.428	1618.796	1372.630
-35.969	32.388	1618.711	1372.212
-34.954	32.687	1616.252	1372.250
-33.940	32.562	1613.975	1369.354
-32.925	32.482	1613.012	1367.899
-31.911	32.430	1610.363	1365.221
-30.896	32.427	1609.457	1364.379
-29.881	32.478	1607.092	1362.689
-28.867	32.820	1606.165	1364.322
-27.852	32.422	1604.819	1360.250
-26.838	32.430	1603.831	1359.413
-25.823	32.539	1601.797	1358.419
-24.809	32.828	1599.585	1358.572
-23.794	32.526	1598.789	1355.673
-22.779	32.505	1597.944	1354.751
-21.765	32.529	1595.731	1352.994
-20.750	32.719	1593.055	1352.035
-19.736	32.345	1593.361	1349.557
-18.721	32.702	1591.151	1350.187
-17.706	32.673	1589.239	1348.306
-16.692	32.662	1588.731	1347.736
-15.677	32.597	1587.400	1346.096
-14.663	32.628	1585.012	1344.237
-13.648	32.320	1585.285	1342.217
-12.633	32.612	1582.574	1341.948
-11.619	32.626	1581.445	1341.034
-10.604	32.591	1579.789	1339.333
-9.590	32.750	1577.887	1338.794
-8.575	32.848	1575.421	1337.340
-7.560	32.827	1575.483	1337.194
-6.546	32.592	1574.368	1334.531
-5.531	32.486	1574.458	1333.805
-4.517	32.514	1572.851	1332.588
-3.502	32.702	1572.191	1333.306
-2.487	32.659	1569.639	1330.780
-1.473	32.531	1556.567	1318.753
-0.458	29.462	1539.192	1282.687
0.556	26.873	1538.662	1249.173
1.571	24.460	1560.536	1249.945
2.586	23.820	1573.354	1255.584
3.600	21.319	1520.957	1196.557
4.615	12.497	1413.123	1055.250
5.629	4.768	1349.123	959.857
6.644	3.216	1340.726	944.282
7.659	3.133	1339.400	942.758
8.673	3.119	1338.438	941.914
9.688	3.252	1336.794	941.486
10.702	2.975	1334.160	937.856
11.717	6.422	1340.281	963.179
12.731	15.698	1357.829	1032.939
13.746	22.814	1370.429	1086.388
14.761	24.871	1371.571	1099.850
15.775	24.828	1371.032	1099.062
16.790	24.741	1369.383	1097.108
17.804	24.459	1369.304	1095.218
18.819	24.630	1368.875	1095.825
19.834	24.570	1367.764	1094.470
20.848	24.550	1366.427	1093.184
21.863	24.712	1366.315	1093.987
22.877	24.752	1365.154	1093.203
23.892	24.608	1364.792	1091.939
24.907	24.672	1363.350	1091.076
25.921	24.703	1362.488	1090.479
26.936	24.602	1362.028	1089.403
27.950	24.798	1360.041	1088.908
28.965	24.593	1360.297	1087.768
29.980	24.767	1358.473	1087.274
30.994	24.840	1358.032	1087.264
32.009	24.867	1356.587	1086.179
33.023	24.937	1354.252	1084.636
34.038	24.815	1354.353	1083.881
35.053	24.670	1353.681	1082.367
36.067	24.626	1352.666	1081.193
37.082	24.578	1352.368	1080.570
38.096	24.740	1349.796	1079.400
39.111	24.613	1350.786	1079.326
40.126	24.668	1350.425	1079.275
41.140	24.604	1348.783	1077.480
42.155	24.426	1348.943	1076.439
43.169	24.395	1348.804	1076.048
44.184	24.467	1347.357	1075.233
45.199	24.324	1347.571	1074.444
46.213	24.516	1347.340	1075.324
47.228	24.502	1347.706	1075.438
48.242	24.750	1345.435	1075.019
49.257	24.666	1344.014	1073.283
50.271	24.807	1342.584	1072.895
51.286	24.858	1341.223	1072.014
52.301	24.780	1340.081	1070.544
53.315	24.548	1340.155	1069.120
54.330	24.529	1338.683	1067.734
55.344	24.588	1337.281	1066.877
56.359	24.215	1337.338	1064.597
57.374	24.746	1334.981	1065.790
58.388	24.669	1334.241	1064.649
59.403	24.428	1334.598	1063.406
60.417	24.263	1334.113	1061.940
61.432	24.303	1333.488	1061.590
62.447	24.344	1332.381	1060.857
63.461	24.539	1330.763	1060.632
64.476	24.723	1328.677	1059.966
65.490	24.380	1328.746	1057.897
66.505	24.438	1326.775	1056.572
67.520	24.451	1326.269	1056.154
68.534	24.209	1326.242	1054.608
69.549	24.470	1324.450	1054.635
70.563	24.446	1323.409	1053.567
71.578	24.361	1322.718	1052.421
72.593	24.251	1321.367	1050.605
73.607	24.305	1320.303	1049.988
74.622	23.987	1320.985	1048.564
75.636	24.442	1319.552	1050.009
76.651	24.247	1318.640	1048.043
77.666	24.255	1318.539	1047.915
78.680	24.283	1318.377	1047.864
79.695	24.265	1317.354	1046.851
80.709	24.434	1316.433	1047.015
81.724	24.440	1317.012	1047.418
82.739	24.536	1314.674	1046.029
83.753	24.534	1315.570	1046.641
84.768	24.875	1313.695	1047.048
85.782	25.031	1312.656	1047.041
86.797	24.803	1312.178	1045.235
87.812	24.774	1309.941	1043.194
88.826	24.854	1308.636	1042.523
89.841	24.679	1307.876	1040.807
90.855	24.721	1306.988	1040.256
91.870	24.890	1305.787	1040.190
92.884	25.131	1305.377	1041.173
93.899	25.162	1305.353	1041.241
94.914	24.624	1304.140	1037.058
95.928	24.800	1304.130	1037.980
96.943	24.752	1303.233	1036.893
97.957	24.955	1302.248	1037.195
98.972	24.980	1300.516	1035.866
99.987	25.270	1299.370	1036.538
101.001	24.547	1300.361	1033.055
102.016	24.866	1298.478	1033.313
103.030	24.620	1298.408	1031.746
104.045	24.944	1295.812	1031.458
105.060	24.796	1295.327	1030.130
106.074	24.314	1294.538	1026.633
107.089	24.061	1292.933	1023.815
108.103	24.321	1291.525	1024.102
109.118	24.263	1291.226	1023.443
110.133	24.232	1289.073	1021.466
111.147	24.400	1287.563	1021.145
112.162	24.591	1287.051	1021.741
113.176	24.459	1286.795	1020.691
114.191	24.689	1285.845	1021.162
115.206	24.625	1284.699	1019.798
116.220	24.849	1282.676	1019.379
117.235	24.285	1282.410	1015.860
118.249	24.163	1281.256	1014.166
119.264	24.154	1281.218	1013.990
120.279	24.405	1279.469	1013.947
121.293	24.497	1278.193	1013.366
122.308	24.031	1277.573	1010.143
123.322	24.141	1277.148	1010.340
124.337	24.121	1276.645	1009.740
125.352	24.200	1275.494	1009.185
126.366	24.338	1274.256	1008.899
127.381	24.188	1272.501	1006.573
128.395	24.255	1271.368	1005.964
129.410	24.280	1270.289	1005.161
130.424	24.036	1270.107	1003.554
131.439	23.994	1270.289	1003.372
132.454	24.151	1270.536	1004.364
133.468	24.564	1268.951	1005.349
134.483	24.623	1267.531	1004.464
135.497	24.603	1267.939	1004.588
136.512	24.670	1266.299	1003.573
137.527	24.389	1265.441	1001.229
138.541	24.376	1264.182	1000.073
139.556	24.220	1263.384	998.481
140.570	24.674	1262.581	1000.298
141.585	24.874	1261.021	1000.090
142.600	24.829	1260.598	999.413
143.614	24.698	1260.695	998.671
144.629	24.654	1259.964	997.758
145.643	24.977	1257.161	997.251
146.658	24.683	1255.668	994.340
147.673	24.812	1255.339	994.710
148.687	24.708	1255.337	994.040
149.702	24.627	1253.214	991.824
150.716	24.181	1251.625	988.005
151.731	24.084	1250.310	986.341
152.746	24.155	1249.683	986.155
153.760	24.365	1249.099	986.769
154.775	24.799	1248.922	988.940
155.789	24.783	1248.094	988.111
156.804	24.553	1246.773	985.708
157.819	24.548	1246.022	984.998
158.833	24.659	1245.078	984.775
159.848	24.924	1244.353	985.573
160.862	25.037	1242.603	984.724
161.877	24.805	1240.598	981.775
162.892	24.511	1239.994	979.595
163.906	24.172	1240.115	977.747
164.921	24.400	1239.452	978.387
165.935	24.820	1238.762	980.057
166.950	24.769	1239.398	980.191
167.964	24.517	1237.925	977.562
168.979	24.692	1236.471	977.283
169.994	24.422	1236.255	975.549
171.008	24.263	1235.728	974.182
172.023	24.749	1234.409	975.703
173.037	24.626	1234.722	975.194
174.052	24.634	1234.203	974.742
175.067	24.670	1231.975	973.092
176.081	24.654	1231.848	972.817
177.096	24.414	1230.982	970.746
178.110	24.663	1229.368	970.738
179.125	24.289	1228.579	967.998
180.140	24.624	1227.245	968.677
181.154	24.764	1226.908	969.085
182.169	24.572	1226.255	967.446
183.183	24.553	1225.521	966.675
184.198	24.754	1224.882	967.174
185.213	24.798	1222.885	965.747
186.227	24.876	1221.190	964.744
187.242	24.719	1221.230	963.847
188.256	25.037	1219.803	964.344
189.271	24.534	1220.353	961.989
190.286	24.679	1218.671	961.356
191.300	24.522	1217.112	959.195
192.315	24.708	1217.361	960.306
193.329	24.727	1216.986	960.029
194.344	24.581	1215.754	958.188
195.359	24.235	1216.988	957.221
196.373	24.230	1213.928	954.699
197.388	24.193	1213.777	954.299
198.402	24.679	1213.253	956.404
199.417	24.590	1215.288	957.445
200.432	24.915	1213.341	957.567
201.446	24.947	1212.797	957.224
202.461	24.971	1211.574	956.302
203.475	24.947	1211.288	955.864
204.490	24.700	1209.347	952.931
205.504	24.393	1209.238	951.122
206.519	24.413	1207.375	949.682
207.534	24.179	1207.272	948.270
208.548	24.255	1205.198	946.962
209.563	24.192	1205.255	946.587
210.577	24.188	1203.585	945.172
211.592	24.688	1202.582	946.946
212.607	24.535	1204.055	947.212
213.621	24.835	1201.927	947.046
214.636	24.580	1200.496	944.482
215.650	24.519	1199.505	943.301
216.665	24.697	1199.586	944.217
217.680	24.748	1199.326	944.201
218.694	24.847	1198.715	944.157
219.709	24.854	1196.484	942.354
220.723	24.655	1196.412	941.166
221.738	24.921	1195.050	941.412
222.753	24.718	1194.853	940.103
223.767	24.607	1194.001	938.768
224.782	24.858	1193.945	939.960
225.796	24.828	1193.791	939.599
226.811	24.809	1192.811	938.641
227.826	24.712	1191.738	937.207
228.840	24.564	1191.589	936.234
229.855	24.497	1191.347	935.609
230.869	24.662	1190.083	935.396
231.884	24.761	1188.687	934.733
232.899	24.177	1188.626	931.550
233.913	24.144	1187.089	930.091
234.928	24.568	1187.315	932.397
235.942	24.408	1187.088	931.302
236.957	24.264	1185.017	928.846
237.972	24.278	1183.416	927.580
238.986	24.294	1183.581	927.713
240.001	24.455	1182.985	927.999
241.015	24.272	1182.372	926.484
242.030	24.246	1181.856	925.865
243.045	24.414	1181.267	926.191
244.059	24.715	1179.640	926.397
245.074	24.718	1179.932	926.561
246.088	25.020	1178.734	927.100
247.103	24.972	1177.461	925.767
248.117	24.946	1177.216	925.358
249.132	24.872	1176.841	924.599
250.147	25.372	1176.343	926.708
251.161	25.438	1176.628	927.189
252.176	25.363	1176.293	926.457
253.190	25.314	1175.285	925.329
254.205	25.348	1175.310	925.440
255.220	25.431	1174.458	925.115
256.234	25.367	1173.457	923.916
257.249	25.573	1172.545	924.175
258.263	25.268	1172.500	922.490
259.278	25.441	1171.104	922.202
260.293	25.368	1171.174	921.797
261.307	25.724	1169.583	922.287
262.322	25.285	1170.503	920.680
263.336	25.483	1167.874	919.545
264.351	25.547	1167.475	919.479
265.366	25.562	1167.173	919.235
266.380	25.341	1167.612	918.370
267.395	25.613	1166.323	918.662
268.409	25.299	1164.623	915.643
269.424	25.327	1164.421	915.546
270.439	25.027	1164.431	913.943
271.453	25.197	1163.878	914.290
272.468	25.301	1162.079	913.329
273.482	25.050	1161.105	911.207
274.497	25.065	1161.381	911.419
275.512	25.215	1160.132	911.118
276.526	25.183	1159.545	910.413
277.541	25.356	1158.720	910.564
278.555	25.106	1159.084	909.501
279.570	25.393	1159.018	910.825
280.585	25.714	1157.082	910.846
281.599	25.518	1156.028	908.947
282.614	25.537	1154.652	907.877
283.628	25.326	1154.299	906.456
284.643	25.158	1152.908	904.437
285.657	25.243	1151.941	904.024
286.672	25.313	1150.667	903.299
287.687	25.537	1150.515	904.227
288.701	25.387	1150.522	903.397
289.716	24.995	1150.305	901.175
290.730	25.272	1149.232	901.646
291.745	25.389	1147.623	900.891
292.760	25.438	1146.567	900.225
293.774	25.289	1148.339	900.791
294.789	25.575	1147.557	901.533
295.803	25.453	1146.345	899.889
296.818	25.152	1146.207	898.195
297.833	25.248	1145.592	898.115
298.847	25.346	1144.299	897.509
299.862	24.911	1142.978	894.225
300.876	25.330	1141.549	895.115
301.891	25.586	1140.988	895.869
302.906	25.716	1141.140	896.561
303.920	25.745	1141.102	896.594
304.935	25.675	1141.210	896.252
305.949	25.659	1140.264	895.350
306.964	25.705	1138.083	893.785
307.979	25.611	1138.315	893.420
308.993	25.432	1138.120	892.302
310.008	25.651	1137.140	892.541
311.022	25.603	1136.060	891.376
312.037	25.791	1135.489	891.777
313.052	25.395	1134.327	888.830
314.066	25.571	1133.465	888.946
315.081	24.925	1132.523	884.935
316.095	24.944	1131.476	884.132
317.110	24.814	1131.204	883.201
318.125	25.127	1130.342	883.993
319.139	24.842	1129.453	881.818
320.154	25.038	1129.454	882.705
321.168	24.823	1128.498	880.821
322.183	24.851	1128.522	880.902
323.197	25.333	1127.283	882.224
324.212	24.921	1127.780	880.508
325.227	25.358	1126.006	881.190
326.241	25.406	1126.025	881.363
327.256	25.430	1124.513	880.220
328.270	25.168	1123.563	878.114
329.285	25.060	1123.001	877.069
330.300	25.368	1123.029	878.520
331.314	25.000	1122.085	875.904
332.329	24.776	1121.051	873.926
333.343	25.119	1119.557	874.356
334.358	25.327	1119.597	875.328
335.373	25.585	1119.568	876.481
336.387	25.400	1118.702	874.825
337.402	25.528	1118.083	874.889
338.416	25.457	1117.531	874.031
339.431	25.374	1117.715	873.698
340.446	25.763	1116.933	874.899
341.460	26.001	1115.997	875.245
342.475	26.368	1114.874	876.065
343.489	26.043	1114.235	873.908
344.504	26.178	1112.904	873.441
345.519	26.055	1112.192	872.209
346.533	26.022	1112.101	871.904
347.548	25.975	1110.963	870.708
348.562	26.116	1109.924	870.497
349.577	25.929	1108.598	868.478
350.592	25.589	1106.617	865.212
351.606	25.366	1107.185	864.507
352.621	25.356	1106.575	863.906
353.635	25.381	1105.281	862.941
354.650	25.169	1105.044	861.661
355.665	25.260	1104.689	861.744
356.679	25.700	1104.454	863.598
357.694	25.635	1103.201	862.229
358.708	25.734	1103.236	862.656
359.723	25.454	1103.253	861.249
360.738	25.758	1102.185	861.796
361.752	26.069	1100.868	862.175
362.767	25.967	1099.873	860.833
363.781	25.516	1100.042	858.734
364.796	25.838	1099.552	859.816
365.810	25.803	1099.919	859.858
366.825	26.382	1098.518	861.446
367.840	26.149	1098.412	860.177
368.854	26.348	1097.594	860.409
369.869	26.296	1096.994	859.614
370.883	26.028	1095.732	857.275
371.898	26.011	1094.731	856.335
372.913	25.551	1095.134	854.389
373.927	26.026	1093.232	855.080
374.942	26.319	1093.427	856.547
375.956	26.194	1092.790	855.381
376.971	25.981	1092.556	854.112
377.986	25.841	1092.352	853.214
379.000	26.211	1091.483	854.210
380.015	26.370	1090.966	854.483
381.029	26.380	1090.698	854.245
382.044	26.161	1089.765	852.405
383.059	26.380	1088.834	852.634
384.073	26.211	1088.578	851.559
385.088	26.374	1087.472	851.386
386.102	26.290	1087.173	850.681
387.117	25.978	1086.271	848.434
388.132	25.618	1084.206	845.054
389.146	25.729	1083.850	845.225
390.161	25.799	1082.891	844.730
391.175	25.895	1081.734	844.201
392.190	25.963	1082.125	844.751
393.205	26.425	1080.078	845.237
394.219	26.241	1080.373	844.534
395.234	26.062	1079.989	843.324
396.248	25.892	1078.351	841.175
397.263	25.607	1077.412	839.042
398.278	25.773	1077.649	839.923
399.292	25.897	1076.878	839.828
400.307	25.896	1075.951	839.023
401.321	25.744	1075.427	837.836
402.336	25.585	1073.630	835.620
403.350	25.526	1073.299	835.019
404.365	25.584	1073.331	835.235
405.380	26.156	1072.352	837.056
406.394	25.902	1071.288	834.974
407.409	25.711	1071.748	834.373
408.423	26.052	1071.354	835.573
409.438	26.122	1070.041	834.797
410.453	26.521	1068.681	835.507
411.467	26.319	1068.348	834.237
412.482	26.373	1067.922	834.082
413.496	26.356	1067.164	833.338
414.511	26.485	1066.186	833.092
415.526	26.446	1067.621	833.960
416.540	26.713	1065.859	833.737
417.555	26.748	1065.134	833.260
418.569	26.345	1064.769	831.050
419.584	26.504	1064.273	831.319
420.599	26.489	1063.929	830.906
421.613	153.042	1404.762	1793.771
422.628	140.727	1454.405	1793.765
