DTS Sentinel unit serial number:	SN413079Multiplexer serial number:	ORYXHardware model number:	OX4-SRSoftware version number:	ORYX F/W v4.00 Oryx Data Collector v3.7.2.0data status	okinstallation	princeton_trtdifferential loss correction	single-endedforward channel	channel 2reverse channel	N/Adate	2019/09/18time	10:51:34forward acquisition time	60.00reverse acquisition time	0.00gamma	496.2192k internal	0.2329k external	0.2329temperature offset calibration	0.9980default loss term (dB/km)	0.3790temperature slope calibration	1.0000multiplexer offset coefficient	1.0000multiplexer slope coefficient	1.0000fibre end	0.00T internal ref (°C)	29.03T ext. ref 1 (°C)	0.37T ext. ref 2 (°C)	25.38length (m)	temperature (°C)	Stokes	anti-Stokes-747.200	800.000	0.123	0.375
-746.185	-200.000	-0.075	0.509
-745.171	8.984	0.297	0.225
-744.156	258.510	-0.108	0.188
-743.142	-48.570	-0.198	0.096
-742.127	800.000	0.056	-0.172
-741.112	-200.000	0.015	-0.174
-740.098	218.082	0.042	-0.068
-739.083	76.309	0.251	0.267
-738.069	-52.893	-0.315	-0.146
-737.054	285.060	0.163	-0.295
-736.039	154.304	0.034	-0.047
-735.025	-200.000	-0.028	-0.296
-734.010	656.233	-0.054	-0.139
-732.996	-5.146	-0.070	-0.048
-731.981	-118.169	-0.186	0.033
-730.966	391.429	-0.107	-0.223
-729.952	291.745	0.003	0.006
-728.937	-200.000	0.026	-0.545
-727.923	-118.002	0.124	0.022
-726.908	378.730	0.008	-0.017
-725.894	38.982	0.248	0.223
-724.879	-76.726	-0.334	-0.118
-723.864	-125.950	-0.398	-0.060
-722.850	257.287	-0.075	-0.130
-721.835	778.493	0.088	-0.242
-720.821	21.500	-0.368	-0.302
-719.806	800.000	-0.173	-0.508
-718.791	57.284	0.142	-0.139
-717.777	154.932	0.041	0.056
-716.762	-87.303	-0.359	0.110
-715.748	346.070	-0.047	-0.094
-714.733	-70.687	-0.162	0.062
-713.718	-4.565	-0.269	-0.187
-712.704	-83.787	-0.247	-0.079
-711.689	-20.654	-0.329	-0.203
-710.675	658.754	-0.068	0.177
-709.660	107.665	-0.039	0.046
-708.645	246.840	0.159	0.270
-707.631	-38.201	0.113	0.060
-706.616	-100.636	-0.207	-0.051
-705.602	83.579	0.176	-0.193
-704.587	295.087	0.107	0.198
-703.572	800.000	0.107	-0.377
-702.558	800.000	-0.067	-0.218
-701.543	-46.779	-0.192	0.094
-700.529	45.923	-0.244	0.227
-699.514	-200.000	0.010	-0.251
-698.499	-118.058	-0.014	0.002
-697.485	-200.000	0.158	-0.001
-696.470	268.013	-0.226	0.399
-695.456	40.306	-0.127	0.114
-694.441	-55.971	-0.473	0.212
-693.426	-10.115	-0.252	-0.168
-692.412	-137.245	-0.380	-0.043
-691.397	-0.066	-0.040	-0.029
-690.383	46.030	-0.160	-0.149
-689.368	-8.443	-0.195	-0.132
-688.354	-79.096	-0.135	-0.046
-687.339	-78.396	0.294	0.101
-686.324	-200.000	0.025	0.162
-685.310	800.000	-0.136	-0.416
-684.295	116.005	0.032	-0.039
-683.281	375.775	-0.172	-0.352
-682.266	-119.865	-0.257	-0.044
-681.251	49.164	-0.068	-0.064
-680.237	-32.901	-0.091	0.051
-679.222	95.769	-0.092	-0.106
-678.208	-57.917	0.131	0.057
-677.193	-200.000	-0.021	-0.254
-676.178	500.801	0.091	0.212
-675.164	-54.031	-0.348	-0.159
-674.149	-39.093	-0.245	0.129
-673.135	75.212	-0.230	-0.244
-672.120	6.005	-0.218	-0.162
-671.105	800.000	0.079	0.326
-670.091	-75.540	0.141	-0.050
-669.076	-125.535	0.321	0.049
-668.062	800.000	0.015	0.046
-667.047	652.405	-0.064	0.164
-666.032	95.532	0.367	0.421
-665.018	800.000	-0.079	0.257
-664.003	-200.000	-0.002	0.163
-662.989	75.820	-0.229	-0.243
-661.974	188.210	-0.158	0.238
-660.959	-72.409	0.147	-0.054
-659.945	-76.694	-0.176	0.062
-658.930	16.885	-0.138	0.109
-657.916	-58.769	0.248	0.108
-656.901	-200.000	-0.044	0.234
-655.886	-200.000	0.007	-0.179
-654.872	-200.000	0.038	-0.419
-653.857	-52.687	-0.044	0.020
-652.843	-76.404	0.273	-0.096
-651.828	800.000	0.023	-0.097
-650.814	800.000	0.104	-0.376
-649.799	125.174	0.168	-0.212
-648.784	347.452	-0.144	-0.284
-647.770	-69.334	0.363	0.140
-646.755	-200.000	-0.015	0.273
-645.741	800.000	0.049	0.203
-644.726	41.030	0.289	0.262
-643.711	-131.397	0.175	-0.023
-642.697	104.974	-0.084	0.099
-641.682	313.951	0.040	-0.076
-640.668	215.407	0.218	-0.347
-639.653	678.914	-0.115	-0.299
-638.638	145.011	-0.085	-0.114
-637.624	800.000	0.058	-0.219
-636.609	800.000	-0.123	0.527
-635.595	6.308	-0.190	0.141
-634.580	74.179	0.100	0.105
-633.565	596.521	-0.136	-0.338
-632.551	43.579	-0.282	-0.258
-631.536	-155.302	-0.402	0.026
-630.522	20.741	0.051	-0.041
-629.507	330.344	-0.090	0.175
-628.492	-200.000	0.016	-0.300
-627.478	-200.000	-0.018	-0.175
-626.463	194.044	-0.038	-0.057
-625.449	-33.046	-0.301	-0.167
-624.434	77.166	0.212	-0.226
-623.419	50.259	-0.252	-0.239
-622.405	-61.939	-0.039	-0.016
-621.390	296.118	0.232	0.426
-620.376	-15.615	-0.191	0.122
-619.361	183.284	0.197	0.292
-618.346	-164.903	0.400	0.018
-617.332	-194.884	0.092	0.001
-616.317	800.000	0.028	0.083
-615.303	-41.748	0.057	-0.029
-614.288	-200.000	-0.051	0.294
-613.273	-16.112	0.331	0.211
-612.259	-200.000	0.011	0.192
-611.244	-177.100	-0.147	0.004
-610.230	312.014	0.121	-0.227
-609.215	30.536	-0.251	-0.215
-608.201	800.000	0.057	0.193
-607.186	-200.000	-0.044	-0.568
-606.171	-200.000	-0.004	-0.191
-605.157	290.683	0.064	0.116
-604.142	800.000	0.088	-0.314
-603.128	-200.000	0.017	0.275
-602.113	800.000	0.092	0.303
-601.098	92.400	0.080	-0.090
-600.084	-159.440	-0.223	-0.012
-599.069	538.801	-0.056	0.133
-598.055	800.000	0.129	0.374
-597.040	-200.000	0.037	0.274
-596.025	660.427	0.041	0.106
-595.011	258.421	-0.132	-0.228
-593.996	-53.880	-0.212	0.097
-592.982	-54.960	0.330	-0.149
-591.967	-200.000	0.004	-0.087
-590.952	760.291	-0.084	-0.227
-589.938	-146.381	-0.151	0.013
-588.923	49.152	-0.044	0.042
-587.909	-52.306	0.132	0.061
-586.894	755.744	-0.060	-0.163
-585.879	-175.504	-0.093	-0.003
-584.865	55.109	-0.106	-0.102
-583.850	613.262	0.122	-0.307
-582.836	181.238	-0.208	-0.305
-581.821	-200.000	0.034	-0.198
-580.806	-96.249	-0.230	0.061
-579.792	18.537	0.145	0.116
-578.777	800.000	0.045	-0.132
-577.763	-96.571	0.141	-0.037
-576.748	-142.877	-0.278	-0.027
-575.733	167.852	-0.074	0.105
-574.719	171.552	0.186	-0.267
-573.704	-79.526	0.471	-0.159
-572.690	108.359	-0.069	0.082
-571.675	99.891	0.153	0.177
-570.661	-156.072	-0.178	0.011
-569.646	212.170	0.158	0.248
-568.631	0.876	-0.134	0.096
-567.617	800.000	-0.075	-0.228
-566.602	-200.000	-0.016	-0.118
-565.588	260.612	0.094	-0.163
-564.573	25.655	-0.205	0.171
-563.558	-200.000	0.000	0.139
-562.544	-142.131	0.146	0.015
-561.529	-200.000	0.028	-0.156
-560.515	-81.868	-0.173	0.057
-559.500	-14.123	0.258	0.167
-558.485	258.117	-0.129	-0.223
-557.471	-200.000	-0.047	-0.217
-556.456	800.000	0.049	-0.208
-555.442	-104.621	-0.323	-0.074
-554.427	-92.535	0.171	0.048
-553.412	403.065	-0.126	-0.264
-552.398	166.604	0.040	-0.057
-551.383	53.960	0.092	-0.089
-550.369	-102.399	0.130	-0.031
-549.354	-200.000	0.060	0.335
-548.339	800.000	-0.083	0.283
-547.325	-143.262	0.111	-0.011
-546.310	-200.000	0.010	-0.049
-545.296	-188.735	0.121	-0.001
-544.281	382.701	0.134	-0.276
-543.266	-200.000	0.082	0.515
-542.252	109.807	0.140	0.168
-541.237	457.125	0.138	-0.305
-540.223	228.272	0.141	0.230
-539.208	-5.710	-0.420	-0.287
-538.193	-159.409	-0.146	0.008
-537.179	-200.000	0.072	-0.381
-536.164	531.626	0.114	0.270
-535.150	-200.000	-0.001	0.197
-534.135	237.940	-0.063	0.104
-533.121	-127.047	-0.064	0.009
-532.106	122.248	-0.065	-0.081
-531.091	-22.744	0.146	-0.088
-530.077	780.225	-0.085	0.233
-529.062	156.881	-0.044	-0.061
-528.048	427.168	0.051	0.110
-527.033	517.290	0.062	0.146
-526.018	-200.000	-0.010	-0.122
-525.004	-200.000	0.057	-0.315
-523.989	640.480	0.127	-0.324
-522.975	219.457	0.018	-0.029
-521.960	-111.786	-0.124	0.025
-520.945	418.917	0.117	0.250
-519.931	-20.044	0.241	0.149
-518.916	23.713	-0.176	0.145
-517.902	-43.373	-0.224	0.113
-516.887	-200.000	-0.022	-0.224
-515.872	119.967	0.034	-0.042
-514.858	-49.619	0.438	0.208
-513.843	130.611	0.339	0.434
-512.829	88.750	-0.220	0.245
-511.814	287.420	-0.120	-0.216
-510.799	-151.256	-0.413	0.031
-509.785	-16.330	0.135	0.086
-508.770	145.588	-0.125	0.167
-507.756	800.000	-0.074	-0.295
-506.741	476.543	0.042	-0.094
-505.726	179.861	0.073	0.107
-504.712	-78.225	-0.149	-0.051
-503.697	9.092	0.128	0.096
-502.683	-61.871	-0.216	-0.090
-501.668	247.069	-0.110	0.185
-500.653	-200.000	-0.027	0.234
-499.639	-40.922	-0.131	0.067
-498.624	-24.189	-0.177	-0.105
-497.610	-65.896	-0.268	-0.107
-496.595	149.689	-0.167	0.226
-495.581	546.457	-0.146	0.348
-494.566	37.928	-0.190	-0.169
-493.551	800.000	-0.091	-0.254
-492.537	-200.000	0.087	0.386
-491.522	-15.537	0.226	0.144
-490.508	-153.281	-0.064	-0.004
-489.493	719.563	0.053	-0.142
-488.478	225.366	-0.104	0.168
-487.464	137.939	0.111	0.145
-486.449	-200.000	-0.037	-0.221
-485.435	-200.000	0.054	-0.281
-484.420	-166.719	-0.281	-0.012
-483.405	191.394	-0.065	0.097
-482.391	-19.862	0.337	0.208
-481.376	-200.000	0.142	-0.000
-480.362	-200.000	0.034	0.186
-479.347	-200.000	0.002	0.301
-478.332	-200.000	-0.025	-0.147
-477.318	-200.000	0.107	-0.493
-476.303	25.120	0.139	-0.115
-475.289	45.987	-0.169	-0.156
-474.274	-157.729	0.188	-0.011
-473.259	-182.904	-0.189	0.003
-472.245	76.270	-0.143	0.151
-471.230	608.550	-0.088	-0.219
-470.216	30.556	0.198	-0.169
-469.201	-128.040	-0.388	0.055
-468.186	23.225	0.125	0.102
-467.172	-200.000	-0.045	0.368
-466.157	-200.000	0.000	0.052
-465.143	95.123	0.139	-0.157
-464.128	-41.518	0.262	-0.134
-463.113	765.021	-0.060	-0.162
-462.099	800.000	-0.075	0.221
-461.084	-106.496	0.238	-0.053
-460.070	9.812	-0.148	0.112
-459.055	66.740	-0.134	0.136
-458.040	800.000	-0.063	-0.181
-457.026	129.316	-0.105	0.133
-456.011	-164.887	0.170	-0.008
-454.997	-88.395	-0.400	-0.119
-453.982	240.707	-0.156	-0.260
-452.968	-200.000	-0.040	0.361
-451.953	369.199	-0.108	0.218
-450.938	-154.234	0.384	-0.026
-449.924	800.000	0.068	-0.280
-448.909	-10.396	-0.271	0.179
-447.895	-200.000	0.052	0.228
-446.880	-22.325	0.200	-0.121
-445.865	-24.469	0.272	-0.161
-444.851	288.504	-0.094	-0.169
-443.836	-200.000	-0.041	-0.210
-442.822	-35.527	0.228	-0.123
-441.807	-67.504	-0.253	-0.099
-440.792	167.568	0.077	0.109
-439.778	208.764	-0.099	0.154
-438.763	-7.506	-0.231	-0.155
-437.749	66.246	-0.205	-0.207
-436.734	-149.150	-0.163	0.013
-435.719	389.264	0.116	0.240
-434.705	-35.746	-0.278	-0.150
-433.690	-45.764	0.334	0.164
-432.676	-200.000	-0.017	-0.114
-431.661	-200.000	-0.036	0.249
-430.646	47.535	0.253	0.235
-429.632	-118.858	0.474	-0.083
-428.617	211.854	-0.028	-0.045
-427.603	-153.434	-0.112	0.008
-426.588	7.044	0.049	0.036
-425.573	800.000	-0.032	-0.094
-424.559	-200.000	-0.043	-0.294
-423.544	477.263	0.083	0.186
-422.530	-200.000	-0.240	-0.000
-421.515	52.337	0.238	-0.226
-420.500	-200.000	-0.069	-0.322
-419.486	-200.000	-0.010	-0.121
-418.471	-200.000	-0.001	-0.232
-417.457	-200.000	-0.003	0.099
-416.442	99.179	0.082	-0.095
-415.428	-200.000	-0.020	0.138
-414.413	-165.696	0.111	-0.005
-413.398	-200.000	0.024	-0.130
-412.384	-168.195	0.065	0.002
-411.369	-31.414	0.097	0.054
-410.355	-77.997	-0.096	-0.033
-409.340	-200.000	-0.025	-0.178
-408.325	656.531	-0.087	-0.223
-407.311	-200.000	0.001	0.156
-406.296	64.063	-0.458	0.458
-405.282	-200.000	-0.014	0.276
-404.267	-200.000	-0.047	-0.389
-403.252	20.894	-0.241	-0.194
-402.238	21.565	0.061	-0.049
-401.223	-179.873	0.223	-0.005
-400.209	-136.004	-0.224	0.026
-399.194	-42.544	-0.054	-0.027
-398.179	-84.444	-0.138	-0.043
-397.165	800.000	-0.059	-0.234
-396.150	-200.000	0.028	-0.441
-395.136	1.103	-0.212	-0.151
-394.121	76.137	-0.067	0.070
-393.106	278.441	-0.169	-0.298
-392.092	-200.000	-0.032	-0.246
-391.077	-79.830	-0.142	0.047
-390.063	-200.000	-0.013	-0.244
-389.048	-16.174	-0.249	0.157
-388.033	-105.970	0.223	0.050
-387.019	-200.000	0.035	0.222
-386.004	324.739	-0.054	0.103
-384.990	-123.004	-0.675	-0.108
-383.975	21.219	-0.097	-0.078
-382.960	-200.000	0.010	-0.192
-381.946	800.000	0.088	0.305
-380.931	-200.000	-0.001	-0.045
-379.917	606.688	-0.066	0.164
-378.902	378.350	0.144	0.292
-377.888	371.132	0.130	0.261
-376.873	155.025	-0.198	-0.270
-375.858	-126.752	-0.126	-0.018
-374.844	34.286	0.243	0.210
-373.829	112.998	-0.126	0.152
-372.815	-200.000	-0.011	-0.381
-371.800	-141.063	0.359	-0.037
-370.785	-200.000	0.000	0.495
-369.771	-200.000	0.020	0.161
-368.756	-200.000	0.018	-0.261
-367.742	-85.977	-0.205	-0.063
-366.727	-200.000	0.023	0.156
-365.712	-120.848	-0.325	0.054
-364.698	123.127	-0.176	-0.218
-363.683	-200.000	0.002	0.031
-362.669	72.920	0.084	0.087
-361.654	-81.743	0.338	-0.110
-360.639	-183.626	0.200	0.003
-359.625	-151.085	0.151	-0.011
-358.610	-200.000	0.071	-0.382
-357.596	-90.006	0.084	-0.024
-356.581	-199.057	-0.110	0.001
-355.566	-21.107	0.194	0.118
-354.552	12.363	-0.184	0.141
-353.537	45.552	-0.153	0.140
-352.523	-154.271	0.051	0.003
-351.508	800.000	0.062	-0.216
-350.493	-200.000	-0.070	0.309
-349.479	800.000	-0.084	-0.262
-348.464	113.296	-0.248	0.299
-347.450	800.000	0.053	0.156
-346.435	296.568	-0.163	-0.297
-345.420	-79.133	-0.149	-0.050
-344.406	639.394	0.050	-0.125
-343.391	225.640	-0.155	0.250
-342.377	-10.096	-0.235	0.155
-341.362	48.254	0.052	0.049
-340.348	137.450	0.013	-0.017
-339.333	-117.511	0.185	0.033
-338.318	170.105	0.116	0.164
-337.304	-193.136	-0.273	-0.002
-336.289	-65.924	0.151	-0.060
-335.275	-134.150	0.156	0.019
-334.260	-69.762	0.170	-0.064
-333.245	-35.339	0.164	-0.088
-332.231	-48.436	-0.164	-0.078
-331.216	355.671	0.016	0.032
-330.202	800.000	0.065	0.198
-329.187	6.647	0.135	-0.099
-328.172	800.000	0.042	0.133
-327.158	187.735	-0.269	-0.398
-326.143	-11.025	-0.104	-0.068
-325.129	-21.833	-0.025	0.015
-324.114	3.903	0.355	0.257
-323.099	421.918	0.119	0.253
-322.085	800.000	0.042	0.149
-321.070	-135.618	-0.061	-0.007
-320.056	-200.000	-0.005	0.145
-319.041	-200.000	-0.009	-0.197
-318.026	104.203	-0.176	0.206
-317.012	3.001	0.079	0.057
-315.997	11.140	0.156	0.118
-314.983	26.340	0.257	0.213
-313.968	-200.000	0.000	0.123
-312.953	91.307	0.126	0.141
-311.939	-179.742	0.250	-0.005
-310.924	155.860	0.054	-0.073
-309.910	-123.566	-0.458	-0.072
-308.895	-200.000	0.013	0.300
-307.880	318.174	-0.099	0.186
-306.866	98.753	0.160	0.183
-305.851	712.465	0.155	-0.406
-304.837	125.448	0.388	0.484
-303.822	437.123	0.096	0.206
-302.807	169.818	-0.147	-0.209
-301.793	779.105	0.117	0.318
-300.778	-166.917	-0.129	-0.005
-299.764	-14.803	-0.096	-0.061
-298.749	736.602	-0.069	0.184
-297.735	12.139	0.117	0.089
-296.720	-200.000	-0.021	-0.288
-295.705	-68.256	0.394	0.152
-294.691	-172.766	-0.220	0.007
-293.676	24.650	0.109	-0.089
-292.662	339.839	-0.046	-0.089
-291.647	-15.095	-0.144	0.091
-290.632	-129.886	-0.253	0.034
-289.618	-79.409	0.162	0.054
-288.603	-200.000	-0.020	0.253
-287.589	93.181	0.250	0.279
-286.574	-130.319	0.297	0.040
-285.559	25.306	-0.035	0.028
-284.545	800.000	-0.139	0.510
-283.530	463.045	0.114	0.253
-282.516	99.903	-0.175	0.200
-281.501	-15.640	-0.127	-0.080
-280.486	63.942	-0.125	0.124
-279.472	106.228	-0.141	0.165
-278.457	58.798	-0.246	0.239
-277.443	-13.261	-0.057	0.036
-276.428	-200.000	-0.029	-0.187
-275.413	-142.670	0.243	-0.023
-274.399	221.996	-0.082	0.130
-273.384	800.000	-0.053	0.163
-272.370	-63.895	0.081	-0.033
-271.355	413.443	0.020	-0.043
-270.340	8.938	-0.109	-0.082
-269.326	-139.104	0.573	0.061
-268.311	59.943	0.209	-0.204
-267.297	-9.727	0.120	0.079
-266.282	800.000	0.044	0.159
-265.267	16.346	0.103	0.080
-264.253	163.668	-0.070	-0.097
-263.238	99.973	-0.177	0.203
-262.224	-200.000	0.044	0.321
-261.209	-112.600	0.174	-0.034
-260.195	56.210	-0.077	0.074
-259.180	269.698	0.036	-0.063
-258.165	-114.335	0.305	0.058
-257.151	128.060	-0.135	0.170
-256.136	-57.010	0.248	0.108
-255.122	-12.270	0.234	0.151
-254.107	-128.234	0.250	0.035
-253.092	-16.768	-0.244	-0.152
-252.078	-183.417	-0.339	-0.006
-251.063	-66.199	0.170	0.067
-250.049	371.560	0.202	-0.405
-249.034	286.022	-0.085	-0.152
-248.019	-128.143	0.190	-0.027
-247.005	90.218	-0.216	-0.239
-245.990	76.942	0.130	-0.136
-244.976	800.000	0.037	-0.120
-243.961	-78.507	0.054	-0.018
-242.946	-155.016	-0.224	0.015
-241.932	-200.000	-0.003	-0.184
-240.917	83.681	-0.115	-0.123
-239.903	325.706	-0.084	-0.159
-238.888	-12.935	0.146	0.094
-237.873	-79.299	-0.126	-0.042
-236.859	-77.287	-0.067	-0.023
-235.844	154.523	0.099	0.134
-234.830	213.238	-0.007	-0.011
-233.815	800.000	0.095	0.322
-232.800	30.946	0.187	0.158
-231.786	800.000	-0.067	-0.266
-230.771	26.360	0.196	-0.162
-229.757	345.716	0.185	0.358
-228.742	89.202	-0.087	-0.096
-227.727	612.566	0.028	0.069
-226.713	560.628	0.176	-0.419
-225.698	-178.907	0.134	-0.003
-224.684	-200.000	-0.004	0.252
-223.669	-55.795	-0.191	-0.084
-222.655	800.000	0.067	-0.224
-221.640	-46.090	-0.433	-0.210
-220.625	-200.000	0.003	0.372
-219.611	80.082	0.228	-0.242
-218.596	-200.000	-0.013	0.131
-217.582	-88.678	0.155	-0.045
-216.567	-200.000	-0.007	-0.277
-215.552	398.404	0.090	0.185
-214.538	-62.587	-0.177	0.073
-213.523	174.957	-0.156	0.223
-212.509	-200.000	0.055	-0.275
-211.494	-128.019	-0.436	0.062
-210.479	-95.744	0.065	-0.017
-209.465	-200.000	-0.020	-0.166
-208.450	-121.465	0.049	-0.008
-207.436	73.633	-0.083	-0.086
-206.421	-101.219	0.114	0.028
-205.406	-36.236	0.384	-0.205
-204.392	-200.000	-0.028	-0.298
-203.377	-10.719	0.175	0.114
-202.363	-159.004	-0.642	0.036
-201.348	251.352	0.123	-0.207
-200.333	124.780	0.151	-0.187
-199.319	-137.415	0.298	-0.033
-198.304	-112.417	0.207	-0.041
-197.290	-97.250	-0.104	-0.027
-196.275	-102.666	-0.201	-0.047
-195.260	-149.938	0.249	-0.019
-194.246	-200.000	0.060	0.304
-193.231	-76.690	-0.342	0.118
-192.217	239.307	-0.252	-0.413
-191.202	683.910	0.061	0.157
-190.187	778.568	0.110	-0.295
-189.173	800.000	0.073	-0.215
-188.158	800.000	0.061	-0.180
-187.144	-200.000	0.009	0.147
-186.129	22.253	-0.043	-0.035
-185.114	334.733	0.081	0.155
-184.100	-5.398	-0.209	-0.142
-183.085	-103.261	-0.336	0.078
-182.071	45.229	-0.171	0.155
-181.056	-200.000	-0.035	-0.284
-180.042	-109.507	-0.068	-0.014
-179.027	-82.938	0.219	0.070
-178.012	270.794	-0.035	-0.061
-176.998	-95.539	0.391	-0.103
-175.983	783.017	0.037	0.100
-174.969	54.645	0.080	-0.076
-173.954	63.476	-0.020	0.020
-172.939	-25.931	0.200	0.116
-171.925	328.207	-0.064	-0.121
-170.910	-200.000	-0.008	-0.073
-169.896	-142.496	0.202	0.020
-168.881	110.110	-0.070	0.083
-167.866	23.661	-0.155	-0.126
-166.852	-88.001	0.537	-0.159
-165.837	-200.000	-0.043	-0.251
-164.823	-200.000	-0.004	0.303
-163.808	162.831	-0.204	-0.281
-162.793	34.110	-0.084	0.072
-161.779	568.778	-0.092	-0.221
-160.764	-198.611	0.236	0.001
-159.750	54.530	-0.175	-0.166
-158.735	684.123	0.104	0.267
-157.720	-68.385	0.221	-0.085
-156.706	23.426	-0.335	-0.271
-155.691	-15.176	-0.162	-0.102
-154.677	-88.126	0.196	0.058
-153.662	-103.326	-0.333	0.077
-152.647	-200.000	0.030	0.459
-151.633	-37.284	-0.138	0.073
-150.618	-112.989	-0.172	0.033
-149.604	123.628	0.141	0.175
-148.589	-164.692	0.198	-0.009
-147.574	263.523	-0.135	0.230
-146.560	99.183	-0.087	0.099
-145.545	-192.836	-0.248	0.002
-144.531	800.000	-0.145	-0.403
-143.516	681.429	-0.162	-0.414
-142.502	-200.000	-0.036	-0.243
-141.487	-125.585	0.229	-0.034
-140.472	-120.281	-0.439	-0.074
-139.458	93.192	0.253	0.282
-138.443	-200.000	-0.020	0.143
-137.429	-29.522	0.039	0.022
-136.414	73.607	0.122	-0.126
-135.399	20.737	-0.155	0.123
-134.385	111.665	-0.101	0.120
-133.370	-58.658	-0.084	-0.036
-132.356	471.679	-0.113	0.251
-131.341	-200.000	-0.023	0.110
-130.326	380.408	-0.097	0.196
-129.312	800.000	0.133	-0.443
-128.297	800.000	0.050	-0.185
-127.283	125.775	0.167	0.207
-126.268	-148.314	0.383	0.031
-125.253	-92.081	-0.158	-0.044
-124.239	800.000	0.072	-0.227
-123.224	29.799	0.240	-0.201
-122.210	-200.000	0.038	-0.257
-121.195	-22.268	0.187	-0.111
-120.180	654.274	0.036	0.090
-119.166	17.604	0.095	-0.074
-118.151	-58.624	-0.072	-0.031
-117.137	800.000	-0.105	-0.384
-116.122	448.035	-0.127	0.276
-115.107	33.051	0.098	0.084
-114.093	262.092	-0.136	0.231
-113.078	300.881	0.106	0.192
-112.064	30.630	0.158	-0.133
-111.049	487.789	0.061	0.136
-110.034	-200.000	0.032	-0.214
-109.020	-80.651	0.164	-0.054
-108.005	-4.224	0.157	0.107
-106.991	-21.076	0.156	-0.094
-105.976	800.000	-0.104	0.437
-104.962	-90.687	-0.197	0.056
-103.947	-98.205	0.109	0.027
-102.932	241.688	-0.127	0.208
-101.918	-21.637	-0.358	-0.214
-100.903	-21.162	0.096	-0.057
-99.889	542.097	-0.022	-0.051
-98.874	-52.812	0.221	0.100
-97.859	206.570	-0.181	-0.277
-96.845	-88.741	0.029	-0.008
-95.830	415.648	-0.152	0.318
-94.816	-118.988	0.334	0.058
-93.801	27.820	-0.165	-0.137
-92.786	-76.533	0.123	-0.043
-91.772	179.582	-0.271	-0.390
-90.757	71.597	0.207	0.211
-89.743	-200.000	0.036	0.336
-88.728	800.000	0.100	-0.426
-87.713	-200.000	-0.008	0.216
-86.699	-105.728	0.085	0.019
-85.684	-200.000	0.002	-0.064
-84.670	-99.241	0.166	-0.041
-83.655	800.000	-0.094	0.382
-82.640	115.411	0.059	0.071
-81.626	-46.062	-0.064	-0.031
-80.611	161.959	-0.137	-0.188
-79.597	47.132	-0.090	-0.082
-78.582	-121.441	0.106	0.017
-77.567	173.633	-0.117	0.166
-76.553	-3.184	-0.090	0.062
-75.538	134.353	0.192	0.244
-74.524	-200.000	0.022	-0.093
-73.509	657.226	0.118	-0.297
-72.494	-92.271	0.278	-0.077
-71.480	237.496	0.164	0.267
-70.465	-66.553	0.333	-0.130
-69.451	631.029	-0.103	0.257
-68.436	-28.769	0.212	0.120
-67.422	-147.484	0.222	0.018
-66.407	800.000	-0.091	0.334
-65.392	-14.437	-0.079	-0.050
-64.378	305.321	0.031	-0.056
-63.363	170.845	0.125	0.176
-62.349	-44.670	-0.039	-0.019
-61.334	19.392	-1.492	-1.175
-60.319	81.181	0.494	0.523
-59.305	800.000	-0.301	-1.035
-58.290	313.160	0.747	1.377
-57.276	800.000	0.546	1.517
-56.261	-200.000	107.309	578.161
-55.246	415.931	1512.148	3161.199
-54.232	139.588	2727.199	3520.176
-53.217	96.281	2334.538	2617.114
-52.203	37.802	1936.814	1686.506
-51.188	32.092	1723.137	1456.251
-50.173	29.631	1679.904	1401.023
-49.159	48.009	1733.555	1587.857
-48.144	48.166	1748.929	1603.086
-47.130	31.782	1706.708	1439.755
-46.115	29.133	1691.720	1406.849
-45.100	28.973	1686.786	1401.477
-44.086	28.875	1684.352	1398.648
-43.071	28.821	1681.928	1396.175
-42.057	28.772	1679.286	1393.548
-41.042	28.868	1676.856	1392.206
-40.027	28.959	1674.597	1390.961
-39.013	28.937	1673.054	1389.460
-37.998	28.795	1671.855	1387.339
-36.984	28.928	1670.208	1386.918
-35.969	29.001	1669.046	1386.447
-34.954	29.074	1667.189	1385.405
-33.940	28.982	1665.559	1383.297
-32.925	29.045	1663.690	1382.163
-31.911	29.073	1661.841	1380.783
-30.896	29.039	1659.670	1378.670
-29.881	28.972	1658.307	1376.981
-28.867	29.011	1656.798	1375.969
-27.852	28.968	1656.059	1374.980
-26.838	29.035	1654.215	1373.895
-25.823	29.165	1652.346	1373.259
-24.809	29.086	1650.990	1371.484
-23.794	29.003	1650.213	1370.170
-22.779	29.111	1648.245	1369.282
-21.765	29.110	1645.994	1367.353
-20.750	29.019	1645.236	1365.993
-19.736	29.011	1643.937	1364.801
-18.721	29.137	1641.965	1364.041
-17.706	29.077	1640.220	1362.093
-16.692	29.010	1639.014	1360.545
-15.677	29.038	1637.717	1359.621
-14.663	29.158	1636.081	1359.094
-13.648	29.025	1635.104	1357.244
-12.633	29.047	1633.292	1355.848
-11.619	29.007	1631.589	1354.088
-10.604	29.089	1630.099	1353.398
-9.590	29.063	1629.062	1352.296
-8.575	29.081	1627.725	1351.264
-7.560	29.049	1626.781	1350.189
-6.546	29.087	1625.334	1349.218
-5.531	29.072	1624.057	1347.991
-4.517	29.094	1623.068	1347.281
-3.502	29.103	1621.878	1346.302
-2.487	29.138	1620.341	1345.231
-1.473	28.964	1608.748	1334.293
-0.458	26.541	1589.588	1300.958
0.556	21.330	1591.682	1269.443
1.571	19.138	1615.970	1272.518
2.586	18.599	1628.803	1278.491
3.600	16.743	1575.263	1222.965
4.615	9.264	1462.767	1085.202
5.629	1.919	1398.159	989.643
6.644	0.466	1389.318	973.922
7.659	0.374	1388.142	972.419
8.673	0.362	1387.120	971.536
9.688	0.288	1385.664	969.957
10.702	0.105	1381.900	966.058
11.717	3.565	1387.823	992.397
12.731	11.493	1400.067	1052.330
13.746	16.436	1406.957	1089.356
14.761	16.877	1406.438	1091.696
15.775	16.280	1403.892	1085.787
16.790	15.170	1402.087	1077.163
17.804	14.421	1399.696	1070.417
18.819	14.063	1397.946	1066.691
19.834	13.802	1396.661	1063.939
20.848	13.558	1395.598	1061.475
21.863	13.233	1394.079	1058.145
22.877	13.221	1392.442	1056.729
23.892	13.128	1391.683	1055.470
24.907	13.087	1391.015	1054.609
25.921	13.101	1389.955	1053.799
26.936	13.140	1389.146	1053.340
27.950	13.191	1388.381	1052.994
28.965	13.203	1387.285	1052.144
29.980	13.345	1386.375	1052.262
30.994	13.310	1385.566	1051.335
32.009	13.314	1384.730	1050.631
33.023	13.288	1383.409	1049.374
34.038	13.277	1382.415	1048.457
35.053	13.275	1380.990	1047.268
36.067	13.287	1379.638	1046.231
37.082	13.339	1378.564	1045.648
38.096	13.223	1378.222	1044.562
39.111	13.265	1377.410	1044.123
40.126	13.300	1376.234	1043.358
41.140	13.282	1375.195	1042.364
42.155	13.084	1375.778	1041.468
43.169	13.077	1375.623	1041.215
44.184	13.143	1374.797	1040.912
45.199	13.169	1373.955	1040.348
46.213	13.136	1373.547	1039.736
47.228	13.226	1372.569	1039.469
48.242	13.283	1371.317	1038.788
49.257	13.184	1369.660	1036.821
50.271	13.259	1368.324	1036.187
51.286	13.219	1367.375	1035.123
52.301	13.325	1365.632	1034.381
53.315	13.238	1364.904	1033.190
54.330	13.260	1363.753	1032.366
55.344	13.159	1362.867	1030.975
56.359	13.190	1361.623	1030.136
57.374	13.116	1360.716	1028.896
58.388	12.978	1360.257	1027.601
59.403	13.133	1359.235	1027.702
60.417	13.130	1358.236	1026.834
61.432	13.082	1357.599	1025.963
62.447	13.072	1356.701	1025.133
63.461	12.990	1355.529	1023.648
64.476	13.181	1353.926	1023.533
65.490	13.132	1352.999	1022.437
66.505	13.144	1351.284	1021.123
67.520	13.111	1350.423	1020.176
68.534	13.008	1349.390	1018.676
69.549	13.087	1348.147	1018.131
70.563	13.149	1347.048	1017.596
71.578	13.025	1346.366	1016.225
72.593	13.077	1344.883	1015.335
73.607	13.048	1344.380	1014.688
74.622	13.062	1343.291	1013.860
75.636	13.032	1342.956	1013.336
76.651	13.090	1341.974	1012.860
77.666	13.013	1341.374	1011.843
78.680	13.007	1340.594	1011.129
79.695	13.044	1339.603	1010.521
80.709	13.091	1338.708	1010.044
81.724	13.129	1337.925	1009.595
82.739	13.155	1337.029	1008.990
83.753	13.199	1336.160	1008.511
84.768	13.305	1335.118	1008.285
85.782	13.299	1334.236	1007.492
86.797	13.206	1332.602	1005.604
87.812	13.269	1331.067	1004.740
88.826	13.249	1329.925	1003.667
89.841	13.263	1328.836	1002.841
90.855	13.296	1327.876	1002.226
91.870	13.278	1327.160	1001.490
92.884	13.349	1326.313	1001.188
93.899	13.243	1325.466	999.820
94.914	13.412	1324.445	999.982
95.928	13.230	1324.378	998.746
96.943	13.331	1323.002	998.226
97.957	13.301	1322.015	997.212
98.972	13.253	1321.055	996.112
99.987	13.302	1319.825	995.392
101.001	13.233	1319.210	994.427
102.016	13.330	1317.894	993.929
103.030	13.374	1317.139	993.533
104.045	13.320	1316.217	992.427
105.060	13.259	1314.956	991.021
106.074	13.190	1313.279	989.260
107.089	13.112	1312.057	987.787
108.103	13.142	1311.134	987.184
109.118	13.135	1309.538	985.849
110.133	13.107	1308.078	984.500
111.147	13.296	1306.821	984.589
112.162	13.216	1305.346	982.916
113.176	13.290	1304.173	982.384
114.191	13.244	1303.280	981.353
115.206	13.347	1301.507	980.540
116.220	13.211	1301.182	979.405
117.235	13.279	1299.850	978.716
118.249	13.280	1298.673	977.752
119.264	13.238	1297.503	976.535
120.279	13.185	1296.446	975.340
121.293	13.120	1295.669	974.284
122.308	13.189	1294.172	973.479
123.322	13.216	1293.340	972.926
124.337	13.087	1292.525	971.470
125.352	13.196	1291.063	970.922
126.366	13.077	1289.836	969.220
127.381	13.109	1289.094	968.764
128.395	13.208	1287.602	968.135
129.410	13.195	1286.571	967.197
130.424	13.271	1285.709	966.910
131.439	13.260	1284.942	966.185
132.454	13.300	1283.991	965.614
133.468	13.279	1282.466	964.258
134.483	13.292	1282.044	963.935
135.497	13.275	1280.977	962.949
136.512	13.305	1279.573	961.983
137.527	13.268	1277.984	960.487
138.541	13.199	1276.759	959.078
139.556	13.205	1275.298	957.933
140.570	13.265	1274.135	957.319
141.585	13.378	1273.189	957.180
142.600	13.328	1272.046	955.946
143.614	13.422	1270.991	955.615
144.629	13.477	1269.866	955.002
145.643	13.400	1268.642	953.553
146.658	13.363	1267.571	952.447
147.673	13.359	1265.818	951.022
148.687	13.229	1264.913	949.512
149.702	13.312	1263.550	948.885
150.716	13.243	1262.356	947.507
151.731	13.423	1260.597	947.132
152.746	13.352	1259.943	946.149
153.760	13.399	1258.943	945.587
154.775	13.466	1257.455	944.768
155.789	13.453	1256.512	943.898
156.804	13.522	1255.622	943.540
157.819	13.470	1254.626	942.415
158.833	13.513	1253.893	942.026
159.848	13.579	1252.967	941.621
160.862	13.499	1251.650	940.095
161.877	13.552	1250.510	939.452
162.892	13.394	1249.539	937.744
163.906	13.526	1248.921	937.948
164.921	13.462	1247.786	936.650
165.935	13.499	1247.155	936.303
166.950	13.558	1245.988	935.677
167.964	13.536	1245.387	935.020
168.979	13.551	1244.508	934.360
169.994	13.560	1244.187	934.086
171.008	13.639	1242.727	933.351
172.023	13.609	1242.136	932.656
173.037	13.550	1241.513	931.775
174.052	13.688	1240.428	931.657
175.067	13.565	1239.323	930.052
176.081	13.631	1238.105	929.428
177.096	13.477	1237.987	928.389
178.110	13.499	1236.491	927.311
179.125	13.718	1235.015	927.344
180.140	13.635	1233.835	925.916
181.154	13.567	1233.046	924.862
182.169	13.657	1231.557	924.166
183.183	13.788	1230.105	923.722
184.198	13.619	1229.569	922.297
185.213	13.789	1228.059	922.028
186.227	13.802	1226.756	921.042
187.242	13.873	1225.737	920.585
188.256	13.880	1224.786	919.831
189.271	13.883	1223.644	918.906
190.286	13.820	1222.621	917.712
191.300	13.771	1221.861	916.786
192.315	13.684	1221.573	916.010
193.329	13.715	1220.712	915.456
194.344	13.768	1219.964	915.103
195.359	13.755	1219.333	914.480
196.373	13.848	1219.245	914.846
197.388	13.771	1218.453	913.745
198.402	13.927	1217.994	914.176
199.417	13.898	1217.227	913.364
200.432	14.045	1216.078	913.229
201.446	14.145	1215.212	913.046
202.461	14.081	1213.975	911.685
203.475	14.092	1213.352	911.197
204.490	14.055	1211.974	909.877
205.504	14.069	1211.165	909.266
206.519	14.059	1209.882	908.170
207.534	14.035	1208.792	907.137
208.548	13.954	1208.057	906.064
209.563	14.016	1207.021	905.544
210.577	14.096	1205.848	905.023
211.592	14.022	1205.343	904.158
212.607	14.206	1204.549	904.484
213.621	14.115	1203.454	903.085
214.636	14.189	1202.586	902.760
215.650	14.094	1201.781	901.559
216.665	14.176	1200.803	901.189
217.680	14.254	1199.844	900.812
218.694	14.330	1198.917	900.447
219.709	14.220	1198.438	899.411
220.723	14.407	1197.375	899.544
221.738	14.317	1196.300	898.171
222.753	14.333	1195.949	897.917
223.767	14.316	1195.143	897.138
224.782	14.407	1194.435	897.020
225.796	14.320	1194.177	896.279
226.811	14.431	1193.372	896.193
227.826	14.407	1192.458	895.297
228.840	14.409	1192.019	894.900
229.855	14.273	1191.251	893.513
230.869	14.324	1190.493	893.140
231.884	14.317	1189.605	892.354
232.899	14.335	1188.456	891.510
233.913	14.356	1187.832	891.078
234.928	14.413	1187.092	890.746
235.942	14.305	1186.416	889.584
236.957	14.400	1185.577	889.382
237.972	14.375	1184.980	888.722
238.986	14.372	1184.307	888.124
240.001	14.411	1183.402	887.576
241.015	14.359	1182.833	886.790
242.030	14.422	1181.713	886.211
243.045	14.526	1181.241	886.329
244.059	14.393	1180.345	884.875
245.074	14.463	1179.459	884.502
246.088	14.474	1178.091	883.454
247.103	14.711	1177.565	884.236
248.117	14.655	1176.746	883.251
249.132	14.651	1176.562	883.014
250.147	14.732	1175.233	882.366
251.161	14.784	1174.558	882.051
252.176	14.704	1174.170	881.261
253.190	14.807	1173.799	881.449
254.205	14.918	1172.586	881.044
255.220	14.841	1172.697	880.646
256.234	14.875	1171.611	879.931
257.249	14.859	1170.761	879.130
258.263	14.937	1170.157	879.009
259.278	15.033	1169.252	878.757
260.293	14.901	1169.051	877.835
261.307	15.029	1168.377	877.919
262.322	14.975	1167.549	876.938
263.336	14.960	1167.048	876.407
264.351	14.876	1166.756	875.670
265.366	15.022	1165.685	875.550
266.380	15.068	1164.876	875.104
267.395	15.121	1163.845	874.534
268.409	15.036	1163.812	873.984
269.424	15.117	1162.679	873.480
270.439	15.014	1161.908	872.287
271.453	15.186	1160.953	872.387
272.468	15.079	1160.484	871.403
273.482	15.143	1159.392	870.836
274.497	15.149	1158.845	870.380
275.512	15.111	1158.377	869.756
276.526	15.080	1157.626	868.953
277.541	15.052	1157.220	868.427
278.555	15.081	1156.565	868.009
279.570	15.188	1155.224	867.481
280.585	15.198	1154.843	867.165
281.599	15.111	1153.966	865.985
282.614	15.223	1152.814	865.622
283.628	15.194	1151.766	864.609
284.643	15.213	1150.862	863.948
285.657	15.376	1149.433	863.638
286.672	15.329	1148.992	862.988
287.687	15.356	1148.088	862.374
288.701	15.398	1147.327	861.941
289.716	15.457	1146.358	861.441
290.730	15.373	1146.105	860.740
291.745	15.340	1145.541	860.073
292.760	15.312	1144.588	859.139
293.774	15.420	1144.058	859.215
294.789	15.492	1143.323	858.956
295.803	15.382	1143.097	858.151
296.818	15.372	1142.153	857.313
297.833	15.461	1140.847	856.712
298.847	15.542	1140.380	856.699
299.862	15.377	1139.612	855.205
300.876	15.498	1139.213	855.447
301.891	15.583	1138.277	855.099
302.906	15.570	1137.310	854.234
303.920	15.610	1136.753	853.941
304.935	15.532	1136.260	853.098
305.949	15.645	1135.518	853.040
306.964	15.807	1134.721	853.189
307.979	15.660	1134.235	852.001
308.993	15.730	1133.512	851.736
310.008	15.754	1132.660	851.144
311.022	15.815	1131.967	850.857
312.037	15.758	1130.731	849.563
313.052	15.806	1130.097	849.255
314.066	15.658	1129.576	848.039
315.081	15.709	1128.471	847.396
316.095	15.676	1127.334	846.299
317.110	15.728	1126.656	845.978
318.125	15.813	1125.878	845.743
319.139	15.666	1125.298	844.494
320.154	15.717	1124.536	844.103
321.168	15.669	1123.908	843.321
322.183	15.802	1123.115	843.318
323.197	15.860	1122.508	843.075
324.212	15.737	1122.042	842.036
325.227	15.777	1121.564	841.801
326.241	15.865	1120.697	841.516
327.256	15.861	1119.802	840.750
328.270	15.822	1119.216	840.040
329.285	15.883	1118.278	839.569
330.300	15.853	1117.005	838.388
331.314	15.758	1116.517	837.473
332.329	15.857	1115.431	837.077
333.343	15.868	1114.690	836.504
334.358	15.894	1113.599	835.738
335.373	15.850	1113.311	835.229
336.387	15.861	1112.401	834.529
337.402	15.994	1111.645	834.544
338.416	15.912	1111.031	833.603
339.431	15.990	1110.225	833.315
340.446	16.097	1109.824	833.468
341.460	16.082	1108.788	832.541
342.475	16.126	1108.099	832.168
343.489	16.151	1107.306	831.621
344.504	16.217	1105.929	830.837
345.519	16.226	1105.471	830.466
346.533	16.183	1104.462	829.422
347.548	16.213	1104.131	829.249
348.562	16.315	1103.174	828.955
349.577	16.223	1102.385	827.840
350.592	16.264	1101.449	827.263
351.606	16.182	1100.996	826.450
352.621	16.179	1100.382	825.901
353.635	16.184	1099.851	825.452
354.650	16.172	1099.098	824.758
355.665	16.196	1098.097	824.049
356.679	16.314	1097.404	824.031
357.694	16.271	1096.895	823.365
358.708	16.249	1096.359	822.786
359.723	16.394	1095.412	822.710
360.738	16.395	1094.904	822.258
361.752	16.398	1094.322	821.761
362.767	16.388	1093.996	821.396
363.781	16.497	1093.013	821.117
364.796	16.354	1092.903	820.265
365.810	16.489	1092.234	820.346
366.825	16.580	1091.295	820.010
367.840	16.657	1090.359	819.608
368.854	16.726	1090.038	819.627
369.869	16.536	1089.591	818.299
370.883	16.584	1088.613	817.723
371.898	16.616	1087.833	817.218
372.913	16.603	1087.351	816.723
373.927	16.584	1086.818	816.160
374.942	16.593	1086.600	815.967
375.956	16.676	1085.771	815.669
376.971	16.639	1085.053	814.879
377.986	16.755	1084.188	814.716
379.000	16.711	1084.094	814.363
380.015	16.847	1083.441	814.452
381.029	16.922	1082.603	814.110
382.044	16.799	1082.209	813.156
383.059	16.871	1081.151	812.632
384.073	16.825	1080.656	811.966
385.088	16.922	1079.324	811.360
386.102	16.900	1078.151	810.301
387.117	16.866	1077.770	809.782
388.132	16.780	1077.050	808.758
389.146	16.771	1076.290	808.071
390.161	16.842	1075.325	807.613
391.175	16.919	1074.255	807.106
392.190	16.968	1073.689	806.844
393.205	16.857	1073.546	806.137
394.219	16.948	1072.337	805.588
395.234	16.959	1071.286	804.780
396.248	16.943	1070.093	803.736
397.263	16.873	1069.808	803.119
398.278	16.832	1068.995	802.245
399.292	16.895	1068.358	801.993
400.307	16.903	1067.672	801.443
401.321	16.940	1066.999	801.044
402.336	16.873	1066.251	800.095
403.350	16.970	1065.550	799.958
404.365	17.008	1064.921	799.591
405.380	16.964	1064.083	798.683
406.394	17.110	1063.246	798.671
407.409	17.066	1062.587	797.899
408.423	17.152	1061.683	797.555
409.438	17.132	1061.148	796.989
410.453	17.210	1060.151	796.536
411.467	17.213	1059.722	796.157
412.482	17.253	1059.125	795.825
413.496	17.254	1058.286	795.130
414.511	17.272	1057.825	794.797
415.526	17.337	1057.165	794.532
416.540	17.378	1056.750	794.341
417.555	17.306	1056.422	793.690
418.569	17.418	1055.442	793.407
419.584	17.343	1055.341	792.911
420.599	17.349	1055.050	792.648
421.613	103.529	1325.945	1472.381
422.628	95.371	1365.375	1472.457
