DTS Sentinel unit serial number:	SN413079Multiplexer serial number:	ORYXHardware model number:	OX4-SRSoftware version number:	ORYX F/W v4.00 Oryx Data Collector v3.7.2.0data status	okinstallation	princeton_trtdifferential loss correction	single-endedforward channel	channel 2reverse channel	N/Adate	2019/09/12time	05:13:11forward acquisition time	60.00reverse acquisition time	0.00gamma	496.2192k internal	0.2325k external	0.2325temperature offset calibration	1.0067default loss term (dB/km)	0.3790temperature slope calibration	1.0000multiplexer offset coefficient	1.0000multiplexer slope coefficient	1.0000fibre end	0.00T internal ref (°C)	31.81T ext. ref 1 (°C)	1.63T ext. ref 2 (°C)	27.28length (m)	temperature (°C)	Stokes	anti-Stokes-747.200	11.524	-0.191	-0.148
-746.185	192.110	0.193	0.294
-745.171	74.741	0.210	0.223
-744.156	-69.370	-0.146	-0.056
-743.142	-125.446	-0.162	-0.025
-742.127	-0.281	0.197	0.141
-741.112	-175.983	-0.213	-0.006
-740.098	6.607	0.018	0.014
-739.083	-115.529	0.128	0.024
-738.069	800.000	0.065	-0.189
-737.054	800.000	-0.030	-0.134
-736.039	391.872	0.067	-0.141
-735.025	54.860	0.066	-0.064
-734.010	127.461	-0.067	-0.086
-732.996	-54.080	0.198	0.091
-731.981	-73.571	-0.088	0.033
-730.966	-200.000	-0.009	-0.536
-729.952	-20.494	-0.157	-0.097
-728.937	0.475	0.205	0.148
-727.923	164.437	-0.168	-0.239
-726.908	-119.836	-0.306	0.053
-725.894	-200.000	-0.050	-0.474
-724.879	449.134	-0.204	-0.454
-723.864	-190.431	-0.213	-0.002
-722.850	152.841	-0.112	0.154
-721.835	167.709	0.057	0.082
-720.821	116.293	0.049	0.061
-719.806	800.000	-0.073	-0.247
-718.791	-200.000	-0.011	-0.598
-717.777	-200.000	0.001	-0.296
-716.762	-200.000	-0.017	0.084
-715.748	-108.260	-0.122	-0.027
-714.733	27.684	-0.155	-0.131
-713.718	-138.492	0.129	0.014
-712.704	800.000	-0.043	0.177
-711.689	800.000	-0.078	-0.241
-710.675	149.662	-0.194	-0.265
-709.660	-177.434	-0.292	-0.007
-708.645	618.781	-0.041	-0.104
-707.631	783.391	0.123	-0.340
-706.616	-61.210	0.143	0.061
-705.602	73.044	-0.093	0.097
-704.587	-66.987	0.307	-0.122
-703.572	-128.107	-0.092	-0.013
-702.558	-67.796	0.157	-0.062
-701.543	-200.000	-0.048	0.225
-700.529	-89.241	-0.222	0.066
-699.514	290.434	0.051	0.092
-698.499	58.409	-0.223	0.220
-697.485	-125.194	-0.216	-0.033
-696.470	-108.099	-0.171	0.037
-695.456	262.704	0.142	0.248
-694.441	-140.423	0.317	-0.033
-693.426	157.995	0.199	0.278
-692.412	800.000	-0.047	-0.148
-691.397	-200.000	0.021	-0.118
-690.383	800.000	0.078	-0.296
-689.368	-200.000	-0.212	0.001
-688.354	-200.000	0.009	-0.082
-687.339	82.756	-0.039	0.043
-686.324	-100.954	0.416	0.103
-685.310	50.378	0.087	0.082
-684.295	-200.000	-0.005	0.145
-683.281	-21.165	0.121	0.075
-682.266	604.229	0.203	-0.509
-681.251	49.193	-0.283	0.267
-680.237	561.254	-0.089	-0.217
-679.222	76.204	-0.034	0.036
-678.208	27.915	0.200	-0.170
-677.193	-64.915	-0.306	0.125
-676.178	650.537	0.044	-0.114
-675.164	800.000	-0.083	-0.316
-674.149	-63.140	-0.139	-0.058
-673.135	-119.333	0.308	-0.054
-672.120	-9.737	-0.068	-0.046
-671.105	-200.000	0.017	0.221
-670.091	-7.332	-0.171	0.116
-669.076	-167.478	0.458	0.018
-668.062	-200.000	-0.031	-0.289
-667.047	-133.696	-0.088	-0.011
-666.032	11.391	-0.124	-0.095
-665.018	-45.531	0.245	0.122
-664.003	-100.765	-0.264	-0.065
-662.989	-59.299	0.290	0.125
-661.974	-110.118	0.171	0.036
-660.959	-95.877	-0.057	0.015
-659.945	-200.000	-0.062	0.332
-658.930	-39.493	-0.174	0.092
-657.916	78.811	-0.217	-0.233
-656.901	-200.000	0.030	0.205
-655.886	-41.975	-0.164	-0.084
-654.872	4.991	0.296	-0.219
-653.857	1.005	-0.117	0.084
-652.843	206.660	0.060	0.094
-651.828	800.000	-0.084	0.258
-650.814	333.201	-0.047	-0.091
-649.799	222.115	-0.234	-0.378
-648.784	-200.000	0.012	0.072
-647.770	-78.668	0.052	0.018
-646.755	51.223	0.128	-0.122
-645.741	-115.201	-0.491	0.093
-644.726	-34.907	0.301	-0.165
-643.711	800.000	-0.088	0.300
-642.697	203.923	-0.252	0.392
-641.682	17.105	0.141	-0.113
-640.668	-200.000	-0.028	-0.187
-639.653	216.813	0.122	0.196
-638.638	-60.936	-0.214	0.091
-637.624	-46.353	-0.152	-0.075
-636.609	-62.204	-0.363	0.152
-635.595	-106.581	-0.367	0.082
-634.580	-6.198	0.028	-0.019
-633.565	292.044	-0.122	0.224
-632.551	-79.918	0.207	-0.070
-631.536	800.000	0.108	-0.364
-630.522	-62.124	0.481	0.202
-629.507	-77.812	-0.096	-0.033
-628.492	-182.374	-0.269	-0.005
-627.478	-126.684	0.037	0.005
-626.463	800.000	0.059	-0.260
-625.449	-165.983	0.016	0.001
-624.434	-200.000	-0.044	-0.266
-623.419	-57.193	-0.215	0.095
-622.405	13.273	-0.124	0.097
-621.390	87.843	-0.119	-0.133
-620.376	800.000	0.117	-0.335
-619.361	101.538	0.064	-0.075
-618.346	-200.000	-0.008	-0.128
-617.332	62.907	-0.184	0.185
-616.317	196.657	0.071	0.109
-615.303	677.569	0.060	-0.156
-614.288	29.037	-0.050	-0.043
-613.273	800.000	0.038	-0.112
-612.259	-133.104	-0.380	0.048
-611.244	12.869	-0.124	0.096
-610.230	-11.148	0.240	-0.159
-609.215	42.113	0.387	0.352
-608.201	5.215	-0.309	0.229
-607.186	-88.113	-0.169	-0.051
-606.171	-34.874	-0.140	-0.076
-605.157	-200.000	-0.065	0.343
-604.142	-56.286	-0.056	-0.025
-603.128	351.310	0.159	-0.317
-602.113	800.000	0.069	-0.210
-601.098	800.000	0.070	0.252
-600.084	800.000	0.053	0.192
-599.069	176.772	-0.234	-0.341
-598.055	-27.636	0.193	0.113
-597.040	134.059	0.309	0.402
-596.025	113.132	0.124	0.151
-595.011	-37.171	-0.193	0.104
-593.996	-110.665	-0.243	0.050
-592.982	-200.000	0.002	0.181
-591.967	-166.360	0.296	0.012
-590.952	638.040	-0.094	-0.240
-589.938	18.988	-0.266	-0.214
-588.923	261.162	0.142	-0.246
-587.909	-79.711	-0.190	0.064
-586.894	130.724	-0.120	-0.154
-585.879	203.741	0.086	-0.134
-584.865	-200.000	0.027	-0.261
-583.850	-10.079	-0.224	-0.149
-582.836	-200.000	0.001	0.158
-581.821	-200.000	0.042	-0.232
-580.806	22.699	0.193	0.159
-579.792	221.256	0.066	0.106
-578.777	-100.689	-0.204	0.051
-577.763	-200.000	0.042	-0.185
-576.748	-200.000	-0.013	-0.175
-575.733	79.756	-0.315	-0.340
-574.719	556.965	-0.058	-0.140
-573.704	-200.000	-0.021	-0.172
-572.690	117.137	-0.110	0.136
-571.675	-74.233	-0.182	-0.066
-570.661	7.780	0.224	0.168
-569.646	635.884	-0.162	-0.411
-568.631	122.858	-0.147	-0.184
-567.617	-139.406	-0.178	-0.019
-566.602	-151.270	0.217	-0.016
-565.588	224.267	-0.186	0.301
-564.573	96.991	-0.192	-0.221
-563.558	-35.028	-0.117	0.064
-562.544	-151.738	-0.196	-0.014
-561.529	-88.748	0.174	-0.052
-560.515	-88.328	-0.252	0.076
-559.500	56.597	0.285	-0.277
-558.485	11.575	0.403	-0.309
-557.471	-90.251	0.137	-0.040
-556.456	-68.170	0.224	0.087
-555.442	-78.612	0.129	-0.044
-554.427	66.517	-0.194	-0.197
-553.412	-102.545	0.375	0.090
-552.398	158.809	0.038	0.053
-551.383	-11.005	-0.246	0.163
-550.369	11.952	-0.265	-0.204
-549.354	-116.448	-0.475	0.088
-548.339	-6.178	0.236	-0.161
-547.325	800.000	0.070	0.228
-546.310	254.512	-0.114	-0.196
-545.296	800.000	-0.047	-0.190
-544.281	59.906	0.232	-0.230
-543.266	-70.117	-0.068	-0.026
-542.252	-200.000	-0.014	0.087
-541.237	-118.773	-0.057	0.010
-540.223	800.000	-0.012	0.040
-539.208	-92.633	0.318	-0.089
-538.193	45.951	0.090	-0.083
-537.179	-200.000	0.032	-0.175
-536.164	-29.790	0.205	-0.117
-535.150	275.773	0.083	0.148
-534.135	257.842	0.099	0.170
-533.121	-55.342	-0.303	0.136
-532.106	573.022	0.136	0.331
-531.091	41.986	0.113	-0.102
-530.077	63.587	0.109	-0.110
-529.062	188.137	-0.125	0.187
-528.048	302.369	-0.151	0.279
-527.033	-37.931	0.185	-0.098
-526.018	362.430	0.075	-0.151
-525.004	-200.000	-0.015	-0.203
-523.989	-6.780	0.553	0.376
-522.975	138.401	-0.232	-0.304
-521.960	-16.947	-0.107	0.068
-520.945	397.953	-0.095	-0.199
-519.931	77.565	0.221	-0.235
-518.916	-200.000	0.009	-0.137
-517.902	454.155	0.135	0.300
-516.887	-153.539	0.309	0.021
-515.872	-152.623	0.140	-0.010
-514.858	-166.931	-0.307	-0.013
-513.843	-86.251	0.408	0.126
-512.829	800.000	-0.065	0.244
-511.814	179.844	0.192	-0.281
-510.799	800.000	-0.100	0.403
-509.785	166.285	0.099	0.139
-508.770	338.804	-0.082	0.159
-507.756	-200.000	0.031	0.172
-506.741	15.255	0.237	0.186
-505.726	169.673	-0.059	0.084
-504.712	-200.000	0.013	0.207
-503.697	-9.324	-0.188	-0.126
-502.683	-200.000	-0.028	0.223
-501.668	11.042	-0.083	0.063
-500.653	-4.578	-0.165	0.114
-499.639	-90.968	-0.030	-0.009
-498.624	-200.000	-0.042	-0.275
-497.610	78.934	-0.038	-0.040
-496.595	-200.000	-0.013	0.062
-495.581	-200.000	0.045	-0.293
-494.566	139.668	0.089	-0.117
-493.551	-42.404	-0.146	-0.075
-492.537	-8.463	-0.094	0.063
-491.522	26.693	-0.227	0.190
-490.508	-200.000	-0.084	0.378
-489.493	77.715	-0.192	-0.204
-488.478	85.360	-0.060	0.066
-487.464	-200.000	0.003	-0.175
-486.449	334.331	0.111	-0.214
-485.435	-72.092	-0.096	0.036
-484.420	-86.569	-0.109	0.033
-483.405	311.930	-0.133	-0.249
-482.391	-33.034	-0.078	0.043
-481.376	800.000	0.112	0.319
-480.362	-200.000	-0.139	0.000
-479.347	-76.831	-0.192	0.067
-478.332	-162.734	-0.301	0.015
-477.318	342.453	0.266	-0.520
-476.303	-9.413	-0.125	-0.083
-475.289	277.832	-0.095	-0.169
-474.274	-200.000	0.003	0.211
-473.259	439.673	-0.006	-0.014
-472.245	-200.000	0.064	0.399
-471.230	9.297	0.199	-0.150
-470.216	165.331	0.066	-0.093
-469.201	313.816	-0.138	-0.260
-468.186	227.203	-0.040	0.065
-467.172	-87.464	-0.159	-0.048
-466.157	235.966	0.070	0.115
-465.143	-89.302	-0.011	-0.003
-464.128	-32.673	0.229	0.127
-463.113	800.000	-0.040	0.136
-462.099	-98.693	0.174	0.044
-461.084	-62.220	-0.371	0.154
-460.070	66.266	0.191	-0.194
-459.055	321.726	0.100	0.191
-458.040	579.184	0.096	0.234
-457.026	800.000	-0.106	0.329
-456.011	32.307	0.038	-0.033
-454.997	497.089	-0.118	0.270
-453.982	306.355	-0.138	-0.257
-452.968	800.000	0.023	0.099
-451.953	163.001	0.170	-0.238
-450.938	-50.751	0.145	0.068
-449.924	-164.160	-0.263	-0.012
-448.909	428.570	-0.037	-0.080
-447.895	54.575	0.176	-0.169
-446.880	-150.978	-0.283	-0.021
-445.865	-178.531	-0.127	-0.003
-444.851	-28.495	-0.232	0.134
-443.836	-200.000	0.018	0.135
-442.822	143.939	0.192	0.255
-441.807	-200.000	0.019	0.113
-440.792	-50.692	-0.228	-0.107
-439.778	36.442	-0.475	0.418
-438.763	266.547	0.203	0.353
-437.749	800.000	0.048	-0.140
-436.734	118.594	0.070	-0.086
-435.719	-150.926	-0.252	0.019
-434.705	-45.005	0.182	-0.090
-433.690	-15.151	-0.119	0.076
-432.676	125.338	0.331	-0.416
-431.661	375.415	0.118	-0.241
-430.646	-200.000	-0.006	0.199
-429.632	-200.000	0.012	-0.126
-428.617	-174.394	-0.235	-0.007
-427.603	800.000	0.016	0.049
-426.588	-15.188	0.191	0.122
-425.573	-86.251	-0.169	-0.052
-424.559	-21.613	0.076	-0.046
-423.544	167.802	0.322	-0.456
-422.530	-159.897	-0.162	0.009
-421.515	-125.845	0.232	-0.035
-420.500	199.630	-0.193	0.294
-419.486	191.909	0.068	0.103
-418.471	-200.000	-0.003	-0.027
-417.457	-200.000	0.070	0.410
-416.442	-85.782	-0.041	-0.013
-415.428	666.004	-0.033	-0.086
-414.413	218.146	0.008	-0.013
-413.398	-200.000	0.038	-0.295
-412.384	-164.193	0.198	-0.009
-411.369	-141.890	0.137	-0.014
-410.355	86.270	-0.189	0.208
-409.340	-200.000	0.002	0.157
-408.325	350.247	0.139	0.274
-407.311	127.753	-0.047	0.059
-406.296	13.372	0.052	0.040
-405.282	113.403	-0.061	0.074
-404.267	800.000	0.037	-0.135
-403.252	800.000	0.037	0.160
-402.238	-29.152	0.098	-0.056
-401.223	-200.000	-0.058	0.386
-400.209	-45.521	0.118	0.058
-399.194	-109.294	-0.248	-0.052
-398.179	-200.000	-0.026	0.165
-397.165	-200.000	-0.015	-0.215
-396.150	82.589	-0.251	0.271
-395.136	-200.000	-0.047	-0.218
-394.121	131.555	-0.142	-0.182
-393.106	85.675	0.214	-0.234
-392.092	121.042	0.068	-0.084
-391.077	-200.000	-0.021	0.354
-390.063	11.934	0.210	0.161
-389.048	-200.000	0.036	-0.241
-388.033	385.357	0.108	-0.222
-387.019	566.254	0.039	-0.093
-386.004	-145.320	-0.192	0.017
-384.990	-26.628	0.235	0.137
-383.975	-194.863	0.065	-0.001
-382.960	714.475	-0.119	-0.315
-381.946	148.894	0.172	-0.231
-380.931	168.838	-0.096	0.137
-379.917	375.428	0.058	-0.118
-378.902	314.126	0.143	-0.268
-377.888	-117.769	0.252	0.045
-376.873	-200.000	-0.016	-0.093
-375.858	-200.000	-0.092	0.546
-374.844	353.355	-0.069	0.136
-373.829	-54.439	0.203	-0.092
-372.815	-62.689	0.337	-0.139
-371.800	-54.051	-0.117	-0.053
-370.785	-200.000	0.051	-0.303
-369.771	184.004	-0.271	0.399
-368.756	50.494	-0.158	-0.148
-367.742	-200.000	0.016	-0.307
-366.727	-200.000	0.103	0.000
-365.712	231.825	0.170	-0.277
-364.698	85.263	0.111	-0.121
-363.683	800.000	0.062	0.221
-362.669	-146.551	-0.122	0.011
-361.654	-121.627	-0.307	-0.051
-360.639	-138.256	0.138	0.015
-359.625	243.534	0.124	-0.207
-358.610	-101.438	-0.267	-0.065
-357.596	-34.593	0.289	0.157
-356.581	800.000	0.038	-0.105
-355.566	800.000	-0.052	-0.221
-354.552	-200.000	-0.032	0.415
-353.537	-96.720	0.108	0.028
-352.523	40.790	-0.094	-0.084
-351.508	166.962	-0.087	-0.123
-350.493	-200.000	0.038	-0.336
-349.479	546.213	0.043	0.103
-348.464	800.000	0.062	-0.212
-347.450	-200.000	0.054	-0.509
-346.435	-160.625	-0.501	-0.027
-345.420	-200.000	0.006	-0.239
-344.406	-103.447	0.486	-0.114
-343.391	-200.000	0.016	-0.107
-342.377	-1.797	0.203	0.142
-341.362	-78.659	0.262	0.089
-340.348	-200.000	0.038	-0.507
-339.333	-3.920	-0.102	-0.070
-338.318	-200.000	-0.074	0.345
-337.304	-124.574	-0.171	0.026
-336.289	-36.190	-0.352	0.188
-335.275	-0.358	-0.293	-0.207
-334.260	-127.453	-0.156	-0.023
-333.245	756.357	0.080	0.215
-332.231	-200.000	-0.011	0.329
-331.216	-200.000	-0.011	-0.248
-330.202	-33.308	0.109	-0.060
-329.187	-2.889	-0.139	0.096
-328.172	-200.000	0.017	0.164
-327.158	800.000	-0.071	-0.223
-326.143	-13.553	-0.318	-0.205
-325.129	-120.728	0.155	0.026
-324.114	-143.625	0.060	0.006
-323.099	-129.767	-0.192	-0.026
-322.085	-200.000	0.017	0.350
-321.070	399.838	-0.067	-0.138
-320.056	81.577	0.101	-0.109
-319.041	-200.000	0.003	0.107
-318.026	-200.000	-0.019	-0.099
-317.012	334.295	0.097	-0.187
-315.997	22.130	0.064	-0.052
-314.983	155.116	0.119	-0.163
-313.968	-44.669	0.196	0.097
-312.953	-100.218	-0.154	-0.038
-311.939	-93.637	0.145	0.040
-310.924	800.000	0.038	-0.130
-309.910	-200.000	-0.054	0.250
-308.895	223.642	0.151	0.241
-307.880	219.832	-0.189	-0.300
-306.866	185.620	-0.074	-0.108
-305.851	149.637	0.120	0.161
-304.837	55.701	0.139	0.134
-303.822	-200.000	-0.011	-0.205
-302.807	800.000	-0.061	-0.205
-301.793	49.164	0.106	-0.099
-300.778	326.400	0.035	-0.067
-299.764	125.296	0.055	-0.069
-298.749	-42.530	-0.230	-0.116
-297.735	26.970	0.166	0.138
-296.720	169.181	0.289	0.409
-295.705	-200.000	0.077	0.378
-294.691	-148.332	-0.013	-0.001
-293.676	96.350	-0.139	0.158
-292.662	800.000	-0.072	0.257
-291.647	-200.000	-0.010	-0.049
-290.632	800.000	-0.059	-0.189
-289.618	98.018	0.146	0.167
-288.603	-148.441	-0.129	-0.010
-287.589	-71.510	-0.221	-0.082
-286.574	-63.664	-0.261	-0.106
-285.559	167.268	0.155	0.218
-284.545	414.201	0.021	0.043
-283.530	773.883	-0.171	0.462
-282.516	-116.139	0.140	-0.026
-281.501	63.668	-0.163	-0.162
-280.486	114.518	0.156	0.188
-279.472	36.983	0.219	0.192
-278.457	58.196	0.111	-0.108
-277.443	-200.000	0.054	-0.316
-276.428	-88.442	0.170	0.050
-275.413	800.000	0.048	-0.174
-274.399	800.000	0.033	0.107
-273.384	99.014	-0.299	-0.342
-272.370	-29.265	-0.217	-0.123
-271.355	-42.157	0.218	-0.111
-270.340	-200.000	0.019	-0.397
-269.326	723.835	-0.052	-0.137
-268.311	497.635	0.201	-0.457
-267.297	-175.904	-0.117	-0.003
-266.282	-200.000	-0.006	0.143
-265.267	-200.000	-0.053	0.372
-264.253	142.751	-0.089	-0.117
-263.238	-28.877	0.263	0.150
-262.224	800.000	0.129	0.354
-261.209	600.698	-0.064	-0.158
-260.195	-38.309	0.271	0.142
-259.180	206.528	0.108	-0.166
-258.165	-56.969	0.120	-0.053
-257.151	-61.140	0.206	0.086
-256.136	10.067	0.244	0.184
-255.122	-21.210	0.078	0.047
-254.107	115.909	0.141	-0.171
-253.092	-76.350	0.253	0.088
-252.078	-98.026	0.113	0.029
-251.063	-54.255	-0.178	0.080
-250.049	87.434	-0.215	-0.235
-249.034	470.234	-0.162	0.360
-248.019	203.524	-0.142	0.217
-247.005	50.267	0.174	0.162
-245.990	226.802	-0.057	0.091
-244.976	446.114	-0.098	-0.213
-243.961	800.000	-0.024	-0.094
-242.946	19.136	-0.310	0.246
-241.932	-151.282	-0.141	-0.010
-240.917	303.776	-0.166	0.305
-239.903	-43.139	-0.067	-0.034
-238.888	-200.000	0.012	0.124
-237.873	-200.000	-0.034	0.168
-236.859	73.545	-0.238	-0.247
-235.844	-38.047	-0.220	0.116
-234.830	-151.896	0.248	0.018
-233.815	465.709	0.024	0.054
-232.800	-81.956	0.224	-0.072
-231.786	-98.215	-0.173	0.044
-230.771	-23.429	-0.171	0.101
-229.757	111.535	0.192	0.229
-228.742	-37.382	0.074	0.039
-227.727	327.322	-0.172	0.326
-226.713	-51.871	0.267	0.123
-225.698	-114.901	0.077	-0.014
-224.684	-76.924	0.202	-0.070
-223.669	-39.402	-0.238	-0.123
-222.655	-191.254	-0.187	-0.002
-221.640	201.765	-0.095	0.145
-220.625	800.000	-0.035	0.120
-219.611	341.374	0.179	0.346
-218.596	4.862	0.139	0.101
-217.582	-124.970	-0.108	-0.016
-216.567	-45.701	0.126	-0.061
-215.552	-200.000	-0.007	0.045
-214.538	-58.656	-0.388	-0.166
-213.523	298.335	0.153	0.278
-212.509	-152.839	0.444	-0.031
-211.494	-110.431	-0.383	-0.079
-210.479	143.149	-0.029	-0.038
-209.465	-105.996	0.396	-0.088
-208.450	-68.950	-0.400	0.152
-207.436	116.648	-0.006	0.008
-206.421	800.000	0.123	0.365
-205.406	492.226	0.126	0.284
-204.392	-126.652	0.145	-0.021
-203.377	-173.750	-0.064	0.002
-202.363	-22.945	-0.085	0.051
-201.348	-200.000	-0.008	-0.073
-200.333	-35.057	0.226	0.121
-199.319	232.414	-0.102	-0.165
-198.304	67.760	-0.165	-0.166
-197.290	-200.000	-0.025	0.137
-196.275	-132.553	0.221	0.028
-195.260	60.274	0.100	0.098
-194.246	-92.073	-0.308	0.086
-193.231	-30.000	0.303	0.170
-192.217	-200.000	-0.003	-0.081
-191.202	-34.967	-0.349	-0.188
-190.187	800.000	0.086	0.303
-189.173	92.145	0.288	0.320
-188.158	-200.000	-0.003	-0.250
-187.144	-200.000	-0.003	0.092
-186.129	-111.349	0.360	-0.072
-185.114	-62.261	-0.033	0.014
-184.100	-4.013	0.156	0.107
-183.085	-88.508	-0.120	0.035
-182.071	-67.261	-0.115	0.045
-181.056	-97.805	-0.262	0.067
-180.042	-93.630	0.232	0.063
-179.027	-126.492	0.130	-0.019
-178.012	-127.800	0.319	-0.045
-176.998	-45.490	0.110	-0.054
-175.983	59.639	0.144	-0.140
-174.969	-34.421	0.241	-0.130
-173.954	-71.350	0.182	0.067
-172.939	-200.000	0.025	0.159
-171.925	49.732	0.403	0.375
-170.910	194.798	0.071	-0.106
-169.896	-76.813	0.117	0.040
-168.881	-136.008	-0.360	-0.042
-167.866	-10.337	-0.069	-0.045
-166.852	-71.916	-0.269	-0.099
-165.837	-200.000	0.071	-0.535
-164.823	-79.774	0.438	0.145
-163.808	-125.053	-0.236	0.036
-162.793	197.865	-0.126	-0.189
-161.779	389.930	-0.074	-0.151
-160.764	-200.000	0.032	-0.163
-159.750	-110.429	-0.386	-0.079
-158.735	642.711	0.037	-0.093
-157.720	519.367	0.083	-0.192
-156.706	-80.472	0.259	0.085
-155.691	1.544	-0.255	0.181
-154.677	78.807	-0.286	-0.302
-153.662	-70.310	0.103	0.039
-152.647	94.128	-0.057	0.064
-151.633	75.322	0.075	-0.078
-150.618	-50.690	0.073	-0.034
-149.604	-200.000	0.016	-0.107
-148.589	-44.172	-0.270	-0.134
-147.574	-200.000	0.096	-0.437
-146.560	-200.000	-0.008	-0.067
-145.545	46.322	0.255	-0.233
-144.531	-154.223	0.391	-0.026
-143.516	800.000	0.086	0.279
-142.502	147.372	0.125	-0.166
-141.487	-200.000	0.065	-0.326
-140.472	-200.000	-0.002	-0.144
-139.458	193.655	0.122	-0.182
-138.443	466.071	0.078	0.172
-137.429	-200.000	0.037	0.443
-136.414	-105.538	0.259	-0.058
-135.399	-200.000	0.002	-0.185
-134.385	800.000	0.126	0.372
-133.370	-62.144	0.244	0.100
-132.356	85.428	0.147	-0.159
-131.341	18.605	-0.460	-0.363
-130.326	223.154	0.037	0.058
-129.312	800.000	0.040	0.167
-128.297	-49.111	-0.253	0.119
-127.283	117.244	0.132	-0.160
-126.268	800.000	0.121	0.400
-125.253	-35.332	-0.247	-0.132
-124.239	-200.000	0.000	0.245
-123.224	73.909	0.227	-0.235
-122.210	-169.891	-0.259	0.009
-121.195	-26.754	0.188	-0.108
-120.180	59.294	-0.299	0.290
-119.166	635.042	0.029	-0.073
-118.151	-200.000	0.016	-0.363
-117.137	-77.400	0.093	0.032
-116.122	-93.303	-0.170	0.047
-115.107	158.538	-0.244	-0.333
-114.093	-90.653	0.170	-0.048
-113.078	-111.646	0.295	-0.059
-112.064	-3.707	0.100	-0.069
-111.049	-73.309	-0.125	0.045
-110.034	-58.690	0.097	-0.041
-109.020	49.511	-0.114	-0.106
-108.005	16.262	-0.076	0.059
-106.991	613.771	0.014	-0.035
-105.976	-53.244	0.099	0.045
-104.962	-103.584	0.351	0.081
-103.947	-200.000	0.037	0.208
-102.932	800.000	0.017	0.051
-101.918	-85.688	0.107	-0.033
-100.903	-200.000	-0.013	0.098
-99.889	-32.025	0.316	-0.174
-98.874	99.519	0.126	0.144
-97.859	189.349	0.177	-0.262
-96.845	69.182	-0.109	-0.110
-95.830	-200.000	0.052	0.329
-94.816	-192.969	-0.080	-0.001
-93.801	-140.724	0.088	-0.009
-92.786	-179.322	-0.346	-0.008
-91.772	-67.274	-0.164	0.064
-90.757	252.938	0.113	0.190
-89.743	-200.000	0.253	-0.001
-88.728	-200.000	-0.012	-0.074
-87.713	-200.000	0.006	-0.064
-86.699	165.635	-0.081	0.112
-85.684	152.766	0.158	-0.213
-84.670	-11.148	-0.320	-0.208
-83.655	98.141	0.016	-0.018
-82.640	178.649	0.025	0.036
-81.626	-69.716	0.155	0.058
-80.611	-200.000	0.018	-0.109
-79.597	-123.473	0.222	-0.035
-78.582	99.578	-0.074	-0.084
-77.567	-20.132	0.232	0.141
-76.553	-78.629	-0.065	0.022
-75.538	-200.000	-0.032	-0.353
-74.524	-200.000	-0.012	0.248
-73.509	185.188	0.117	0.170
-72.494	111.754	0.100	-0.118
-71.480	-113.529	-0.276	-0.053
-70.465	-28.273	0.269	0.153
-69.451	-132.960	0.194	0.024
-68.436	234.655	-0.084	0.136
-67.422	-57.556	-0.014	-0.006
-66.407	-61.115	0.043	0.018
-65.392	80.239	0.243	0.256
-64.378	-162.123	0.070	0.003
-63.363	-200.000	0.035	0.157
-62.349	800.000	0.039	0.150
-61.334	86.635	-0.778	-0.843
-60.319	-135.189	0.738	-0.087
-59.305	-200.000	-0.077	-1.024
-58.290	-200.000	0.120	1.126
-57.276	-200.000	0.243	1.646
-56.261	-200.000	95.898	595.325
-55.246	562.642	1367.561	3249.855
-54.232	161.273	2555.083	3508.151
-53.217	106.622	2266.877	2640.567
-52.203	41.299	1894.229	1681.901
-51.188	35.071	1683.863	1448.139
-50.173	32.451	1639.919	1390.957
-49.159	50.296	1686.716	1564.672
-48.144	52.056	1703.011	1592.890
-47.130	34.635	1663.905	1427.487
-46.115	32.002	1649.209	1395.277
-45.100	31.761	1644.787	1389.693
-44.086	31.780	1642.149	1387.548
-43.071	31.735	1639.369	1384.813
-42.057	31.661	1637.268	1382.441
-41.042	31.648	1635.559	1380.847
-40.027	31.733	1633.617	1379.777
-39.013	31.709	1631.492	1377.751
-37.998	31.664	1629.937	1376.049
-36.984	31.730	1628.375	1375.163
-35.969	31.829	1626.833	1374.532
-34.954	31.829	1625.331	1373.209
-33.940	31.771	1623.250	1370.976
-32.925	31.859	1621.519	1370.097
-31.911	31.751	1620.330	1368.252
-30.896	31.721	1618.608	1366.527
-29.881	31.848	1616.739	1365.815
-28.867	31.800	1615.257	1364.160
-27.852	31.809	1613.123	1362.368
-26.838	31.881	1611.988	1361.880
-25.823	31.899	1610.526	1360.723
-24.809	31.834	1609.117	1359.006
-23.794	31.855	1607.905	1358.080
-22.779	31.792	1606.216	1356.141
-21.765	31.859	1604.806	1355.382
-20.750	31.873	1602.968	1353.882
-19.736	31.779	1601.992	1352.323
-18.721	31.903	1600.280	1351.722
-17.706	31.876	1598.807	1350.227
-16.692	31.807	1597.830	1348.851
-15.677	31.820	1596.132	1347.460
-14.663	31.892	1594.359	1346.427
-13.648	31.857	1593.165	1345.110
-12.633	31.890	1591.820	1344.161
-11.619	31.814	1590.048	1342.062
-10.604	31.853	1588.643	1341.103
-9.590	31.838	1587.562	1340.031
-8.575	31.835	1585.981	1338.621
-7.560	31.780	1585.280	1337.588
-6.546	31.842	1583.637	1336.586
-5.531	31.761	1582.979	1335.405
-4.517	31.807	1581.625	1334.535
-3.502	31.948	1580.393	1334.444
-2.487	31.979	1578.616	1333.114
-1.473	31.616	1567.075	1320.749
-0.458	29.183	1547.847	1287.512
0.556	25.846	1549.209	1258.741
1.571	23.741	1573.090	1263.082
2.586	23.298	1587.165	1271.089
3.600	20.421	1532.043	1206.877
4.615	11.025	1419.952	1057.683
5.629	2.977	1355.367	959.392
6.644	1.698	1347.617	945.878
7.659	1.686	1346.012	944.593
8.673	1.605	1345.040	943.326
9.688	1.542	1343.123	941.510
10.702	1.267	1340.130	937.631
11.717	4.853	1346.589	964.298
12.731	14.852	1366.502	1041.023
13.746	23.582	1380.760	1106.482
14.761	25.930	1383.945	1123.595
15.775	26.204	1383.849	1125.124
16.790	26.247	1383.436	1124.959
17.804	26.333	1382.695	1124.788
18.819	26.544	1382.813	1126.099
19.834	26.647	1382.251	1126.183
20.848	26.782	1381.191	1126.056
21.863	26.677	1380.231	1124.525
22.877	26.748	1379.232	1124.049
23.892	26.720	1378.770	1123.400
24.907	26.701	1378.240	1122.754
25.921	26.776	1377.127	1122.207
26.936	26.718	1376.137	1120.946
27.950	26.723	1374.597	1119.625
28.965	26.714	1373.775	1118.795
29.980	26.760	1372.382	1117.846
30.994	26.804	1371.108	1116.981
32.009	26.703	1370.170	1115.500
33.023	26.686	1368.894	1114.254
34.038	26.708	1367.873	1113.458
35.053	26.742	1366.975	1112.841
36.067	26.798	1365.928	1112.235
37.082	26.701	1365.138	1110.898
38.096	26.650	1364.280	1109.790
39.111	26.774	1363.153	1109.535
40.126	26.775	1362.621	1109.009
41.140	26.764	1362.168	1108.472
42.155	26.767	1361.693	1108.008
43.169	26.770	1361.505	1107.773
44.184	26.681	1361.344	1107.004
45.199	26.699	1360.797	1106.566
46.213	26.782	1360.105	1106.416
47.228	26.796	1359.523	1105.927
48.242	26.728	1358.156	1104.306
49.257	26.853	1356.277	1103.438
50.271	26.683	1355.260	1101.483
51.286	26.743	1354.114	1100.815
52.301	26.774	1352.788	1099.829
53.315	26.744	1352.367	1099.207
54.330	26.689	1351.571	1098.128
55.344	26.711	1350.114	1096.985
56.359	26.720	1349.547	1096.480
57.374	26.588	1348.811	1094.983
58.388	26.761	1348.125	1095.378
59.403	26.693	1348.032	1094.792
60.417	26.761	1346.966	1094.239
61.432	26.705	1346.154	1093.148
62.447	26.854	1345.022	1093.029
63.461	26.733	1344.432	1091.721
64.476	26.739	1343.139	1090.616
65.490	26.755	1341.713	1089.457
66.505	26.792	1340.644	1088.714
67.520	26.825	1339.057	1087.525
68.534	26.763	1338.584	1086.676
69.549	26.791	1337.774	1086.090
70.563	26.793	1336.879	1085.280
71.578	26.700	1336.152	1084.033
72.593	26.733	1334.938	1083.151
73.607	26.805	1334.092	1082.800
74.622	26.822	1333.271	1082.137
75.636	26.771	1332.440	1081.061
76.651	26.749	1332.244	1080.680
77.666	26.758	1331.500	1080.034
78.680	26.759	1331.276	1079.759
79.695	26.834	1330.207	1079.244
80.709	26.837	1329.695	1078.752
81.724	26.862	1328.445	1077.788
82.739	26.730	1327.813	1076.397
83.753	26.694	1326.786	1075.258
84.768	26.714	1325.939	1074.594
85.782	26.773	1324.649	1073.806
86.797	26.813	1323.589	1073.084
87.812	26.841	1322.639	1072.385
88.826	26.839	1321.317	1071.205
89.841	26.748	1320.860	1070.203
90.855	26.736	1319.467	1068.913
91.870	26.827	1318.421	1068.504
92.884	26.773	1318.377	1068.056
93.899	26.893	1316.889	1067.462
94.914	26.837	1316.382	1066.630
95.928	26.833	1315.639	1065.906
96.943	26.845	1314.798	1065.200
97.957	26.872	1314.635	1065.134
98.972	26.889	1313.039	1063.846
99.987	26.799	1312.489	1062.781
101.001	26.788	1311.684	1061.967
102.016	26.843	1310.153	1060.959
103.030	26.906	1309.659	1060.835
104.045	26.818	1309.105	1059.775
105.060	26.782	1308.145	1058.694
106.074	26.943	1306.677	1058.350
107.089	26.881	1305.814	1057.199
108.103	26.928	1304.901	1056.641
109.118	26.892	1303.813	1055.457
110.133	26.903	1302.317	1054.215
111.147	26.909	1301.581	1053.561
112.162	26.914	1300.499	1052.623
113.176	26.888	1299.489	1051.560
114.191	26.891	1299.157	1051.217
115.206	26.979	1297.568	1050.344
116.220	26.817	1296.968	1048.832
117.235	26.917	1295.943	1048.486
118.249	26.798	1295.130	1047.049
119.264	26.846	1294.164	1046.454
120.279	26.892	1293.741	1046.283
121.293	26.896	1292.911	1045.541
122.308	27.009	1291.737	1045.151
123.322	26.965	1290.922	1044.143
124.337	26.893	1290.320	1043.151
125.352	26.978	1289.737	1043.079
126.366	26.992	1288.671	1042.205
127.381	27.064	1287.164	1041.302
128.395	26.920	1286.824	1040.112
129.410	27.084	1285.668	1040.025
130.424	27.000	1285.510	1039.325
131.439	27.027	1284.611	1038.663
132.454	26.807	1283.734	1036.602
133.468	26.923	1282.804	1036.422
134.483	27.020	1282.663	1036.770
135.497	27.022	1281.615	1035.842
136.512	26.954	1281.087	1034.936
137.527	27.021	1279.523	1033.965
138.541	26.970	1278.028	1032.375
139.556	26.928	1277.089	1031.284
140.570	27.012	1275.956	1030.754
141.585	26.888	1275.467	1029.563
142.600	26.912	1274.459	1028.798
143.614	26.883	1273.575	1027.827
144.629	26.799	1272.855	1026.682
145.643	26.828	1271.509	1025.667
146.658	26.809	1270.399	1024.571
147.673	26.942	1269.424	1024.449
148.687	26.778	1268.915	1023.021
149.702	26.799	1267.731	1022.096
150.716	26.809	1266.804	1021.312
151.731	26.964	1265.146	1020.759
152.746	26.927	1264.727	1020.118
153.760	26.900	1263.195	1018.644
154.775	26.887	1262.806	1018.167
155.789	26.885	1261.386	1016.919
156.804	26.932	1261.133	1016.890
157.819	26.931	1260.210	1016.047
158.833	26.929	1259.553	1015.416
159.848	26.995	1258.486	1014.838
160.862	27.046	1257.624	1014.335
161.877	27.085	1256.718	1013.735
162.892	27.014	1256.192	1012.828
163.906	27.077	1255.397	1012.446
164.921	27.122	1254.325	1011.742
165.935	27.107	1253.469	1010.880
166.950	27.050	1253.400	1010.415
167.964	27.109	1252.802	1010.174
168.979	27.068	1252.109	1009.298
169.994	27.010	1252.142	1008.913
171.008	27.107	1251.051	1008.479
172.023	27.133	1250.207	1007.856
173.037	27.135	1249.497	1007.204
174.052	27.138	1248.245	1006.122
175.067	27.086	1248.022	1005.568
176.081	27.104	1247.081	1004.822
177.096	27.053	1246.790	1004.216
178.110	27.095	1245.359	1003.204
179.125	27.077	1244.584	1002.390
180.140	27.159	1243.228	1001.664
181.154	27.216	1242.022	1000.915
182.169	27.183	1241.145	999.939
183.183	27.199	1240.174	999.157
184.198	27.146	1239.880	998.541
185.213	27.138	1238.370	997.191
186.227	27.063	1238.077	996.460
187.242	27.128	1236.947	995.817
188.256	27.210	1235.547	995.049
189.271	27.212	1235.220	994.712
190.286	27.083	1234.773	993.554
191.300	27.167	1234.314	993.559
192.315	27.129	1233.592	992.683
193.329	27.152	1233.347	992.520
194.344	27.137	1232.822	991.930
195.359	27.209	1232.090	991.645
196.373	27.206	1231.335	990.935
197.388	27.070	1231.769	990.456
198.402	27.101	1231.089	989.990
199.417	27.129	1230.193	989.330
200.432	27.150	1229.894	989.120
201.446	27.076	1229.314	988.162
202.461	27.251	1228.185	988.116
203.475	27.195	1227.789	987.406
204.490	27.151	1226.713	986.218
205.504	27.253	1225.679	985.853
206.519	27.189	1224.942	984.824
207.534	27.165	1223.841	983.723
208.548	27.221	1222.896	983.177
209.563	27.225	1222.308	982.641
210.577	27.273	1221.465	982.138
211.592	27.080	1220.735	980.420
212.607	27.289	1220.078	980.933
213.621	27.314	1219.090	980.188
214.636	27.266	1218.840	979.637
215.650	27.248	1217.709	978.547
216.665	27.264	1216.459	977.542
217.680	27.337	1215.645	977.192
218.694	27.327	1214.949	976.496
219.709	27.277	1214.305	975.622
220.723	27.325	1213.671	975.281
221.738	27.257	1212.829	974.157
222.753	27.326	1211.970	973.747
223.767	27.335	1211.539	973.365
224.782	27.345	1211.051	972.941
225.796	27.398	1210.604	972.778
226.811	27.403	1209.779	972.058
227.826	27.314	1209.793	971.508
228.840	27.398	1208.780	971.056
229.855	27.376	1208.097	970.305
230.869	27.405	1207.451	969.853
231.884	27.347	1207.082	969.160
232.899	27.269	1206.381	968.098
233.913	27.384	1205.813	968.169
234.928	27.473	1204.958	967.868
235.942	27.309	1204.827	966.805
236.957	27.407	1203.571	966.235
237.972	27.423	1202.983	965.762
238.986	27.471	1202.256	965.346
240.001	27.581	1201.514	965.245
241.015	27.654	1200.750	964.936
242.030	27.538	1200.611	964.121
243.045	27.621	1199.275	963.404
244.059	27.624	1198.852	962.995
245.074	27.619	1198.020	962.212
246.088	27.702	1197.075	961.809
247.103	27.668	1196.120	960.778
248.117	27.550	1195.430	959.514
249.132	27.486	1194.933	958.694
250.147	27.580	1194.393	958.673
251.161	27.583	1193.622	957.982
252.176	27.634	1193.206	957.834
253.190	27.623	1192.424	957.061
254.205	27.664	1191.482	956.439
255.220	27.658	1191.230	956.117
256.234	27.569	1190.700	955.145
257.249	27.572	1190.180	954.657
258.263	27.722	1189.120	954.507
259.278	27.655	1188.608	953.658
260.293	27.717	1188.112	953.505
261.307	27.725	1187.513	952.977
262.322	27.683	1187.275	952.485
263.336	27.690	1186.696	951.971
264.351	27.676	1186.084	951.326
265.366	27.739	1185.372	950.996
266.380	27.657	1184.485	949.772
267.395	27.738	1183.914	949.654
268.409	27.750	1183.075	948.960
269.424	27.771	1182.696	948.681
270.439	27.760	1182.254	948.184
271.453	27.710	1181.670	947.375
272.468	27.710	1180.532	946.378
273.482	27.666	1180.130	945.743
274.497	27.788	1179.643	945.902
275.512	27.770	1179.022	945.225
276.526	27.808	1178.430	944.865
277.541	27.893	1177.797	944.715
278.555	27.805	1176.946	943.490
279.570	27.809	1176.510	943.078
280.585	27.863	1175.627	942.565
281.599	27.731	1174.855	941.183
282.614	27.877	1173.921	941.107
283.628	27.892	1173.200	940.521
284.643	27.803	1172.567	939.472
285.657	27.825	1171.491	938.640
286.672	27.833	1170.452	937.767
287.687	27.902	1169.573	937.334
288.701	27.905	1168.762	936.615
289.716	27.821	1168.947	936.251
290.730	27.940	1167.561	935.666
291.745	27.944	1167.079	935.216
292.760	27.873	1166.987	934.700
293.774	28.003	1166.004	934.492
294.789	27.969	1166.261	934.444
295.803	28.008	1164.957	933.515
296.818	27.962	1164.385	932.737
297.833	28.017	1163.794	932.463
298.847	27.941	1163.548	931.796
299.862	27.964	1162.452	930.951
300.876	28.025	1161.976	930.799
301.891	28.077	1161.500	930.600
302.906	28.075	1160.779	929.930
303.920	28.172	1159.577	929.375
304.935	28.044	1159.010	928.189
305.949	27.980	1158.397	927.293
306.964	28.112	1158.018	927.578
307.979	28.158	1157.253	927.117
308.993	28.177	1156.382	926.430
310.008	28.081	1155.886	925.466
311.022	28.195	1155.067	925.307
312.037	28.254	1154.254	924.869
313.052	28.086	1153.555	923.380
314.066	28.227	1152.444	923.119
315.081	28.151	1152.056	922.346
316.095	28.199	1151.517	922.074
317.110	28.119	1151.121	921.274
318.125	28.160	1150.152	920.620
319.139	28.167	1149.635	920.160
320.154	28.246	1148.954	919.934
321.168	28.251	1148.429	919.457
322.183	28.316	1147.774	919.176
323.197	28.111	1147.716	918.019
324.212	28.261	1146.774	917.936
325.227	28.182	1146.707	917.404
326.241	28.299	1145.685	917.094
327.256	28.289	1145.128	916.517
328.270	28.348	1144.136	915.935
329.285	28.385	1143.187	915.279
330.300	28.343	1142.767	914.653
331.314	28.300	1142.115	913.833
332.329	28.403	1141.195	913.534
333.343	28.533	1140.048	913.181
334.358	28.338	1139.820	911.944
335.373	28.361	1138.965	911.295
336.387	28.399	1138.255	910.835
337.402	28.508	1137.474	910.671
338.416	28.401	1137.219	909.857
339.431	28.514	1136.218	909.535
340.446	28.488	1135.997	909.150
341.460	28.492	1135.134	908.396
342.475	28.516	1134.415	907.861
343.489	28.662	1133.404	907.694
344.504	28.448	1132.578	905.893
345.519	28.491	1131.803	905.407
346.533	28.433	1131.231	904.583
347.548	28.530	1130.610	904.482
348.562	28.569	1129.961	904.074
349.577	28.557	1128.989	903.162
350.592	28.465	1128.414	902.165
351.606	28.342	1127.816	901.003
352.621	28.634	1126.840	901.577
353.635	28.622	1126.465	901.140
354.650	28.570	1125.720	900.211
355.665	28.608	1125.616	900.234
356.679	28.679	1124.658	899.736
357.694	28.695	1123.906	899.133
358.708	28.645	1123.636	898.594
359.723	28.631	1122.296	897.375
360.738	28.565	1122.257	896.937
361.752	28.665	1121.586	896.811
362.767	28.664	1120.954	896.223
363.781	28.808	1120.301	896.321
364.796	28.793	1119.579	895.592
365.810	28.857	1118.976	895.345
366.825	28.827	1118.620	894.834
367.840	28.816	1118.418	894.541
368.854	28.909	1117.657	894.303
369.869	28.794	1117.141	893.254
370.883	28.827	1116.244	892.616
371.898	28.771	1115.610	891.760
372.913	28.822	1115.215	891.609
373.927	28.929	1114.725	891.660
374.942	28.965	1113.593	890.849
375.956	28.936	1113.258	890.362
376.971	28.892	1112.867	889.760
377.986	28.852	1112.524	889.209
379.000	28.833	1111.897	888.541
380.015	28.833	1111.481	888.128
381.029	28.913	1110.832	887.920
382.044	28.857	1110.006	886.910
383.059	28.996	1109.135	886.805
384.073	28.942	1108.759	886.166
385.088	28.983	1107.808	885.524
386.102	29.003	1107.136	885.003
387.117	28.997	1106.190	884.144
388.132	29.051	1105.077	883.433
389.146	28.981	1104.992	882.950
390.161	29.030	1104.063	882.365
391.175	28.968	1103.615	881.631
392.190	29.088	1102.697	881.398
393.205	29.128	1102.115	881.042
394.219	29.022	1101.364	879.857
395.234	29.162	1100.931	880.106
396.248	29.091	1099.808	878.790
397.263	29.173	1098.584	878.123
398.278	29.227	1098.380	878.143
399.292	29.225	1097.734	877.537
400.307	29.174	1097.537	877.059
401.321	29.067	1097.296	876.281
402.336	29.048	1096.108	875.162
403.350	29.192	1095.795	875.522
404.365	29.248	1094.761	874.882
405.380	29.169	1094.450	874.181
406.394	29.207	1093.406	873.450
407.409	29.231	1092.402	872.687
408.423	29.341	1091.778	872.628
409.438	29.319	1091.364	872.120
410.453	29.384	1090.605	871.743
411.467	29.339	1089.942	870.921
412.482	29.394	1088.888	870.264
413.496	29.438	1088.405	870.007
414.511	29.408	1087.731	869.248
415.526	29.290	1087.858	868.716
416.540	29.302	1087.329	868.277
417.555	29.402	1086.791	868.241
418.569	29.371	1086.300	867.625
419.584	29.405	1085.755	867.274
420.599	29.425	1085.323	866.942
421.613	103.767	1322.890	1460.147
422.628	96.565	1357.480	1460.259
