DTS Sentinel unit serial number:	SN413079Multiplexer serial number:	ORYXHardware model number:	OX4-SRSoftware version number:	ORYX F/W v4.00 Oryx Data Collector v3.7.2.0data status	okinstallation	princeton_trtdifferential loss correction	single-endedforward channel	channel 2reverse channel	N/Adate	2019/09/17time	22:19:35forward acquisition time	60.00reverse acquisition time	0.00gamma	496.2192k internal	0.2344k external	0.2344temperature offset calibration	0.9984default loss term (dB/km)	0.3790temperature slope calibration	1.0000multiplexer offset coefficient	1.0000multiplexer slope coefficient	1.0000fibre end	0.00T internal ref (°C)	25.56T ext. ref 1 (°C)	0.18T ext. ref 2 (°C)	18.60length (m)	temperature (°C)	Stokes	anti-Stokes-747.200	-23.346	0.047	-0.028
-746.185	-145.312	-0.130	0.012
-745.171	47.138	0.154	0.143
-744.156	-200.000	-0.015	0.197
-743.142	368.019	0.085	0.172
-742.127	216.766	0.072	0.115
-741.112	121.278	-0.004	-0.005
-740.098	800.000	0.125	0.419
-739.083	-200.000	-0.011	0.204
-738.069	54.480	-0.302	0.291
-737.054	-200.000	0.023	0.240
-736.039	800.000	-0.081	-0.341
-735.025	-80.085	-0.200	-0.067
-734.010	-70.521	-0.469	0.178
-732.996	-50.074	0.069	-0.033
-731.981	-200.000	-0.045	-0.229
-730.966	480.542	-0.134	0.305
-729.952	-200.000	0.011	0.142
-728.937	536.512	0.053	0.125
-727.923	-59.362	-0.233	0.100
-726.908	219.372	-0.178	0.285
-725.894	-108.562	0.170	-0.036
-724.879	-155.824	-0.135	-0.009
-723.864	231.573	0.118	-0.193
-722.850	-200.000	-0.022	0.237
-721.835	-109.149	0.492	-0.105
-720.821	-200.000	0.043	-0.364
-719.806	-143.414	0.120	0.011
-718.791	-177.923	-0.453	0.011
-717.777	-26.321	-0.290	0.170
-716.762	27.371	-0.233	-0.196
-715.748	13.957	0.131	-0.102
-714.733	-76.914	-0.101	-0.035
-713.718	800.000	0.076	0.225
-712.704	37.307	-0.185	0.164
-711.689	-200.000	-0.033	-0.429
-710.675	-27.574	-0.090	-0.052
-709.660	432.647	-0.059	-0.129
-708.645	-65.985	0.281	-0.112
-707.631	215.698	0.073	0.115
-706.616	-112.445	0.195	0.039
-705.602	-200.000	-0.019	0.114
-704.587	158.594	0.073	0.101
-703.572	-48.899	0.113	0.054
-702.558	-200.000	0.035	-0.165
-701.543	183.957	0.173	-0.255
-700.529	-155.198	0.198	0.013
-699.514	181.205	-0.056	-0.083
-698.499	459.953	-0.201	-0.447
-697.485	250.788	-0.132	0.224
-696.470	-50.758	-0.401	-0.188
-695.456	39.485	-0.224	-0.200
-694.441	191.944	0.074	0.111
-693.426	-0.456	-0.244	-0.173
-692.412	-57.369	0.269	-0.118
-691.397	34.754	0.162	-0.142
-690.383	-67.444	-0.248	0.097
-689.368	-200.000	0.067	-0.346
-688.354	800.000	0.024	0.092
-687.339	204.283	0.075	-0.117
-686.324	-161.069	0.247	0.013
-685.310	48.324	0.151	-0.141
-684.295	283.999	-0.204	0.366
-683.281	800.000	-0.060	-0.204
-682.266	-200.000	0.103	-0.492
-681.251	63.473	0.147	0.148
-680.237	-128.482	-0.451	0.064
-679.222	800.000	0.155	-0.471
-678.208	36.139	0.129	-0.114
-677.193	800.000	0.116	0.414
-676.178	800.000	-0.032	0.118
-675.164	213.990	-0.239	-0.378
-674.149	800.000	0.108	-0.318
-673.135	190.978	0.077	-0.116
-672.120	22.101	0.279	-0.228
-671.105	207.017	-0.257	0.400
-670.091	276.302	-0.042	0.075
-669.076	-62.066	0.135	0.056
-668.062	-61.202	-0.134	-0.056
-667.047	-178.376	0.024	-0.001
-666.032	140.131	0.322	0.424
-665.018	-32.943	0.076	0.042
-664.003	-29.585	-0.292	-0.166
-662.989	80.465	-0.078	0.084
-661.974	-159.813	-0.392	0.022
-660.959	94.508	-0.133	-0.151
-659.945	205.615	0.072	0.112
-658.930	168.229	-0.066	-0.093
-657.916	-33.089	-0.191	-0.105
-656.901	-200.000	0.047	-0.417
-655.886	-179.110	-0.505	0.011
-654.872	-200.000	0.010	0.051
-653.857	-62.533	-0.217	-0.090
-652.843	-200.000	0.063	-0.316
-651.828	76.710	-0.092	0.097
-650.814	-152.013	-0.143	0.010
-649.799	800.000	0.034	-0.099
-648.784	-93.501	0.198	-0.055
-647.770	800.000	-0.033	0.133
-646.755	616.896	0.101	0.252
-645.741	341.109	0.042	0.083
-644.726	605.069	0.049	0.122
-643.711	-118.156	-0.117	-0.021
-642.697	152.332	0.101	0.137
-641.682	-200.000	-0.023	-0.300
-640.668	580.440	-0.168	0.412
-639.653	209.202	0.100	-0.156
-638.638	-118.489	-0.230	-0.041
-637.624	-56.903	-0.401	-0.177
-636.609	-41.934	-0.342	0.175
-635.595	-95.586	-0.094	0.025
-634.580	1.551	-0.035	-0.025
-633.565	31.913	0.154	0.132
-632.551	778.145	0.091	-0.249
-631.536	-118.389	-0.149	-0.026
-630.522	438.807	-0.128	-0.279
-629.507	251.485	-0.089	-0.151
-628.492	-200.000	-0.037	-0.171
-627.478	800.000	0.133	0.420
-626.463	255.787	0.095	0.163
-625.449	161.411	-0.045	-0.062
-624.434	11.286	0.160	-0.122
-623.419	800.000	-0.056	0.169
-622.405	-79.958	0.362	0.121
-621.390	111.291	-0.081	0.098
-620.376	99.082	0.035	-0.040
-619.361	-35.214	0.233	-0.126
-618.346	-200.000	-0.029	-0.145
-617.332	800.000	-0.030	-0.117
-616.317	-200.000	0.040	-0.204
-615.303	305.545	0.085	-0.157
-614.288	-40.027	0.173	0.090
-613.273	5.524	0.277	0.204
-612.259	-79.371	-0.022	-0.008
-611.244	-124.555	-0.333	0.051
-610.230	-48.654	-0.277	0.133
-609.215	212.741	0.082	0.129
-608.201	-74.089	-0.250	-0.090
-607.186	800.000	-0.022	-0.062
-606.171	-129.949	-0.381	-0.052
-605.157	608.390	0.115	0.285
-604.142	-100.306	-0.333	0.082
-603.128	800.000	-0.056	0.161
-602.113	-200.000	-0.017	0.250
-601.098	613.366	0.186	0.464
-600.084	89.252	-0.373	0.414
-599.069	-21.417	-0.192	-0.117
-598.055	-200.000	-0.068	-0.432
-597.040	-97.120	-0.133	-0.035
-596.025	194.153	-0.030	0.046
-595.011	264.767	-0.171	0.297
-593.996	50.909	0.055	0.052
-592.982	-49.018	-0.097	0.046
-591.967	-134.725	-0.226	0.027
-590.952	-78.739	-0.095	0.032
-589.938	797.303	-0.128	-0.350
-588.923	242.684	0.149	-0.248
-587.909	-200.000	-0.027	0.355
-586.894	266.302	-0.239	0.414
-585.879	800.000	-0.053	-0.204
-584.865	606.910	0.044	0.110
-583.850	-200.000	-0.001	0.277
-582.836	800.000	-0.110	0.399
-581.821	-200.000	-0.006	-0.026
-580.806	76.522	-0.158	-0.166
-579.792	410.232	-0.083	0.175
-578.777	-52.196	0.264	-0.122
-577.763	48.202	-0.059	-0.055
-576.748	63.263	0.140	0.139
-575.733	-200.000	0.008	-0.301
-574.719	-2.862	0.061	-0.043
-573.704	23.181	-0.157	-0.128
-572.690	-200.000	-0.023	-0.194
-571.675	-18.911	-0.155	-0.096
-570.661	230.222	-0.145	-0.236
-569.646	-200.000	0.010	0.151
-568.631	490.176	-0.163	0.372
-567.617	800.000	0.063	-0.182
-566.602	80.885	-0.166	-0.178
-565.588	800.000	-0.075	-0.240
-564.573	800.000	0.091	0.317
-563.558	-13.094	-0.062	0.040
-562.544	-200.000	-0.066	-0.330
-561.529	-18.797	0.059	-0.037
-560.515	-200.000	0.001	0.055
-559.500	-200.000	0.033	0.203
-558.485	-144.943	-0.168	0.015
-557.471	-200.000	0.081	0.482
-556.456	800.000	-0.035	0.114
-555.442	-137.933	0.109	-0.012
-554.427	-69.526	0.179	0.068
-553.412	-200.000	-0.002	0.251
-552.398	-27.869	-0.301	-0.174
-551.383	-106.239	0.295	0.066
-550.369	641.333	-0.122	-0.309
-549.354	800.000	-0.043	0.129
-548.339	-80.746	0.013	0.004
-547.325	-106.167	-0.148	0.033
-546.310	-200.000	0.005	-0.074
-545.296	39.291	-0.073	0.065
-544.281	121.517	0.231	-0.286
-543.266	94.280	-0.192	0.217
-542.252	-16.748	0.228	0.143
-541.237	463.960	-0.166	-0.369
-540.223	60.347	-0.112	-0.111
-539.208	-59.212	0.073	0.031
-538.193	-72.319	-0.061	0.022
-537.179	119.864	0.108	-0.132
-536.164	-200.000	0.001	0.235
-535.150	-35.097	0.324	-0.175
-534.135	-131.537	-0.380	-0.050
-533.121	-144.108	-0.194	-0.018
-532.106	94.574	0.071	0.080
-531.091	32.427	0.096	0.082
-530.077	170.628	0.286	-0.406
-529.062	-83.598	-0.091	-0.029
-528.048	-144.878	-0.129	0.012
-527.033	800.000	0.037	-0.128
-526.018	800.000	-0.081	0.237
-525.004	13.435	0.218	-0.167
-523.989	-139.444	-0.283	-0.030
-522.975	-162.766	-0.125	-0.006
-521.960	284.622	-0.139	0.248
-520.945	394.187	-0.185	0.383
-519.931	71.452	-0.177	0.182
-518.916	-22.422	0.183	0.110
-517.902	-185.936	0.080	-0.001
-516.887	-32.005	-0.289	0.161
-515.872	-200.000	-0.031	-0.233
-514.858	-52.608	-0.105	-0.048
-513.843	142.713	-0.069	0.090
-512.829	24.013	0.274	-0.224
-511.814	18.443	-0.062	-0.049
-510.799	24.782	-0.361	-0.297
-509.785	800.000	0.112	-0.339
-508.770	128.190	0.115	-0.145
-507.756	64.319	-0.125	0.125
-506.741	498.647	-0.103	-0.236
-505.726	-200.000	0.037	-0.227
-504.712	260.543	0.143	0.245
-503.697	-30.616	-0.248	-0.139
-502.683	385.137	-0.044	-0.091
-501.668	122.878	0.246	-0.305
-500.653	84.187	0.115	0.125
-499.639	-159.068	0.248	-0.014
-498.624	800.000	-0.089	-0.264
-497.610	-200.000	-0.022	-0.259
-496.595	-66.087	0.096	-0.038
-495.581	-134.435	0.230	-0.028
-494.566	-200.000	0.016	-0.256
-493.551	-71.626	0.083	0.031
-492.537	-75.851	-0.337	-0.118
-491.522	-200.000	0.004	-0.187
-490.508	28.729	-0.082	0.069
-489.493	-200.000	-0.012	0.112
-488.478	800.000	-0.044	0.162
-487.464	-120.655	-0.135	-0.023
-486.449	-170.995	0.179	-0.006
-485.435	40.535	0.065	-0.058
-484.420	-200.000	-0.011	0.108
-483.405	-156.925	0.425	-0.026
-482.391	-200.000	0.019	-0.093
-481.376	800.000	-0.072	-0.264
-480.362	-149.370	0.292	0.023
-479.347	-173.499	0.283	0.008
-478.332	133.672	-0.111	0.142
-477.318	-200.000	0.006	0.045
-476.303	-200.000	0.008	0.164
-475.289	-112.451	-0.182	0.036
-474.274	-200.000	0.001	-0.005
-473.259	77.568	0.136	0.144
-472.245	132.623	0.079	0.100
-471.230	57.062	0.246	-0.238
-470.216	800.000	0.102	0.358
-469.201	-2.138	-0.093	0.065
-468.186	33.576	0.219	-0.188
-467.172	-74.841	-0.480	0.171
-466.157	420.259	0.052	-0.110
-465.143	114.375	-0.057	0.069
-464.128	31.016	-0.109	0.093
-463.113	586.310	-0.058	0.140
-462.099	72.256	0.246	0.254
-461.084	-22.605	0.365	-0.218
-460.070	-141.383	0.099	-0.010
-459.055	-84.189	-0.104	0.033
-458.040	800.000	-0.030	0.090
-457.026	23.042	0.110	-0.089
-456.011	46.309	-0.039	0.035
-454.997	-70.008	-0.115	0.043
-453.982	-30.229	0.359	-0.202
-452.968	281.094	0.106	-0.187
-451.953	-94.644	0.065	0.018
-450.938	800.000	0.084	0.281
-449.924	-74.284	-0.116	0.041
-448.909	21.539	0.306	0.247
-447.895	-91.390	-0.106	-0.030
-446.880	-200.000	0.055	-0.353
-445.865	-39.067	0.117	-0.061
-444.851	800.000	-0.084	0.258
-443.836	-200.000	-0.010	-0.062
-442.822	800.000	0.043	-0.151
-441.807	-83.632	-0.233	0.074
-440.792	800.000	0.030	0.114
-439.778	337.298	-0.106	0.204
-438.763	-200.000	0.008	0.120
-437.749	800.000	0.061	-0.222
-436.734	194.390	0.110	0.165
-435.719	358.486	0.117	0.232
-434.705	-200.000	0.056	0.278
-433.690	160.796	0.149	0.205
-432.676	-145.334	-0.319	-0.028
-431.661	-147.674	0.038	0.003
-430.646	-51.570	0.058	0.027
-429.632	-123.665	0.100	0.016
-428.617	-151.116	0.384	0.028
-427.603	492.339	-0.184	-0.418
-426.588	11.718	0.237	-0.180
-425.573	-61.619	0.258	-0.107
-424.559	233.966	-0.040	0.065
-423.544	-54.262	-0.177	-0.079
-422.530	317.890	0.064	-0.120
-421.515	294.100	-0.128	-0.231
-420.500	-73.429	-0.212	-0.077
-419.486	9.930	0.178	0.134
-418.471	23.176	-0.131	0.107
-417.457	158.951	-0.123	-0.169
-416.442	-15.592	-0.305	-0.193
-415.428	-1.468	-0.132	0.092
-414.413	-16.918	0.216	0.135
-413.398	-19.222	0.053	-0.033
-412.384	189.125	-0.164	-0.243
-411.369	30.508	0.164	0.138
-410.355	800.000	-0.130	0.392
-409.340	-178.950	-0.045	-0.001
-408.325	104.786	0.096	-0.111
-407.311	-8.702	-0.132	-0.087
-406.296	-4.764	0.114	-0.078
-405.282	-48.386	-0.127	0.061
-404.267	175.080	0.192	0.275
-403.252	458.784	-0.115	-0.252
-402.238	-100.413	-0.168	0.041
-401.223	-61.633	-0.028	0.012
-400.209	-7.015	-0.026	0.017
-399.194	800.000	-0.014	-0.051
-398.179	-200.000	0.083	-0.381
-397.165	14.925	-0.102	0.079
-396.150	456.783	0.055	-0.120
-395.136	-200.000	-0.042	0.205
-394.121	-80.610	-0.250	-0.082
-393.106	46.920	-0.304	-0.279
-392.092	800.000	-0.096	-0.312
-391.077	-52.324	0.463	-0.212
-390.063	13.441	0.296	0.227
-389.048	11.221	-0.113	0.085
-388.033	81.881	-0.062	-0.066
-387.019	-200.000	0.009	-0.127
-386.004	800.000	0.059	-0.183
-384.990	-200.000	-0.079	0.458
-383.975	-200.000	0.032	-0.195
-382.960	-200.000	-0.031	0.227
-381.946	29.478	0.132	-0.111
-380.931	-186.366	0.127	0.002
-379.917	-200.000	-0.026	0.141
-378.902	-104.444	0.066	0.015
-377.888	-200.000	-0.023	-0.249
-376.873	-47.722	-0.159	-0.076
-375.858	33.880	0.165	0.142
-374.844	-200.000	0.015	-0.191
-373.829	-95.278	-0.249	-0.066
-372.815	-69.959	0.196	-0.074
-371.800	-35.844	-0.252	-0.135
-370.785	31.196	-0.354	-0.299
-369.771	517.446	0.107	-0.247
-368.756	4.418	-0.341	-0.247
-367.742	-78.309	-0.199	0.068
-366.727	257.011	0.127	-0.215
-365.712	-69.011	0.207	-0.079
-364.698	800.000	-0.048	0.179
-363.683	-129.944	-0.292	-0.039
-362.669	90.771	0.259	0.287
-361.654	65.557	0.098	-0.098
-360.639	-65.488	0.294	0.116
-359.625	-85.578	0.082	-0.025
-358.610	35.735	0.148	0.128
-357.596	665.987	0.036	-0.093
-356.581	-200.000	0.049	-0.319
-355.566	-60.982	-0.411	-0.171
-354.552	109.518	0.116	0.137
-353.537	393.938	-0.201	-0.412
-352.523	-200.000	0.015	-0.159
-351.508	-40.876	-0.318	0.162
-350.493	5.559	0.247	0.180
-349.479	-119.568	0.208	-0.035
-348.464	-200.000	-0.056	-0.256
-347.450	651.527	0.057	0.143
-346.435	183.549	0.351	-0.511
-345.420	503.780	-0.089	-0.204
-344.406	282.443	0.103	-0.182
-343.391	265.975	-0.247	0.425
-342.377	800.000	-0.089	-0.243
-341.362	-200.000	-0.001	0.057
-340.348	412.778	0.074	-0.155
-339.333	77.433	0.227	0.238
-338.318	-200.000	-0.032	0.174
-337.304	599.787	-0.174	-0.424
-336.289	141.399	0.084	0.109
-335.275	-38.655	-0.335	0.174
-334.260	401.722	0.078	-0.161
-333.245	33.941	0.141	-0.121
-332.231	125.440	-0.155	0.192
-331.216	-89.362	-0.035	0.010
-330.202	-64.605	-0.208	0.083
-329.187	67.063	0.160	-0.161
-328.172	-59.753	-0.220	0.093
-327.158	0.445	-0.063	-0.044
-326.143	-8.434	0.152	-0.101
-325.129	190.204	-0.112	-0.166
-324.114	-15.174	0.191	0.120
-323.099	-200.000	0.009	-0.085
-322.085	-144.538	-0.230	0.021
-321.070	140.841	0.255	0.332
-320.056	74.010	-0.105	0.109
-319.041	-145.967	0.056	-0.005
-318.026	-45.605	0.221	0.108
-317.012	136.061	-0.099	0.127
-315.997	94.931	-0.138	-0.155
-314.983	551.074	0.118	-0.279
-313.968	-12.398	-0.126	0.081
-312.953	58.286	0.072	0.069
-311.939	-200.000	0.013	-0.070
-310.924	-200.000	0.060	0.000
-309.910	-114.281	-0.130	-0.025
-308.895	748.509	0.141	0.374
-307.880	-95.524	-0.288	0.076
-306.866	-200.000	0.026	0.288
-305.851	-83.281	-0.305	0.096
-304.837	800.000	-0.036	0.135
-303.822	-200.000	0.014	-0.152
-302.807	-18.501	-0.220	0.135
-301.793	-57.986	0.281	-0.121
-300.778	-200.000	-0.005	-0.305
-299.764	800.000	-0.059	0.204
-298.749	19.102	-0.178	-0.140
-297.735	80.358	-0.151	-0.160
-296.720	-200.000	-0.015	-0.099
-295.705	-101.175	0.115	-0.028
-294.691	-69.094	0.364	0.138
-293.676	800.000	0.053	0.197
-292.662	-200.000	0.048	0.300
-291.647	14.716	-0.131	-0.101
-290.632	-200.000	0.018	0.374
-289.618	-135.414	-0.263	-0.031
-288.603	-101.500	-0.279	0.067
-287.589	346.156	0.021	0.041
-286.574	432.969	-0.030	-0.064
-285.559	800.000	0.092	0.384
-284.545	-27.536	0.391	-0.223
-283.530	52.538	-0.118	0.110
-282.516	155.518	0.187	-0.253
-281.501	-5.747	-0.116	-0.078
-280.486	800.000	-0.090	-0.349
-279.472	-72.023	0.084	-0.031
-278.457	-200.000	0.019	-0.260
-277.443	-96.255	0.332	0.087
-276.428	222.525	0.084	-0.132
-275.413	-100.008	-0.065	-0.016
-274.399	-92.849	-0.105	-0.029
-273.384	477.459	0.079	0.175
-272.370	84.423	-0.059	-0.064
-271.355	78.375	-0.064	0.068
-270.340	-200.000	-0.101	0.000
-269.326	130.175	0.183	-0.230
-268.311	-200.000	-0.010	0.113
-267.297	-27.283	0.230	-0.131
-266.282	126.252	0.050	0.062
-265.267	172.334	-0.088	0.124
-264.253	229.755	0.183	0.293
-263.238	23.879	0.187	-0.151
-262.224	800.000	-0.051	-0.139
-261.209	477.600	0.089	-0.199
-260.195	800.000	0.019	0.064
-259.180	-200.000	0.013	0.057
-258.165	51.617	0.195	-0.182
-257.151	-17.877	0.019	-0.012
-256.136	-101.955	0.188	-0.044
-255.122	-125.909	0.175	0.026
-254.107	-179.508	0.290	0.006
-253.092	-200.000	0.005	0.111
-252.078	535.175	0.118	-0.274
-251.063	210.265	-0.098	-0.150
-250.049	42.691	0.364	0.325
-249.034	800.000	0.025	-0.076
-248.019	-45.695	-0.169	0.082
-247.005	-51.639	0.139	-0.063
-245.990	-200.000	0.016	0.158
-244.976	-67.022	0.208	0.081
-243.961	-200.000	-0.040	-0.255
-242.946	800.000	-0.016	0.044
-241.932	-112.165	-0.162	-0.032
-240.917	175.850	0.075	-0.106
-239.903	267.890	0.147	0.252
-238.888	800.000	0.099	0.300
-237.873	231.994	0.076	-0.123
-236.859	-41.539	-0.205	-0.103
-235.844	-200.000	-0.048	-0.276
-234.830	21.206	0.229	0.183
-233.815	-115.929	-0.192	-0.035
-232.800	-200.000	-0.024	0.292
-231.786	2.315	-0.218	-0.155
-230.771	82.336	-0.129	-0.137
-229.757	-200.000	0.065	0.557
-228.742	534.509	0.022	0.050
-227.727	21.277	-0.272	0.216
-226.713	505.899	-0.050	0.113
-225.698	579.576	0.057	0.138
-224.684	-200.000	0.020	-0.199
-223.669	-200.000	0.051	-0.303
-222.655	800.000	-0.037	-0.135
-221.640	-118.304	0.312	0.054
-220.625	34.430	-0.121	-0.103
-219.611	-34.680	0.322	-0.173
-218.596	99.457	0.113	-0.128
-217.582	-33.196	-0.461	0.250
-216.567	-200.000	0.052	0.366
-215.552	405.995	0.180	-0.373
-214.538	227.073	-0.104	0.165
-213.523	-25.118	0.213	-0.124
-212.509	41.584	-0.125	0.111
-211.494	-200.000	0.012	-0.055
-210.479	-200.000	-0.001	0.157
-209.465	-132.596	-0.053	0.007
-208.450	191.210	0.097	-0.143
-207.436	361.391	-0.153	0.300
-206.421	-167.121	-0.150	0.006
-205.406	42.539	-0.140	0.125
-204.392	2.365	0.292	-0.207
-203.377	378.661	-0.051	0.101
-202.363	-101.802	0.096	-0.023
-201.348	-133.287	-0.155	0.019
-200.333	52.167	-0.286	-0.267
-199.319	193.096	0.090	0.133
-198.304	476.624	-0.063	0.140
-197.290	140.927	-0.263	-0.340
-196.275	800.000	0.180	0.538
-195.260	319.064	0.167	0.310
-194.246	-67.015	0.272	-0.105
-193.231	88.513	-0.162	-0.177
-192.217	132.293	0.236	-0.298
-191.202	275.766	-0.148	0.257
-190.187	484.649	-0.042	0.093
-189.173	-186.401	0.506	0.007
-188.158	-200.000	-0.013	0.062
-187.144	-129.544	0.488	-0.066
-186.129	-92.718	-0.280	-0.077
-185.114	23.324	0.187	0.150
-184.100	403.726	-0.025	-0.052
-183.085	145.180	0.170	0.222
-182.071	340.430	-0.075	-0.143
-181.056	-89.692	0.466	-0.134
-180.042	760.672	-0.005	-0.014
-179.027	-106.166	0.209	0.046
-178.012	-59.103	-0.155	-0.065
-176.998	-200.000	0.004	0.132
-175.983	-200.000	0.008	0.127
-174.969	521.762	-0.153	0.352
-173.954	-200.000	0.006	0.027
-172.939	-26.174	-0.288	0.166
-171.925	-5.708	-0.195	0.131
-170.910	77.294	-0.094	0.098
-169.896	-98.476	0.192	-0.048
-168.881	620.965	0.068	0.167
-167.866	411.489	-0.072	-0.149
-166.852	50.801	-0.244	0.226
-165.837	-107.894	0.378	0.081
-164.823	-48.662	-0.181	0.085
-163.808	800.000	0.015	-0.057
-162.793	441.561	-0.140	-0.301
-161.779	-200.000	0.004	0.108
-160.764	20.419	-0.167	-0.132
-159.750	57.706	0.077	-0.074
-158.735	-6.158	-0.083	-0.055
-157.720	409.605	0.068	-0.141
-156.706	-167.730	0.153	-0.006
-155.691	82.882	0.163	0.173
-154.677	190.950	-0.042	0.061
-153.662	800.000	0.034	0.099
-152.647	-116.750	0.114	0.020
-151.633	-175.297	0.142	-0.004
-150.618	-117.479	0.197	0.035
-149.604	206.198	-0.173	0.263
-148.589	-200.000	0.004	-0.024
-147.574	343.706	-0.074	-0.142
-146.560	456.970	-0.044	0.096
-145.545	-134.663	-0.210	-0.025
-144.531	-200.000	-0.030	-0.279
-143.516	-19.438	-0.157	-0.095
-142.502	194.445	0.054	0.080
-141.487	-55.487	0.130	0.057
-140.472	800.000	0.095	-0.361
-139.458	-140.106	-0.345	0.035
-138.443	183.474	0.233	0.336
-137.429	-96.883	-0.269	-0.069
-136.414	-200.000	0.051	0.263
-135.399	-125.550	0.181	0.027
-134.385	800.000	-0.045	0.186
-133.370	144.970	-0.086	-0.112
-132.356	49.138	0.064	-0.058
-131.341	29.575	0.256	0.213
-130.326	-200.000	-0.022	0.192
-129.312	724.634	0.102	0.265
-128.297	434.775	0.075	0.160
-127.283	-76.800	0.114	-0.039
-126.268	800.000	-0.071	-0.232
-125.253	-7.695	-0.278	0.184
-124.239	-1.374	-0.054	0.037
-123.224	0.906	0.196	0.138
-122.210	142.739	-0.108	0.141
-121.195	720.456	-0.156	0.405
-120.180	173.944	-0.134	0.189
-119.166	224.928	0.141	-0.222
-118.151	800.000	-0.062	-0.223
-117.137	800.000	0.092	0.263
-116.122	-175.048	-0.071	-0.002
-115.107	507.941	-0.131	-0.296
-114.093	196.187	-0.173	0.257
-113.078	95.119	-0.026	0.029
-112.064	-200.000	0.009	-0.053
-111.049	-128.078	-0.281	-0.039
-110.034	-63.586	-0.147	0.059
-109.020	-30.024	0.305	0.169
-108.005	-109.571	-0.214	0.044
-106.991	-165.101	0.164	-0.007
-105.976	-200.000	0.088	-0.504
-104.962	800.000	0.047	-0.160
-103.947	-26.448	-0.147	-0.084
-102.932	800.000	-0.054	0.161
-101.918	142.738	0.284	0.368
-100.903	111.124	-0.347	-0.408
-99.889	486.046	-0.095	-0.211
-98.874	800.000	-0.157	0.456
-97.859	210.390	-0.098	0.150
-96.845	-71.149	0.245	-0.090
-95.830	-200.000	-0.013	0.139
-94.816	514.551	0.100	0.227
-93.801	-115.049	0.033	-0.006
-92.786	-9.828	-0.236	0.154
-91.772	153.641	0.219	0.292
-90.757	-95.346	0.262	0.069
-89.743	-13.028	0.017	0.011
-88.728	181.671	-0.074	-0.106
-87.713	182.011	0.229	0.330
-86.699	11.679	0.203	0.152
-85.684	-51.668	0.481	0.219
-84.670	-38.409	-0.099	0.051
-83.655	-33.047	0.254	0.138
-82.640	-200.000	-0.001	0.069
-81.626	70.902	0.287	-0.290
-80.611	800.000	-0.126	0.348
-79.597	-41.630	0.073	0.036
-78.582	-58.127	0.101	-0.043
-77.567	82.710	-0.092	0.097
-76.553	-174.052	-0.110	0.003
-75.538	-67.440	-0.127	-0.049
-74.524	202.856	0.076	-0.115
-73.509	800.000	-0.031	0.089
-72.494	-83.637	0.335	0.104
-71.480	-99.780	-0.119	0.029
-70.465	-54.165	-0.197	-0.087
-69.451	177.757	0.232	0.329
-68.436	120.639	0.085	-0.103
-67.422	153.312	-0.198	0.264
-66.407	-41.281	0.092	0.046
-65.392	-91.283	0.266	-0.074
-64.378	135.355	0.197	-0.250
-63.363	-193.271	-0.053	0.000
-62.349	-200.000	0.016	-0.450
-61.334	148.694	-1.124	-1.480
-60.319	8.698	0.805	0.591
-59.305	76.932	-0.813	-0.841
-58.290	800.000	0.536	1.452
-57.276	662.074	0.660	1.658
-56.261	-200.000	119.794	621.276
-55.246	411.799	1532.743	3171.233
-54.232	147.565	2689.644	3530.448
-53.217	91.413	2261.816	2475.589
-52.203	34.003	1876.118	1592.115
-51.188	28.572	1673.094	1379.075
-50.173	26.355	1632.800	1329.530
-49.159	45.414	1696.881	1525.618
-48.144	44.005	1710.375	1527.090
-47.130	28.075	1663.779	1367.467
-46.115	25.638	1648.678	1336.916
-45.100	25.421	1644.333	1331.730
-44.086	25.484	1641.386	1329.762
-43.071	25.454	1639.016	1327.566
-42.057	25.371	1636.505	1324.865
-41.042	25.478	1634.137	1323.681
-40.027	25.492	1632.959	1322.778
-39.013	25.400	1630.994	1320.462
-37.998	25.380	1629.727	1319.235
-36.984	25.333	1628.391	1317.758
-35.969	25.523	1626.469	1317.540
-34.954	25.518	1625.135	1316.373
-33.940	25.510	1623.815	1315.190
-32.925	25.529	1621.850	1313.685
-31.911	25.570	1620.666	1312.973
-30.896	25.624	1618.484	1311.548
-29.881	25.472	1617.108	1309.277
-28.867	25.617	1615.463	1308.943
-27.852	25.675	1613.801	1307.967
-26.838	25.563	1613.349	1306.735
-25.823	25.585	1611.437	1305.296
-24.809	25.595	1610.315	1304.408
-23.794	25.619	1608.640	1303.171
-22.779	25.610	1607.667	1302.269
-21.765	25.587	1605.804	1300.537
-20.750	25.541	1604.187	1298.843
-19.736	25.630	1602.772	1298.291
-18.721	25.610	1601.557	1297.108
-17.706	25.623	1600.024	1295.909
-16.692	25.636	1598.507	1294.726
-15.677	25.529	1597.777	1293.316
-14.663	25.684	1595.524	1292.554
-13.648	25.647	1594.106	1291.088
-12.633	25.582	1593.014	1289.684
-11.619	25.539	1591.706	1288.265
-10.604	25.567	1590.265	1287.248
-9.590	25.660	1588.582	1286.502
-8.575	25.618	1587.265	1285.080
-7.560	25.596	1586.670	1284.391
-6.546	25.642	1585.167	1283.452
-5.531	25.541	1584.355	1282.024
-4.517	25.640	1582.783	1281.410
-3.502	25.584	1582.113	1280.417
-2.487	25.649	1580.397	1279.441
-1.473	25.180	1567.794	1265.877
-0.458	21.933	1548.386	1227.480
0.556	16.524	1550.035	1194.519
1.571	14.171	1572.838	1195.099
2.586	13.747	1584.964	1201.138
3.600	12.612	1531.995	1152.944
4.615	6.966	1427.414	1037.205
5.629	1.420	1367.983	958.995
6.644	0.232	1361.235	946.713
7.659	0.257	1359.897	945.854
8.673	0.149	1359.063	944.513
9.688	0.083	1356.787	942.438
10.702	0.059	1353.786	940.118
11.717	2.860	1357.443	960.109
12.731	9.846	1368.700	1011.911
13.746	15.694	1376.017	1053.995
14.761	16.977	1376.952	1062.660
15.775	16.201	1374.964	1056.174
16.790	15.166	1372.573	1047.778
17.804	14.447	1370.201	1041.380
18.819	14.141	1368.910	1038.395
19.834	13.982	1367.473	1036.225
20.848	13.692	1366.066	1033.257
21.863	13.391	1365.022	1030.504
22.877	13.265	1364.046	1028.893
23.892	13.231	1362.900	1027.724
24.907	13.074	1362.375	1026.265
25.921	13.219	1361.536	1026.439
26.936	13.240	1360.628	1025.797
27.950	13.217	1359.551	1024.753
28.965	13.361	1358.491	1024.751
29.980	13.396	1357.773	1024.337
30.994	13.443	1356.726	1023.749
32.009	13.500	1355.541	1023.115
33.023	13.400	1354.600	1021.698
34.038	13.437	1353.712	1021.162
35.053	13.441	1352.081	1019.866
36.067	13.266	1351.449	1018.224
37.082	13.275	1351.092	1017.919
38.096	13.402	1349.294	1017.256
39.111	13.413	1348.654	1016.752
40.126	13.296	1347.884	1015.366
41.140	13.267	1347.058	1014.470
42.155	13.279	1346.854	1014.300
43.169	13.175	1346.642	1013.413
44.184	13.164	1346.784	1013.366
45.199	13.214	1346.256	1013.187
46.213	13.195	1345.465	1012.383
47.228	13.305	1344.333	1012.117
48.242	13.329	1343.415	1011.481
49.257	13.342	1341.718	1010.195
50.271	13.353	1340.416	1009.191
51.286	13.284	1339.789	1008.211
52.301	13.372	1337.658	1007.049
53.315	13.355	1336.454	1005.953
54.330	13.286	1335.805	1004.956
55.344	13.166	1334.489	1003.147
56.359	13.210	1333.383	1002.493
57.374	13.151	1332.490	1001.375
58.388	13.186	1331.575	1000.813
59.403	13.163	1331.368	1000.428
60.417	13.255	1330.358	1000.136
61.432	13.170	1329.807	999.120
62.447	13.105	1328.902	997.961
63.461	13.049	1327.583	996.546
64.476	13.090	1326.665	996.015
65.490	13.107	1324.943	994.734
66.505	13.100	1323.778	993.734
67.520	13.204	1322.183	993.074
68.534	13.191	1321.400	992.315
69.549	13.088	1320.369	990.835
70.563	13.190	1318.874	990.238
71.578	13.015	1318.502	988.825
72.593	13.064	1317.237	988.080
73.607	13.128	1316.099	987.520
74.622	13.059	1315.661	986.692
75.636	13.040	1314.387	985.536
76.651	13.011	1314.013	984.996
77.666	12.985	1313.696	984.519
78.680	13.085	1312.697	984.278
79.695	13.083	1312.057	983.699
80.709	13.037	1311.610	983.000
81.724	13.173	1310.109	982.600
82.739	13.159	1309.716	982.137
83.753	13.320	1308.135	981.819
84.768	13.260	1307.820	981.137
85.782	13.402	1306.317	980.767
86.797	13.314	1305.108	979.247
87.812	13.157	1303.856	977.296
88.826	13.298	1302.618	977.114
89.841	13.283	1301.860	976.372
90.855	13.303	1301.142	975.865
91.870	13.314	1300.274	975.190
92.884	13.335	1299.029	974.292
93.899	13.420	1298.260	974.132
94.914	13.343	1297.934	973.347
95.928	13.459	1296.638	972.970
96.943	13.395	1295.508	971.663
97.957	13.357	1295.049	971.010
98.972	13.367	1293.741	969.999
99.987	13.403	1292.483	969.182
101.001	13.426	1291.502	968.497
102.016	13.363	1290.672	967.422
103.030	13.334	1289.659	966.406
104.045	13.366	1288.985	966.000
105.060	13.310	1287.674	964.604
106.074	13.230	1286.674	963.306
107.089	13.190	1285.109	961.814
108.103	13.146	1284.339	960.901
109.118	13.350	1282.277	960.454
110.133	13.172	1281.183	958.521
111.147	13.278	1280.097	958.235
112.162	13.212	1278.910	956.881
113.176	13.285	1277.766	956.365
114.191	13.254	1276.928	955.473
115.206	13.379	1275.313	954.901
116.220	13.269	1274.547	953.610
117.235	13.196	1273.740	952.496
118.249	13.345	1272.316	952.206
119.264	13.204	1271.415	950.637
120.279	13.171	1270.824	949.924
121.293	13.254	1269.356	949.217
122.308	13.225	1268.260	948.147
123.322	13.184	1267.565	947.309
124.337	13.242	1266.100	946.460
125.352	13.206	1264.763	945.173
126.366	13.180	1263.750	944.183
127.381	13.143	1263.165	943.452
128.395	13.176	1261.366	942.211
129.410	13.231	1260.991	942.166
130.424	13.269	1259.890	941.474
131.439	13.304	1258.925	940.866
132.454	13.239	1258.308	939.954
133.468	13.219	1257.250	938.969
134.483	13.301	1256.637	938.893
135.497	13.256	1255.780	937.913
136.512	13.232	1254.304	936.594
137.527	13.275	1252.945	935.740
138.541	13.257	1251.400	934.401
139.556	13.289	1250.236	933.628
140.570	13.418	1249.049	933.385
141.585	13.369	1247.864	932.142
142.600	13.347	1246.960	931.263
143.614	13.462	1245.571	930.790
144.629	13.574	1244.872	930.813
145.643	13.346	1244.376	929.078
146.658	13.414	1242.747	928.160
147.673	13.397	1240.953	926.644
148.687	13.246	1240.506	925.382
149.702	13.315	1238.921	924.503
150.716	13.346	1237.500	923.538
151.731	13.410	1236.266	922.887
152.746	13.413	1234.884	921.792
153.760	13.431	1234.538	921.554
154.775	13.441	1232.647	920.114
155.789	13.481	1231.894	919.697
156.804	13.541	1230.892	919.198
157.819	13.558	1229.693	918.317
158.833	13.571	1228.991	917.782
159.848	13.495	1228.750	917.099
160.862	13.592	1227.019	916.265
161.877	13.539	1225.779	914.965
162.892	13.488	1224.782	913.859
163.906	13.507	1223.849	913.188
164.921	13.570	1222.996	912.816
165.935	13.534	1221.821	911.658
166.950	13.502	1221.653	911.276
167.964	13.594	1220.488	910.832
168.979	13.600	1220.009	910.429
169.994	13.620	1219.189	909.844
171.008	13.536	1218.594	908.858
172.023	13.662	1217.408	908.586
173.037	13.689	1216.738	908.154
174.052	13.706	1215.889	907.532
175.067	13.639	1214.840	906.300
176.081	13.548	1214.173	905.225
177.096	13.578	1213.281	904.646
178.110	13.672	1211.852	904.015
179.125	13.631	1210.791	902.921
180.140	13.697	1209.320	902.099
181.154	13.661	1208.568	901.262
182.169	13.744	1206.843	900.349
183.183	13.739	1205.934	899.566
184.198	13.727	1205.222	898.886
185.213	13.892	1203.820	898.658
186.227	13.806	1202.747	897.312
187.242	13.944	1201.532	897.072
188.256	13.935	1200.791	896.392
189.271	13.803	1199.929	894.953
190.286	13.870	1198.608	894.250
191.300	13.764	1198.048	893.185
192.315	13.670	1197.442	892.148
193.329	13.636	1196.972	891.532
194.344	13.677	1196.238	891.128
195.359	13.762	1195.660	891.079
196.373	13.935	1194.697	891.207
197.388	13.944	1194.097	890.728
198.402	13.974	1193.627	890.464
199.417	13.980	1193.243	890.131
200.432	13.954	1192.903	889.659
201.446	14.066	1191.260	888.952
202.461	14.152	1190.508	888.769
203.475	14.202	1189.140	887.939
204.490	14.167	1187.788	886.663
205.504	14.147	1187.021	885.904
206.519	13.996	1185.929	884.210
207.534	14.121	1184.508	883.734
208.548	14.020	1183.796	882.589
209.563	13.993	1183.418	882.088
210.577	14.048	1182.160	881.364
211.592	14.161	1181.249	881.202
212.607	14.255	1180.652	881.180
213.621	14.156	1179.944	880.048
214.636	14.176	1178.767	879.200
215.650	14.275	1177.753	878.890
216.665	14.227	1176.755	877.811
217.680	14.295	1176.136	877.628
218.694	14.270	1175.683	877.082
219.709	14.356	1174.652	876.688
220.723	14.253	1173.800	875.433
221.738	14.256	1173.101	874.849
222.753	14.347	1172.434	874.755
223.767	14.418	1171.444	874.308
224.782	14.387	1171.231	873.912
225.796	14.460	1170.456	873.637
226.811	14.410	1169.647	872.697
227.826	14.434	1168.759	872.079
228.840	14.354	1168.683	871.527
229.855	14.337	1167.815	870.715
230.869	14.386	1166.865	870.186
231.884	14.445	1165.672	869.526
232.899	14.462	1165.247	869.223
233.913	14.359	1164.700	868.202
234.928	14.305	1164.097	867.394
235.942	14.457	1162.765	867.112
236.957	14.370	1161.807	865.869
237.972	14.403	1161.123	865.456
238.986	14.440	1160.818	865.342
240.001	14.435	1160.046	864.664
241.015	14.502	1158.841	864.036
242.030	14.478	1158.515	863.593
243.045	14.515	1157.972	863.306
244.059	14.602	1156.519	862.595
245.074	14.579	1155.515	861.654
246.088	14.534	1155.356	861.221
247.103	14.602	1154.581	860.922
248.117	14.628	1153.882	860.457
249.132	14.684	1153.039	860.040
250.147	14.832	1152.141	860.056
251.161	14.825	1151.455	859.433
252.176	14.700	1151.525	858.766
253.190	14.890	1150.363	858.800
254.205	14.874	1149.861	858.268
255.220	14.927	1149.173	857.948
256.234	14.894	1148.455	857.167
257.249	14.888	1147.677	856.481
258.263	14.852	1147.420	856.028
259.278	14.828	1146.613	855.226
260.293	15.013	1145.993	855.634
261.307	15.027	1145.407	855.194
262.322	15.030	1144.973	854.808
263.336	14.976	1143.932	853.680
264.351	15.052	1143.712	853.829
265.366	15.155	1142.691	853.515
266.380	15.047	1142.267	852.573
267.395	15.061	1141.194	851.768
268.409	15.000	1140.730	851.039
269.424	15.035	1139.760	850.416
270.439	15.216	1138.992	850.685
271.453	15.154	1138.461	849.900
272.468	15.079	1137.727	848.899
273.482	14.988	1137.156	847.932
274.497	15.050	1136.479	847.671
275.512	15.017	1135.758	846.889
276.526	15.189	1134.370	846.648
277.541	15.146	1133.963	846.052
278.555	15.195	1133.396	845.804
279.570	15.303	1132.316	845.465
280.585	15.327	1131.593	844.973
281.599	15.248	1130.824	843.924
282.614	15.351	1129.517	843.393
283.628	15.229	1129.030	842.344
284.643	15.311	1127.953	841.874
285.657	15.352	1126.907	841.226
286.672	15.303	1126.553	840.643
287.687	15.370	1125.556	840.158
288.701	15.480	1124.214	839.634
289.716	15.289	1124.199	838.590
290.730	15.459	1122.882	838.386
291.745	15.398	1122.482	837.705
292.760	15.418	1121.648	837.109
293.774	15.456	1120.804	836.598
294.789	15.506	1120.789	836.758
295.803	15.515	1119.967	836.119
296.818	15.473	1119.211	835.272
297.833	15.512	1118.306	834.713
298.847	15.460	1117.901	834.082
299.862	15.544	1116.806	833.605
300.876	15.630	1116.440	833.686
301.891	15.588	1115.358	832.594
302.906	15.580	1114.390	831.759
303.920	15.590	1114.535	831.846
304.935	15.724	1113.382	831.575
305.949	15.703	1113.000	831.110
306.964	15.703	1112.481	830.650
307.979	15.693	1111.657	829.910
308.993	15.629	1110.931	828.980
310.008	15.646	1109.906	828.223
311.022	15.768	1109.235	828.253
312.037	15.687	1108.375	827.138
313.052	15.612	1107.792	826.260
314.066	15.674	1106.824	825.769
315.081	15.786	1105.503	825.261
316.095	15.720	1105.283	824.699
317.110	15.687	1104.801	824.106
318.125	15.772	1103.412	823.410
319.139	15.806	1103.103	823.274
320.154	15.729	1102.326	822.245
321.168	15.766	1101.763	821.934
322.183	15.670	1101.281	821.035
323.197	15.806	1100.694	821.187
324.212	15.865	1100.209	821.040
325.227	15.786	1099.715	820.216
326.241	15.803	1099.065	819.740
327.256	15.815	1097.993	818.923
328.270	15.727	1097.520	818.070
329.285	15.786	1096.248	817.339
330.300	15.733	1095.736	816.626
331.314	15.866	1094.507	816.282
332.329	15.953	1093.292	815.729
333.343	15.939	1092.411	814.929
334.358	16.114	1091.466	814.999
335.373	15.966	1091.119	813.950
336.387	15.941	1090.039	812.954
337.402	16.027	1089.327	812.764
338.416	15.997	1088.877	812.215
339.431	16.046	1088.288	811.938
340.446	16.207	1087.833	812.304
341.460	16.198	1087.025	811.583
342.475	16.197	1085.957	810.711
343.489	16.229	1085.010	810.086
344.504	16.253	1083.930	809.322
345.519	16.241	1083.466	808.844
346.533	16.263	1082.641	808.262
347.548	16.233	1082.162	807.690
348.562	16.202	1081.468	806.955
349.577	16.317	1080.528	806.730
350.592	16.297	1079.732	805.971
351.606	16.114	1079.036	804.506
352.621	16.326	1078.250	804.859
353.635	16.194	1077.803	803.823
354.650	16.159	1077.297	803.209
355.665	16.253	1076.675	803.124
356.679	16.334	1075.896	802.854
357.694	16.281	1075.390	802.154
358.708	16.463	1074.261	802.103
359.723	16.327	1073.965	801.169
360.738	16.378	1073.319	800.859
361.752	16.499	1072.794	800.967
362.767	16.386	1072.291	799.986
363.781	16.342	1071.755	799.306
364.796	16.530	1070.828	799.436
365.810	16.591	1070.707	799.560
366.825	16.540	1069.750	798.536
367.840	16.612	1069.219	798.410
368.854	16.612	1068.782	798.011
369.869	16.698	1067.991	797.753
370.883	16.628	1067.289	796.830
371.898	16.603	1066.620	796.143
372.913	16.622	1065.826	795.568
373.927	16.590	1065.423	795.048
374.942	16.659	1065.065	795.032
375.956	16.572	1064.511	794.143
376.971	16.716	1063.840	794.247
377.986	16.796	1063.135	794.023
379.000	16.653	1062.768	793.013
380.015	16.680	1062.364	792.767
381.029	16.797	1061.479	792.584
382.044	16.877	1060.669	792.280
383.059	16.734	1060.226	791.213
384.073	16.763	1059.198	790.509
385.088	16.743	1058.478	789.810
386.102	16.805	1057.408	789.231
387.117	16.915	1056.287	788.836
388.132	16.886	1055.145	787.778
389.146	16.897	1054.825	787.522
390.161	16.796	1054.062	786.410
391.175	16.824	1053.713	786.211
392.190	16.842	1052.732	785.495
393.205	17.019	1051.916	785.633
394.219	16.954	1051.054	784.623
395.234	17.010	1050.108	784.107
396.248	17.025	1048.855	783.170
397.263	16.900	1047.811	781.744
398.278	16.828	1047.721	781.276
399.292	16.900	1046.765	780.824
400.307	16.785	1046.342	779.913
401.321	16.905	1046.002	780.141
402.336	16.960	1045.228	779.749
403.350	16.859	1044.410	778.606
404.365	17.032	1043.903	778.953
405.380	17.065	1042.566	778.038
406.394	17.076	1042.313	777.829
407.409	17.095	1041.668	777.364
408.423	17.102	1040.626	776.550
409.438	17.167	1040.037	776.341
410.453	17.178	1039.304	775.774
411.467	17.214	1038.680	775.403
412.482	17.327	1037.778	775.176
413.496	17.165	1037.572	774.217
414.511	17.328	1037.008	774.470
415.526	17.336	1036.643	774.165
416.540	17.377	1035.986	773.791
417.555	17.405	1035.408	773.419
418.569	17.413	1034.646	772.818
419.584	17.416	1034.138	772.382
420.599	17.488	1033.770	772.367
421.613	107.186	1327.524	1483.461
422.628	98.203	1370.285	1483.540
