DTS Sentinel unit serial number:	SN413079Multiplexer serial number:	ORYXHardware model number:	OX4-SRSoftware version number:	ORYX F/W v4.00 Oryx Data Collector v3.7.2.0data status	okinstallation	princeton_trtdifferential loss correction	single-endedforward channel	channel 2reverse channel	N/Adate	2019/09/17time	20:07:34forward acquisition time	60.00reverse acquisition time	0.00gamma	496.2192k internal	0.2333k external	0.2333temperature offset calibration	0.9984default loss term (dB/km)	0.3790temperature slope calibration	1.0000multiplexer offset coefficient	1.0000multiplexer slope coefficient	1.0000fibre end	0.00T internal ref (°C)	32.58T ext. ref 1 (°C)	0.22T ext. ref 2 (°C)	22.58length (m)	temperature (°C)	Stokes	anti-Stokes-747.200	202.318	-0.036	-0.056
-746.185	-101.300	-0.421	0.103
-745.171	262.844	-0.055	0.097
-744.156	194.894	0.127	0.193
-743.142	24.124	0.212	-0.176
-742.127	34.818	-0.216	-0.190
-741.112	-113.694	-0.177	-0.035
-740.098	-78.433	0.179	-0.062
-739.083	502.409	0.093	-0.215
-738.069	-200.000	0.005	-0.124
-737.054	543.718	0.036	-0.085
-736.039	137.800	-0.106	-0.140
-735.025	121.877	-0.217	-0.272
-734.010	232.933	-0.197	0.325
-732.996	-101.243	0.145	0.036
-731.981	42.100	0.183	-0.167
-730.966	-143.465	-0.148	0.014
-729.952	18.323	-0.071	0.057
-728.937	-161.864	-0.082	-0.004
-727.923	-84.349	-0.324	-0.103
-726.908	-99.395	-0.495	-0.125
-725.894	272.990	-0.048	-0.085
-724.879	364.365	-0.064	0.129
-723.864	83.567	-0.196	0.215
-722.850	-52.537	0.026	-0.012
-721.835	130.292	-0.056	-0.072
-720.821	-34.164	-0.158	0.087
-719.806	-79.985	-0.122	-0.041
-718.791	800.000	-0.025	-0.072
-717.777	-84.187	-0.151	-0.048
-716.762	544.025	0.131	-0.314
-715.748	732.522	0.105	-0.283
-714.733	441.850	-0.090	-0.198
-713.718	-58.826	-0.271	0.118
-712.704	800.000	-0.059	-0.232
-711.689	32.134	0.132	0.114
-710.675	-125.363	-0.257	-0.039
-709.660	723.096	-0.105	-0.281
-708.645	30.800	0.276	-0.237
-707.631	-58.850	-0.307	0.133
-706.616	-135.083	-0.257	-0.031
-705.602	260.398	-0.124	0.216
-704.587	-200.000	-0.012	-0.186
-703.572	333.315	0.055	-0.107
-702.558	-142.904	0.314	-0.031
-701.543	-23.594	0.407	-0.245
-700.529	408.582	-0.054	-0.114
-699.514	-200.000	0.033	0.303
-698.499	-129.972	0.296	0.041
-697.485	-11.139	0.047	0.031
-696.470	-71.561	0.110	-0.041
-695.456	158.859	0.289	-0.403
-694.441	-97.935	-0.188	-0.049
-693.426	-40.949	0.105	0.054
-692.412	355.505	-0.146	-0.291
-691.397	-141.020	-0.146	-0.015
-690.383	156.119	0.126	-0.174
-689.368	413.102	0.078	-0.166
-688.354	158.106	-0.214	-0.298
-687.339	-200.000	-0.026	0.233
-686.324	-139.270	0.140	-0.015
-685.310	800.000	-0.029	-0.102
-684.295	132.874	-0.149	-0.193
-683.281	-72.706	-0.244	-0.090
-682.266	800.000	-0.113	-0.399
-681.251	113.805	0.146	-0.178
-680.237	-84.204	0.146	-0.046
-679.222	-84.125	-0.454	-0.144
-678.208	-200.000	-0.048	-0.227
-677.193	-81.321	0.255	0.084
-676.178	-120.301	-0.229	-0.039
-675.164	-0.815	0.556	0.395
-674.149	-200.000	-0.016	-0.159
-673.135	59.031	-0.185	0.182
-672.120	2.063	-0.314	0.227
-671.105	146.359	0.047	0.063
-670.091	139.783	-0.080	-0.106
-669.076	129.695	0.135	0.173
-668.062	-110.795	-0.066	0.014
-667.047	-187.180	0.085	0.001
-666.032	189.383	-0.106	-0.160
-665.018	-200.000	0.027	0.448
-664.003	299.286	-0.058	0.106
-662.989	41.839	-0.169	0.154
-661.974	-200.000	-0.009	-0.265
-660.959	14.735	-0.162	-0.127
-659.945	321.252	-0.043	-0.082
-658.930	373.967	-0.215	0.438
-657.916	-35.536	-0.258	0.140
-656.901	-200.000	-0.086	0.396
-655.886	-111.978	-0.097	-0.020
-654.872	78.104	0.109	0.117
-653.857	106.961	0.168	0.200
-652.843	800.000	0.036	0.140
-651.828	-57.069	-0.045	0.020
-650.814	-115.284	0.075	0.014
-649.799	-170.609	-0.125	-0.004
-648.784	-59.592	-0.379	-0.163
-647.770	-200.000	0.000	-0.100
-646.755	327.533	-0.063	-0.121
-645.741	-23.297	0.207	-0.125
-644.726	-94.281	-0.265	0.073
-643.711	800.000	0.096	-0.333
-642.697	53.242	0.124	-0.119
-641.682	-200.000	-0.002	-0.181
-640.668	100.474	-0.146	-0.170
-639.653	800.000	0.085	0.247
-638.638	-66.188	-0.380	0.152
-637.624	-104.920	-0.147	-0.034
-636.609	800.000	-0.070	-0.286
-635.595	80.929	0.177	0.191
-634.580	-112.785	-0.189	-0.038
-633.565	204.567	-0.085	-0.132
-632.551	675.505	0.070	-0.181
-631.536	-200.000	0.096	-0.525
-630.522	-93.395	-0.132	-0.037
-629.507	370.307	0.170	0.344
-628.492	44.715	-0.235	-0.216
-627.478	14.347	0.077	-0.060
-626.463	182.303	0.155	-0.228
-625.449	-46.778	0.193	0.095
-624.434	-200.000	0.003	-0.136
-623.419	-118.539	-0.126	-0.022
-622.405	-29.732	-0.153	0.088
-621.390	800.000	0.119	-0.374
-620.376	207.028	0.126	-0.197
-619.361	233.854	-0.108	-0.178
-618.346	-200.000	0.040	0.179
-617.332	-4.050	0.017	-0.012
-616.317	-56.898	-0.215	-0.095
-615.303	25.294	0.145	0.121
-614.288	57.867	-0.258	-0.252
-613.273	152.516	-0.193	0.264
-612.259	131.300	0.067	0.087
-611.244	384.568	-0.068	0.141
-610.230	-200.000	0.001	-0.125
-609.215	800.000	0.047	-0.155
-608.201	800.000	0.110	-0.311
-607.186	-87.695	0.069	-0.021
-606.171	-128.570	-0.165	-0.023
-605.157	348.082	0.026	-0.052
-604.142	-133.643	-0.148	0.019
-603.128	-175.287	-0.209	0.006
-602.113	-106.142	0.111	-0.025
-601.098	162.386	0.182	0.255
-600.084	383.080	-0.056	-0.116
-599.069	192.807	-0.096	-0.146
-598.055	200.614	-0.175	-0.268
-597.040	-34.412	-0.038	0.021
-596.025	339.162	-0.106	-0.207
-595.011	-200.000	-0.024	0.500
-593.996	129.423	-0.139	-0.177
-592.982	576.033	0.097	-0.236
-591.967	-200.000	0.000	-0.113
-590.952	-200.000	0.033	0.157
-589.938	-200.000	-0.004	0.219
-588.923	-47.993	0.203	0.098
-587.909	206.152	0.156	0.242
-586.894	485.823	-0.079	0.181
-585.879	49.345	-0.173	0.162
-584.865	800.000	-0.063	0.196
-583.850	-158.355	0.115	0.007
-582.836	-143.840	0.188	0.018
-581.821	-60.770	-0.112	-0.047
-580.806	-58.156	-0.137	0.060
-579.792	-120.370	-0.393	0.067
-578.777	-41.811	-0.106	0.054
-577.763	-72.234	-0.288	-0.107
-576.748	77.042	-0.167	0.178
-575.733	-200.000	-0.010	0.135
-574.719	-200.000	0.104	-0.474
-573.704	-200.000	-0.002	-0.065
-572.690	29.327	-0.157	0.133
-571.675	309.895	-0.076	-0.142
-570.661	-89.555	-0.314	0.092
-569.646	68.780	-0.191	-0.196
-568.631	-200.000	-0.002	0.128
-567.617	32.098	0.329	0.283
-566.602	800.000	0.087	-0.312
-565.588	-92.062	-0.397	0.112
-564.573	129.187	0.256	-0.326
-563.558	629.981	-0.048	0.121
-562.544	282.029	0.108	0.192
-561.529	800.000	0.040	-0.146
-560.515	-45.937	-0.111	-0.055
-559.500	-17.105	0.053	-0.034
-558.485	239.464	0.110	-0.183
-557.471	800.000	-0.089	-0.259
-556.456	481.740	0.073	-0.166
-555.442	157.721	-0.268	0.371
-554.427	-69.850	0.209	-0.080
-553.412	21.240	0.212	-0.172
-552.398	-54.419	-0.153	-0.069
-551.383	-82.585	-0.152	0.049
-550.369	-11.816	0.201	-0.132
-549.354	576.004	-0.096	0.235
-548.339	-200.000	-0.002	-0.109
-547.325	-154.791	0.443	-0.029
-546.310	216.978	0.213	-0.339
-545.296	-146.557	-0.138	0.012
-544.281	-98.301	-0.417	-0.107
-543.266	-19.680	0.234	0.144
-542.252	14.762	0.109	0.085
-541.237	-87.016	0.182	0.055
-540.223	-72.503	0.108	0.040
-539.208	-12.778	-0.130	0.085
-538.193	-88.024	-0.367	-0.110
-537.179	-82.550	0.188	-0.061
-536.164	-200.000	0.024	0.121
-535.150	-125.254	-0.295	-0.045
-534.135	-200.000	0.011	0.087
-533.121	-27.734	0.167	0.097
-532.106	-93.037	-0.153	0.043
-531.091	238.799	-0.068	-0.113
-530.077	-100.185	0.188	0.047
-529.062	800.000	-0.091	0.291
-528.048	338.687	0.096	-0.187
-527.033	800.000	-0.033	-0.123
-526.018	800.000	-0.046	-0.129
-525.004	-125.671	0.117	-0.018
-523.989	2.452	-0.058	-0.042
-522.975	63.454	-0.178	0.178
-521.960	93.533	0.210	-0.237
-520.945	14.176	-0.334	0.259
-519.931	11.048	-0.070	0.054
-518.916	212.340	-0.080	-0.125
-517.902	-105.732	-0.224	-0.050
-516.887	-95.144	0.257	-0.069
-515.872	-149.614	-0.530	-0.042
-514.858	29.926	0.066	-0.056
-513.843	56.562	0.104	0.101
-512.829	-200.000	0.006	0.113
-511.814	143.640	0.066	-0.087
-510.799	420.110	0.091	-0.194
-509.785	-31.040	0.105	-0.059
-508.770	272.569	-0.025	-0.044
-507.756	87.413	0.120	0.132
-506.741	-166.232	0.096	-0.004
-505.726	76.636	-0.150	0.158
-504.712	-200.000	0.037	0.191
-503.697	800.000	-0.165	-0.596
-502.683	-84.394	0.278	0.087
-501.668	-56.673	0.006	0.003
-500.653	-88.415	0.324	-0.096
-499.639	-9.059	-0.116	0.077
-498.624	800.000	0.059	0.202
-497.610	-65.034	0.133	0.053
-496.595	-200.000	0.018	-0.264
-495.581	800.000	-0.050	0.172
-494.566	93.500	0.066	0.075
-493.551	56.360	-0.167	-0.162
-492.537	105.838	0.189	0.223
-491.522	-85.994	-0.062	-0.019
-490.508	-200.000	-0.004	-0.223
-489.493	-113.583	-0.176	0.034
-488.478	-200.000	-0.032	-0.266
-487.464	-14.719	-0.244	-0.156
-486.449	-160.356	-0.183	-0.010
-485.435	800.000	-0.063	-0.177
-484.420	800.000	-0.018	0.050
-483.405	120.141	-0.127	0.157
-482.391	-200.000	-0.002	-0.180
-481.376	-166.018	-0.076	0.003
-480.362	-183.392	-0.181	-0.003
-479.347	-184.240	0.214	0.004
-478.332	-130.734	0.176	-0.024
-477.318	248.886	0.152	-0.256
-476.303	-35.840	0.176	0.095
-475.289	800.000	0.024	0.076
-474.274	-200.000	0.099	-0.469
-473.259	555.377	0.029	-0.070
-472.245	800.000	0.106	0.304
-471.230	49.121	0.201	0.188
-470.216	-149.012	-0.318	0.025
-469.201	-93.333	0.457	-0.126
-468.186	-200.000	-0.048	0.329
-467.172	-200.000	0.003	0.034
-466.157	800.000	-0.024	-0.092
-465.143	554.421	-0.031	0.073
-464.128	-33.236	-0.192	-0.106
-463.113	-200.000	0.000	-0.113
-462.099	490.100	-0.125	-0.285
-461.084	23.387	0.134	-0.109
-460.070	-95.672	0.180	-0.048
-459.055	-200.000	0.060	0.262
-458.040	29.295	-0.090	-0.076
-457.026	-98.778	-0.135	0.034
-456.011	115.838	-0.195	-0.237
-454.997	-80.059	-0.238	0.079
-453.982	10.485	-0.121	0.092
-452.968	8.641	0.256	-0.192
-451.953	159.106	-0.113	-0.156
-450.938	309.721	-0.068	0.127
-449.924	20.393	-0.256	0.206
-448.909	-97.244	0.246	-0.064
-447.895	-38.358	0.382	0.201
-446.880	242.374	0.282	0.470
-445.865	-200.000	-0.011	0.102
-444.851	-4.100	-0.101	0.070
-443.836	-200.000	0.012	-0.331
-442.822	351.283	-0.068	-0.134
-441.807	411.530	-0.105	0.221
-440.792	-200.000	-0.015	0.103
-439.778	-185.468	-0.165	0.002
-438.763	800.000	-0.074	0.283
-437.749	376.758	0.050	0.101
-436.734	800.000	0.101	0.280
-435.719	-200.000	-0.010	-0.177
-434.705	760.240	-0.024	0.066
-433.690	117.056	-0.121	0.147
-432.676	17.906	0.235	0.186
-431.661	152.535	0.139	0.188
-430.646	-200.000	0.010	0.335
-429.632	-63.117	0.098	-0.040
-428.617	-79.779	-0.203	-0.068
-427.603	17.467	0.122	0.096
-426.588	262.222	0.184	-0.316
-425.573	-200.000	0.036	-0.218
-424.559	-190.924	0.047	-0.000
-423.544	343.608	-0.107	0.207
-422.530	800.000	-0.071	-0.195
-421.515	62.294	-0.312	0.309
-420.500	-200.000	-0.032	-0.158
-419.486	-115.740	0.207	-0.039
-418.471	195.502	0.050	-0.076
-417.457	30.563	0.020	-0.017
-416.442	25.570	-0.136	-0.112
-415.428	-92.688	0.313	0.087
-414.413	-43.515	0.092	-0.046
-413.398	72.003	0.030	0.031
-412.384	-192.289	-0.248	0.002
-411.369	-29.137	-0.193	0.110
-410.355	-200.000	-0.073	0.442
-409.340	-57.437	0.328	0.143
-408.325	-30.158	0.072	0.041
-407.311	68.926	0.294	-0.299
-406.296	-21.006	0.252	-0.153
-405.282	70.974	0.078	0.080
-404.267	-200.000	0.001	-0.317
-403.252	111.551	-0.073	0.087
-402.238	492.633	-0.028	0.063
-401.223	193.448	0.104	-0.156
-400.209	109.252	-0.085	0.101
-399.194	-98.754	-0.155	-0.039
-398.179	-84.074	0.084	0.026
-397.165	-168.714	0.261	-0.010
-396.150	800.000	0.093	0.283
-395.136	800.000	0.119	0.350
-394.121	39.702	0.160	-0.142
-393.106	-101.054	0.165	0.040
-392.092	800.000	-0.068	-0.187
-391.077	13.817	0.106	0.082
-390.063	-200.000	0.031	0.142
-389.048	-98.114	0.308	-0.079
-388.033	-80.369	-0.197	0.065
-387.019	-78.140	-0.177	-0.060
-386.004	550.655	-0.119	-0.282
-384.990	800.000	-0.109	-0.352
-383.975	-200.000	-0.014	-0.074
-382.960	-71.208	0.146	0.054
-381.946	-200.000	-0.056	0.282
-380.931	133.599	0.341	0.437
-379.917	-72.707	-0.479	0.175
-378.902	4.228	-0.189	-0.137
-377.888	-200.000	0.057	0.495
-376.873	212.628	-0.033	-0.052
-375.858	395.872	-0.052	0.109
-374.844	-154.361	0.093	0.006
-373.829	-187.973	-0.414	0.005
-372.815	527.963	-0.086	-0.200
-371.800	22.093	-0.028	-0.023
-370.785	39.267	-0.060	-0.053
-369.771	-200.000	-0.010	-0.150
-368.756	-27.825	-0.041	-0.024
-367.742	-135.282	-0.147	0.017
-366.727	-27.913	0.128	-0.073
-365.712	-91.878	-0.425	-0.119
-364.698	324.207	0.091	0.171
-363.683	-75.498	0.365	-0.129
-362.669	226.054	-0.044	0.071
-361.654	-109.827	0.206	-0.043
-360.639	-131.840	0.492	0.064
-359.625	478.935	-0.068	0.153
-358.610	-2.619	0.230	-0.159
-357.596	-200.000	-0.003	-0.354
-356.581	-83.706	0.303	0.096
-355.566	-200.000	-0.016	-0.273
-354.552	40.284	0.038	0.034
-353.537	-92.375	0.117	-0.033
-352.523	-53.053	-0.178	-0.081
-351.508	-25.332	0.082	-0.048
-350.493	-200.000	-0.007	-0.222
-349.479	-16.829	-0.283	0.177
-348.464	-143.291	-0.093	0.009
-347.450	-200.000	-0.024	-0.176
-346.435	-57.398	-0.105	0.046
-345.420	575.012	-0.006	0.014
-344.406	-68.759	-0.247	0.095
-343.391	-47.388	0.252	0.121
-342.377	-200.000	-0.014	0.124
-341.362	-76.509	0.244	0.085
-340.348	-200.000	0.017	-0.086
-339.333	116.345	0.197	-0.238
-338.318	-85.881	-0.377	-0.116
-337.304	74.538	0.200	0.208
-336.289	800.000	-0.059	0.190
-335.275	80.795	-0.132	-0.140
-334.260	127.612	-0.109	0.136
-333.245	63.976	-0.232	0.231
-332.231	-67.421	-0.126	0.049
-331.216	22.709	-0.200	-0.162
-330.202	-50.577	-0.227	0.106
-329.187	236.108	-0.204	0.333
-328.172	45.244	0.230	0.210
-327.158	-73.488	0.221	0.080
-326.143	800.000	0.102	-0.312
-325.129	-16.921	-0.168	0.105
-324.114	70.920	0.061	-0.062
-323.099	29.242	-0.195	-0.164
-322.085	-200.000	-0.084	0.398
-321.070	-200.000	0.048	0.273
-320.056	-21.200	-0.265	0.160
-319.041	-106.379	-0.260	-0.057
-318.026	67.891	0.327	0.331
-317.012	-90.018	0.189	0.055
-315.997	500.388	0.079	-0.179
-314.983	109.835	0.118	-0.140
-313.968	2.537	0.120	0.086
-312.953	-20.271	-0.282	0.172
-311.939	-52.928	-0.185	0.084
-310.924	695.285	0.039	0.102
-309.910	-67.221	-0.067	0.026
-308.895	408.678	-0.044	0.092
-307.880	-200.000	0.016	-0.069
-306.866	532.743	0.109	0.255
-305.851	-70.833	-0.099	-0.037
-304.837	128.103	-0.142	0.179
-303.822	411.833	-0.082	0.171
-302.807	-77.644	0.133	-0.045
-301.793	-200.000	-0.005	0.347
-300.778	608.836	-0.056	-0.139
-299.764	223.378	-0.165	-0.263
-298.749	-154.825	0.200	-0.013
-297.735	-131.808	0.105	0.014
-296.720	-46.371	0.298	-0.144
-295.705	-47.026	0.079	-0.038
-294.691	86.114	-0.167	0.182
-293.676	800.000	-0.060	-0.192
-292.662	112.863	-0.205	0.245
-291.647	-103.795	0.240	-0.055
-290.632	-200.000	0.035	-0.337
-289.618	-173.301	-0.173	-0.005
-288.603	242.514	-0.162	-0.267
-287.589	800.000	-0.032	0.102
-286.574	-200.000	-0.017	-0.076
-285.559	-44.033	-0.221	-0.110
-284.545	759.566	0.064	-0.172
-283.530	252.459	0.062	-0.105
-282.516	592.584	-0.087	0.212
-281.501	529.574	0.066	0.155
-280.486	396.223	0.105	0.216
-279.472	800.000	-0.049	-0.145
-278.457	382.204	0.094	0.192
-277.443	-111.929	0.227	0.045
-276.428	800.000	-0.048	0.176
-275.413	-148.881	0.313	-0.025
-274.399	130.895	0.078	-0.099
-273.384	-91.739	-0.144	0.040
-272.370	-23.309	0.083	-0.049
-271.355	104.216	0.061	0.071
-270.340	800.000	-0.025	-0.097
-269.326	-71.237	-0.049	-0.018
-268.311	-35.770	0.104	-0.055
-267.297	800.000	-0.058	0.232
-266.282	-200.000	-0.018	-0.232
-265.267	-141.382	0.271	-0.027
-264.253	211.290	-0.169	-0.262
-263.238	283.015	0.048	-0.085
-262.224	-22.566	0.338	-0.201
-261.209	10.354	-0.383	-0.288
-260.195	133.152	-0.097	-0.124
-259.180	-73.160	0.435	-0.157
-258.165	-56.761	-0.316	-0.138
-257.151	-200.000	0.002	0.049
-256.136	-18.274	0.111	-0.068
-255.122	173.249	-0.067	0.096
-254.107	756.208	0.129	-0.343
-253.092	-3.964	-0.153	-0.105
-252.078	93.222	-0.088	-0.098
-251.063	-74.755	-0.318	0.113
-250.049	-179.530	-0.222	-0.005
-249.034	-200.000	-0.009	0.040
-248.019	65.807	0.248	-0.248
-247.005	-52.948	0.169	0.077
-245.990	109.267	-0.280	0.330
-244.976	-200.000	-0.002	0.042
-243.961	676.395	0.043	0.109
-242.946	-159.296	0.126	0.007
-241.932	800.000	0.040	0.129
-240.917	17.202	0.159	0.124
-239.903	-19.435	-0.190	0.116
-238.888	137.221	0.078	-0.101
-237.873	800.000	-0.009	-0.033
-236.859	224.407	-0.069	-0.110
-235.844	-200.000	0.026	0.155
-234.830	-12.864	0.468	-0.300
-233.815	-103.976	0.311	0.072
-232.800	137.462	0.168	0.217
-231.786	800.000	-0.044	0.125
-230.771	-95.926	0.246	-0.065
-229.757	3.259	-0.407	-0.292
-228.742	-200.000	0.016	0.455
-227.727	356.232	0.099	-0.195
-226.713	-200.000	0.016	-0.170
-225.698	-200.000	-0.053	0.457
-224.684	133.864	-0.172	0.219
-223.669	800.000	0.159	0.458
-222.655	133.783	0.121	-0.155
-221.640	99.139	0.068	-0.077
-220.625	-194.716	0.138	-0.001
-219.611	-200.000	0.055	-0.347
-218.596	-200.000	-0.089	-0.546
-217.582	-197.905	0.244	0.001
-216.567	-200.000	-0.050	0.312
-215.552	-127.204	-0.300	0.043
-214.538	-7.793	0.356	0.237
-213.523	305.892	-0.091	-0.166
-212.509	21.862	0.276	-0.222
-211.494	-61.376	0.303	0.126
-210.479	-139.961	0.259	0.027
-209.465	98.017	0.212	0.240
-208.450	34.171	-0.269	0.231
-207.436	161.145	-0.281	0.387
-206.421	94.785	0.260	0.291
-205.406	602.345	-0.144	0.352
-204.392	9.163	0.166	-0.123
-203.377	426.965	0.096	0.203
-202.363	-151.069	-0.074	-0.006
-201.348	232.214	-0.132	0.214
-200.333	-120.484	0.043	-0.007
-199.319	34.918	0.260	-0.224
-198.304	6.331	-0.108	-0.079
-197.290	-200.000	-0.004	-0.166
-196.275	-48.361	0.298	-0.141
-195.260	-44.245	0.277	-0.136
-194.246	163.290	-0.202	0.279
-193.231	51.295	0.039	0.037
-192.217	-104.989	-0.193	0.043
-191.202	800.000	0.046	0.147
-190.187	800.000	0.095	0.271
-189.173	215.578	0.144	0.225
-188.158	800.000	-0.066	0.203
-187.144	74.219	0.296	-0.306
-186.129	-162.521	0.128	0.006
-185.114	-200.000	-0.012	-0.152
-184.100	-128.707	0.200	-0.028
-183.085	-19.004	-0.215	0.131
-182.071	-159.808	-0.039	-0.002
-181.056	-114.776	-0.224	-0.042
-180.042	-13.982	-0.076	0.048
-179.027	-37.100	0.160	-0.084
-178.012	-169.518	0.046	-0.002
-176.998	434.557	0.056	-0.120
-175.983	-192.426	-0.212	-0.002
-174.969	22.181	0.198	-0.159
-173.954	-200.000	0.007	-0.146
-172.939	-92.792	0.078	0.021
-171.925	4.228	-0.181	0.130
-170.910	433.577	-0.038	0.080
-169.896	164.168	0.136	-0.188
-168.881	-41.246	0.164	0.083
-167.866	-16.143	-0.367	-0.229
-166.852	-94.120	-0.254	0.068
-165.837	30.851	-0.144	0.121
-164.823	139.527	0.065	0.084
-163.808	800.000	-0.077	0.320
-162.793	-100.411	-0.205	0.050
-161.779	-200.000	0.009	0.239
-160.764	-26.949	0.147	0.084
-159.750	800.000	-0.048	-0.201
-158.735	-89.565	-0.207	-0.060
-157.720	-150.111	0.218	-0.017
-156.706	118.178	-0.093	0.113
-155.691	-131.389	0.362	0.047
-154.677	800.000	-0.032	-0.116
-153.662	37.354	-0.056	-0.049
-152.647	-131.386	0.176	-0.023
-151.633	300.515	-0.182	-0.330
-150.618	8.186	0.081	0.059
-149.604	-73.977	-0.049	0.017
-148.589	-4.643	-0.418	-0.284
-147.574	800.000	0.097	0.266
-146.560	-200.000	0.023	-0.180
-145.545	-17.619	-0.193	-0.119
-144.531	-79.732	0.217	0.072
-143.516	58.050	0.085	-0.082
-142.502	156.474	-0.044	-0.059
-141.487	154.603	-0.276	0.372
-140.472	-200.000	0.019	0.357
-139.458	-119.320	-0.310	0.053
-138.443	51.787	-0.270	-0.252
-137.429	-124.579	-0.130	0.020
-136.414	-86.729	-0.121	0.036
-135.399	-117.685	-0.130	0.023
-134.385	800.000	0.043	0.167
-133.370	32.243	-0.042	-0.036
-132.356	-10.959	0.137	-0.089
-131.341	487.466	0.079	-0.177
-130.326	800.000	-0.008	0.036
-129.312	410.829	-0.100	-0.209
-128.297	-200.000	0.004	-0.335
-127.283	-17.487	0.163	0.101
-126.268	285.378	-0.033	0.058
-125.253	-14.702	-0.077	0.048
-124.239	-96.462	0.123	0.032
-123.224	-118.603	0.335	-0.058
-122.210	598.191	0.039	0.095
-121.195	-200.000	0.049	0.516
-120.180	-200.000	0.031	0.151
-119.166	-52.488	0.022	0.010
-118.151	-61.271	-0.304	-0.125
-117.137	-200.000	-0.021	-0.149
-116.122	-100.938	0.284	0.068
-115.107	800.000	-0.018	-0.057
-114.093	44.464	0.145	0.130
-113.078	-152.341	-0.031	0.002
-112.064	5.036	0.292	-0.211
-111.049	-184.419	-0.140	-0.002
-110.034	-103.202	-0.308	0.071
-109.020	733.781	-0.089	-0.233
-108.005	-63.735	-0.207	0.083
-106.991	-200.000	0.030	-0.181
-105.976	-57.135	-0.140	0.060
-104.962	-200.000	0.067	0.315
-103.947	-90.616	0.518	-0.147
-102.932	-66.669	0.225	-0.088
-101.918	251.435	0.100	0.168
-100.903	42.879	-0.146	-0.130
-99.889	19.435	0.317	-0.250
-98.874	800.000	0.039	0.143
-97.859	-124.018	0.120	-0.018
-96.845	5.877	0.301	0.218
-95.830	-93.328	-0.042	0.012
-94.816	-150.842	-0.216	-0.016
-93.801	63.671	-0.099	-0.097
-92.786	-28.982	-0.350	0.197
-91.772	94.615	0.227	0.253
-90.757	42.547	-0.239	-0.213
-89.743	-99.029	-0.208	0.052
-88.728	-63.960	0.194	-0.078
-87.713	300.867	-0.062	-0.111
-86.699	9.824	0.139	-0.104
-85.684	800.000	-0.076	-0.308
-84.670	-59.908	-0.340	-0.142
-83.655	-200.000	0.053	-0.303
-82.640	83.060	0.162	-0.173
-81.626	264.951	-0.045	-0.077
-80.611	-27.928	-0.123	-0.070
-79.597	-71.295	0.220	0.081
-78.582	800.000	0.077	0.229
-77.567	-129.686	0.147	0.020
-76.553	83.530	0.085	0.091
-75.538	-42.857	-0.101	0.050
-74.524	-53.998	-0.385	0.172
-73.509	800.000	0.101	0.310
-72.494	11.428	0.289	0.217
-71.480	800.000	0.035	0.114
-70.465	-150.526	0.190	-0.014
-69.451	110.298	0.137	0.161
-68.436	-27.308	-0.221	0.126
-67.422	-124.034	0.197	0.030
-66.407	-86.875	-0.041	-0.012
-65.392	81.265	0.277	-0.294
-64.378	-149.344	0.191	-0.015
-63.363	800.000	0.094	-0.310
-62.349	139.711	0.196	0.253
-61.334	31.618	-1.352	-1.138
-60.319	2.453	0.530	0.376
-59.305	800.000	-0.304	-1.042
-58.290	264.973	0.591	1.008
-57.276	236.527	0.915	1.483
-56.261	-200.000	97.529	570.264
-55.246	506.218	1408.270	3194.796
-54.232	157.799	2588.860	3509.862
-53.217	105.091	2270.783	2622.133
-52.203	41.633	1897.004	1681.399
-51.188	35.826	1689.375	1453.595
-50.173	33.155	1646.215	1396.711
-49.159	50.406	1694.662	1567.462
-48.144	52.249	1710.808	1596.134
-47.130	35.420	1671.511	1434.967
-46.115	32.735	1657.702	1403.108
-45.100	32.534	1653.029	1397.601
-44.086	32.592	1649.703	1395.163
-43.071	32.558	1647.241	1392.778
-42.057	32.442	1645.661	1390.530
-41.042	32.428	1643.669	1388.689
-40.027	32.536	1641.403	1387.515
-39.013	32.371	1639.859	1384.937
-37.998	32.379	1638.505	1383.801
-36.984	32.463	1636.670	1382.812
-35.969	32.639	1634.625	1382.324
-34.954	32.495	1633.780	1380.494
-33.940	32.555	1631.953	1379.334
-32.925	32.569	1629.972	1377.706
-31.911	32.612	1628.457	1376.685
-30.896	32.551	1626.393	1374.444
-29.881	32.502	1625.434	1373.223
-28.867	32.679	1622.919	1372.330
-27.852	32.510	1622.267	1370.494
-26.838	32.598	1620.202	1369.339
-25.823	32.543	1618.978	1367.850
-24.809	32.544	1617.838	1366.838
-23.794	32.596	1616.673	1366.174
-22.779	32.652	1614.786	1364.930
-21.765	32.602	1613.453	1363.389
-20.750	32.524	1611.841	1361.412
-19.736	32.572	1610.814	1360.834
-18.721	32.674	1608.943	1359.937
-17.706	32.581	1607.317	1357.835
-16.692	32.557	1606.038	1356.529
-15.677	32.537	1605.013	1355.466
-14.663	32.642	1603.485	1354.875
-13.648	32.638	1602.237	1353.739
-12.633	32.720	1600.315	1352.650
-11.619	32.541	1599.010	1350.208
-10.604	32.731	1597.094	1349.902
-9.590	32.779	1595.642	1348.962
-8.575	32.632	1594.869	1347.201
-7.560	32.673	1593.890	1346.618
-6.546	32.629	1592.594	1345.154
-5.531	32.617	1591.522	1344.108
-4.517	32.643	1590.490	1343.374
-3.502	32.533	1589.892	1342.032
-2.487	32.664	1587.401	1340.802
-1.473	31.753	1574.761	1323.641
-0.458	27.500	1552.007	1274.778
0.556	20.590	1549.228	1227.831
1.571	17.330	1569.578	1220.489
2.586	16.396	1581.909	1223.206
3.600	14.856	1530.256	1172.371
4.615	8.460	1425.206	1049.896
5.629	1.735	1361.839	960.802
6.644	0.362	1353.541	946.245
7.659	0.200	1352.617	944.505
8.673	0.170	1351.676	943.574
9.688	0.148	1349.512	941.843
10.702	-0.014	1346.778	938.842
11.717	3.094	1351.192	961.279
12.731	10.657	1362.448	1016.724
13.746	16.102	1370.479	1056.845
14.761	17.032	1370.772	1062.809
15.775	16.337	1368.220	1056.391
16.790	15.309	1365.458	1047.740
17.804	14.512	1363.514	1041.183
18.819	14.138	1362.069	1037.654
19.834	13.857	1360.587	1034.681
20.848	13.648	1359.600	1032.538
21.863	13.396	1358.572	1030.099
22.877	13.278	1356.898	1028.004
23.892	13.144	1356.071	1026.454
24.907	13.096	1355.632	1025.735
25.921	13.028	1355.171	1024.874
26.936	13.188	1353.760	1024.706
27.950	13.224	1352.524	1023.905
28.965	13.313	1351.798	1023.817
29.980	13.374	1351.076	1023.556
30.994	13.382	1349.950	1022.663
32.009	13.403	1348.982	1021.965
33.023	13.334	1348.205	1020.863
34.038	13.331	1347.022	1019.859
35.053	13.347	1345.595	1018.783
36.067	13.342	1344.916	1018.148
37.082	13.308	1343.841	1017.034
38.096	13.325	1342.927	1016.360
39.111	13.327	1341.953	1015.545
40.126	13.407	1341.040	1015.254
41.140	13.140	1340.599	1013.191
42.155	13.160	1339.937	1012.727
43.169	13.151	1339.615	1012.340
44.184	13.052	1339.498	1011.554
45.199	13.203	1338.766	1011.836
46.213	13.236	1338.221	1011.537
47.228	13.273	1337.436	1011.079
48.242	13.269	1336.167	1010.006
49.257	13.269	1335.121	1009.126
50.271	13.256	1333.218	1007.519
51.286	13.311	1332.369	1007.126
52.301	13.361	1330.782	1006.141
53.315	13.212	1329.811	1004.407
54.330	13.186	1328.898	1003.473
55.344	13.284	1327.616	1003.011
56.359	13.177	1327.052	1001.850
57.374	13.172	1326.102	1001.014
58.388	13.150	1325.477	1000.316
59.403	13.147	1324.948	999.811
60.417	13.144	1323.978	998.972
61.432	13.057	1323.365	997.894
62.447	13.106	1322.159	997.196
63.461	13.046	1321.029	995.894
64.476	13.118	1319.874	995.368
65.490	13.108	1318.382	994.095
66.505	13.077	1317.258	992.971
67.520	13.193	1315.317	992.119
68.534	13.117	1314.519	990.972
69.549	13.122	1313.458	990.114
70.563	13.177	1312.451	989.600
71.578	13.080	1311.650	988.323
72.593	13.127	1310.713	987.814
73.607	13.093	1309.955	986.950
74.622	12.992	1309.295	985.766
75.636	13.051	1308.480	985.416
76.651	13.085	1307.355	984.680
77.666	12.963	1307.228	983.773
78.680	13.081	1306.449	983.800
79.695	13.078	1305.437	982.938
80.709	13.108	1304.711	982.483
81.724	13.057	1304.150	981.670
82.739	13.253	1302.905	981.806
83.753	13.187	1302.122	980.739
84.768	13.355	1300.634	980.526
85.782	13.347	1300.359	980.185
86.797	13.280	1298.731	978.478
87.812	13.230	1297.415	977.102
88.826	13.129	1296.939	976.063
89.841	13.282	1295.383	975.707
90.855	13.305	1294.443	975.048
91.870	13.298	1293.821	974.454
92.884	13.265	1292.829	973.423
93.899	13.303	1291.658	972.681
94.914	13.417	1291.180	972.903
95.928	13.364	1290.330	971.868
96.943	13.361	1289.134	970.858
97.957	13.337	1288.247	969.965
98.972	13.337	1287.304	969.173
99.987	13.380	1285.933	968.304
101.001	13.363	1284.994	967.415
102.016	13.292	1284.146	966.274
103.030	13.314	1283.536	965.860
104.045	13.341	1282.610	965.235
105.060	13.137	1281.612	963.206
106.074	13.184	1279.986	962.171
107.089	13.254	1278.590	961.447
108.103	13.197	1277.452	960.172
109.118	13.110	1276.440	958.825
110.133	13.112	1275.061	957.716
111.147	13.169	1274.084	957.227
112.162	13.281	1272.217	956.384
113.176	13.258	1271.227	955.423
114.191	13.232	1270.513	954.653
115.206	13.275	1269.643	954.163
116.220	13.221	1268.118	952.624
117.235	13.322	1266.853	952.168
118.249	13.255	1266.047	951.090
119.264	13.264	1264.811	950.133
120.279	13.204	1264.436	949.424
121.293	13.169	1263.056	948.103
122.308	13.184	1262.363	947.581
123.322	13.059	1261.693	946.282
124.337	13.085	1260.195	945.219
125.352	13.136	1258.989	944.525
126.366	13.224	1257.790	944.047
127.381	13.164	1257.059	943.071
128.395	13.206	1256.281	942.644
129.410	13.301	1254.936	942.089
130.424	13.258	1254.271	941.265
131.439	13.319	1252.795	940.418
132.454	13.276	1252.215	939.657
133.468	13.223	1251.661	938.858
134.483	13.270	1250.657	938.287
135.497	13.236	1249.981	937.501
136.512	13.382	1247.842	936.641
137.527	13.326	1246.815	935.471
138.541	13.227	1245.880	934.127
139.556	13.238	1244.748	933.258
140.570	13.255	1243.651	932.451
141.585	13.334	1242.469	931.928
142.600	13.367	1241.372	931.210
143.614	13.293	1240.371	929.960
144.629	13.408	1239.044	929.526
145.643	13.461	1237.645	928.695
146.658	13.370	1237.003	927.621
147.673	13.363	1235.131	926.094
148.687	13.303	1234.348	925.090
149.702	13.338	1233.256	924.383
150.716	13.295	1231.915	923.060
151.731	13.298	1230.462	921.905
152.746	13.328	1229.097	920.965
153.760	13.296	1228.469	920.236
154.775	13.480	1226.961	920.048
155.789	13.426	1225.871	918.847
156.804	13.483	1224.782	918.267
157.819	13.425	1224.249	917.462
158.833	13.528	1222.724	916.809
159.848	13.568	1222.302	916.637
160.862	13.481	1221.316	915.333
161.877	13.592	1219.750	914.690
162.892	13.428	1218.898	913.066
163.906	13.487	1217.915	912.574
164.921	13.461	1216.857	911.558
165.935	13.435	1216.187	910.833
166.950	13.524	1215.312	910.585
167.964	13.440	1214.965	909.787
168.979	13.403	1214.685	909.290
169.994	13.562	1213.000	908.820
171.008	13.609	1212.175	908.379
172.023	13.647	1211.512	908.013
173.037	13.652	1210.854	907.463
174.052	13.659	1209.889	906.701
175.067	13.611	1208.735	905.491
176.081	13.617	1207.299	904.371
177.096	13.515	1207.193	903.652
178.110	13.585	1205.871	902.966
179.125	13.563	1204.808	901.970
180.140	13.595	1203.202	900.864
181.154	13.700	1201.802	900.306
182.169	13.626	1201.251	899.412
183.183	13.683	1200.024	898.721
184.198	13.855	1198.196	898.204
185.213	13.658	1197.616	896.624
186.227	13.776	1196.561	896.389
187.242	13.716	1195.698	895.344
188.256	13.766	1194.591	894.703
189.271	13.835	1193.524	894.197
190.286	13.732	1192.575	892.855
191.300	13.590	1191.992	891.575
192.315	13.595	1191.382	891.062
193.329	13.667	1190.812	890.949
194.344	13.641	1190.074	890.176
195.359	13.788	1189.417	890.393
196.373	13.843	1188.883	890.209
197.388	13.772	1188.595	889.538
198.402	13.977	1187.748	889.920
199.417	13.893	1187.398	889.132
200.432	13.976	1186.287	888.664
201.446	13.964	1185.577	887.987
202.461	14.048	1184.470	887.533
203.475	14.043	1183.628	886.793
204.490	14.066	1182.568	886.046
205.504	13.954	1181.198	884.344
206.519	13.975	1180.379	883.766
207.534	14.043	1178.863	882.912
208.548	13.950	1178.180	881.826
209.563	14.141	1177.149	881.991
210.577	14.085	1176.343	881.012
211.592	14.172	1175.295	880.611
212.607	14.100	1174.915	879.868
213.621	14.152	1173.762	879.203
214.636	14.173	1173.237	878.841
215.650	14.095	1172.491	877.789
216.665	14.221	1171.130	877.360
217.680	14.242	1170.456	876.889
218.694	14.223	1169.722	876.160
219.709	14.174	1168.919	875.224
220.723	14.234	1168.286	874.986
221.738	14.234	1167.452	874.284
222.753	14.227	1166.682	873.597
223.767	14.282	1166.094	873.368
224.782	14.347	1165.490	873.178
225.796	14.377	1164.667	872.642
226.811	14.290	1164.022	871.627
227.826	14.296	1163.454	871.153
228.840	14.363	1162.528	870.732
229.855	14.358	1161.888	870.152
230.869	14.383	1161.052	869.578
231.884	14.331	1160.656	868.932
232.899	14.326	1159.602	868.042
233.913	14.386	1158.725	867.622
234.928	14.374	1158.454	867.277
235.942	14.352	1157.651	866.487
236.957	14.299	1157.054	865.688
237.972	14.284	1155.913	864.678
238.986	14.383	1155.067	864.483
240.001	14.381	1154.259	863.789
241.015	14.358	1153.712	863.187
242.030	14.470	1153.016	863.170
243.045	14.504	1151.968	862.484
244.059	14.501	1151.273	861.872
245.074	14.485	1150.461	861.106
246.088	14.465	1150.007	860.585
247.103	14.551	1149.245	860.381
248.117	14.456	1148.585	859.322
249.132	14.678	1147.542	859.611
250.147	14.706	1146.929	859.216
251.161	14.756	1146.056	858.744
252.176	14.779	1145.490	858.364
253.190	14.801	1144.824	857.900
254.205	14.747	1144.589	857.373
255.220	14.894	1143.538	857.261
256.234	14.777	1143.155	856.301
257.249	14.846	1142.315	855.947
258.263	14.857	1141.749	855.505
259.278	14.988	1141.059	855.581
260.293	14.921	1140.713	854.907
261.307	14.944	1139.826	854.280
262.322	14.933	1139.241	853.709
263.336	14.915	1138.847	853.250
264.351	14.946	1137.883	852.610
265.366	15.072	1137.564	852.939
266.380	14.985	1136.522	851.636
267.395	14.994	1135.849	851.104
268.409	14.967	1135.071	850.309
269.424	14.963	1134.673	849.916
270.439	15.116	1134.202	850.263
271.453	15.021	1133.634	849.279
272.468	15.007	1132.090	847.979
273.482	15.052	1131.449	847.649
274.497	15.056	1130.989	847.250
275.512	15.149	1130.161	847.027
276.526	15.094	1129.586	846.241
277.541	15.156	1128.843	845.921
278.555	15.049	1128.195	844.821
279.570	15.106	1127.710	844.671
280.585	15.176	1126.601	844.119
281.599	15.124	1125.790	843.178
282.614	15.195	1125.022	842.884
283.628	15.174	1124.039	841.965
284.643	15.219	1122.908	841.270
285.657	15.236	1121.896	840.524
286.672	15.225	1121.105	839.802
287.687	15.281	1120.133	839.277
288.701	15.273	1119.525	838.709
289.716	15.237	1118.759	837.883
290.730	15.214	1117.769	836.950
291.745	15.445	1117.427	837.774
292.760	15.369	1117.252	837.188
293.774	15.383	1116.061	836.295
294.789	15.325	1116.319	836.123
295.803	15.413	1115.004	835.501
296.818	15.463	1114.202	835.077
297.833	15.383	1113.760	834.275
298.847	15.436	1112.517	833.532
299.862	15.476	1111.524	832.912
300.876	15.375	1111.329	832.193
301.891	15.405	1110.477	831.630
302.906	15.569	1109.745	831.818
303.920	15.425	1109.580	830.908
304.935	15.624	1108.782	831.223
305.949	15.618	1108.153	830.645
306.964	15.650	1107.191	830.013
307.979	15.645	1106.240	829.197
308.993	15.743	1105.456	829.019
310.008	15.756	1105.071	828.724
311.022	15.705	1104.289	827.815
312.037	15.707	1103.198	826.933
313.052	15.727	1102.485	826.422
314.066	15.690	1101.948	825.764
315.081	15.650	1100.790	824.626
316.095	15.655	1100.223	824.155
317.110	15.667	1099.672	823.729
318.125	15.733	1098.354	822.990
319.139	15.651	1098.185	822.391
320.154	15.657	1097.604	821.911
321.168	15.606	1097.367	821.410
322.183	15.805	1096.171	821.413
323.197	15.695	1095.724	820.471
324.212	15.604	1095.314	819.645
325.227	15.687	1095.070	819.798
326.241	15.801	1093.798	819.326
327.256	15.809	1092.809	818.553
328.270	15.810	1092.037	817.905
329.285	15.811	1091.387	817.353
330.300	15.777	1090.358	816.345
331.314	15.789	1089.573	815.742
332.329	15.904	1088.278	815.260
333.343	15.827	1087.857	814.499
334.358	15.849	1087.149	814.001
335.373	15.848	1086.266	813.265
336.387	15.982	1085.503	813.270
337.402	15.972	1084.867	812.672
338.416	15.983	1084.223	812.172
339.431	16.117	1083.030	811.850
340.446	16.018	1082.893	811.199
341.460	16.050	1082.040	810.642
342.475	16.128	1081.401	810.466
343.489	16.067	1080.509	809.434
344.504	16.194	1079.241	809.020
345.519	16.257	1078.535	808.719
346.533	16.254	1077.903	808.164
347.548	16.230	1077.241	807.477
348.562	16.267	1076.062	806.702
349.577	16.213	1075.680	806.087
350.592	16.203	1074.969	805.433
351.606	16.148	1074.139	804.480
352.621	16.119	1073.748	803.973
353.635	16.128	1073.154	803.501
354.650	16.183	1072.216	802.993
355.665	16.208	1071.564	802.548
356.679	16.204	1071.166	802.161
357.694	16.273	1070.506	801.925
358.708	16.299	1069.642	801.330
359.723	16.282	1069.337	800.949
360.738	16.286	1068.786	800.483
361.752	16.399	1067.852	800.251
362.767	16.325	1067.308	799.419
363.781	16.395	1066.796	799.297
364.796	16.351	1066.165	798.549
365.810	16.408	1065.633	798.348
366.825	16.519	1065.019	798.340
367.840	16.534	1064.477	797.936
368.854	16.540	1063.800	797.385
369.869	16.569	1063.019	796.864
370.883	16.571	1061.951	796.003
371.898	16.546	1061.511	795.488
372.913	16.521	1061.162	795.036
373.927	16.575	1060.586	794.789
374.942	16.670	1060.094	794.794
375.956	16.513	1059.923	793.860
376.971	16.685	1058.708	793.684
377.986	16.677	1058.267	793.247
379.000	16.603	1057.826	792.499
380.015	16.711	1056.852	792.204
381.029	16.793	1056.671	792.385
382.044	16.730	1055.944	791.476
383.059	16.781	1055.154	791.051
384.073	16.801	1054.070	790.261
385.088	16.872	1053.473	790.075
386.102	16.858	1052.238	789.012
387.117	16.755	1051.738	788.089
388.132	16.794	1050.788	787.488
389.146	16.795	1050.259	787.025
390.161	16.715	1049.671	786.144
391.175	16.876	1048.861	786.214
392.190	16.795	1048.240	785.305
393.205	16.831	1047.460	784.818
394.219	16.957	1046.405	784.543
395.234	16.955	1045.516	783.794
396.248	16.751	1045.073	782.453
397.263	16.905	1043.661	782.036
398.278	16.834	1043.204	781.295
399.292	16.906	1042.256	780.850
400.307	16.825	1041.763	780.039
401.321	16.801	1040.961	779.259
402.336	16.922	1040.300	779.251
403.350	16.847	1039.656	778.353
404.365	17.028	1039.364	778.897
405.380	16.991	1038.351	777.901
406.394	17.046	1037.709	777.602
407.409	17.060	1036.717	776.854
408.423	17.098	1036.035	776.447
409.438	17.170	1035.348	776.194
410.453	17.055	1035.481	775.701
411.467	17.181	1033.973	775.077
412.482	17.282	1033.561	775.160
413.496	17.256	1032.675	774.308
414.511	17.263	1032.321	774.005
415.526	17.214	1032.010	773.481
416.540	17.220	1032.000	773.432
417.555	17.304	1030.755	772.814
418.569	17.298	1030.294	772.370
419.584	17.279	1029.928	771.944
420.599	17.211	1029.848	771.507
421.613	103.389	1319.827	1461.874
422.628	94.644	1362.063	1461.988
