DTS Sentinel unit serial number:	SN413079Multiplexer serial number:	ORYXHardware model number:	OX4-SRSoftware version number:	ORYX F/W v4.00 Oryx Data Collector v3.7.2.0data status	okinstallation	princeton_trtdifferential loss correction	single-endedforward channel	channel 2reverse channel	N/Adate	2019/09/18time	22:07:35forward acquisition time	60.00reverse acquisition time	0.00gamma	496.2192k internal	0.2348k external	0.2348temperature offset calibration	1.0019default loss term (dB/km)	0.3790temperature slope calibration	1.0000multiplexer offset coefficient	1.0000multiplexer slope coefficient	1.0000fibre end	0.00T internal ref (°C)	24.50T ext. ref 1 (°C)	0.80T ext. ref 2 (°C)	18.32length (m)	temperature (°C)	Stokes	anti-Stokes-747.200	9.964	0.322	0.244
-746.185	35.901	0.245	0.215
-745.171	555.607	-0.128	-0.308
-744.156	-200.000	-0.048	0.239
-743.142	-173.392	0.292	0.009
-742.127	-200.000	0.015	-0.123
-741.112	-105.921	0.313	-0.071
-740.098	-120.190	-0.305	0.052
-739.083	-94.629	-0.021	-0.006
-738.069	-200.000	0.041	0.285
-737.054	-36.650	0.068	0.036
-736.039	178.159	-0.100	-0.146
-735.025	-20.420	0.339	-0.208
-734.010	84.805	0.081	-0.089
-732.996	708.908	0.029	-0.077
-731.981	85.839	-0.068	0.075
-730.966	-200.000	-0.011	0.080
-729.952	-200.000	-0.017	-0.134
-728.937	-200.000	-0.041	-0.279
-727.923	-108.881	0.280	-0.060
-726.908	-83.998	-0.468	-0.149
-725.894	800.000	0.070	-0.256
-724.879	-2.667	-0.339	-0.237
-723.864	-200.000	0.016	-0.143
-722.850	-3.446	0.319	0.221
-721.835	-64.515	-0.193	-0.078
-720.821	-104.501	0.277	0.064
-719.806	80.890	0.130	-0.141
-718.791	-200.000	-0.031	-0.196
-717.777	58.371	0.243	-0.238
-716.762	-35.624	0.114	-0.062
-715.748	-40.306	0.311	-0.161
-714.733	-71.779	0.258	0.096
-713.718	289.985	-0.114	-0.206
-712.704	-21.001	0.154	0.094
-711.689	34.827	-0.119	-0.103
-710.675	-25.697	-0.076	0.045
-709.660	-200.000	-0.013	-0.242
-708.645	157.516	-0.081	-0.112
-707.631	-32.424	0.210	-0.117
-706.616	-200.000	-0.026	-0.441
-705.602	212.380	-0.107	-0.169
-704.587	180.793	0.028	0.041
-703.572	384.469	-0.063	-0.129
-702.558	633.370	-0.057	0.143
-701.543	-198.967	-0.229	0.001
-700.529	-200.000	-0.084	-0.388
-699.514	4.818	0.138	0.101
-698.499	-86.059	0.129	0.040
-697.485	-172.707	-0.084	-0.003
-696.470	171.254	-0.184	-0.263
-695.456	-200.000	0.006	-0.208
-694.441	-111.133	0.048	-0.010
-693.426	97.853	0.117	-0.134
-692.412	-35.032	-0.260	0.141
-691.397	514.983	0.097	-0.225
-690.383	137.361	0.151	-0.196
-689.368	-110.896	0.120	0.025
-688.354	-108.806	-0.218	0.046
-687.339	1.282	0.094	-0.067
-686.324	800.000	0.068	0.198
-685.310	-41.915	-0.355	-0.181
-684.295	29.570	-0.253	0.214
-683.281	-200.000	0.037	-0.262
-682.266	-146.168	-0.090	-0.008
-681.251	737.678	-0.068	-0.182
-680.237	800.000	0.134	-0.496
-679.222	-145.009	-0.250	0.023
-678.208	-62.800	-0.256	-0.106
-677.193	-200.000	-0.023	0.316
-676.178	-129.438	0.081	0.011
-675.164	-21.035	-0.198	-0.121
-674.149	800.000	0.063	-0.263
-673.135	740.479	-0.050	0.133
-672.120	465.755	-0.103	-0.230
-671.105	-73.494	-0.283	-0.103
-670.091	10.778	-0.228	-0.174
-669.076	-200.000	-0.012	-0.255
-668.062	25.482	-0.397	-0.329
-667.047	-200.000	0.001	-0.184
-666.032	305.220	0.131	0.243
-665.018	-55.734	0.189	0.084
-664.003	-200.000	-0.033	-0.259
-662.989	-113.299	0.350	-0.069
-661.974	-125.882	-0.170	-0.026
-660.959	-122.395	0.179	0.029
-659.945	76.141	-0.068	0.072
-658.930	-200.000	-0.171	0.001
-657.916	10.318	0.272	-0.207
-656.901	-200.000	-0.014	-0.240
-655.886	-200.000	0.053	-0.336
-654.872	-36.310	-0.300	-0.161
-653.857	-146.660	-0.121	-0.010
-652.843	-110.029	0.453	-0.094
-651.828	800.000	-0.019	-0.079
-650.814	-200.000	0.003	-0.086
-649.799	455.236	-0.188	-0.414
-648.784	196.885	0.077	-0.117
-647.770	-113.665	-0.291	-0.057
-646.755	254.595	0.052	-0.088
-645.741	564.310	-0.110	0.265
-644.726	-47.385	-0.194	0.094
-643.711	175.435	0.071	-0.103
-642.697	56.446	-0.103	-0.100
-641.682	435.554	0.105	0.227
-640.668	-200.000	-0.022	0.255
-639.653	69.907	0.130	0.133
-638.638	-200.000	0.000	-0.232
-637.624	-53.580	-0.182	-0.083
-636.609	-115.255	0.198	-0.037
-635.595	-117.488	0.091	0.016
-634.580	-31.737	-0.272	0.152
-633.565	-200.000	0.034	0.259
-632.551	-32.101	0.139	0.077
-631.536	-200.000	0.040	0.272
-630.522	-18.009	-0.164	-0.102
-629.507	-26.722	0.191	0.111
-628.492	-72.166	-0.184	0.068
-627.478	-41.726	0.081	-0.041
-626.463	800.000	0.051	-0.147
-625.449	800.000	0.046	0.127
-624.434	-200.000	0.041	0.259
-623.419	148.824	0.058	-0.078
-622.405	105.282	0.079	-0.093
-621.390	-167.583	0.219	-0.009
-620.376	753.090	0.091	0.246
-619.361	-200.000	-0.043	-0.224
-618.346	-200.000	0.035	0.349
-617.332	111.016	0.256	-0.306
-616.317	800.000	-0.068	-0.273
-615.303	-200.000	-0.005	-0.107
-614.288	-5.237	-0.081	-0.056
-613.273	47.329	0.305	0.282
-612.259	-85.369	-0.075	-0.023
-611.244	431.346	-0.175	0.377
-610.230	-42.027	-0.244	-0.124
-609.215	-200.000	0.018	-0.263
-608.201	-45.319	-0.180	0.089
-607.186	-200.000	0.023	0.456
-606.171	85.786	0.247	0.270
-605.157	800.000	-0.041	0.158
-604.142	93.406	-0.180	0.202
-603.128	-200.000	0.020	0.116
-602.113	-18.382	-0.244	0.151
-601.098	101.536	0.010	-0.012
-600.084	-122.469	0.249	-0.040
-599.069	-200.000	0.064	-0.376
-598.055	800.000	0.016	0.045
-597.040	-75.938	0.130	-0.046
-596.025	-124.302	-0.096	-0.015
-595.011	-128.304	-0.168	-0.024
-593.996	87.595	-0.211	-0.233
-592.982	-5.903	-0.300	0.204
-591.967	800.000	-0.047	0.184
-590.952	-200.000	-0.058	0.360
-589.938	-179.478	-0.290	-0.006
-588.923	224.869	-0.081	-0.130
-587.909	-200.000	-0.010	-0.068
-586.894	-200.000	-0.032	0.222
-585.879	800.000	0.097	-0.366
-584.865	800.000	0.019	-0.055
-583.850	-176.553	-0.323	-0.008
-582.836	97.682	-0.106	0.121
-581.821	49.722	-0.139	-0.130
-580.806	-33.680	-0.139	0.076
-579.792	375.353	0.041	0.083
-578.777	-200.000	0.022	-0.216
-577.763	-21.577	-0.212	-0.129
-576.748	-47.777	-0.124	-0.060
-575.733	-165.902	0.308	0.013
-574.719	47.591	-0.214	-0.198
-573.704	-97.013	0.192	0.050
-572.690	-200.000	0.006	0.103
-571.675	-19.510	0.123	-0.076
-570.661	72.132	0.130	0.134
-569.646	-115.108	-0.124	0.023
-568.631	-174.964	0.451	0.013
-567.617	201.491	0.200	0.306
-566.602	-91.133	-0.177	-0.050
-565.588	69.065	-0.131	-0.133
-564.573	-200.000	0.014	-0.113
-563.558	-80.045	-0.393	0.131
-562.544	280.654	-0.185	0.329
-561.529	127.786	-0.200	0.252
-560.515	61.417	-0.231	-0.228
-559.500	-5.856	0.112	-0.076
-558.485	-100.475	-0.104	0.026
-557.471	72.378	-0.151	0.156
-556.456	-65.077	0.179	0.072
-555.442	-200.000	-0.000	-0.108
-554.427	-4.513	-0.269	0.184
-553.412	21.280	-0.157	-0.126
-552.398	-163.327	-0.305	-0.014
-551.383	155.773	0.123	0.168
-550.369	-148.887	-0.084	-0.007
-549.354	21.315	-0.235	-0.189
-548.339	-200.000	0.015	0.099
-547.325	-54.271	-0.098	-0.044
-546.310	-200.000	-0.021	-0.133
-545.296	800.000	0.085	-0.255
-544.281	412.160	-0.132	0.278
-543.266	-200.000	0.037	0.179
-542.252	800.000	-0.085	0.263
-541.237	-149.279	0.401	-0.032
-540.223	-174.095	0.258	-0.007
-539.208	800.000	0.021	-0.067
-538.193	4.709	-0.034	-0.025
-537.179	-30.544	0.089	0.050
-536.164	-161.456	-0.060	0.003
-535.150	-129.800	0.324	-0.044
-534.135	-200.000	-0.045	-0.328
-533.121	-200.000	0.015	0.088
-532.106	15.484	-0.082	-0.064
-531.091	-200.000	0.002	0.015
-530.077	-82.747	0.261	0.084
-529.062	-187.377	0.293	0.004
-528.048	228.025	0.092	-0.149
-527.033	322.615	-0.121	-0.228
-526.018	-109.083	0.156	0.033
-525.004	-200.000	-0.006	-0.373
-523.989	10.805	-0.042	-0.032
-522.975	383.358	-0.047	0.096
-521.960	682.124	0.118	0.305
-520.945	-56.566	0.018	0.008
-519.931	89.327	0.148	-0.164
-518.916	63.049	-0.159	0.158
-517.902	-14.126	0.175	-0.112
-516.887	39.735	0.219	0.194
-515.872	306.313	0.064	0.119
-514.858	-6.756	-0.057	0.038
-513.843	-81.052	-0.160	0.052
-512.829	-29.768	0.208	0.118
-511.814	-14.922	-0.267	-0.170
-510.799	-70.817	-0.318	-0.119
-509.785	-9.189	-0.052	-0.034
-508.770	174.665	-0.145	-0.208
-507.756	-119.899	0.494	-0.084
-506.741	-153.228	-0.309	0.021
-505.726	92.849	-0.177	-0.198
-504.712	190.085	-0.196	-0.292
-503.697	-200.000	-0.041	-0.203
-502.683	-92.038	0.044	-0.012
-501.668	-200.000	0.064	0.298
-500.653	215.575	0.156	0.246
-499.639	800.000	-0.025	0.088
-498.624	-39.980	-0.096	-0.050
-497.610	-64.270	-0.242	-0.097
-496.595	800.000	0.026	0.088
-495.581	-47.182	-0.238	-0.115
-494.566	800.000	0.049	-0.187
-493.551	-26.948	-0.168	0.097
-492.537	371.215	0.178	0.357
-491.522	428.600	0.031	0.066
-490.508	325.914	0.137	-0.259
-489.493	24.405	0.228	-0.186
-488.478	-119.111	-0.387	-0.067
-487.464	-113.917	-0.136	-0.026
-486.449	530.306	0.061	0.143
-485.435	-191.726	-0.463	0.005
-484.420	-128.800	-0.261	-0.036
-483.405	111.689	-0.020	0.024
-482.391	325.494	0.200	-0.379
-481.376	-200.000	0.027	-0.200
-480.362	-167.348	-0.188	0.007
-479.347	163.751	0.186	-0.259
-478.332	-200.000	-0.038	-0.253
-477.318	-66.808	-0.416	-0.163
-476.303	-200.000	-0.026	-0.253
-475.289	-71.676	-0.094	-0.035
-474.274	289.369	0.061	-0.110
-473.259	800.000	-0.072	0.267
-472.245	-104.904	0.219	0.050
-471.230	239.001	0.188	0.308
-470.216	-200.000	-0.024	-0.378
-469.201	-162.993	0.169	0.008
-468.186	-43.037	0.131	-0.066
-467.172	-30.843	-0.244	-0.136
-466.157	800.000	-0.065	0.207
-465.143	-133.108	-0.260	-0.033
-464.128	800.000	0.042	0.150
-463.113	-50.094	-0.078	-0.037
-462.099	-8.260	0.322	0.214
-461.084	-142.213	0.070	0.007
-460.070	800.000	-0.059	-0.184
-459.055	48.815	0.109	0.102
-458.040	94.385	-0.378	-0.424
-457.026	12.373	0.239	-0.182
-456.011	-200.000	-0.017	-0.153
-454.997	-165.604	0.264	-0.011
-453.982	187.897	0.186	-0.275
-452.968	-200.000	0.036	-0.418
-451.953	-200.000	-0.049	0.384
-450.938	800.000	-0.016	0.052
-449.924	-25.138	-0.079	-0.046
-448.909	67.694	0.050	-0.050
-447.895	-139.811	-0.301	-0.032
-446.880	-125.491	-0.141	0.021
-445.865	-200.000	-0.042	0.216
-444.851	-49.770	-0.009	0.004
-443.836	-200.000	0.012	0.213
-442.822	282.890	-0.081	0.144
-441.807	-22.807	-0.170	-0.101
-440.792	22.584	0.158	-0.128
-439.778	800.000	-0.064	0.262
-438.763	-200.000	-0.026	0.179
-437.749	-200.000	0.017	-0.134
-436.734	-49.777	0.059	-0.028
-435.719	800.000	0.060	-0.240
-434.705	-8.625	-0.213	-0.141
-433.690	113.836	0.138	-0.165
-432.676	71.098	0.198	0.203
-431.661	-23.351	-0.263	0.156
-430.646	-64.964	0.107	0.043
-429.632	-39.357	0.288	-0.149
-428.617	-72.949	0.443	-0.161
-427.603	-200.000	-0.015	0.493
-426.588	-200.000	0.026	0.157
-425.573	-110.920	0.248	0.050
-424.559	-66.893	0.060	0.023
-423.544	53.899	-0.150	-0.143
-422.530	-30.572	0.236	0.132
-421.515	-0.522	0.208	-0.146
-420.500	-200.000	0.058	-0.406
-419.486	-42.008	-0.159	-0.080
-418.471	-200.000	-0.001	-0.157
-417.457	-19.060	-0.103	0.063
-416.442	-135.348	-0.275	-0.032
-415.428	38.753	0.059	0.052
-414.413	800.000	0.073	-0.236
-413.398	-200.000	0.038	-0.221
-412.384	237.655	0.161	0.264
-411.369	800.000	0.091	0.254
-410.355	-127.900	-0.524	0.074
-409.340	71.391	0.254	0.260
-408.325	-200.000	0.003	0.131
-407.311	-68.624	0.448	0.171
-406.296	673.389	-0.105	0.268
-405.282	-200.000	0.014	-0.230
-404.267	-29.147	0.297	-0.168
-403.252	-200.000	-0.009	0.133
-402.238	84.482	0.109	-0.118
-401.223	-200.000	-0.000	0.009
-400.209	-53.498	-0.215	-0.097
-399.194	-73.216	0.209	0.076
-398.179	53.891	0.348	0.330
-397.165	800.000	-0.063	0.244
-396.150	97.793	0.207	0.234
-395.136	-200.000	-0.061	-0.381
-394.121	-200.000	-0.002	0.245
-393.106	-104.718	0.269	-0.061
-392.092	120.123	0.162	-0.198
-391.077	-130.119	-0.191	-0.026
-390.063	-200.000	-0.020	0.192
-389.048	92.285	0.230	0.255
-388.033	800.000	-0.088	-0.332
-387.019	-8.083	0.209	-0.139
-386.004	29.089	0.266	0.222
-384.990	329.578	0.121	0.229
-383.975	187.300	0.138	0.203
-382.960	-43.538	0.183	-0.091
-381.946	73.674	-0.151	-0.156
-380.931	-132.173	-0.234	0.030
-379.917	-200.000	-0.016	0.268
-378.902	122.209	-0.307	-0.378
-377.888	126.066	-0.080	-0.100
-376.873	672.408	-0.081	-0.208
-375.858	59.848	0.091	-0.088
-374.844	800.000	0.040	-0.135
-373.829	93.524	0.248	-0.276
-372.815	485.680	-0.135	0.302
-371.800	-200.000	-0.021	-0.196
-370.785	-116.823	-0.236	-0.043
-369.771	800.000	0.056	-0.227
-368.756	800.000	0.047	0.160
-367.742	32.969	0.140	-0.119
-366.727	800.000	-0.046	-0.158
-365.712	-200.000	0.007	0.478
-364.698	-86.512	0.232	0.070
-363.683	-41.523	-0.074	-0.037
-362.669	21.573	0.260	-0.208
-361.654	-103.009	-0.234	0.055
-360.639	-200.000	0.020	0.215
-359.625	-67.358	0.118	-0.046
-358.610	-175.597	-0.130	0.003
-357.596	116.841	-0.107	0.130
-356.581	-76.716	0.313	-0.108
-355.566	-168.055	0.064	-0.002
-354.552	145.158	-0.320	-0.422
-353.537	229.190	-0.111	-0.178
-352.523	-58.735	0.057	-0.024
-351.508	-200.000	-0.017	-0.128
-350.493	58.466	0.449	0.434
-349.479	203.940	0.081	0.124
-348.464	-68.724	0.163	0.062
-347.450	75.143	0.084	-0.088
-346.435	2.553	0.101	0.072
-345.420	111.024	0.100	-0.118
-344.406	61.944	0.163	0.159
-343.391	-102.291	-0.138	-0.033
-342.377	-200.000	-0.005	0.266
-341.362	-176.339	-0.165	0.004
-340.348	-45.143	0.146	-0.071
-339.333	800.000	0.046	0.155
-338.318	-200.000	0.007	0.367
-337.304	-111.507	-0.340	-0.068
-336.289	468.603	0.046	0.100
-335.275	-60.547	0.062	0.026
-334.260	48.875	0.122	0.113
-333.245	345.729	0.073	0.141
-332.231	-185.246	-0.103	-0.002
-331.216	57.618	-0.164	0.158
-330.202	-53.234	0.327	0.147
-329.187	-46.269	0.208	0.101
-328.172	124.694	-0.083	-0.103
-327.158	-200.000	0.022	0.159
-326.143	-171.768	0.150	-0.005
-325.129	-69.666	0.081	0.031
-324.114	-99.099	-0.155	-0.039
-323.099	129.581	-0.137	-0.172
-322.085	170.616	0.169	0.237
-321.070	-200.000	-0.021	0.115
-320.056	-4.083	0.160	0.109
-319.041	800.000	0.015	-0.046
-318.026	-68.044	-0.250	0.096
-317.012	800.000	0.037	-0.149
-315.997	800.000	-0.030	0.085
-314.983	-154.890	0.065	-0.004
-313.968	-80.561	0.253	0.083
-312.953	225.605	-0.129	0.205
-311.939	-89.785	0.140	0.040
-310.924	250.069	-0.084	0.140
-309.910	-200.000	0.027	-0.228
-308.895	-200.000	0.023	-0.216
-307.880	-176.961	0.417	-0.010
-306.866	2.218	-0.212	-0.151
-305.851	106.631	0.068	0.079
-304.837	349.309	0.115	0.223
-303.822	485.894	0.093	0.208
-302.807	-200.000	0.028	0.222
-301.793	800.000	-0.094	0.365
-300.778	551.908	0.157	-0.371
-299.764	661.021	0.154	-0.390
-298.749	72.508	-0.135	-0.139
-297.735	-200.000	-0.005	0.027
-296.720	-51.526	0.347	0.159
-295.705	-163.492	0.447	-0.021
-294.691	800.000	0.011	0.037
-293.676	-200.000	0.003	-0.285
-292.662	-150.248	0.062	0.005
-291.647	89.229	-0.107	-0.117
-290.632	800.000	0.107	-0.343
-289.618	53.976	0.385	-0.363
-288.603	-200.000	-0.036	0.223
-287.589	-155.765	-0.263	0.017
-286.574	173.664	0.163	-0.232
-285.559	-175.889	0.257	0.007
-284.545	-200.000	-0.039	0.238
-283.530	-7.283	-0.223	0.149
-282.516	68.387	-0.205	0.206
-281.501	511.592	0.046	-0.106
-280.486	-146.742	0.246	0.021
-279.472	-141.883	0.194	-0.019
-278.457	60.940	0.134	-0.130
-277.443	77.473	0.107	-0.111
-276.428	-200.000	0.021	0.236
-275.413	-200.000	0.027	-0.134
-274.399	-200.000	-0.021	-0.176
-273.384	395.923	0.049	-0.101
-272.370	150.283	-0.030	-0.040
-271.355	174.641	-0.198	-0.281
-270.340	626.265	0.141	-0.350
-269.326	-200.000	0.008	0.194
-268.311	330.566	-0.068	0.128
-267.297	-167.656	0.033	-0.001
-266.282	-152.306	-0.192	-0.014
-265.267	288.012	0.168	-0.298
-264.253	-200.000	0.076	0.489
-263.238	30.914	-0.090	0.075
-262.224	-128.343	-0.241	0.034
-261.209	321.721	0.080	0.149
-260.195	16.307	0.418	0.323
-259.180	800.000	0.039	-0.107
-258.165	117.225	-0.181	0.219
-257.151	27.872	0.262	0.217
-256.136	191.206	0.157	-0.232
-255.122	-200.000	-0.002	0.291
-254.107	109.768	0.041	-0.048
-253.092	96.302	-0.248	-0.278
-252.078	-63.902	0.187	-0.075
-251.063	-37.034	0.434	0.228
-250.049	-200.000	-0.060	-0.285
-249.034	123.137	-0.325	-0.399
-248.019	-77.638	-0.196	-0.067
-247.005	-42.122	0.137	-0.069
-245.990	-200.000	-0.044	0.210
-244.976	-18.310	-0.068	0.041
-243.961	1.586	0.226	-0.159
-242.946	81.393	-0.132	-0.139
-241.932	800.000	-0.083	-0.273
-240.917	800.000	0.068	0.222
-239.903	-118.807	0.219	-0.038
-238.888	-200.000	0.010	0.141
-237.873	-98.598	-0.127	-0.032
-236.859	800.000	-0.085	-0.274
-235.844	102.422	0.125	-0.143
-234.830	12.657	-0.169	-0.128
-233.815	83.022	-0.194	-0.207
-232.800	86.077	-0.186	0.201
-231.786	-133.965	-0.345	-0.042
-230.771	-105.413	0.056	0.013
-229.757	44.092	-0.318	-0.286
-228.742	105.082	0.084	-0.097
-227.727	-139.305	-0.199	-0.021
-226.713	18.776	0.081	0.063
-225.698	-200.000	-0.039	-0.256
-224.684	81.374	-0.073	-0.077
-223.669	246.871	0.222	0.366
-222.655	-132.760	-0.144	0.018
-221.640	448.341	0.103	-0.222
-220.625	800.000	-0.146	0.440
-219.611	-127.906	-0.334	-0.047
-218.596	800.000	-0.096	-0.316
-217.582	800.000	0.075	0.235
-216.567	-169.479	-0.176	0.006
-215.552	43.242	0.269	-0.240
-214.538	-113.085	-0.430	-0.083
-213.523	-7.134	0.169	0.112
-212.509	-64.184	0.292	0.117
-211.494	-200.000	-0.007	0.046
-210.479	800.000	-0.081	0.346
-209.465	65.213	0.219	-0.217
-208.450	662.404	0.086	0.217
-207.436	-200.000	0.060	-0.279
-206.421	800.000	-0.053	0.216
-205.406	-200.000	-0.025	-0.114
-204.392	144.873	-0.301	-0.394
-203.377	800.000	-0.053	0.161
-202.363	-109.013	0.168	-0.035
-201.348	97.555	-0.103	-0.115
-200.333	23.097	0.078	0.062
-199.319	152.877	-0.024	-0.032
-198.304	-20.179	0.122	-0.074
-197.290	-90.010	-0.196	-0.056
-196.275	-74.483	-0.018	0.006
-195.260	-70.337	0.453	-0.168
-194.246	145.159	-0.106	0.139
-193.231	800.000	0.105	-0.316
-192.217	-200.000	0.009	0.255
-191.202	-200.000	0.046	0.274
-190.187	479.795	-0.111	-0.247
-189.173	-200.000	0.027	-0.132
-188.158	-175.096	-0.019	0.001
-187.144	38.403	-0.153	0.134
-186.129	54.558	0.114	0.108
-185.114	-112.416	-0.158	-0.031
-184.100	152.547	-0.075	0.100
-183.085	99.977	-0.164	-0.186
-182.071	-102.310	0.294	0.069
-181.056	-112.133	-0.086	-0.017
-180.042	288.216	-0.124	-0.219
-179.027	164.674	-0.193	-0.266
-178.012	4.715	-0.148	-0.106
-176.998	254.394	0.134	-0.224
-175.983	-200.000	-0.004	0.027
-174.969	-200.000	0.015	0.430
-173.954	519.582	-0.056	0.128
-172.939	-139.575	0.261	-0.027
-171.925	-53.683	-0.381	-0.170
-170.910	-87.208	0.326	0.097
-169.896	-30.777	-0.143	0.079
-168.881	760.500	0.040	0.105
-167.866	358.891	-0.014	-0.028
-166.852	-26.298	-0.181	0.104
-165.837	41.425	0.172	-0.152
-164.823	451.872	-0.139	0.301
-163.808	766.827	0.051	0.135
-162.793	-55.682	-0.247	0.108
-161.779	223.936	-0.075	-0.118
-160.764	522.734	-0.072	0.165
-159.750	515.894	-0.142	-0.325
-158.735	-89.051	-0.327	0.095
-157.720	-152.042	-0.249	-0.018
-156.706	-200.000	-0.025	-0.139
-155.691	76.883	-0.394	0.408
-154.677	14.537	0.114	0.087
-153.662	216.539	-0.149	0.231
-152.647	123.224	-0.081	0.099
-151.633	-4.227	-0.116	-0.078
-150.618	-62.579	0.407	0.165
-149.604	2.313	-0.196	0.138
-148.589	146.229	-0.028	0.036
-147.574	-26.399	0.061	0.035
-146.560	-200.000	-0.007	0.100
-145.545	-150.915	-0.234	0.017
-144.531	164.601	0.090	-0.124
-143.516	9.554	0.339	0.250
-142.502	701.913	0.091	0.235
-141.487	-200.000	-0.061	-0.433
-140.472	13.736	0.138	0.105
-139.458	-200.000	0.023	0.149
-138.443	185.592	-0.132	-0.192
-137.429	-2.445	0.110	-0.075
-136.414	-97.073	-0.031	0.008
-135.399	-9.264	0.226	0.147
-134.385	-26.516	0.099	0.057
-133.370	-42.488	-0.163	-0.081
-132.356	-31.715	-0.204	-0.112
-131.341	28.036	0.043	0.036
-130.326	-200.000	-0.070	0.613
-129.312	263.951	0.239	-0.405
-128.297	-200.000	-0.008	-0.215
-127.283	800.000	0.045	0.169
-126.268	-119.711	-0.237	0.040
-125.253	-140.000	0.264	0.027
-124.239	-46.825	-0.258	-0.123
-123.224	-200.000	-0.016	0.097
-122.210	7.151	0.073	0.053
-121.195	70.775	0.120	-0.121
-120.180	-75.638	-0.060	0.021
-119.166	-64.839	-0.390	-0.154
-118.151	-55.356	0.227	0.099
-117.137	-60.942	-0.420	0.173
-116.122	800.000	-0.041	0.143
-115.107	616.680	-0.076	-0.185
-114.093	-98.907	0.318	-0.079
-113.078	191.786	0.192	0.282
-112.064	800.000	0.082	-0.303
-111.049	-200.000	-0.058	-0.341
-110.034	-71.948	0.120	-0.044
-109.020	-0.089	-0.101	-0.070
-108.005	-94.757	0.185	-0.049
-106.991	625.556	0.030	0.074
-105.976	-200.000	-0.004	0.089
-104.962	-14.642	0.038	0.023
-103.947	252.077	0.226	-0.375
-102.932	-200.000	-0.044	-0.230
-101.918	-111.500	0.268	0.053
-100.903	-33.963	-0.304	0.163
-99.889	343.796	0.058	0.111
-98.874	-166.323	0.187	-0.008
-97.859	-150.132	-0.132	-0.010
-96.845	-69.059	0.193	-0.072
-95.830	-17.110	0.281	0.173
-94.816	224.691	-0.143	0.225
-93.801	-200.000	-0.013	-0.171
-92.786	216.668	0.125	0.194
-91.772	-78.859	-0.077	-0.025
-90.757	23.760	-0.096	-0.077
-89.743	119.666	-0.025	-0.030
-88.728	800.000	0.057	-0.173
-87.713	-45.865	0.392	0.188
-86.699	222.294	-0.042	0.066
-85.684	-182.457	0.169	-0.003
-84.670	-30.140	0.284	0.157
-83.655	-142.625	0.356	0.034
-82.640	344.609	0.090	0.173
-81.626	-25.190	-0.072	-0.041
-80.611	-148.534	0.118	0.009
-79.597	404.262	-0.068	-0.139
-78.582	-147.620	0.223	0.018
-77.567	-200.000	0.025	0.317
-76.553	144.278	0.093	0.121
-75.538	-200.000	-0.037	-0.289
-74.524	487.010	0.093	0.207
-73.509	55.960	-0.115	0.108
-72.494	227.845	0.262	0.416
-71.480	-149.241	-0.148	-0.011
-70.465	-200.000	0.019	-0.161
-69.451	-17.402	0.232	0.142
-68.436	-101.560	-0.109	0.026
-67.422	290.864	0.134	0.238
-66.407	-47.027	0.191	0.091
-65.392	108.588	-0.050	0.058
-64.378	-200.000	-0.021	-0.486
-63.363	198.886	0.142	-0.212
-62.349	34.765	0.116	0.099
-61.334	115.571	-0.944	-1.122
-60.319	-35.776	1.183	0.624
-59.305	800.000	-0.309	-1.210
-58.290	800.000	0.473	1.398
-57.276	661.492	0.672	1.684
-56.261	-200.000	120.677	636.447
-55.246	436.228	1529.502	3238.551
-54.232	149.013	2687.897	3536.000
-53.217	93.177	2271.806	2498.303
-52.203	33.495	1888.833	1595.706
-51.188	27.553	1686.700	1380.046
-50.173	25.320	1647.433	1331.324
-49.159	45.450	1714.599	1539.012
-48.144	43.751	1726.870	1537.077
-47.130	27.125	1678.665	1370.024
-46.115	24.538	1664.000	1338.637
-45.100	24.435	1659.008	1333.797
-44.086	24.392	1656.782	1331.640
-43.071	24.402	1653.880	1329.327
-42.057	24.382	1651.115	1326.902
-41.042	24.469	1649.032	1325.822
-40.027	24.346	1648.208	1324.197
-39.013	24.452	1645.410	1322.676
-37.998	24.334	1644.339	1320.889
-36.984	24.295	1643.611	1319.965
-35.969	24.478	1641.897	1319.894
-34.954	24.470	1640.315	1318.504
-33.940	24.451	1638.913	1317.190
-32.925	24.594	1637.166	1316.783
-31.911	24.492	1635.217	1314.416
-30.896	24.530	1633.609	1313.346
-29.881	24.587	1632.044	1312.461
-28.867	24.543	1630.311	1310.685
-27.852	24.528	1628.728	1309.257
-26.838	24.509	1627.721	1308.253
-25.823	24.555	1626.429	1307.497
-24.809	24.566	1624.568	1306.030
-23.794	24.456	1624.160	1304.852
-22.779	24.604	1621.842	1304.017
-21.765	24.461	1620.429	1301.782
-20.750	24.495	1618.518	1300.444
-19.736	24.488	1617.817	1299.779
-18.721	24.568	1616.389	1299.161
-17.706	24.440	1615.030	1297.088
-16.692	24.488	1613.360	1296.047
-15.677	24.574	1611.503	1295.122
-14.663	24.522	1610.999	1294.294
-13.648	24.525	1609.444	1293.015
-12.633	24.537	1607.850	1291.763
-11.619	24.525	1606.221	1290.318
-10.604	24.508	1605.119	1289.261
-9.590	24.519	1603.090	1287.662
-8.575	24.688	1601.646	1287.663
-7.560	24.483	1601.192	1285.772
-6.546	24.497	1600.026	1284.885
-5.531	24.479	1599.628	1284.390
-4.517	24.458	1597.792	1282.712
-3.502	24.379	1597.188	1281.609
-2.487	24.609	1594.771	1281.264
-1.473	24.106	1583.118	1268.269
-0.458	21.113	1563.833	1231.680
0.556	16.453	1565.069	1199.154
1.571	14.051	1588.750	1199.872
2.586	13.822	1601.050	1207.385
3.600	12.961	1547.794	1161.063
4.615	7.634	1441.891	1046.521
5.629	1.952	1382.871	967.621
6.644	0.848	1375.110	955.139
7.659	0.768	1374.574	954.177
8.673	0.787	1373.168	953.234
9.688	0.778	1371.359	951.840
10.702	0.529	1367.960	947.832
11.717	3.307	1372.001	968.024
12.731	10.312	1381.973	1019.195
13.746	15.864	1389.795	1059.924
14.761	17.341	1391.092	1070.122
15.775	16.754	1389.390	1065.028
16.790	15.805	1386.786	1056.982
17.804	15.087	1384.281	1050.474
18.819	14.615	1383.158	1046.570
19.834	14.412	1381.745	1044.139
20.848	14.116	1380.818	1041.491
21.863	13.902	1379.057	1038.732
22.877	13.742	1378.099	1036.915
23.892	13.614	1377.317	1035.437
24.907	13.636	1376.422	1034.809
25.921	13.717	1375.455	1034.498
26.936	13.682	1374.765	1033.667
27.950	13.747	1373.835	1033.283
28.965	13.829	1372.689	1032.839
29.980	13.776	1371.727	1031.691
30.994	13.835	1371.002	1031.423
32.009	13.924	1369.914	1031.066
33.023	13.837	1368.923	1029.692
34.038	13.895	1367.484	1028.877
35.053	13.775	1366.763	1027.501
36.067	13.883	1365.873	1027.408
37.082	13.918	1364.428	1026.447
38.096	13.751	1363.929	1024.951
39.111	13.790	1362.951	1024.361
40.126	13.742	1361.997	1023.262
41.140	13.711	1361.399	1022.527
42.155	13.662	1360.579	1021.518
43.169	13.652	1360.445	1021.265
44.184	13.606	1360.122	1020.649
45.199	13.597	1359.543	1020.074
46.213	13.713	1359.011	1020.294
47.228	13.795	1358.127	1020.048
48.242	13.761	1356.915	1018.836
49.257	13.796	1355.182	1017.657
50.271	13.766	1353.868	1016.398
51.286	13.824	1352.255	1015.455
52.301	13.829	1351.283	1014.663
53.315	13.744	1350.284	1013.306
54.330	13.678	1349.382	1012.136
55.344	13.667	1348.931	1011.642
56.359	13.689	1347.153	1010.349
57.374	13.729	1346.124	1009.733
58.388	13.719	1345.460	1009.086
59.403	13.688	1345.021	1008.480
60.417	13.713	1343.671	1007.528
61.432	13.653	1343.290	1006.793
62.447	13.605	1342.258	1005.637
63.461	13.509	1341.306	1004.251
64.476	13.587	1339.716	1003.443
65.490	13.585	1338.918	1002.747
66.505	13.664	1336.898	1001.619
67.520	13.679	1336.260	1001.145
68.534	13.691	1334.932	1000.134
69.549	13.638	1333.988	999.021
70.563	13.616	1332.795	997.903
71.578	13.709	1331.306	997.262
72.593	13.604	1330.921	996.255
73.607	13.551	1330.192	995.299
74.622	13.595	1329.560	995.007
75.636	13.568	1328.244	993.770
76.651	13.623	1327.239	993.262
77.666	13.578	1327.064	992.774
78.680	13.502	1327.006	992.186
79.695	13.560	1325.705	991.471
80.709	13.616	1325.071	991.244
81.724	13.696	1324.148	990.942
82.739	13.711	1323.264	990.286
83.753	13.695	1321.980	989.139
84.768	13.794	1320.618	988.627
85.782	13.899	1319.489	988.316
86.797	13.810	1318.457	986.929
87.812	13.687	1317.410	985.325
88.826	13.783	1316.280	984.964
89.841	13.669	1315.240	983.422
90.855	13.874	1314.075	983.676
91.870	13.814	1313.069	982.482
92.884	13.759	1312.212	981.430
93.899	13.825	1311.028	980.846
94.914	13.997	1310.459	981.350
95.928	13.876	1309.986	980.193
96.943	13.823	1308.859	978.952
97.957	13.840	1308.046	978.360
98.972	13.868	1306.705	977.433
99.987	13.799	1305.757	976.229
101.001	13.760	1305.253	975.538
102.016	13.802	1303.995	974.761
103.030	13.781	1303.344	974.061
104.045	13.877	1301.805	973.390
105.060	13.789	1300.600	971.888
106.074	13.859	1299.190	971.156
107.089	13.746	1298.215	969.679
108.103	13.698	1297.069	968.459
109.118	13.652	1295.709	967.088
110.133	13.668	1294.592	966.261
111.147	13.760	1292.940	965.479
112.162	13.790	1291.256	964.314
113.176	13.741	1290.759	963.573
114.191	13.853	1289.389	963.110
115.206	13.808	1288.680	962.235
116.220	13.754	1286.900	960.508
117.235	13.883	1285.421	960.068
118.249	13.819	1285.031	959.324
119.264	13.728	1284.045	957.977
120.279	13.661	1283.128	956.819
121.293	13.744	1281.518	956.011
122.308	13.690	1281.125	955.322
123.322	13.725	1279.687	954.371
124.337	13.752	1278.777	953.760
125.352	13.719	1277.733	952.708
126.366	13.750	1276.272	951.713
127.381	13.714	1275.257	950.661
128.395	13.754	1274.186	950.012
129.410	13.734	1273.065	948.976
130.424	13.838	1272.482	949.052
131.439	13.728	1271.549	947.644
132.454	13.666	1270.863	946.697
133.468	13.710	1269.955	946.186
134.483	13.815	1268.577	945.674
135.497	13.750	1267.901	944.714
136.512	13.651	1267.024	943.416
137.527	13.810	1265.314	942.962
138.541	13.652	1263.980	940.987
139.556	13.784	1262.628	940.650
140.570	13.817	1261.675	940.041
141.585	13.818	1260.190	938.859
142.600	13.909	1258.973	938.379
143.614	13.976	1258.140	938.056
144.629	13.932	1257.286	937.088
145.643	13.931	1256.114	936.126
146.658	13.839	1255.138	934.795
147.673	13.882	1253.911	934.041
148.687	13.919	1252.552	933.153
149.702	13.947	1250.667	931.828
150.716	13.778	1249.875	930.205
151.731	13.913	1248.519	929.870
152.746	13.872	1247.430	928.750
153.760	13.927	1246.444	928.240
154.775	13.853	1245.221	926.832
155.789	14.016	1244.139	926.854
156.804	13.977	1243.357	925.975
157.819	14.100	1241.837	925.444
158.833	14.102	1240.750	924.561
159.848	14.062	1239.879	923.612
160.862	14.116	1239.093	923.240
161.877	14.059	1237.853	921.920
162.892	14.035	1236.821	920.937
163.906	14.050	1235.999	920.326
164.921	13.985	1234.965	919.118
165.935	14.059	1233.713	918.514
166.950	14.052	1233.511	918.243
167.964	13.998	1233.059	917.525
168.979	14.101	1231.984	917.211
169.994	14.080	1231.117	916.371
171.008	14.157	1230.316	916.116
172.023	14.134	1229.196	915.074
173.037	14.211	1228.510	914.905
174.052	14.145	1227.737	913.889
175.067	14.143	1226.465	912.850
176.081	14.148	1225.671	912.205
177.096	14.113	1225.045	911.466
178.110	14.177	1223.688	910.725
179.125	14.182	1222.420	909.730
180.140	14.248	1220.931	908.899
181.154	14.202	1220.271	908.081
182.169	14.288	1219.203	907.675
183.183	14.219	1217.861	906.219
184.198	14.329	1216.354	905.617
185.213	14.289	1215.142	904.413
186.227	14.386	1214.508	904.390
187.242	14.374	1213.544	903.525
188.256	14.417	1212.498	902.902
189.271	14.317	1211.289	901.378
190.286	14.281	1210.461	900.490
191.300	14.250	1209.735	899.701
192.315	14.212	1209.018	898.882
193.329	14.166	1208.919	898.482
194.344	14.075	1208.321	897.468
195.359	14.294	1207.471	897.939
196.373	14.397	1206.649	897.801
197.388	14.499	1206.354	898.053
198.402	14.497	1205.701	897.478
199.417	14.446	1205.062	896.645
200.432	14.543	1204.110	896.377
201.446	14.469	1203.114	895.161
202.461	14.584	1202.479	895.229
203.475	14.614	1201.197	894.356
204.490	14.585	1199.820	893.093
205.504	14.556	1198.815	892.113
206.519	14.594	1197.520	891.270
207.534	14.454	1196.656	889.804
208.548	14.556	1195.616	889.497
209.563	14.614	1194.772	889.097
210.577	14.632	1193.884	888.453
211.592	14.639	1193.004	887.760
212.607	14.720	1192.183	887.496
213.621	14.767	1191.230	886.959
214.636	14.650	1190.701	885.867
215.650	14.641	1189.701	884.997
216.665	14.786	1188.559	884.834
217.680	14.740	1187.923	884.041
218.694	14.800	1187.051	883.634
219.709	14.816	1186.147	882.968
220.723	14.794	1185.759	882.482
221.738	14.837	1184.568	881.744
222.753	14.907	1183.702	881.391
223.767	14.930	1183.306	881.138
224.782	14.954	1182.487	880.580
225.796	15.033	1181.555	880.223
226.811	15.041	1181.375	880.053
227.826	14.960	1180.520	878.909
228.840	14.864	1180.017	877.953
229.855	14.875	1179.293	877.394
230.869	14.899	1178.169	876.609
231.884	14.933	1177.683	876.349
232.899	15.008	1176.436	875.737
233.913	14.902	1176.369	875.054
234.928	14.828	1175.618	874.030
235.942	14.942	1174.130	873.440
236.957	14.912	1173.613	872.823
237.972	14.894	1173.216	872.354
238.986	14.925	1172.199	871.686
240.001	14.938	1171.446	871.114
241.015	15.075	1170.740	871.228
242.030	15.080	1169.760	870.443
243.045	15.176	1168.579	869.990
244.059	14.934	1168.934	868.918
245.074	15.162	1167.395	868.878
246.088	15.133	1166.873	868.263
247.103	15.196	1165.798	867.711
248.117	15.231	1165.101	867.301
249.132	15.226	1164.636	866.849
250.147	15.273	1163.807	866.400
251.161	15.261	1163.026	865.680
252.176	15.297	1162.562	865.444
253.190	15.301	1161.950	864.934
254.205	15.383	1161.185	864.707
255.220	15.453	1160.474	864.464
256.234	15.417	1160.005	863.852
257.249	15.393	1159.171	863.031
258.263	15.429	1158.746	862.822
259.278	15.457	1157.826	862.205
260.293	15.449	1157.518	861.858
261.307	15.433	1157.042	861.347
262.322	15.587	1156.233	861.455
263.336	15.586	1155.185	860.595
264.351	15.505	1155.355	860.230
265.366	15.606	1153.690	859.432
266.380	15.678	1153.160	859.330
267.395	15.574	1152.530	858.253
268.409	15.579	1152.263	858.004
269.424	15.532	1151.245	856.930
270.439	15.579	1150.781	856.747
271.453	15.685	1149.652	856.371
272.468	15.598	1148.748	855.178
273.482	15.549	1148.365	854.568
274.497	15.658	1147.772	854.608
275.512	15.675	1146.981	854.030
276.526	15.646	1146.442	853.406
277.541	15.630	1145.501	852.549
278.555	15.615	1144.979	852.009
279.570	15.714	1144.268	851.906
280.585	15.746	1143.298	851.269
281.599	15.842	1142.169	850.839
282.614	15.771	1141.550	849.945
283.628	15.740	1140.529	848.949
284.643	15.806	1139.215	848.229
285.657	15.936	1138.660	848.397
286.672	15.804	1137.751	846.980
287.687	15.828	1136.728	846.263
288.701	15.792	1136.109	845.546
289.716	15.999	1135.214	845.845
290.730	15.920	1134.701	844.991
291.745	15.977	1133.597	844.384
292.760	15.888	1133.381	843.701
293.774	15.896	1132.941	843.338
294.789	16.016	1132.074	843.217
295.803	16.010	1131.218	842.476
296.818	15.957	1130.610	841.686
297.833	15.949	1130.021	841.130
298.847	15.959	1129.598	840.794
299.862	16.037	1128.559	840.333
300.876	16.059	1127.758	839.773
301.891	16.058	1127.034	839.153
302.906	16.012	1126.733	838.624
303.920	16.163	1125.589	838.452
304.935	16.273	1125.147	838.593
305.949	16.235	1124.309	837.706
306.964	16.190	1124.030	837.201
307.979	16.240	1123.052	836.645
308.993	16.227	1122.577	836.156
310.008	16.139	1121.939	835.170
311.022	16.256	1120.653	834.715
312.037	16.252	1119.676	833.893
313.052	16.298	1118.425	833.118
314.066	16.199	1118.144	832.345
315.081	16.087	1117.517	831.251
316.095	16.173	1116.648	830.955
317.110	16.228	1115.783	830.509
318.125	16.130	1115.662	829.863
319.139	16.189	1114.172	828.974
320.154	16.202	1113.688	828.603
321.168	16.341	1112.925	828.644
322.183	16.237	1112.617	827.831
323.197	16.334	1111.616	827.487
324.212	16.385	1110.768	827.032
325.227	16.309	1110.668	826.515
326.241	16.433	1109.843	826.432
327.256	16.364	1109.210	825.554
328.270	16.355	1108.504	824.910
329.285	16.409	1107.534	824.376
330.300	16.336	1106.402	823.108
331.314	16.329	1105.498	822.325
332.329	16.425	1104.311	821.837
333.343	16.460	1103.626	821.425
334.358	16.420	1102.894	820.613
335.373	16.533	1101.946	820.384
336.387	16.508	1101.848	820.119
337.402	16.513	1100.918	819.379
338.416	16.632	1099.827	819.070
339.431	16.649	1099.218	818.626
340.446	16.679	1098.497	818.163
341.460	16.609	1098.303	817.606
342.475	16.650	1097.048	816.798
343.489	16.691	1096.145	816.249
344.504	16.747	1095.178	815.729
345.519	16.753	1094.397	815.102
346.533	16.871	1093.455	814.898
347.548	16.889	1092.709	814.352
348.562	16.829	1092.315	813.701
349.577	16.756	1091.922	812.984
350.592	16.708	1090.941	811.953
351.606	16.697	1089.967	811.104
352.621	16.695	1089.666	810.798
353.635	16.647	1089.092	810.068
354.650	16.820	1088.247	810.195
355.665	16.837	1087.035	809.305
356.679	16.963	1086.545	809.470
357.694	16.827	1086.267	808.543
358.708	16.860	1085.577	808.113
359.723	16.858	1084.659	807.350
360.738	16.967	1083.963	807.276
361.752	16.867	1083.649	806.496
362.767	16.918	1083.298	806.408
363.781	16.950	1082.658	806.013
364.796	16.957	1081.845	805.369
365.810	17.114	1081.396	805.705
366.825	17.072	1080.723	804.934
367.840	17.140	1080.474	805.001
368.854	17.203	1079.608	804.581
369.869	17.239	1078.614	803.943
370.883	17.147	1078.067	803.026
371.898	16.982	1077.475	801.735
372.913	17.135	1076.546	801.696
373.927	17.248	1075.774	801.584
374.942	17.135	1075.976	801.131
375.956	17.171	1075.262	800.695
376.971	17.250	1074.133	800.159
377.986	17.310	1073.731	800.071
379.000	17.362	1073.050	799.734
380.015	17.272	1072.852	799.097
381.029	17.347	1071.662	798.490
382.044	17.430	1071.098	798.389
383.059	17.416	1070.556	797.848
384.073	17.342	1069.669	796.768
385.088	17.507	1068.466	796.577
386.102	17.410	1067.791	795.549
387.117	17.347	1067.066	794.641
388.132	17.348	1065.959	793.751
389.146	17.369	1065.321	793.303
390.161	17.347	1064.840	792.773
391.175	17.449	1063.947	792.513
392.190	17.390	1063.430	791.784
393.205	17.453	1062.963	791.658
394.219	17.510	1061.842	791.017
395.234	17.471	1060.675	789.898
396.248	17.405	1059.847	788.909
397.263	17.388	1058.598	787.827
398.278	17.415	1058.833	788.057
399.292	17.454	1057.759	787.371
400.307	17.494	1056.759	786.741
401.321	17.500	1056.430	786.454
402.336	17.458	1056.011	785.878
403.350	17.442	1055.381	785.267
404.365	17.570	1054.303	784.985
405.380	17.742	1053.225	784.903
406.394	17.653	1052.709	784.041
407.409	17.590	1052.108	783.235
408.423	17.567	1051.477	782.588
409.438	17.695	1050.731	782.554
410.453	17.628	1050.514	782.013
411.467	17.792	1049.306	781.799
412.482	17.894	1048.675	781.728
413.496	17.829	1048.139	780.961
414.511	17.821	1047.400	780.302
415.526	17.824	1047.117	780.039
416.540	17.840	1047.130	780.052
417.555	17.927	1046.019	779.553
418.569	17.931	1045.306	778.969
419.584	17.975	1044.761	778.696
420.599	17.889	1044.559	778.085
421.613	109.611	1328.262	1488.602
422.628	100.819	1369.553	1488.669
