DTS Sentinel unit serial number:	SN413079Multiplexer serial number:	ORYXHardware model number:	OX4-SRSoftware version number:	ORYX F/W v4.00 Oryx Data Collector v3.7.2.0data status	okinstallation	princeton_trtdifferential loss correction	single-endedforward channel	channel 2reverse channel	N/Adate	2019/09/12time	18:57:49forward acquisition time	15.00reverse acquisition time	0.00gamma	496.2192k internal	0.2325k external	0.2325temperature offset calibration	1.0131default loss term (dB/km)	0.3790temperature slope calibration	1.0000multiplexer offset coefficient	1.0000multiplexer slope coefficient	1.0000fibre end	0.00T internal ref (°C)	32.81T ext. ref 1 (°C)	3.02T ext. ref 2 (°C)	27.35length (m)	temperature (°C)	Stokes	anti-Stokes-747.200	199.852	-0.363	-0.563
-746.185	4.940	-0.466	0.346
-745.171	2.500	0.163	0.119
-744.156	-40.537	0.201	0.105
-743.142	-172.609	0.488	0.016
-742.127	-64.206	0.415	-0.171
-741.112	211.099	0.441	0.700
-740.098	224.756	-0.151	0.247
-739.083	-34.964	0.264	0.145
-738.069	-200.000	-0.117	0.523
-737.054	-16.769	-0.482	0.307
-736.039	-65.952	-0.503	-0.203
-735.025	92.763	0.316	-0.359
-734.010	-200.000	-0.084	0.501
-732.996	-75.258	0.578	0.208
-731.981	-149.892	-0.653	0.051
-730.966	-7.135	0.411	-0.281
-729.952	579.158	-0.192	0.474
-728.937	-60.806	0.171	0.073
-727.923	-66.732	-0.696	-0.278
-726.908	-95.073	0.244	0.066
-725.894	-119.359	0.380	0.067
-724.879	86.997	-0.613	0.683
-723.864	180.300	0.362	0.535
-722.850	-0.582	-0.543	0.388
-721.835	-106.193	-0.469	-0.106
-720.821	181.643	0.123	-0.182
-719.806	-158.086	-0.400	0.024
-718.791	-200.000	-0.016	-0.184
-717.777	800.000	0.248	0.872
-716.762	757.577	0.151	0.413
-715.748	-20.499	0.373	-0.231
-714.733	244.795	0.233	-0.395
-713.718	-0.260	0.382	0.274
-712.704	-126.896	-0.664	0.099
-711.689	800.000	0.204	0.593
-710.675	-119.191	0.868	-0.153
-709.660	83.273	-0.298	-0.327
-708.645	511.181	0.275	-0.644
-707.631	-71.121	0.585	-0.222
-706.616	-200.000	0.002	-0.414
-705.602	-144.431	-0.422	0.039
-704.587	-200.000	0.003	0.482
-703.572	156.573	-0.210	-0.292
-702.558	-200.000	0.074	0.693
-701.543	570.866	0.148	-0.364
-700.529	26.013	0.533	0.448
-699.514	133.399	-0.137	-0.179
-698.499	-200.000	0.009	-0.410
-697.485	-53.875	-0.803	0.369
-696.470	90.181	0.103	-0.116
-695.456	-50.253	-0.597	0.284
-694.441	166.164	-0.782	1.115
-693.426	-141.180	0.301	0.031
-692.412	37.796	-0.391	0.350
-691.397	-143.172	0.493	-0.048
-690.383	204.226	0.179	-0.279
-689.368	182.882	0.572	-0.850
-688.354	118.637	-0.693	-0.862
-687.339	13.279	0.208	-0.162
-686.324	-146.382	-0.145	-0.013
-685.310	-111.094	0.426	-0.088
-684.295	26.395	-0.269	0.227
-683.281	-50.008	0.526	-0.251
-682.266	180.652	0.319	0.471
-681.251	182.859	-0.180	-0.267
-680.237	639.829	-0.279	0.715
-679.222	87.620	0.497	-0.554
-678.208	20.010	-0.620	-0.503
-677.193	-57.163	-0.234	0.104
-676.178	617.569	-0.245	-0.618
-675.164	-200.000	0.002	-0.807
-674.149	-68.327	0.836	0.327
-673.135	272.625	-0.285	0.506
-672.120	800.000	0.052	0.185
-671.105	474.793	0.361	0.821
-670.091	-200.000	0.061	0.455
-669.076	147.886	0.673	0.913
-668.062	222.583	0.385	-0.624
-667.047	-129.007	-1.140	-0.161
-666.032	21.088	0.412	0.337
-665.018	-135.076	0.650	0.079
-664.003	-23.122	0.862	0.522
-662.989	51.407	-0.448	-0.428
-661.974	-200.000	-0.123	0.594
-660.959	191.093	0.252	0.382
-659.945	-200.000	-0.035	-0.695
-658.930	432.106	-0.127	0.277
-657.916	-96.214	0.985	-0.263
-656.901	-88.635	0.530	0.159
-655.886	-135.262	-0.552	-0.067
-654.872	-23.841	0.241	0.145
-653.857	800.000	0.074	-0.308
-652.843	25.191	-0.191	-0.160
-651.828	-131.635	-0.602	-0.080
-650.814	21.796	0.741	0.607
-649.799	-151.018	-0.755	-0.057
-648.784	727.226	0.207	-0.555
-647.770	800.000	-0.303	-1.003
-646.755	102.044	-0.739	-0.867
-645.741	32.067	-0.235	0.204
-644.726	-74.591	0.352	-0.128
-643.711	-23.078	-0.552	-0.334
-642.697	-71.569	-0.518	-0.195
-641.682	61.364	0.301	0.301
-640.668	682.250	0.100	-0.262
-639.653	442.057	0.121	-0.265
-638.638	-75.822	0.521	-0.186
-637.624	800.000	0.086	0.279
-636.609	454.740	0.474	1.056
-635.595	-100.485	-0.522	-0.130
-634.580	252.462	-0.393	-0.673
-633.565	346.118	-0.188	0.372
-632.551	-48.574	-1.109	0.536
-631.536	78.405	0.537	-0.576
-630.522	375.875	-0.183	0.375
-629.507	-56.454	0.596	0.266
-628.492	-200.000	0.000	-0.927
-627.478	81.033	-0.423	0.458
-626.463	487.169	-0.232	0.531
-625.449	-20.439	0.572	-0.353
-624.434	-165.211	0.774	-0.034
-623.419	738.912	-0.269	0.726
-622.405	800.000	-0.109	-0.326
-621.390	343.764	-0.245	-0.483
-620.376	136.473	0.579	0.759
-619.361	-200.000	-0.133	-0.668
-618.346	800.000	0.243	0.813
-617.332	28.501	0.552	0.469
-616.317	118.205	0.242	0.300
-615.303	-96.549	-0.248	0.066
-614.288	-153.204	-0.817	-0.057
-613.273	27.884	-0.415	0.352
-612.259	-200.000	0.045	0.235
-611.244	-200.000	0.015	0.272
-610.230	54.212	0.675	-0.653
-609.215	-192.820	0.187	0.002
-608.201	600.529	-0.200	0.499
-607.186	209.020	-0.274	0.430
-606.171	-164.734	-0.764	0.035
-605.157	-19.641	-0.778	0.483
-604.142	-110.175	-0.737	0.154
-603.128	190.821	0.248	0.374
-602.113	321.328	-0.385	0.735
-601.098	-150.799	-0.467	-0.036
-600.084	-200.000	-0.051	-0.505
-599.069	-131.485	-0.975	-0.129
-598.055	744.057	-0.384	1.038
-597.040	-54.429	-0.335	-0.152
-596.025	-91.746	0.330	-0.094
-595.011	777.334	-0.200	0.548
-593.996	-141.598	-0.461	0.047
-592.982	-73.292	0.477	-0.175
-591.967	27.586	-0.274	0.232
-590.952	336.627	0.052	0.100
-589.938	800.000	0.077	0.313
-588.923	105.138	-0.734	-0.869
-587.909	800.000	0.162	0.484
-586.894	283.395	0.195	-0.351
-585.879	-75.747	0.610	-0.217
-584.865	-200.000	0.009	-0.358
-583.850	-122.510	-0.785	-0.128
-582.836	-164.350	0.503	0.023
-581.821	28.389	-0.429	0.363
-580.806	-200.000	-0.071	0.882
-579.792	-64.690	0.513	-0.209
-578.777	-8.702	-0.824	-0.555
-577.763	10.663	-0.206	0.157
-576.748	-132.373	-0.641	0.083
-575.733	-200.000	-0.023	0.381
-574.719	51.046	-0.121	0.115
-573.704	53.158	-0.393	-0.377
-572.690	-116.408	-1.355	-0.251
-571.675	-102.498	-1.002	0.240
-570.661	-54.095	-1.028	-0.469
-569.646	337.391	-0.327	-0.637
-568.631	-200.000	-0.065	0.309
-567.617	-145.021	-0.785	-0.072
-566.602	-91.146	-0.655	0.188
-565.588	111.274	-0.079	-0.095
-564.573	275.489	-0.151	-0.268
-563.558	258.522	0.469	-0.810
-562.544	255.417	-0.301	-0.517
-561.529	-133.775	-0.296	-0.037
-560.515	-21.107	-0.161	0.099
-559.500	71.690	-0.378	0.394
-558.485	282.216	-0.201	0.361
-557.471	-38.573	0.565	-0.299
-556.456	151.038	-0.599	0.816
-555.442	-156.317	0.889	-0.056
-554.427	142.766	0.319	0.424
-553.412	800.000	0.161	-0.571
-552.398	227.571	0.634	-1.032
-551.383	-82.884	0.230	-0.074
-550.369	-180.595	0.825	-0.017
-549.354	800.000	-0.224	0.689
-548.339	340.750	0.092	0.181
-547.325	-200.000	0.080	0.750
-546.310	63.375	0.572	-0.574
-545.296	-200.000	-0.054	0.408
-544.281	26.059	0.397	0.332
-543.266	81.744	-0.447	-0.485
-542.252	-200.000	-0.051	-0.272
-541.237	147.001	0.411	0.553
-540.223	-200.000	0.043	-0.489
-539.208	-82.612	-0.379	-0.123
-538.193	-88.014	-0.643	-0.193
-537.179	800.000	0.178	0.639
-536.164	800.000	-0.008	-0.029
-535.150	-15.843	-0.177	-0.113
-534.135	-200.000	-0.006	0.089
-533.121	95.076	-0.402	-0.459
-532.106	-200.000	0.033	-0.306
-531.091	-14.943	-0.751	-0.482
-530.077	14.119	0.095	-0.074
-529.062	-40.697	0.358	0.186
-528.048	113.912	0.167	0.203
-527.033	-91.266	-0.913	0.261
-526.018	679.735	0.398	-1.035
-525.004	193.569	-0.131	0.199
-523.989	-200.000	0.012	0.831
-522.975	18.766	0.322	0.258
-521.960	-88.667	-0.563	-0.168
-520.945	-18.378	-0.280	-0.175
-519.931	-47.034	0.396	0.193
-518.916	34.911	-0.602	-0.527
-517.902	233.938	-0.286	-0.471
-516.887	-23.522	-0.213	0.128
-515.872	43.908	0.280	0.256
-514.858	87.951	-0.607	0.673
-513.843	-163.817	0.213	-0.010
-512.829	89.716	-0.368	-0.411
-511.814	633.161	-0.283	0.716
-510.799	-3.099	0.698	0.487
-509.785	2.425	0.307	0.222
-508.770	-200.000	0.020	-0.191
-507.756	377.129	0.350	0.715
-506.741	-122.294	-0.430	-0.070
-505.726	104.463	-0.175	0.206
-504.712	800.000	-0.108	-0.355
-503.697	-81.385	-0.679	0.224
-502.683	800.000	-0.047	-0.206
-501.668	-33.262	0.441	0.244
-500.653	208.740	-0.527	0.824
-499.639	-200.000	0.017	-0.132
-498.624	276.657	0.061	0.108
-497.610	-86.009	-0.936	0.289
-496.595	-109.928	-0.111	0.023
-495.581	195.515	0.345	0.524
-494.566	-102.842	0.861	-0.205
-493.551	62.361	-0.537	0.536
-492.537	65.657	0.386	-0.390
-491.522	38.854	0.469	0.419
-490.508	-200.000	-0.026	-0.518
-489.493	201.390	0.564	-0.867
-488.478	262.939	-0.287	0.498
-487.464	-79.457	0.572	0.193
-486.449	268.209	0.543	-0.950
-485.435	90.725	0.448	0.502
-484.420	800.000	0.176	-0.531
-483.405	-200.000	0.016	0.230
-482.391	126.430	0.130	0.165
-481.376	131.144	-0.458	0.587
-480.362	730.495	-0.118	0.316
-479.347	66.060	-0.884	-0.896
-478.332	236.928	-0.490	-0.811
-477.318	-200.000	0.105	-0.746
-476.303	-200.000	-0.041	0.423
-475.289	0.941	-0.452	-0.324
-474.274	-200.000	-0.231	-1.075
-473.259	-30.754	-0.419	0.237
-472.245	-135.238	0.473	-0.057
-471.230	-200.000	0.050	-0.231
-470.216	-178.840	0.488	-0.011
-469.201	169.434	0.218	-0.311
-468.186	-200.000	0.062	-0.339
-467.172	-200.000	0.022	-0.218
-466.157	-104.063	-0.101	-0.024
-465.143	-200.000	0.105	0.878
-464.128	112.793	0.244	-0.295
-463.113	-106.499	-0.252	-0.056
-462.099	31.629	0.351	0.301
-461.084	-200.000	0.019	-0.413
-460.070	-147.695	-0.199	-0.017
-459.055	-113.315	0.921	0.181
-458.040	-200.000	0.008	-0.197
-457.026	-144.338	-0.525	-0.049
-456.011	478.253	0.173	0.390
-454.997	40.095	0.444	0.398
-453.982	127.184	-0.031	-0.039
-452.968	-136.812	0.354	-0.041
-451.953	-8.389	-1.162	-0.780
-450.938	2.218	-0.508	0.366
-449.924	800.000	-0.155	0.629
-448.909	-103.162	0.779	0.184
-447.895	504.246	-0.191	-0.441
-446.880	-145.504	-0.193	-0.017
-445.865	512.274	0.532	1.235
-444.851	-60.411	0.734	-0.311
-443.836	-200.000	-0.090	-0.650
-442.822	800.000	0.194	-0.616
-441.807	667.490	0.363	-0.936
-440.792	578.493	0.115	-0.282
-439.778	-200.000	0.164	0.826
-438.763	141.988	-0.084	-0.111
-437.749	-88.663	-0.035	0.011
-436.734	800.000	-0.097	-0.353
-435.719	42.465	-0.166	-0.151
-434.705	175.843	0.724	1.048
-433.690	-104.084	-0.334	-0.077
-432.676	237.195	-0.405	0.669
-431.661	-123.869	-0.484	-0.076
-430.646	-27.133	0.343	0.199
-429.632	-107.845	-0.225	-0.049
-428.617	-31.756	-0.115	0.064
-427.603	336.742	-0.383	-0.742
-426.588	-166.312	-0.277	-0.012
-425.573	-75.443	0.687	0.244
-424.559	-85.632	-0.236	0.073
-423.544	-200.000	-0.013	-0.430
-422.530	75.494	-0.281	0.295
-421.515	335.755	0.333	0.644
-420.500	-200.000	-0.080	-0.812
-419.486	-185.904	0.313	0.005
-418.471	-81.475	0.538	-0.176
-417.457	326.163	0.199	0.379
-416.442	-200.000	0.042	0.446
-415.428	-105.062	0.329	-0.075
-414.413	-106.506	0.596	0.132
-413.398	131.801	-0.385	0.493
-412.384	143.539	-0.431	-0.572
-411.369	-162.670	0.996	0.049
-410.355	-43.343	-0.106	-0.053
-409.340	201.423	-0.300	-0.460
-408.325	61.860	-0.252	-0.250
-407.311	-200.000	0.014	0.380
-406.296	320.767	0.152	-0.287
-405.282	-63.725	-0.477	0.195
-404.267	-118.867	-0.737	-0.129
-403.252	-200.000	0.072	-0.381
-402.238	-69.175	-0.334	-0.128
-401.223	276.444	-0.491	0.868
-400.209	-113.912	-0.190	0.037
-399.194	-154.363	0.591	0.040
-398.179	-57.427	-0.465	0.203
-397.165	76.901	-0.379	0.400
-396.150	-200.000	0.027	0.341
-395.136	276.758	-0.497	-0.879
-394.121	-84.911	0.272	-0.085
-393.106	-200.000	0.033	-0.239
-392.092	800.000	0.187	-0.573
-391.077	-64.421	0.790	-0.320
-390.063	82.124	-0.109	-0.118
-389.048	-200.000	0.048	-0.297
-388.033	-133.228	-0.114	-0.014
-387.019	65.971	-0.379	0.383
-386.004	-183.115	-0.255	0.004
-384.990	646.604	0.351	0.893
-383.975	158.011	-0.026	0.036
-382.960	0.376	-0.786	-0.558
-381.946	-52.994	0.804	-0.368
-380.931	228.229	-0.130	-0.211
-379.917	183.782	-0.239	0.351
-378.902	65.150	-0.263	0.264
-377.888	-105.074	0.388	0.088
-376.873	-20.278	-0.611	0.374
-375.858	546.689	-0.219	0.521
-374.844	193.736	0.147	0.222
-373.829	-39.601	-0.578	0.301
-372.815	-47.318	0.282	0.137
-371.800	188.514	-0.232	0.346
-370.785	800.000	0.064	0.213
-369.771	-200.000	0.117	0.565
-368.756	800.000	0.329	-0.943
-367.742	501.575	0.448	1.028
-366.727	-61.429	0.672	0.281
-365.712	-120.864	-0.476	-0.080
-364.698	800.000	0.254	0.760
-363.683	-152.412	-0.222	-0.016
-362.669	-87.936	-0.369	0.110
-361.654	-85.598	1.023	-0.316
-360.639	800.000	-0.110	-0.387
-359.625	51.996	0.306	-0.289
-358.610	72.255	-0.490	0.507
-357.596	115.998	0.664	-0.808
-356.581	478.417	-0.116	-0.261
-355.566	303.195	-0.289	-0.532
-354.552	-67.778	0.673	-0.262
-353.537	-137.361	0.219	-0.025
-352.523	58.052	0.250	-0.243
-351.508	-87.409	0.446	-0.134
-350.493	78.069	-0.198	0.210
-349.479	-200.000	0.077	-0.405
-348.464	-200.000	0.048	-0.336
-347.450	514.624	0.291	0.676
-346.435	14.121	0.241	0.186
-345.420	-9.912	0.590	0.390
-344.406	-129.150	0.506	0.070
-343.391	247.231	0.289	-0.486
-342.377	282.738	0.173	0.309
-341.362	-92.140	0.585	-0.164
-340.348	530.203	-0.382	-0.897
-339.333	103.755	0.235	-0.274
-338.318	-4.494	0.521	0.357
-337.304	113.118	0.363	0.437
-336.289	-106.990	0.517	-0.114
-335.275	-19.389	-0.253	0.156
-334.260	800.000	-0.236	0.778
-333.245	-61.415	0.718	0.300
-332.231	-200.000	-0.102	0.714
-331.216	-200.000	0.031	0.511
-330.202	800.000	-0.199	0.618
-329.187	-200.000	0.120	-0.693
-328.172	800.000	-0.333	-1.039
-327.158	-181.230	-0.347	0.007
-326.143	-200.000	-0.018	0.423
-325.129	410.430	-0.259	0.545
-324.114	-31.916	-0.239	0.133
-323.099	-107.498	-0.407	-0.088
-322.085	-38.531	0.577	-0.302
-321.070	-157.316	-0.157	-0.009
-320.056	-200.000	-0.144	0.720
-319.041	-200.000	-0.145	0.649
-318.026	56.542	0.289	-0.279
-317.012	-59.152	0.633	-0.271
-315.997	150.628	0.015	-0.020
-314.983	-153.110	0.504	-0.035
-313.968	163.228	-0.551	0.769
-312.953	-178.124	0.671	0.016
-311.939	-133.292	-0.857	-0.107
-310.924	-98.266	-0.641	0.163
-309.910	-103.907	0.934	-0.216
-308.895	-35.572	-0.156	0.084
-307.880	-196.778	-0.942	-0.006
-306.866	-110.156	0.143	0.030
-305.851	715.594	0.173	0.454
-304.837	-200.000	0.096	-0.729
-303.822	36.351	-0.506	0.443
-302.807	294.224	-0.091	-0.164
-301.793	800.000	0.151	0.601
-300.778	-130.178	0.278	0.038
-299.764	33.837	-0.220	0.190
-298.749	-78.297	-0.458	-0.156
-297.735	-89.610	-0.125	0.036
-296.720	-2.113	0.403	0.281
-295.705	-200.000	0.102	-0.915
-294.691	-131.990	0.404	0.052
-293.676	-170.371	0.504	-0.018
-292.662	66.971	-0.819	-0.827
-291.647	-104.383	0.765	0.176
-290.632	-88.686	-0.790	0.233
-289.618	800.000	0.181	-0.559
-288.603	-67.181	-0.728	0.284
-287.589	-14.763	0.375	-0.239
-286.574	195.892	0.263	-0.396
-285.559	35.185	0.715	-0.621
-284.545	-200.000	-0.125	0.782
-283.530	709.560	0.030	0.079
-282.516	-84.158	0.485	-0.153
-281.501	150.270	0.315	0.424
-280.486	295.747	-0.304	0.552
-279.472	-35.689	-0.318	0.171
-278.457	72.447	0.100	0.103
-277.443	-20.570	0.230	-0.140
-276.428	-14.727	-0.491	-0.312
-275.413	92.659	0.483	-0.540
-274.399	-200.000	-0.029	0.232
-273.384	800.000	0.133	0.371
-272.370	-112.987	-0.386	-0.076
-271.355	-100.190	0.210	-0.052
-270.340	326.100	0.324	-0.615
-269.326	800.000	0.121	-0.348
-268.311	-53.024	-0.604	0.275
-267.297	-105.686	-0.540	-0.121
-266.282	-200.000	0.078	-0.350
-265.267	-75.269	-0.185	-0.066
-264.253	-200.000	0.129	0.768
-263.238	-128.882	0.479	-0.067
-262.224	-128.274	0.168	-0.024
-261.209	57.565	-0.666	-0.645
-260.195	800.000	0.060	-0.212
-259.180	-116.127	-0.837	0.154
-258.165	236.464	-0.541	-0.887
-257.151	-200.000	0.072	0.479
-256.136	-42.767	-0.414	-0.209
-255.122	116.228	0.738	-0.895
-254.107	800.000	-0.217	0.654
-253.092	563.435	0.088	0.210
-252.078	-33.319	0.498	0.273
-251.063	6.490	-0.173	-0.127
-250.049	83.295	0.411	0.443
-249.034	269.621	0.271	-0.470
-248.019	187.259	-0.139	0.206
-247.005	-13.564	-0.587	-0.376
-245.990	-102.999	0.482	-0.113
-244.976	-127.924	1.181	-0.168
-243.961	377.631	-0.063	0.127
-242.946	-200.000	-0.041	0.420
-241.932	-200.000	0.087	-0.597
-240.917	-33.838	0.443	0.242
-239.903	-200.000	0.151	0.657
-238.888	-120.032	-0.513	0.087
-237.873	800.000	-0.203	-0.558
-236.859	800.000	0.120	0.459
-235.844	800.000	0.303	0.836
-234.830	800.000	-0.217	0.717
-233.815	800.000	0.422	-1.291
-232.800	-51.741	0.552	-0.255
-231.786	-33.612	0.450	-0.246
-230.771	-33.506	-0.212	-0.116
-229.757	-107.278	0.931	0.203
-228.742	51.416	0.268	-0.252
-227.727	60.430	0.574	0.562
-226.713	32.548	-0.560	0.478
-225.698	-200.000	-0.002	0.226
-224.684	-77.449	0.846	0.290
-223.669	-200.000	-0.079	-0.716
-222.655	-200.000	0.082	-0.444
-221.640	-200.000	0.074	0.670
-220.625	-4.160	-0.665	0.456
-219.611	-57.211	0.593	0.258
-218.596	-97.985	0.276	-0.070
-217.582	-114.394	-0.599	-0.114
-216.567	196.733	0.280	0.422
-215.552	784.834	-0.099	-0.268
-214.538	-200.000	-0.131	-0.779
-213.523	-200.000	0.008	-0.068
-212.509	-162.236	0.648	-0.032
-211.494	-200.000	0.095	0.727
-210.479	-200.000	-0.108	0.554
-209.465	-12.933	-0.263	0.169
-208.450	-103.589	-0.506	-0.117
-207.436	-200.000	0.038	-0.425
-206.421	-200.000	0.039	-0.202
-205.406	-37.941	1.209	-0.635
-204.392	-67.190	0.363	-0.141
-203.377	800.000	0.088	0.256
-202.363	-93.602	0.120	0.033
-201.348	102.166	0.043	-0.049
-200.333	795.906	0.219	-0.597
-199.319	-200.000	0.051	0.239
-198.304	800.000	-0.082	-0.307
-197.290	-200.000	0.032	-0.208
-196.275	-200.000	-0.018	0.130
-195.260	-119.605	0.296	0.051
-194.246	-14.819	0.966	0.612
-193.231	-200.000	-0.083	0.706
-192.217	8.813	0.851	0.634
-191.202	-200.000	0.095	-1.083
-190.187	303.606	-0.343	-0.628
-189.173	160.645	-0.180	0.249
-188.158	-132.388	0.270	-0.034
-187.144	125.312	0.072	-0.090
-186.129	-200.000	0.010	0.469
-185.114	597.474	0.147	-0.360
-184.100	-163.048	-0.279	0.013
-183.085	395.095	-0.258	0.531
-182.071	-200.000	0.096	-0.580
-181.056	135.406	-0.572	-0.735
-180.042	88.435	-0.335	-0.368
-179.027	-22.555	0.229	0.137
-178.012	-200.000	-0.075	0.394
-176.998	148.472	0.597	0.795
-175.983	-200.000	-0.120	0.536
-174.969	-131.285	-0.500	-0.065
-173.954	353.577	-0.348	-0.681
-172.939	14.231	-0.492	-0.378
-171.925	251.316	-0.270	0.453
-170.910	14.256	-0.663	-0.510
-169.896	-95.544	0.563	-0.149
-168.881	-156.184	0.626	-0.039
-167.866	-77.905	-0.432	-0.147
-166.852	800.000	0.232	-0.795
-165.837	-103.515	-0.081	0.019
-164.823	495.431	0.310	-0.704
-163.808	768.727	-0.120	0.323
-162.793	-200.000	0.094	-0.443
-161.779	-150.362	0.921	0.070
-160.764	118.859	0.158	0.193
-159.750	60.268	0.851	-0.830
-158.735	-2.752	-0.257	0.177
-157.720	-48.830	0.455	-0.215
-156.706	-102.127	0.441	-0.105
-155.691	35.907	-0.179	-0.155
-154.677	-200.000	0.054	-0.306
-153.662	145.704	0.405	-0.535
-152.647	-200.000	0.009	0.263
-151.633	27.414	-0.137	-0.114
-150.618	-127.262	0.208	-0.030
-149.604	102.989	0.435	-0.502
-148.589	195.933	0.196	0.294
-147.574	78.649	-0.080	0.084
-146.560	63.866	-0.410	0.406
-145.545	270.456	-0.155	-0.270
-144.531	-123.124	0.634	0.100
-143.516	-5.653	0.098	0.067
-142.502	161.450	0.616	0.850
-141.487	175.290	0.641	0.915
-140.472	-50.903	0.313	-0.145
-139.458	764.746	0.112	-0.300
-138.443	800.000	0.018	0.060
-137.429	-200.000	0.098	-0.429
-136.414	-159.161	-0.917	-0.051
-135.399	-200.000	0.058	-0.319
-134.385	-200.000	0.030	-0.534
-133.370	800.000	0.173	-0.590
-132.356	759.291	0.356	-0.950
-131.341	800.000	0.159	0.463
-130.326	-17.542	-0.362	0.224
-129.312	-12.705	-0.288	0.185
-128.297	-35.127	0.815	-0.438
-127.283	800.000	0.063	-0.221
-126.268	-39.040	0.536	0.278
-125.253	800.000	-0.111	-0.310
-124.239	234.449	0.267	-0.434
-123.224	-31.271	-0.247	0.137
-122.210	169.620	-0.397	-0.558
-121.195	-20.988	0.234	-0.141
-120.180	-95.763	-1.027	0.270
-119.166	251.783	0.316	-0.530
-118.151	-67.480	-0.276	0.107
-117.137	-76.041	-0.856	0.298
-116.122	39.633	-0.246	-0.217
-115.107	140.313	-0.172	-0.224
-114.093	-23.460	0.958	-0.566
-113.078	556.000	-0.404	-0.958
-112.064	800.000	-0.032	-0.105
-111.049	-200.000	0.028	0.332
-110.034	800.000	-0.036	-0.150
-109.020	-105.453	0.553	0.124
-108.005	573.674	-0.186	-0.447
-106.991	-107.106	0.463	-0.101
-105.976	-11.846	-0.810	0.523
-104.962	392.116	-0.311	0.637
-103.947	18.758	-0.375	0.295
-102.932	-200.000	-0.005	0.761
-101.918	252.387	0.326	0.547
-100.903	-200.000	0.005	0.302
-99.889	-46.950	0.214	0.103
-98.874	100.413	0.398	0.454
-97.859	470.271	0.266	0.588
-96.845	-200.000	0.058	-0.347
-95.830	75.610	0.336	-0.349
-94.816	-11.657	-0.061	0.040
-93.801	521.735	-0.257	0.595
-92.786	0.310	-0.273	0.192
-91.772	-200.000	0.061	0.957
-90.757	591.088	-0.247	-0.599
-89.743	98.288	0.841	0.953
-88.728	-79.256	0.526	0.175
-87.713	-32.641	0.371	-0.203
-86.699	-200.000	0.009	-0.142
-85.684	13.265	-0.263	-0.200
-84.670	-198.853	-0.689	0.004
-83.655	-200.000	-0.149	-0.689
-82.640	2.218	-0.437	-0.311
-81.626	-54.012	0.644	0.288
-80.611	-6.250	0.560	0.376
-79.597	800.000	-0.178	0.679
-78.582	169.843	-0.378	0.531
-77.567	-200.000	-0.004	0.422
-76.553	201.179	0.357	-0.540
-75.538	-63.243	0.453	-0.184
-74.524	-137.857	0.090	-0.010
-73.509	-21.809	0.433	-0.259
-72.494	-200.000	0.055	0.397
-71.480	-137.014	0.656	0.074
-70.465	-92.745	-1.109	-0.305
-69.451	-175.173	-0.334	-0.009
-68.436	289.766	0.225	-0.401
-67.422	-119.847	-0.499	-0.084
-66.407	110.432	0.216	0.255
-65.392	24.522	-0.483	-0.393
-64.378	-154.176	-0.540	-0.036
-63.363	-200.000	0.030	0.271
-62.349	800.000	0.074	0.295
-61.334	800.000	-0.316	-0.998
-60.319	20.163	0.731	0.580
-59.305	42.448	-0.807	-0.721
-58.290	651.624	0.297	0.749
-57.276	373.615	0.544	1.087
-56.261	-200.000	95.001	577.659
-55.246	670.051	1357.441	3452.416
-54.232	202.684	2530.229	3838.204
-53.217	112.598	2250.309	2675.616
-52.203	42.146	1881.279	1677.978
-51.188	36.154	1673.829	1448.050
-50.173	33.402	1629.433	1389.433
-49.159	51.635	1678.021	1566.922
-48.144	52.539	1695.279	1589.700
-47.130	35.582	1655.114	1427.389
-46.115	33.022	1640.910	1396.192
-45.100	32.797	1635.171	1389.593
-44.086	32.585	1633.067	1386.195
-43.071	32.922	1629.760	1385.802
-42.057	32.871	1627.361	1383.339
-41.042	32.709	1627.063	1381.843
-40.027	32.737	1624.635	1379.930
-39.013	32.593	1622.458	1376.971
-37.998	32.692	1620.590	1376.057
-36.984	32.639	1620.233	1375.310
-35.969	33.015	1617.066	1375.304
-34.954	32.890	1616.744	1374.067
-33.940	32.829	1614.361	1371.543
-32.925	32.871	1612.597	1370.294
-31.911	32.915	1610.725	1368.970
-30.896	32.610	1610.064	1366.143
-29.881	32.870	1608.088	1366.298
-28.867	32.742	1606.901	1364.303
-27.852	32.696	1605.509	1362.734
-26.838	32.746	1603.656	1361.469
-25.823	32.800	1602.750	1361.039
-24.809	32.939	1600.487	1360.065
-23.794	32.743	1599.099	1357.417
-22.779	32.989	1597.501	1357.781
-21.765	32.742	1596.112	1354.769
-20.750	32.935	1593.302	1353.712
-19.736	32.638	1593.554	1351.742
-18.721	32.868	1591.880	1351.916
-17.706	32.852	1589.575	1349.796
-16.692	32.626	1589.085	1347.710
-15.677	32.842	1587.685	1348.012
-14.663	32.859	1586.601	1347.157
-13.648	32.918	1585.323	1346.442
-12.633	32.722	1583.677	1343.592
-11.619	32.915	1582.036	1343.518
-10.604	32.978	1579.953	1342.144
-9.590	32.882	1578.497	1340.176
-8.575	32.827	1577.670	1339.030
-7.560	32.886	1575.823	1337.827
-6.546	32.986	1575.606	1338.295
-5.531	32.808	1574.217	1335.805
-4.517	32.912	1573.276	1335.686
-3.502	32.819	1572.231	1334.087
-2.487	32.766	1570.393	1332.100
-1.473	32.698	1557.902	1320.979
-0.458	29.806	1538.018	1284.027
0.556	27.345	1538.918	1253.147
1.571	24.840	1561.628	1254.000
2.586	24.266	1574.490	1260.160
3.600	21.584	1520.971	1198.877
4.615	12.327	1413.395	1054.800
5.629	4.570	1348.625	958.677
6.644	3.309	1339.784	944.581
7.659	2.931	1338.959	941.596
8.673	3.010	1338.220	941.477
9.688	2.832	1336.669	939.212
10.702	2.937	1333.746	937.719
11.717	6.393	1339.301	962.700
12.731	15.587	1356.929	1031.995
13.746	23.232	1369.563	1088.722
14.761	24.746	1371.724	1099.659
15.775	25.031	1370.147	1100.047
16.790	24.858	1370.053	1098.814
17.804	24.949	1368.212	1097.797
18.819	25.002	1368.921	1098.597
19.834	24.815	1368.971	1097.390
20.848	25.059	1367.019	1097.225
21.863	25.221	1366.738	1097.892
22.877	25.267	1365.198	1096.836
23.892	25.108	1364.199	1094.966
24.907	25.050	1362.529	1093.177
25.921	25.128	1362.291	1093.364
26.936	25.096	1361.699	1092.597
27.950	24.965	1360.894	1091.060
28.965	25.418	1359.468	1092.571
29.980	25.179	1358.755	1090.451
30.994	25.163	1357.558	1089.295
32.009	25.171	1356.952	1088.762
33.023	25.232	1355.672	1088.012
34.038	25.164	1355.030	1086.987
35.053	25.144	1353.279	1085.366
36.067	25.069	1352.527	1084.209
37.082	24.949	1352.367	1083.258
38.096	25.050	1351.321	1082.936
39.111	25.313	1349.359	1082.857
40.126	25.472	1348.390	1082.939
41.140	25.143	1348.455	1080.915
42.155	24.939	1348.194	1079.379
43.169	24.967	1348.797	1079.934
44.184	25.074	1347.740	1079.638
45.199	24.851	1347.275	1077.830
46.213	25.014	1347.757	1079.101
47.228	25.199	1346.475	1079.090
48.242	25.087	1345.076	1077.199
49.257	25.293	1343.929	1077.421
50.271	25.051	1342.707	1074.898
51.286	24.980	1341.342	1073.283
52.301	24.859	1341.154	1072.313
53.315	25.032	1339.066	1071.583
54.330	25.056	1339.076	1071.641
55.344	25.134	1337.064	1070.403
56.359	25.169	1336.358	1069.950
57.374	25.136	1335.533	1069.000
58.388	25.080	1335.929	1068.888
59.403	24.993	1334.950	1067.491
60.417	25.276	1332.949	1067.479
61.432	24.925	1334.553	1066.581
62.447	24.916	1332.754	1064.995
63.461	24.805	1332.024	1063.655
64.476	24.946	1330.532	1063.208
65.490	25.265	1327.956	1062.944
66.505	24.986	1327.859	1061.119
67.520	24.841	1326.853	1059.367
68.534	24.948	1326.283	1059.447
69.549	25.028	1325.449	1059.164
70.563	24.977	1323.712	1057.382
71.578	24.869	1322.786	1055.907
72.593	24.900	1322.023	1055.388
73.607	24.810	1321.845	1054.622
74.622	25.000	1320.866	1054.867
75.636	25.057	1320.482	1054.802
76.651	24.916	1319.081	1052.762
77.666	25.118	1318.530	1053.416
78.680	24.917	1319.303	1052.756
79.695	24.627	1318.349	1050.197
80.709	25.234	1315.943	1051.748
81.724	25.115	1317.068	1051.860
82.739	24.990	1316.472	1050.554
83.753	24.924	1315.327	1049.163
84.768	25.286	1314.093	1050.203
85.782	25.319	1312.290	1048.860
86.797	25.305	1311.751	1048.256
87.812	25.217	1309.859	1046.141
88.826	25.096	1308.645	1044.371
89.841	25.042	1308.006	1043.453
90.855	25.253	1307.597	1044.265
91.870	25.261	1307.650	1044.259
92.884	25.483	1305.743	1043.936
93.899	25.264	1305.642	1042.492
94.914	25.461	1304.538	1042.659
95.928	25.256	1304.493	1041.342
96.943	25.290	1303.772	1040.872
97.957	25.191	1302.854	1039.473
98.972	25.527	1300.304	1039.292
99.987	25.189	1300.022	1037.021
101.001	25.460	1298.689	1037.429
102.016	25.301	1298.010	1035.878
103.030	25.173	1297.673	1034.780
104.045	25.336	1296.027	1034.314
105.060	25.171	1295.963	1033.222
106.074	25.178	1293.613	1031.298
107.089	24.897	1294.105	1029.981
108.103	24.883	1291.491	1027.731
109.118	25.015	1290.243	1027.399
110.133	24.856	1290.585	1026.667
111.147	24.687	1288.586	1024.021
112.162	25.172	1287.285	1025.670
113.176	25.501	1285.833	1026.302
114.191	25.215	1284.928	1023.856
115.206	25.062	1284.476	1022.536
116.220	25.164	1282.662	1021.580
117.235	25.090	1282.421	1020.876
118.249	24.888	1281.947	1019.258
119.264	25.065	1280.094	1018.703
120.279	25.101	1280.385	1019.047
121.293	25.084	1278.692	1017.514
122.308	24.992	1278.635	1016.855
123.322	24.883	1277.776	1015.461
124.337	25.014	1276.990	1015.492
125.352	24.986	1276.981	1015.238
126.366	24.848	1276.231	1013.766
127.381	25.056	1274.548	1013.517
128.395	25.010	1273.338	1012.204
129.410	25.014	1271.871	1010.974
130.424	24.946	1271.622	1010.300
131.439	25.005	1270.943	1010.008
132.454	24.725	1270.990	1008.373
133.468	25.096	1269.925	1009.532
134.483	25.099	1269.808	1009.366
135.497	25.234	1269.071	1009.452
136.512	25.066	1267.811	1007.415
137.527	24.977	1265.507	1004.994
138.541	25.169	1265.573	1006.034
139.556	24.890	1264.568	1003.586
140.570	25.043	1263.668	1003.638
141.585	25.280	1263.088	1004.414
142.600	25.326	1261.779	1003.541
143.614	25.490	1260.655	1003.475
144.629	25.431	1260.863	1003.225
145.643	25.155	1259.510	1000.519
146.658	25.369	1257.662	1000.153
147.673	25.276	1257.447	999.377
148.687	25.293	1256.074	998.290
149.702	25.179	1254.614	996.410
150.716	24.943	1253.581	994.189
151.731	24.535	1251.894	990.505
152.746	25.085	1250.239	992.151
153.760	25.132	1250.244	992.326
154.775	25.384	1249.373	992.940
155.789	25.345	1248.431	991.888
156.804	25.235	1247.970	990.829
157.819	24.805	1246.320	987.061
158.833	25.248	1245.877	989.059
159.848	25.425	1245.773	989.870
160.862	25.160	1244.543	987.344
161.877	25.193	1244.036	987.035
162.892	24.959	1243.440	985.186
163.906	24.775	1242.326	983.209
164.921	25.171	1240.382	983.753
165.935	25.362	1239.311	983.865
166.950	25.085	1240.036	982.836
167.964	25.360	1239.029	983.453
168.979	25.158	1238.953	982.201
169.994	25.033	1237.705	980.443
171.008	24.880	1236.472	978.540
172.023	25.011	1237.645	980.098
173.037	25.277	1235.321	979.623
174.052	25.147	1234.696	978.332
175.067	25.167	1232.941	976.968
176.081	24.979	1233.264	976.112
177.096	25.171	1232.072	976.126
178.110	25.022	1230.782	974.207
179.125	25.203	1229.529	974.112
180.140	25.227	1228.778	973.562
181.154	25.421	1226.867	973.014
182.169	25.167	1226.263	971.073
183.183	25.229	1225.797	970.955
184.198	25.343	1224.108	970.143
185.213	25.159	1224.418	969.309
186.227	25.434	1222.783	969.416
187.242	25.280	1222.489	968.262
188.256	25.382	1221.400	967.865
189.271	25.369	1220.367	966.892
190.286	25.176	1219.445	965.038
191.300	25.007	1218.440	963.247
192.315	24.973	1218.831	963.292
193.329	25.114	1218.333	963.568
194.344	24.985	1217.736	962.316
195.359	25.171	1216.415	962.187
196.373	24.875	1216.006	960.189
197.388	24.743	1215.432	958.943
198.402	24.989	1215.475	960.214
199.417	25.286	1215.332	961.604
200.432	25.555	1214.435	962.250
201.446	25.395	1213.829	960.828
202.461	25.404	1213.452	960.496
203.475	25.397	1212.233	959.408
204.490	25.195	1210.568	956.928
205.504	25.099	1208.935	955.043
206.519	25.108	1208.937	955.008
207.534	24.810	1208.374	952.890
208.548	24.642	1206.428	950.379
209.563	24.865	1206.256	951.343
210.577	24.750	1205.339	949.922
211.592	25.201	1203.802	951.024
212.607	25.181	1204.285	951.213
213.621	25.392	1203.625	951.728
214.636	25.139	1201.178	948.371
215.650	25.355	1200.909	949.215
216.665	25.244	1200.223	948.000
217.680	25.133	1200.550	947.590
218.694	25.276	1199.285	947.262
219.709	25.382	1198.123	946.819
220.723	25.354	1196.881	945.604
221.738	25.246	1197.270	945.258
222.753	25.025	1196.083	943.075
223.767	25.110	1195.694	943.133
224.782	25.126	1195.672	943.117
225.796	25.479	1194.625	944.060
226.811	25.083	1194.727	941.982
227.826	25.020	1194.079	941.053
228.840	25.144	1192.549	940.413
229.855	25.106	1191.665	939.434
230.869	25.101	1190.961	938.770
231.884	24.783	1190.611	936.747
232.899	24.851	1188.924	935.691
233.913	24.789	1189.044	935.379
234.928	25.389	1187.935	937.560
235.942	25.098	1187.470	935.591
236.957	25.055	1186.285	934.348
237.972	24.444	1186.671	931.380
238.986	24.845	1185.523	932.491
240.001	24.828	1184.990	931.901
241.015	24.699	1184.400	930.681
242.030	25.029	1184.259	932.207
243.045	25.088	1182.782	931.268
244.059	25.316	1181.438	931.309
245.074	25.283	1180.874	930.611
246.088	25.364	1180.985	931.035
247.103	25.505	1179.876	930.811
248.117	25.553	1179.109	930.369
249.132	25.499	1178.380	929.435
250.147	25.717	1177.806	930.027
251.161	25.963	1176.517	930.193
252.176	25.866	1176.438	929.551
253.190	25.667	1176.751	928.689
254.205	25.731	1175.831	928.209
255.220	25.734	1175.587	927.949
256.234	26.064	1175.333	929.365
257.249	25.952	1174.234	927.837
258.263	25.915	1172.981	926.575
259.278	25.831	1172.819	925.934
260.293	25.859	1171.514	924.968
261.307	25.804	1171.287	924.425
262.322	26.067	1170.374	924.970
263.336	25.605	1170.992	923.005
264.351	25.810	1169.614	922.891
265.366	25.746	1169.145	922.108
266.380	26.145	1167.500	922.771
267.395	25.661	1167.152	919.941
268.409	25.635	1166.557	919.255
269.424	25.237	1166.899	917.409
270.439	25.881	1165.659	919.640
271.453	26.015	1164.873	919.626
272.468	25.714	1163.693	917.078
273.482	25.583	1162.931	915.727
274.497	25.718	1162.918	916.323
275.512	25.418	1163.085	914.850
276.526	25.577	1161.790	914.559
277.541	25.782	1160.276	914.326
278.555	25.808	1159.602	913.847
279.570	25.763	1159.285	913.288
280.585	25.490	1160.780	912.996
281.599	25.822	1158.626	912.906
282.614	25.707	1156.485	910.556
283.628	25.930	1154.641	910.149
284.643	25.672	1154.911	908.979
285.657	25.843	1153.935	908.993
286.672	25.833	1152.954	908.088
287.687	25.804	1152.330	907.372
288.701	25.787	1151.458	906.518
289.716	25.772	1151.185	906.149
290.730	25.610	1150.689	904.864
291.745	25.796	1150.506	905.574
292.760	25.506	1150.487	904.018
293.774	25.786	1148.365	903.680
294.789	25.993	1148.155	904.470
295.803	25.949	1148.029	904.073
296.818	25.766	1147.194	902.416
297.833	25.892	1146.401	902.343
298.847	25.719	1145.332	900.559
299.862	25.688	1144.484	899.658
300.876	25.872	1143.175	899.467
301.891	25.801	1143.137	899.003
302.906	25.771	1143.475	899.040
303.920	25.848	1143.562	899.409
304.935	25.798	1142.891	898.556
305.949	25.867	1141.495	897.719
306.964	26.089	1141.385	898.661
307.979	25.895	1139.995	896.523
308.993	26.196	1139.051	897.198
310.008	25.726	1138.622	894.443
311.022	26.362	1137.598	896.716
312.037	26.054	1136.497	894.245
313.052	26.011	1136.089	893.629
314.066	25.708	1135.253	891.394
315.081	25.579	1133.863	889.584
316.095	25.429	1133.794	888.710
317.110	25.655	1132.984	889.112
318.125	25.410	1132.799	887.680
319.139	25.675	1132.035	888.310
320.154	25.721	1130.519	887.267
321.168	25.709	1129.689	886.480
322.183	25.314	1130.178	884.840
323.197	25.656	1128.759	885.332
324.212	25.834	1129.000	886.319
325.227	25.814	1128.520	885.765
326.241	25.823	1128.060	885.371
327.256	25.619	1127.289	883.686
328.270	25.723	1125.185	882.467
329.285	25.720	1124.707	882.001
330.300	25.913	1123.782	882.143
331.314	25.543	1123.549	880.070
332.329	25.853	1122.546	880.722
333.343	25.910	1121.237	879.896
334.358	25.878	1120.750	879.279
335.373	26.028	1121.125	880.225
336.387	25.978	1120.245	879.214
337.402	26.049	1119.805	879.138
338.416	26.032	1119.079	878.407
339.431	26.251	1118.116	878.640
340.446	26.341	1117.097	878.197
341.460	26.407	1117.242	878.553
342.475	26.384	1116.343	877.659
343.489	26.258	1115.027	875.935
344.504	26.566	1113.937	876.491
345.519	26.393	1113.680	875.376
346.533	26.729	1111.453	875.168
347.548	26.356	1112.206	873.884
348.562	26.169	1112.013	872.748
349.577	26.548	1110.338	873.187
350.592	25.936	1109.598	869.576
351.606	26.064	1108.981	869.634
352.621	25.809	1108.084	867.622
353.635	25.848	1107.991	867.660
354.650	25.855	1106.770	866.663
355.665	25.899	1106.232	866.379
356.679	26.021	1105.063	865.968
357.694	25.889	1105.893	865.910
358.708	26.225	1104.706	866.516
359.723	26.353	1103.968	866.476
360.738	26.147	1102.732	864.440
361.752	26.023	1103.134	864.087
362.767	26.107	1102.132	863.625
363.781	26.235	1101.873	863.962
364.796	26.255	1101.376	863.590
365.810	26.554	1100.968	864.619
366.825	26.524	1100.345	863.914
367.840	26.722	1099.001	863.723
368.854	26.331	1099.797	862.407
369.869	26.518	1098.619	862.300
370.883	26.273	1097.858	860.460
371.898	26.280	1096.645	859.466
372.913	26.466	1095.720	859.546
373.927	26.450	1095.815	859.471
374.942	26.818	1095.364	860.789
375.956	26.751	1094.626	859.816
376.971	26.418	1093.800	857.513
377.986	26.718	1092.926	858.172
379.000	26.797	1092.840	858.400
380.015	26.656	1092.806	857.631
381.029	26.687	1092.436	857.410
382.044	26.549	1092.219	856.512
383.059	26.582	1090.597	855.319
384.073	26.313	1090.408	853.828
385.088	26.611	1089.263	854.261
386.102	26.984	1088.049	854.989
387.117	26.599	1087.360	852.561
388.132	26.215	1085.587	849.291
389.146	26.376	1084.603	849.200
390.161	26.356	1084.556	848.995
391.175	26.026	1084.039	846.965
392.190	26.272	1084.053	848.056
393.205	26.702	1083.133	849.279
394.219	26.546	1082.070	847.636
395.234	26.583	1081.829	847.548
396.248	26.013	1080.572	843.821
397.263	26.174	1079.266	843.482
398.278	26.337	1078.361	843.460
399.292	26.242	1077.962	842.630
400.307	26.451	1077.780	843.384
401.321	26.447	1077.349	842.956
402.336	26.314	1075.903	841.131
403.350	25.882	1075.224	838.515
404.365	26.299	1074.472	839.793
405.380	26.451	1073.680	839.808
406.394	26.538	1073.199	839.761
407.409	26.429	1073.525	839.435
408.423	26.567	1073.086	839.657
409.438	26.507	1072.066	838.505
410.453	26.371	1071.934	837.697
411.467	26.656	1070.602	837.904
412.482	26.650	1069.411	836.869
413.496	26.844	1068.801	837.211
414.511	27.033	1067.805	837.230
415.526	26.941	1067.634	836.597
416.540	26.783	1068.741	836.661
417.555	27.006	1067.051	836.291
418.569	26.693	1066.719	834.515
419.584	26.609	1067.019	834.292
420.599	26.668	1065.426	833.241
421.613	152.728	1403.786	1791.727
422.628	140.524	1453.122	1791.867
