DTS Sentinel unit serial number:	SN413079Multiplexer serial number:	ORYXHardware model number:	OX4-SRSoftware version number:	ORYX F/W v4.00 Oryx Data Collector v3.7.2.0data status	okinstallation	princeton_trtdifferential loss correction	single-endedforward channel	channel 2reverse channel	N/Adate	2019/09/16time	10:43:35forward acquisition time	60.00reverse acquisition time	0.00gamma	496.2192k internal	0.2317k external	0.2317temperature offset calibration	0.9955default loss term (dB/km)	0.3790temperature slope calibration	1.0000multiplexer offset coefficient	1.0000multiplexer slope coefficient	1.0000fibre end	0.00T internal ref (°C)	36.00T ext. ref 1 (°C)	12.65T ext. ref 2 (°C)	34.21length (m)	temperature (°C)	Stokes	anti-Stokes-747.200	-139.923	0.112	-0.012
-746.185	800.000	0.147	0.482
-745.171	222.090	-0.177	0.288
-744.156	160.058	-0.106	0.150
-743.142	800.000	-0.026	-0.097
-742.127	100.789	0.252	0.297
-741.112	242.362	-0.134	-0.227
-740.098	-153.701	0.171	-0.012
-739.083	-200.000	-0.129	0.587
-738.069	19.153	-0.414	0.336
-737.054	245.115	-0.212	-0.361
-736.039	89.619	-0.198	0.224
-735.025	-200.000	0.001	0.249
-734.010	-51.373	-0.301	-0.142
-732.996	-200.000	-0.011	-0.165
-731.981	550.613	0.107	0.259
-730.966	8.475	0.144	-0.109
-729.952	800.000	-0.019	0.079
-728.937	800.000	0.016	0.055
-727.923	102.360	0.218	-0.258
-726.908	176.875	-0.335	-0.493
-725.894	127.576	-0.254	-0.327
-724.879	155.804	0.172	-0.239
-723.864	-54.986	-0.132	-0.060
-722.850	-200.000	0.018	0.187
-721.835	-64.802	-0.235	-0.096
-720.821	-37.936	-0.302	0.162
-719.806	705.157	-0.051	-0.136
-718.791	-200.000	0.000	-0.038
-717.777	-109.958	-0.130	-0.027
-716.762	-92.545	-0.132	0.037
-715.748	800.000	0.055	0.168
-714.733	191.771	-0.109	-0.166
-713.718	120.494	-0.150	0.188
-712.704	-113.096	0.103	-0.020
-711.689	-200.000	-0.038	0.271
-710.675	-200.000	-0.002	-0.013
-709.660	-66.890	-0.124	-0.049
-708.645	-50.858	-0.320	-0.152
-707.631	-147.049	-0.439	-0.038
-706.616	-111.853	0.134	-0.027
-705.602	-64.982	-0.068	-0.028
-704.587	151.505	-0.233	-0.321
-703.572	-200.000	0.018	0.359
-702.558	-29.816	0.302	-0.174
-701.543	124.688	0.223	-0.284
-700.529	115.585	0.111	-0.137
-699.514	800.000	-0.033	-0.094
-698.499	-121.222	-0.479	-0.081
-697.485	-200.000	0.033	-0.225
-696.470	-89.387	0.068	-0.020
-695.456	-200.000	-0.021	-0.217
-694.441	106.965	0.147	0.176
-693.426	-6.756	0.310	-0.213
-692.412	-129.418	0.189	-0.027
-691.397	-125.669	-0.355	-0.054
-690.383	800.000	-0.037	-0.147
-689.368	-37.598	0.049	-0.027
-688.354	67.013	-0.322	0.332
-687.339	-10.007	-0.175	-0.117
-686.324	342.930	0.106	-0.209
-685.310	166.377	-0.081	0.116
-684.295	-200.000	0.023	0.194
-683.281	-118.866	-0.095	-0.017
-682.266	319.944	-0.040	0.076
-681.251	800.000	-0.072	0.202
-680.237	-200.000	0.039	0.347
-679.222	-99.030	-0.201	0.051
-678.208	-165.608	-0.169	0.007
-677.193	-42.224	0.137	-0.071
-676.178	800.000	0.055	-0.226
-675.164	38.471	0.361	-0.325
-674.149	189.523	0.130	-0.197
-673.135	-167.131	-0.137	0.006
-672.120	712.561	0.029	0.078
-671.105	-200.000	-0.030	0.242
-670.091	-73.590	0.099	-0.036
-669.076	-200.000	-0.003	-0.298
-668.062	-161.288	0.040	0.002
-667.047	233.074	0.125	-0.207
-666.032	331.833	0.095	-0.185
-665.018	546.923	0.058	-0.139
-664.003	41.719	-0.253	0.231
-662.989	-37.153	-0.171	-0.093
-661.974	-33.773	0.148	-0.082
-660.959	-99.624	0.094	0.024
-659.945	102.870	0.203	0.240
-658.930	800.000	0.081	0.291
-657.916	800.000	0.110	0.311
-656.901	-121.523	-0.118	0.020
-655.886	-200.000	-0.041	0.343
-654.872	800.000	0.080	-0.281
-653.857	92.967	-0.071	-0.081
-652.843	-200.000	-0.001	0.017
-651.828	537.553	-0.118	-0.282
-650.814	-81.723	-0.246	-0.081
-649.799	-106.793	0.345	0.077
-648.784	378.817	0.115	-0.238
-647.770	800.000	0.084	-0.276
-646.755	-64.281	-0.202	-0.083
-645.741	-144.372	0.158	-0.015
-644.726	800.000	-0.017	0.068
-643.711	-62.339	-0.126	0.053
-642.697	-17.560	-0.227	0.144
-641.682	418.810	-0.136	0.294
-640.668	200.345	0.045	-0.069
-639.653	-124.276	-0.315	0.050
-638.638	-200.000	0.020	-0.361
-637.624	-137.665	0.124	-0.014
-636.609	-200.000	-0.023	-0.161
-635.595	-59.151	-0.357	0.155
-634.580	31.225	-0.080	-0.069
-633.565	-200.000	-0.007	0.312
-632.551	-10.499	-0.234	0.156
-631.536	-200.000	-0.025	-0.243
-630.522	157.470	0.116	-0.161
-629.507	500.232	-0.107	-0.248
-628.492	78.813	0.016	0.017
-627.478	-23.788	0.464	-0.280
-626.463	-200.000	-0.080	-0.400
-625.449	-109.699	-0.219	-0.046
-624.434	-200.000	-0.019	-0.270
-623.419	-200.000	0.035	-0.179
-622.405	-26.645	-0.297	0.175
-621.390	508.697	-0.214	0.502
-620.376	-165.641	-0.129	-0.006
-619.361	-200.000	-0.025	-0.122
-618.346	-41.943	0.283	0.146
-617.332	27.402	-0.006	-0.005
-616.317	-200.000	0.015	-0.207
-615.303	-28.268	-0.147	0.086
-614.288	181.356	-0.018	-0.026
-613.273	-80.332	0.205	-0.069
-612.259	800.000	-0.089	-0.300
-611.244	-144.527	-0.276	0.026
-610.230	-61.467	0.103	0.044
-609.215	107.875	-0.121	-0.146
-608.201	-104.655	-0.343	-0.080
-607.186	499.393	0.108	-0.251
-606.171	53.202	0.065	0.062
-605.157	228.360	-0.159	0.261
-604.142	-160.023	0.114	-0.006
-603.128	61.076	0.097	0.097
-602.113	-200.000	-0.027	-0.246
-601.098	-200.000	0.017	-0.273
-600.084	-200.000	-0.051	0.335
-599.069	-9.902	-0.223	-0.149
-598.055	800.000	0.105	-0.399
-597.040	-36.986	0.330	-0.178
-596.025	-177.715	0.189	0.005
-595.011	172.268	-0.159	0.231
-593.996	-200.000	-0.019	0.159
-592.982	-56.946	0.180	-0.080
-591.967	-25.944	-0.354	-0.209
-590.952	17.155	0.216	0.173
-589.938	-61.001	0.121	0.052
-588.923	-167.583	0.592	0.024
-587.909	89.049	0.107	-0.120
-586.894	573.592	-0.070	0.172
-585.879	-0.976	-0.032	-0.023
-584.865	51.005	-0.140	0.133
-583.850	-3.607	0.302	-0.211
-582.836	-60.269	0.282	-0.121
-581.821	800.000	0.109	-0.312
-580.806	166.311	0.067	0.096
-579.792	47.182	0.132	0.123
-578.777	-88.192	0.255	0.077
-577.763	246.444	0.199	0.338
-576.748	353.256	-0.045	-0.090
-575.733	150.757	0.220	-0.300
-574.719	-200.000	0.002	-0.073
-573.704	-129.067	-0.126	0.018
-572.690	135.188	-0.311	0.407
-571.675	-6.433	0.283	-0.194
-570.661	800.000	-0.052	-0.183
-569.646	-2.750	-0.204	-0.143
-568.631	-200.000	-0.015	0.376
-567.617	-51.632	0.362	0.170
-566.602	16.393	0.294	0.233
-565.588	24.126	-0.062	0.052
-564.573	-104.609	-0.137	-0.032
-563.558	597.438	0.119	0.296
-562.544	-200.000	0.014	0.400
-561.529	800.000	0.050	-0.189
-560.515	-158.673	0.273	0.016
-559.500	138.196	0.077	-0.102
-558.485	-162.667	-0.201	-0.010
-557.471	-94.285	0.205	-0.056
-556.456	47.192	0.139	0.130
-555.442	21.632	0.081	0.066
-554.427	327.807	-0.300	0.578
-553.412	164.124	-0.154	0.218
-552.398	265.050	0.057	0.100
-551.383	54.111	-0.303	-0.293
-550.369	-16.466	0.155	-0.099
-549.354	800.000	0.036	-0.113
-548.339	-68.221	-0.335	0.131
-547.325	19.784	-0.128	0.103
-546.310	754.819	0.123	-0.335
-545.296	112.056	-0.109	0.133
-544.281	-102.815	-0.102	0.024
-543.266	149.051	-0.255	0.346
-542.252	99.440	-0.185	0.215
-541.237	800.000	-0.028	0.100
-540.223	-97.208	0.237	0.062
-539.208	146.576	-0.282	0.380
-538.193	-200.000	0.009	-0.259
-537.179	-30.035	0.068	-0.039
-536.164	-19.463	0.163	0.101
-535.150	4.789	-0.042	0.031
-534.135	-0.901	-0.239	0.170
-533.121	650.555	0.059	-0.152
-532.106	-130.873	-0.008	-0.001
-531.091	-197.236	-0.302	0.002
-530.077	-20.610	0.166	-0.102
-529.062	345.961	-0.123	-0.243
-528.048	299.835	0.085	-0.157
-527.033	-200.000	-0.026	0.203
-526.018	-132.700	0.251	-0.032
-525.004	17.435	-0.101	0.081
-523.989	604.165	-0.083	-0.207
-522.975	800.000	0.065	-0.211
-521.960	79.773	-0.149	-0.161
-520.945	-200.000	-0.018	-0.383
-519.931	654.873	0.102	-0.262
-518.916	54.696	0.192	0.185
-517.902	55.315	-0.306	-0.297
-516.887	-84.640	0.223	-0.070
-515.872	-23.789	-0.133	0.080
-514.858	800.000	0.059	0.241
-513.843	-194.083	-0.073	0.001
-512.829	272.243	-0.017	0.031
-511.814	46.694	-0.186	0.173
-510.799	510.668	-0.048	-0.113
-509.785	-102.537	-0.198	0.047
-508.770	-125.291	0.272	-0.042
-507.756	-200.000	-0.073	-0.326
-506.741	-200.000	0.016	-0.397
-505.726	-200.000	-0.035	-0.208
-504.712	800.000	-0.089	-0.277
-503.697	-117.584	-0.167	0.030
-502.683	-60.489	-0.378	-0.161
-501.668	-151.603	-0.441	0.033
-500.653	52.056	-0.155	0.148
-499.639	212.693	0.236	0.373
-498.624	800.000	0.081	-0.271
-497.610	-200.000	-0.015	0.168
-496.595	-200.000	0.034	-0.296
-495.581	82.629	-0.097	0.106
-494.566	202.914	0.116	0.179
-493.551	-20.052	0.032	-0.020
-492.537	800.000	-0.070	-0.220
-491.522	-25.248	-0.116	0.069
-490.508	-200.000	-0.003	0.065
-489.493	-104.613	-0.120	-0.028
-488.478	6.521	-0.213	0.159
-487.464	-90.016	-0.219	0.064
-486.449	481.760	-0.084	0.191
-485.435	-87.571	-0.044	-0.013
-484.420	262.320	-0.134	0.234
-483.405	80.490	0.050	0.054
-482.391	-200.000	-0.054	-0.242
-481.376	-150.284	0.153	-0.012
-480.362	800.000	0.038	0.121
-479.347	20.498	0.180	0.146
-478.332	-83.128	0.133	-0.043
-477.318	-111.441	-0.190	-0.039
-476.303	-37.700	-0.386	0.206
-475.289	-179.498	-0.095	0.002
-474.274	690.614	0.193	-0.506
-473.259	-200.000	0.012	-0.088
-472.245	0.094	0.161	0.115
-471.230	-171.532	0.134	0.004
-470.216	800.000	-0.034	0.145
-469.201	-142.477	-0.179	0.018
-468.186	-200.000	0.016	0.097
-467.172	-200.000	0.017	-0.418
-466.157	19.145	0.379	-0.305
-465.143	-31.296	0.073	-0.041
-464.128	-70.720	-0.388	0.147
-463.113	121.181	0.070	0.088
-462.099	-20.682	0.105	0.064
-461.084	-81.856	0.094	-0.031
-460.070	-21.464	-0.138	0.084
-459.055	33.111	0.324	0.281
-458.040	179.412	0.266	0.390
-457.026	-200.000	0.026	0.143
-456.011	399.746	0.109	0.229
-454.997	17.799	0.222	-0.177
-453.982	52.267	0.188	0.179
-452.968	-200.000	0.019	0.204
-451.953	-137.093	-0.352	0.040
-450.938	72.567	0.131	0.137
-449.924	53.790	0.074	-0.072
-448.909	668.941	0.099	-0.256
-447.895	10.218	-0.262	0.200
-446.880	382.558	-0.025	-0.052
-445.865	-71.292	0.188	0.071
-444.851	-18.534	-0.289	0.181
-443.836	40.987	-0.210	0.189
-442.822	-83.223	0.172	0.055
-441.807	-200.000	-0.040	-0.272
-440.792	-21.889	-0.041	0.025
-439.778	-200.000	-0.007	0.095
-438.763	800.000	0.112	-0.346
-437.749	56.934	-0.156	-0.152
-436.734	-23.664	0.260	-0.156
-435.719	34.990	-0.069	-0.060
-434.705	800.000	0.096	0.349
-433.690	-200.000	0.039	-0.264
-432.676	-11.914	0.172	-0.113
-431.661	-200.000	0.056	0.261
-430.646	-200.000	-0.052	0.319
-429.632	-96.661	-0.259	0.068
-428.617	800.000	0.068	0.256
-427.603	-128.408	-0.315	0.045
-426.588	-34.056	-0.140	-0.077
-425.573	-169.039	0.179	-0.007
-424.559	-30.163	0.466	-0.265
-423.544	256.657	0.232	-0.398
-422.530	30.799	-0.141	0.120
-421.515	-200.000	-0.016	0.198
-420.500	66.248	0.066	0.067
-419.486	706.416	0.097	0.255
-418.471	-71.791	-0.260	-0.097
-417.457	-56.237	-0.113	0.050
-416.442	-200.000	0.060	0.303
-415.428	-185.058	-0.464	0.007
-414.413	800.000	0.041	0.155
-413.398	800.000	0.091	0.266
-412.384	42.031	-0.143	0.130
-411.369	-200.000	0.016	-0.314
-410.355	800.000	-0.126	-0.437
-409.340	-125.819	-0.235	-0.035
-408.325	51.520	0.045	0.043
-407.311	7.625	0.053	-0.040
-406.296	171.233	0.096	0.138
-405.282	752.649	-0.094	0.254
-404.267	341.212	0.088	0.172
-403.252	-54.018	0.355	0.161
-402.238	-200.000	0.000	0.047
-401.223	381.344	0.074	-0.151
-400.209	-83.799	0.074	0.023
-399.194	-147.180	-0.220	-0.019
-398.179	-200.000	0.098	-0.430
-397.165	701.755	0.045	-0.118
-396.150	800.000	0.065	0.271
-395.136	347.202	-0.141	0.278
-394.121	140.854	-0.118	0.155
-393.106	165.461	-0.176	0.249
-392.092	-99.529	0.349	0.088
-391.077	-95.116	0.094	0.025
-390.063	-74.809	-0.480	0.172
-389.048	-66.657	-0.157	0.062
-388.033	95.195	0.218	0.248
-387.019	800.000	0.053	-0.232
-386.004	393.019	-0.048	-0.099
-384.990	-1.520	0.231	0.163
-383.975	-138.512	-0.119	-0.013
-382.960	-113.520	0.176	0.034
-381.946	-97.690	-0.232	0.060
-380.931	-131.484	0.154	-0.020
-379.917	-200.000	0.030	-0.163
-378.902	-200.000	-0.011	0.096
-377.888	-115.119	-0.153	0.029
-376.873	62.349	0.021	0.020
-375.858	800.000	0.053	-0.216
-374.844	-102.635	0.277	-0.066
-373.829	376.537	-0.092	0.187
-372.815	-173.894	0.242	-0.007
-371.800	120.287	-0.114	-0.141
-370.785	-90.323	-0.114	-0.033
-369.771	800.000	0.046	0.140
-368.756	304.631	0.122	0.226
-367.742	661.293	-0.043	-0.111
-366.727	298.968	0.069	0.126
-365.712	-10.309	-0.356	0.236
-364.698	-132.071	0.304	0.039
-363.683	-133.612	-0.329	0.041
-362.669	-200.000	0.022	0.115
-361.654	-200.000	0.061	0.438
-360.639	-108.518	-0.336	0.072
-359.625	-42.780	-0.035	-0.018
-358.610	23.438	-0.120	0.098
-357.596	-200.000	-0.041	0.332
-356.581	-200.000	-0.013	-0.131
-355.566	67.657	-0.122	-0.124
-354.552	-200.000	0.009	0.087
-353.537	31.033	0.205	-0.175
-352.523	-90.756	-0.155	0.045
-351.508	-83.491	-0.132	-0.042
-350.493	-61.231	-0.071	-0.030
-349.479	-127.278	0.353	-0.051
-348.464	12.335	0.487	-0.374
-347.450	-200.000	0.056	-0.282
-346.435	-200.000	0.008	0.081
-345.420	800.000	0.068	-0.191
-344.406	567.831	0.140	0.338
-343.391	-46.036	-0.123	0.060
-342.377	397.490	-0.140	-0.292
-341.362	-92.124	-0.309	-0.087
-340.348	-200.000	-0.029	0.209
-339.333	-115.029	-0.056	0.011
-338.318	800.000	0.079	-0.246
-337.304	68.868	0.240	-0.246
-336.289	414.524	-0.095	-0.202
-335.275	-16.003	0.187	-0.118
-334.260	34.204	0.016	0.014
-333.245	-164.800	0.219	0.010
-332.231	10.448	-0.210	0.159
-331.216	677.195	-0.097	0.251
-330.202	129.177	0.098	-0.125
-329.187	-200.000	-0.042	-0.524
-328.172	-55.575	0.159	0.071
-327.158	-200.000	0.026	-0.275
-326.143	-200.000	0.030	-0.224
-325.129	289.325	0.064	0.116
-324.114	84.955	-0.053	0.057
-323.099	367.982	-0.082	0.166
-322.085	50.323	0.097	-0.091
-321.070	-140.873	0.265	-0.027
-320.056	-15.842	-0.224	0.142
-319.041	495.884	0.084	0.192
-318.026	-96.561	0.224	0.059
-317.012	34.353	0.211	-0.183
-315.997	445.515	0.021	0.047
-314.983	8.721	-0.286	-0.215
-313.968	-22.331	-0.024	-0.015
-312.953	-200.000	0.006	-0.267
-311.939	-200.000	0.006	0.231
-310.924	-169.086	0.064	-0.002
-309.910	-200.000	-0.019	-0.324
-308.895	-200.000	0.023	0.181
-307.880	57.485	0.099	-0.096
-306.866	-75.299	0.307	0.109
-305.851	-98.622	0.145	0.037
-304.837	-200.000	-0.005	-0.061
-303.822	-128.650	0.331	0.047
-302.807	144.057	-0.054	-0.071
-301.793	312.100	0.072	0.134
-300.778	-200.000	-0.036	0.204
-299.764	69.625	0.282	-0.289
-298.749	-87.302	0.217	0.066
-297.735	202.046	-0.135	0.208
-296.720	210.721	-0.156	-0.244
-295.705	249.131	-0.271	0.457
-294.691	-12.322	-0.282	-0.183
-293.676	3.387	-0.187	-0.135
-292.662	231.342	0.150	-0.245
-291.647	-5.480	0.242	0.165
-290.632	-200.000	-0.033	0.298
-289.618	700.675	-0.073	0.192
-288.603	-200.000	-0.003	-0.027
-287.589	800.000	0.053	-0.145
-286.574	800.000	-0.094	-0.296
-285.559	-105.187	0.056	-0.013
-284.545	-1.653	0.086	-0.061
-283.530	29.608	-0.269	0.228
-282.516	800.000	-0.031	-0.099
-281.501	-122.764	-0.124	0.020
-280.486	-200.000	-0.024	-0.189
-279.472	50.021	-0.179	0.168
-278.457	-58.240	-0.139	-0.060
-277.443	393.870	0.089	-0.185
-276.428	749.544	-0.032	0.085
-275.413	174.366	0.098	0.141
-274.399	74.225	0.114	0.119
-273.384	155.874	0.079	-0.108
-272.370	449.863	-0.119	-0.262
-271.355	337.013	-0.097	0.187
-270.340	800.000	0.039	-0.127
-269.326	-200.000	0.011	-0.244
-268.311	46.145	0.174	0.160
-267.297	308.036	0.077	-0.143
-266.282	-152.729	0.269	-0.019
-265.267	800.000	0.049	0.194
-264.253	-5.987	0.090	0.061
-263.238	401.863	0.123	-0.256
-262.224	-200.000	0.009	0.194
-261.209	-200.000	-0.023	-0.260
-260.195	-110.630	0.163	0.033
-259.180	-153.093	0.121	0.008
-258.165	693.496	-0.059	-0.154
-257.151	-200.000	0.015	0.075
-256.136	25.970	0.329	-0.272
-255.122	109.524	-0.232	-0.276
-254.107	-197.298	0.261	0.002
-253.092	21.130	0.061	-0.049
-252.078	-23.616	-0.062	-0.037
-251.063	348.707	-0.188	-0.369
-250.049	-80.673	-0.341	-0.113
-249.034	-107.260	0.185	-0.041
-248.019	-21.171	0.218	-0.133
-247.005	-200.000	-0.007	0.107
-245.990	-196.685	0.203	0.001
-244.976	-200.000	-0.002	-0.134
-243.961	-19.192	-0.231	-0.142
-242.946	-121.436	-0.207	-0.034
-241.932	16.703	0.197	-0.155
-240.917	-24.788	0.214	-0.126
-239.903	52.657	-0.203	-0.192
-238.888	55.063	-0.081	-0.078
-237.873	-129.300	0.218	-0.030
-236.859	129.822	-0.153	-0.194
-235.844	-200.000	0.015	-0.069
-234.830	-200.000	0.012	0.531
-233.815	17.925	0.090	-0.071
-232.800	452.436	0.135	0.297
-231.786	21.426	0.151	0.122
-230.771	800.000	-0.071	-0.212
-229.757	49.790	-0.322	0.301
-228.742	78.697	-0.045	0.048
-227.727	-140.012	-0.061	0.006
-226.713	173.860	-0.354	0.507
-225.698	-65.641	-0.252	0.100
-224.684	-59.008	0.320	0.137
-223.669	247.099	0.050	-0.084
-222.655	493.014	0.137	-0.313
-221.640	-63.495	0.345	-0.141
-220.625	5.253	-0.168	-0.123
-219.611	-101.547	-0.206	0.050
-218.596	-44.219	-0.299	0.149
-217.582	62.451	-0.072	0.071
-216.567	117.959	-0.093	-0.113
-215.552	116.372	-0.417	-0.507
-214.538	-157.415	-0.271	-0.016
-213.523	-200.000	0.021	0.131
-212.509	-154.302	0.351	0.023
-211.494	43.566	-0.119	0.108
-210.479	264.069	-0.180	0.310
-209.465	-200.000	-0.005	-0.115
-208.450	-200.000	0.040	-0.180
-207.436	-200.000	0.013	-0.129
-206.421	617.523	0.040	-0.099
-205.406	-200.000	-0.010	-0.624
-204.392	596.226	-0.027	-0.066
-203.377	800.000	0.064	-0.177
-202.363	347.513	0.137	0.267
-201.348	-200.000	-0.009	-0.177
-200.333	63.948	-0.146	0.146
-199.319	389.358	-0.066	0.136
-198.304	-140.706	-0.035	-0.004
-197.290	-30.625	0.302	0.169
-196.275	5.538	0.017	0.013
-195.260	-78.051	0.061	0.021
-194.246	-47.586	-0.221	-0.107
-193.231	353.050	0.136	0.268
-192.217	297.820	0.078	-0.143
-191.202	-200.000	0.006	-0.185
-190.187	352.473	-0.070	-0.137
-189.173	-177.553	0.190	-0.005
-188.158	-31.047	-0.313	-0.175
-187.144	-200.000	0.071	0.391
-186.129	312.854	0.170	0.316
-185.114	-200.000	0.021	-0.217
-184.100	-56.588	-0.359	0.157
-183.085	-128.462	0.075	0.011
-182.071	45.570	0.284	-0.260
-181.056	13.686	-0.114	0.088
-180.042	38.570	0.217	0.191
-179.027	-124.070	-0.313	-0.049
-178.012	-200.000	-0.153	0.000
-176.998	326.134	-0.154	0.291
-175.983	47.154	-0.143	0.132
-174.969	93.941	-0.072	0.081
-173.954	-25.265	0.213	0.125
-172.939	800.000	-0.046	-0.150
-171.925	6.040	0.466	-0.342
-170.910	-200.000	0.045	0.203
-169.896	110.951	0.128	0.153
-168.881	-133.472	0.173	0.022
-167.866	-5.401	0.163	0.111
-166.852	173.727	-0.170	-0.243
-165.837	61.989	0.071	-0.070
-164.823	-200.000	-0.068	0.331
-163.808	-25.581	0.264	0.154
-162.793	-35.761	-0.264	0.141
-161.779	-76.112	0.023	-0.008
-160.764	-18.187	-0.267	0.165
-159.750	-174.989	0.107	-0.003
-158.735	335.131	0.010	-0.020
-157.720	-200.000	0.003	-0.022
-156.706	72.986	-0.103	0.107
-155.691	40.107	0.133	0.119
-154.677	281.898	0.056	0.099
-153.662	-120.188	-0.192	-0.032
-152.647	379.027	0.078	-0.157
-151.633	-200.000	0.054	0.435
-150.618	-131.982	0.214	-0.028
-149.604	-31.547	-0.134	-0.074
-148.589	-121.722	0.213	-0.035
-147.574	274.515	-0.108	-0.189
-146.560	800.000	-0.037	0.106
-145.545	-200.000	-0.021	0.400
-144.531	-102.828	-0.222	0.052
-143.516	23.031	0.161	-0.131
-142.502	119.486	0.075	-0.092
-141.487	-156.328	0.067	-0.004
-140.472	-56.241	-0.115	-0.051
-139.458	800.000	0.107	0.385
-138.443	-25.308	-0.114	0.067
-137.429	-200.000	-0.014	-0.177
-136.414	-139.680	-0.140	0.015
-135.399	330.288	0.080	0.152
-134.385	-8.727	0.125	-0.083
-133.370	39.541	-0.200	-0.177
-132.356	233.728	0.067	0.109
-131.341	159.753	0.245	0.337
-130.326	62.694	-0.172	-0.170
-129.312	-125.871	0.198	-0.030
-128.297	-116.804	0.220	-0.040
-127.283	800.000	-0.040	-0.171
-126.268	-22.135	0.142	-0.085
-125.253	-136.125	-0.078	0.009
-124.239	-169.098	0.210	0.008
-123.224	800.000	-0.060	-0.165
-122.210	118.777	0.228	-0.278
-121.195	-200.000	0.006	-0.295
-120.180	-197.082	-0.209	-0.001
-119.166	64.537	-0.125	0.125
-118.151	19.699	0.102	-0.081
-117.137	-9.730	-0.284	-0.187
-116.122	57.610	0.041	-0.039
-115.107	122.163	0.066	-0.081
-114.093	-75.862	0.164	0.057
-113.078	661.051	-0.066	0.168
-112.064	-35.865	-0.056	-0.030
-111.049	-200.000	-0.005	-0.030
-110.034	-29.393	-0.287	0.162
-109.020	-200.000	0.022	0.283
-108.005	800.000	0.058	0.240
-106.991	278.670	-0.115	0.203
-105.976	-200.000	0.026	0.328
-104.962	516.076	0.070	-0.162
-103.947	-172.969	-0.121	-0.004
-102.932	419.507	-0.190	-0.401
-101.918	800.000	-0.058	-0.244
-100.903	30.373	-0.026	-0.022
-99.889	-52.435	0.047	-0.022
-98.874	-122.218	0.175	0.028
-97.859	83.017	0.106	-0.113
-96.845	-22.662	-0.149	-0.089
-95.830	-144.761	-0.054	0.005
-94.816	-166.323	0.154	-0.006
-93.801	-135.415	-0.215	0.025
-92.786	-155.665	-0.089	-0.006
-91.772	6.710	-0.090	-0.066
-90.757	18.202	-0.144	0.113
-89.743	350.272	-0.115	-0.224
-88.728	-24.349	0.339	0.199
-87.713	791.049	0.096	0.260
-86.699	-200.000	-0.056	0.273
-85.684	162.126	0.116	0.161
-84.670	181.012	0.048	-0.069
-83.655	-16.006	-0.081	0.051
-82.640	-200.000	-0.019	0.204
-81.626	-200.000	-0.045	-0.204
-80.611	456.860	-0.141	-0.309
-79.597	-98.707	-0.223	-0.056
-78.582	12.727	-0.087	-0.066
-77.567	721.164	-0.105	-0.275
-76.553	-40.043	-0.274	0.141
-75.538	7.070	0.433	0.319
-74.524	-124.064	0.240	-0.037
-73.509	5.104	-0.153	-0.111
-72.494	-118.331	0.146	0.026
-71.480	102.074	0.256	-0.295
-70.465	36.927	-0.117	0.102
-69.451	320.996	0.125	-0.234
-68.436	800.000	0.072	-0.242
-67.422	-200.000	0.002	-0.159
-66.407	-200.000	0.018	0.141
-65.392	-200.000	-0.019	0.156
-64.378	-129.028	0.078	0.011
-63.363	-81.378	-0.142	0.046
-62.349	800.000	-0.097	-0.274
-61.334	168.002	-0.767	-1.076
-60.319	409.246	0.221	0.462
-59.305	-200.000	-0.055	-0.746
-58.290	191.012	0.476	0.705
-57.276	800.000	0.483	1.777
-56.261	-200.000	89.653	513.918
-55.246	452.696	1425.755	3107.475
-54.232	143.744	2646.876	3475.763
-53.217	104.523	2367.449	2747.245
-52.203	45.011	1969.465	1787.371
-51.188	39.153	1752.919	1544.920
-50.173	36.457	1707.785	1484.404
-49.159	51.806	1752.305	1642.816
-48.144	54.925	1770.992	1684.543
-47.130	39.009	1729.420	1522.848
-46.115	36.145	1713.678	1486.883
-45.100	35.825	1709.670	1480.879
-44.086	35.937	1706.322	1478.787
-43.071	35.806	1704.305	1475.971
-42.057	35.815	1702.085	1474.058
-41.042	35.862	1699.877	1472.446
-40.027	35.856	1698.168	1470.863
-39.013	35.910	1695.947	1469.294
-37.998	35.883	1694.270	1467.575
-36.984	35.996	1692.805	1467.110
-35.969	35.990	1691.645	1466.000
-34.954	36.070	1689.546	1464.732
-33.940	36.027	1687.609	1462.670
-32.925	35.996	1686.073	1461.043
-31.911	36.076	1684.007	1459.802
-30.896	35.946	1682.564	1457.510
-29.881	35.906	1680.840	1455.654
-28.867	36.030	1678.960	1454.904
-27.852	35.986	1677.836	1453.545
-26.838	35.949	1676.507	1452.056
-25.823	36.032	1674.924	1451.252
-24.809	36.029	1673.402	1449.851
-23.794	35.963	1672.368	1448.402
-22.779	35.972	1670.878	1447.124
-21.765	35.964	1668.704	1445.123
-20.750	35.995	1666.971	1443.796
-19.736	36.124	1665.372	1443.320
-18.721	36.081	1664.276	1441.987
-17.706	36.093	1662.465	1440.454
-16.692	35.991	1660.988	1438.351
-15.677	36.002	1659.650	1437.222
-14.663	36.026	1658.383	1436.246
-13.648	36.030	1656.737	1434.796
-12.633	36.024	1655.052	1433.232
-11.619	35.995	1653.609	1431.707
-10.604	36.050	1652.336	1430.959
-9.590	36.128	1650.513	1429.899
-8.575	36.080	1649.385	1428.509
-7.560	35.926	1648.087	1426.195
-6.546	35.990	1646.834	1425.525
-5.531	35.997	1645.839	1424.658
-4.517	36.001	1644.372	1423.358
-3.502	36.014	1643.388	1422.550
-2.487	36.094	1641.807	1421.712
-1.473	36.111	1631.244	1412.637
-0.458	34.220	1612.748	1382.842
0.556	28.791	1612.968	1351.609
1.571	26.509	1638.978	1356.204
2.586	25.702	1653.308	1361.832
3.600	23.801	1601.795	1305.337
4.615	18.477	1494.153	1180.925
5.629	13.711	1431.130	1099.489
6.644	12.802	1422.640	1086.880
7.659	12.663	1421.084	1084.679
8.673	12.670	1419.978	1083.780
9.688	12.465	1418.117	1080.918
10.702	12.463	1415.604	1078.892
11.717	14.732	1420.101	1097.148
12.731	19.076	1427.634	1131.494
13.746	19.674	1426.706	1134.582
14.761	17.714	1422.282	1118.123
15.775	16.533	1418.907	1107.640
16.790	15.469	1416.111	1098.401
17.804	14.576	1413.738	1090.628
18.819	14.157	1412.142	1086.569
19.834	13.804	1410.506	1082.909
20.848	13.536	1409.143	1080.020
21.863	13.238	1407.857	1076.994
22.877	13.049	1406.852	1074.903
23.892	13.137	1405.533	1074.371
24.907	13.090	1405.175	1073.694
25.921	12.994	1404.164	1072.209
26.936	13.137	1402.554	1071.810
27.950	13.120	1402.512	1071.575
28.965	13.175	1401.241	1070.866
29.980	13.296	1399.499	1070.218
30.994	13.288	1398.694	1069.458
32.009	13.378	1397.289	1068.869
33.023	13.310	1396.503	1067.738
34.038	13.337	1394.474	1066.264
35.053	13.201	1393.155	1064.286
36.067	13.173	1392.291	1063.352
37.082	13.272	1391.061	1062.956
38.096	13.245	1390.371	1062.159
39.111	13.224	1389.517	1061.275
40.126	13.329	1387.946	1060.656
41.140	13.140	1387.685	1059.150
42.155	13.051	1387.439	1058.298
43.169	13.029	1387.097	1057.807
44.184	13.048	1386.850	1057.643
45.199	13.141	1386.031	1057.521
46.213	13.171	1385.474	1057.195
47.228	13.118	1385.029	1056.425
48.242	13.131	1383.229	1055.043
49.257	13.089	1382.102	1053.821
50.271	13.226	1380.218	1053.162
51.286	13.114	1379.449	1051.768
52.301	13.124	1378.012	1050.645
53.315	13.102	1376.807	1049.492
54.330	13.088	1376.096	1048.770
55.344	13.119	1373.941	1047.232
56.359	13.121	1373.245	1046.620
57.374	12.988	1372.548	1045.153
58.388	13.042	1371.690	1044.748
59.403	12.986	1371.492	1044.152
60.417	12.906	1370.505	1042.805
61.432	12.993	1369.656	1042.615
62.447	12.967	1368.732	1041.655
63.461	12.987	1367.040	1040.401
64.476	12.908	1366.226	1039.193
65.490	12.941	1365.005	1038.379
66.505	12.958	1364.192	1037.774
67.520	12.984	1362.368	1036.460
68.534	12.969	1361.523	1035.628
69.549	12.954	1360.360	1034.559
70.563	12.985	1359.096	1033.700
71.578	12.961	1358.323	1032.873
72.593	12.919	1357.307	1031.745
73.607	12.801	1356.702	1030.454
74.622	12.864	1355.525	1029.866
75.636	12.846	1354.781	1029.098
76.651	12.903	1354.270	1028.973
77.666	12.872	1353.890	1028.401
78.680	12.982	1352.854	1028.207
79.695	13.009	1352.508	1028.021
80.709	13.020	1351.831	1027.484
81.724	13.053	1350.293	1026.430
82.739	13.071	1350.021	1026.240
83.753	13.038	1348.916	1025.109
84.768	13.140	1347.995	1024.947
85.782	13.158	1346.356	1023.726
86.797	13.196	1344.785	1022.675
87.812	13.049	1344.095	1021.148
88.826	13.197	1342.698	1020.910
89.841	13.170	1341.846	1020.005
90.855	13.124	1341.255	1019.183
91.870	13.184	1340.049	1018.546
92.884	13.288	1338.590	1017.988
93.899	13.264	1338.460	1017.651
94.914	13.285	1337.456	1016.929
95.928	13.323	1336.590	1016.415
96.943	13.228	1335.756	1015.104
97.957	13.280	1334.668	1014.510
98.972	13.248	1333.537	1013.362
99.987	13.201	1332.585	1012.264
101.001	13.252	1331.706	1011.818
102.016	13.293	1330.609	1011.143
103.030	13.243	1329.854	1010.175
104.045	13.150	1329.076	1008.929
105.060	13.166	1327.360	1007.635
106.074	13.037	1326.314	1005.963
107.089	13.071	1324.609	1004.786
108.103	13.021	1323.460	1003.524
109.118	13.086	1321.916	1002.660
110.133	13.006	1320.810	1001.244
111.147	13.036	1319.059	1000.009
112.162	13.021	1317.846	998.913
113.176	12.970	1317.070	997.926
114.191	13.043	1316.177	997.606
115.206	13.083	1314.819	996.726
116.220	13.147	1313.248	995.832
117.235	13.109	1312.328	994.821
118.249	13.084	1311.378	993.863
119.264	13.048	1310.152	992.630
120.279	12.972	1309.029	991.235
121.293	13.009	1308.241	990.771
122.308	12.995	1306.826	989.529
123.322	12.960	1305.571	988.279
124.337	12.995	1304.416	987.527
125.352	13.107	1303.142	987.146
126.366	12.948	1301.891	985.162
127.381	13.024	1301.445	985.189
128.395	13.081	1300.183	984.489
129.410	13.034	1299.079	983.286
130.424	13.020	1298.623	982.767
131.439	13.121	1297.594	982.503
132.454	12.998	1296.578	980.917
133.468	13.115	1295.896	981.010
134.483	13.094	1295.223	980.285
135.497	13.074	1294.297	979.380
136.512	13.154	1292.938	978.741
137.527	13.137	1291.595	977.535
138.541	13.140	1289.609	975.966
139.556	13.159	1288.632	975.254
140.570	13.202	1287.520	974.577
141.585	13.226	1286.320	973.725
142.600	13.236	1284.679	972.457
143.614	13.287	1284.051	972.192
144.629	13.379	1282.683	971.612
145.643	13.254	1281.877	970.183
146.658	13.275	1280.314	969.038
147.673	13.245	1278.563	967.449
148.687	13.167	1277.919	966.422
149.702	13.182	1276.243	965.154
150.716	13.191	1274.821	964.047
151.731	13.210	1273.596	963.144
152.746	13.236	1272.682	962.518
153.760	13.183	1271.603	961.310
154.775	13.363	1270.425	961.380
155.789	13.400	1269.322	960.675
156.804	13.331	1268.188	959.333
157.819	13.348	1266.901	958.374
158.833	13.311	1266.503	957.776
159.848	13.477	1265.044	957.548
160.862	13.377	1264.285	956.309
161.877	13.277	1263.269	954.875
162.892	13.264	1262.297	953.980
163.906	13.184	1261.375	952.744
164.921	13.255	1260.300	952.251
165.935	13.356	1259.625	952.239
166.950	13.475	1258.341	951.872
167.964	13.352	1258.115	950.905
168.979	13.358	1257.235	950.193
169.994	13.351	1256.304	949.368
171.008	13.290	1255.628	948.420
172.023	13.420	1254.450	948.193
173.037	13.457	1253.660	947.723
174.052	13.449	1253.012	947.104
175.067	13.501	1251.292	946.015
176.081	13.487	1250.517	945.265
177.096	13.353	1249.391	943.570
178.110	13.408	1248.686	943.263
179.125	13.343	1247.674	942.047
180.140	13.597	1246.208	942.304
181.154	13.458	1245.079	940.572
182.169	13.417	1244.112	939.526
183.183	13.514	1242.668	938.907
184.198	13.626	1241.124	938.288
185.213	13.536	1240.346	937.110
186.227	13.638	1239.094	936.659
187.242	13.634	1238.149	935.836
188.256	13.604	1236.965	934.689
189.271	13.590	1236.308	934.030
190.286	13.576	1235.253	933.076
191.300	13.495	1234.190	931.734
192.315	13.405	1233.498	930.619
193.329	13.446	1232.898	930.317
194.344	13.445	1232.131	929.649
195.359	13.471	1231.705	929.390
196.373	13.575	1231.440	929.693
197.388	13.561	1230.920	929.138
198.402	13.793	1230.235	929.841
199.417	13.763	1229.593	929.106
200.432	13.844	1229.041	929.059
201.446	13.832	1227.716	927.907
202.461	13.839	1226.771	927.153
203.475	13.935	1225.518	926.660
204.490	13.947	1224.153	925.609
205.504	13.880	1222.799	924.133
206.519	13.911	1221.655	923.358
207.534	13.910	1220.590	922.466
208.548	13.962	1219.436	921.799
209.563	13.846	1218.814	920.603
210.577	13.890	1217.641	919.880
211.592	13.931	1216.877	919.449
212.607	14.052	1215.963	919.349
213.621	14.008	1215.331	918.547
214.636	14.005	1214.575	917.873
215.650	13.907	1213.759	916.640
216.665	14.044	1212.309	916.217
217.680	13.987	1211.737	915.388
218.694	14.112	1211.132	915.539
219.709	13.940	1210.325	913.901
220.723	14.066	1209.188	913.655
221.738	14.031	1208.797	913.087
222.753	14.122	1207.995	912.902
223.767	14.107	1206.990	911.974
224.782	14.205	1206.614	912.147
225.796	14.241	1205.737	911.601
226.811	14.262	1204.605	910.781
227.826	14.240	1203.816	909.982
228.840	14.160	1203.794	909.450
229.855	14.142	1203.086	908.737
230.869	14.157	1202.111	908.000
231.884	14.051	1201.174	906.634
232.899	14.017	1200.691	906.006
233.913	14.133	1199.505	905.663
234.928	14.093	1198.918	904.920
235.942	14.147	1198.178	904.577
236.957	14.080	1196.970	903.220
237.972	14.117	1196.280	902.819
238.986	14.181	1195.658	902.619
240.001	14.106	1195.005	901.636
241.015	14.190	1194.030	901.278
242.030	14.183	1193.360	900.653
243.045	14.239	1192.329	900.099
244.059	14.204	1191.799	899.432
245.074	14.313	1190.959	899.306
246.088	14.286	1190.190	898.502
247.103	14.337	1189.391	898.089
248.117	14.392	1188.742	897.818
249.132	14.459	1188.094	897.612
250.147	14.579	1187.119	897.441
251.161	14.650	1186.265	897.099
252.176	14.604	1185.346	896.078
253.190	14.800	1184.743	896.594
254.205	14.685	1184.361	895.606
255.220	14.700	1183.777	895.167
256.234	14.730	1183.083	894.725
257.249	14.761	1182.596	894.441
258.263	14.619	1182.185	893.292
259.278	14.687	1181.239	892.861
260.293	14.760	1180.460	892.584
261.307	14.846	1180.195	892.764
262.322	14.767	1179.813	891.972
263.336	14.910	1178.754	891.857
264.351	14.924	1178.188	891.424
265.366	14.836	1177.394	890.277
266.380	14.820	1177.014	889.824
267.395	14.739	1175.785	888.388
268.409	14.791	1174.938	887.941
269.424	14.807	1174.686	887.758
270.439	14.845	1173.946	887.322
271.453	14.850	1172.983	886.543
272.468	14.758	1172.280	885.447
273.482	14.756	1171.709	884.927
274.497	14.816	1170.857	884.521
275.512	14.922	1169.847	884.243
276.526	14.864	1169.077	883.275
277.541	14.743	1168.685	882.260
278.555	14.934	1167.855	882.565
279.570	14.926	1167.438	882.127
280.585	15.020	1166.423	881.778
281.599	15.010	1165.209	880.730
282.614	14.960	1164.458	879.821
283.628	14.944	1163.145	878.670
284.643	14.948	1162.144	877.857
285.657	15.041	1160.973	877.379
286.672	14.963	1160.642	876.645
287.687	15.044	1159.690	876.272
288.701	14.975	1159.009	875.320
289.716	15.065	1158.270	875.153
290.730	15.088	1157.186	874.376
291.745	15.180	1156.333	874.137
292.760	15.070	1156.289	873.450
293.774	15.206	1155.436	873.436
294.789	15.222	1154.822	872.980
295.803	15.228	1153.920	872.250
296.818	15.238	1153.231	871.708
297.833	15.172	1152.309	870.588
298.847	15.240	1151.602	870.331
299.862	15.222	1150.361	869.221
300.876	15.200	1150.066	868.810
301.891	15.344	1149.495	869.045
302.906	15.317	1148.368	867.980
303.920	15.430	1147.927	868.151
304.935	15.388	1147.324	867.401
305.949	15.524	1146.444	867.361
306.964	15.468	1145.981	866.649
307.979	15.511	1145.043	866.085
308.993	15.427	1144.419	865.101
310.008	15.379	1144.047	864.497
311.022	15.470	1142.561	863.764
312.037	15.454	1142.111	863.267
313.052	15.444	1140.937	862.253
314.066	15.368	1140.167	861.205
315.081	15.425	1138.871	860.439
316.095	15.345	1138.603	859.749
317.110	15.402	1137.865	859.409
318.125	15.395	1137.114	858.728
319.139	15.304	1136.202	857.500
320.154	15.462	1135.139	857.428
321.168	15.393	1134.868	856.796
322.183	15.384	1134.574	856.452
323.197	15.354	1133.804	855.641
324.212	15.502	1133.116	855.804
325.227	15.481	1132.160	854.898
326.241	15.475	1131.701	854.443
327.256	15.479	1130.952	853.825
328.270	15.510	1129.870	853.088
329.285	15.459	1128.929	852.044
330.300	15.559	1127.966	851.751
331.314	15.473	1126.872	850.412
332.329	15.568	1126.220	850.327
333.343	15.576	1125.228	849.542
334.358	15.660	1124.380	849.250
335.373	15.670	1123.652	848.675
336.387	15.660	1123.301	848.284
337.402	15.580	1122.483	847.188
338.416	15.675	1121.775	847.059
339.431	15.715	1120.686	846.363
340.446	15.766	1120.530	846.427
341.460	15.793	1119.938	846.040
342.475	15.813	1119.193	845.505
343.489	15.941	1118.291	845.389
344.504	15.925	1116.859	844.154
345.519	16.019	1115.956	843.865
346.533	16.052	1114.470	842.833
347.548	16.015	1114.267	842.421
348.562	16.030	1113.550	841.876
349.577	16.051	1112.779	841.325
350.592	15.885	1112.261	840.031
351.606	15.906	1111.570	839.538
352.621	15.828	1110.640	838.374
353.635	15.906	1110.116	838.295
354.650	15.890	1109.456	837.639
355.665	15.799	1108.996	836.768
356.679	15.917	1108.011	836.533
357.694	15.930	1107.295	835.986
358.708	16.051	1106.514	835.923
359.723	16.100	1106.002	835.703
360.738	16.077	1105.482	835.124
361.752	16.070	1104.820	834.515
362.767	16.118	1104.128	834.156
363.781	16.159	1103.449	833.770
364.796	16.192	1103.156	833.639
365.810	16.275	1102.264	833.299
366.825	16.267	1101.817	832.848
367.840	16.367	1101.081	832.711
368.854	16.358	1100.604	832.236
369.869	16.377	1099.710	831.577
370.883	16.353	1099.179	830.983
371.898	16.285	1098.472	830.041
372.913	16.203	1097.697	828.983
373.927	16.275	1097.418	829.048
374.942	16.367	1096.458	828.705
375.956	16.387	1095.770	828.205
376.971	16.351	1095.438	827.709
377.986	16.325	1094.900	827.100
379.000	16.405	1094.401	827.041
380.015	16.488	1093.600	826.769
381.029	16.528	1093.091	826.506
382.044	16.535	1092.336	825.896
383.059	16.666	1091.150	825.565
384.073	16.518	1090.594	824.349
385.088	16.511	1089.826	823.661
386.102	16.548	1088.836	823.023
387.117	16.569	1087.883	822.330
388.132	16.519	1086.900	821.271
389.146	16.464	1086.501	820.632
390.161	16.510	1085.494	820.023
391.175	16.487	1085.088	819.530
392.190	16.594	1083.839	819.031
393.205	16.660	1083.373	818.929
394.219	16.684	1082.405	818.237
395.234	16.623	1081.525	817.206
396.248	16.574	1080.358	816.017
397.263	16.568	1079.246	815.073
398.278	16.603	1078.788	814.824
399.292	16.524	1078.368	814.054
400.307	16.588	1077.457	813.604
401.321	16.608	1076.640	813.014
402.336	16.544	1076.240	812.331
403.350	16.673	1075.319	812.183
404.365	16.569	1074.950	811.333
405.380	16.757	1073.656	811.187
406.394	16.697	1072.951	810.292
407.409	16.794	1072.054	810.009
408.423	16.874	1071.852	810.167
409.438	16.904	1071.131	809.691
410.453	16.911	1070.310	809.032
411.467	17.068	1069.251	808.911
412.482	17.014	1068.713	808.175
413.496	17.013	1068.003	807.562
414.511	16.986	1067.669	807.108
415.526	16.989	1067.087	806.610
416.540	17.174	1066.514	806.987
417.555	17.114	1066.017	806.252
418.569	17.070	1065.405	805.512
419.584	17.179	1064.739	805.454
420.599	17.157	1064.390	805.013
421.613	95.266	1314.024	1427.750
422.628	87.992	1350.369	1427.846
