DTS Sentinel unit serial number:	SN413079Multiplexer serial number:	ORYXHardware model number:	OX4-SRSoftware version number:	ORYX F/W v4.00 Oryx Data Collector v3.7.2.0data status	okinstallation	princeton_trtdifferential loss correction	single-endedforward channel	channel 2reverse channel	N/Adate	2019/09/12time	10:49:10forward acquisition time	60.00reverse acquisition time	0.00gamma	496.2192k internal	0.2307k external	0.2307temperature offset calibration	1.0061default loss term (dB/km)	0.3790temperature slope calibration	1.0000multiplexer offset coefficient	1.0000multiplexer slope coefficient	1.0000fibre end	0.00T internal ref (°C)	37.91T ext. ref 1 (°C)	1.91T ext. ref 2 (°C)	36.69length (m)	temperature (°C)	Stokes	anti-Stokes-747.200	-36.266	-0.232	-0.127
-746.185	78.179	-0.200	0.217
-745.171	70.693	0.228	-0.240
-744.156	-200.000	-0.044	0.299
-743.142	-200.000	-0.023	0.218
-742.127	-148.811	0.370	0.030
-741.112	53.592	-0.075	-0.074
-740.098	213.651	-0.144	0.231
-739.083	-50.238	0.280	-0.135
-738.069	-189.328	-0.055	-0.001
-737.054	-48.834	-0.137	0.067
-736.039	-30.605	-0.275	-0.159
-735.025	800.000	0.030	0.127
-734.010	-105.376	-0.289	-0.067
-732.996	-69.583	0.040	-0.016
-731.981	-49.122	0.068	-0.033
-730.966	-87.247	-0.207	0.064
-729.952	-2.293	-0.241	-0.172
-728.937	-200.000	0.040	0.193
-727.923	-105.851	-0.203	0.047
-726.908	164.598	0.057	0.082
-725.894	-118.241	-0.294	0.053
-724.879	-19.373	-0.226	0.142
-723.864	484.512	-0.128	-0.296
-722.850	-118.029	0.071	-0.013
-721.835	-200.000	0.026	-0.195
-720.821	800.000	0.041	-0.142
-719.806	-55.013	-0.292	-0.134
-718.791	800.000	0.084	-0.235
-717.777	-6.910	0.153	-0.105
-716.762	-39.151	-0.295	-0.158
-715.748	600.679	0.075	-0.190
-714.733	29.763	0.106	-0.092
-713.718	451.589	0.038	-0.085
-712.704	47.931	-0.218	-0.207
-711.689	-62.052	-0.253	-0.107
-710.675	-200.000	0.046	-0.247
-709.660	166.215	0.116	0.167
-708.645	-32.621	-0.049	0.028
-707.631	-24.301	-0.383	-0.232
-706.616	-36.985	0.117	0.064
-705.602	800.000	-0.006	0.018
-704.587	441.344	0.121	0.270
-703.572	96.391	0.135	0.157
-702.558	-200.000	-0.021	0.095
-701.543	-49.071	-0.196	-0.095
-700.529	53.817	0.159	0.155
-699.514	-13.209	-0.097	-0.064
-698.499	59.292	-0.197	0.197
-697.485	46.702	0.070	-0.066
-696.470	-85.054	-0.162	-0.052
-695.456	-200.000	-0.031	0.216
-694.441	-200.000	-0.020	-0.138
-693.426	73.693	-0.063	-0.067
-692.412	386.260	0.092	-0.194
-691.397	8.350	-0.027	0.020
-690.383	2.477	-0.264	-0.194
-689.368	144.421	-0.115	-0.155
-688.354	800.000	0.047	-0.147
-687.339	-158.326	0.508	-0.030
-686.324	167.530	-0.147	-0.212
-685.310	66.755	-0.123	-0.127
-684.295	-18.230	-0.142	0.090
-683.281	-200.000	0.000	-0.176
-682.266	-200.000	0.005	-0.215
-681.251	800.000	-0.088	-0.381
-680.237	-56.020	0.171	-0.077
-679.222	-5.803	-0.198	-0.137
-678.208	-200.000	0.037	0.305
-677.193	22.849	0.238	0.198
-676.178	10.891	-0.079	0.061
-675.164	51.713	0.214	0.206
-674.149	-133.195	-0.400	-0.051
-673.135	-34.873	0.131	0.072
-672.120	87.666	-0.143	0.161
-671.105	113.844	0.152	-0.187
-670.091	-12.883	0.187	-0.123
-669.076	800.000	-0.069	-0.239
-668.062	800.000	-0.033	-0.114
-667.047	130.696	-0.098	-0.128
-666.032	-119.027	0.081	-0.014
-665.018	-66.250	0.113	-0.046
-664.003	17.698	0.161	-0.130
-662.989	-105.452	0.251	-0.058
-661.974	109.061	0.076	-0.092
-660.959	-68.186	0.088	-0.035
-659.945	351.754	-0.096	-0.193
-658.930	800.000	0.098	-0.285
-657.916	569.042	0.070	0.173
-656.901	-200.000	-0.036	0.466
-655.886	-63.761	-0.164	0.068
-654.872	-200.000	0.004	-0.171
-653.857	1.421	-0.036	0.026
-652.843	104.963	-0.062	0.074
-651.828	114.000	-0.089	-0.109
-650.814	-200.000	0.075	-0.397
-649.799	-85.382	-0.140	0.044
-648.784	722.594	-0.098	0.264
-647.770	65.215	0.113	-0.116
-646.755	117.017	-0.182	-0.226
-645.741	104.702	-0.206	-0.246
-644.726	370.773	0.125	-0.256
-643.711	-52.185	0.145	0.068
-642.697	55.073	-0.104	-0.101
-641.682	-200.000	-0.030	-0.243
-640.668	-154.876	-0.030	0.002
-639.653	-50.944	-0.045	-0.022
-638.638	-17.632	-0.117	0.075
-637.624	-177.941	0.254	0.006
-636.609	-96.343	0.096	0.026
-635.595	-200.000	-0.024	0.169
-634.580	131.594	-0.223	0.290
-633.565	144.924	0.193	-0.262
-632.551	-147.306	0.187	0.016
-631.536	-24.515	0.166	-0.100
-630.522	-119.056	-0.158	0.028
-629.507	-103.338	-0.118	0.028
-628.492	552.254	-0.127	-0.310
-627.478	-80.929	-0.146	-0.049
-626.463	-200.000	-0.012	0.169
-625.449	-65.464	-0.324	0.132
-624.434	-103.841	-0.205	0.048
-623.419	185.992	-0.113	-0.170
-622.405	646.046	-0.057	-0.147
-621.390	-200.000	-0.048	-0.248
-620.376	-129.989	-0.173	-0.024
-619.361	560.314	-0.092	0.224
-618.346	800.000	-0.088	-0.342
-617.332	-86.845	-0.312	-0.096
-616.317	-200.000	-0.087	-0.431
-615.303	-117.435	0.126	-0.023
-614.288	-37.340	-0.144	-0.078
-613.273	251.113	0.025	-0.043
-612.259	15.322	0.295	0.234
-611.244	-91.003	0.297	0.086
-610.230	-200.000	0.004	0.220
-609.215	-25.834	-0.082	0.049
-608.201	800.000	0.101	0.343
-607.186	-200.000	0.049	0.257
-606.171	33.171	-0.078	-0.069
-605.157	62.684	-0.048	-0.048
-604.142	800.000	0.066	0.213
-603.128	-97.539	0.396	-0.104
-602.113	476.353	0.080	-0.182
-601.098	-92.699	0.275	0.078
-600.084	-164.245	0.142	-0.007
-599.069	-58.236	-0.200	0.088
-598.055	800.000	-0.138	0.392
-597.040	25.160	-0.153	0.128
-596.025	-183.749	-0.245	-0.004
-595.011	146.120	0.108	-0.146
-593.996	-138.852	0.142	-0.016
-592.982	-100.668	0.195	-0.049
-591.967	-200.000	-0.049	-0.323
-590.952	35.888	-0.249	-0.222
-589.938	-200.000	0.008	0.076
-588.923	-200.000	-0.038	0.305
-587.909	12.108	0.084	-0.065
-586.894	468.259	0.061	-0.139
-585.879	-9.665	0.429	-0.289
-584.865	54.228	0.398	-0.387
-583.850	-19.025	-0.280	-0.176
-582.836	-102.231	-0.242	0.059
-581.821	15.436	0.090	0.071
-580.806	-200.000	-0.003	-0.029
-579.792	-40.917	-0.088	0.046
-578.777	-15.096	0.078	0.050
-577.763	207.324	-0.164	0.259
-576.748	-11.653	-0.184	0.122
-575.733	-46.590	-0.040	-0.020
-574.719	-103.078	0.356	0.085
-573.704	-29.592	0.069	-0.040
-572.690	-89.514	-0.363	-0.108
-571.675	-125.185	-0.180	-0.028
-570.661	174.997	-0.124	-0.181
-569.646	800.000	0.120	-0.410
-568.631	-134.625	-0.298	0.037
-567.617	-15.228	0.290	-0.187
-566.602	11.884	0.214	0.166
-565.588	-39.124	-0.158	0.084
-564.573	-200.000	0.051	-0.237
-563.558	242.889	-0.104	0.176
-562.544	-145.524	-0.109	0.010
-561.529	153.842	-0.119	0.164
-560.515	133.169	0.251	0.327
-559.500	800.000	-0.070	0.298
-558.485	-200.000	-0.038	0.500
-557.471	8.075	0.200	-0.151
-556.456	-200.000	-0.007	-0.305
-555.442	754.277	0.075	-0.205
-554.427	-200.000	0.022	0.218
-553.412	-85.385	-0.149	-0.047
-552.398	-31.738	0.246	-0.139
-551.383	354.462	-0.044	-0.088
-550.369	-94.927	0.033	-0.009
-549.354	-149.809	0.181	0.014
-548.339	687.532	-0.109	0.287
-547.325	800.000	0.017	0.064
-546.310	188.459	0.055	-0.083
-545.296	800.000	-0.025	-0.097
-544.281	336.689	-0.070	-0.138
-543.266	-115.555	0.168	-0.032
-542.252	107.881	-0.125	0.151
-541.237	-4.054	0.308	0.215
-540.223	800.000	0.026	-0.112
-539.208	800.000	-0.079	-0.309
-538.193	800.000	-0.070	-0.224
-537.179	13.356	-0.075	-0.058
-536.164	-35.710	-0.175	-0.096
-535.150	-120.752	-0.285	-0.049
-534.135	800.000	-0.020	0.082
-533.121	-99.898	0.055	-0.014
-532.106	80.388	0.054	0.059
-531.091	-21.704	0.055	0.034
-530.077	57.891	0.278	0.275
-529.062	-32.201	0.057	-0.032
-528.048	-200.000	0.024	-0.198
-527.033	-24.092	-0.288	-0.174
-526.018	227.657	0.123	-0.202
-525.004	-200.000	0.027	-0.205
-523.989	238.331	0.117	0.196
-522.975	-200.000	-0.003	0.173
-521.960	-108.528	0.312	-0.068
-520.945	35.113	0.121	-0.107
-519.931	160.228	0.080	-0.112
-518.916	145.656	0.071	-0.096
-517.902	800.000	0.050	-0.185
-516.887	-97.650	0.155	-0.040
-515.872	800.000	-0.067	0.238
-514.858	-200.000	0.103	0.526
-513.843	-117.607	-0.249	0.045
-512.829	-200.000	0.030	-0.151
-511.814	251.293	-0.109	0.186
-510.799	131.281	0.202	-0.262
-509.785	87.682	0.192	-0.215
-508.770	-1.279	-0.102	-0.072
-507.756	458.323	-0.116	-0.260
-506.741	145.886	-0.326	-0.440
-505.726	178.700	0.157	-0.231
-504.712	230.150	-0.080	0.131
-503.697	-31.070	-0.307	-0.175
-502.683	-104.087	0.060	-0.014
-501.668	241.905	0.139	0.234
-500.653	-29.370	0.070	0.041
-499.639	-106.388	0.363	-0.082
-498.624	14.014	0.268	0.210
-497.610	-200.000	-0.035	-0.384
-496.595	116.222	-0.172	0.212
-495.581	369.883	0.042	0.086
-494.566	728.079	-0.081	0.218
-493.551	-200.000	0.026	0.333
-492.537	-113.704	-0.320	-0.063
-491.522	243.349	0.213	-0.360
-490.508	-200.000	0.031	-0.360
-489.493	128.531	-0.069	0.089
-488.478	-66.951	-0.180	-0.072
-487.464	-29.513	-0.116	0.067
-486.449	-200.000	0.028	0.297
-485.435	52.797	-0.139	0.134
-484.420	-200.000	0.061	0.382
-483.405	168.128	-0.180	-0.258
-482.391	-97.350	0.219	-0.057
-481.376	-81.085	0.210	0.070
-480.362	-36.391	-0.212	0.115
-479.347	340.699	-0.124	-0.243
-478.332	6.859	0.172	0.129
-477.318	740.652	-0.128	0.347
-476.303	800.000	0.029	0.092
-475.289	241.222	-0.088	-0.147
-474.274	-36.134	0.129	0.070
-473.259	99.840	-0.154	0.179
-472.245	-200.000	-0.021	-0.128
-471.230	54.838	0.100	-0.097
-470.216	67.339	0.084	0.086
-469.201	-200.000	0.012	0.234
-468.186	435.257	0.119	-0.259
-467.172	-118.622	-0.137	-0.024
-466.157	-58.158	0.159	0.070
-465.143	-61.830	-0.243	0.102
-464.128	84.160	0.046	0.051
-463.113	236.226	0.146	-0.243
-462.099	800.000	-0.021	0.078
-461.084	363.959	-0.145	0.293
-460.070	-140.654	-0.570	-0.059
-459.055	-121.537	0.484	0.081
-458.040	333.476	0.092	0.180
-457.026	214.765	0.155	0.247
-456.011	-52.496	-0.328	-0.153
-454.997	-88.047	0.144	-0.043
-453.982	-200.000	0.069	-0.335
-452.968	9.995	-0.173	0.132
-451.953	189.385	-0.097	-0.146
-450.938	-200.000	-0.007	-0.290
-449.924	-80.395	0.013	-0.004
-448.909	800.000	-0.070	0.202
-447.895	71.978	0.067	-0.070
-446.880	-200.000	0.048	-0.464
-445.865	280.589	-0.106	-0.191
-444.851	-200.000	0.051	0.242
-443.836	-191.615	-0.186	0.002
-442.822	-29.523	0.265	0.152
-441.807	-26.790	-0.337	0.198
-440.792	-200.000	-0.028	-0.154
-439.778	-180.042	0.115	0.002
-438.763	-114.567	0.321	-0.062
-437.749	-200.000	0.021	0.183
-436.734	-88.088	0.102	0.031
-435.719	-85.862	0.047	0.014
-434.705	302.870	0.029	-0.055
-433.690	38.691	0.354	-0.318
-432.676	-66.522	-0.485	-0.193
-431.661	-172.235	0.117	-0.004
-430.646	-200.000	-0.017	-0.152
-429.632	-77.011	-0.396	0.139
-428.617	800.000	-0.072	-0.289
-427.603	-77.562	0.280	-0.097
-426.588	-109.643	-0.109	-0.023
-425.573	-200.000	0.003	0.437
-424.559	-200.000	-0.023	0.263
-423.544	450.539	0.121	-0.267
-422.530	-120.497	-0.285	-0.049
-421.515	-200.000	-0.009	0.135
-420.500	-200.000	-0.014	-0.130
-419.486	-200.000	-0.015	0.127
-418.471	-113.403	0.131	0.026
-417.457	-164.896	-0.187	0.008
-416.442	132.140	0.126	-0.163
-415.428	-200.000	-0.010	0.180
-414.413	-65.585	-0.126	-0.051
-413.398	-200.000	-0.029	0.180
-412.384	-110.572	0.096	-0.020
-411.369	91.270	-0.231	0.260
-410.355	-124.351	0.257	-0.040
-409.340	-200.000	-0.001	0.026
-408.325	-200.000	-0.038	-0.169
-407.311	-168.790	0.096	0.004
-406.296	-200.000	-0.002	0.185
-405.282	290.100	0.075	-0.136
-404.267	-58.063	-0.401	-0.176
-403.252	800.000	-0.026	-0.090
-402.238	800.000	-0.062	0.206
-401.223	-80.518	-0.126	-0.042
-400.209	34.596	-0.163	-0.143
-399.194	300.624	0.149	0.276
-398.179	-200.000	0.021	0.380
-397.165	-90.188	0.252	0.074
-396.150	800.000	-0.153	-0.451
-395.136	-3.720	0.225	-0.157
-394.121	-187.304	-0.454	0.006
-393.106	62.852	0.081	0.081
-392.092	367.880	-0.122	-0.247
-391.077	-67.009	0.044	-0.017
-390.063	-200.000	0.013	0.243
-389.048	-166.994	-0.135	-0.006
-388.033	-8.621	0.062	-0.042
-387.019	-200.000	-0.032	0.208
-386.004	276.268	0.137	-0.244
-384.990	-200.000	-0.022	0.171
-383.975	395.972	-0.084	0.177
-382.960	555.664	0.119	0.287
-381.946	-200.000	-0.002	-0.068
-380.931	107.290	0.202	-0.241
-379.917	800.000	0.019	-0.067
-378.902	89.616	0.188	0.210
-377.888	46.163	0.184	-0.171
-376.873	-52.905	-0.179	0.083
-375.858	-97.478	0.221	0.058
-374.844	303.473	-0.011	-0.020
-373.829	-200.000	0.025	-0.303
-372.815	14.008	0.343	0.267
-371.800	-79.312	-0.351	-0.119
-370.785	63.617	-0.147	-0.148
-369.771	-112.725	-0.223	0.044
-368.756	650.908	0.085	-0.217
-367.742	-156.671	0.018	0.001
-366.727	133.169	-0.274	-0.355
-365.712	-131.642	-0.477	-0.063
-364.698	-19.235	-0.108	0.067
-363.683	359.468	0.098	0.197
-362.669	-200.000	0.086	-0.493
-361.654	-173.143	0.321	-0.010
-360.639	786.129	-0.098	0.270
-359.625	800.000	-0.091	0.365
-358.610	380.827	-0.174	-0.358
-357.596	-200.000	-0.015	0.119
-356.581	-90.754	-0.260	0.075
-355.566	77.029	0.331	0.352
-354.552	-137.049	0.468	0.054
-353.537	9.187	-0.209	-0.158
-352.523	-63.428	-0.272	0.112
-351.508	2.590	0.239	0.173
-350.493	171.051	-0.167	-0.240
-349.479	-200.000	-0.033	-0.213
-348.464	45.825	0.240	0.222
-347.450	-64.788	0.139	-0.056
-346.435	714.906	0.089	0.235
-345.420	-89.227	-0.070	0.021
-344.406	-171.140	0.457	-0.015
-343.391	-200.000	-0.017	0.249
-342.377	35.602	-0.134	0.117
-341.362	800.000	-0.112	0.358
-340.348	28.705	-0.173	-0.147
-339.333	800.000	-0.046	-0.172
-338.318	-4.331	-0.247	-0.171
-337.304	83.609	0.212	0.231
-336.289	-200.000	-0.027	0.348
-335.275	-59.206	-0.317	0.137
-334.260	435.731	-0.106	0.231
-333.245	-128.698	0.074	0.010
-332.231	180.087	-0.135	-0.198
-331.216	443.533	-0.039	0.085
-330.202	234.027	-0.279	-0.461
-329.187	-200.000	-0.054	-0.274
-328.172	-88.726	0.112	-0.033
-327.158	37.758	-0.118	-0.104
-326.143	-200.000	-0.015	-0.173
-325.129	-200.000	-0.007	-0.337
-324.114	133.041	0.146	-0.188
-323.099	40.452	-0.072	0.065
-322.085	204.144	0.061	-0.095
-321.070	-200.000	-0.026	-0.132
-320.056	-92.942	0.045	0.013
-319.041	672.784	-0.013	0.034
-318.026	91.457	0.115	0.129
-317.012	171.301	0.240	0.344
-315.997	-41.676	-0.059	0.030
-314.983	718.216	-0.077	-0.204
-313.968	-12.622	-0.130	0.085
-312.953	89.857	0.058	-0.064
-311.939	314.339	-0.097	0.183
-310.924	406.443	-0.057	-0.121
-309.910	128.128	-0.064	-0.081
-308.895	133.489	-0.061	-0.079
-307.880	228.243	0.133	-0.217
-306.866	-69.007	0.161	-0.062
-305.851	800.000	-0.068	-0.256
-304.837	-200.000	0.002	-0.070
-303.822	218.343	-0.075	0.120
-302.807	-107.455	0.182	0.040
-301.793	508.389	-0.104	-0.241
-300.778	-38.472	0.465	0.246
-299.764	170.898	-0.140	0.201
-298.749	268.234	-0.112	-0.195
-297.735	-31.359	-0.132	-0.075
-296.720	39.639	0.230	0.207
-295.705	-200.000	-0.011	0.056
-294.691	-33.206	0.305	-0.169
-293.676	147.923	0.134	-0.181
-292.662	-78.646	0.223	-0.076
-291.647	239.209	-0.161	-0.267
-290.632	66.214	0.108	0.109
-289.618	-200.000	-0.031	0.225
-288.603	-200.000	0.039	-0.197
-287.589	-71.444	0.365	0.136
-286.574	24.765	0.116	0.096
-285.559	-16.347	0.139	0.088
-284.545	-134.145	0.212	-0.026
-283.530	217.942	0.074	0.117
-282.516	65.189	-0.025	0.026
-281.501	10.206	0.265	0.201
-280.486	-200.000	-0.032	0.235
-279.472	-8.626	-0.161	0.108
-278.457	139.799	0.153	0.201
-277.443	337.683	-0.097	-0.189
-276.428	41.054	-0.035	0.032
-275.413	-167.640	-0.081	0.003
-274.399	-42.486	0.132	0.067
-273.384	800.000	0.085	0.294
-272.370	-169.003	-0.264	-0.010
-271.355	68.061	0.273	-0.279
-270.340	800.000	0.013	-0.039
-269.326	-45.480	-0.057	0.028
-268.311	-120.677	-0.219	-0.037
-267.297	351.423	0.047	0.093
-266.282	15.892	0.346	0.271
-265.267	-200.000	0.001	0.026
-264.253	-97.557	-0.396	0.103
-263.238	591.382	-0.062	-0.153
-262.224	-63.875	-0.074	-0.030
-261.209	313.777	0.085	0.160
-260.195	232.499	0.069	0.113
-259.180	-52.195	0.192	0.089
-258.165	-200.000	-0.023	0.149
-257.151	435.189	0.119	-0.258
-256.136	108.913	0.332	0.396
-255.122	-200.000	-0.028	0.331
-254.107	-50.369	-0.167	-0.079
-253.092	800.000	0.062	-0.256
-252.078	-81.733	-0.250	-0.082
-251.063	261.245	0.107	0.185
-250.049	-104.414	-0.280	0.065
-249.034	-92.690	-0.113	0.032
-248.019	-99.213	0.179	-0.045
-247.005	-51.366	-0.173	0.080
-245.990	-80.201	-0.261	0.087
-244.976	187.140	0.374	-0.556
-243.961	-47.281	0.160	0.078
-242.946	-200.000	0.016	-0.089
-241.932	189.071	-0.062	-0.093
-240.917	-5.530	0.090	0.061
-239.903	74.011	-0.128	0.133
-238.888	-72.652	-0.191	0.070
-237.873	-80.161	-0.225	-0.075
-236.859	133.134	0.157	0.202
-235.844	-170.703	0.200	-0.007
-234.830	-177.066	-0.401	0.010
-233.815	-129.451	0.248	0.034
-232.800	24.316	0.320	0.264
-231.786	358.909	-0.095	0.188
-230.771	-167.748	-0.115	0.005
-229.757	147.322	0.168	0.225
-228.742	210.813	-0.089	0.139
-227.727	-70.689	0.074	0.028
-226.713	-200.000	0.022	-0.446
-225.698	221.698	0.079	0.127
-224.684	800.000	0.018	-0.053
-223.669	3.255	-0.242	0.175
-222.655	-200.000	-0.007	-0.085
-221.640	800.000	-0.057	0.170
-220.625	24.130	-0.023	0.019
-219.611	-186.259	-0.231	0.003
-218.596	-200.000	0.016	-0.299
-217.582	-72.067	0.188	-0.069
-216.567	551.385	0.159	0.380
-215.552	-200.000	-0.034	0.151
-214.538	43.910	0.158	-0.144
-213.523	-10.348	-0.058	0.038
-212.509	-41.881	0.229	0.117
-211.494	48.613	0.102	0.095
-210.479	197.291	0.084	0.128
-209.465	800.000	-0.062	-0.212
-208.450	800.000	0.082	0.231
-207.436	32.983	0.158	0.137
-206.421	-200.000	0.069	0.477
-205.406	-173.012	-0.128	-0.004
-204.392	-111.533	0.163	-0.033
-203.377	292.016	-0.079	-0.143
-202.363	-44.198	0.170	0.085
-201.348	-97.258	0.183	-0.048
-200.333	-169.395	0.372	0.014
-199.319	10.784	-0.101	0.077
-198.304	-105.397	-0.096	0.022
-197.290	17.911	0.212	-0.168
-196.275	-0.976	-0.352	-0.248
-195.260	-10.107	-0.092	-0.061
-194.246	602.141	0.150	-0.372
-193.231	88.526	-0.095	-0.105
-192.217	127.016	0.297	0.375
-191.202	-43.256	-0.146	-0.073
-190.187	337.227	0.076	-0.147
-189.173	306.465	0.025	0.046
-188.158	-112.906	-0.054	-0.011
-187.144	-55.970	0.193	-0.085
-186.129	378.467	-0.111	-0.226
-185.114	-66.927	-0.285	0.112
-184.100	-200.000	-0.002	-0.435
-183.085	81.977	-0.247	0.266
-182.071	-100.451	0.151	-0.037
-181.056	174.397	0.175	-0.252
-180.042	-161.320	-0.185	-0.010
-179.027	-96.921	-0.372	-0.097
-178.012	-167.301	0.234	-0.009
-176.998	244.259	-0.058	-0.096
-175.983	-200.000	-0.071	0.455
-174.969	-200.000	0.028	-0.235
-173.954	-138.178	0.267	0.029
-172.939	-200.000	0.001	-0.190
-171.925	800.000	0.020	0.082
-170.910	-98.707	-0.188	0.048
-169.896	-133.637	0.350	-0.044
-168.881	-200.000	-0.017	0.246
-167.866	-76.730	-0.276	0.096
-166.852	-200.000	-0.061	-0.396
-165.837	4.154	-0.127	0.093
-164.823	800.000	0.063	0.260
-163.808	-200.000	-0.035	-0.387
-162.793	211.520	0.079	-0.123
-161.779	-4.516	-0.324	-0.223
-160.764	67.603	-0.074	0.076
-159.750	38.304	0.079	0.070
-158.735	-200.000	0.008	0.068
-157.720	382.888	-0.091	0.186
-156.706	-170.839	0.146	0.005
-155.691	-66.866	-0.251	-0.099
-154.677	800.000	0.070	0.223
-153.662	57.388	-0.403	0.391
-152.647	-40.210	0.146	0.075
-151.633	152.586	-0.131	0.178
-150.618	-10.496	0.155	-0.102
-149.604	-172.535	0.167	-0.005
-148.589	-76.134	0.323	0.113
-147.574	712.764	0.045	0.119
-146.560	-16.412	0.113	0.071
-145.545	-200.000	0.000	-0.100
-144.531	-57.298	-0.390	0.170
-143.516	148.588	0.184	-0.247
-142.502	-63.587	0.071	0.029
-141.487	94.457	0.248	0.280
-140.472	800.000	-0.062	-0.207
-139.458	143.533	-0.135	-0.178
-138.443	115.557	-0.235	-0.285
-137.429	105.152	-0.306	-0.359
-136.414	-200.000	0.054	-0.303
-135.399	-142.226	0.144	-0.014
-134.385	-80.276	-0.131	-0.044
-133.370	29.763	-0.177	0.150
-132.356	-122.141	0.194	0.032
-131.341	-200.000	-0.013	-0.255
-130.326	-200.000	0.010	-0.254
-129.312	56.302	-0.166	0.160
-128.297	123.477	0.138	0.172
-127.283	274.765	0.102	0.180
-126.268	-200.000	0.179	0.001
-125.253	192.449	-0.186	0.279
-124.239	239.579	0.007	-0.012
-123.224	-42.951	-0.009	-0.005
-122.210	-6.494	-0.162	-0.110
-121.195	-200.000	0.062	0.286
-120.180	-200.000	0.026	0.144
-119.166	-200.000	-0.059	0.349
-118.151	177.899	0.033	0.047
-117.137	-0.663	0.116	0.081
-116.122	-200.000	0.008	0.036
-115.107	-102.120	-0.606	0.145
-114.093	600.581	-0.056	0.137
-113.078	-101.829	-0.123	0.029
-112.064	-121.831	0.150	-0.025
-111.049	-62.430	0.184	0.076
-110.034	-107.308	-0.301	0.066
-109.020	80.021	0.098	-0.104
-108.005	-68.884	0.303	0.116
-106.991	311.261	-0.096	-0.179
-105.976	-82.915	0.170	-0.054
-104.962	39.469	-0.221	0.196
-103.947	377.430	0.202	0.410
-102.932	-35.076	0.072	-0.039
-101.918	-63.717	-0.155	-0.063
-100.903	800.000	-0.041	-0.125
-99.889	55.570	-0.165	0.159
-98.874	-200.000	0.079	-0.424
-97.859	104.646	-0.081	-0.094
-96.845	-96.766	-0.129	-0.034
-95.830	-121.893	0.292	-0.048
-94.816	-39.106	-0.194	0.101
-93.801	-98.666	0.145	-0.037
-92.786	800.000	0.107	-0.382
-91.772	-133.489	0.061	0.008
-90.757	-14.346	0.172	0.110
-89.743	-165.875	0.211	0.009
-88.728	-102.843	0.076	0.018
-87.713	-121.156	0.104	-0.017
-86.699	-200.000	0.008	-0.112
-85.684	144.025	-0.128	-0.169
-84.670	-50.101	0.313	0.147
-83.655	39.268	-0.163	-0.145
-82.640	591.192	-0.046	0.111
-81.626	42.012	0.219	-0.197
-80.611	82.144	0.178	0.191
-79.597	7.226	0.065	-0.048
-78.582	62.579	-0.042	0.041
-77.567	-62.017	-0.077	0.032
-76.553	-122.327	-0.257	0.042
-75.538	80.924	0.078	0.084
-74.524	4.562	-0.242	-0.176
-73.509	-96.412	0.087	0.023
-72.494	-56.776	-0.265	0.116
-71.480	-200.000	0.009	0.072
-70.465	194.532	0.163	0.245
-69.451	278.440	0.139	-0.246
-68.436	-168.024	0.051	-0.002
-67.422	800.000	0.085	-0.252
-66.407	78.075	-0.061	0.065
-65.392	-65.453	0.108	0.043
-64.378	-200.000	0.002	-0.033
-63.363	-137.846	-0.126	0.014
-62.349	800.000	-0.124	0.422
-61.334	16.769	-0.761	-0.597
-60.319	158.597	0.177	0.243
-59.305	-200.000	0.111	-0.736
-58.290	321.977	0.454	0.856
-57.276	333.907	0.710	1.360
-56.261	-200.000	83.735	494.888
-55.246	463.542	1390.193	3074.215
-54.232	144.018	2620.718	3459.418
-53.217	105.196	2360.948	2758.312
-52.203	46.589	1966.077	1806.071
-51.188	40.998	1752.167	1565.660
-50.173	38.263	1705.543	1502.941
-49.159	52.877	1745.451	1651.926
-48.144	56.832	1764.008	1700.152
-47.130	40.939	1725.361	1541.004
-46.115	37.932	1711.022	1504.981
-45.100	37.776	1706.441	1499.691
-44.086	37.750	1704.044	1497.324
-43.071	37.813	1700.979	1495.055
-42.057	37.757	1698.216	1492.139
-41.042	37.736	1696.703	1490.586
-40.027	37.782	1694.222	1488.699
-39.013	37.751	1692.506	1486.899
-37.998	37.741	1691.017	1485.456
-36.984	37.836	1689.759	1485.017
-35.969	37.818	1688.284	1483.524
-34.954	37.995	1685.478	1482.345
-33.940	37.899	1684.222	1480.452
-32.925	37.818	1682.805	1478.528
-31.911	37.947	1680.728	1477.625
-30.896	37.924	1679.173	1476.028
-29.881	37.836	1677.526	1473.854
-28.867	37.973	1675.600	1473.139
-27.852	37.987	1674.323	1472.058
-26.838	37.868	1673.407	1470.297
-25.823	37.934	1671.788	1469.314
-24.809	37.967	1669.831	1467.785
-23.794	37.962	1668.420	1466.451
-22.779	37.953	1667.332	1465.365
-21.765	38.009	1665.435	1464.063
-20.750	37.845	1664.174	1461.668
-19.736	37.984	1661.935	1460.682
-18.721	37.898	1661.383	1459.494
-17.706	37.922	1659.208	1457.704
-16.692	37.890	1658.265	1456.586
-15.677	37.991	1656.468	1455.696
-14.663	38.008	1655.335	1454.770
-13.648	37.904	1653.967	1452.737
-12.633	37.965	1652.130	1451.520
-11.619	38.029	1650.329	1450.354
-10.604	37.858	1649.095	1447.948
-9.590	37.960	1647.364	1447.121
-8.575	37.906	1646.253	1445.689
-7.560	37.903	1645.006	1444.519
-6.546	37.907	1643.861	1443.481
-5.531	37.880	1642.637	1442.152
-4.517	37.938	1641.246	1441.301
-3.502	37.973	1640.229	1440.608
-2.487	38.021	1638.677	1439.546
-1.473	38.023	1628.036	1430.155
-0.458	36.022	1609.061	1398.916
0.556	32.580	1609.636	1368.122
1.571	30.239	1635.076	1372.330
2.586	29.520	1648.625	1378.212
3.600	25.392	1592.076	1300.995
4.615	13.710	1471.633	1123.767
5.629	3.697	1399.882	1004.056
6.644	2.102	1389.910	986.512
7.659	1.951	1388.374	984.363
8.673	1.885	1387.449	983.194
9.688	1.693	1385.821	980.713
10.702	1.494	1382.633	977.094
11.717	5.276	1390.677	1007.104
12.731	16.348	1412.507	1094.976
13.746	24.915	1426.573	1161.621
14.761	26.398	1428.499	1172.715
15.775	26.604	1428.227	1173.725
16.790	26.642	1427.866	1173.570
17.804	26.715	1426.960	1173.195
18.819	26.845	1426.989	1173.955
19.834	27.001	1426.145	1174.167
20.848	26.993	1425.384	1173.381
21.863	26.971	1424.405	1172.331
22.877	27.028	1423.470	1171.825
23.892	26.958	1422.738	1170.667
24.907	27.077	1421.441	1170.266
25.921	26.955	1421.041	1169.043
26.936	26.971	1419.411	1167.702
27.950	26.972	1418.565	1166.910
28.965	27.067	1416.967	1166.104
29.980	26.968	1416.026	1164.593
30.994	26.894	1415.190	1163.323
32.009	26.942	1413.971	1162.531
33.023	26.949	1412.400	1161.179
34.038	26.977	1411.569	1160.570
35.053	26.954	1410.719	1159.619
36.067	26.935	1409.603	1158.480
37.082	26.965	1408.403	1157.585
38.096	27.022	1407.709	1157.273
39.111	26.963	1406.990	1156.205
40.126	26.894	1406.122	1154.947
41.140	26.905	1405.815	1154.663
42.155	27.021	1405.721	1155.225
43.169	27.016	1405.077	1154.562
44.184	27.029	1404.884	1154.379
45.199	26.874	1404.449	1152.935
46.213	26.925	1404.178	1152.936
47.228	27.019	1402.570	1152.108
48.242	26.982	1401.707	1151.066
49.257	26.952	1400.259	1149.584
50.271	26.951	1398.381	1147.936
51.286	26.922	1397.726	1147.115
52.301	26.991	1396.296	1146.271
53.315	26.958	1395.263	1145.118
54.330	26.977	1394.414	1144.440
55.344	26.916	1393.664	1143.338
56.359	26.921	1392.316	1142.164
57.374	26.933	1391.724	1141.649
58.388	26.987	1390.751	1141.088
59.403	26.954	1390.843	1140.857
60.417	27.008	1389.793	1140.236
61.432	26.994	1389.179	1139.544
62.447	26.850	1389.095	1138.466
63.461	26.887	1387.303	1137.133
64.476	26.959	1386.346	1136.698
65.490	26.934	1385.757	1135.958
66.505	26.999	1383.478	1134.391
67.520	26.950	1382.300	1133.024
68.534	26.847	1381.771	1131.842
69.549	26.980	1380.470	1131.509
70.563	26.991	1379.536	1130.711
71.578	26.927	1378.751	1129.568
72.593	26.990	1377.539	1128.865
73.607	26.940	1377.322	1128.279
74.622	27.054	1376.043	1127.841
75.636	26.984	1375.392	1126.774
76.651	26.944	1374.997	1126.098
77.666	26.938	1374.226	1125.333
78.680	26.935	1373.943	1124.982
79.695	26.972	1373.129	1124.446
80.709	27.024	1372.178	1123.886
81.724	27.005	1371.076	1122.770
82.739	27.060	1370.158	1122.261
83.753	26.924	1369.600	1120.860
84.768	27.034	1368.005	1120.139
85.782	27.033	1366.801	1119.042
86.797	27.069	1365.784	1118.333
87.812	27.043	1364.497	1117.020
88.826	26.994	1363.291	1115.637
89.841	27.013	1362.602	1115.088
90.855	26.989	1361.645	1114.057
91.870	27.123	1360.429	1113.790
92.884	26.985	1360.110	1112.580
93.899	26.990	1359.196	1111.766
94.914	27.026	1358.355	1111.203
95.928	27.035	1357.631	1110.568
96.943	27.043	1356.921	1109.934
97.957	27.028	1356.072	1109.048
98.972	27.038	1355.240	1108.336
99.987	27.031	1354.102	1107.263
101.001	26.950	1353.343	1106.050
102.016	27.008	1352.427	1105.559
103.030	27.072	1351.363	1104.978
104.045	27.037	1350.792	1104.202
105.060	26.994	1349.920	1103.130
106.074	27.030	1348.803	1102.338
107.089	27.048	1347.836	1101.561
108.103	27.077	1346.615	1100.639
109.118	27.095	1345.257	1099.541
110.133	27.065	1344.083	1098.302
111.147	27.095	1343.024	1097.524
112.162	27.136	1341.885	1096.744
113.176	27.102	1340.996	1095.710
114.191	27.175	1340.066	1095.292
115.206	27.156	1339.030	1094.239
116.220	27.053	1338.230	1092.867
117.235	27.088	1337.267	1092.193
118.249	27.125	1336.333	1091.559
119.264	27.034	1335.490	1090.226
120.279	27.084	1334.724	1089.805
121.293	27.175	1333.904	1089.584
122.308	27.237	1332.908	1089.043
123.322	27.160	1332.710	1088.323
124.337	27.183	1331.249	1087.176
125.352	27.079	1330.759	1086.057
126.366	27.178	1329.937	1085.877
127.381	27.128	1329.308	1084.969
128.395	27.141	1328.438	1084.245
129.410	27.172	1327.585	1083.635
130.424	27.105	1327.062	1082.714
131.439	27.183	1325.423	1081.745
132.454	27.067	1325.424	1080.962
133.468	27.278	1324.075	1081.020
134.483	27.121	1323.778	1079.745
135.497	27.178	1322.931	1079.302
136.512	27.159	1322.507	1078.746
137.527	27.148	1320.700	1077.109
138.541	27.132	1319.992	1076.345
139.556	27.029	1318.617	1074.515
140.570	27.203	1317.431	1074.484
141.585	27.196	1316.411	1073.517
142.600	27.062	1315.705	1072.055
143.614	27.077	1314.940	1071.426
144.629	27.227	1313.505	1071.045
145.643	27.077	1312.960	1069.624
146.658	27.032	1311.967	1068.453
147.673	27.115	1310.854	1067.941
148.687	27.049	1309.890	1066.672
149.702	27.096	1308.505	1065.724
150.716	27.082	1307.044	1064.359
151.731	27.213	1306.093	1064.261
152.746	27.102	1305.544	1063.068
153.760	27.072	1304.572	1062.006
154.775	27.119	1303.225	1061.092
155.789	27.183	1302.389	1060.690
156.804	27.164	1301.463	1059.731
157.819	26.955	1300.865	1057.931
158.833	27.072	1300.387	1058.130
159.848	27.141	1299.271	1057.531
160.862	27.082	1298.760	1056.676
161.877	27.115	1297.765	1055.969
162.892	27.218	1296.761	1055.654
163.906	27.161	1296.315	1054.865
164.921	27.236	1295.215	1054.315
165.935	27.213	1294.506	1053.508
166.950	27.297	1293.774	1053.310
167.964	27.165	1293.359	1052.110
168.979	27.288	1292.745	1052.235
169.994	27.216	1292.136	1051.226
171.008	27.303	1291.374	1051.018
172.023	27.342	1290.419	1050.369
173.037	27.305	1289.435	1049.265
174.052	27.314	1288.880	1048.769
175.067	27.249	1288.082	1047.657
176.081	27.234	1287.692	1047.159
177.096	27.269	1286.539	1046.329
178.110	27.286	1285.676	1045.633
179.125	27.234	1284.742	1044.484
180.140	27.294	1283.608	1043.809
181.154	27.244	1282.349	1042.411
182.169	27.231	1281.598	1041.630
183.183	27.371	1279.891	1040.953
184.198	27.328	1279.228	1040.077
185.213	27.253	1278.647	1039.084
186.227	27.255	1278.147	1038.598
187.242	27.368	1276.654	1037.938
188.256	27.349	1275.831	1037.066
189.271	27.263	1275.372	1036.112
190.286	27.304	1274.503	1035.547
191.300	27.239	1273.914	1034.607
192.315	27.255	1273.363	1034.158
193.329	27.313	1272.866	1033.996
194.344	27.407	1272.601	1034.222
195.359	27.270	1272.235	1033.053
196.373	27.212	1271.715	1032.214
197.388	27.278	1271.171	1032.054
198.402	27.305	1270.693	1031.724
199.417	27.249	1270.161	1030.888
200.432	27.286	1269.592	1030.544
201.446	27.329	1269.131	1030.320
202.461	27.313	1268.178	1029.367
203.475	27.357	1267.087	1028.638
204.490	27.375	1266.465	1028.144
205.504	27.309	1265.381	1026.797
206.519	27.455	1264.422	1026.753
207.534	27.464	1263.277	1025.785
208.548	27.390	1262.374	1024.545
209.563	27.369	1261.854	1023.911
210.577	27.324	1261.217	1023.052
211.592	27.502	1259.805	1022.814
212.607	27.453	1259.389	1022.112
213.621	27.456	1258.657	1021.446
214.636	27.496	1257.607	1020.727
215.650	27.412	1257.071	1019.729
216.665	27.441	1255.883	1018.837
217.680	27.411	1254.967	1017.840
218.694	27.431	1254.223	1017.254
219.709	27.579	1252.943	1016.952
220.723	27.538	1252.519	1016.292
221.738	27.461	1252.234	1015.541
222.753	27.433	1251.050	1014.335
223.767	27.509	1250.747	1014.422
224.782	27.480	1250.567	1014.024
225.796	27.578	1249.713	1013.790
226.811	27.672	1249.033	1013.668
227.826	27.566	1248.591	1012.630
228.840	27.562	1247.929	1011.981
229.855	27.498	1247.559	1011.240
230.869	27.474	1246.597	1010.233
231.884	27.640	1245.634	1010.285
232.899	27.534	1245.029	1009.121
233.913	27.563	1244.764	1008.977
234.928	27.659	1244.016	1008.810
235.942	27.675	1243.145	1008.105
236.957	27.608	1242.148	1006.837
237.972	27.668	1241.637	1006.664
238.986	27.659	1240.756	1005.810
240.001	27.650	1241.100	1005.949
241.015	27.822	1239.832	1005.782
242.030	27.727	1238.925	1004.436
243.045	27.689	1238.098	1003.463
244.059	27.702	1237.582	1003.031
245.074	27.763	1236.856	1002.688
246.088	27.757	1236.044	1001.907
247.103	27.746	1234.878	1000.815
248.117	27.737	1234.389	1000.278
249.132	27.681	1233.383	999.071
250.147	27.745	1232.906	998.945
251.161	27.848	1232.148	998.808
252.176	27.931	1231.123	998.342
253.190	27.777	1230.977	997.294
254.205	27.825	1230.082	996.740
255.220	27.814	1229.558	996.169
256.234	27.905	1228.643	995.835
257.249	27.892	1227.956	995.117
258.263	27.888	1227.028	994.256
259.278	27.905	1226.827	994.098
260.293	27.899	1226.371	993.606
261.307	27.896	1226.115	993.296
262.322	27.847	1225.619	992.543
263.336	27.837	1224.674	991.633
264.351	27.853	1224.395	991.408
265.366	27.772	1223.798	990.394
266.380	27.776	1223.180	989.833
267.395	27.817	1222.523	989.432
268.409	27.874	1221.299	988.663
269.424	27.927	1220.998	988.620
270.439	27.992	1220.267	988.290
271.453	28.017	1219.603	987.799
272.468	27.841	1218.754	986.078
273.482	27.825	1218.200	985.454
274.497	27.946	1217.840	985.731
275.512	28.015	1217.450	985.695
276.526	27.857	1216.793	984.225
277.541	27.994	1215.864	984.128
278.555	27.983	1214.918	983.214
279.570	27.916	1214.866	982.726
280.585	28.080	1212.920	981.942
281.599	28.017	1212.545	981.215
282.614	27.991	1211.714	980.315
283.628	28.027	1210.571	979.497
284.643	28.042	1210.145	979.146
285.657	28.095	1209.053	978.459
286.672	28.023	1208.574	977.602
287.687	27.990	1207.771	976.689
288.701	28.208	1206.913	977.075
289.716	28.094	1206.226	975.822
290.730	28.042	1205.597	974.949
291.745	28.179	1204.879	975.012
292.760	28.038	1204.597	973.947
293.774	28.049	1203.931	973.379
294.789	28.083	1203.632	973.231
295.803	28.063	1202.978	972.514
296.818	28.173	1201.996	972.220
297.833	28.166	1200.914	971.219
298.847	28.231	1200.352	971.024
299.862	28.239	1199.715	970.466
300.876	28.084	1199.601	969.464
301.891	28.208	1198.769	969.363
302.906	28.251	1198.083	968.948
303.920	28.196	1197.577	968.165
304.935	28.262	1196.872	967.855
305.949	28.300	1195.980	967.250
306.964	28.256	1195.693	966.702
307.979	28.282	1195.186	966.344
308.993	28.298	1194.161	965.515
310.008	28.333	1193.386	964.984
311.022	28.276	1192.509	963.892
312.037	28.425	1191.252	963.572
313.052	28.327	1190.572	962.423
314.066	28.229	1190.238	961.552
315.081	28.358	1189.295	961.383
316.095	28.332	1189.008	960.928
317.110	28.308	1188.300	960.148
318.125	28.403	1187.748	960.111
319.139	28.433	1186.414	959.109
320.154	28.351	1186.250	958.463
321.168	28.395	1185.853	958.287
322.183	28.319	1185.018	957.131
323.197	28.341	1184.582	956.805
324.212	28.313	1183.950	956.064
325.227	28.530	1183.301	956.588
326.241	28.542	1183.070	956.377
327.256	28.482	1182.118	955.215
328.270	28.448	1181.171	954.183
329.285	28.417	1180.378	953.299
330.300	28.420	1179.633	952.631
331.314	28.553	1178.661	952.449
332.329	28.492	1177.927	951.458
333.343	28.555	1177.257	951.156
334.358	28.492	1176.704	950.299
335.373	28.573	1175.819	949.922
336.387	28.554	1175.252	949.278
337.402	28.618	1174.324	948.780
338.416	28.577	1173.785	948.049
339.431	28.612	1173.324	947.771
340.446	28.756	1172.371	947.662
341.460	28.665	1171.846	946.681
342.475	28.674	1170.870	945.855
343.489	28.736	1170.037	945.419
344.504	28.701	1169.272	944.537
345.519	28.622	1168.916	943.760
346.533	28.690	1167.419	942.816
347.548	28.729	1166.864	942.487
348.562	28.651	1166.507	941.716
349.577	28.776	1165.330	941.323
350.592	28.598	1164.863	939.947
351.606	28.591	1164.141	939.249
352.621	28.715	1163.451	939.242
353.635	28.759	1162.776	938.838
354.650	28.804	1162.363	938.654
355.665	28.788	1161.404	937.715
356.679	28.747	1161.641	937.613
357.694	28.880	1160.455	937.250
358.708	28.679	1160.254	935.982
359.723	28.819	1158.687	935.347
360.738	28.841	1157.940	934.772
361.752	28.880	1157.677	934.674
362.767	28.848	1157.375	934.186
363.781	28.912	1156.791	933.954
364.796	28.899	1156.267	933.385
365.810	28.982	1155.032	932.728
366.825	29.003	1154.633	932.429
367.840	28.967	1154.660	932.186
368.854	28.969	1153.872	931.478
369.869	28.986	1153.136	930.887
370.883	29.060	1152.157	930.389
371.898	29.000	1151.467	929.446
372.913	29.011	1150.951	929.001
373.927	29.061	1150.367	928.698
374.942	29.052	1149.879	928.180
375.956	28.944	1149.995	927.646
376.971	29.115	1148.788	927.452
377.986	29.091	1148.309	926.862
379.000	29.129	1147.864	926.613
380.015	29.180	1147.088	926.162
381.029	29.079	1146.667	925.229
382.044	29.183	1145.673	924.867
383.059	29.213	1145.178	924.537
384.073	29.155	1144.610	923.705
385.088	29.150	1143.487	922.693
386.102	29.198	1142.755	922.262
387.117	29.050	1142.447	921.192
388.132	29.129	1140.880	920.239
389.146	29.192	1140.361	920.054
390.161	29.198	1139.930	919.656
391.175	29.131	1139.174	918.630
392.190	29.215	1138.887	918.737
393.205	29.281	1137.696	918.023
394.219	29.164	1137.234	916.987
395.234	29.284	1136.302	916.750
396.248	29.231	1135.382	915.665
397.263	29.315	1134.564	915.341
398.278	29.351	1134.203	915.148
399.292	29.287	1133.692	914.336
400.307	29.253	1132.924	913.467
401.321	29.307	1132.842	913.589
402.336	29.252	1132.053	912.597
403.350	29.279	1130.962	911.772
404.365	29.351	1130.370	911.568
405.380	29.355	1129.910	911.139
406.394	29.408	1129.067	910.638
407.409	29.374	1127.951	909.490
408.423	29.493	1127.493	909.626
409.438	29.487	1126.609	908.805
410.453	29.566	1125.967	908.597
411.467	29.516	1125.281	907.715
412.482	29.532	1124.576	907.144
413.496	29.621	1123.668	906.769
414.511	29.479	1123.522	905.875
415.526	29.304	1123.454	904.879
416.540	29.531	1122.600	905.224
417.555	29.507	1122.255	904.747
418.569	29.444	1121.632	903.856
419.584	29.610	1120.998	904.082
420.599	29.664	1120.548	903.900
421.613	94.080	1312.694	1411.399
422.628	88.486	1340.666	1411.534
