DTS Sentinel unit serial number:	SN413079Multiplexer serial number:	ORYXHardware model number:	OX4-SRSoftware version number:	ORYX F/W v4.00 Oryx Data Collector v3.7.2.0data status	okinstallation	princeton_trtdifferential loss correction	single-endedforward channel	channel 2reverse channel	N/Adate	2019/09/13time	10:11:35forward acquisition time	60.00reverse acquisition time	0.00gamma	496.2192k internal	0.2324k external	0.2324temperature offset calibration	1.0193default loss term (dB/km)	0.3790temperature slope calibration	1.0000multiplexer offset coefficient	1.0000multiplexer slope coefficient	1.0000fibre end	0.00T internal ref (°C)	30.56T ext. ref 1 (°C)	4.52T ext. ref 2 (°C)	27.92length (m)	temperature (°C)	Stokes	anti-Stokes-747.200	-200.000	-0.014	0.300
-746.185	-200.000	-0.061	0.304
-745.171	-9.848	0.161	0.109
-744.156	-85.497	-0.247	0.078
-743.142	-7.968	-0.172	0.117
-742.127	-200.000	0.032	0.438
-741.112	4.457	0.176	0.130
-740.098	-200.000	-0.009	0.057
-739.083	4.553	-0.161	0.120
-738.069	226.838	0.200	0.328
-737.054	77.403	0.184	-0.198
-736.039	-109.494	-0.314	0.067
-735.025	-200.000	-0.002	-0.154
-734.010	219.063	-0.257	-0.414
-732.996	53.348	-0.241	-0.233
-731.981	-200.000	-0.001	-0.167
-730.966	516.977	0.052	-0.123
-729.952	-85.270	-0.333	-0.105
-728.937	-114.367	-0.129	0.025
-727.923	268.652	0.168	0.298
-726.908	-7.325	0.240	-0.164
-725.894	145.630	-0.217	-0.294
-724.879	-67.619	-0.170	-0.067
-723.864	-99.052	-0.272	-0.070
-722.850	-200.000	0.043	0.255
-721.835	97.147	-0.109	-0.126
-720.821	-200.000	-0.005	-0.139
-719.806	-59.913	-0.142	-0.061
-718.791	-200.000	0.024	-0.134
-717.777	-109.179	-0.230	0.049
-716.762	-200.000	0.056	0.436
-715.748	155.575	0.146	-0.202
-714.733	75.018	0.075	-0.080
-713.718	-71.884	0.171	0.064
-712.704	159.765	0.179	-0.251
-711.689	-200.000	-0.005	0.106
-710.675	525.763	0.109	0.259
-709.660	-200.000	0.041	0.182
-708.645	-70.249	0.308	0.118
-707.631	-31.826	0.194	0.110
-706.616	725.964	-0.065	0.174
-705.602	344.053	-0.035	0.070
-704.587	53.358	-0.168	-0.162
-703.572	-23.729	-0.203	-0.123
-702.558	-200.000	-0.039	-0.305
-701.543	-200.000	0.031	-0.139
-700.529	-42.069	-0.068	0.035
-699.514	-87.578	-0.068	-0.021
-698.499	-200.000	-0.019	0.202
-697.485	-153.548	0.331	0.023
-696.470	439.249	0.077	-0.171
-695.456	-200.000	0.008	0.134
-694.441	229.992	0.162	-0.267
-693.426	-200.000	-0.011	-0.391
-692.412	-6.913	0.270	0.185
-691.397	-111.438	-0.414	0.085
-690.383	-200.000	-0.217	-0.001
-689.368	248.241	-0.203	-0.347
-688.354	-34.264	0.295	-0.163
-687.339	-29.570	-0.180	-0.104
-686.324	57.228	0.112	0.110
-685.310	-200.000	0.044	-0.249
-684.295	-164.205	-0.135	0.006
-683.281	105.297	0.156	-0.185
-682.266	800.000	-0.107	0.412
-681.251	132.442	0.111	-0.144
-680.237	-95.717	-0.170	-0.046
-679.222	-102.384	0.230	0.056
-678.208	-33.866	-0.104	-0.058
-677.193	-40.113	-0.153	0.080
-676.178	-200.000	0.018	0.153
-675.164	800.000	0.106	-0.343
-674.149	-131.845	-0.143	0.019
-673.135	10.976	-0.191	-0.147
-672.120	37.427	-0.119	0.106
-671.105	800.000	-0.030	0.113
-670.091	65.340	-0.193	-0.197
-669.076	51.622	0.185	-0.177
-668.062	-119.584	0.095	0.017
-667.047	18.384	0.130	0.105
-666.032	-123.891	0.188	-0.030
-665.018	1.590	0.095	-0.069
-664.003	13.599	-0.236	-0.185
-662.989	44.456	0.072	-0.066
-661.974	-57.749	-0.142	0.062
-660.959	38.440	0.194	-0.174
-659.945	0.612	-0.263	0.189
-658.930	-200.000	0.014	-0.394
-657.916	422.055	0.144	-0.311
-656.901	-200.000	-0.008	-0.472
-655.886	34.626	-0.171	0.150
-654.872	142.469	0.048	-0.065
-653.857	230.477	0.138	-0.226
-652.843	123.956	-0.225	0.284
-651.828	470.615	-0.088	0.199
-650.814	800.000	-0.073	0.299
-649.799	-87.117	0.200	0.061
-648.784	-81.136	-0.108	0.036
-647.770	76.330	0.240	-0.255
-646.755	32.772	-0.097	-0.084
-645.741	538.708	-0.081	-0.195
-644.726	115.170	0.181	0.222
-643.711	90.704	-0.088	-0.099
-642.697	40.144	0.207	-0.187
-641.682	188.174	-0.195	0.293
-640.668	-124.404	0.279	0.044
-639.653	79.323	-0.355	-0.383
-638.638	155.330	0.173	-0.239
-637.624	-84.209	0.412	-0.131
-636.609	-127.171	0.094	-0.014
-635.595	-14.023	-0.229	-0.149
-634.580	800.000	0.106	-0.368
-633.565	-36.381	0.074	-0.040
-632.551	-60.238	-0.057	-0.024
-631.536	800.000	0.009	-0.041
-630.522	-109.020	-0.370	0.079
-629.507	-160.668	0.088	-0.005
-628.492	686.440	0.140	-0.368
-627.478	-200.000	-0.017	-0.271
-626.463	225.318	-0.058	-0.094
-625.449	-132.771	0.409	-0.053
-624.434	-200.000	0.010	-0.088
-623.419	800.000	0.055	-0.197
-622.405	119.789	-0.116	-0.144
-621.390	-200.000	0.023	-0.173
-620.376	-101.737	0.244	-0.059
-619.361	445.266	-0.031	0.069
-618.346	22.911	0.164	0.135
-617.332	-91.202	0.287	-0.083
-616.317	-200.000	-0.022	0.275
-615.303	-24.835	-0.160	0.095
-614.288	623.664	0.086	-0.217
-613.273	-190.848	-0.179	-0.002
-612.259	-72.455	-0.209	-0.078
-611.244	312.885	0.128	0.241
-610.230	-9.553	-0.423	0.284
-609.215	-7.908	-0.236	-0.160
-608.201	-101.951	-0.107	-0.026
-607.186	-142.885	0.391	0.038
-606.171	26.429	0.254	0.213
-605.157	188.412	-0.134	-0.202
-604.142	-44.876	0.178	-0.089
-603.128	-200.000	-0.007	0.088
-602.113	32.372	0.109	-0.094
-601.098	800.000	0.057	0.197
-600.084	-107.041	0.403	-0.089
-599.069	-170.621	-0.242	-0.008
-598.055	-200.000	0.024	-0.124
-597.040	145.259	0.281	-0.377
-596.025	800.000	-0.047	-0.141
-595.011	-182.156	-0.388	0.007
-593.996	-126.074	-0.313	-0.047
-592.982	662.139	-0.137	0.354
-591.967	-58.900	0.323	-0.140
-590.952	259.124	-0.144	-0.249
-589.938	476.636	0.163	0.370
-588.923	-12.388	0.016	0.011
-587.909	-200.000	0.015	-0.139
-586.894	-13.219	0.095	-0.062
-585.879	-36.679	-0.142	0.076
-584.865	-103.581	0.118	-0.028
-583.850	-45.204	-0.155	0.077
-582.836	33.564	-0.082	-0.072
-581.821	-8.124	-0.188	0.127
-580.806	-200.000	0.015	-0.515
-579.792	7.220	-0.259	0.194
-578.777	204.996	0.106	0.164
-577.763	-200.000	-0.019	0.155
-576.748	-37.301	-0.182	0.098
-575.733	-200.000	0.042	-0.210
-574.719	800.000	-0.130	0.447
-573.704	-200.000	-0.023	-0.254
-572.690	532.496	-0.078	0.184
-571.675	-200.000	0.057	0.000
-570.661	-113.109	0.193	-0.038
-569.646	-36.572	-0.369	-0.199
-568.631	407.547	0.051	0.108
-567.617	-117.614	-0.060	-0.011
-566.602	-80.157	0.144	-0.048
-565.588	-200.000	-0.045	-0.392
-564.573	0.793	-0.378	-0.271
-563.558	180.462	0.160	-0.235
-562.544	60.995	0.154	-0.153
-561.529	-145.130	-0.043	-0.004
-560.515	-160.574	0.023	0.001
-559.500	305.081	0.084	-0.157
-558.485	206.957	0.018	0.028
-557.471	151.433	-0.152	0.207
-556.456	34.810	0.153	0.134
-555.442	-169.991	0.397	-0.014
-554.427	-125.124	0.153	0.023
-553.412	59.470	-0.274	0.271
-552.398	-12.488	-0.169	0.111
-551.383	800.000	0.039	-0.164
-550.369	27.489	-0.321	-0.271
-549.354	-81.740	-0.355	-0.117
-548.339	800.000	-0.052	0.180
-547.325	16.349	0.114	-0.090
-546.310	-115.759	-0.127	0.024
-545.296	-166.129	-0.442	-0.019
-544.281	-200.000	0.002	-0.223
-543.266	-200.000	-0.019	0.186
-542.252	76.706	-0.079	0.084
-541.237	217.380	0.040	0.064
-540.223	-64.868	0.068	-0.027
-539.208	-200.000	-0.014	-0.067
-538.193	-98.383	0.243	-0.062
-537.179	-200.000	-0.001	0.038
-536.164	-127.533	0.251	0.037
-535.150	72.371	-0.138	-0.144
-534.135	-76.038	-0.215	0.076
-533.121	-35.844	0.315	0.171
-532.106	800.000	-0.036	-0.138
-531.091	110.339	-0.085	0.102
-530.077	-11.861	-0.172	-0.113
-529.062	-63.094	0.378	-0.156
-528.048	-49.280	-0.137	0.066
-527.033	-160.671	-0.250	-0.013
-526.018	-105.137	-0.174	-0.040
-525.004	559.782	0.023	-0.055
-523.989	210.634	-0.192	-0.302
-522.975	29.292	0.272	0.231
-521.960	-104.267	-0.258	0.060
-520.945	-200.000	-0.022	-0.212
-519.931	335.266	0.131	0.254
-518.916	70.874	0.128	-0.133
-517.902	800.000	-0.128	0.380
-516.887	395.552	-0.048	0.101
-515.872	-200.000	-0.017	0.160
-514.858	-200.000	-0.027	0.334
-513.843	-58.127	0.138	-0.060
-512.829	800.000	-0.017	-0.069
-511.814	-54.065	-0.195	0.089
-510.799	-65.627	-0.126	0.050
-509.785	-94.021	0.331	0.091
-508.770	-200.000	-0.022	0.248
-507.756	-22.524	-0.205	0.124
-506.741	-200.000	0.008	-0.093
-505.726	800.000	0.040	0.128
-504.712	-28.560	-0.183	0.105
-503.697	-200.000	-0.005	-0.140
-502.683	687.878	0.070	0.183
-501.668	-96.397	0.351	-0.093
-500.653	111.054	0.153	-0.184
-499.639	800.000	-0.076	-0.215
-498.624	80.722	-0.168	0.181
-497.610	-200.000	0.181	-0.000
-496.595	346.441	-0.100	-0.197
-495.581	-82.342	-0.428	0.139
-494.566	-200.000	0.006	-0.029
-493.551	-95.240	-0.126	-0.034
-492.537	-98.470	0.144	-0.037
-491.522	426.296	-0.045	0.098
-490.508	-200.000	-0.003	-0.205
-489.493	203.118	-0.099	0.154
-488.478	160.187	-0.031	0.043
-487.464	-200.000	-0.048	0.281
-486.449	106.544	-0.076	0.091
-485.435	201.564	0.068	-0.104
-484.420	-91.702	-0.102	0.029
-483.405	-38.353	-0.236	0.125
-482.391	3.496	-0.177	0.129
-481.376	148.003	0.079	0.106
-480.362	-83.360	-0.128	-0.041
-479.347	255.247	0.077	0.131
-478.332	-200.000	-0.021	0.217
-477.318	440.835	0.059	0.130
-476.303	352.147	-0.112	-0.223
-475.289	585.421	-0.020	-0.050
-474.274	-13.922	-0.227	-0.147
-473.259	-200.000	0.024	0.218
-472.245	474.001	-0.097	-0.218
-471.230	-25.230	-0.322	0.191
-470.216	-116.322	-0.193	-0.036
-469.201	219.977	0.240	0.384
-468.186	351.151	0.214	0.424
-467.172	-44.234	-0.151	-0.076
-466.157	-200.000	-0.109	-0.000
-465.143	142.385	-0.066	-0.088
-464.128	800.000	-0.151	-0.570
-463.113	-46.297	0.080	0.039
-462.099	321.789	0.179	0.341
-461.084	800.000	0.049	0.194
-460.070	69.376	-0.239	0.246
-459.055	-97.482	-0.392	0.102
-458.040	-19.559	-0.201	0.124
-457.026	-200.000	0.031	-0.328
-456.011	175.825	-0.186	-0.269
-454.997	415.857	0.069	-0.146
-453.982	107.350	0.216	-0.257
-452.968	6.855	0.101	-0.075
-451.953	241.864	0.196	-0.327
-450.938	-86.686	0.133	0.041
-449.924	800.000	0.062	-0.206
-448.909	-82.508	-0.143	0.046
-447.895	800.000	-0.020	0.063
-446.880	-8.226	-0.092	0.062
-445.865	-200.000	0.001	-0.279
-444.851	401.828	-0.072	-0.152
-443.836	-2.592	-0.320	0.224
-442.822	191.896	0.042	-0.063
-441.807	-6.488	0.134	0.091
-440.792	-200.000	-0.008	-0.104
-439.778	-46.322	0.157	0.077
-438.763	5.103	-0.231	0.170
-437.749	-200.000	0.030	0.187
-436.734	87.228	0.199	0.219
-435.719	694.890	-0.109	0.285
-434.705	-200.000	-0.013	-0.159
-433.690	166.544	0.044	0.063
-432.676	61.537	-0.232	-0.230
-431.661	800.000	0.066	0.262
-430.646	-36.391	-0.184	-0.099
-429.632	-200.000	-0.032	-0.217
-428.617	-127.238	0.091	0.013
-427.603	-14.141	-0.207	0.133
-426.588	346.253	0.070	-0.137
-425.573	492.919	0.132	-0.301
-424.559	53.734	0.109	-0.104
-423.544	65.502	0.057	-0.057
-422.530	-200.000	-0.004	0.131
-421.515	-200.000	-0.009	-0.085
-420.500	65.878	0.015	0.015
-419.486	49.144	-0.112	0.105
-418.471	-200.000	0.014	0.074
-417.457	-64.761	0.047	0.019
-416.442	-82.290	0.375	0.122
-415.428	800.000	-0.083	-0.287
-414.413	-200.000	-0.008	-0.175
-413.398	76.602	0.127	-0.134
-412.384	-57.792	-0.133	0.058
-411.369	-50.396	0.203	0.095
-410.355	-25.405	-0.134	0.079
-409.340	204.768	0.043	0.067
-408.325	-15.960	0.156	-0.099
-407.311	-33.250	-0.127	0.070
-406.296	-5.591	-0.275	0.188
-405.282	-186.845	0.143	0.002
-404.267	197.921	0.120	-0.182
-403.252	182.641	-0.088	0.129
-402.238	128.247	0.055	-0.070
-401.223	800.000	0.125	-0.433
-400.209	-200.000	-0.002	0.103
-399.194	74.469	-0.093	0.097
-398.179	-132.398	-0.137	0.018
-397.165	-85.508	0.025	0.008
-396.150	-40.150	-0.267	-0.139
-395.136	-163.703	0.157	-0.007
-394.121	605.673	0.091	0.225
-393.106	117.588	-0.117	0.143
-392.092	198.153	0.178	0.271
-391.077	18.975	-0.030	-0.024
-390.063	109.922	-0.113	0.135
-389.048	800.000	-0.043	-0.175
-388.033	371.370	0.059	0.119
-387.019	-143.601	0.288	-0.027
-386.004	-43.205	-0.265	-0.134
-384.990	-155.624	0.198	0.013
-383.975	-71.158	0.065	0.024
-382.960	-23.837	0.250	-0.149
-381.946	-143.257	0.271	-0.026
-380.931	800.000	0.079	-0.308
-379.917	-200.000	-0.027	0.263
-378.902	-200.000	0.009	0.160
-377.888	283.885	-0.057	0.102
-376.873	-13.053	0.116	0.075
-375.858	800.000	-0.077	0.213
-374.844	581.776	0.125	0.305
-373.829	-200.000	0.065	-0.397
-372.815	25.675	-0.043	0.036
-371.800	63.556	0.105	0.105
-370.785	112.445	-0.032	-0.039
-369.771	-48.829	0.086	-0.041
-368.756	-190.521	-0.174	-0.002
-367.742	46.168	0.095	-0.088
-366.727	-23.363	0.032	-0.019
-365.712	-110.293	0.365	0.076
-364.698	-72.293	-0.046	-0.017
-363.683	-78.846	-0.135	-0.046
-362.669	-137.996	-0.084	0.009
-361.654	385.367	-0.039	0.079
-360.639	800.000	-0.052	-0.148
-359.625	-108.841	-0.003	-0.001
-358.610	-7.925	-0.129	0.087
-357.596	-200.000	-0.011	-0.130
-356.581	-15.831	0.223	0.142
-355.566	368.064	-0.067	0.135
-354.552	122.663	-0.080	-0.099
-353.537	54.396	-0.137	-0.131
-352.523	278.760	-0.243	0.430
-351.508	-117.116	0.337	0.061
-350.493	-2.463	-0.321	0.224
-349.479	110.028	-0.154	0.184
-348.464	67.891	-0.255	-0.259
-347.450	261.985	-0.130	0.224
-346.435	168.644	-0.113	0.160
-345.420	42.525	-0.181	0.164
-344.406	-141.350	0.279	0.028
-343.391	4.450	0.246	0.179
-342.377	-49.836	-0.100	-0.047
-341.362	29.801	-0.155	-0.131
-340.348	118.778	-0.144	-0.177
-339.333	-106.011	-0.156	-0.035
-338.318	10.330	0.150	0.113
-337.304	196.736	0.089	-0.134
-336.289	-3.632	-0.093	0.064
-335.275	42.216	-0.105	0.095
-334.260	184.411	0.142	-0.210
-333.245	320.731	-0.088	0.166
-332.231	16.401	-0.059	-0.046
-331.216	15.940	-0.170	-0.133
-330.202	527.285	0.110	0.259
-329.187	106.671	0.115	0.135
-328.172	-81.822	0.347	0.113
-327.158	-52.546	-0.023	0.010
-326.143	-109.706	0.105	0.022
-325.129	184.627	0.196	-0.288
-324.114	118.650	0.203	-0.249
-323.099	800.000	0.075	0.304
-322.085	33.990	0.132	-0.115
-321.070	8.790	-0.337	-0.252
-320.056	642.797	-0.127	-0.322
-319.041	-49.988	0.062	-0.029
-318.026	-200.000	-0.007	-0.121
-317.012	117.493	-0.107	-0.131
-315.997	800.000	0.087	0.269
-314.983	-200.000	0.003	-0.099
-313.968	-200.000	-0.035	0.171
-312.953	-97.704	-0.337	0.087
-311.939	570.316	-0.023	0.055
-310.924	-149.783	0.329	-0.026
-309.910	-200.000	0.054	0.337
-308.895	138.859	0.216	0.281
-307.880	-13.874	-0.083	-0.053
-306.866	-81.789	-0.057	0.019
-305.851	-200.000	-0.035	0.229
-304.837	109.811	-0.044	0.052
-303.822	732.021	-0.097	0.257
-302.807	-76.426	0.275	-0.096
-301.793	-88.663	0.122	-0.036
-300.778	800.000	-0.104	0.311
-299.764	-63.684	0.225	-0.091
-298.749	-33.947	0.164	0.090
-297.735	-29.865	-0.352	-0.199
-296.720	800.000	-0.064	-0.222
-295.705	-146.004	-0.135	-0.012
-294.691	95.808	0.104	-0.118
-293.676	159.211	0.024	0.033
-292.662	409.343	0.079	-0.166
-291.647	800.000	-0.080	-0.297
-290.632	-58.576	0.238	-0.102
-289.618	197.128	-0.019	-0.029
-288.603	-90.669	-0.261	0.075
-287.589	157.168	-0.168	0.231
-286.574	43.578	-0.061	-0.055
-285.559	800.000	-0.078	0.263
-284.545	-5.949	0.242	0.164
-283.530	229.138	0.084	0.136
-282.516	67.152	0.152	0.153
-281.501	-73.337	-0.327	0.118
-280.486	5.114	-0.103	0.075
-279.472	-200.000	0.010	0.164
-278.457	-200.000	-0.030	0.286
-277.443	8.462	0.114	-0.085
-276.428	239.723	0.012	-0.021
-275.413	-200.000	-0.028	0.150
-274.399	16.436	0.027	0.021
-273.384	-159.348	0.486	-0.027
-272.370	95.539	0.140	0.158
-271.355	127.670	0.126	0.158
-270.340	203.004	0.251	-0.385
-269.326	800.000	-0.085	0.352
-268.311	-105.117	0.089	0.020
-267.297	-200.000	-0.027	-0.196
-266.282	-119.295	-0.185	0.032
-265.267	-74.384	0.094	0.034
-264.253	-150.403	-0.308	0.023
-263.238	285.086	0.062	-0.110
-262.224	-200.000	0.008	0.101
-261.209	-128.379	-0.120	-0.017
-260.195	-29.780	0.175	-0.099
-259.180	-45.773	0.094	0.046
-258.165	800.000	0.074	-0.219
-257.151	448.829	-0.056	0.123
-256.136	800.000	-0.149	-0.450
-255.122	8.037	0.068	0.051
-254.107	21.761	0.170	-0.137
-253.092	-146.969	0.109	-0.009
-252.078	-130.380	-0.329	-0.044
-251.063	222.366	0.184	0.294
-250.049	296.873	-0.061	-0.111
-249.034	228.489	-0.086	-0.138
-248.019	-24.550	0.157	0.092
-247.005	-24.825	-0.179	-0.105
-245.990	-200.000	0.128	0.000
-244.976	-200.000	-0.004	0.028
-243.961	204.417	-0.147	-0.225
-242.946	-200.000	-0.013	-0.089
-241.932	-200.000	-0.045	-0.216
-240.917	-77.813	0.227	-0.078
-239.903	-200.000	-0.028	0.265
-238.888	-100.812	0.062	-0.015
-237.873	-200.000	0.046	-0.203
-236.859	398.052	-0.064	-0.133
-235.844	-200.000	-0.019	0.120
-234.830	-200.000	-0.007	-0.104
-233.815	113.134	-0.075	0.090
-232.800	192.952	0.103	0.154
-231.786	-1.706	0.197	0.137
-230.771	-58.137	0.237	0.102
-229.757	-48.856	0.293	-0.139
-228.742	-146.695	0.179	0.015
-227.727	-49.151	-0.291	0.138
-226.713	-3.155	0.232	0.160
-225.698	-200.000	0.005	0.104
-224.684	800.000	0.092	-0.365
-223.669	59.702	-0.150	-0.146
-222.655	-65.808	-0.390	-0.155
-221.640	800.000	-0.049	-0.161
-220.625	272.941	0.046	0.080
-219.611	-200.000	0.022	0.206
-218.596	-175.294	0.151	-0.004
-217.582	410.553	-0.139	-0.291
-216.567	-92.729	0.305	0.085
-215.552	-38.037	0.188	-0.099
-214.538	-106.154	-0.297	0.066
-213.523	32.045	-0.173	0.147
-212.509	-70.648	0.095	-0.036
-211.494	-49.265	0.280	-0.132
-210.479	-107.250	0.187	-0.041
-209.465	-10.587	0.289	-0.189
-208.450	-181.228	0.367	0.007
-207.436	467.451	-0.084	-0.185
-206.421	800.000	-0.076	-0.291
-205.406	-145.381	0.060	0.005
-204.392	-176.458	0.073	-0.002
-203.377	185.376	-0.155	0.227
-202.363	791.892	-0.062	-0.168
-201.348	320.121	0.165	-0.310
-200.333	170.695	-0.066	-0.093
-199.319	8.851	-0.143	0.107
-198.304	-26.154	-0.052	0.030
-197.290	-134.224	-0.211	-0.026
-196.275	-94.968	-0.308	0.082
-195.260	-31.470	0.255	0.142
-194.246	98.170	0.066	0.075
-193.231	-57.686	0.252	0.109
-192.217	800.000	0.050	0.198
-191.202	-24.201	0.130	0.077
-190.187	51.623	-0.089	-0.084
-189.173	-50.973	0.141	-0.065
-188.158	99.609	0.083	0.095
-187.144	115.948	-0.234	0.283
-186.129	-128.255	0.143	-0.020
-185.114	271.890	0.085	-0.147
-184.100	47.589	0.097	0.090
-183.085	237.108	0.159	0.261
-182.071	-200.000	0.043	0.200
-181.056	0.046	-0.185	-0.130
-180.042	-200.000	-0.095	0.414
-179.027	-22.539	0.176	-0.105
-178.012	188.261	-0.039	-0.058
-176.998	800.000	-0.027	0.076
-175.983	38.529	-0.297	-0.262
-174.969	-188.146	0.186	-0.002
-173.954	327.428	-0.186	0.353
-172.939	800.000	0.052	0.189
-171.925	337.414	-0.111	0.213
-170.910	800.000	-0.046	-0.186
-169.896	338.589	-0.117	-0.224
-168.881	48.309	0.258	-0.238
-167.866	-200.000	-0.007	-0.402
-166.852	47.507	0.229	0.211
-165.837	-200.000	-0.009	-0.107
-164.823	403.099	0.150	0.311
-163.808	21.590	-0.201	-0.161
-162.793	-200.000	0.061	-0.380
-161.779	577.354	0.015	0.036
-160.764	-100.613	-0.275	-0.067
-159.750	211.080	0.282	0.437
-158.735	-200.000	-0.010	-0.324
-157.720	472.287	0.029	0.064
-156.706	74.948	-0.201	0.209
-155.691	66.118	-0.173	-0.173
-154.677	800.000	0.052	0.157
-153.662	25.874	-0.173	0.142
-152.647	-119.245	0.073	-0.013
-151.633	-89.430	0.234	0.068
-150.618	-63.729	0.040	0.016
-149.604	71.652	-0.086	0.088
-148.589	195.368	0.038	-0.057
-147.574	74.173	0.118	0.122
-146.560	-5.943	0.252	-0.170
-145.545	173.843	0.171	0.244
-144.531	448.371	-0.096	0.208
-143.516	-133.064	-0.273	0.034
-142.502	45.650	-0.110	0.100
-141.487	-141.437	-0.117	-0.012
-140.472	130.841	0.078	-0.099
-139.458	458.489	-0.075	0.165
-138.443	8.398	0.205	-0.152
-137.429	-149.016	0.210	0.017
-136.414	-115.110	0.121	-0.023
-135.399	144.272	-0.069	0.091
-134.385	800.000	-0.097	-0.351
-133.370	58.873	0.061	0.059
-132.356	311.137	0.147	0.271
-131.341	186.443	-0.077	0.113
-130.326	152.052	0.249	0.335
-129.312	208.706	0.153	-0.236
-128.297	-109.740	0.094	-0.019
-127.283	61.404	0.195	-0.191
-126.268	-200.000	0.020	0.107
-125.253	105.652	0.063	-0.074
-124.239	102.763	0.109	0.126
-123.224	190.991	0.017	-0.025
-122.210	4.267	0.032	-0.023
-121.195	-87.896	-0.125	-0.037
-120.180	-38.097	-0.213	-0.112
-119.166	-200.000	-0.099	0.445
-118.151	324.868	-0.111	0.209
-117.137	-200.000	0.009	0.234
-116.122	-64.014	-0.234	0.094
-115.107	169.614	0.068	0.095
-114.093	365.951	-0.120	0.239
-113.078	800.000	0.103	0.317
-112.064	-38.850	0.261	0.135
-111.049	-156.579	-0.057	0.003
-110.034	536.173	0.103	-0.241
-109.020	-95.706	-0.185	-0.049
-108.005	89.147	-0.135	-0.148
-106.991	-47.388	0.255	-0.122
-105.976	-200.000	-0.018	-0.082
-104.962	-166.629	0.180	-0.007
-103.947	497.318	-0.094	-0.213
-102.932	73.878	0.180	-0.186
-101.918	360.546	-0.124	0.244
-100.903	-69.511	0.093	0.035
-99.889	-160.889	-0.206	0.011
-98.874	-200.000	0.004	-0.580
-97.859	24.694	-0.133	0.109
-96.845	-200.000	-0.051	-0.258
-95.830	1.994	0.196	0.139
-94.816	-100.838	-0.257	0.062
-93.801	-144.756	0.257	-0.023
-92.786	-61.433	-0.277	0.114
-91.772	15.596	0.430	-0.333
-90.757	-200.000	-0.008	0.128
-89.743	336.100	0.084	-0.161
-88.728	-39.185	0.144	-0.074
-87.713	-85.584	0.193	-0.059
-86.699	-70.698	0.200	0.074
-85.684	-200.000	-0.075	0.525
-84.670	-200.000	0.084	0.496
-83.655	-60.494	0.090	0.038
-82.640	210.339	-0.081	0.126
-81.626	-200.000	-0.018	0.231
-80.611	-140.271	-0.310	0.032
-79.597	-200.000	0.028	0.239
-78.582	-114.982	-0.289	-0.054
-77.567	-200.000	-0.009	0.143
-76.553	-200.000	-0.016	0.257
-75.538	-29.582	0.138	0.078
-74.524	67.584	-0.278	0.279
-73.509	-90.482	0.316	-0.090
-72.494	-200.000	0.040	-0.421
-71.480	-0.904	-0.215	0.150
-70.465	-200.000	-0.063	0.375
-69.451	-200.000	-0.006	-0.583
-68.436	-11.347	0.113	0.073
-67.422	-76.997	0.171	-0.059
-66.407	30.861	0.159	-0.134
-65.392	-200.000	0.058	0.380
-64.378	-200.000	-0.001	-0.278
-63.363	181.809	0.232	0.336
-62.349	140.267	0.074	-0.096
-61.334	34.889	-1.063	-0.914
-60.319	52.942	0.622	0.585
-59.305	233.744	-0.535	-0.866
-58.290	293.691	0.754	1.352
-57.276	322.385	0.792	1.483
-56.261	-200.000	100.134	595.656
-55.246	567.001	1426.920	3404.086
-54.232	184.793	2637.859	3843.693
-53.217	110.109	2301.274	2714.850
-52.203	40.005	1915.797	1691.340
-51.188	33.655	1703.095	1454.994
-50.173	31.120	1659.209	1398.470
-49.159	49.603	1708.642	1581.056
-48.144	50.387	1724.300	1601.436
-47.130	33.364	1684.063	1436.300
-46.115	30.694	1669.709	1403.884
-45.100	30.449	1665.004	1398.029
-44.086	30.496	1662.035	1395.832
-43.071	30.412	1659.876	1393.333
-42.057	30.365	1657.313	1390.775
-41.042	30.500	1655.187	1389.949
-40.027	30.542	1653.378	1388.686
-39.013	30.445	1651.240	1386.115
-37.998	30.452	1649.977	1385.046
-36.984	30.542	1648.370	1384.315
-35.969	30.558	1646.948	1383.185
-34.954	30.656	1645.189	1382.379
-33.940	30.594	1643.760	1380.663
-32.925	30.481	1642.310	1378.556
-31.911	30.529	1640.445	1377.290
-30.896	30.541	1638.254	1375.484
-29.881	30.511	1636.471	1373.711
-28.867	30.592	1634.953	1372.980
-27.852	30.556	1633.166	1371.163
-26.838	30.516	1632.034	1369.862
-25.823	30.567	1630.716	1369.079
-24.809	30.629	1628.846	1367.904
-23.794	30.586	1628.074	1366.888
-22.779	30.653	1626.406	1365.927
-21.765	30.538	1624.669	1363.567
-20.750	30.508	1623.293	1362.139
-19.736	30.545	1622.087	1361.342
-18.721	30.692	1620.183	1360.767
-17.706	30.520	1618.680	1358.193
-16.692	30.583	1616.906	1357.111
-15.677	30.569	1615.930	1356.138
-14.663	30.617	1614.248	1355.025
-13.648	30.675	1612.830	1354.198
-12.633	30.622	1611.186	1352.379
-11.619	30.566	1609.556	1350.549
-10.604	30.546	1608.603	1349.554
-9.590	30.602	1607.305	1348.818
-8.575	30.579	1606.047	1347.543
-7.560	30.557	1604.828	1346.305
-6.546	30.614	1603.559	1345.599
-5.531	30.617	1602.728	1344.873
-4.517	30.589	1601.321	1343.437
-3.502	30.585	1600.298	1342.492
-2.487	30.636	1598.439	1341.246
-1.473	30.447	1587.417	1330.591
-0.458	28.042	1568.358	1297.523
0.556	26.829	1569.272	1267.149
1.571	24.506	1594.475	1270.877
2.586	23.688	1606.991	1274.866
3.600	21.037	1552.424	1213.056
4.615	12.871	1443.579	1074.879
5.629	5.798	1380.283	983.427
6.644	4.524	1372.313	969.715
7.659	4.386	1371.400	968.125
8.673	4.519	1370.228	968.042
9.688	4.651	1368.204	967.348
10.702	4.559	1365.630	964.868
11.717	7.806	1371.482	989.133
12.731	15.991	1386.475	1051.118
13.746	21.606	1396.119	1093.513
14.761	22.474	1396.246	1098.929
15.775	21.907	1393.959	1093.501
16.790	20.760	1391.540	1084.370
17.804	19.974	1389.353	1077.675
18.819	19.785	1388.211	1075.522
19.834	19.660	1387.046	1073.749
20.848	19.597	1385.710	1072.222
21.863	19.353	1384.769	1069.887
22.877	19.274	1383.648	1068.440
23.892	19.115	1382.878	1066.765
24.907	19.194	1381.985	1066.468
25.921	19.166	1380.992	1065.436
26.936	19.176	1380.357	1064.911
27.950	19.291	1379.182	1064.625
28.965	19.358	1378.055	1064.073
29.980	19.571	1377.014	1064.485
30.994	19.568	1376.088	1063.656
32.009	19.644	1375.271	1063.401
33.023	19.565	1373.820	1061.702
34.038	19.492	1372.303	1059.987
35.053	19.428	1371.176	1058.627
36.067	19.367	1370.367	1057.533
37.082	19.540	1369.236	1057.628
38.096	19.429	1368.828	1056.540
39.111	19.487	1367.851	1056.049
40.126	19.404	1366.623	1054.502
41.140	19.093	1365.943	1051.979
42.155	18.990	1364.892	1050.447
43.169	18.797	1365.097	1049.335
44.184	18.799	1365.104	1049.258
45.199	18.915	1364.646	1049.523
46.213	19.175	1364.126	1050.616
47.228	19.229	1363.688	1050.517
48.242	19.429	1362.116	1050.427
49.257	19.290	1361.013	1048.639
50.271	19.227	1359.624	1047.096
51.286	19.238	1358.356	1046.092
52.301	19.359	1356.727	1045.478
53.315	19.125	1355.681	1043.160
54.330	19.011	1354.915	1041.789
55.344	18.949	1353.298	1040.078
56.359	18.989	1352.267	1039.436
57.374	18.936	1351.438	1038.388
58.388	18.942	1350.733	1037.790
59.403	18.812	1350.203	1036.508
60.417	18.852	1349.532	1036.139
61.432	18.849	1348.353	1035.125
62.447	18.686	1347.449	1033.361
63.461	18.604	1346.710	1032.211
64.476	18.570	1345.370	1030.886
65.490	18.598	1344.436	1030.249
66.505	18.627	1342.587	1028.912
67.520	18.656	1341.426	1028.108
68.534	18.700	1340.580	1027.632
69.549	18.700	1339.606	1026.792
70.563	18.709	1337.954	1025.490
71.578	18.496	1337.178	1023.529
72.593	18.561	1335.765	1022.746
73.607	18.460	1336.022	1022.251
74.622	18.488	1334.950	1021.507
75.636	18.506	1333.988	1020.785
76.651	18.587	1333.396	1020.730
77.666	18.645	1333.141	1020.786
78.680	18.700	1332.665	1020.657
79.695	18.795	1332.057	1020.668
80.709	18.802	1331.588	1020.258
81.724	18.876	1331.034	1020.181
82.739	18.955	1330.096	1019.842
83.753	19.143	1329.211	1020.191
84.768	19.381	1328.239	1020.764
85.782	19.483	1327.309	1020.560
86.797	19.463	1325.823	1019.209
87.812	19.392	1324.658	1017.805
88.826	19.352	1323.100	1016.282
89.841	19.310	1322.271	1015.307
90.855	19.505	1321.796	1015.999
91.870	19.451	1320.970	1014.954
92.884	19.475	1320.570	1014.700
93.899	19.491	1319.848	1014.148
94.914	19.657	1318.713	1014.164
95.928	19.576	1317.787	1012.887
96.943	19.490	1316.674	1011.435
97.957	19.384	1316.245	1010.397
98.972	19.365	1315.318	1009.486
99.987	19.455	1313.431	1008.470
101.001	19.368	1313.120	1007.637
102.016	19.489	1311.793	1007.233
103.030	19.381	1311.004	1005.912
104.045	19.461	1309.997	1005.516
105.060	19.220	1308.636	1002.978
106.074	19.045	1306.410	1000.166
107.089	18.848	1305.036	997.882
108.103	18.706	1304.322	996.427
109.118	18.621	1303.153	994.948
110.133	18.634	1301.673	993.809
111.147	18.676	1300.853	993.336
112.162	18.741	1299.076	992.270
113.176	18.816	1297.913	991.724
114.191	18.944	1297.194	991.823
115.206	18.987	1296.216	991.236
116.220	18.825	1294.990	989.280
117.235	18.887	1293.810	988.645
118.249	18.875	1292.741	987.672
119.264	18.750	1292.000	986.305
120.279	18.753	1290.507	985.095
121.293	18.634	1289.359	983.445
122.308	18.520	1288.561	982.098
123.322	18.437	1287.273	980.553
124.337	18.529	1286.330	980.279
125.352	18.443	1284.840	978.562
126.366	18.486	1283.945	978.037
127.381	18.449	1283.211	977.180
128.395	18.366	1282.410	976.013
129.410	18.577	1281.288	976.277
130.424	18.620	1280.745	976.020
131.439	18.778	1279.754	976.074
132.454	18.788	1279.138	975.576
133.468	18.873	1278.119	975.192
134.483	18.857	1277.575	974.600
135.497	18.808	1276.731	973.593
136.512	18.894	1275.322	972.923
137.527	18.929	1273.785	971.861
138.541	18.994	1272.626	971.258
139.556	18.998	1271.573	970.392
140.570	19.265	1270.414	970.927
141.585	19.179	1270.042	970.072
142.600	19.361	1268.156	969.570
143.614	19.553	1267.665	970.184
144.629	19.523	1266.939	969.374
145.643	19.461	1265.854	968.114
146.658	19.265	1264.796	966.115
147.673	19.058	1262.991	963.493
148.687	19.030	1261.524	962.132
149.702	18.941	1260.269	960.593
150.716	18.848	1258.758	958.840
151.731	18.988	1257.546	958.611
152.746	18.981	1256.256	957.503
153.760	19.083	1255.194	957.178
154.775	19.029	1254.791	956.485
155.789	19.102	1253.846	956.083
156.804	19.245	1252.352	955.654
157.819	19.236	1251.408	954.800
158.833	19.446	1250.394	955.104
159.848	19.583	1249.766	955.298
160.862	19.416	1249.208	953.865
161.877	19.243	1247.228	951.314
162.892	18.988	1246.131	948.986
163.906	18.912	1245.443	947.956
164.921	18.920	1244.542	947.231
165.935	19.025	1243.534	946.960
166.950	19.089	1243.064	946.868
167.964	19.169	1242.012	946.424
168.979	19.106	1241.649	945.716
169.994	18.925	1240.913	944.077
171.008	19.091	1240.187	944.354
172.023	19.303	1239.263	944.729
173.037	19.363	1238.503	944.396
174.052	19.410	1237.688	943.946
175.067	19.198	1236.287	941.634
176.081	18.987	1235.070	939.473
177.096	18.947	1234.411	938.671
178.110	19.098	1233.048	938.375
179.125	19.124	1231.928	937.582
180.140	19.257	1230.804	937.365
181.154	19.247	1230.233	936.795
182.169	19.324	1228.950	936.152
183.183	19.380	1228.383	935.944
184.198	19.413	1227.008	934.990
185.213	19.582	1225.822	934.918
186.227	19.441	1225.050	933.483
187.242	19.504	1223.918	932.877
188.256	19.683	1222.971	933.042
189.271	19.567	1222.666	932.103
190.286	19.532	1220.786	930.396
191.300	19.118	1219.299	926.953
192.315	18.903	1218.517	925.116
193.329	18.997	1218.352	925.417
194.344	19.123	1217.826	925.611
195.359	19.148	1217.273	925.245
196.373	19.303	1216.902	925.712
197.388	19.385	1216.639	925.872
198.402	19.492	1216.527	926.282
199.417	19.662	1215.748	926.516
200.432	19.863	1215.159	927.064
201.446	19.960	1214.367	926.896
202.461	19.958	1213.409	926.073
203.475	19.930	1212.728	925.321
204.490	19.734	1210.830	922.746
205.504	19.589	1209.409	920.806
206.519	19.609	1208.248	919.946
207.534	19.555	1207.020	918.646
208.548	19.519	1205.975	917.573
209.563	19.534	1205.864	917.490
210.577	19.497	1204.897	916.477
211.592	19.639	1204.041	916.496
212.607	19.885	1203.304	917.162
213.621	19.794	1203.063	916.414
214.636	19.705	1201.565	914.718
215.650	19.827	1200.598	914.546
216.665	19.929	1200.322	914.797
217.680	20.086	1198.923	914.475
218.694	20.153	1198.141	914.152
219.709	20.032	1197.600	913.019
220.723	19.994	1196.543	911.934
221.738	20.003	1195.932	911.436
222.753	19.826	1195.252	909.907
223.767	19.941	1194.233	909.655
224.782	20.132	1193.955	910.364
225.796	20.118	1193.550	909.901
226.811	20.114	1192.415	908.938
227.826	19.796	1191.873	906.775
228.840	19.862	1190.910	906.308
229.855	19.901	1190.185	905.877
230.869	19.944	1188.698	904.894
231.884	19.733	1188.508	903.566
232.899	19.620	1187.658	902.251
233.913	19.680	1186.639	901.706
234.928	19.498	1186.607	900.652
235.942	19.577	1185.280	899.980
236.957	19.551	1184.492	899.167
237.972	19.508	1183.814	898.349
238.986	19.459	1183.485	897.763
240.001	19.502	1182.716	897.325
241.015	19.706	1181.680	897.520
242.030	19.707	1181.102	897.003
243.045	19.868	1180.318	897.164
244.059	19.959	1179.385	896.848
245.074	19.966	1178.471	896.112
246.088	20.098	1177.566	896.026
247.103	20.177	1177.239	896.103
248.117	20.239	1176.404	895.711
249.132	20.356	1176.309	896.163
250.147	20.603	1175.905	897.047
251.161	20.757	1175.090	897.143
252.176	20.758	1174.737	896.798
253.190	20.782	1173.983	896.267
254.205	20.950	1173.392	896.603
255.220	20.896	1172.716	895.727
256.234	20.838	1171.990	894.794
257.249	20.851	1171.438	894.362
258.263	20.872	1170.577	893.733
259.278	20.871	1169.911	893.140
260.293	20.925	1169.249	892.832
261.307	20.870	1169.275	892.490
262.322	20.926	1168.747	892.299
263.336	21.018	1167.383	891.645
264.351	21.015	1167.306	891.492
265.366	21.064	1166.208	890.827
266.380	21.037	1165.417	890.005
267.395	20.956	1164.698	888.965
268.409	20.769	1163.881	887.310
269.424	20.734	1163.436	886.716
270.439	20.682	1162.594	885.730
271.453	20.710	1161.302	884.810
272.468	20.674	1160.293	883.780
273.482	20.552	1159.816	882.715
274.497	20.504	1159.198	881.926
275.512	20.677	1158.513	882.203
276.526	20.599	1157.968	881.315
277.541	20.698	1156.896	880.923
278.555	20.762	1156.225	880.658
279.570	20.862	1156.016	880.927
280.585	21.062	1155.624	881.562
281.599	21.004	1154.430	880.278
282.614	20.884	1152.727	878.295
283.628	20.770	1151.348	876.595
284.643	20.689	1150.907	875.776
285.657	20.782	1149.791	875.316
286.672	20.822	1148.829	874.706
287.687	20.825	1147.940	873.964
288.701	20.946	1147.452	874.127
289.716	20.707	1146.899	872.429
290.730	20.810	1146.020	872.198
291.745	20.924	1145.380	872.204
292.760	20.852	1145.355	871.749
293.774	21.111	1144.136	872.037
294.789	21.156	1144.080	872.140
295.803	21.103	1143.179	871.112
296.818	21.008	1141.884	869.574
297.833	20.806	1141.521	868.218
298.847	20.916	1141.028	868.312
299.862	20.947	1139.822	867.471
300.876	20.976	1139.258	867.109
301.891	21.093	1138.924	867.363
302.906	21.195	1138.436	867.417
303.920	21.324	1137.595	867.342
304.935	21.475	1137.076	867.619
305.949	21.513	1136.462	867.259
306.964	21.443	1135.973	866.467
307.979	21.194	1135.115	864.500
308.993	21.215	1134.259	863.879
310.008	21.333	1133.755	863.997
311.022	21.346	1132.953	863.379
312.037	21.374	1131.895	862.633
313.052	21.147	1130.971	860.733
314.066	21.060	1129.711	859.270
315.081	20.805	1129.087	857.463
316.095	20.794	1128.020	856.523
317.110	20.908	1127.140	856.337
318.125	20.923	1126.178	855.606
319.139	20.960	1125.638	855.299
320.154	20.995	1124.833	854.782
321.168	20.918	1125.003	854.462
322.183	20.988	1124.012	853.976
323.197	20.996	1123.343	853.429
324.212	21.091	1122.918	853.496
325.227	21.177	1122.314	853.383
326.241	21.159	1121.518	852.614
327.256	21.064	1120.985	851.669
328.270	20.976	1119.863	850.313
329.285	20.898	1119.283	849.416
330.300	21.016	1118.243	849.127
331.314	21.033	1116.865	848.088
332.329	21.053	1116.028	847.477
333.343	21.080	1115.439	847.083
334.358	21.308	1114.540	847.431
335.373	21.310	1114.058	847.000
336.387	21.422	1113.173	846.795
337.402	21.345	1112.820	846.078
338.416	21.362	1112.084	845.525
339.431	21.463	1111.641	845.604
340.446	21.550	1110.872	845.361
341.460	21.872	1110.063	846.228
342.475	21.817	1109.587	845.524
343.489	22.063	1108.384	845.717
344.504	22.027	1107.276	844.625
345.519	21.883	1107.419	843.964
346.533	22.011	1106.102	843.501
347.548	21.998	1105.793	843.129
348.562	22.127	1104.623	842.782
349.577	21.762	1103.718	840.267
350.592	21.515	1102.872	838.364
351.606	21.419	1102.256	837.362
352.621	21.523	1101.020	836.849
353.635	21.484	1100.105	835.890
354.650	21.543	1099.518	835.654
355.665	21.483	1099.197	835.049
356.679	21.699	1098.309	835.332
357.694	21.594	1098.280	834.734
358.708	21.593	1097.646	834.176
359.723	21.810	1096.737	834.441
360.738	21.695	1096.511	833.648
361.752	21.770	1095.462	833.133
362.767	21.774	1095.263	832.928
363.781	21.793	1094.641	832.470
364.796	21.930	1094.030	832.583
365.810	22.074	1093.406	832.719
366.825	22.173	1093.024	832.822
367.840	22.271	1092.904	833.122
368.854	22.280	1092.397	832.703
369.869	22.383	1091.276	832.264
370.883	22.276	1090.250	830.903
371.898	22.090	1089.488	829.370
372.913	22.097	1089.006	828.961
373.927	22.204	1088.327	828.877
374.942	22.367	1087.871	829.222
375.956	22.341	1087.243	828.548
376.971	22.271	1086.547	827.613
377.986	22.278	1086.567	827.590
379.000	22.285	1086.033	827.145
380.015	22.350	1085.651	827.084
381.029	22.465	1084.875	826.961
382.044	22.505	1083.833	826.281
383.059	22.375	1083.321	825.209
384.073	22.411	1082.398	824.601
385.088	22.552	1081.546	824.538
386.102	22.403	1080.959	823.320
387.117	22.408	1079.320	822.024
388.132	22.117	1078.454	819.932
389.146	21.975	1077.625	818.566
390.161	22.009	1076.938	818.132
391.175	21.968	1076.361	817.430
392.190	22.139	1075.918	817.817
393.205	22.385	1075.110	818.275
394.219	22.469	1074.125	817.845
395.234	22.220	1073.082	815.820
396.248	22.225	1071.955	814.914
397.263	22.237	1070.955	814.136
398.278	22.057	1070.136	812.609
399.292	22.088	1069.161	811.940
400.307	21.954	1068.737	810.928
401.321	21.927	1068.438	810.508
402.336	21.862	1067.437	809.373
403.350	21.896	1067.255	809.322
404.365	22.042	1066.107	809.051
405.380	22.142	1065.213	808.762
406.394	22.264	1064.978	809.073
407.409	22.352	1064.237	808.845
408.423	22.479	1063.517	808.810
409.438	22.611	1062.875	808.856
410.453	22.538	1062.573	808.218
411.467	22.794	1061.467	808.480
412.482	22.756	1061.163	808.003
413.496	22.945	1060.441	808.245
414.511	22.957	1059.781	807.722
415.526	22.982	1059.993	807.927
416.540	23.040	1059.335	807.622
417.555	22.988	1058.745	806.863
418.569	22.872	1058.059	805.740
419.584	22.805	1057.446	804.895
420.599	22.774	1057.214	804.508
421.613	156.126	1402.297	1796.359
422.628	143.485	1452.562	1796.458
