DTS Sentinel unit serial number:	SN413079Multiplexer serial number:	ORYXHardware model number:	OX4-SRSoftware version number:	ORYX F/W v4.00 Oryx Data Collector v3.7.2.0data status	okinstallation	princeton_trtdifferential loss correction	single-endedforward channel	channel 2reverse channel	N/Adate	2019/09/12time	19:43:49forward acquisition time	15.00reverse acquisition time	0.00gamma	496.2192k internal	0.2327k external	0.2327temperature offset calibration	1.0156default loss term (dB/km)	0.3790temperature slope calibration	1.0000multiplexer offset coefficient	1.0000multiplexer slope coefficient	1.0000fibre end	0.00T internal ref (°C)	32.06T ext. ref 1 (°C)	3.48T ext. ref 2 (°C)	26.57length (m)	temperature (°C)	Stokes	anti-Stokes-747.200	47.359	0.156	-0.146
-746.185	-196.972	0.541	-0.004
-745.171	53.272	-0.389	0.376
-744.156	510.410	0.324	-0.760
-743.142	-160.236	-1.051	0.057
-742.127	-63.457	-0.328	0.136
-741.112	314.786	-0.252	0.479
-740.098	-126.924	0.763	-0.113
-739.083	-200.000	0.042	0.764
-738.069	-66.291	-0.477	0.191
-737.054	-152.067	0.269	-0.020
-736.039	156.124	-0.385	0.535
-735.025	-200.000	-0.030	0.531
-734.010	142.817	-0.525	-0.704
-732.996	-200.000	-0.002	0.153
-731.981	800.000	0.148	-0.440
-730.966	35.298	-0.543	0.480
-729.952	-6.174	0.728	-0.501
-728.937	-80.041	-0.608	-0.205
-727.923	81.806	0.388	-0.424
-726.908	-99.405	-0.320	-0.081
-725.894	-86.887	-0.192	-0.059
-724.879	696.235	-0.229	-0.607
-723.864	763.541	0.230	0.630
-722.850	-14.001	-0.378	-0.246
-721.835	800.000	-0.208	0.695
-720.821	800.000	-0.087	0.326
-719.806	188.983	-0.536	0.808
-718.791	-200.000	-0.041	0.267
-717.777	800.000	-0.160	-0.646
-716.762	125.004	0.114	0.144
-715.748	-200.000	0.238	1.110
-714.733	119.924	0.364	0.455
-713.718	-200.000	0.184	-1.064
-712.704	-90.476	1.198	0.349
-711.689	432.975	0.295	-0.645
-710.675	-91.100	-0.307	0.089
-709.660	-86.064	0.108	-0.034
-708.645	-72.067	-0.430	0.161
-707.631	-81.046	-0.582	0.194
-706.616	270.238	0.292	0.516
-705.602	-200.000	-0.144	0.883
-704.587	7.933	0.817	0.617
-703.572	67.840	-0.616	0.634
-702.558	154.931	0.123	-0.170
-701.543	62.011	-0.149	-0.149
-700.529	-101.977	-0.714	-0.173
-699.514	308.015	-0.195	0.367
-698.499	-78.535	0.257	-0.089
-697.485	696.234	0.312	0.826
-696.470	88.684	0.892	-0.998
-695.456	-200.000	0.048	-0.265
-694.441	-9.833	0.231	-0.155
-693.426	-115.257	0.311	-0.059
-692.412	-94.703	0.894	-0.244
-691.397	-41.765	0.514	-0.265
-690.383	63.113	0.786	0.792
-689.368	89.596	0.758	0.851
-688.354	52.372	-0.203	-0.195
-687.339	391.581	0.095	-0.199
-686.324	36.865	0.323	0.287
-685.310	112.159	0.692	0.842
-684.295	244.429	0.198	0.334
-683.281	3.785	0.349	0.256
-682.266	-147.148	0.898	0.077
-681.251	800.000	-0.037	-0.157
-680.237	121.204	0.478	-0.598
-679.222	800.000	0.227	-0.902
-678.208	-200.000	0.017	0.508
-677.193	-9.529	-0.778	-0.522
-676.178	-47.200	0.350	-0.171
-675.164	-101.339	0.296	0.073
-674.149	-23.899	-0.534	-0.321
-673.135	274.133	0.198	-0.353
-672.120	-54.312	-0.993	0.453
-671.105	-43.986	-0.506	-0.256
-670.091	-29.184	-0.387	0.223
-669.076	-114.006	0.519	0.101
-668.062	-200.000	0.050	-0.406
-667.047	454.063	-0.211	-0.469
-666.032	-200.000	-0.108	0.611
-665.018	-125.076	0.650	-0.100
-664.003	800.000	0.034	0.135
-662.989	33.166	-0.628	-0.547
-661.974	197.260	-0.175	-0.269
-660.959	621.548	0.124	-0.313
-659.945	-200.000	-0.076	-0.678
-658.930	60.408	0.401	0.399
-657.916	-119.314	-0.796	0.139
-656.901	-118.448	0.616	0.110
-655.886	34.950	0.581	0.511
-654.872	-200.000	-0.003	-0.405
-653.857	-200.000	0.005	-0.886
-652.843	-200.000	0.095	0.640
-651.828	47.487	-0.149	0.140
-650.814	800.000	0.220	0.871
-649.799	800.000	-0.020	0.073
-648.784	-5.020	0.480	0.332
-647.770	-94.607	-0.570	-0.156
-646.755	-53.635	0.536	0.246
-645.741	274.786	0.348	0.619
-644.726	-192.132	-0.774	-0.007
-643.711	-200.000	-0.158	-0.826
-642.697	-133.780	-0.413	0.052
-641.682	140.229	-0.436	0.577
-640.668	15.042	0.121	0.095
-639.653	-200.000	-0.022	-0.184
-638.638	94.313	-0.426	-0.485
-637.624	800.000	-0.190	-0.571
-636.609	253.539	-0.180	0.309
-635.595	121.606	-0.191	0.238
-634.580	71.951	0.387	0.404
-633.565	-20.537	-0.529	0.326
-632.551	-200.000	-0.040	0.355
-631.536	-29.133	0.401	0.231
-630.522	-200.000	0.076	0.653
-629.507	-113.884	-0.422	0.082
-628.492	-62.869	-0.228	-0.095
-627.478	-101.149	0.372	0.091
-626.463	148.360	-0.289	-0.391
-625.449	800.000	-0.094	-0.408
-624.434	-193.424	-0.952	0.008
-623.419	-124.976	-0.536	0.083
-622.405	44.604	0.590	0.544
-621.390	304.811	0.116	0.217
-620.376	-24.253	-0.135	0.081
-619.361	466.792	0.330	0.743
-618.346	-136.913	-0.961	0.111
-617.332	70.496	-0.071	-0.074
-616.317	-200.000	-0.141	-0.901
-615.303	-141.662	-1.009	0.102
-614.288	800.000	0.130	0.486
-613.273	-168.446	0.142	-0.005
-612.259	-109.243	-0.730	-0.155
-611.244	800.000	0.198	-0.688
-610.230	-200.000	0.030	0.418
-609.215	247.850	-0.041	-0.069
-608.201	686.129	-0.301	-0.788
-607.186	257.144	0.130	0.224
-606.171	66.058	0.245	0.249
-605.157	-64.282	-0.238	0.097
-604.142	-112.542	-0.269	-0.054
-603.128	-36.043	-0.457	0.248
-602.113	-200.000	0.103	-0.590
-601.098	800.000	0.191	-0.759
-600.084	-200.000	-0.027	-0.431
-599.069	800.000	0.098	-0.310
-598.055	632.703	-0.292	0.740
-597.040	94.450	-0.276	0.315
-596.025	-200.000	0.016	-0.680
-595.011	414.901	0.196	0.419
-593.996	-125.271	0.386	0.059
-592.982	-87.445	0.161	0.049
-591.967	152.227	0.524	-0.716
-590.952	-77.139	-0.224	-0.078
-589.938	-200.000	-0.115	0.706
-588.923	-92.851	-0.505	-0.141
-587.909	-51.894	0.123	0.057
-586.894	49.954	-0.384	-0.363
-585.879	282.998	-0.246	-0.443
-584.865	-7.726	0.060	-0.040
-583.850	-200.000	-0.041	-0.422
-582.836	-200.000	0.034	0.974
-581.821	-65.522	-0.459	0.184
-580.806	575.863	-0.202	-0.494
-579.792	-38.682	0.778	0.411
-578.777	-27.789	-0.568	-0.330
-577.763	50.707	0.239	0.226
-576.748	639.063	0.039	0.100
-575.733	-105.523	-0.549	-0.125
-574.719	-121.273	0.189	-0.032
-573.704	53.653	0.263	-0.253
-572.690	629.098	-0.161	0.407
-571.675	88.409	-0.478	-0.531
-570.661	-179.833	0.245	0.005
-569.646	-55.302	0.392	0.176
-568.631	-200.000	0.099	0.798
-567.617	125.564	0.462	0.584
-566.602	-137.361	1.002	-0.114
-565.588	332.776	0.293	-0.567
-564.573	515.285	0.084	-0.197
-563.558	-25.477	-0.082	0.048
-562.544	-5.306	-0.527	-0.363
-561.529	-200.000	-0.063	0.595
-560.515	800.000	-0.167	0.692
-559.500	-200.000	-0.013	-0.797
-558.485	218.935	0.186	-0.297
-557.471	231.496	0.629	-1.031
-556.456	-33.316	-1.148	-0.635
-555.442	-118.830	-0.553	-0.097
-554.427	-200.000	0.121	-0.608
-553.412	264.109	0.090	0.157
-552.398	531.152	-0.040	0.094
-551.383	-76.030	0.350	-0.124
-550.369	-140.596	0.229	-0.024
-549.354	219.163	-0.315	-0.504
-548.339	-88.928	0.770	-0.228
-547.325	81.158	0.559	-0.604
-546.310	157.134	-0.367	0.507
-545.296	73.667	-0.068	-0.071
-544.281	12.390	0.495	0.382
-543.266	194.850	0.105	-0.159
-542.252	94.197	0.229	0.259
-541.237	350.823	0.409	-0.810
-540.223	800.000	0.282	-0.990
-539.208	-154.765	-0.529	-0.035
-538.193	315.937	-0.371	0.699
-537.179	206.164	0.550	-0.856
-536.164	50.937	0.086	0.082
-535.150	185.689	-0.154	-0.229
-534.135	800.000	0.123	-0.378
-533.121	-7.608	-0.286	0.194
-532.106	-74.413	0.448	-0.162
-531.091	20.268	0.291	-0.235
-530.077	-45.878	-0.238	0.117
-529.062	82.644	0.291	0.316
-528.048	-59.611	0.726	-0.311
-527.033	158.818	-0.456	0.633
-526.018	-27.425	-0.221	0.128
-525.004	204.544	0.499	-0.773
-523.989	101.717	-0.230	0.268
-522.975	-23.149	0.440	-0.264
-521.960	35.929	-0.307	0.270
-520.945	-152.264	0.515	-0.037
-519.931	41.596	-0.633	0.572
-518.916	-200.000	-0.105	-0.700
-517.902	247.990	-0.204	0.344
-516.887	-113.201	-0.796	0.157
-515.872	-33.649	0.367	-0.202
-514.858	-50.396	0.700	0.330
-513.843	-54.447	0.255	0.116
-512.829	-98.838	0.206	-0.052
-511.814	265.475	-0.234	0.407
-510.799	365.888	-0.213	0.429
-509.785	-69.992	0.230	0.087
-508.770	64.737	0.344	-0.346
-507.756	800.000	0.121	-0.465
-506.741	777.508	0.191	-0.521
-505.726	800.000	-0.145	-0.623
-504.712	-200.000	0.067	0.295
-503.697	55.511	-0.168	0.163
-502.683	313.864	-0.089	0.168
-501.668	800.000	0.059	0.220
-500.653	-84.871	-0.934	0.293
-499.639	800.000	0.245	0.840
-498.624	-107.904	-0.863	0.187
-497.610	-200.000	0.015	0.429
-496.595	126.993	0.568	0.719
-495.581	-103.958	0.121	0.028
-494.566	1.985	0.319	-0.230
-493.551	-59.646	0.314	0.134
-492.537	794.291	-0.255	-0.699
-491.522	269.552	0.294	0.515
-490.508	-200.000	-0.070	-0.445
-489.493	-108.147	-1.064	-0.230
-488.478	166.081	0.442	0.624
-487.464	-200.000	0.067	0.626
-486.449	-200.000	-0.048	-0.555
-485.435	53.230	-0.496	0.474
-484.420	102.684	0.140	0.163
-483.405	-200.000	0.006	0.125
-482.391	4.145	0.102	-0.075
-481.376	384.285	-0.280	-0.576
-480.362	-47.580	0.086	0.042
-479.347	-200.000	-0.058	-0.470
-478.332	-200.000	0.070	0.402
-477.318	-39.296	-0.229	0.120
-476.303	-200.000	0.006	-0.378
-475.289	-100.289	0.298	-0.074
-474.274	207.066	-0.350	-0.544
-473.259	309.481	-0.424	-0.790
-472.245	336.152	-0.473	0.916
-471.230	60.232	-0.396	-0.390
-470.216	-200.000	-0.012	-0.334
-469.201	-12.918	-0.653	-0.424
-468.186	-17.641	0.637	-0.399
-467.172	-51.021	0.871	-0.407
-466.157	-200.000	0.013	0.077
-465.143	-30.355	0.743	-0.420
-464.128	-165.249	0.323	0.014
-463.113	-200.000	-0.122	-1.144
-462.099	24.996	0.656	0.543
-461.084	-200.000	-0.050	0.259
-460.070	-200.000	0.005	-0.160
-459.055	-77.351	0.139	0.048
-458.040	-63.072	0.749	0.308
-457.026	-70.756	0.371	0.140
-456.011	59.487	0.415	0.408
-454.997	231.815	-0.316	-0.517
-453.982	-175.178	-0.483	0.013
-452.968	-96.642	0.808	-0.212
-451.953	-200.000	-0.052	0.261
-450.938	-97.737	-0.496	0.128
-449.924	125.178	0.563	0.707
-448.909	800.000	-0.033	-0.138
-447.895	-116.269	0.295	-0.054
-446.880	21.411	-0.731	-0.592
-445.865	-58.817	0.300	-0.129
-444.851	-60.589	0.429	-0.181
-443.836	202.113	0.482	-0.741
-442.822	14.068	0.291	-0.226
-441.807	-185.843	-0.731	0.011
-440.792	80.924	-0.493	0.530
-439.778	-45.223	0.768	-0.380
-438.763	78.234	0.267	-0.284
-437.749	-200.000	0.079	0.568
-436.734	800.000	0.207	0.694
-435.719	-90.028	0.027	0.008
-434.705	-68.575	0.041	-0.016
-433.690	-83.106	-0.532	-0.170
-432.676	-146.081	0.644	-0.057
-431.661	800.000	-0.201	0.560
-430.646	-114.606	0.918	0.175
-429.632	-123.613	0.809	-0.128
-428.617	101.972	0.073	0.084
-427.603	313.812	-0.046	0.085
-426.588	15.325	0.280	-0.218
-425.573	17.703	-0.135	-0.107
-424.559	-41.195	0.444	0.228
-423.544	-61.969	0.372	0.155
-422.530	-200.000	0.063	0.836
-421.515	123.338	0.277	-0.346
-420.500	800.000	0.106	-0.315
-419.486	-200.000	-0.013	0.134
-418.471	-24.229	0.412	-0.245
-417.457	-117.414	0.692	-0.125
-416.442	39.102	0.336	0.299
-415.428	800.000	-0.092	-0.298
-414.413	54.793	0.472	0.453
-413.398	-109.042	0.047	-0.010
-412.384	157.979	0.759	-1.047
-411.369	-114.411	-0.763	-0.146
-410.355	-123.808	0.168	-0.026
-409.340	-58.687	0.221	0.095
-408.325	800.000	0.191	0.531
-407.311	-188.732	-1.082	0.013
-406.296	-147.790	-0.828	0.069
-405.282	-154.923	1.073	-0.070
-404.267	-200.000	-0.189	0.890
-403.252	-200.000	0.094	0.898
-402.238	100.343	-0.095	-0.110
-401.223	-9.241	-1.146	-0.762
-400.209	-19.910	-0.732	-0.450
-399.194	-104.367	-0.676	0.156
-398.179	-25.950	-0.463	-0.271
-397.165	-147.867	-0.204	-0.017
-396.150	-118.419	-0.925	-0.163
-395.136	-95.622	-0.307	-0.082
-394.121	466.013	0.096	0.214
-393.106	106.396	-0.096	0.113
-392.092	25.914	0.086	0.072
-391.077	674.784	-0.189	0.487
-390.063	1.606	-0.144	-0.103
-389.048	192.986	0.516	0.775
-388.033	315.195	0.128	-0.240
-387.019	-200.000	-0.128	1.107
-386.004	-65.714	0.211	-0.084
-384.990	142.530	-0.210	-0.277
-383.975	-200.000	0.112	-0.802
-382.960	-5.989	0.776	0.527
-381.946	-30.553	0.571	-0.322
-380.931	-200.000	0.009	0.343
-379.917	800.000	-0.074	-0.313
-378.902	-6.346	0.932	-0.632
-377.888	78.181	-0.310	-0.329
-376.873	363.487	0.283	-0.565
-375.858	-134.413	0.579	0.070
-374.844	-150.370	-0.369	-0.028
-373.829	-20.755	0.740	0.451
-372.815	73.609	0.373	0.389
-371.800	36.184	-0.091	0.080
-370.785	-14.485	-0.688	0.440
-369.771	-200.000	0.062	-0.454
-368.756	-200.000	-0.078	1.264
-367.742	-83.471	-0.236	-0.075
-366.727	345.976	0.259	-0.505
-365.712	-91.529	-0.656	0.186
-364.698	65.415	-0.291	0.293
-363.683	8.277	0.512	-0.382
-362.669	377.492	0.398	-0.807
-361.654	-2.264	0.335	-0.234
-360.639	-77.733	-0.711	-0.244
-359.625	103.894	-0.348	0.406
-358.610	13.407	-0.624	-0.480
-357.596	544.001	0.111	-0.263
-356.581	-122.340	-0.263	0.043
-355.566	-27.741	-0.283	-0.163
-354.552	-200.000	-0.027	-0.363
-353.537	-200.000	-0.044	-0.421
-352.523	426.205	0.367	-0.785
-351.508	158.993	-0.715	0.986
-350.493	-200.000	0.017	0.140
-349.479	-200.000	0.083	-1.064
-348.464	5.530	-0.275	-0.202
-347.450	-200.000	-0.187	-0.864
-346.435	-69.087	-0.275	0.105
-345.420	347.691	-0.151	0.295
-344.406	75.080	-0.634	0.663
-343.391	13.655	-0.302	0.233
-342.377	-40.835	-0.148	0.076
-341.362	-66.688	0.737	0.290
-340.348	-2.660	0.540	0.375
-339.333	182.284	0.265	-0.388
-338.318	-177.825	1.066	-0.025
-337.304	632.916	0.121	0.305
-336.289	-10.156	-0.537	0.354
-335.275	-108.858	-1.099	0.233
-334.260	-200.000	-0.174	1.103
-333.245	47.901	-0.135	0.126
-332.231	370.509	0.572	-1.149
-331.216	-92.665	-0.173	0.048
-330.202	-180.238	-0.259	0.005
-329.187	-200.000	-0.164	0.955
-328.172	19.894	0.504	-0.403
-327.158	800.000	0.232	-0.635
-326.143	-88.219	-0.342	0.102
-325.129	-67.818	-1.007	0.390
-324.114	-108.513	0.416	0.089
-323.099	-75.318	1.239	-0.438
-322.085	590.096	0.326	-0.797
-321.070	-165.932	0.302	-0.013
-320.056	-173.183	-0.812	-0.025
-319.041	-165.488	0.111	-0.005
-318.026	800.000	0.193	0.756
-317.012	49.438	0.465	-0.433
-315.997	502.074	-0.269	-0.617
-314.983	64.971	-0.664	0.665
-313.968	-71.403	-0.910	0.338
-312.953	-3.759	0.427	-0.294
-311.939	800.000	-0.079	-0.242
-310.924	-49.052	0.576	-0.273
-309.910	339.833	0.279	0.540
-308.895	800.000	0.166	0.500
-307.880	765.907	0.068	0.182
-306.866	0.738	-0.529	-0.375
-305.851	-70.924	-0.579	0.216
-304.837	367.642	-0.135	0.270
-303.822	-15.442	-0.424	0.268
-302.807	-81.525	-0.102	-0.033
-301.793	253.746	0.152	-0.258
-300.778	55.143	0.123	-0.118
-299.764	-50.438	-0.310	-0.145
-298.749	44.458	-0.275	0.250
-297.735	361.446	0.106	0.210
-296.720	16.852	0.286	0.224
-295.705	-59.410	0.279	0.119
-294.691	-200.000	-0.078	0.731
-293.676	-200.000	0.043	0.422
-292.662	-200.000	-0.005	0.198
-291.647	176.233	0.289	0.416
-290.632	-106.481	-0.654	0.144
-289.618	800.000	0.241	0.705
-288.603	358.929	0.397	-0.785
-287.589	-200.000	0.121	-0.560
-286.574	34.343	-0.348	-0.301
-285.559	-10.724	0.416	0.273
-284.545	491.741	-0.175	0.396
-283.530	-34.505	0.613	-0.332
-282.516	-131.010	0.085	0.011
-281.501	-200.000	0.008	0.563
-280.486	-200.000	0.130	-0.665
-279.472	-200.000	0.013	0.671
-278.457	56.522	-0.389	0.375
-277.443	-200.000	0.068	-0.531
-276.428	288.524	-0.336	-0.601
-275.413	-39.496	-0.400	-0.208
-274.399	-200.000	0.053	0.279
-273.384	327.804	-0.330	0.626
-272.370	-200.000	-0.046	0.229
-271.355	-91.248	0.344	0.098
-270.340	-116.499	0.805	0.147
-269.326	-112.366	-0.551	0.109
-268.311	479.753	-0.180	-0.403
-267.297	-200.000	-0.042	-0.595
-266.282	-200.000	0.046	-0.341
-265.267	-111.963	-0.709	-0.142
-264.253	-134.023	-0.281	-0.034
-263.238	778.288	-0.280	-0.757
-262.224	800.000	-0.170	0.468
-261.209	-28.542	-0.649	0.370
-260.195	-51.748	0.212	-0.098
-259.180	-65.388	-0.389	0.155
-258.165	28.850	0.586	-0.491
-257.151	-97.867	0.978	0.250
-256.136	-149.233	0.278	-0.022
-255.122	115.196	-0.417	-0.503
-254.107	-200.000	-0.031	0.588
-253.092	-0.057	0.166	0.117
-252.078	-200.000	0.060	0.989
-251.063	-137.491	-0.852	0.095
-250.049	34.770	0.186	0.161
-249.034	157.764	-0.359	0.492
-248.019	12.872	-0.939	-0.717
-247.005	12.497	-0.212	-0.162
-245.990	-11.183	0.224	0.146
-244.976	-35.968	0.323	-0.173
-243.961	45.806	0.540	0.494
-242.946	565.256	0.317	0.759
-241.932	-60.174	-0.459	0.193
-240.917	-76.537	0.657	-0.228
-239.903	-39.212	0.492	-0.256
-238.888	25.912	-0.741	-0.610
-237.873	800.000	0.207	-0.643
-236.859	138.404	-0.442	0.573
-235.844	215.092	-0.371	0.581
-234.830	180.483	0.176	0.255
-233.815	-64.453	-0.781	-0.314
-232.800	-11.174	0.270	-0.176
-231.786	-196.481	-0.348	-0.002
-230.771	-95.835	-0.778	0.205
-229.757	800.000	-0.039	0.135
-228.742	70.350	-0.224	0.228
-227.727	-150.745	1.044	0.078
-226.713	-200.000	0.024	-0.124
-225.698	2.833	0.287	0.206
-224.684	135.198	0.476	-0.611
-223.669	-46.686	0.258	-0.125
-222.655	-41.134	-0.982	0.500
-221.640	-34.414	0.368	-0.199
-220.625	-81.335	0.657	0.214
-219.611	4.124	-0.416	-0.301
-218.596	575.553	0.411	-0.992
-217.582	-200.000	0.037	0.238
-216.567	800.000	0.046	0.174
-215.552	-58.888	-0.515	0.220
-214.538	178.731	0.201	0.291
-213.523	-55.430	0.709	0.314
-212.509	-95.138	0.606	-0.161
-211.494	-109.189	-0.388	-0.081
-210.479	-60.149	0.348	0.146
-209.465	-154.793	0.290	-0.019
-208.450	-200.000	0.098	0.581
-207.436	-143.302	0.574	0.054
-206.421	-200.000	-0.073	0.617
-205.406	434.122	0.134	0.287
-204.392	-57.624	0.280	0.121
-203.377	-2.073	-0.494	-0.343
-202.363	800.000	0.308	-1.039
-201.348	-200.000	-0.063	0.423
-200.333	-137.702	-0.565	0.063
-199.319	-200.000	-0.027	-0.510
-198.304	512.359	-0.308	0.708
-197.290	239.911	-0.668	1.097
-196.275	-141.433	0.809	0.081
-195.260	156.525	0.264	0.359
-194.246	-200.000	-0.033	-0.600
-193.231	-200.000	0.115	-0.784
-192.217	45.306	-0.088	-0.080
-191.202	-96.791	-0.287	-0.074
-190.187	304.981	-0.281	-0.515
-189.173	54.272	0.699	0.663
-188.158	-15.840	-0.136	0.085
-187.144	-200.000	0.128	-0.766
-186.129	-43.301	-0.703	-0.351
-185.114	309.764	-0.202	-0.372
-184.100	343.320	0.372	0.718
-183.085	125.883	-0.102	0.127
-182.071	-155.484	-0.439	0.028
-181.056	-200.000	-0.040	0.381
-180.042	60.934	0.357	-0.349
-179.027	756.929	0.059	0.158
-178.012	800.000	0.205	0.742
-176.998	18.425	-0.068	0.053
-175.983	-121.276	-0.289	-0.048
-174.969	-200.000	-0.090	-0.516
-173.954	800.000	-0.034	-0.111
-172.939	800.000	-0.048	-0.194
-171.925	113.890	0.211	0.253
-170.910	-200.000	0.083	0.452
-169.896	-157.496	0.149	-0.009
-168.881	46.168	-0.463	0.422
-167.866	94.209	0.320	-0.357
-166.852	75.823	0.044	0.046
-165.837	528.810	-0.022	-0.052
-164.823	15.993	0.454	-0.352
-163.808	92.669	-0.581	0.646
-162.793	9.303	0.220	0.164
-161.779	88.926	-0.511	0.561
-160.764	800.000	0.132	0.481
-159.750	800.000	-0.152	-0.534
-158.735	-87.288	-0.279	0.084
-157.720	168.843	-0.119	0.168
-156.706	17.255	0.276	-0.215
-155.691	535.357	0.339	-0.793
-154.677	-32.484	-0.047	-0.026
-153.662	128.226	0.571	-0.716
-152.647	-69.635	0.317	-0.119
-151.633	153.878	0.322	-0.435
-150.618	-42.587	0.621	-0.311
-149.604	-76.803	-0.209	-0.072
-148.589	-48.600	0.822	0.389
-147.574	-39.896	-0.444	0.228
-146.560	157.013	-0.286	0.389
-145.545	800.000	-0.149	-0.453
-144.531	-200.000	0.032	-0.288
-143.516	-200.000	-0.034	0.319
-142.502	800.000	-0.149	0.604
-141.487	225.708	-0.074	-0.119
-140.472	17.610	0.616	0.482
-139.458	-200.000	-0.116	0.730
-138.443	-66.231	0.701	-0.275
-137.429	-167.445	-0.473	0.019
-136.414	208.044	-0.107	0.164
-135.399	800.000	-0.273	0.873
-134.385	-80.950	0.975	0.318
-133.370	-55.252	-0.103	0.045
-132.356	-200.000	-0.120	-0.959
-131.341	-85.250	-0.605	-0.186
-130.326	-113.317	0.916	0.177
-129.312	247.508	0.172	-0.285
-128.297	-153.320	-0.065	-0.004
-127.283	800.000	-0.189	-0.546
-126.268	6.040	-0.423	0.308
-125.253	-200.000	-0.083	-0.611
-124.239	53.149	-0.507	0.478
-123.224	27.550	0.595	-0.493
-122.210	-200.000	0.039	0.333
-121.195	328.942	-0.146	-0.276
-120.180	78.004	-0.642	0.674
-119.166	-169.794	0.767	0.027
-118.151	-88.528	0.148	-0.044
-117.137	-13.115	0.178	0.114
-116.122	110.988	-0.324	-0.384
-115.107	-154.668	-0.460	0.030
-114.093	800.000	-0.080	0.334
-113.078	-10.637	-0.234	-0.152
-112.064	-54.885	0.572	0.254
-111.049	-120.175	0.130	0.022
-110.034	495.354	0.156	-0.352
-109.020	508.506	0.175	0.399
-108.005	-200.000	-0.094	-0.000
-106.991	-200.000	0.086	1.211
-105.976	-103.281	0.691	0.160
-104.962	800.000	-0.223	-0.667
-103.947	509.549	-0.114	0.261
-102.932	53.839	0.102	-0.096
-101.918	800.000	0.272	0.955
-100.903	397.968	-0.340	-0.699
-99.889	199.322	-0.040	-0.061
-98.874	33.303	-0.573	-0.489
-97.859	65.789	0.297	0.296
-96.845	-12.842	0.965	0.618
-95.830	-120.862	-0.454	-0.075
-94.816	362.899	-0.123	-0.244
-93.801	81.471	0.304	-0.323
-92.786	-85.970	-0.355	0.108
-91.772	-105.093	-0.696	0.156
-90.757	546.765	-0.238	0.559
-89.743	64.733	-0.154	0.153
-88.728	70.813	0.421	0.428
-87.713	-135.124	-0.779	0.092
-86.699	-151.143	0.387	-0.029
-85.684	-107.130	0.243	-0.053
-84.670	122.651	-0.440	0.540
-83.655	800.000	-0.263	-0.805
-82.640	800.000	-0.156	-0.573
-81.626	9.679	-0.655	0.487
-80.611	770.960	0.043	0.115
-79.597	-2.637	-0.193	0.133
-78.582	721.145	0.229	0.599
-77.567	728.179	0.219	-0.573
-76.553	-56.000	-0.130	-0.057
-75.538	606.566	-0.211	-0.516
-74.524	-200.000	-0.081	-0.542
-73.509	-106.645	0.700	-0.153
-72.494	584.402	0.135	0.325
-71.480	123.894	0.136	-0.167
-70.465	702.212	-0.081	-0.209
-69.451	150.658	0.057	-0.076
-68.436	27.788	-0.473	-0.392
-67.422	259.694	0.479	0.812
-66.407	-93.961	0.805	0.217
-65.392	800.000	-0.129	0.381
-64.378	-72.756	0.470	-0.170
-63.363	-62.392	0.267	0.109
-62.349	21.965	-0.494	-0.395
-61.334	209.215	-1.071	-1.646
-60.319	2.123	0.279	0.198
-59.305	87.123	-0.534	-0.579
-58.290	548.739	0.526	1.236
-57.276	800.000	0.854	2.630
-56.261	-200.000	96.750	607.774
-55.246	665.161	1359.667	3444.530
-54.232	203.326	2531.134	3840.424
-53.217	113.759	2243.900	2675.147
-52.203	41.578	1880.244	1670.318
-51.188	35.407	1672.654	1439.724
-50.173	32.770	1630.249	1383.851
-49.159	51.440	1680.124	1565.590
-48.144	52.144	1695.719	1585.297
-47.130	34.767	1656.455	1420.793
-46.115	32.151	1641.573	1388.668
-45.100	32.151	1636.747	1384.529
-44.086	31.901	1634.438	1380.681
-43.071	31.805	1631.881	1377.760
-42.057	31.953	1629.674	1376.927
-41.042	32.035	1627.742	1375.842
-40.027	31.919	1627.032	1374.338
-39.013	32.110	1623.184	1372.430
-37.998	32.003	1621.441	1370.117
-36.984	32.051	1620.499	1369.616
-35.969	31.934	1620.177	1368.439
-34.954	32.142	1617.018	1367.227
-33.940	32.095	1615.462	1365.517
-32.925	31.970	1614.914	1364.091
-31.911	32.069	1612.825	1362.992
-30.896	32.082	1610.093	1360.723
-29.881	32.093	1608.602	1359.491
-28.867	32.117	1607.911	1359.025
-27.852	32.096	1605.683	1356.935
-26.838	31.929	1604.012	1354.264
-25.823	31.929	1603.538	1353.813
-24.809	32.087	1601.028	1352.775
-23.794	32.149	1600.515	1352.739
-22.779	31.964	1598.652	1349.774
-21.765	32.083	1596.758	1348.978
-20.750	32.091	1595.073	1347.561
-19.736	31.991	1594.258	1346.103
-18.721	31.858	1593.545	1344.492
-17.706	31.912	1591.639	1343.217
-16.692	32.338	1589.603	1344.490
-15.677	32.012	1588.485	1341.160
-14.663	32.052	1587.563	1340.614
-13.648	32.301	1586.168	1341.166
-12.633	32.098	1584.427	1338.191
-11.619	32.217	1582.073	1336.995
-10.604	32.256	1580.793	1336.136
-9.590	32.240	1579.447	1334.833
-8.575	32.044	1579.554	1333.483
-7.560	31.919	1578.511	1331.662
-6.546	32.284	1575.593	1331.731
-5.531	31.847	1576.842	1329.634
-4.517	32.180	1574.143	1329.666
-3.502	32.025	1572.445	1327.080
-2.487	31.978	1571.720	1326.085
-1.473	31.766	1559.992	1314.651
-0.458	29.064	1539.680	1278.736
0.556	26.875	1540.434	1246.520
1.571	24.122	1564.030	1246.270
2.586	23.736	1576.738	1253.562
3.600	20.957	1522.719	1191.538
4.615	12.489	1415.203	1053.283
5.629	4.760	1351.496	958.345
6.644	3.496	1342.646	944.250
7.659	3.576	1342.139	944.298
8.673	3.439	1340.458	942.197
9.688	3.408	1339.258	941.079
10.702	3.218	1336.638	937.993
11.717	6.775	1342.302	963.624
12.731	15.969	1359.951	1032.818
13.746	23.400	1370.920	1086.806
14.761	24.948	1372.567	1097.512
15.775	24.534	1371.962	1094.392
16.790	24.508	1369.540	1092.205
17.804	24.273	1368.513	1089.856
18.819	24.086	1368.858	1088.886
19.834	24.019	1368.314	1087.950
20.848	24.259	1366.586	1087.942
21.863	24.315	1367.037	1088.550
22.877	24.212	1365.381	1086.508
23.892	24.281	1363.912	1085.661
24.907	24.317	1363.069	1085.112
25.921	24.152	1362.646	1083.676
26.936	24.191	1360.758	1082.319
27.950	24.023	1361.923	1082.129
28.965	24.195	1360.090	1081.618
29.980	24.371	1359.045	1081.758
30.994	24.432	1357.750	1081.000
32.009	24.635	1356.418	1081.073
33.023	24.233	1356.431	1078.558
34.038	24.302	1354.340	1077.217
35.053	24.275	1354.613	1077.175
36.067	24.285	1352.984	1075.847
37.082	24.137	1351.791	1073.907
38.096	24.187	1350.838	1073.357
39.111	24.284	1350.849	1073.855
40.126	24.227	1349.124	1072.048
41.140	24.063	1348.301	1070.311
42.155	23.775	1348.765	1068.851
43.169	23.539	1348.804	1067.368
44.184	23.708	1347.981	1067.641
45.199	23.716	1346.919	1066.749
46.213	23.979	1347.265	1068.512
47.228	24.025	1346.463	1068.053
48.242	24.240	1345.228	1068.268
49.257	24.134	1344.467	1066.937
50.271	24.295	1342.308	1066.093
51.286	24.256	1341.586	1065.193
52.301	24.416	1339.900	1064.712
53.315	24.182	1338.731	1062.294
54.330	23.906	1338.530	1060.399
55.344	23.747	1337.646	1058.653
56.359	23.821	1336.508	1058.098
57.374	23.874	1335.101	1057.208
58.388	23.957	1333.613	1056.426
59.403	23.894	1333.473	1055.850
60.417	23.778	1333.132	1054.801
61.432	23.798	1332.864	1054.612
62.447	23.644	1332.206	1053.086
63.461	23.582	1330.877	1051.575
64.476	23.563	1329.132	1049.991
65.490	23.802	1328.027	1050.438
66.505	23.653	1326.041	1047.893
67.520	23.617	1326.056	1047.599
68.534	23.584	1325.984	1047.255
69.549	23.537	1323.613	1045.011
70.563	23.682	1323.206	1045.453
71.578	23.397	1322.580	1043.192
72.593	23.272	1321.166	1041.243
73.607	23.287	1320.639	1040.826
74.622	23.270	1319.667	1039.871
75.636	23.422	1319.043	1040.179
76.651	23.456	1318.673	1039.991
77.666	23.460	1318.211	1039.561
78.680	23.618	1317.855	1040.114
79.695	23.720	1316.792	1039.779
80.709	23.803	1316.818	1040.192
81.724	24.015	1315.235	1040.093
82.739	24.038	1313.856	1039.043
83.753	24.142	1314.043	1039.704
84.768	24.354	1313.644	1040.533
85.782	24.422	1312.383	1039.840
86.797	24.353	1311.618	1038.740
87.812	24.296	1310.086	1037.104
88.826	24.218	1309.510	1036.103
89.841	24.268	1308.082	1035.171
90.855	24.400	1306.648	1034.710
91.870	24.313	1306.548	1034.036
92.884	24.619	1305.039	1034.518
93.899	24.243	1305.841	1032.886
94.914	24.484	1303.690	1032.490
95.928	24.444	1303.176	1031.758
96.943	24.390	1303.105	1031.301
97.957	24.524	1302.298	1031.340
98.972	24.512	1301.411	1030.479
99.987	24.426	1300.479	1029.154
101.001	24.492	1299.027	1028.297
102.016	24.380	1298.023	1026.763
103.030	24.396	1297.458	1026.317
104.045	24.258	1296.883	1024.981
105.060	23.967	1296.138	1022.628
106.074	23.952	1294.955	1021.519
107.089	23.901	1292.545	1019.233
108.103	23.770	1290.414	1016.715
109.118	23.594	1289.675	1015.037
110.133	23.681	1288.746	1014.712
111.147	23.550	1288.248	1013.480
112.162	23.727	1286.684	1013.171
113.176	23.893	1285.553	1013.134
114.191	23.874	1284.551	1012.147
115.206	23.916	1283.930	1011.810
116.220	24.010	1283.358	1011.801
117.235	23.774	1282.021	1009.317
118.249	23.708	1280.089	1007.332
119.264	23.459	1279.912	1005.692
120.279	23.698	1279.203	1006.403
121.293	23.628	1278.003	1004.971
122.308	23.420	1277.240	1003.107
123.322	23.382	1275.713	1001.604
124.337	23.336	1274.447	1000.261
125.352	23.565	1273.460	1000.688
126.366	23.412	1273.034	999.407
127.381	23.476	1271.619	998.563
128.395	23.119	1271.000	995.979
129.410	23.284	1270.025	996.058
130.424	23.486	1269.017	996.313
131.439	23.461	1269.213	996.239
132.454	23.723	1267.271	996.096
133.468	23.669	1267.587	995.955
134.483	23.899	1267.772	997.303
135.497	23.548	1266.075	993.911
136.512	23.867	1265.265	994.973
137.527	23.657	1263.521	992.340
138.541	23.508	1263.444	991.362
139.556	23.933	1261.733	992.302
140.570	24.131	1261.128	992.841
141.585	24.063	1260.893	992.187
142.600	24.227	1259.361	991.811
143.614	24.525	1259.030	993.119
144.629	24.309	1257.226	990.408
145.643	24.198	1257.525	989.938
146.658	23.888	1256.332	987.191
147.673	23.988	1254.913	986.543
148.687	24.041	1253.728	985.818
149.702	23.737	1251.459	982.267
150.716	23.411	1250.952	979.979
151.731	23.545	1249.242	979.294
152.746	23.679	1248.665	979.491
153.760	23.807	1246.861	978.697
154.775	24.256	1245.826	980.267
155.789	24.077	1244.969	978.524
156.804	23.912	1245.203	977.710
157.819	23.872	1244.023	976.481
158.833	23.776	1244.807	976.481
159.848	24.148	1242.904	976.941
160.862	24.235	1241.689	976.379
161.877	24.123	1240.383	974.653
162.892	23.769	1239.200	971.700
163.906	23.388	1238.272	968.804
164.921	23.850	1236.757	970.056
165.935	23.873	1236.497	969.889
166.950	24.104	1235.925	970.613
167.964	23.983	1236.096	970.004
168.979	23.811	1235.035	968.151
169.994	23.542	1234.917	966.504
171.008	23.851	1233.631	967.094
172.023	23.814	1232.995	966.306
173.037	24.114	1232.734	967.651
174.052	24.232	1230.866	966.740
175.067	23.856	1231.214	964.885
176.081	23.473	1229.355	961.267
177.096	23.855	1228.487	962.572
178.110	23.754	1226.902	960.697
179.125	23.744	1226.793	960.474
180.140	23.924	1225.617	960.442
181.154	24.086	1224.304	960.199
182.169	24.013	1223.315	958.949
183.183	24.031	1222.985	958.702
184.198	24.231	1221.445	958.482
185.213	24.144	1220.338	957.062
186.227	24.274	1219.866	957.304
187.242	23.949	1219.554	955.229
188.256	24.320	1217.296	955.366
189.271	24.237	1217.365	954.891
190.286	24.513	1215.605	954.902
191.300	23.762	1215.142	950.439
192.315	23.981	1214.261	950.834
193.329	24.120	1214.122	951.387
194.344	23.672	1214.165	948.938
195.359	23.557	1212.786	947.164
196.373	23.446	1211.969	945.849
197.388	23.274	1212.011	944.885
198.402	24.029	1210.949	947.992
199.417	24.371	1211.303	950.012
200.432	24.428	1211.438	950.336
201.446	24.327	1210.475	948.958
202.461	24.516	1209.034	948.747
203.475	24.385	1208.863	947.835
204.490	24.266	1206.020	944.890
205.504	23.930	1205.999	943.007
206.519	23.963	1205.303	942.559
207.534	23.794	1203.286	940.004
208.548	23.666	1201.827	938.100
209.563	23.877	1201.887	939.181
210.577	23.737	1200.252	937.084
211.592	23.916	1199.916	937.682
212.607	24.249	1200.703	939.970
213.621	24.411	1199.199	939.564
214.636	23.957	1199.027	936.956
215.650	24.085	1197.325	936.214
216.665	24.161	1197.107	936.357
217.680	24.447	1196.198	937.067
218.694	24.431	1196.135	936.852
219.709	24.065	1194.211	933.346
220.723	24.457	1193.562	934.809
221.738	24.347	1192.192	933.077
222.753	24.076	1191.851	931.308
223.767	23.971	1191.303	930.247
224.782	24.127	1191.769	931.346
225.796	24.636	1190.253	932.735
226.811	24.326	1190.465	931.202
227.826	24.266	1189.328	929.918
228.840	24.186	1188.234	928.565
229.855	24.117	1187.019	927.171
230.869	24.259	1186.661	927.548
231.884	23.976	1186.317	925.723
232.899	23.814	1184.706	923.545
233.913	24.004	1184.072	923.957
234.928	23.791	1183.654	922.441
235.942	23.662	1182.703	920.950
236.957	23.530	1181.922	919.576
237.972	23.632	1180.448	918.875
238.986	23.677	1179.703	918.449
240.001	23.799	1179.615	918.928
241.015	23.638	1178.842	917.411
242.030	23.970	1178.487	918.774
243.045	23.962	1178.166	918.397
244.059	24.001	1178.007	918.395
245.074	24.281	1176.730	918.761
246.088	24.470	1175.514	918.700
247.103	24.343	1176.253	918.546
248.117	24.416	1175.152	917.981
249.132	24.632	1174.706	918.662
250.147	24.766	1174.442	919.063
251.161	25.090	1173.169	919.647
252.176	25.142	1172.312	919.159
253.190	25.024	1172.563	918.667
254.205	25.070	1172.247	918.579
255.220	25.330	1171.090	918.919
256.234	25.166	1170.396	917.455
257.249	25.294	1168.401	916.462
258.263	24.999	1168.516	914.968
259.278	25.016	1167.794	914.405
260.293	25.082	1168.179	914.965
261.307	24.956	1168.822	914.742
262.322	25.230	1167.324	914.886
263.336	25.211	1165.677	913.421
264.351	25.110	1165.806	912.924
265.366	24.980	1165.052	911.593
266.380	25.224	1163.762	911.742
267.395	25.345	1162.948	911.639
268.409	25.037	1162.079	909.314
269.424	24.796	1162.171	908.082
270.439	24.870	1161.832	908.112
271.453	24.779	1161.215	907.086
272.468	24.668	1160.302	905.734
273.482	24.628	1158.673	904.179
274.497	24.878	1158.155	904.961
275.512	24.708	1157.042	903.151
276.526	24.723	1156.102	902.413
277.541	24.770	1155.745	902.292
278.555	24.625	1155.360	901.180
279.570	24.830	1155.734	902.425
280.585	25.113	1154.848	903.078
281.599	25.418	1153.269	903.297
282.614	24.999	1152.477	900.493
283.628	24.869	1150.919	898.541
284.643	24.628	1150.388	896.838
285.657	24.814	1148.990	896.603
286.672	24.628	1149.193	895.747
287.687	24.692	1148.002	895.063
288.701	24.911	1147.673	895.823
289.716	24.831	1146.695	894.579
290.730	24.492	1146.459	892.621
291.745	24.883	1145.193	893.507
292.760	24.827	1144.896	892.921
293.774	24.921	1144.385	892.911
294.789	24.992	1144.151	893.002
295.803	25.184	1142.840	892.856
296.818	25.098	1141.757	891.502
297.833	24.801	1141.158	889.480
298.847	24.624	1141.234	888.583
299.862	24.792	1139.388	887.900
300.876	24.707	1139.517	887.498
301.891	24.996	1139.590	888.911
302.906	25.338	1137.588	888.962
303.920	25.118	1138.515	888.523
304.935	25.029	1138.600	888.064
305.949	25.085	1138.007	887.805
306.964	25.555	1135.951	888.443
307.979	25.024	1136.514	886.179
308.993	25.084	1134.235	884.620
310.008	25.403	1133.189	885.299
311.022	25.193	1133.996	884.815
312.037	25.352	1132.087	884.029
313.052	25.209	1130.823	882.263
314.066	25.086	1130.056	880.979
315.081	24.715	1129.329	878.514
316.095	24.667	1128.010	877.173
317.110	24.653	1127.706	876.793
318.125	24.842	1126.759	876.905
319.139	24.443	1126.493	874.665
320.154	24.679	1125.961	875.329
321.168	24.459	1125.211	873.591
322.183	24.574	1124.183	873.278
323.197	24.813	1123.587	873.908
324.212	24.895	1123.286	873.995
325.227	24.780	1122.333	872.618
326.241	24.857	1121.154	871.996
327.256	24.768	1121.591	871.826
328.270	24.668	1120.204	870.185
329.285	24.668	1119.559	869.608
330.300	24.634	1120.071	869.759
331.314	24.740	1117.897	868.511
332.329	24.579	1117.433	867.291
333.343	24.618	1116.955	867.035
334.358	25.081	1115.497	868.069
335.373	25.336	1115.604	869.306
336.387	25.031	1115.429	867.618
337.402	25.084	1114.997	867.463
338.416	25.216	1114.086	867.313
339.431	25.204	1113.725	866.902
340.446	25.468	1112.488	867.136
341.460	25.634	1111.971	867.456
342.475	25.667	1111.220	866.950
343.489	25.960	1109.572	866.997
344.504	25.821	1109.724	866.370
345.519	25.866	1107.787	865.000
346.533	26.050	1108.803	866.599
347.548	25.986	1107.355	865.084
348.562	25.850	1105.994	863.293
349.577	25.540	1105.598	861.422
350.592	24.880	1105.856	858.384
351.606	25.197	1102.841	857.485
352.621	25.139	1102.905	857.179
353.635	25.041	1102.065	855.982
354.650	25.066	1101.577	855.645
355.665	25.109	1100.442	854.895
356.679	25.519	1100.458	856.788
357.694	25.396	1100.054	855.807
358.708	25.586	1098.589	855.499
359.723	25.397	1098.836	854.715
360.738	25.187	1098.461	853.348
361.752	25.535	1097.659	854.306
362.767	25.313	1097.589	853.121
363.781	25.530	1096.094	852.912
364.796	25.688	1096.380	853.809
365.810	25.393	1096.355	852.312
366.825	25.894	1095.492	853.944
367.840	25.933	1095.071	853.723
368.854	26.098	1094.721	854.154
369.869	26.182	1093.703	853.683
370.883	25.739	1093.303	851.202
371.898	25.632	1091.936	849.556
372.913	25.717	1090.977	849.136
373.927	25.747	1090.484	848.817
374.942	25.842	1091.488	849.975
375.956	26.020	1089.933	849.525
376.971	25.701	1089.436	847.562
377.986	25.909	1089.430	848.458
379.000	26.245	1088.005	848.853
380.015	26.313	1087.525	848.726
381.029	26.183	1087.429	847.965
382.044	26.219	1086.185	847.086
383.059	26.075	1085.743	845.993
384.073	25.930	1085.610	845.135
385.088	26.035	1083.742	844.098
386.102	26.161	1083.343	844.302
387.117	25.800	1082.255	841.689
388.132	25.574	1080.377	839.105
389.146	25.233	1081.310	838.161
390.161	25.657	1078.815	838.125
391.175	25.777	1078.023	837.996
392.190	25.835	1078.575	838.620
393.205	25.810	1078.303	838.217
394.219	25.936	1077.549	838.146
395.234	25.816	1075.494	835.916
396.248	25.537	1075.107	834.247
397.263	25.803	1073.002	833.773
398.278	25.375	1073.432	832.051
399.292	25.339	1073.317	831.718
400.307	25.542	1072.377	831.857
401.321	25.446	1071.896	830.967
402.336	25.347	1070.367	829.249
403.350	25.574	1069.407	829.480
404.365	25.733	1068.906	829.753
405.380	25.596	1068.735	828.911
406.394	25.607	1068.573	828.764
407.409	25.797	1067.568	828.785
408.423	26.292	1066.054	829.810
409.438	26.386	1066.180	830.269
410.453	26.369	1066.090	830.046
411.467	26.316	1065.292	829.110
412.482	26.021	1064.630	827.167
413.496	26.122	1064.084	827.131
414.511	26.547	1062.343	827.652
415.526	26.448	1063.663	828.153
416.540	26.458	1062.705	827.381
417.555	26.313	1063.058	826.916
418.569	26.161	1062.090	825.394
419.584	26.348	1061.016	825.341
420.599	26.167	1060.296	823.885
421.613	154.442	1403.981	1793.717
422.628	141.949	1454.042	1793.753
