DTS Sentinel unit serial number:	SN413079Multiplexer serial number:	ORYXHardware model number:	OX4-SRSoftware version number:	ORYX F/W v4.00 Oryx Data Collector v3.7.2.0data status	okinstallation	princeton_trtdifferential loss correction	single-endedforward channel	channel 2reverse channel	N/Adate	2019/09/11time	01:25:11forward acquisition time	60.00reverse acquisition time	0.00gamma	496.2192k internal	0.2332k external	0.2332temperature offset calibration	0.9941default loss term (dB/km)	0.3790temperature slope calibration	1.0000multiplexer offset coefficient	1.0000multiplexer slope coefficient	1.0000fibre end	0.00T internal ref (°C)	29.12T ext. ref 1 (°C)	-0.30T ext. ref 2 (°C)	23.38length (m)	temperature (°C)	Stokes	anti-Stokes-747.200	-181.263	0.060	0.001
-746.185	-52.919	-0.296	0.137
-745.171	-128.545	0.235	-0.034
-744.156	-200.000	-0.057	0.322
-743.142	-100.492	0.232	0.058
-742.127	29.759	0.234	0.200
-741.112	162.330	0.257	-0.363
-740.098	-200.000	0.011	0.187
-739.083	464.300	-0.076	-0.171
-738.069	296.163	0.072	0.133
-737.054	-200.000	-0.018	-0.205
-736.039	-200.000	0.036	0.248
-735.025	-200.000	-0.004	0.067
-734.010	-200.000	-0.042	0.232
-732.996	259.851	0.147	0.255
-731.981	-200.000	-0.023	-0.418
-730.966	-63.415	0.247	-0.102
-729.952	-200.000	-0.011	-0.189
-728.937	-164.348	-0.284	0.013
-727.923	183.756	-0.182	-0.271
-726.908	140.611	-0.021	-0.028
-725.894	-171.145	0.307	0.010
-724.879	800.000	-0.082	-0.295
-723.864	108.633	0.250	-0.300
-722.850	-6.249	-0.362	0.248
-721.835	5.621	-0.232	-0.172
-720.821	93.320	-0.124	-0.141
-719.806	-133.027	-0.368	-0.047
-718.791	-172.679	-0.160	-0.005
-717.777	83.111	-0.079	-0.086
-716.762	588.811	0.112	-0.276
-715.748	167.089	-0.286	-0.408
-714.733	-49.678	0.155	-0.074
-713.718	63.170	0.291	-0.293
-712.704	800.000	0.045	-0.198
-711.689	80.734	-0.176	0.190
-710.675	-146.061	-0.064	0.006
-709.660	800.000	-0.055	-0.160
-708.645	-121.477	0.503	0.084
-707.631	46.959	0.098	-0.092
-706.616	-137.089	0.093	-0.011
-705.602	120.007	-0.081	-0.101
-704.587	122.346	-0.265	-0.333
-703.572	175.833	-0.214	-0.312
-702.558	-66.985	0.073	0.029
-701.543	800.000	-0.073	0.276
-700.529	-131.355	-0.132	0.018
-699.514	-94.518	0.330	0.090
-698.499	-36.898	0.100	-0.054
-697.485	-24.225	-0.242	-0.145
-696.470	800.000	-0.032	0.094
-695.456	-200.000	0.008	-0.182
-694.441	-200.000	0.044	-0.335
-693.426	0.366	0.204	-0.146
-692.412	-200.000	0.027	0.278
-691.397	262.442	-0.142	-0.248
-690.383	158.316	-0.055	-0.077
-689.368	494.730	0.047	0.107
-688.354	9.371	0.344	-0.261
-687.339	-165.898	-0.061	-0.003
-686.324	-12.281	-0.163	0.107
-685.310	117.772	-0.229	-0.283
-684.295	61.886	-0.201	0.201
-683.281	-58.155	-0.240	-0.105
-682.266	215.559	-0.217	-0.345
-681.251	-200.000	-0.025	0.198
-680.237	-61.878	0.213	-0.089
-679.222	-88.420	-0.093	-0.028
-678.208	800.000	0.069	0.278
-677.193	-49.376	-0.294	-0.141
-676.178	-200.000	-0.009	-0.064
-675.164	-147.552	-0.299	0.025
-674.149	369.688	-0.056	-0.113
-673.135	-200.000	0.008	-0.162
-672.120	-82.646	0.213	-0.069
-671.105	169.567	-0.097	-0.139
-670.091	-84.329	0.270	0.086
-669.076	-200.000	-0.028	-0.122
-668.062	-129.864	-0.187	0.026
-667.047	800.000	0.070	0.203
-666.032	436.632	-0.076	0.165
-665.018	-25.548	-0.384	0.227
-664.003	-161.329	-0.026	-0.001
-662.989	-200.000	-0.014	-0.237
-661.974	-200.000	-0.015	0.115
-660.959	800.000	0.097	-0.279
-659.945	97.471	-0.134	0.154
-658.930	-43.291	-0.077	-0.039
-657.916	138.939	0.140	-0.184
-656.901	178.947	-0.123	0.180
-655.886	-131.247	-0.261	-0.035
-654.872	-200.000	0.023	-0.309
-653.857	-40.227	0.232	0.121
-652.843	-200.000	0.018	0.086
-651.828	491.990	-0.070	0.160
-650.814	-93.136	-0.198	0.055
-649.799	-55.024	-0.078	0.035
-648.784	-13.098	0.197	-0.129
-647.770	-15.931	0.116	-0.074
-646.755	-124.685	-0.181	-0.028
-645.741	-200.000	0.035	0.181
-644.726	106.495	0.116	0.138
-643.711	-139.086	0.246	0.027
-642.697	-195.233	-0.164	0.001
-641.682	800.000	-0.074	0.259
-640.668	-52.171	0.185	0.086
-639.653	-87.732	-0.230	-0.070
-638.638	23.346	0.228	0.187
-637.624	-200.000	-0.051	-0.268
-636.609	2.398	-0.239	-0.174
-635.595	688.988	0.038	-0.098
-634.580	800.000	-0.077	-0.261
-633.565	-132.573	0.145	0.019
-632.551	120.889	-0.181	0.225
-631.536	-200.000	-0.044	0.230
-630.522	77.494	0.106	0.113
-629.507	202.495	0.068	-0.105
-628.492	-200.000	-0.272	0.001
-627.478	-60.198	-0.192	-0.082
-626.463	63.105	-0.121	0.122
-625.449	264.081	-0.169	-0.294
-624.434	-50.722	-0.418	-0.197
-623.419	407.552	0.099	-0.210
-622.405	140.025	0.224	0.295
-621.390	-50.569	0.082	0.039
-620.376	-130.484	0.040	0.005
-619.361	97.120	0.178	-0.204
-618.346	-200.000	-0.017	-0.364
-617.332	800.000	0.074	0.208
-616.317	560.825	-0.149	0.360
-615.303	-111.104	0.162	0.033
-614.288	-172.994	0.160	0.005
-613.273	414.887	-0.075	-0.160
-612.259	-158.638	-0.097	-0.006
-611.244	304.448	0.126	-0.234
-610.230	77.268	-0.104	-0.111
-609.215	-131.532	-0.125	0.016
-608.201	218.808	-0.266	-0.425
-607.186	-128.387	-0.253	-0.036
-606.171	-200.000	-0.002	-0.229
-605.157	354.295	-0.138	-0.275
-604.142	107.102	-0.126	-0.149
-603.128	800.000	0.060	-0.199
-602.113	-52.351	0.230	-0.106
-601.098	-67.126	-0.258	0.102
-600.084	44.755	-0.394	-0.363
-599.069	123.818	0.170	0.213
-598.055	177.177	0.137	0.200
-597.040	-52.889	-0.200	-0.092
-596.025	-126.388	-0.239	-0.036
-595.011	-74.701	-0.294	-0.106
-593.996	800.000	-0.053	0.200
-592.982	-109.821	-0.359	0.075
-591.967	800.000	-0.008	-0.026
-590.952	-64.794	-0.216	-0.087
-589.938	-200.000	-0.005	0.204
-588.923	242.886	0.110	0.184
-587.909	22.146	0.052	-0.043
-586.894	-200.000	-0.001	-0.228
-585.879	-90.152	0.306	0.089
-584.865	-114.146	-0.224	0.043
-583.850	-200.000	-0.039	-0.254
-582.836	445.434	0.153	0.336
-581.821	3.634	0.085	0.062
-580.806	-164.793	0.135	-0.006
-579.792	-87.866	0.334	-0.100
-578.777	-105.522	0.062	0.014
-577.763	-31.410	-0.363	0.204
-576.748	84.045	0.180	-0.196
-575.733	167.179	-0.092	-0.131
-574.719	-200.000	-0.005	-0.034
-573.704	33.093	-0.212	-0.184
-572.690	-84.523	-0.137	0.043
-571.675	-64.452	0.159	0.065
-570.661	-200.000	-0.021	0.397
-569.646	362.762	-0.145	-0.291
-568.631	140.511	0.065	0.086
-567.617	800.000	-0.041	0.129
-566.602	183.039	0.081	-0.119
-565.588	-120.905	0.231	-0.039
-564.573	-13.634	-0.281	0.182
-563.558	-43.962	0.239	-0.120
-562.544	-99.868	0.175	-0.044
-561.529	93.445	0.135	-0.152
-560.515	63.185	0.163	-0.163
-559.500	-200.000	0.004	0.054
-558.485	-43.060	0.304	0.154
-557.471	800.000	0.070	0.229
-556.456	-127.224	-0.248	0.036
-555.442	-87.368	0.013	0.004
-554.427	-200.000	-0.009	-0.227
-553.412	-200.000	0.167	0.000
-552.398	800.000	-0.028	-0.079
-551.383	-81.685	-0.111	-0.036
-550.369	-40.026	0.046	-0.024
-549.354	-200.000	0.057	-0.353
-548.339	24.877	-0.157	-0.130
-547.325	24.310	-0.191	-0.157
-546.310	428.708	0.018	0.039
-545.296	260.151	-0.157	0.271
-544.281	-200.000	-0.007	0.034
-543.266	-200.000	0.020	0.297
-542.252	71.054	-0.098	-0.102
-541.237	-200.000	-0.004	0.264
-540.223	-97.309	-0.337	0.088
-539.208	800.000	-0.006	0.023
-538.193	-50.149	-0.218	0.103
-537.179	85.891	0.164	-0.181
-536.164	37.035	-0.128	-0.113
-535.150	29.051	-0.242	-0.205
-534.135	207.721	0.008	0.012
-533.121	-69.156	0.262	0.100
-532.106	54.817	-0.032	-0.031
-531.091	800.000	-0.014	-0.053
-530.077	-126.643	0.131	-0.019
-529.062	-200.000	-0.038	-0.178
-528.048	-200.000	0.005	0.191
-527.033	-58.408	0.306	0.133
-526.018	-119.840	0.197	0.034
-525.004	491.754	0.086	-0.196
-523.989	136.892	0.154	0.201
-522.975	-66.074	0.311	0.124
-521.960	254.330	-0.171	-0.292
-520.945	1.520	-0.190	0.136
-519.931	154.474	0.084	-0.115
-518.916	358.929	0.066	0.131
-517.902	285.097	0.095	-0.170
-516.887	436.612	0.056	-0.122
-515.872	-144.524	0.341	0.031
-514.858	-200.000	-0.007	0.036
-513.843	-3.674	-0.041	-0.028
-512.829	178.751	0.135	-0.196
-511.814	191.996	0.095	-0.142
-510.799	800.000	0.015	-0.050
-509.785	-200.000	-0.008	0.043
-508.770	258.536	0.177	-0.305
-507.756	-127.395	0.194	-0.028
-506.741	369.262	0.208	-0.420
-505.726	-200.000	-0.010	-0.129
-504.712	-35.948	0.078	-0.042
-503.697	800.000	0.048	0.188
-502.683	242.344	-0.117	-0.196
-501.668	800.000	0.038	0.128
-500.653	-38.938	-0.131	0.069
-499.639	800.000	-0.011	-0.033
-498.624	-200.000	0.006	0.033
-497.610	530.964	-0.091	-0.214
-496.595	-80.761	-0.212	0.070
-495.581	-43.835	0.159	0.080
-494.566	211.337	0.125	0.196
-493.551	73.176	0.352	-0.367
-492.537	60.591	0.063	-0.062
-491.522	42.928	0.126	0.114
-490.508	-200.000	0.016	-0.454
-489.493	-200.000	0.010	-0.198
-488.478	-20.990	0.227	0.138
-487.464	-87.500	-0.146	-0.044
-486.449	40.348	-0.401	-0.359
-485.435	-158.001	0.101	0.006
-484.420	-84.595	-0.214	0.067
-483.405	-200.000	0.010	-0.075
-482.391	-200.000	-0.117	-0.001
-481.376	422.029	-0.107	-0.229
-480.362	57.021	0.075	0.073
-479.347	321.751	0.156	0.295
-478.332	-143.221	-0.223	-0.021
-477.318	-6.380	-0.092	0.063
-476.303	-100.601	0.506	0.124
-475.289	93.538	-0.235	-0.265
-474.274	39.081	0.132	0.118
-473.259	-147.921	-0.166	0.014
-472.245	273.692	0.191	-0.336
-471.230	-12.876	0.030	-0.019
-470.216	326.843	0.153	-0.292
-469.201	-200.000	-0.044	-0.532
-468.186	-40.319	0.208	0.108
-467.172	128.898	-0.134	-0.171
-466.157	509.353	0.057	0.131
-465.143	-200.000	0.025	-0.377
-464.128	701.962	0.045	-0.119
-463.113	27.518	0.323	-0.270
-462.099	160.681	-0.132	-0.184
-461.084	-144.799	-0.117	-0.011
-460.070	-200.000	-0.019	0.126
-459.055	-90.302	-0.115	-0.033
-458.040	-63.153	0.175	0.072
-457.026	14.233	-0.308	0.238
-456.011	-69.149	0.071	-0.027
-454.997	26.673	-0.079	-0.066
-453.982	-124.043	-0.215	0.034
-452.968	-3.377	-0.191	0.132
-451.953	800.000	0.165	-0.629
-450.938	-32.572	-0.153	0.085
-449.924	-66.429	-0.062	-0.024
-448.909	800.000	-0.039	0.139
-447.895	-147.525	0.065	-0.005
-446.880	65.899	-0.195	-0.197
-445.865	-163.471	0.271	0.013
-444.851	302.993	-0.134	0.246
-443.836	521.300	0.070	0.164
-442.822	53.271	-0.153	0.146
-441.807	-110.340	0.163	-0.034
-440.792	-200.000	-0.097	0.576
-439.778	-200.000	0.032	-0.196
-438.763	-87.868	0.333	0.100
-437.749	-200.000	-0.061	0.332
-436.734	95.137	0.097	0.109
-435.719	-200.000	-0.023	0.165
-434.705	-41.342	-0.116	-0.059
-433.690	-126.268	-0.213	-0.032
-432.676	-164.580	0.138	0.006
-431.661	800.000	0.064	0.191
-430.646	800.000	0.069	0.252
-429.632	283.448	-0.045	-0.081
-428.617	800.000	-0.042	-0.185
-427.603	-78.940	0.008	-0.003
-426.588	-84.658	0.430	0.135
-425.573	-150.724	-0.337	-0.025
-424.559	800.000	0.110	-0.467
-423.544	105.781	0.215	-0.252
-422.530	-15.162	-0.243	0.155
-421.515	23.014	-0.245	-0.200
-420.500	101.383	0.083	0.096
-419.486	-200.000	-0.011	-0.345
-418.471	142.220	0.143	0.189
-417.457	-200.000	-0.040	0.510
-416.442	405.455	0.096	0.201
-415.428	574.005	0.042	0.101
-414.413	452.854	-0.065	-0.142
-413.398	-200.000	-0.047	0.230
-412.384	-139.450	-0.036	0.004
-411.369	311.350	0.083	-0.155
-410.355	-200.000	0.040	-0.180
-409.340	-89.538	0.097	-0.028
-408.325	7.042	-0.218	0.161
-407.311	800.000	-0.030	-0.096
-406.296	-25.210	-0.184	0.108
-405.282	-200.000	0.034	0.391
-404.267	-153.882	0.201	-0.014
-403.252	35.929	0.151	0.132
-402.238	800.000	-0.070	-0.196
-401.223	-134.751	-0.320	0.039
-400.209	-36.217	-0.208	-0.111
-399.194	-200.000	0.013	0.068
-398.179	-59.286	-0.060	0.026
-397.165	464.873	0.154	0.342
-396.150	-200.000	-0.008	-0.321
-395.136	34.079	-0.247	-0.213
-394.121	-200.000	0.026	-0.301
-393.106	393.109	-0.156	0.321
-392.092	326.999	-0.218	-0.414
-391.077	-121.967	-0.207	0.034
-390.063	-76.544	0.399	-0.139
-389.048	-125.538	-0.315	0.048
-388.033	-3.879	0.161	-0.111
-387.019	10.122	-0.040	-0.031
-386.004	-131.738	0.301	0.039
-384.990	-52.365	-0.259	-0.119
-383.975	-167.538	0.296	0.012
-382.960	-90.472	-0.197	-0.057
-381.946	109.042	-0.309	-0.366
-380.931	-100.127	-0.294	0.073
-379.917	-200.000	-0.044	0.268
-378.902	289.883	0.141	-0.253
-377.888	-200.000	-0.006	-0.136
-376.873	151.043	0.051	-0.069
-375.858	-200.000	0.012	0.135
-374.844	300.062	-0.175	0.319
-373.829	-88.197	-0.156	0.046
-372.815	62.125	0.053	0.052
-371.800	77.103	-0.092	0.096
-370.785	-47.899	-0.249	-0.119
-369.771	-27.388	-0.306	0.177
-368.756	78.325	0.209	-0.221
-367.742	-42.153	0.131	0.066
-366.727	-20.136	-0.185	-0.113
-365.712	146.168	-0.030	0.040
-364.698	692.963	-0.138	-0.359
-363.683	52.496	0.080	-0.076
-362.669	800.000	0.071	-0.308
-361.654	14.905	-0.176	-0.137
-360.639	322.555	0.226	0.427
-359.625	-200.000	-0.010	-0.237
-358.610	290.331	-0.080	0.144
-357.596	300.931	-0.093	0.170
-356.581	377.643	-0.222	-0.450
-355.566	305.683	0.098	-0.180
-354.552	-200.000	0.003	-0.196
-353.537	165.447	0.109	0.152
-352.523	191.920	-0.202	0.302
-351.508	70.679	0.107	0.109
-350.493	-52.385	-0.201	-0.092
-349.479	76.560	-0.168	0.177
-348.464	-102.629	0.331	0.078
-347.450	-178.710	0.085	0.002
-346.435	524.037	0.052	-0.121
-345.420	-176.774	0.195	0.005
-344.406	-22.672	-0.175	0.105
-343.391	29.086	0.156	0.131
-342.377	-72.645	-0.268	-0.098
-341.362	-124.625	0.135	-0.021
-340.348	-58.823	0.311	-0.133
-339.333	285.138	-0.184	0.328
-338.318	-16.199	0.163	-0.103
-337.304	-56.551	0.132	0.058
-336.289	-200.000	-0.006	-0.096
-335.275	63.916	-0.094	0.093
-334.260	20.013	-0.171	-0.137
-333.245	-55.415	0.171	0.076
-332.231	800.000	0.020	0.057
-331.216	293.268	0.089	0.162
-330.202	46.224	0.268	-0.246
-329.187	-101.959	-0.114	0.027
-328.172	56.880	0.289	-0.278
-327.158	10.844	-0.164	0.124
-326.143	-200.000	-0.005	0.023
-325.129	167.236	-0.064	-0.089
-324.114	-41.111	0.118	0.060
-323.099	-200.000	0.017	-0.137
-322.085	23.080	-0.146	-0.119
-321.070	178.178	0.111	0.160
-320.056	-31.569	0.287	0.160
-319.041	-99.465	-0.087	-0.022
-318.026	450.003	0.188	-0.410
-317.012	-170.482	-0.138	0.005
-315.997	698.005	0.078	0.204
-314.983	-57.831	0.202	0.088
-313.968	34.017	-0.241	0.207
-312.953	800.000	-0.025	-0.096
-311.939	-85.062	0.070	0.022
-310.924	-1.621	-0.253	0.176
-309.910	-163.426	-0.188	-0.009
-308.895	-200.000	0.004	-0.140
-307.880	62.998	0.242	0.239
-306.866	-200.000	-0.005	-0.077
-305.851	393.872	-0.049	0.102
-304.837	-126.315	0.247	0.036
-303.822	78.238	-0.083	-0.087
-302.807	-108.513	0.287	-0.061
-301.793	-62.930	-0.124	0.051
-300.778	-29.607	-0.240	0.135
-299.764	301.948	-0.099	0.182
-298.749	800.000	-0.118	0.345
-297.735	800.000	0.055	0.206
-296.720	-150.477	0.033	0.003
-295.705	22.119	0.269	0.217
-294.691	800.000	-0.037	-0.141
-293.676	296.957	0.102	0.185
-292.662	27.219	-0.261	-0.217
-291.647	800.000	-0.008	0.027
-290.632	-144.182	-0.263	0.024
-289.618	800.000	-0.012	-0.038
-288.603	-14.955	-0.164	-0.104
-287.589	-200.000	0.015	0.230
-286.574	15.681	0.347	0.269
-285.559	158.920	0.228	0.313
-284.545	467.836	0.045	0.101
-283.530	-200.000	-0.002	0.098
-282.516	-200.000	-0.010	0.275
-281.501	-51.202	-0.304	-0.141
-280.486	800.000	-0.041	0.177
-279.472	-200.000	-0.045	-0.301
-278.457	172.848	0.096	0.136
-277.443	-200.000	-0.052	0.673
-276.428	-200.000	0.043	-0.277
-275.413	-78.479	0.328	0.111
-274.399	-112.608	-0.308	0.061
-273.384	800.000	0.053	-0.156
-272.370	-0.945	-0.272	0.190
-271.355	355.925	-0.093	0.183
-270.340	-200.000	-0.062	0.393
-269.326	-103.930	-0.465	0.107
-268.311	-200.000	0.034	0.264
-267.297	69.944	0.123	-0.125
-266.282	800.000	-0.055	-0.217
-265.267	28.832	0.316	0.264
-264.253	15.669	0.032	0.025
-263.238	-200.000	0.020	-0.119
-262.224	-200.000	0.078	-0.409
-261.209	-113.654	0.133	0.026
-260.195	800.000	0.018	-0.055
-259.180	85.781	-0.117	0.127
-258.165	46.526	0.071	-0.065
-257.151	-55.422	-0.127	-0.056
-256.136	5.719	-0.468	-0.341
-255.122	81.154	0.084	0.089
-254.107	-200.000	0.011	0.238
-253.092	-122.338	-0.153	0.025
-252.078	-115.191	0.074	0.014
-251.063	800.000	0.087	-0.273
-250.049	173.819	-0.102	-0.145
-249.034	394.093	-0.088	0.181
-248.019	-3.572	-0.084	0.058
-247.005	-54.358	0.070	-0.032
-245.990	304.598	-0.114	0.209
-244.976	319.622	-0.125	0.234
-243.961	223.702	0.046	-0.073
-242.946	-200.000	0.042	0.397
-241.932	-200.000	-0.006	0.252
-240.917	28.077	-0.116	0.097
-239.903	30.791	0.144	0.122
-238.888	-144.858	0.065	0.006
-237.873	-53.930	-0.065	-0.029
-236.859	55.261	-0.207	0.197
-235.844	-200.000	-0.030	0.196
-234.830	-46.168	0.356	-0.173
-233.815	95.122	-0.084	0.095
-232.800	40.513	0.257	0.228
-231.786	163.697	-0.104	0.144
-230.771	137.685	0.057	-0.074
-229.757	-123.588	0.367	-0.057
-228.742	7.760	0.274	0.203
-227.727	26.951	0.173	-0.143
-226.713	-200.000	0.002	-0.009
-225.698	-200.000	0.012	-0.228
-224.684	604.040	-0.097	0.238
-223.669	82.555	0.055	-0.059
-222.655	-25.364	-0.152	-0.088
-221.640	143.386	-0.055	-0.072
-220.625	-200.000	0.007	-0.343
-219.611	29.453	0.222	0.186
-218.596	255.063	0.126	-0.212
-217.582	-200.000	0.035	0.227
-216.567	-200.000	-0.010	-0.206
-215.552	-200.000	0.005	-0.049
-214.538	-61.651	-0.162	-0.067
-213.523	-133.590	-0.061	-0.008
-212.509	48.666	0.166	-0.154
-211.494	-109.300	0.139	-0.029
-210.479	289.225	-0.023	-0.041
-209.465	44.344	-0.219	-0.198
-208.450	8.584	-0.163	-0.121
-207.436	-200.000	0.009	-0.100
-206.421	-107.898	-0.304	-0.065
-205.406	-200.000	-0.007	0.133
-204.392	36.781	-0.342	0.297
-203.377	97.119	0.147	-0.166
-202.363	-10.207	0.133	0.087
-201.348	39.918	0.255	0.226
-200.333	-200.000	0.005	-0.056
-199.319	-200.000	0.043	-0.267
-198.304	227.598	0.108	-0.172
-197.290	-158.845	0.317	0.018
-196.275	46.453	-0.110	-0.100
-195.260	128.651	0.131	-0.164
-194.246	-101.113	-0.203	0.049
-193.231	111.531	-0.114	-0.135
-192.217	-90.993	0.166	0.047
-191.202	-117.528	0.026	-0.005
-190.187	276.703	-0.043	-0.074
-189.173	-200.000	0.027	0.191
-188.158	87.519	-0.125	0.136
-187.144	800.000	-0.021	-0.084
-186.129	-40.018	0.218	-0.112
-185.114	-200.000	-0.002	-0.253
-184.100	-69.320	0.249	0.094
-183.085	79.855	0.067	0.071
-182.071	1.551	-0.107	0.076
-181.056	-175.465	0.204	-0.005
-180.042	-200.000	0.031	0.173
-179.027	-177.986	-0.083	0.002
-178.012	-92.184	0.021	-0.006
-176.998	-200.000	-0.036	0.390
-175.983	4.260	-0.157	0.113
-174.969	-39.476	-0.214	0.110
-173.954	135.673	-0.146	-0.187
-172.939	70.861	0.080	0.081
-171.925	-32.695	0.267	0.146
-170.910	798.231	-0.073	0.199
-169.896	284.571	-0.196	-0.348
-168.881	-24.963	0.230	0.134
-167.866	-200.000	0.044	0.534
-166.852	-169.869	0.281	-0.010
-165.837	-71.879	-0.267	0.098
-164.823	64.563	0.276	0.274
-163.808	-53.663	0.081	0.037
-162.793	-25.413	0.233	-0.136
-161.779	-169.676	0.293	0.010
-160.764	-102.954	0.207	0.048
-159.750	-200.000	-0.011	-0.166
-158.735	105.480	0.088	0.102
-157.720	380.119	0.208	0.419
-156.706	-152.597	-0.306	0.022
-155.691	-100.656	-0.035	-0.009
-154.677	127.513	-0.164	0.204
-153.662	-200.000	0.045	0.459
-152.647	-200.000	-0.008	-0.214
-151.633	35.930	0.166	-0.144
-150.618	66.635	0.017	-0.017
-149.604	-48.442	-0.219	0.104
-148.589	19.329	0.167	0.132
-147.574	800.000	-0.026	0.102
-146.560	800.000	-0.073	-0.310
-145.545	219.881	-0.106	-0.168
-144.531	-50.419	-0.317	-0.147
-143.516	-113.967	0.240	0.046
-142.502	-200.000	0.299	0.000
-141.487	-159.353	-0.449	0.025
-140.472	-200.000	-0.015	0.295
-139.458	-164.719	-0.116	-0.005
-138.443	78.361	-0.156	-0.164
-137.429	84.964	0.286	-0.308
-136.414	16.559	-0.158	0.123
-135.399	-200.000	0.002	0.231
-134.385	31.516	0.037	0.031
-133.370	294.601	-0.134	0.240
-132.356	-32.046	-0.230	0.127
-131.341	315.438	-0.074	-0.137
-130.326	800.000	0.025	-0.082
-129.312	114.461	0.079	-0.094
-128.297	-200.000	-0.010	-0.214
-127.283	318.554	0.068	-0.126
-126.268	-128.836	0.102	0.014
-125.253	-72.790	-0.074	0.027
-124.239	-33.800	0.303	0.164
-123.224	-200.000	0.019	-0.135
-122.210	81.858	0.155	0.165
-121.195	-164.626	-0.355	0.016
-120.180	588.224	0.096	-0.232
-119.166	225.493	0.122	-0.194
-118.151	-102.199	0.084	0.020
-117.137	-187.765	0.199	0.003
-116.122	-118.236	-0.624	-0.109
-115.107	-200.000	-0.014	-0.104
-114.093	-200.000	-0.025	-0.118
-113.078	-70.868	0.251	0.093
-112.064	-191.182	-0.192	0.002
-111.049	-200.000	-0.095	0.458
-110.034	800.000	-0.004	0.014
-109.020	800.000	0.104	0.312
-108.005	-80.881	-0.316	0.103
-106.991	142.976	-0.199	0.260
-105.976	-39.839	0.090	0.046
-104.962	164.214	0.134	-0.185
-103.947	235.037	0.090	-0.145
-102.932	526.013	0.075	-0.172
-101.918	43.566	-0.036	0.032
-100.903	92.420	-0.052	0.058
-99.889	333.375	-0.116	0.221
-98.874	58.676	0.294	-0.284
-97.859	48.983	0.043	0.040
-96.845	-69.258	0.244	0.092
-95.830	-97.613	-0.128	0.032
-94.816	3.441	0.202	0.144
-93.801	47.930	0.037	-0.034
-92.786	64.687	-0.130	0.128
-91.772	-164.074	0.137	-0.006
-90.757	603.220	0.066	0.162
-89.743	269.761	-0.148	0.254
-88.728	-200.000	-0.018	0.101
-87.713	283.098	-0.101	0.178
-86.699	5.627	0.323	-0.234
-85.684	-110.295	0.287	0.059
-84.670	-117.861	0.278	-0.049
-83.655	695.157	0.075	0.194
-82.640	185.878	0.255	-0.372
-81.626	800.000	0.066	-0.179
-80.611	-177.016	-0.131	-0.003
-79.597	800.000	0.080	0.296
-78.582	98.795	-0.131	0.148
-77.567	-96.864	-0.229	0.059
-76.553	334.855	-0.119	0.226
-75.538	-101.036	-0.342	-0.082
-74.524	-61.667	-0.253	0.104
-73.509	-123.922	-0.387	0.060
-72.494	800.000	-0.093	-0.296
-71.480	628.567	-0.066	0.164
-70.465	32.321	0.064	0.054
-69.451	-49.709	0.128	0.060
-68.436	36.774	0.129	0.112
-67.422	-67.942	-0.165	0.063
-66.407	-53.695	0.293	-0.131
-65.392	-146.224	0.277	-0.024
-64.378	800.000	0.068	0.206
-63.363	-200.000	0.001	0.072
-62.349	78.693	-0.145	0.152
-61.334	149.432	-0.915	-1.213
-60.319	61.160	0.397	0.386
-59.305	-200.000	-0.061	-0.745
-58.290	800.000	0.513	1.502
-57.276	800.000	0.429	1.814
-56.261	-200.000	107.090	625.926
-55.246	524.264	1513.520	3485.586
-54.232	174.866	2713.299	3845.937
-53.217	105.195	2296.109	2653.996
-52.203	38.471	1900.316	1658.652
-51.188	32.430	1686.869	1426.661
-50.173	29.728	1643.821	1370.207
-49.159	48.513	1698.432	1557.810
-48.144	48.774	1713.174	1573.241
-47.130	31.894	1670.414	1408.496
-46.115	29.253	1655.462	1376.144
-45.100	29.052	1650.747	1370.673
-44.086	29.093	1648.022	1368.664
-43.071	29.065	1645.483	1366.291
-42.057	28.940	1643.477	1363.646
-41.042	29.020	1640.882	1362.030
-40.027	29.030	1639.085	1360.556
-39.013	29.031	1636.749	1358.574
-37.998	28.970	1636.158	1357.578
-36.984	28.991	1634.762	1356.521
-35.969	29.170	1632.641	1356.027
-34.954	29.160	1631.309	1354.790
-33.940	29.096	1629.075	1352.408
-32.925	29.067	1627.859	1351.137
-31.911	29.159	1625.784	1350.035
-30.896	29.145	1624.181	1348.549
-29.881	28.972	1623.209	1346.419
-28.867	29.095	1620.884	1345.337
-27.852	29.069	1619.456	1343.907
-26.838	29.109	1617.878	1342.834
-25.823	29.088	1616.847	1341.779
-24.809	29.080	1615.889	1340.867
-23.794	29.137	1613.888	1339.568
-22.779	29.141	1612.430	1338.336
-21.765	29.232	1610.346	1337.210
-20.750	29.128	1609.098	1335.369
-19.736	29.176	1607.768	1334.562
-18.721	29.126	1606.428	1333.031
-17.706	29.174	1604.728	1331.914
-16.692	29.084	1603.758	1330.406
-15.677	29.176	1602.012	1329.572
-14.663	29.134	1600.909	1328.299
-13.648	29.260	1599.490	1327.979
-12.633	29.239	1597.777	1326.353
-11.619	29.152	1596.382	1324.516
-10.604	29.162	1594.959	1323.353
-9.590	29.185	1593.754	1322.464
-8.575	29.238	1592.321	1321.606
-7.560	29.205	1591.394	1320.546
-6.546	29.178	1590.074	1319.203
-5.531	29.176	1588.853	1318.123
-4.517	29.105	1587.879	1316.761
-3.502	29.134	1586.866	1316.072
-2.487	29.314	1585.029	1315.782
-1.473	28.859	1573.219	1302.704
-0.458	26.229	1554.000	1268.298
0.556	20.519	1556.148	1238.954
1.571	18.542	1580.788	1244.128
2.586	18.270	1595.124	1253.310
3.600	16.648	1542.455	1200.326
4.615	8.813	1432.999	1063.238
5.629	1.344	1368.718	967.970
6.644	-0.275	1361.089	952.222
7.659	-0.223	1359.411	951.292
8.673	-0.246	1358.622	950.512
9.688	-0.445	1356.973	948.017
10.702	-0.640	1353.811	944.491
11.717	2.449	1359.787	968.135
12.731	11.617	1377.107	1038.894
13.746	19.276	1389.910	1097.417
14.761	21.128	1392.862	1111.455
15.775	21.522	1392.328	1113.439
16.790	21.564	1392.135	1113.454
17.804	21.594	1391.709	1113.205
18.819	21.805	1391.323	1114.140
19.834	21.965	1390.560	1114.447
20.848	21.971	1389.776	1113.754
21.863	21.848	1389.285	1112.486
22.877	21.945	1387.980	1111.954
23.892	22.047	1386.887	1111.626
24.907	21.939	1386.188	1110.286
25.921	21.971	1385.262	1109.645
26.936	21.888	1384.756	1108.622
27.950	22.037	1383.198	1108.214
28.965	21.955	1382.302	1106.879
29.980	21.905	1380.983	1105.410
30.994	21.890	1379.549	1104.074
32.009	21.990	1378.576	1103.823
33.023	21.843	1377.771	1102.159
34.038	21.949	1376.534	1101.738
35.053	21.861	1376.101	1100.739
36.067	21.820	1374.924	1099.444
37.082	21.981	1373.019	1098.835
38.096	21.874	1372.984	1098.039
39.111	21.955	1371.771	1097.478
40.126	21.978	1371.244	1097.104
41.140	21.905	1370.583	1096.023
42.155	21.949	1370.304	1095.977
43.169	21.981	1370.268	1096.048
44.184	21.999	1369.543	1095.484
45.199	21.850	1369.646	1094.542
46.213	21.959	1368.849	1094.484
47.228	21.959	1367.745	1093.503
48.242	21.966	1366.590	1092.532
49.257	21.938	1364.977	1090.972
50.271	22.007	1363.443	1090.076
51.286	21.981	1362.545	1089.099
52.301	21.984	1360.936	1087.737
53.315	21.898	1360.494	1086.755
54.330	21.925	1359.815	1086.282
55.344	21.937	1358.889	1085.521
56.359	21.955	1357.426	1084.369
57.374	22.013	1356.748	1084.088
58.388	21.908	1356.255	1082.947
59.403	21.984	1355.858	1083.003
60.417	21.951	1354.851	1081.902
61.432	22.016	1354.066	1081.579
62.447	21.924	1353.172	1080.204
63.461	21.979	1351.993	1079.508
64.476	21.950	1351.005	1078.444
65.490	21.994	1350.019	1077.830
66.505	21.966	1348.609	1076.439
67.520	22.016	1347.022	1075.380
68.534	21.918	1346.337	1074.141
69.549	21.943	1345.136	1073.241
70.563	22.110	1343.417	1072.795
71.578	22.010	1343.299	1071.996
72.593	21.951	1342.208	1070.667
73.607	21.945	1341.396	1069.886
74.622	21.959	1340.838	1069.432
75.636	21.957	1340.393	1068.972
76.651	21.905	1339.502	1067.853
77.666	22.001	1339.181	1068.083
78.680	21.998	1338.454	1067.393
79.695	21.921	1337.575	1066.128
80.709	22.024	1336.995	1066.199
81.724	21.941	1336.203	1064.967
82.739	21.853	1335.137	1063.489
83.753	21.906	1334.248	1063.011
84.768	21.922	1332.679	1061.762
85.782	21.914	1331.502	1060.683
86.797	22.055	1330.447	1060.598
87.812	21.996	1329.423	1059.333
88.826	22.116	1328.190	1058.980
89.841	22.158	1326.884	1058.097
90.855	22.106	1325.903	1056.908
91.870	22.070	1325.237	1056.071
92.884	22.044	1324.508	1055.240
93.899	22.124	1323.490	1054.814
94.914	21.967	1323.189	1053.539
95.928	22.032	1322.158	1053.016
96.943	22.062	1321.903	1052.898
97.957	22.110	1320.670	1052.113
98.972	22.047	1320.053	1051.150
99.987	21.942	1319.219	1049.760
101.001	21.915	1318.008	1048.544
102.016	21.936	1317.335	1048.045
103.030	22.094	1315.659	1047.557
104.045	22.094	1315.054	1046.982
105.060	22.023	1314.614	1046.118
106.074	22.059	1313.461	1045.323
107.089	22.073	1312.273	1044.368
108.103	22.041	1311.636	1043.580
109.118	22.120	1310.011	1042.663
110.133	22.039	1309.152	1041.406
111.147	22.096	1307.739	1040.528
112.162	22.071	1306.721	1039.477
113.176	22.171	1305.615	1039.095
114.191	22.093	1304.758	1037.864
115.206	22.144	1303.515	1037.084
116.220	22.170	1302.358	1036.222
117.235	22.183	1301.339	1035.395
118.249	22.091	1300.687	1034.245
119.264	22.066	1299.924	1033.400
120.279	22.048	1298.969	1032.442
121.293	22.096	1298.082	1031.930
122.308	22.122	1297.512	1031.535
123.322	22.131	1296.247	1030.493
124.337	22.064	1295.526	1029.437
125.352	22.186	1294.210	1029.014
126.366	22.118	1293.504	1027.965
127.381	22.282	1292.438	1027.982
128.395	22.114	1291.637	1026.277
129.410	22.179	1290.649	1025.779
130.424	22.134	1290.127	1025.012
131.439	22.192	1289.080	1024.425
132.454	22.194	1287.996	1023.485
133.468	22.106	1287.310	1022.335
134.483	22.143	1286.766	1022.028
135.497	22.137	1285.794	1021.133
136.512	22.136	1285.038	1020.434
137.527	22.112	1283.624	1019.083
138.541	22.173	1282.060	1018.107
139.556	22.034	1281.048	1016.407
140.570	22.077	1280.661	1016.259
141.585	22.181	1279.145	1015.565
142.600	22.092	1278.203	1014.216
143.614	22.139	1277.115	1013.533
144.629	22.164	1276.190	1012.851
145.643	22.099	1274.922	1011.382
146.658	21.983	1274.400	1010.212
147.673	22.085	1273.094	1009.675
148.687	22.060	1271.853	1008.459
149.702	22.021	1270.874	1007.368
150.716	22.129	1269.443	1006.763
151.731	22.138	1268.859	1006.264
152.746	22.072	1267.961	1005.083
153.760	22.112	1267.154	1004.584
154.775	22.210	1265.607	1003.831
155.789	22.160	1265.095	1003.047
156.804	22.202	1263.899	1002.253
157.819	22.202	1263.163	1001.579
158.833	22.154	1262.436	1000.639
159.848	22.238	1261.876	1000.587
160.862	22.236	1261.009	999.797
161.877	22.222	1259.829	998.692
162.892	22.165	1259.302	997.863
163.906	22.235	1258.602	997.621
164.921	22.261	1257.878	997.103
165.935	22.246	1257.015	996.245
166.950	22.172	1256.745	995.527
167.964	22.321	1255.820	995.550
168.979	22.317	1254.922	994.725
169.994	22.252	1254.650	994.054
171.008	22.379	1253.504	993.774
172.023	22.397	1252.897	993.308
173.037	22.371	1252.256	992.564
174.052	22.234	1251.830	991.368
175.067	22.288	1250.923	990.865
176.081	22.343	1249.854	990.240
177.096	22.283	1249.212	989.307
178.110	22.389	1248.077	988.917
179.125	22.313	1247.282	987.771
180.140	22.430	1246.216	987.494
181.154	22.337	1244.647	985.645
182.169	22.280	1244.174	984.866
183.183	22.371	1242.988	984.348
184.198	22.310	1242.207	983.303
185.213	22.277	1241.068	982.129
186.227	22.325	1240.557	981.905
187.242	22.435	1238.933	981.145
188.256	22.379	1238.341	980.278
189.271	22.516	1237.247	980.088
190.286	22.424	1236.432	978.844
191.300	22.431	1236.388	978.762
192.315	22.345	1235.997	977.889
193.329	22.351	1235.581	977.502
194.344	22.550	1234.546	977.703
195.359	22.281	1234.494	976.083
196.373	22.379	1233.840	976.021
197.388	22.306	1233.144	974.979
198.402	22.328	1233.270	975.115
199.417	22.292	1232.661	974.351
200.432	22.426	1232.211	974.648
201.446	22.287	1231.326	973.094
202.461	22.306	1230.717	972.630
203.475	22.431	1229.579	972.337
204.490	22.330	1228.358	970.730
205.504	22.394	1227.595	970.393
206.519	22.461	1226.484	969.796
207.534	22.438	1225.799	969.043
208.548	22.310	1225.057	967.669
209.563	22.374	1224.307	967.342
210.577	22.409	1223.329	966.675
211.592	22.388	1222.381	965.725
212.607	22.593	1221.231	965.853
213.621	22.511	1221.112	965.223
214.636	22.520	1220.468	964.681
215.650	22.552	1219.300	963.846
216.665	22.484	1218.658	962.883
217.680	22.518	1217.635	962.174
218.694	22.469	1216.717	961.095
219.709	22.572	1215.999	961.008
220.723	22.527	1215.488	960.273
221.738	22.501	1214.812	959.514
222.753	22.478	1214.159	958.786
223.767	22.452	1213.479	958.021
224.782	22.663	1212.998	958.706
225.796	22.569	1212.474	957.694
226.811	22.519	1212.081	957.029
227.826	22.584	1211.416	956.769
228.840	22.597	1210.576	956.094
229.855	22.598	1210.003	955.560
230.869	22.598	1209.284	954.911
231.884	22.627	1208.438	954.313
232.899	22.515	1208.384	953.581
233.913	22.562	1207.707	953.214
234.928	22.617	1206.792	952.709
235.942	22.645	1206.363	952.437
236.957	22.587	1205.675	951.494
237.972	22.608	1204.726	950.777
238.986	22.622	1204.060	950.238
240.001	22.711	1203.903	950.512
241.015	22.736	1202.662	949.582
242.030	22.762	1202.123	949.211
243.045	22.646	1201.269	947.831
244.059	22.710	1200.736	947.669
245.074	22.733	1199.706	946.895
246.088	22.780	1198.933	946.454
247.103	22.735	1198.215	945.565
248.117	22.896	1197.186	945.528
249.132	22.750	1196.683	944.270
250.147	22.826	1195.941	944.007
251.161	22.846	1194.973	943.265
252.176	22.775	1194.463	942.401
253.190	23.004	1193.735	942.965
254.205	22.817	1193.436	941.645
255.220	22.848	1192.573	941.046
256.234	22.849	1192.259	940.722
257.249	22.801	1191.645	939.899
258.263	22.881	1190.923	939.671
259.278	22.816	1190.516	938.923
260.293	22.892	1190.061	938.885
261.307	22.921	1188.947	938.073
262.322	22.852	1188.794	937.503
263.336	22.935	1188.054	937.281
264.351	22.915	1187.047	936.296
265.366	22.785	1186.884	935.396
266.380	22.891	1185.902	935.099
267.395	22.930	1185.252	934.712
268.409	22.860	1184.686	933.810
269.424	22.779	1184.710	933.321
270.439	22.921	1183.809	933.275
271.453	22.933	1183.167	932.754
272.468	22.807	1182.374	931.380
273.482	22.993	1181.175	931.331
274.497	22.893	1181.343	930.854
275.512	22.942	1181.054	930.803
276.526	22.965	1180.256	930.215
277.541	22.917	1179.491	929.278
278.555	23.104	1178.622	929.492
279.570	23.121	1177.564	928.665
280.585	23.013	1176.978	927.555
281.599	23.033	1176.060	926.854
282.614	23.024	1175.396	926.198
283.628	23.003	1174.132	925.012
284.643	23.036	1173.687	924.754
285.657	23.158	1172.583	924.437
286.672	23.083	1171.781	923.331
287.687	23.045	1171.605	922.917
288.701	23.133	1170.450	922.383
289.716	23.151	1169.726	921.820
290.730	23.207	1168.974	921.442
291.745	23.169	1168.513	920.795
292.760	23.210	1167.921	920.466
293.774	23.194	1167.501	919.968
294.789	23.166	1167.104	919.427
295.803	23.241	1166.068	918.919
296.818	23.140	1165.667	917.998
297.833	23.178	1164.617	917.290
298.847	23.245	1164.487	917.452
299.862	23.245	1163.756	916.796
300.876	23.202	1162.842	915.770
301.891	23.242	1162.477	915.610
302.906	23.298	1161.648	915.161
303.920	23.205	1161.522	914.502
304.935	23.265	1160.694	914.082
305.949	23.342	1159.404	913.378
306.964	23.349	1159.270	913.232
307.979	23.379	1158.542	912.732
308.993	23.361	1157.814	911.985
310.008	23.366	1156.900	911.210
311.022	23.340	1156.383	910.589
312.037	23.373	1155.364	909.871
313.052	23.316	1154.611	908.905
314.066	23.308	1153.815	908.158
315.081	23.300	1153.246	907.590
316.095	23.336	1152.313	906.959
317.110	23.395	1151.987	906.927
318.125	23.414	1151.397	906.475
319.139	23.345	1150.729	905.519
320.154	23.467	1149.803	905.330
321.168	23.344	1149.406	904.312
322.183	23.340	1148.767	903.706
323.197	23.398	1148.270	903.532
324.212	23.455	1147.818	903.387
325.227	23.351	1147.695	902.683
326.241	23.481	1146.919	902.653
327.256	23.433	1146.184	901.750
328.270	23.487	1144.915	900.949
329.285	23.513	1144.220	900.452
330.300	23.513	1143.321	899.666
331.314	23.565	1142.779	899.422
332.329	23.569	1141.868	898.646
333.343	23.582	1141.005	897.953
334.358	23.546	1140.534	897.321
335.373	23.472	1140.101	896.528
336.387	23.655	1139.079	896.567
337.402	23.667	1138.257	895.903
338.416	23.662	1137.467	895.176
339.431	23.620	1137.130	894.619
340.446	23.724	1136.603	894.649
341.460	23.745	1135.678	893.948
342.475	23.731	1135.205	893.429
343.489	23.565	1134.284	891.789
344.504	23.681	1133.232	891.464
345.519	23.635	1132.808	890.821
346.533	23.706	1131.801	890.308
347.548	23.674	1130.809	889.287
348.562	23.747	1130.360	889.221
349.577	23.762	1129.607	888.625
350.592	23.678	1129.099	887.727
351.606	23.674	1128.329	887.023
352.621	23.840	1127.735	887.304
353.635	23.633	1127.274	885.830
354.650	23.705	1126.607	885.591
355.665	23.753	1125.776	885.097
356.679	23.772	1125.390	884.808
357.694	23.841	1124.650	884.494
358.708	23.841	1124.058	883.947
359.723	23.705	1123.875	883.049
360.738	23.850	1122.561	882.662
361.752	23.854	1121.822	882.020
362.767	23.962	1121.601	882.305
363.781	23.867	1121.370	881.573
364.796	23.827	1120.425	880.553
365.810	23.965	1119.559	880.478
366.825	23.924	1119.404	880.076
367.840	23.998	1118.469	879.628
368.854	24.138	1117.942	879.826
369.869	23.991	1117.347	878.557
370.883	24.016	1116.702	878.096
371.898	24.072	1115.997	877.737
372.913	23.986	1115.820	877.099
373.927	24.016	1114.856	876.411
374.942	24.105	1114.552	876.531
375.956	24.015	1114.107	875.663
376.971	24.115	1112.921	875.144
377.986	24.010	1112.747	874.415
379.000	24.107	1112.393	874.536
380.015	24.088	1111.649	873.777
381.029	24.140	1111.177	873.588
382.044	23.971	1110.432	872.097
383.059	24.144	1109.365	872.027
384.073	24.165	1109.102	871.846
385.088	24.248	1107.999	871.304
386.102	24.296	1107.001	870.677
387.117	24.123	1106.593	869.437
388.132	24.074	1105.681	868.407
389.146	24.191	1105.008	868.369
390.161	24.145	1104.664	867.797
391.175	24.159	1104.001	867.271
392.190	24.154	1102.967	866.353
393.205	24.087	1102.697	865.740
394.219	24.244	1101.701	865.643
395.234	24.259	1100.768	864.908
396.248	24.202	1099.997	863.949
397.263	24.418	1098.940	864.089
398.278	24.310	1098.558	863.188
399.292	24.289	1097.957	862.539
400.307	24.364	1097.316	862.321
401.321	24.356	1096.674	861.702
402.336	24.277	1096.325	860.968
403.350	24.388	1095.387	860.692
404.365	24.315	1094.915	859.895
405.380	24.521	1093.845	859.970
406.394	24.385	1093.259	858.779
407.409	24.432	1092.272	858.154
408.423	24.374	1091.939	857.537
409.438	24.518	1090.927	857.359
410.453	24.485	1090.362	856.678
411.467	24.523	1089.486	856.098
412.482	24.506	1088.821	855.417
413.496	24.494	1088.588	855.102
414.511	24.528	1087.802	854.569
415.526	24.549	1087.520	854.374
416.540	24.428	1087.242	853.502
417.555	24.625	1086.172	853.524
418.569	24.407	1086.236	852.461
419.584	24.589	1085.539	852.707
420.599	24.633	1085.033	852.446
421.613	148.907	1402.251	1799.293
422.628	137.631	1448.433	1799.368
