DTS Sentinel unit serial number:	SN413079Multiplexer serial number:	ORYXHardware model number:	OX4-SRSoftware version number:	ORYX F/W v4.00 Oryx Data Collector v3.7.2.0data status	okinstallation	princeton_trtdifferential loss correction	single-endedforward channel	channel 2reverse channel	N/Adate	2019/09/14time	05:07:35forward acquisition time	60.00reverse acquisition time	0.00gamma	496.2192k internal	0.2335k external	0.2335temperature offset calibration	1.0132default loss term (dB/km)	0.3790temperature slope calibration	1.0000multiplexer offset coefficient	1.0000multiplexer slope coefficient	1.0000fibre end	0.00T internal ref (°C)	26.87T ext. ref 1 (°C)	3.37T ext. ref 2 (°C)	21.99length (m)	temperature (°C)	Stokes	anti-Stokes-747.200	-56.754	-0.348	0.155
-746.185	-200.000	0.035	0.322
-745.171	29.103	0.056	-0.048
-744.156	-0.984	-0.098	0.070
-743.142	-200.000	0.042	0.291
-742.127	-190.261	-0.062	0.001
-741.112	-59.417	-0.111	-0.048
-740.098	-2.971	-0.458	0.321
-739.083	800.000	0.048	0.153
-738.069	52.747	0.079	0.076
-737.054	-200.000	0.062	0.274
-736.039	49.246	-0.268	0.253
-735.025	-124.755	0.194	0.030
-734.010	-84.620	-0.139	0.044
-732.996	88.336	0.061	0.068
-731.981	-7.543	-0.190	-0.129
-730.966	-24.859	-0.088	-0.052
-729.952	-4.894	-0.207	0.143
-728.937	236.081	-0.136	-0.226
-727.923	50.104	-0.133	-0.126
-726.908	-94.634	0.168	-0.046
-725.894	-47.084	0.181	0.089
-724.879	800.000	-0.112	0.331
-723.864	-200.000	-0.031	0.146
-722.850	-200.000	-0.036	0.211
-721.835	-154.331	-0.434	0.029
-720.821	29.024	-0.059	-0.050
-719.806	-57.085	-0.052	-0.023
-718.791	800.000	0.028	-0.078
-717.777	275.042	-0.126	0.224
-716.762	-200.000	0.056	-0.362
-715.748	-67.107	-0.377	-0.149
-714.733	-30.514	-0.190	0.108
-713.718	800.000	0.055	0.237
-712.704	-102.784	-0.308	0.074
-711.689	146.034	0.162	0.218
-710.675	800.000	0.090	0.262
-709.660	-162.545	-0.046	-0.002
-708.645	800.000	-0.099	-0.432
-707.631	-119.244	-0.092	0.016
-706.616	-169.374	0.244	-0.009
-705.602	-114.627	-0.249	0.048
-704.587	219.648	-0.070	0.112
-703.572	247.049	0.099	0.168
-702.558	462.742	-0.037	-0.084
-701.543	-60.874	-0.055	0.023
-700.529	-99.117	-0.180	-0.046
-699.514	-200.000	-0.002	0.098
-698.499	-135.784	0.014	0.002
-697.485	-200.000	-0.002	0.011
-696.470	-84.941	0.078	0.025
-695.456	-28.628	-0.228	-0.131
-694.441	-200.000	-0.008	-0.236
-693.426	115.942	0.013	0.016
-692.412	-200.000	0.007	-0.212
-691.397	800.000	-0.052	0.144
-690.383	-96.179	-0.152	-0.040
-689.368	-129.348	0.464	-0.065
-688.354	-200.000	-0.007	0.188
-687.339	800.000	-0.036	0.102
-686.324	88.726	0.126	-0.141
-685.310	-7.031	-0.216	-0.147
-684.295	-63.680	-0.370	0.152
-683.281	800.000	0.082	-0.279
-682.266	-144.987	-0.136	0.012
-681.251	129.140	-0.128	0.164
-680.237	472.396	-0.127	-0.286
-679.222	93.053	0.225	0.254
-678.208	38.157	0.109	0.097
-677.193	65.886	-0.122	-0.124
-676.178	-69.895	0.104	-0.040
-675.164	-200.000	0.096	-0.588
-674.149	33.809	0.092	0.080
-673.135	-200.000	0.028	0.242
-672.120	-58.265	-0.356	-0.155
-671.105	-42.091	0.079	0.040
-670.091	-21.838	-0.171	0.104
-669.076	-106.565	-0.042	0.009
-668.062	213.830	0.093	-0.148
-667.047	-5.824	-0.242	-0.166
-666.032	-20.620	0.052	0.032
-665.018	-53.908	-0.131	0.060
-664.003	45.729	0.177	0.164
-662.989	-200.000	0.003	0.169
-661.974	48.805	-0.230	-0.216
-660.959	800.000	0.006	0.027
-659.945	207.413	-0.096	-0.150
-658.930	193.388	0.091	-0.138
-657.916	-200.000	-0.027	-0.135
-656.901	76.233	-0.259	-0.275
-655.886	525.707	0.125	0.295
-654.872	-200.000	-0.006	-0.036
-653.857	800.000	0.048	-0.188
-652.843	-26.415	0.116	0.068
-651.828	800.000	0.059	0.164
-650.814	129.982	0.114	0.146
-649.799	-165.553	0.182	-0.008
-648.784	800.000	-0.018	-0.059
-647.770	632.575	0.090	0.227
-646.755	-69.051	0.249	0.096
-645.741	212.649	-0.184	-0.290
-644.726	-83.564	-0.338	0.108
-643.711	800.000	0.021	-0.070
-642.697	-82.261	-0.225	-0.073
-641.682	-137.892	0.364	0.041
-640.668	15.370	-0.191	-0.150
-639.653	15.181	-0.106	-0.083
-638.638	-98.846	0.216	0.055
-637.624	508.219	-0.049	0.114
-636.609	-1.113	0.244	-0.173
-635.595	53.802	-0.177	-0.170
-634.580	800.000	0.138	-0.514
-633.565	55.484	-0.101	0.098
-632.551	-200.000	-0.009	-0.127
-631.536	-73.854	0.021	0.007
-630.522	327.685	0.182	-0.350
-629.507	-135.027	-0.243	-0.029
-628.492	-200.000	0.006	-0.114
-627.478	-22.878	0.273	0.165
-626.463	800.000	-0.007	-0.025
-625.449	285.400	-0.072	0.130
-624.434	390.270	-0.079	0.164
-623.419	318.598	-0.154	0.292
-622.405	-200.000	0.003	0.230
-621.390	135.667	-0.216	-0.282
-620.376	41.570	0.040	0.036
-619.361	-200.000	0.059	-0.641
-618.346	431.556	-0.180	-0.391
-617.332	-112.596	0.237	-0.047
-616.317	-153.186	0.326	0.023
-615.303	800.000	-0.030	0.093
-614.288	574.926	-0.196	-0.479
-613.273	-27.868	0.275	0.160
-612.259	187.575	0.166	0.248
-611.244	101.022	0.029	0.033
-610.230	-144.412	0.202	-0.019
-609.215	284.651	-0.073	0.131
-608.201	-27.937	0.252	-0.146
-607.186	-1.791	-0.234	-0.164
-606.171	-94.338	-0.281	-0.077
-605.157	58.730	0.174	-0.171
-604.142	-7.091	-0.339	-0.230
-603.128	-200.000	0.016	-0.131
-602.113	591.204	-0.128	-0.315
-601.098	-99.330	-0.199	0.050
-600.084	-14.759	-0.154	-0.099
-599.069	17.065	-0.208	0.165
-598.055	-38.971	0.104	0.055
-597.040	-107.628	-0.240	0.052
-596.025	26.792	-0.216	-0.181
-595.011	439.492	0.144	0.315
-593.996	-82.845	0.147	-0.048
-592.982	-23.080	-0.219	0.132
-591.967	-60.213	-0.296	0.126
-590.952	-10.557	-0.154	-0.102
-589.938	-192.099	0.056	0.001
-588.923	107.828	0.231	-0.275
-587.909	-118.446	0.163	-0.029
-586.894	178.677	0.161	0.235
-585.879	114.333	-0.094	-0.115
-584.865	112.599	-0.174	-0.210
-583.850	800.000	-0.007	-0.025
-582.836	-122.115	0.268	-0.044
-581.821	-75.652	-0.204	0.072
-580.806	8.450	0.120	-0.090
-579.792	445.094	0.109	-0.240
-578.777	36.891	0.069	-0.061
-577.763	434.057	-0.132	0.286
-576.748	800.000	0.056	-0.178
-575.733	-200.000	-0.036	0.176
-574.719	-132.769	0.430	-0.055
-573.704	-200.000	-0.026	-0.223
-572.690	659.925	-0.111	0.285
-571.675	-100.628	0.240	0.059
-570.661	-66.611	0.058	0.023
-569.646	528.682	0.087	-0.205
-568.631	-65.688	0.102	-0.041
-567.617	526.427	0.151	-0.356
-566.602	3.979	-0.089	-0.065
-565.588	-72.819	-0.236	0.087
-564.573	382.864	0.076	-0.157
-563.558	-200.000	0.001	-0.225
-562.544	104.154	-0.329	-0.386
-561.529	-82.701	0.099	0.032
-560.515	-200.000	-0.009	0.137
-559.500	-71.422	0.169	-0.063
-558.485	-162.834	-0.127	0.006
-557.471	-200.000	0.061	-0.386
-556.456	800.000	-0.035	-0.147
-555.442	41.533	0.033	0.029
-554.427	-128.809	0.231	0.032
-553.412	-107.264	-0.151	0.033
-552.398	434.354	-0.012	-0.026
-551.383	-105.856	-0.129	-0.029
-550.369	-139.630	-0.121	-0.013
-549.354	-107.815	0.242	0.053
-548.339	-200.000	0.029	0.275
-547.325	358.666	0.113	0.224
-546.310	-35.908	-0.103	-0.056
-545.296	800.000	0.076	-0.289
-544.281	73.325	-0.177	0.185
-543.266	-28.874	-0.262	-0.150
-542.252	-200.000	-0.002	0.457
-541.237	-200.000	-0.025	0.117
-540.223	-28.857	-0.234	-0.134
-539.208	-200.000	-0.011	-0.079
-538.193	262.434	-0.140	-0.241
-537.179	800.000	0.110	-0.329
-536.164	20.244	-0.304	-0.244
-535.150	-200.000	0.090	0.527
-534.135	-72.218	0.225	0.083
-533.121	-200.000	-0.035	0.363
-532.106	800.000	0.042	-0.147
-531.091	-76.506	-0.112	0.039
-530.077	-37.915	-0.193	0.102
-529.062	87.784	0.081	-0.089
-528.048	800.000	0.009	-0.033
-527.033	-200.000	0.019	0.200
-526.018	-89.090	-0.327	0.096
-525.004	133.639	0.084	-0.108
-523.989	-49.078	-0.092	-0.044
-522.975	-200.000	-0.020	-0.386
-521.960	800.000	-0.068	-0.216
-520.945	-185.446	0.192	0.003
-519.931	-4.309	-0.018	0.013
-518.916	496.527	-0.046	-0.104
-517.902	203.450	-0.065	-0.101
-516.887	20.882	-0.119	-0.096
-515.872	-118.146	0.059	-0.010
-514.858	186.993	-0.108	0.160
-513.843	-179.032	0.408	-0.009
-512.829	-95.788	-0.143	-0.038
-511.814	-2.426	0.023	-0.016
-510.799	-69.240	0.235	0.090
-509.785	-35.170	-0.281	-0.153
-508.770	-200.000	-0.003	-0.036
-507.756	152.955	0.193	0.263
-506.741	22.851	-0.196	0.160
-505.726	800.000	0.043	0.135
-504.712	159.826	0.253	-0.351
-503.697	-200.000	0.040	-0.294
-502.683	800.000	-0.044	0.174
-501.668	68.004	-0.101	0.103
-500.653	177.928	-0.200	0.291
-499.639	70.861	0.071	-0.073
-498.624	159.445	-0.048	0.066
-497.610	-65.455	0.289	0.116
-496.595	-16.579	-0.313	0.198
-495.581	-34.791	0.131	-0.071
-494.566	16.583	-0.222	-0.175
-493.551	-89.414	0.326	-0.096
-492.537	33.792	-0.110	0.095
-491.522	367.738	0.086	-0.172
-490.508	87.556	-0.207	0.228
-489.493	387.244	0.129	-0.265
-488.478	-200.000	-0.012	0.148
-487.464	-86.819	-0.381	-0.116
-486.449	-130.601	0.210	0.028
-485.435	-200.000	-0.027	-0.138
-484.420	-198.631	0.142	-0.001
-483.405	-200.000	-0.023	0.170
-482.391	-200.000	0.032	0.409
-481.376	-100.731	0.083	-0.020
-480.362	-109.603	-0.237	0.050
-479.347	800.000	-0.145	-0.498
-478.332	123.816	0.043	-0.054
-477.318	142.168	-0.110	0.146
-476.303	800.000	-0.050	-0.195
-475.289	151.520	0.144	0.196
-474.274	-200.000	-0.055	0.295
-473.259	144.282	0.002	-0.002
-472.245	611.241	0.065	-0.162
-471.230	800.000	-0.078	0.273
-470.216	-105.016	-0.302	0.069
-469.201	345.754	-0.136	0.266
-468.186	-200.000	0.054	0.000
-467.172	133.458	0.133	0.171
-466.157	800.000	-0.081	0.242
-465.143	-34.536	-0.124	0.067
-464.128	-3.053	-0.193	-0.134
-463.113	72.855	0.191	0.198
-462.099	-20.495	-0.120	0.073
-461.084	43.206	-0.098	-0.089
-460.070	800.000	0.090	0.253
-459.055	-200.000	0.033	0.177
-458.040	-55.799	0.225	0.100
-457.026	35.475	-0.161	-0.140
-456.011	-200.000	0.029	-0.294
-454.997	800.000	0.061	-0.190
-453.982	800.000	-0.030	0.092
-452.968	162.899	-0.225	0.314
-451.953	-200.000	0.013	-0.297
-450.938	387.413	0.124	-0.255
-449.924	139.990	0.055	0.072
-448.909	-37.220	-0.116	0.062
-447.895	-200.000	-0.040	-0.189
-446.880	-77.929	0.099	0.034
-445.865	-128.732	0.209	0.029
-444.851	18.930	0.198	0.158
-443.836	580.299	-0.034	-0.083
-442.822	247.634	-0.181	-0.304
-441.807	800.000	-0.070	0.209
-440.792	419.420	0.039	-0.082
-439.778	-200.000	-0.046	-0.226
-438.763	-130.020	-0.272	0.037
-437.749	800.000	0.022	0.081
-436.734	800.000	0.149	0.614
-435.719	-103.431	0.136	-0.032
-434.705	-5.327	0.070	0.048
-433.690	502.676	0.060	0.138
-432.676	-124.446	-0.312	0.048
-431.661	148.131	-0.089	0.119
-430.646	-81.619	-0.105	0.034
-429.632	-200.000	0.041	-0.184
-428.617	89.742	-0.133	-0.147
-427.603	-149.565	-0.177	-0.014
-426.588	-90.799	-0.255	-0.073
-425.573	-68.196	-0.087	-0.034
-424.559	-200.000	-0.018	0.108
-423.544	800.000	0.061	0.223
-422.530	-200.000	0.009	-0.354
-421.515	69.208	-0.140	-0.143
-420.500	37.725	-0.205	0.181
-419.486	-66.070	-0.291	0.115
-418.471	-200.000	0.032	0.290
-417.457	-200.000	0.038	0.283
-416.442	-200.000	0.037	-0.265
-415.428	-200.000	0.001	0.005
-414.413	-10.706	0.044	0.029
-413.398	-139.332	-0.283	-0.030
-412.384	101.785	-0.160	0.186
-411.369	95.049	-0.050	0.057
-410.355	104.371	-0.021	-0.024
-409.340	-200.000	-0.021	0.196
-408.325	-57.281	0.088	-0.039
-407.311	14.385	-0.256	-0.198
-406.296	800.000	0.046	0.142
-405.282	-158.631	0.194	0.011
-404.267	-200.000	0.002	0.291
-403.252	-106.839	-0.204	0.045
-402.238	-144.279	-0.268	0.025
-401.223	-200.000	-0.025	-0.188
-400.209	-77.789	0.314	-0.108
-399.194	297.952	0.028	0.050
-398.179	-44.587	0.176	-0.087
-397.165	576.474	-0.103	0.249
-396.150	-150.719	-0.042	-0.003
-395.136	-200.000	0.034	-0.238
-394.121	-75.201	0.267	0.094
-393.106	-113.779	-0.158	-0.030
-392.092	16.989	0.118	0.093
-391.077	218.231	0.055	0.087
-390.063	-36.185	0.130	-0.070
-389.048	317.742	0.049	-0.092
-388.033	125.143	0.219	-0.273
-387.019	-21.389	-0.334	-0.202
-386.004	-64.116	-0.016	0.007
-384.990	-148.937	0.205	-0.016
-383.975	-106.366	-0.258	-0.057
-382.960	29.807	0.165	0.139
-381.946	-150.458	-0.319	-0.024
-380.931	-95.863	-0.097	-0.026
-379.917	683.595	0.128	0.330
-378.902	-200.000	0.021	-0.304
-377.888	344.680	-0.134	-0.260
-376.873	252.633	0.200	-0.338
-375.858	29.425	-0.113	-0.095
-374.844	-147.919	0.071	-0.006
-373.829	8.677	-0.159	-0.119
-372.815	-23.737	0.236	0.140
-371.800	-27.758	0.203	-0.116
-370.785	40.067	0.172	-0.153
-369.771	-24.303	0.378	-0.224
-368.756	-62.022	0.397	-0.164
-367.742	344.577	-0.012	-0.023
-366.727	182.070	-0.057	0.083
-365.712	-200.000	-0.018	-0.233
-364.698	61.968	-0.206	0.203
-363.683	201.684	-0.081	0.124
-362.669	-132.031	0.178	-0.023
-361.654	-104.538	-0.262	-0.060
-360.639	134.620	-0.055	-0.071
-359.625	-200.000	0.014	0.079
-358.610	525.574	-0.183	-0.427
-357.596	122.150	0.112	-0.138
-356.581	237.030	0.026	0.043
-355.566	249.933	0.118	-0.198
-354.552	768.475	-0.052	-0.139
-353.537	-200.000	0.054	0.246
-352.523	800.000	0.072	-0.216
-351.508	-66.261	0.182	0.072
-350.493	137.637	0.142	0.183
-349.479	638.596	0.073	0.184
-348.464	-200.000	-0.076	-0.000
-347.450	49.907	0.218	-0.203
-346.435	800.000	-0.023	0.090
-345.420	-59.903	-0.117	-0.049
-344.406	108.678	-0.244	0.288
-343.391	22.438	0.159	-0.128
-342.377	617.311	0.045	-0.112
-341.362	195.155	0.082	-0.122
-340.348	-200.000	0.017	0.176
-339.333	-199.929	0.196	-0.001
-338.318	-73.992	-0.099	0.036
-337.304	19.195	0.132	0.105
-336.289	362.935	0.202	0.402
-335.275	-84.541	-0.189	-0.059
-334.260	-200.000	0.028	0.168
-333.245	-200.000	0.077	0.336
-332.231	-12.058	0.430	-0.278
-331.216	-127.168	0.412	-0.060
-330.202	-102.856	0.207	-0.049
-329.187	800.000	-0.027	-0.087
-328.172	-200.000	-0.018	-0.134
-327.158	800.000	-0.083	-0.246
-326.143	19.982	-0.151	-0.120
-325.129	800.000	0.043	-0.146
-324.114	-35.528	0.121	0.065
-323.099	-163.449	-0.153	-0.007
-322.085	178.609	-0.101	-0.146
-321.070	800.000	-0.032	0.125
-320.056	789.459	0.067	0.182
-319.041	-103.206	0.332	-0.077
-318.026	-200.000	0.001	0.035
-317.012	-200.000	-0.003	0.083
-315.997	65.021	0.271	-0.271
-314.983	3.874	-0.073	-0.053
-313.968	-173.618	0.338	-0.010
-312.953	285.008	0.047	-0.084
-311.939	-52.552	-0.094	0.043
-310.924	-200.000	-0.025	-0.334
-309.910	-89.234	0.247	-0.072
-308.895	-200.000	-0.036	0.163
-307.880	64.048	-0.155	-0.154
-306.866	11.809	-0.272	0.206
-305.851	213.616	0.154	-0.240
-304.837	169.054	-0.090	-0.127
-303.822	-200.000	-0.041	0.182
-302.807	800.000	-0.097	0.344
-301.793	-200.000	0.074	-0.334
-300.778	800.000	0.023	-0.090
-299.764	-69.419	-0.271	0.103
-298.749	128.093	0.075	0.094
-297.735	325.188	-0.259	0.488
-296.720	-200.000	-0.012	-0.256
-295.705	289.024	-0.154	-0.275
-294.691	-200.000	0.020	-0.115
-293.676	-78.643	0.519	-0.175
-292.662	17.025	-0.279	0.218
-291.647	-22.696	0.041	-0.024
-290.632	-8.620	0.230	0.152
-289.618	-14.200	-0.242	-0.154
-288.603	320.004	-0.108	0.201
-287.589	85.605	-0.227	-0.246
-286.574	58.958	0.098	-0.095
-285.559	284.271	-0.170	-0.303
-284.545	-119.016	-0.215	-0.037
-283.530	-51.503	-0.108	0.050
-282.516	-200.000	0.018	-0.189
-281.501	-200.000	-0.002	-0.285
-280.486	-189.407	-0.302	0.003
-279.472	-155.728	0.038	-0.002
-278.457	-28.076	0.347	0.198
-277.443	715.889	-0.037	0.097
-276.428	-11.601	0.195	-0.127
-275.413	-200.000	0.050	0.238
-274.399	118.873	0.039	-0.048
-273.384	-30.797	0.252	0.141
-272.370	-200.000	-0.059	0.304
-271.355	800.000	0.080	-0.333
-270.340	-8.139	0.230	-0.153
-269.326	-118.363	-0.471	-0.082
-268.311	-146.832	0.081	-0.007
-267.297	800.000	0.009	-0.033
-266.282	-133.561	-0.139	0.017
-265.267	131.817	-0.189	0.240
-264.253	800.000	-0.036	-0.136
-263.238	72.398	-0.094	0.097
-262.224	36.779	0.073	0.064
-261.209	-200.000	-0.020	-0.231
-260.195	-168.738	0.241	-0.009
-259.180	19.124	-0.382	0.302
-258.165	-200.000	0.008	-0.042
-257.151	59.921	0.221	0.215
-256.136	-59.695	0.280	0.118
-255.122	800.000	-0.083	0.336
-254.107	359.337	0.048	0.094
-253.092	800.000	0.046	0.145
-252.078	-39.527	-0.077	-0.040
-251.063	-200.000	0.003	-0.226
-250.049	-200.000	0.013	0.318
-249.034	126.756	0.198	0.247
-248.019	-200.000	-0.059	-0.266
-247.005	800.000	-0.024	0.087
-245.990	20.504	0.292	0.233
-244.976	-76.016	-0.085	0.030
-243.961	-200.000	-0.005	0.099
-242.946	26.379	0.283	0.233
-241.932	-19.752	0.175	-0.107
-240.917	-200.000	0.014	0.123
-239.903	-200.000	-0.024	-0.204
-238.888	-200.000	-0.008	0.107
-237.873	-92.443	0.382	-0.106
-236.859	800.000	-0.081	0.247
-235.844	800.000	-0.017	-0.058
-234.830	-57.396	0.440	0.190
-233.815	117.989	0.098	-0.119
-232.800	-58.735	-0.245	-0.104
-231.786	30.208	-0.128	-0.108
-230.771	735.519	0.009	0.024
-229.757	-67.194	0.334	0.130
-228.742	-200.000	-0.025	0.305
-227.727	684.189	-0.067	-0.172
-226.713	-200.000	0.007	0.058
-225.698	147.463	-0.213	0.283
-224.684	-93.554	-0.119	-0.032
-223.669	-112.782	0.179	-0.035
-222.655	-200.000	-0.020	0.219
-221.640	241.223	0.061	0.100
-220.625	-134.231	-0.039	0.005
-219.611	-117.041	0.094	0.017
-218.596	70.230	-0.201	0.204
-217.582	-101.579	-0.267	0.064
-216.567	-101.760	0.289	0.069
-215.552	-18.710	-0.391	0.240
-214.538	800.000	0.060	0.195
-213.523	461.469	-0.157	0.344
-212.509	-63.899	0.195	0.078
-211.494	-114.261	0.237	0.045
-210.479	194.266	-0.214	0.320
-209.465	-200.000	0.004	-0.353
-208.450	-44.596	0.171	-0.084
-207.436	-36.473	-0.147	-0.078
-206.421	-73.317	-0.177	-0.064
-205.406	800.000	-0.111	-0.343
-204.392	7.528	-0.208	0.153
-203.377	-23.519	-0.390	0.230
-202.363	223.785	0.159	0.253
-201.348	611.636	0.171	0.421
-200.333	53.777	-0.414	0.391
-199.319	82.825	0.113	0.121
-198.304	-24.145	-0.154	0.090
-197.290	-200.000	-0.018	0.288
-196.275	800.000	0.036	-0.139
-195.260	221.076	-0.034	0.053
-194.246	-80.609	0.292	0.096
-193.231	-96.001	-0.323	0.085
-192.217	7.219	-0.081	-0.059
-191.202	-200.000	-0.003	-0.150
-190.187	102.643	0.061	-0.070
-189.173	800.000	0.060	-0.208
-188.158	800.000	0.045	0.194
-187.144	800.000	-0.037	0.138
-186.129	-48.710	0.214	0.101
-185.114	10.370	0.174	0.130
-184.100	-200.000	0.026	-0.257
-183.085	151.942	-0.044	-0.059
-182.071	-30.056	-0.355	0.198
-181.056	37.913	0.156	-0.136
-180.042	40.281	0.170	0.150
-179.027	190.848	0.036	-0.054
-178.012	51.626	-0.058	0.054
-176.998	403.317	0.111	0.230
-175.983	394.866	0.128	0.262
-174.969	179.347	0.061	0.088
-173.954	42.870	0.111	0.100
-172.939	64.959	0.104	0.103
-171.925	-81.065	0.428	0.139
-170.910	16.766	0.197	-0.153
-169.896	-37.556	-0.036	-0.019
-168.881	420.633	-0.053	-0.111
-167.866	210.365	0.170	-0.262
-166.852	26.279	-0.270	0.222
-165.837	-194.499	0.354	0.003
-164.823	-200.000	0.044	-0.342
-163.808	-169.956	-0.062	0.002
-162.793	800.000	0.030	0.110
-161.779	-20.820	0.285	-0.171
-160.764	-3.565	-0.338	0.231
-159.750	-22.031	-0.299	-0.178
-158.735	-200.000	-0.004	0.081
-157.720	800.000	0.089	-0.265
-156.706	800.000	0.035	0.114
-155.691	191.796	0.071	0.105
-154.677	-119.932	-0.458	-0.077
-153.662	-127.452	0.065	0.009
-152.647	-200.000	-0.004	-0.080
-151.633	-148.954	0.116	0.009
-150.618	800.000	-0.010	0.030
-149.604	-158.588	-0.151	-0.009
-148.589	322.682	0.143	0.268
-147.574	-4.771	0.299	-0.202
-146.560	800.000	0.058	-0.213
-145.545	-160.525	-0.152	0.008
-144.531	-11.773	0.157	-0.101
-143.516	73.985	-0.023	0.023
-142.502	67.676	0.196	0.196
-141.487	-200.000	-0.000	-0.024
-140.472	-172.661	-0.089	0.003
-139.458	30.429	-0.205	0.172
-138.443	800.000	-0.058	0.225
-137.429	320.813	-0.251	-0.468
-136.414	-40.933	-0.130	-0.066
-135.399	-200.000	0.037	-0.187
-134.385	-140.071	0.260	-0.027
-133.370	-63.503	-0.131	-0.053
-132.356	-131.459	-0.033	-0.004
-131.341	-102.415	0.105	-0.025
-130.326	-110.334	-0.440	-0.090
-129.312	-15.144	0.383	-0.240
-128.297	-39.215	-0.165	-0.085
-127.283	36.969	-0.042	-0.037
-126.268	-67.858	0.125	0.048
-125.253	-89.813	0.156	-0.045
-124.239	-18.464	-0.313	-0.192
-123.224	-109.218	-0.125	-0.026
-122.210	183.278	0.118	-0.171
-121.195	-56.067	-0.265	-0.116
-120.180	-39.718	-0.134	0.069
-119.166	-200.000	-0.006	0.270
-118.151	-15.321	0.157	0.099
-117.137	180.665	-0.140	-0.202
-116.122	-200.000	0.008	0.349
-115.107	253.001	-0.118	0.197
-114.093	46.860	0.238	0.217
-113.078	55.054	0.094	-0.089
-112.064	-200.000	0.017	0.283
-111.049	-73.762	-0.149	0.053
-110.034	-40.487	0.349	-0.178
-109.020	19.680	0.152	0.120
-108.005	-119.039	-0.351	0.060
-106.991	-102.559	0.260	-0.061
-105.976	84.489	-0.069	-0.074
-104.962	56.790	-0.136	-0.129
-103.947	-111.996	-0.268	0.053
-102.932	211.586	0.110	-0.170
-101.918	293.783	0.121	-0.216
-100.903	-200.000	-0.014	-0.188
-99.889	800.000	-0.052	0.199
-98.874	-136.771	-0.261	0.029
-97.859	-200.000	-0.010	-0.088
-96.845	-200.000	0.039	-0.378
-95.830	-135.632	0.164	-0.019
-94.816	800.000	0.064	0.182
-93.801	-34.308	0.450	0.242
-92.786	196.218	0.069	0.104
-91.772	164.281	0.173	0.239
-90.757	-41.675	0.192	-0.097
-89.743	-60.580	0.325	-0.135
-88.728	83.385	0.110	0.118
-87.713	-134.245	-0.216	0.026
-86.699	494.864	-0.095	0.214
-85.684	-83.935	0.147	-0.046
-84.670	-200.000	0.016	0.205
-83.655	-200.000	0.020	-0.142
-82.640	-200.000	-0.045	-0.303
-81.626	-142.080	-0.289	-0.028
-80.611	-165.138	-0.139	0.006
-79.597	50.962	0.205	0.190
-78.582	-146.235	0.229	0.020
-77.567	-56.332	0.136	-0.059
-76.553	-200.000	-0.008	0.047
-75.538	800.000	0.047	-0.149
-74.524	283.988	0.038	0.068
-73.509	-200.000	-0.027	-0.185
-72.494	120.520	-0.198	-0.240
-71.480	225.860	-0.081	-0.128
-70.465	800.000	-0.036	-0.114
-69.451	800.000	-0.201	-0.697
-68.436	641.969	-0.083	-0.207
-67.422	117.464	0.180	-0.216
-66.407	-35.571	-0.342	-0.181
-65.392	-121.758	0.084	-0.014
-64.378	-108.082	0.150	0.032
-63.363	91.818	0.061	0.067
-62.349	-22.746	0.354	-0.209
-61.334	58.920	-1.175	-1.130
-60.319	402.786	0.369	0.759
-59.305	800.000	-0.407	-1.301
-58.290	178.506	0.874	1.249
-57.276	352.040	0.842	1.632
-56.261	-200.000	115.566	661.273
-55.246	532.160	1532.694	3546.847
-54.232	174.636	2716.896	3843.968
-53.217	102.029	2302.884	2629.201
-52.203	36.272	1906.796	1643.493
-51.188	30.030	1696.269	1414.494
-50.173	27.581	1654.097	1361.013
-49.159	49.761	1711.316	1577.013
-48.144	47.913	1724.753	1575.338
-47.130	29.712	1681.889	1399.877
-46.115	26.908	1668.178	1367.308
-45.100	26.867	1662.535	1362.321
-44.086	26.728	1660.402	1359.482
-43.071	26.798	1657.114	1357.256
-42.057	26.750	1655.241	1355.314
-41.042	26.740	1653.680	1353.901
-40.027	26.791	1651.474	1352.423
-39.013	26.745	1649.243	1350.203
-37.998	26.747	1647.681	1348.880
-36.984	26.727	1646.755	1347.921
-35.969	26.841	1645.114	1347.375
-34.954	26.911	1643.326	1346.373
-33.940	26.857	1641.413	1344.357
-32.925	26.867	1640.040	1343.250
-31.911	26.930	1637.709	1341.754
-30.896	26.835	1636.724	1340.195
-29.881	26.879	1634.758	1338.851
-28.867	26.898	1632.946	1337.456
-27.852	26.900	1631.573	1336.292
-26.838	26.817	1630.625	1334.852
-25.823	26.915	1628.975	1334.167
-24.809	26.792	1628.223	1332.598
-23.794	26.856	1626.319	1331.453
-22.779	26.919	1624.631	1330.485
-21.765	26.804	1623.190	1328.405
-20.750	26.801	1621.675	1327.093
-19.736	26.989	1619.951	1327.007
-18.721	26.874	1618.637	1325.037
-17.706	26.855	1617.238	1323.700
-16.692	26.934	1615.680	1322.944
-15.677	26.997	1614.498	1322.383
-14.663	26.866	1613.761	1320.774
-13.648	26.940	1611.257	1319.213
-12.633	27.067	1609.600	1318.727
-11.619	26.950	1608.339	1316.793
-10.604	26.977	1606.826	1315.697
-9.590	26.933	1605.902	1314.569
-8.575	26.958	1603.857	1313.026
-7.560	26.917	1603.196	1312.136
-6.546	26.866	1602.464	1311.116
-5.531	26.833	1601.562	1310.086
-4.517	26.942	1599.761	1309.347
-3.502	26.954	1598.580	1308.411
-2.487	26.903	1597.257	1306.909
-1.473	26.664	1585.314	1295.376
-0.458	23.889	1566.349	1260.196
0.556	21.506	1567.975	1230.187
1.571	19.228	1591.805	1232.499
2.586	18.850	1603.960	1239.071
3.600	16.595	1548.808	1180.640
4.615	9.807	1440.761	1053.980
5.629	4.256	1382.216	976.193
6.644	3.408	1374.828	965.583
7.659	3.300	1373.643	963.986
8.673	3.396	1372.860	963.956
9.688	3.355	1371.069	962.357
10.702	3.401	1367.761	960.232
11.717	6.012	1372.194	979.565
12.731	13.250	1385.577	1034.471
13.746	19.195	1395.258	1078.962
14.761	20.390	1396.078	1086.981
15.775	19.673	1394.613	1081.264
16.790	18.716	1391.372	1072.677
17.804	17.961	1389.297	1066.269
18.819	17.590	1388.262	1063.068
19.834	17.452	1387.315	1061.390
20.848	17.216	1386.095	1058.889
21.863	16.961	1384.756	1056.187
22.877	16.873	1383.434	1054.539
23.892	16.929	1382.775	1054.288
24.907	16.733	1382.500	1052.765
25.921	16.751	1380.977	1051.625
26.936	16.935	1380.194	1052.079
27.950	16.958	1379.286	1051.435
28.965	16.968	1378.226	1050.600
29.980	17.058	1377.207	1050.283
30.994	17.174	1376.032	1050.015
32.009	17.270	1374.641	1049.449
33.023	17.304	1373.435	1048.645
34.038	17.016	1372.501	1046.063
35.053	16.927	1371.467	1044.636
36.067	17.000	1369.810	1043.733
37.082	17.034	1368.749	1043.042
38.096	17.105	1367.820	1042.674
39.111	17.171	1367.101	1042.440
40.126	16.989	1366.410	1040.703
41.140	16.910	1365.439	1039.391
42.155	16.660	1364.522	1037.069
43.169	16.751	1364.242	1037.318
44.184	16.677	1364.201	1036.742
45.199	16.634	1364.129	1036.337
46.213	16.742	1363.390	1036.345
47.228	16.952	1362.551	1036.895
48.242	16.944	1361.417	1035.890
49.257	16.901	1359.767	1034.281
50.271	16.929	1358.547	1033.438
51.286	16.910	1357.197	1032.198
52.301	16.840	1356.124	1030.869
53.315	16.755	1355.082	1029.465
54.330	16.740	1353.324	1027.949
55.344	16.741	1352.145	1026.967
56.359	16.722	1351.565	1026.322
57.374	16.761	1350.646	1025.770
58.388	16.693	1349.688	1024.540
59.403	16.740	1349.267	1024.415
60.417	16.630	1348.475	1023.055
61.432	16.554	1347.700	1021.919
62.447	16.488	1347.062	1020.945
63.461	16.478	1345.678	1019.750
64.476	16.484	1344.971	1019.160
65.490	16.418	1343.011	1017.183
66.505	16.607	1341.191	1016.855
67.520	16.572	1340.823	1016.274
68.534	16.605	1339.170	1015.126
69.549	16.621	1338.191	1014.395
70.563	16.582	1337.281	1013.380
71.578	16.373	1336.363	1011.341
72.593	16.408	1334.938	1010.384
73.607	16.381	1334.337	1009.678
74.622	16.391	1333.792	1009.239
75.636	16.456	1332.911	1008.869
76.651	16.500	1332.030	1008.378
77.666	16.525	1332.157	1008.530
78.680	16.473	1331.492	1007.627
79.695	16.465	1330.800	1006.970
80.709	16.551	1330.618	1007.251
81.724	16.657	1329.333	1006.825
82.739	16.736	1328.537	1006.598
83.753	16.759	1327.973	1006.222
84.768	16.929	1326.540	1006.052
85.782	17.019	1325.534	1005.735
86.797	16.918	1324.366	1004.161
87.812	16.889	1323.351	1003.135
88.826	16.938	1322.267	1002.513
89.841	16.944	1321.084	1001.560
90.855	17.023	1320.119	1001.205
91.870	16.947	1319.735	1000.381
92.884	17.171	1318.158	1000.412
93.899	17.127	1317.500	999.570
94.914	17.167	1316.736	999.137
95.928	17.094	1315.773	997.886
96.943	17.029	1314.819	996.695
97.957	16.975	1314.321	995.913
98.972	17.066	1312.751	995.169
99.987	17.046	1311.660	994.131
101.001	17.008	1310.801	993.171
102.016	17.087	1309.748	992.746
103.030	17.036	1309.275	992.007
104.045	16.884	1308.704	990.595
105.060	16.977	1306.843	989.640
106.074	16.833	1305.293	987.541
107.089	16.629	1303.934	985.239
108.103	16.540	1302.425	983.494
109.118	16.601	1301.241	982.868
110.133	16.509	1300.254	981.500
111.147	16.564	1298.828	980.656
112.162	16.545	1297.461	979.428
113.176	16.697	1296.144	979.225
114.191	16.662	1295.531	978.472
115.206	16.770	1293.932	977.805
116.220	16.698	1293.086	976.660
117.235	16.639	1291.919	975.352
118.249	16.541	1291.246	974.198
119.264	16.639	1289.654	973.473
120.279	16.610	1288.489	972.340
121.293	16.487	1287.556	970.846
122.308	16.496	1286.148	969.747
123.322	16.468	1285.435	968.964
124.337	16.398	1284.715	967.931
125.352	16.452	1283.441	967.197
126.366	16.391	1282.129	965.774
127.381	16.477	1281.023	965.346
128.395	16.603	1279.249	964.642
129.410	16.598	1278.474	963.944
130.424	16.637	1277.874	963.630
131.439	16.643	1276.920	962.860
132.454	16.753	1276.045	962.738
133.468	16.710	1275.808	962.230
134.483	16.719	1274.718	961.374
135.497	16.592	1273.732	959.826
136.512	16.737	1271.789	959.100
137.527	16.750	1270.773	958.321
138.541	16.849	1269.538	957.865
139.556	16.816	1268.334	956.685
140.570	16.847	1267.079	955.826
141.585	16.784	1266.733	955.128
142.600	16.998	1265.133	955.040
143.614	17.100	1264.098	954.749
144.629	17.155	1262.961	954.115
145.643	17.115	1261.884	952.992
146.658	16.998	1260.787	951.422
147.673	16.920	1259.350	949.817
148.687	16.839	1258.127	948.356
149.702	16.821	1256.822	947.190
150.716	16.833	1255.485	946.167
151.731	16.789	1254.167	944.843
152.746	16.764	1253.147	943.853
153.760	16.816	1252.427	943.518
154.775	16.832	1251.115	942.530
155.789	17.072	1250.348	943.205
156.804	17.039	1249.374	942.203
157.819	17.063	1248.128	941.315
158.833	17.121	1247.396	940.998
159.848	17.230	1246.582	940.905
160.862	17.138	1245.533	939.525
161.877	16.890	1244.532	937.311
162.892	16.766	1243.635	935.871
163.906	16.854	1242.515	935.431
164.921	16.806	1241.611	934.399
165.935	17.026	1240.297	934.544
166.950	17.010	1239.633	933.870
167.964	16.937	1239.127	933.005
168.979	16.914	1238.062	931.994
169.994	16.902	1237.507	931.427
171.008	17.116	1236.364	931.661
172.023	17.065	1235.917	930.961
173.037	17.228	1234.838	930.961
174.052	17.053	1234.715	929.827
175.067	16.999	1232.904	928.084
176.081	16.842	1232.002	926.464
177.096	16.991	1230.664	926.190
178.110	16.990	1229.974	925.583
179.125	16.837	1228.632	923.657
180.140	17.087	1227.274	923.913
181.154	17.091	1226.357	923.167
182.169	17.182	1224.988	922.547
183.183	17.213	1224.251	922.077
184.198	17.301	1222.898	921.457
185.213	17.178	1222.212	920.190
186.227	17.175	1221.048	919.219
187.242	17.309	1219.958	919.040
188.256	17.408	1219.021	918.787
189.271	17.438	1218.036	918.126
190.286	17.284	1216.694	916.200
191.300	16.971	1215.778	913.746
192.315	16.762	1215.366	912.228
193.329	16.965	1214.267	912.417
194.344	16.944	1214.012	912.033
195.359	17.154	1213.135	912.419
196.373	17.257	1212.703	912.568
197.388	17.290	1212.669	912.636
198.402	17.438	1212.252	913.038
199.417	17.503	1211.624	912.834
200.432	17.626	1210.440	912.518
201.446	17.588	1210.282	912.113
202.461	17.623	1209.311	911.488
203.475	17.714	1208.447	911.244
204.490	17.512	1206.937	908.945
205.504	17.505	1205.228	907.540
206.519	17.470	1204.286	906.568
207.534	17.340	1203.507	905.208
208.548	17.440	1202.405	904.832
209.563	17.491	1201.465	904.314
210.577	17.457	1200.705	903.481
211.592	17.466	1200.074	902.972
212.607	17.639	1199.342	903.259
213.621	17.640	1198.124	902.269
214.636	17.470	1197.468	900.794
215.650	17.582	1196.501	900.580
216.665	17.781	1195.299	900.644
217.680	17.658	1195.000	899.694
218.694	17.819	1193.791	899.552
219.709	17.786	1192.908	898.634
220.723	17.766	1192.206	897.921
221.738	17.714	1191.409	896.968
222.753	17.695	1190.753	896.292
223.767	17.771	1190.432	896.371
224.782	17.928	1189.533	896.441
225.796	17.897	1188.900	895.718
226.811	17.835	1188.718	895.175
227.826	17.858	1187.227	894.098
228.840	17.721	1186.535	892.779
229.855	17.741	1185.903	892.331
230.869	17.829	1184.943	891.989
231.884	17.747	1184.110	890.852
232.899	17.838	1182.906	890.344
233.913	17.741	1182.530	889.476
234.928	17.550	1181.911	887.934
235.942	17.629	1180.576	887.266
236.957	17.656	1179.953	886.861
237.972	17.616	1179.710	886.390
238.986	17.658	1178.923	885.941
240.001	17.638	1178.008	885.070
241.015	17.706	1176.824	884.455
242.030	17.727	1176.269	884.070
243.045	17.715	1175.911	883.658
244.059	17.809	1174.977	883.367
245.074	17.900	1173.822	882.888
246.088	17.967	1173.262	882.735
247.103	18.007	1172.623	882.381
248.117	18.140	1171.719	882.310
249.132	18.215	1171.475	882.437
250.147	18.276	1170.797	882.160
251.161	18.387	1170.142	882.165
252.176	18.448	1169.192	881.684
253.190	18.476	1168.853	881.494
254.205	18.535	1168.399	881.375
255.220	18.529	1167.446	880.546
256.234	18.597	1166.660	880.227
257.249	18.577	1166.149	879.658
258.263	18.545	1165.615	879.015
259.278	18.556	1164.873	878.433
260.293	18.623	1163.958	878.007
261.307	18.564	1163.986	877.652
262.322	18.550	1163.273	876.965
263.336	18.649	1162.473	876.789
264.351	18.704	1161.342	876.141
265.366	18.671	1161.013	875.644
266.380	18.690	1160.310	875.135
267.395	18.600	1159.550	874.026
268.409	18.482	1158.703	872.707
269.424	18.473	1158.399	872.359
270.439	18.575	1157.337	871.998
271.453	18.590	1156.509	871.375
272.468	18.500	1155.198	869.850
273.482	18.450	1155.175	869.503
274.497	18.492	1154.395	869.054
275.512	18.472	1153.922	868.517
276.526	18.544	1153.402	868.418
277.541	18.609	1152.413	867.923
278.555	18.587	1151.768	867.248
279.570	18.716	1151.017	867.257
280.585	18.715	1149.898	866.332
281.599	18.867	1148.959	866.317
282.614	18.724	1147.857	864.690
283.628	18.814	1146.729	864.214
284.643	18.648	1146.249	862.942
285.657	18.710	1144.984	862.222
286.672	18.687	1144.203	861.447
287.687	18.652	1143.467	860.641
288.701	18.735	1142.596	860.324
289.716	18.732	1141.953	859.747
290.730	18.770	1141.188	859.284
291.745	18.669	1140.507	858.193
292.760	18.764	1140.201	858.360
293.774	18.887	1139.363	858.266
294.789	18.942	1139.018	858.206
295.803	18.887	1138.537	857.492
296.818	18.786	1137.632	856.232
297.833	18.850	1136.091	855.315
298.847	18.934	1135.760	855.407
299.862	18.867	1134.930	854.375
300.876	18.826	1134.428	853.719
301.891	18.946	1133.909	853.845
302.906	19.049	1132.954	853.566
303.920	19.085	1132.432	853.275
304.935	19.163	1131.940	853.215
305.949	19.210	1131.287	852.877
306.964	19.166	1130.907	852.299
307.979	19.178	1129.514	851.235
308.993	19.024	1129.013	850.018
310.008	19.124	1128.002	849.678
311.022	19.142	1127.602	849.387
312.037	19.223	1126.328	848.751
313.052	19.136	1125.169	847.379
314.066	19.137	1124.189	846.566
315.081	18.997	1123.393	845.205
316.095	18.924	1122.933	844.425
317.110	18.957	1122.114	843.900
318.125	18.960	1121.435	843.328
319.139	18.892	1120.958	842.562
320.154	18.886	1120.481	842.098
321.168	19.008	1119.530	841.905
322.183	19.047	1119.114	841.711
323.197	18.945	1118.772	840.878
324.212	19.007	1117.713	840.311
325.227	19.211	1117.066	840.747
326.241	19.126	1116.427	839.779
327.256	18.957	1115.674	838.313
328.270	19.055	1114.752	838.024
329.285	19.149	1113.679	837.598
330.300	19.092	1112.916	836.676
331.314	18.977	1111.793	835.195
332.329	19.130	1110.842	835.151
333.343	19.132	1110.109	834.537
334.358	19.225	1109.284	834.291
335.373	19.327	1108.733	834.297
336.387	19.294	1107.892	833.431
337.402	19.228	1107.328	832.614
338.416	19.524	1106.466	833.320
339.431	19.490	1105.622	832.448
340.446	19.528	1105.277	832.299
341.460	19.599	1105.182	832.493
342.475	19.731	1103.894	832.085
343.489	19.634	1103.066	830.924
344.504	19.682	1102.156	830.395
345.519	19.715	1101.316	829.846
346.533	19.753	1100.640	829.444
347.548	19.865	1099.909	829.357
348.562	19.727	1099.217	828.102
349.577	19.614	1098.188	826.716
350.592	19.413	1097.376	825.066
351.606	19.437	1096.682	824.590
352.621	19.434	1096.016	823.999
353.635	19.390	1095.410	823.261
354.650	19.411	1094.720	822.768
355.665	19.589	1093.715	822.787
356.679	19.554	1093.407	822.318
357.694	19.616	1092.722	822.025
358.708	19.665	1092.225	821.812
359.723	19.751	1091.368	821.501
360.738	19.768	1090.593	820.929
361.752	19.631	1090.409	820.068
362.767	19.755	1089.435	819.849
363.781	19.646	1089.172	819.064
364.796	19.951	1088.420	819.871
365.810	19.930	1087.870	819.284
366.825	20.035	1087.304	819.282
367.840	19.965	1087.238	818.828
368.854	20.037	1086.805	818.769
369.869	20.022	1086.052	818.059
370.883	20.015	1084.858	817.054
371.898	19.937	1084.203	816.122
372.913	19.936	1083.428	815.460
373.927	20.056	1082.850	815.515
374.942	20.085	1082.339	815.198
375.956	20.070	1081.733	814.600
376.971	20.005	1081.263	813.864
377.986	20.122	1081.046	814.181
379.000	20.248	1080.290	814.132
380.015	20.329	1079.830	814.093
381.029	20.287	1078.914	813.132
382.044	20.357	1078.240	812.880
383.059	20.366	1077.195	812.063
384.073	20.231	1076.929	811.158
385.088	20.350	1075.940	810.899
386.102	20.315	1074.928	809.900
387.117	20.277	1073.347	808.462
388.132	20.138	1072.743	807.289
389.146	20.120	1072.167	806.696
390.161	20.138	1071.501	806.209
391.175	20.177	1070.515	805.575
392.190	20.216	1070.294	805.522
393.205	20.325	1069.138	805.085
394.219	20.315	1068.503	804.489
395.234	20.278	1067.925	803.811
396.248	20.105	1066.839	802.124
397.263	20.242	1065.289	801.518
398.278	20.201	1064.667	800.793
399.292	20.178	1064.102	800.190
400.307	20.112	1063.126	799.080
401.321	20.043	1062.951	798.559
402.336	20.027	1062.399	797.999
403.350	20.075	1061.330	797.349
404.365	20.101	1060.813	797.008
405.380	20.100	1060.424	796.639
406.394	20.317	1059.280	796.709
407.409	20.497	1058.459	796.847
408.423	20.408	1058.221	796.188
409.438	20.592	1057.413	796.350
410.453	20.586	1056.893	795.864
411.467	20.536	1056.440	795.222
412.482	20.666	1055.133	794.760
413.496	20.684	1054.698	794.444
414.511	20.683	1054.270	794.049
415.526	20.719	1053.972	793.918
416.540	20.917	1053.243	794.202
417.555	20.760	1052.853	793.123
418.569	20.737	1052.264	792.504
419.584	20.837	1051.795	792.533
420.599	20.709	1051.453	791.623
421.613	155.419	1404.323	1797.512
422.628	142.566	1455.687	1797.579
