DTS Sentinel unit serial number:	SN413079Multiplexer serial number:	ORYXHardware model number:	OX4-SRSoftware version number:	ORYX F/W v4.00 Oryx Data Collector v3.7.2.0data status	okinstallation	princeton_trtdifferential loss correction	single-endedforward channel	channel 2reverse channel	N/Adate	2019/09/13time	13:59:35forward acquisition time	60.00reverse acquisition time	0.00gamma	496.2192k internal	0.2314k external	0.2314temperature offset calibration	1.0210default loss term (dB/km)	0.3790temperature slope calibration	1.0000multiplexer offset coefficient	1.0000multiplexer slope coefficient	1.0000fibre end	0.00T internal ref (°C)	35.19T ext. ref 1 (°C)	4.60T ext. ref 2 (°C)	31.89length (m)	temperature (°C)	Stokes	anti-Stokes-747.200	-138.483	0.269	0.030
-746.185	-75.681	0.162	0.058
-745.171	-41.751	0.124	0.065
-744.156	-55.231	0.038	-0.017
-743.142	-68.910	-0.115	-0.045
-742.127	-80.265	-0.048	0.016
-741.112	747.669	0.093	0.255
-740.098	-140.212	-0.280	0.030
-739.083	800.000	0.057	-0.211
-738.069	-110.744	-0.243	0.051
-737.054	65.668	0.108	0.111
-736.039	-129.264	-0.437	-0.062
-735.025	98.262	-0.088	-0.103
-734.010	800.000	0.034	0.126
-732.996	-141.886	-0.215	0.022
-731.981	244.623	0.061	0.103
-730.966	-176.295	-0.172	0.005
-729.952	273.968	-0.071	-0.128
-728.937	281.757	-0.099	0.179
-727.923	286.803	-0.202	-0.370
-726.908	-132.840	0.066	0.009
-725.894	-200.000	0.055	0.320
-724.879	800.000	-0.103	-0.342
-723.864	800.000	-0.116	-0.410
-722.850	504.830	0.062	-0.146
-721.835	-115.141	-0.202	-0.039
-720.821	-21.914	0.011	-0.007
-719.806	142.888	-0.179	-0.241
-718.791	-119.674	0.201	-0.035
-717.777	800.000	0.050	-0.156
-716.762	28.904	0.118	-0.101
-715.748	800.000	-0.183	-0.585
-714.733	-184.243	0.367	-0.006
-713.718	-200.000	-0.014	-0.394
-712.704	138.411	-0.033	0.044
-711.689	800.000	-0.066	-0.248
-710.675	-24.589	0.262	-0.158
-709.660	-162.313	0.150	-0.008
-708.645	40.001	-0.329	-0.299
-707.631	800.000	0.085	-0.270
-706.616	72.693	-0.259	-0.274
-705.602	307.479	-0.128	-0.242
-704.587	98.099	-0.155	-0.180
-703.572	96.550	0.038	0.044
-702.558	-150.880	-0.057	-0.004
-701.543	800.000	0.047	-0.202
-700.529	-31.871	0.230	-0.131
-699.514	663.525	-0.033	0.086
-698.499	98.805	0.153	-0.178
-697.485	800.000	-0.037	0.147
-696.470	-66.587	-0.225	-0.090
-695.456	317.639	0.077	0.146
-694.441	800.000	-0.011	0.038
-693.426	0.449	0.095	-0.069
-692.412	193.225	0.176	-0.270
-691.397	-7.796	0.144	-0.098
-690.383	-2.054	0.292	-0.207
-689.368	-25.120	-0.284	0.171
-688.354	198.784	0.092	0.142
-687.339	-200.000	-0.038	0.239
-686.324	-98.496	0.107	-0.028
-685.310	-128.037	-0.348	0.051
-684.295	-200.000	-0.001	-0.067
-683.281	-65.008	-0.086	-0.035
-682.266	800.000	-0.014	-0.060
-681.251	-200.000	-0.029	0.144
-680.237	89.264	-0.161	0.182
-679.222	-200.000	-0.006	-0.059
-678.208	132.530	0.094	-0.123
-677.193	108.128	0.021	0.025
-676.178	-125.074	-0.110	-0.017
-675.164	96.289	0.253	0.293
-674.149	376.915	0.059	-0.122
-673.135	158.563	0.130	-0.182
-672.120	60.405	0.020	-0.020
-671.105	496.326	-0.078	-0.182
-670.091	-43.790	-0.253	-0.129
-669.076	130.031	-0.063	0.081
-668.062	-200.000	-0.009	-0.202
-667.047	47.794	0.058	-0.054
-666.032	-48.288	-0.207	-0.101
-665.018	-107.705	-0.095	0.021
-664.003	800.000	-0.113	-0.404
-662.989	-51.251	0.365	-0.172
-661.974	187.723	0.136	-0.205
-660.959	257.925	0.042	0.072
-659.945	38.811	-0.170	0.154
-658.930	-54.904	0.138	0.063
-657.916	-55.038	-0.486	0.221
-656.901	800.000	-0.044	0.172
-655.886	-59.391	-0.155	-0.067
-654.872	-141.187	0.217	0.022
-653.857	374.454	-0.012	-0.026
-652.843	727.880	0.084	0.226
-651.828	-112.787	0.190	-0.038
-650.814	-5.072	0.103	-0.071
-649.799	118.580	0.196	-0.245
-648.784	-27.868	-0.138	-0.081
-647.770	154.578	0.174	-0.241
-646.755	-95.526	-0.250	-0.068
-645.741	-200.000	0.058	-0.282
-644.726	-10.954	0.121	-0.081
-643.711	-65.087	-0.139	-0.057
-642.697	-154.980	0.042	0.003
-641.682	509.079	-0.099	0.231
-640.668	-40.314	-0.262	0.137
-639.653	57.250	0.322	-0.318
-638.638	-92.206	-0.373	-0.106
-637.624	-121.327	0.210	-0.035
-636.609	-200.000	0.084	-0.468
-635.595	-3.983	-0.116	0.081
-634.580	-64.850	-0.404	0.165
-633.565	65.684	0.173	0.177
-632.551	325.184	-0.200	-0.387
-631.536	-200.000	0.027	0.336
-630.522	-147.758	-0.200	0.017
-629.507	800.000	-0.042	-0.120
-628.492	-152.155	0.268	-0.020
-627.478	403.782	0.112	0.238
-626.463	103.776	0.056	-0.066
-625.449	110.644	-0.131	-0.159
-624.434	50.344	-0.061	0.058
-623.419	293.294	-0.096	0.177
-622.405	-200.000	0.034	-0.186
-621.390	-140.882	0.068	0.007
-620.376	317.016	0.054	-0.103
-619.361	-32.894	-0.351	0.196
-618.346	-159.305	-0.399	-0.023
-617.332	800.000	-0.058	-0.240
-616.317	221.335	-0.130	-0.210
-615.303	-59.656	0.073	-0.032
-614.288	-59.816	-0.222	0.096
-613.273	20.385	-0.234	0.191
-612.259	22.374	-0.245	0.202
-611.244	55.311	0.193	-0.189
-610.230	-69.792	0.282	-0.109
-609.215	101.270	-0.150	0.176
-608.201	288.096	0.030	-0.054
-607.186	-200.000	-0.051	-0.368
-606.171	-99.419	-0.061	-0.016
-605.157	321.205	0.063	-0.121
-604.142	29.185	0.074	-0.063
-603.128	-115.386	0.175	0.033
-602.113	-125.391	0.158	0.024
-601.098	-0.179	-0.112	0.080
-600.084	-72.332	0.142	0.053
-599.069	29.325	-0.204	-0.175
-598.055	-8.563	-0.151	0.102
-597.040	-90.747	-0.099	-0.029
-596.025	-8.647	0.361	0.244
-595.011	189.141	-0.117	-0.176
-593.996	-125.822	0.155	0.024
-592.982	-200.000	-0.033	0.206
-591.967	-200.000	0.017	-0.077
-590.952	63.414	0.183	0.185
-589.938	-17.229	0.045	0.028
-588.923	98.029	0.121	-0.140
-587.909	-200.000	0.015	0.156
-586.894	29.643	-0.211	0.181
-585.879	-200.000	-0.062	-0.276
-584.865	800.000	-0.079	0.230
-583.850	-3.490	-0.180	0.126
-582.836	-200.000	-0.032	0.153
-581.821	5.266	0.140	-0.104
-580.806	109.036	-0.073	-0.088
-579.792	166.148	-0.074	0.105
-578.777	-9.452	0.146	0.098
-577.763	216.017	-0.083	-0.133
-576.748	-162.127	-0.066	-0.003
-575.733	-194.329	-0.125	0.001
-574.719	-89.012	-0.272	0.081
-573.704	-200.000	0.011	0.103
-572.690	39.734	-0.169	0.153
-571.675	204.405	0.097	0.151
-570.661	-133.040	0.221	-0.028
-569.646	454.711	0.058	0.128
-568.631	148.320	0.145	-0.197
-567.617	-110.868	-0.149	-0.031
-566.602	-200.000	-0.055	0.323
-565.588	194.923	-0.030	-0.046
-564.573	-107.569	-0.282	-0.062
-563.558	100.132	0.132	0.154
-562.544	3.544	0.038	-0.028
-561.529	86.071	-0.130	0.144
-560.515	-64.530	-0.087	0.036
-559.500	-50.739	-0.270	-0.128
-558.485	157.168	0.134	-0.186
-557.471	447.757	-0.090	-0.198
-556.456	-200.000	-0.103	0.503
-555.442	247.634	0.021	0.036
-554.427	85.889	-0.152	-0.168
-553.412	369.602	-0.099	0.202
-552.398	19.432	0.077	-0.063
-551.383	800.000	-0.091	0.276
-550.369	456.304	0.039	-0.087
-549.354	74.592	0.359	-0.380
-548.339	-85.506	0.116	0.036
-547.325	117.510	-0.070	-0.087
-546.310	-200.000	0.027	-0.152
-545.296	-200.000	0.007	0.235
-544.281	264.333	-0.264	0.463
-543.266	-0.392	-0.187	0.134
-542.252	61.618	-0.135	0.135
-541.237	-163.021	0.234	0.011
-540.223	-122.751	-0.153	-0.025
-539.208	-200.000	0.018	0.193
-538.193	-200.000	-0.019	0.323
-537.179	435.387	-0.153	-0.334
-536.164	-78.852	-0.133	-0.046
-535.150	-20.184	0.112	0.069
-534.135	-103.614	-0.281	0.066
-533.121	-200.000	0.007	-0.046
-532.106	-0.885	-0.180	-0.128
-531.091	-65.210	-0.155	-0.063
-530.077	111.338	-0.100	-0.121
-529.062	-108.439	0.065	0.014
-528.048	219.538	-0.235	-0.378
-527.033	144.357	0.196	-0.263
-526.018	56.373	0.122	-0.119
-525.004	461.591	-0.036	-0.080
-523.989	275.849	-0.177	-0.316
-522.975	-64.453	-0.333	-0.136
-521.960	-1.829	-0.023	-0.016
-520.945	-61.652	-0.453	0.191
-519.931	-49.308	-0.396	-0.190
-518.916	-200.000	-0.005	0.339
-517.902	-158.192	-0.055	0.003
-516.887	94.184	-0.128	0.146
-515.872	156.908	-0.169	0.234
-514.858	-89.317	-0.168	0.050
-513.843	258.989	0.075	0.130
-512.829	-200.000	0.032	0.240
-511.814	-1.781	-0.222	-0.157
-510.799	-120.039	-0.456	-0.079
-509.785	800.000	-0.043	-0.180
-508.770	3.932	-0.114	0.084
-507.756	-24.879	0.186	0.111
-506.741	-200.000	-0.048	-0.265
-505.726	-46.677	-0.255	0.125
-504.712	-200.000	-0.007	0.155
-503.697	-119.492	0.532	-0.093
-502.683	4.955	0.153	0.113
-501.668	-152.710	-0.350	0.025
-500.653	-50.485	0.439	-0.208
-499.639	173.691	-0.226	-0.328
-498.624	76.457	0.055	0.059
-497.610	-27.811	0.284	-0.165
-496.595	-68.701	-0.297	0.115
-495.581	-162.159	0.143	0.007
-494.566	-5.422	-0.232	-0.160
-493.551	-200.000	0.040	-0.271
-492.537	-29.398	-0.415	-0.238
-491.522	439.959	0.131	0.286
-490.508	-200.000	-0.022	-0.165
-489.493	68.005	0.375	0.386
-488.478	800.000	0.034	-0.127
-487.464	-110.575	0.252	-0.052
-486.449	-70.247	-0.114	0.044
-485.435	-132.889	0.292	0.037
-484.420	33.377	0.105	-0.091
-483.405	137.483	-0.089	0.117
-482.391	-4.392	0.202	-0.140
-481.376	800.000	0.033	-0.115
-480.362	-200.000	0.053	0.311
-479.347	-119.044	0.153	-0.027
-478.332	520.771	-0.107	-0.251
-477.318	99.542	-0.045	0.052
-476.303	-56.045	0.157	0.070
-475.289	-200.000	-0.017	-0.082
-474.274	48.309	0.240	-0.225
-473.259	241.110	-0.179	-0.299
-472.245	-15.043	-0.143	0.092
-471.230	180.808	0.084	0.123
-470.216	-155.238	0.218	-0.014
-469.201	-88.296	-0.176	-0.053
-468.186	-39.024	-0.218	0.115
-467.172	-98.426	0.387	0.099
-466.157	250.132	-0.205	0.349
-465.143	-118.686	-0.218	-0.039
-464.128	339.265	-0.096	-0.188
-463.113	-9.507	0.181	-0.121
-462.099	-52.864	0.137	0.063
-461.084	669.534	-0.027	-0.070
-460.070	-28.045	0.182	-0.105
-459.055	-103.932	0.090	-0.021
-458.040	-142.545	0.157	-0.015
-457.026	155.921	0.062	-0.086
-456.011	-138.521	0.245	0.027
-454.997	-156.953	-0.460	-0.028
-453.982	-45.425	0.032	0.016
-452.968	86.705	0.073	0.081
-451.953	800.000	0.044	0.192
-450.938	-200.000	-0.018	0.226
-449.924	800.000	-0.056	0.222
-448.909	-200.000	0.030	-0.226
-447.895	-200.000	0.036	-0.308
-446.880	-9.133	-0.141	-0.094
-445.865	-200.000	0.025	0.172
-444.851	-146.373	0.241	-0.021
-443.836	169.421	0.190	0.272
-442.822	-55.440	-0.147	-0.066
-441.807	-200.000	-0.036	0.448
-440.792	210.529	-0.022	0.035
-439.778	-200.000	0.017	-0.098
-438.763	59.396	0.114	-0.113
-437.749	-59.546	-0.234	-0.101
-436.734	302.118	0.114	-0.211
-435.719	-102.750	-0.242	-0.058
-434.705	23.493	0.202	-0.166
-433.690	310.200	-0.095	-0.179
-432.676	-103.300	0.341	0.080
-431.661	800.000	0.032	0.136
-430.646	25.602	0.095	-0.079
-429.632	-111.697	-0.142	0.029
-428.617	-5.474	0.339	-0.233
-427.603	-42.688	0.064	-0.033
-426.588	800.000	0.017	-0.051
-425.573	800.000	0.087	-0.244
-424.559	-200.000	0.018	0.147
-423.544	-19.430	-0.115	-0.071
-422.530	-200.000	0.035	-0.295
-421.515	-178.189	-0.083	-0.002
-420.500	-125.251	-0.158	-0.024
-419.486	-13.968	-0.119	0.077
-418.471	800.000	-0.008	0.031
-417.457	-200.000	0.023	0.184
-416.442	-66.479	-0.387	0.154
-415.428	-156.359	0.223	-0.014
-414.413	-142.369	-0.290	0.029
-413.398	-68.014	0.274	-0.107
-412.384	-76.990	-0.087	-0.030
-411.369	-99.993	0.303	0.076
-410.355	612.349	-0.141	-0.354
-409.340	-200.000	0.001	-0.278
-408.325	315.922	-0.210	-0.396
-407.311	-97.162	0.281	-0.073
-406.296	-39.022	-0.184	-0.097
-405.282	543.809	0.028	0.067
-404.267	-63.358	0.225	0.093
-403.252	-200.000	-0.046	-0.266
-402.238	-142.764	0.181	0.018
-401.223	-68.248	0.229	-0.089
-400.209	-200.000	-0.009	-0.085
-399.194	343.188	0.182	-0.356
-398.179	-94.910	-0.222	-0.060
-397.165	-40.082	-0.238	-0.124
-396.150	-200.000	-0.023	0.131
-395.136	-15.909	-0.208	-0.133
-394.121	359.469	0.169	-0.338
-393.106	-91.331	-0.299	-0.086
-392.092	800.000	-0.051	0.197
-391.077	-95.479	-0.519	0.139
-390.063	208.839	-0.089	0.140
-389.048	168.052	0.053	-0.075
-388.033	-200.000	0.039	-0.233
-387.019	-182.117	-0.112	-0.002
-386.004	119.127	-0.029	-0.035
-384.990	-108.462	-0.254	-0.055
-383.975	-153.827	0.231	0.016
-382.960	800.000	0.026	-0.101
-381.946	-200.000	0.230	0.001
-380.931	40.435	-0.215	-0.193
-379.917	-133.190	0.137	0.017
-378.902	-45.412	-0.095	-0.047
-377.888	-57.150	-0.117	0.052
-376.873	-168.759	0.094	0.004
-375.858	800.000	0.080	0.327
-374.844	-22.264	0.169	0.102
-373.829	161.049	0.234	-0.327
-372.815	800.000	0.074	-0.220
-371.800	39.628	-0.201	0.180
-370.785	-200.000	-0.003	-0.084
-369.771	-200.000	-0.004	0.121
-368.756	-104.454	0.078	0.018
-367.742	109.964	-0.155	-0.186
-366.727	195.706	0.194	0.294
-365.712	159.020	0.083	0.115
-364.698	-128.372	0.115	0.016
-363.683	-44.428	-0.155	-0.078
-362.669	220.806	0.089	0.142
-361.654	-41.321	0.117	0.060
-360.639	-24.953	-0.087	0.052
-359.625	543.324	0.007	-0.017
-358.610	79.335	-0.019	-0.021
-357.596	-170.924	-0.210	-0.007
-356.581	-86.785	0.156	-0.048
-355.566	-3.561	-0.124	0.086
-354.552	-7.121	0.249	0.169
-353.537	-34.381	0.021	-0.011
-352.523	122.428	-0.142	-0.177
-351.508	531.807	-0.137	0.325
-350.493	-200.000	-0.086	0.000
-349.479	17.780	-0.129	-0.102
-348.464	-39.196	-0.025	-0.013
-347.450	-200.000	-0.013	0.279
-346.435	478.189	-0.093	-0.211
-345.420	-126.108	0.107	0.016
-344.406	-200.000	0.034	0.158
-343.391	89.484	-0.105	0.117
-342.377	800.000	0.058	0.240
-341.362	-22.684	0.221	0.133
-340.348	-117.316	0.225	0.041
-339.333	-172.587	-0.305	0.010
-338.318	227.704	0.044	0.072
-337.304	-60.494	0.246	0.104
-336.289	8.461	-0.036	0.027
-335.275	-84.322	0.082	-0.026
-334.260	378.635	-0.129	-0.263
-333.245	-200.000	0.010	0.149
-332.231	-200.000	-0.001	-0.189
-331.216	-49.521	-0.102	-0.049
-330.202	800.000	-0.083	-0.278
-329.187	-101.194	-0.235	-0.057
-328.172	218.531	0.210	0.335
-327.158	-200.000	0.069	-0.382
-326.143	-200.000	0.011	0.129
-325.129	32.327	-0.086	-0.074
-324.114	204.495	0.011	-0.018
-323.099	-200.000	0.029	0.557
-322.085	594.797	0.122	0.301
-321.070	32.498	0.132	0.114
-320.056	148.976	-0.054	0.073
-319.041	-82.769	0.218	0.070
-318.026	29.534	0.317	0.269
-317.012	21.431	0.123	-0.100
-315.997	-53.378	-0.224	0.102
-314.983	110.580	0.085	-0.102
-313.968	8.549	0.231	0.173
-312.953	-20.320	-0.055	0.033
-311.939	-11.450	0.121	0.079
-310.924	790.920	-0.134	-0.368
-309.910	-179.724	-0.302	0.007
-308.895	800.000	-0.040	-0.150
-307.880	30.542	0.214	0.182
-306.866	-200.000	0.007	-0.120
-305.851	-29.900	0.401	0.228
-304.837	211.751	-0.187	0.294
-303.822	349.804	-0.043	0.084
-302.807	580.061	-0.075	-0.184
-301.793	-116.383	-0.114	0.021
-300.778	-56.002	-0.179	0.079
-299.764	46.587	0.134	-0.124
-298.749	94.892	0.223	-0.253
-297.735	-200.000	0.009	0.141
-296.720	7.586	0.327	0.244
-295.705	29.571	-0.134	0.114
-294.691	164.371	0.208	-0.292
-293.676	-200.000	-0.055	0.300
-292.662	800.000	0.138	0.387
-291.647	-125.193	0.260	0.040
-290.632	-90.459	-0.561	0.162
-289.618	292.822	0.180	-0.328
-288.603	-110.136	0.062	-0.013
-287.589	800.000	0.060	-0.216
-286.574	-200.000	-0.022	0.165
-285.559	-157.858	-0.229	0.013
-284.545	-200.000	0.026	0.223
-283.530	-200.000	0.022	0.336
-282.516	85.093	0.007	0.008
-281.501	86.891	0.090	-0.098
-280.486	-83.084	-0.111	-0.036
-279.472	65.382	0.022	-0.023
-278.457	32.681	0.318	-0.274
-277.443	-200.000	-0.037	-0.289
-276.428	-47.141	0.268	-0.130
-275.413	-98.264	0.252	0.064
-274.399	-192.310	-0.341	0.003
-273.384	-129.887	-0.336	0.046
-272.370	204.665	-0.026	-0.040
-271.355	-183.845	0.283	-0.005
-270.340	148.497	-0.155	-0.208
-269.326	-200.000	0.031	-0.304
-268.311	-114.146	0.100	-0.019
-267.297	725.768	0.073	-0.194
-266.282	800.000	0.074	-0.244
-265.267	-37.492	0.125	-0.067
-264.253	243.747	-0.022	-0.037
-263.238	309.054	0.198	-0.367
-262.224	-194.040	-0.120	0.001
-261.209	535.310	0.136	-0.320
-260.195	85.447	0.101	-0.111
-259.180	-200.000	-0.034	0.152
-258.165	-185.253	-0.401	0.006
-257.151	36.292	0.347	0.304
-256.136	586.363	0.086	0.211
-255.122	800.000	-0.044	-0.171
-254.107	133.102	0.199	0.256
-253.092	147.962	-0.060	-0.081
-252.078	4.491	0.188	0.137
-251.063	29.791	0.179	-0.152
-250.049	-200.000	-0.012	0.193
-249.034	21.673	-0.136	0.110
-248.019	-39.886	-0.258	0.134
-247.005	34.292	0.180	-0.156
-245.990	-97.299	0.449	0.116
-244.976	19.456	-0.154	0.123
-243.961	-119.245	0.266	-0.046
-242.946	44.454	0.139	0.127
-241.932	7.243	-0.121	0.090
-240.917	-88.836	-0.048	0.014
-239.903	-48.322	0.277	0.133
-238.888	139.483	0.098	0.129
-237.873	-99.003	0.163	-0.041
-236.859	544.192	-0.061	0.144
-235.844	-146.579	0.326	0.028
-234.830	800.000	0.088	-0.264
-233.815	18.023	0.240	0.190
-232.800	283.267	0.092	-0.164
-231.786	800.000	-0.072	-0.252
-230.771	111.567	0.184	0.221
-229.757	-99.418	0.195	0.049
-228.742	401.072	-0.026	0.054
-227.727	-132.802	0.240	0.030
-226.713	410.872	-0.123	0.259
-225.698	800.000	-0.038	0.134
-224.684	32.185	-0.250	-0.214
-223.669	-67.544	0.085	-0.033
-222.655	800.000	-0.045	0.193
-221.640	290.509	0.207	-0.374
-220.625	800.000	-0.051	-0.149
-219.611	-2.214	-0.345	-0.241
-218.596	-52.892	-0.200	0.092
-217.582	-87.792	0.174	0.052
-216.567	-96.589	0.142	-0.037
-215.552	-93.182	-0.197	0.054
-214.538	-29.579	0.146	-0.083
-213.523	-21.184	-0.333	-0.202
-212.509	150.673	0.129	0.173
-211.494	-127.285	-0.221	-0.032
-210.479	-200.000	-0.034	0.161
-209.465	-200.000	0.071	-0.418
-208.450	-152.172	-0.140	0.010
-207.436	31.905	0.357	0.305
-206.421	-40.452	0.233	-0.120
-205.406	163.564	-0.217	0.302
-204.392	172.586	0.062	-0.089
-203.377	197.215	-0.177	-0.267
-202.363	-86.597	0.120	-0.037
-201.348	-110.530	0.246	0.051
-200.333	-200.000	0.012	0.475
-199.319	-77.786	-0.129	-0.044
-198.304	-200.000	0.006	0.128
-197.290	74.029	-0.142	-0.148
-196.275	-89.632	0.186	-0.054
-195.260	182.311	0.167	0.244
-194.246	-71.942	0.150	0.055
-193.231	-73.040	0.344	-0.125
-192.217	-200.000	0.004	-0.063
-191.202	340.219	-0.044	0.084
-190.187	-200.000	0.004	-0.202
-189.173	-200.000	-0.028	-0.169
-188.158	8.180	0.166	-0.124
-187.144	39.853	0.114	-0.101
-186.129	-87.899	-0.209	-0.062
-185.114	-20.647	-0.115	0.070
-184.100	-93.266	-0.304	0.084
-183.085	-200.000	-0.004	0.153
-182.071	-131.561	-0.291	-0.038
-181.056	287.299	-0.071	0.128
-180.042	216.213	0.050	-0.078
-179.027	446.132	-0.131	0.286
-178.012	132.501	0.096	-0.123
-176.998	60.538	0.145	0.143
-175.983	15.041	-0.012	0.009
-174.969	310.243	-0.162	0.301
-173.954	-168.984	0.191	0.007
-172.939	-124.003	0.210	-0.033
-171.925	-35.828	0.113	-0.061
-170.910	-24.982	0.155	-0.091
-169.896	-200.000	-0.016	-0.313
-168.881	-37.788	0.155	-0.082
-167.866	800.000	0.124	0.440
-166.852	330.616	-0.053	-0.100
-165.837	94.083	-0.323	-0.363
-164.823	800.000	-0.040	-0.145
-163.808	-200.000	0.010	0.360
-162.793	498.006	-0.062	0.141
-161.779	-200.000	-0.039	0.290
-160.764	-128.494	-0.335	0.047
-159.750	261.997	-0.028	0.048
-158.735	311.892	-0.118	0.219
-157.720	365.570	0.050	0.100
-156.706	-200.000	0.005	0.226
-155.691	-152.399	0.206	-0.015
-154.677	-2.408	0.227	0.158
-153.662	316.333	-0.091	0.169
-152.647	-200.000	0.023	0.348
-151.633	-44.445	0.145	0.072
-150.618	-91.949	-0.043	-0.012
-149.604	312.356	-0.048	0.089
-148.589	138.045	0.316	0.411
-147.574	800.000	0.110	0.412
-146.560	800.000	-0.096	0.278
-145.545	46.117	-0.297	-0.272
-144.531	-41.478	0.264	0.135
-143.516	-200.000	0.042	-0.215
-142.502	90.310	0.145	0.161
-141.487	-134.664	0.406	0.049
-140.472	349.402	-0.070	-0.137
-139.458	-39.844	-0.338	-0.175
-138.443	-47.410	0.072	0.035
-137.429	-129.179	-0.380	0.052
-136.414	-50.678	0.061	-0.028
-135.399	-143.719	0.105	-0.010
-134.385	73.359	0.203	-0.210
-133.370	-200.000	0.031	0.250
-132.356	-45.423	0.310	-0.152
-131.341	-47.194	-0.149	0.072
-130.326	-200.000	-0.006	-0.194
-129.312	40.668	-0.087	0.077
-128.297	-200.000	0.051	0.244
-127.283	-27.384	0.155	0.089
-126.268	-200.000	0.030	0.441
-125.253	544.259	0.122	0.289
-124.239	-200.000	0.002	0.563
-123.224	-103.682	-0.139	0.032
-122.210	118.108	-0.086	-0.105
-121.195	-102.325	0.234	-0.055
-120.180	-200.000	-0.033	-0.172
-119.166	705.955	-0.096	0.250
-118.151	-160.203	-0.153	-0.008
-117.137	-70.279	-0.375	-0.141
-116.122	194.369	-0.119	-0.179
-115.107	796.443	0.101	0.276
-114.093	439.229	-0.017	-0.038
-113.078	-200.000	0.023	0.348
-112.064	134.074	0.181	0.231
-111.049	-149.784	0.298	0.023
-110.034	-119.019	0.270	-0.047
-109.020	489.513	0.139	0.313
-108.005	249.040	-0.052	0.088
-106.991	800.000	0.049	-0.136
-105.976	-88.361	-0.488	0.144
-104.962	800.000	-0.051	-0.150
-103.947	800.000	-0.056	0.161
-102.932	-56.833	-0.318	0.139
-101.918	-54.389	-0.298	-0.134
-100.903	-105.766	0.297	-0.066
-99.889	-156.525	0.165	-0.010
-98.874	52.799	-0.143	0.136
-97.859	800.000	0.081	-0.240
-96.845	-125.177	-0.240	0.036
-95.830	34.560	-0.150	-0.130
-94.816	367.925	-0.040	-0.079
-93.801	-118.745	0.238	0.041
-92.786	-134.894	-0.316	-0.038
-91.772	-34.082	0.128	0.070
-90.757	-103.040	-0.034	0.008
-89.743	86.885	-0.146	-0.159
-88.728	263.790	0.159	0.273
-87.713	51.035	0.232	-0.218
-86.699	59.903	-0.060	-0.059
-85.684	-48.106	0.049	0.023
-84.670	54.315	0.188	-0.179
-83.655	-71.756	0.251	0.092
-82.640	699.931	0.085	0.222
-81.626	-200.000	0.017	-0.203
-80.611	-130.111	0.429	0.058
-79.597	-138.222	0.238	-0.026
-78.582	-89.815	0.196	-0.057
-77.567	502.179	-0.075	-0.170
-76.553	-108.057	0.257	0.055
-75.538	-200.000	-0.036	-0.222
-74.524	-200.000	0.002	-0.133
-73.509	158.861	-0.075	0.103
-72.494	-176.595	-0.157	0.004
-71.480	-200.000	-0.032	-0.200
-70.465	157.276	0.103	0.141
-69.451	270.897	0.125	0.218
-68.436	-200.000	0.106	-0.555
-67.422	12.957	-0.227	0.173
-66.407	75.758	-0.134	-0.140
-65.392	131.515	-0.156	0.199
-64.378	-50.306	0.163	0.076
-63.363	-126.893	0.292	-0.042
-62.349	-191.341	0.209	-0.002
-61.334	69.173	-0.975	-0.990
-60.319	69.200	0.451	0.458
-59.305	-200.000	-0.080	-0.679
-58.290	95.183	0.813	0.913
-57.276	800.000	0.423	1.236
-56.261	-200.000	93.484	555.943
-55.246	641.983	1381.213	3472.703
-54.232	186.653	2610.323	3836.045
-53.217	117.319	2321.959	2817.105
-52.203	45.190	1933.364	1758.710
-51.188	38.558	1718.853	1512.511
-50.173	35.669	1673.645	1450.898
-49.159	52.249	1721.492	1619.641
-48.144	55.492	1739.658	1661.482
-47.130	38.240	1695.449	1489.253
-46.115	35.307	1680.665	1454.008
-45.100	35.127	1675.837	1448.415
-44.086	35.013	1673.595	1445.560
-43.071	34.990	1671.022	1443.103
-42.057	35.024	1668.451	1441.081
-41.042	35.038	1666.359	1439.328
-40.027	35.140	1664.195	1438.162
-39.013	35.037	1662.526	1435.892
-37.998	35.068	1661.193	1434.914
-36.984	35.013	1659.762	1433.209
-35.969	35.073	1658.259	1432.303
-34.954	35.289	1656.500	1432.342
-33.940	35.211	1654.487	1429.964
-32.925	35.179	1653.010	1428.392
-31.911	35.166	1651.573	1426.994
-30.896	35.165	1649.458	1425.105
-29.881	35.180	1647.899	1423.817
-28.867	35.166	1646.342	1422.312
-27.852	35.210	1644.580	1421.059
-26.838	35.139	1643.354	1419.415
-25.823	35.278	1641.546	1418.824
-24.809	35.181	1640.290	1416.967
-23.794	35.213	1638.749	1415.816
-22.779	35.207	1637.560	1414.685
-21.765	35.186	1635.847	1412.995
-20.750	35.180	1633.929	1411.240
-19.736	35.195	1632.883	1410.389
-18.721	35.326	1630.891	1409.576
-17.706	35.342	1629.388	1408.338
-16.692	35.219	1627.749	1405.968
-15.677	35.138	1626.426	1404.175
-14.663	35.301	1625.237	1404.282
-13.648	35.286	1623.332	1402.475
-12.633	35.214	1622.371	1401.060
-11.619	35.155	1620.689	1399.124
-10.604	35.235	1619.211	1398.373
-9.590	35.241	1617.550	1396.927
-8.575	35.218	1616.644	1395.919
-7.560	35.216	1615.545	1394.901
-6.546	35.196	1614.298	1393.627
-5.531	35.196	1613.080	1392.521
-4.517	35.176	1612.276	1391.624
-3.502	35.166	1611.259	1390.618
-2.487	35.264	1609.467	1389.724
-1.473	35.220	1598.601	1379.971
-0.458	32.526	1579.271	1344.033
0.556	31.078	1578.803	1307.885
1.571	28.220	1602.090	1306.690
2.586	27.154	1614.127	1308.718
3.600	23.502	1560.087	1239.324
4.615	14.316	1447.057	1089.602
5.629	6.227	1380.443	988.684
6.644	4.654	1371.171	972.130
7.659	4.592	1370.539	971.207
8.673	4.554	1369.392	970.072
9.688	4.591	1367.745	969.049
10.702	4.724	1364.665	967.612
11.717	8.512	1372.299	996.588
12.731	17.455	1388.857	1064.710
13.746	22.756	1396.832	1103.984
14.761	22.731	1395.903	1103.001
15.775	21.998	1392.798	1095.876
16.790	20.926	1390.788	1087.513
17.804	20.112	1388.660	1080.675
18.819	19.680	1387.561	1077.035
19.834	19.588	1386.282	1075.375
20.848	19.512	1384.819	1073.668
21.863	19.218	1383.827	1070.976
22.877	19.211	1382.698	1069.968
23.892	19.060	1381.765	1068.214
24.907	19.161	1380.864	1068.048
25.921	19.035	1380.156	1066.625
26.936	19.043	1379.446	1066.030
27.950	19.122	1377.933	1065.257
28.965	19.197	1377.276	1065.117
29.980	19.325	1376.449	1065.178
30.994	19.467	1375.215	1065.002
32.009	19.561	1373.897	1064.469
33.023	19.543	1372.704	1063.340
34.038	19.423	1371.160	1061.311
35.053	19.262	1370.255	1059.527
36.067	19.275	1369.056	1058.583
37.082	19.285	1368.184	1057.876
38.096	19.294	1367.706	1057.470
39.111	19.376	1366.657	1057.069
40.126	19.176	1365.969	1055.216
41.140	18.998	1364.628	1052.999
42.155	18.814	1364.057	1051.337
43.169	18.772	1363.239	1050.360
44.184	18.845	1363.156	1050.649
45.199	18.851	1362.681	1050.227
46.213	18.976	1362.373	1050.660
47.228	19.137	1361.885	1051.171
48.242	19.235	1360.460	1050.577
49.257	19.218	1358.952	1049.213
50.271	19.246	1357.484	1048.159
51.286	19.247	1356.349	1047.197
52.301	19.208	1354.866	1045.720
53.315	19.069	1353.841	1043.998
54.330	18.891	1352.975	1042.159
55.344	18.840	1351.956	1040.972
56.359	18.896	1350.588	1040.164
57.374	18.902	1349.259	1039.086
58.388	18.777	1348.865	1037.936
59.403	18.709	1348.657	1037.272
60.417	18.742	1347.796	1036.719
61.432	18.711	1347.181	1035.966
62.447	18.632	1345.561	1034.153
63.461	18.636	1344.162	1033.007
64.476	18.555	1343.772	1032.130
65.490	18.682	1341.690	1031.203
66.505	18.647	1340.740	1030.172
67.520	18.676	1339.186	1029.060
68.534	18.649	1338.737	1028.461
69.549	18.597	1337.591	1027.177
70.563	18.661	1336.106	1026.333
71.578	18.465	1335.496	1024.599
72.593	18.398	1334.372	1023.249
73.607	18.439	1333.873	1023.016
74.622	18.512	1332.909	1022.621
75.636	18.445	1332.155	1021.554
76.651	18.535	1332.002	1021.883
77.666	18.526	1330.891	1020.890
78.680	18.664	1331.001	1021.702
79.695	18.717	1330.220	1021.332
80.709	18.689	1330.029	1020.922
81.724	18.803	1328.995	1020.717
82.739	18.941	1328.148	1020.799
83.753	19.068	1327.492	1020.958
84.768	19.380	1325.914	1021.502
85.782	19.275	1325.685	1020.609
86.797	19.290	1324.661	1019.819
87.812	19.239	1323.218	1018.317
88.826	19.245	1322.177	1017.462
89.841	19.182	1321.135	1016.202
90.855	19.217	1320.145	1015.554
91.870	19.289	1319.281	1015.225
92.884	19.425	1317.964	1014.919
93.899	19.423	1317.186	1014.219
94.914	19.556	1316.784	1014.605
95.928	19.373	1316.598	1013.297
96.943	19.428	1314.816	1012.156
97.957	19.305	1314.207	1010.879
98.972	19.238	1313.417	1009.788
99.987	19.288	1312.579	1009.343
101.001	19.361	1310.977	1008.453
102.016	19.379	1310.115	1007.803
103.030	19.326	1309.503	1006.938
104.045	19.228	1308.849	1005.773
105.060	19.287	1306.673	1004.352
106.074	18.967	1305.371	1001.404
107.089	18.729	1303.757	998.692
108.103	18.670	1302.971	997.658
109.118	18.607	1301.509	996.083
110.133	18.736	1299.982	995.577
111.147	18.744	1298.666	994.525
112.162	18.768	1297.546	993.720
113.176	18.770	1296.714	993.006
114.191	18.818	1295.930	992.595
115.206	18.846	1294.783	991.791
116.220	18.713	1293.507	989.957
117.235	18.862	1292.128	989.671
118.249	18.743	1291.654	988.534
119.264	18.741	1290.334	987.425
120.279	18.665	1289.122	985.978
121.293	18.502	1288.210	984.255
122.308	18.579	1286.982	983.673
123.322	18.442	1285.781	981.880
124.337	18.425	1285.136	981.203
125.352	18.507	1283.384	980.250
126.366	18.449	1282.768	979.360
127.381	18.342	1282.252	978.271
128.395	18.466	1281.113	978.018
129.410	18.532	1280.166	977.585
130.424	18.636	1279.238	977.383
131.439	18.709	1278.704	977.308
132.454	18.803	1277.930	977.165
133.468	18.882	1276.944	976.768
134.483	18.858	1276.052	975.867
135.497	18.759	1275.703	974.952
136.512	18.818	1273.725	973.689
137.527	18.874	1272.318	972.841
138.541	18.834	1271.342	971.784
139.556	19.033	1269.406	971.342
140.570	19.007	1269.171	970.931
141.585	19.137	1268.072	970.735
142.600	19.274	1266.615	970.304
143.614	19.242	1265.836	969.445
144.629	19.350	1265.303	969.556
145.643	19.306	1264.086	968.290
146.658	19.174	1262.654	966.368
147.673	19.059	1261.001	964.370
148.687	18.915	1260.060	962.761
149.702	18.816	1258.453	960.895
150.716	18.747	1256.734	959.114
151.731	18.794	1255.812	958.585
152.746	18.829	1254.751	957.885
153.760	18.910	1253.483	957.282
154.775	18.972	1252.802	957.027
155.789	19.101	1251.490	956.655
156.804	19.133	1250.630	956.089
157.819	19.190	1249.272	955.284
158.833	19.165	1248.699	954.624
159.848	19.427	1248.114	955.544
160.862	19.367	1246.640	953.999
161.877	19.094	1245.641	951.638
162.892	18.877	1244.224	949.273
163.906	18.869	1243.565	948.645
164.921	18.931	1242.374	947.994
165.935	18.972	1241.374	947.374
166.950	19.107	1240.888	947.663
167.964	19.118	1240.228	947.133
168.979	18.899	1239.838	945.547
169.994	19.106	1238.084	945.262
171.008	19.007	1237.745	944.377
172.023	19.167	1237.125	944.698
173.037	19.371	1236.179	945.009
174.052	19.220	1235.810	943.816
175.067	19.030	1233.808	941.168
176.081	18.899	1232.755	939.563
177.096	18.947	1231.763	938.986
178.110	19.050	1230.901	938.805
179.125	19.009	1229.657	937.552
180.140	19.045	1228.491	936.779
181.154	19.194	1227.392	936.663
182.169	19.227	1226.472	936.058
183.183	19.462	1225.298	936.354
184.198	19.388	1224.240	935.066
185.213	19.353	1223.243	934.031
186.227	19.418	1222.050	933.389
187.242	19.390	1221.557	932.779
188.256	19.492	1220.405	932.366
189.271	19.625	1219.624	932.403
190.286	19.389	1218.316	930.050
191.300	18.978	1217.089	926.816
192.315	18.860	1216.032	925.297
193.329	18.941	1215.943	925.583
194.344	19.025	1215.148	925.343
195.359	19.111	1214.839	925.489
196.373	19.170	1214.258	925.282
197.388	19.429	1213.957	926.363
198.402	19.484	1214.025	926.628
199.417	19.748	1213.029	927.200
200.432	19.808	1212.429	926.985
201.446	19.768	1212.120	926.451
202.461	19.930	1210.844	926.259
203.475	19.945	1209.833	925.484
204.490	19.708	1208.760	923.317
205.504	19.468	1207.212	920.771
206.519	19.510	1205.577	919.666
207.534	19.395	1205.118	918.623
208.548	19.347	1204.265	917.634
209.563	19.481	1203.090	917.371
210.577	19.491	1202.153	916.628
211.592	19.566	1201.263	916.269
212.607	19.745	1200.474	916.537
213.621	19.695	1200.376	916.115
214.636	19.659	1198.584	914.473
215.650	19.713	1197.928	914.176
216.665	19.799	1197.406	914.156
217.680	19.913	1196.581	914.044
218.694	19.965	1196.025	913.812
219.709	19.899	1195.036	912.628
220.723	19.900	1194.260	911.959
221.738	19.885	1193.705	911.378
222.753	19.842	1192.810	910.387
223.767	19.864	1192.060	909.852
224.782	20.036	1191.376	910.151
225.796	20.095	1190.956	910.062
226.811	20.056	1190.411	909.357
227.826	19.903	1189.481	907.763
228.840	19.859	1188.284	906.540
229.855	19.957	1187.331	906.247
230.869	19.812	1186.747	904.964
231.884	19.705	1186.356	904.025
232.899	19.670	1185.190	902.875
233.913	19.607	1184.490	901.929
234.928	19.597	1183.785	901.264
235.942	19.566	1182.803	900.272
236.957	19.613	1181.956	899.793
237.972	19.631	1180.901	899.004
238.986	19.700	1180.491	898.972
240.001	19.699	1179.800	898.361
241.015	19.728	1178.992	897.814
242.030	19.784	1178.666	897.778
243.045	19.890	1177.403	897.286
244.059	19.861	1176.680	896.505
245.074	19.846	1175.999	895.829
246.088	19.907	1175.303	895.538
247.103	20.057	1174.501	895.622
248.117	20.152	1174.117	895.739
249.132	20.343	1173.498	896.178
250.147	20.467	1173.198	896.506
251.161	20.750	1172.327	897.222
252.176	20.743	1171.829	896.724
253.190	20.631	1171.513	895.827
254.205	20.711	1171.242	895.954
255.220	20.795	1170.330	895.607
256.234	20.737	1169.601	894.674
257.249	20.763	1168.879	894.173
258.263	20.656	1168.252	893.066
259.278	20.746	1166.996	892.489
260.293	20.733	1166.977	892.330
261.307	20.881	1166.147	892.375
262.322	20.917	1165.935	892.314
263.336	20.861	1165.598	891.695
264.351	20.945	1164.460	891.172
265.366	20.943	1164.080	890.791
266.380	20.865	1163.205	889.645
267.395	20.802	1162.261	888.523
268.409	20.697	1161.662	887.451
269.424	20.580	1160.806	886.125
270.439	20.799	1160.013	886.554
271.453	20.698	1159.172	885.322
272.468	20.605	1158.158	883.995
273.482	20.517	1157.392	882.885
274.497	20.635	1156.689	882.870
275.512	20.544	1156.007	881.810
276.526	20.510	1155.677	881.305
277.541	20.645	1154.816	881.257
278.555	20.601	1154.644	880.825
279.570	20.901	1153.588	881.455
280.585	20.927	1153.115	881.149
281.599	20.967	1151.969	880.396
282.614	20.886	1150.589	878.859
283.628	20.750	1149.553	877.303
284.643	20.717	1148.949	876.596
285.657	20.666	1148.237	875.721
286.672	20.658	1147.622	875.132
287.687	20.815	1146.289	874.827
288.701	20.802	1145.371	873.986
289.716	20.862	1144.512	873.554
290.730	20.756	1144.067	872.607
291.745	20.965	1143.266	872.963
292.760	20.915	1142.481	872.038
293.774	21.025	1142.199	872.295
294.789	21.072	1141.600	871.995
295.803	21.150	1140.955	871.816
296.818	20.790	1140.452	869.553
297.833	20.857	1139.233	868.883
298.847	20.839	1138.728	868.332
299.862	20.859	1137.792	867.638
300.876	21.042	1137.031	867.895
301.891	20.994	1136.385	867.086
302.906	21.126	1135.991	867.363
303.920	21.214	1135.415	867.282
304.935	21.330	1134.757	867.282
305.949	21.407	1134.137	867.113
306.964	21.330	1133.566	866.217
307.979	21.198	1132.802	864.901
308.993	21.225	1131.616	864.053
310.008	21.290	1131.029	863.852
311.022	21.348	1130.431	863.607
312.037	21.342	1129.316	862.649
313.052	21.338	1128.335	861.800
314.066	21.054	1127.108	859.390
315.081	20.944	1126.275	858.135
316.095	20.818	1125.749	857.041
317.110	21.000	1124.753	857.101
318.125	20.900	1124.376	856.248
319.139	20.887	1124.089	855.889
320.154	20.883	1123.255	855.158
321.168	20.925	1122.430	854.662
322.183	20.940	1121.785	854.169
323.197	20.970	1121.352	853.905
324.212	21.027	1120.633	853.566
325.227	21.137	1119.898	853.464
326.241	21.205	1119.150	853.153
327.256	21.136	1118.400	852.168
328.270	21.068	1117.278	850.908
329.285	21.008	1116.255	849.762
330.300	20.966	1115.535	848.931
331.314	21.008	1114.654	848.390
332.329	21.056	1113.948	848.010
333.343	21.086	1113.112	847.445
334.358	21.224	1112.255	847.387
335.373	21.364	1111.571	847.472
336.387	21.411	1110.720	846.975
337.402	21.412	1110.212	846.518
338.416	21.371	1109.586	845.768
339.431	21.411	1109.138	845.547
340.446	21.632	1108.363	845.947
341.460	21.651	1108.013	845.696
342.475	21.756	1107.029	845.379
343.489	21.799	1106.350	844.990
344.504	21.805	1105.525	844.317
345.519	21.865	1104.282	843.580
346.533	21.953	1103.423	843.270
347.548	21.980	1103.083	843.066
348.562	21.941	1102.428	842.303
349.577	21.777	1100.778	840.185
350.592	21.547	1100.011	838.421
351.606	21.440	1099.527	837.467
352.621	21.486	1098.724	837.002
353.635	21.440	1097.790	835.994
354.650	21.356	1097.336	835.175
355.665	21.541	1096.700	835.499
356.679	21.660	1096.136	835.562
357.694	21.540	1095.857	834.706
358.708	21.711	1094.876	834.699
359.723	21.709	1094.476	834.309
360.738	21.809	1093.379	833.877
361.752	21.637	1093.385	832.988
362.767	21.730	1093.077	833.123
363.781	21.737	1092.262	832.462
364.796	21.892	1091.770	832.750
365.810	21.919	1091.710	832.758
366.825	22.164	1090.728	833.094
367.840	22.273	1090.100	833.056
368.854	22.311	1089.722	832.875
369.869	22.280	1088.825	831.968
370.883	22.148	1087.473	830.239
371.898	22.141	1086.954	829.736
372.913	21.944	1086.743	828.570
373.927	22.076	1086.238	828.737
374.942	22.201	1085.879	828.980
375.956	22.144	1085.266	828.168
376.971	22.084	1084.484	827.214
377.986	22.179	1083.797	827.064
379.000	22.279	1083.680	827.375
380.015	22.271	1083.186	826.887
381.029	22.365	1082.312	826.586
382.044	22.550	1081.455	826.729
383.059	22.486	1080.430	825.571
384.073	22.322	1079.899	824.325
385.088	22.425	1079.260	824.243
386.102	22.420	1078.125	823.284
387.117	22.232	1077.049	821.508
388.132	22.064	1075.792	819.692
389.146	22.127	1075.042	819.342
390.161	22.072	1074.446	818.559
391.175	22.155	1073.444	818.112
392.190	22.204	1073.385	818.220
393.205	22.365	1072.786	818.441
394.219	22.362	1072.062	817.803
395.234	22.317	1070.660	816.453
396.248	22.121	1069.646	814.699
397.263	22.052	1068.929	813.762
398.278	22.092	1067.906	813.096
399.292	22.010	1067.258	812.151
400.307	21.949	1066.320	811.085
401.321	21.957	1065.933	810.754
402.336	21.781	1065.376	809.444
403.350	22.011	1064.168	809.519
404.365	22.002	1064.114	809.362
405.380	22.212	1063.435	809.741
406.394	22.339	1062.583	809.605
407.409	22.459	1061.499	809.260
408.423	22.485	1061.470	809.284
409.438	22.586	1060.372	808.840
410.453	22.631	1059.988	808.683
411.467	22.627	1059.135	807.940
412.482	22.649	1058.759	807.686
413.496	22.803	1058.157	807.859
414.511	22.792	1057.410	807.165
415.526	22.878	1057.316	807.417
416.540	23.029	1056.744	807.599
417.555	23.009	1056.090	806.934
418.569	22.849	1055.101	805.377
419.584	22.789	1054.881	804.866
420.599	22.803	1054.346	804.448
421.613	154.122	1400.112	1788.295
422.628	141.550	1450.503	1788.407
