DTS Sentinel unit serial number:	SN413079Multiplexer serial number:	ORYXHardware model number:	OX4-SRSoftware version number:	ORYX F/W v4.00 Oryx Data Collector v3.7.2.0data status	okinstallation	princeton_trtdifferential loss correction	single-endedforward channel	channel 2reverse channel	N/Adate	2019/09/13time	15:23:35forward acquisition time	60.00reverse acquisition time	0.00gamma	496.2192k internal	0.2316k external	0.2316temperature offset calibration	1.0210default loss term (dB/km)	0.3790temperature slope calibration	1.0000multiplexer offset coefficient	1.0000multiplexer slope coefficient	1.0000fibre end	0.00T internal ref (°C)	35.31T ext. ref 1 (°C)	4.73T ext. ref 2 (°C)	29.31length (m)	temperature (°C)	Stokes	anti-Stokes-747.200	-76.319	0.200	-0.071
-746.185	36.268	-0.169	-0.151
-745.171	-65.256	0.296	-0.121
-744.156	-29.457	0.245	-0.142
-743.142	-121.415	-0.076	0.013
-742.127	-74.116	-0.262	-0.096
-741.112	171.085	-0.030	-0.043
-740.098	183.755	-0.173	0.259
-739.083	153.021	0.102	0.141
-738.069	-17.685	0.136	0.086
-737.054	-128.612	-0.236	0.034
-736.039	-200.000	0.009	-0.286
-735.025	-42.891	-0.031	0.016
-734.010	155.226	-0.313	-0.436
-732.996	535.222	-0.135	-0.324
-731.981	39.692	-0.161	-0.146
-730.966	-200.000	0.008	-0.441
-729.952	-33.387	-0.055	-0.031
-728.937	-76.580	-0.229	-0.081
-727.923	-122.732	-0.294	-0.048
-726.908	93.243	0.076	-0.087
-725.894	53.403	-0.235	-0.228
-724.879	-91.729	0.072	0.021
-723.864	-200.000	-0.001	-0.367
-722.850	-200.000	0.009	-0.243
-721.835	-21.739	0.095	-0.059
-720.821	129.052	0.139	-0.179
-719.806	-200.000	-0.091	-0.607
-718.791	-200.000	0.019	-0.172
-717.777	5.521	0.091	0.068
-716.762	-200.000	0.011	-0.091
-715.748	401.653	-0.046	-0.098
-714.733	42.983	0.186	0.172
-713.718	-17.297	-0.163	-0.104
-712.704	5.663	-0.307	-0.230
-711.689	123.987	0.152	-0.193
-710.675	349.180	0.163	0.326
-709.660	-68.858	-0.113	-0.044
-708.645	531.738	0.036	0.085
-707.631	402.810	-0.127	0.271
-706.616	447.884	0.089	-0.198
-705.602	-200.000	-0.011	0.127
-704.587	800.000	0.095	0.402
-703.572	255.237	-0.136	-0.236
-702.558	220.580	-0.085	0.137
-701.543	17.457	-0.091	-0.073
-700.529	-0.056	0.146	-0.105
-699.514	800.000	-0.019	0.062
-698.499	62.764	-0.235	0.237
-697.485	-200.000	0.011	0.223
-696.470	-169.953	0.081	-0.003
-695.456	-200.000	-0.029	-0.157
-694.441	-57.403	0.195	0.087
-693.426	-28.095	-0.026	0.015
-692.412	133.492	-0.163	0.213
-691.397	-200.000	-0.029	0.143
-690.383	-200.000	0.034	-0.267
-689.368	800.000	-0.080	0.238
-688.354	-4.808	-0.178	0.124
-687.339	343.620	-0.077	-0.152
-686.324	-96.354	-0.161	0.043
-685.310	162.832	-0.107	-0.151
-684.295	-61.354	-0.152	0.065
-683.281	800.000	-0.017	0.051
-682.266	240.706	-0.080	-0.135
-681.251	91.005	0.127	0.144
-680.237	436.033	0.047	0.104
-679.222	-144.991	0.150	-0.014
-678.208	-1.304	0.013	0.009
-677.193	800.000	-0.185	-0.537
-676.178	-200.000	-0.005	0.036
-675.164	271.802	0.051	0.091
-674.149	800.000	-0.093	-0.334
-673.135	-200.000	-0.063	-0.299
-672.120	10.966	-0.112	0.086
-671.105	180.555	-0.092	-0.137
-670.091	269.180	-0.024	-0.042
-669.076	800.000	-0.057	-0.164
-668.062	67.349	-0.173	-0.178
-667.047	248.670	-0.173	-0.296
-666.032	-134.775	0.380	-0.047
-665.018	156.362	-0.135	-0.188
-664.003	-99.782	-0.219	0.055
-662.989	58.887	-0.198	-0.197
-661.974	225.612	0.073	-0.120
-660.959	112.278	-0.077	-0.094
-659.945	-92.328	0.380	-0.108
-658.930	-5.255	0.085	0.059
-657.916	-200.000	0.018	-0.159
-656.901	115.522	0.031	-0.038
-655.886	35.837	-0.114	0.101
-654.872	-4.972	-0.186	0.129
-653.857	800.000	-0.038	0.149
-652.843	-200.000	0.008	-0.088
-651.828	-52.275	0.149	0.070
-650.814	41.823	0.288	0.263
-649.799	-87.791	0.236	0.072
-648.784	76.219	-0.426	-0.455
-647.770	-79.631	-0.379	-0.129
-646.755	800.000	-0.058	0.211
-645.741	-57.405	0.074	0.033
-644.726	-69.428	-0.131	-0.051
-643.711	295.378	0.099	-0.183
-642.697	44.429	-0.164	-0.152
-641.682	698.574	0.081	-0.216
-640.668	800.000	0.098	0.289
-639.653	421.988	-0.018	-0.038
-638.638	388.848	-0.023	0.048
-637.624	-200.000	-0.003	0.407
-636.609	800.000	0.066	0.187
-635.595	-200.000	0.002	0.407
-634.580	-200.000	-0.013	0.528
-633.565	637.695	-0.065	0.166
-632.551	162.868	0.143	0.202
-631.536	800.000	-0.072	0.213
-630.522	-105.893	-0.129	0.029
-629.507	-99.105	-0.172	0.044
-628.492	-117.842	0.089	0.016
-627.478	-125.508	0.148	-0.023
-626.463	23.099	0.180	-0.149
-625.449	-132.004	-0.169	0.022
-624.434	-8.297	-0.280	-0.190
-623.419	-131.932	-0.135	0.018
-622.405	692.929	-0.040	0.107
-621.390	-63.164	0.249	-0.104
-620.376	66.024	-0.283	-0.290
-619.361	34.230	-0.187	0.164
-618.346	53.086	-0.194	-0.187
-617.332	-200.000	0.044	-0.286
-616.317	205.821	-0.091	-0.142
-615.303	-112.396	0.466	-0.094
-614.288	-200.000	-0.010	0.222
-613.273	8.492	-0.247	-0.187
-612.259	-35.150	0.209	-0.114
-611.244	-24.907	-0.076	-0.046
-610.230	-8.249	-0.073	-0.050
-609.215	-62.235	-0.230	-0.096
-608.201	378.023	-0.076	0.157
-607.186	-200.000	0.020	0.102
-606.171	104.950	0.207	0.246
-605.157	95.556	0.177	0.204
-604.142	-110.405	0.140	-0.029
-603.128	800.000	-0.118	0.347
-602.113	-5.981	-0.305	0.210
-601.098	800.000	0.037	-0.154
-600.084	-17.755	0.069	-0.043
-599.069	79.473	0.131	0.141
-598.055	91.726	-0.150	0.170
-597.040	-51.032	0.240	0.114
-596.025	75.889	0.025	0.027
-595.011	-63.223	0.196	-0.081
-593.996	-36.911	-0.133	0.072
-592.982	60.820	-0.214	0.214
-591.967	45.269	-0.106	-0.098
-590.952	103.655	-0.264	-0.311
-589.938	800.000	-0.056	-0.187
-588.923	-200.000	-0.034	-0.198
-587.909	-200.000	0.001	-0.008
-586.894	81.848	0.250	0.273
-585.879	255.789	-0.068	-0.118
-584.865	20.608	-0.083	0.067
-583.850	125.296	0.232	-0.294
-582.836	303.496	-0.155	-0.290
-581.821	686.249	0.051	0.133
-580.806	100.135	-0.213	-0.249
-579.792	-21.058	0.100	-0.062
-578.777	-114.093	-0.366	-0.071
-577.763	-200.000	-0.017	-0.200
-576.748	-200.000	0.010	-0.234
-575.733	-200.000	-0.090	-0.442
-574.719	326.395	0.041	-0.079
-573.704	-200.000	-0.007	-0.065
-572.690	118.238	0.096	-0.119
-571.675	-140.526	0.234	-0.024
-570.661	42.570	0.051	0.047
-569.646	230.550	0.188	-0.309
-568.631	-42.121	-0.246	-0.126
-567.617	-200.000	-0.007	0.104
-566.602	-128.976	0.209	0.029
-565.588	-43.739	-0.120	0.061
-564.573	-78.234	-0.202	-0.070
-563.558	-147.721	0.224	-0.019
-562.544	-200.000	0.053	-0.358
-561.529	-127.246	0.202	-0.030
-560.515	-200.000	-0.007	-0.068
-559.500	436.645	0.221	0.483
-558.485	285.374	-0.086	-0.156
-557.471	-194.280	0.199	0.002
-556.456	800.000	-0.014	-0.043
-555.442	800.000	-0.091	0.260
-554.427	800.000	-0.150	-0.571
-553.412	-133.221	0.320	-0.041
-552.398	228.762	0.219	-0.358
-551.383	-200.000	0.042	0.235
-550.369	-34.550	0.293	0.161
-549.354	-30.532	0.382	0.218
-548.339	229.755	0.246	0.403
-547.325	508.003	-0.141	0.329
-546.310	800.000	0.130	0.504
-545.296	-200.000	-0.021	0.206
-544.281	31.190	0.238	0.206
-543.266	269.545	0.159	-0.281
-542.252	-58.575	0.199	-0.087
-541.237	-42.767	-0.416	0.213
-540.223	-200.000	0.031	0.158
-539.208	-58.475	-0.091	0.040
-538.193	-128.481	-0.204	0.029
-537.179	283.516	-0.005	-0.008
-536.164	92.592	-0.139	0.157
-535.150	-81.766	0.100	0.033
-534.135	-134.153	-0.319	-0.040
-533.121	34.432	0.258	0.226
-532.106	-173.515	-0.099	0.003
-531.091	800.000	-0.048	0.158
-530.077	-95.098	0.372	-0.101
-529.062	-69.300	-0.383	0.148
-528.048	800.000	-0.074	-0.269
-527.033	-200.000	0.004	-0.021
-526.018	8.290	0.037	0.028
-525.004	-1.751	-0.308	-0.218
-523.989	-193.130	-0.470	0.004
-522.975	800.000	-0.036	-0.119
-521.960	-172.350	0.298	0.010
-520.945	-96.831	-0.185	-0.049
-519.931	88.671	-0.141	-0.157
-518.916	-200.000	-0.041	0.230
-517.902	-13.826	0.175	0.113
-516.887	7.650	-0.350	0.263
-515.872	8.718	-0.166	0.125
-514.858	800.000	0.097	0.398
-513.843	2.205	0.140	0.101
-512.829	-57.644	-0.303	0.133
-511.814	88.025	0.155	0.172
-510.799	-54.534	-0.511	0.232
-509.785	324.758	0.118	0.227
-508.770	-200.000	-0.015	-0.124
-507.756	176.163	-0.111	-0.162
-506.741	800.000	-0.046	-0.132
-505.726	278.221	0.203	-0.364
-504.712	125.022	0.167	-0.212
-503.697	369.070	0.051	0.103
-502.683	-18.941	-0.039	-0.025
-501.668	-75.508	-0.224	0.080
-500.653	-100.132	0.294	0.073
-499.639	-92.119	0.233	0.066
-498.624	-112.847	0.205	-0.041
-497.610	138.967	-0.144	0.190
-496.595	-133.769	0.268	0.034
-495.581	-200.000	-0.003	-0.361
-494.566	800.000	0.117	-0.450
-493.551	356.851	-0.215	-0.430
-492.537	-94.826	-0.373	-0.102
-491.522	29.702	0.161	-0.137
-490.508	-50.286	-0.203	-0.096
-489.493	-69.718	0.143	0.055
-488.478	457.758	-0.137	-0.306
-487.464	-19.305	0.210	-0.131
-486.449	-200.000	0.022	-0.198
-485.435	800.000	-0.105	0.336
-484.420	-20.564	-0.088	-0.054
-483.405	-144.457	-0.405	-0.038
-482.391	800.000	-0.030	-0.106
-481.376	-46.691	-0.255	-0.125
-480.362	-200.000	0.062	-0.283
-479.347	284.269	0.107	-0.193
-478.332	-36.429	0.376	0.203
-477.318	-10.969	0.275	-0.182
-476.303	-68.368	-0.051	0.020
-475.289	-91.686	-0.461	0.132
-474.274	800.000	-0.082	-0.269
-473.259	-25.325	-0.302	0.179
-472.245	800.000	0.048	0.185
-471.230	154.306	0.179	0.247
-470.216	-200.000	-0.011	-0.268
-469.201	285.825	-0.174	-0.314
-468.186	800.000	-0.046	0.140
-467.172	-188.428	0.127	-0.002
-466.157	652.222	-0.015	0.038
-465.143	-56.984	-0.430	-0.190
-464.128	696.407	0.079	0.207
-463.113	282.153	-0.133	-0.239
-462.099	-58.234	0.153	-0.067
-461.084	2.351	0.268	-0.194
-460.070	-76.586	-0.144	-0.051
-459.055	-113.823	-0.172	-0.034
-458.040	-156.614	0.160	0.010
-457.026	176.017	0.053	-0.077
-456.011	-184.131	0.418	0.007
-454.997	800.000	0.020	-0.085
-453.982	800.000	0.019	0.078
-452.968	800.000	-0.084	0.297
-451.953	87.074	0.167	0.185
-450.938	-75.056	-0.266	0.095
-449.924	309.693	-0.091	0.170
-448.909	101.470	-0.177	0.207
-447.895	-200.000	0.012	-0.420
-446.880	265.215	-0.164	0.286
-445.865	155.773	0.260	-0.358
-444.851	-78.163	0.126	-0.043
-443.836	-54.579	0.125	0.057
-442.822	28.986	0.174	0.148
-441.807	-6.502	0.151	0.103
-440.792	97.320	-0.164	-0.188
-439.778	-200.000	0.058	0.320
-438.763	73.340	-0.265	-0.278
-437.749	-200.000	-0.031	-0.247
-436.734	-163.358	-0.061	-0.003
-435.719	194.543	-0.168	0.255
-434.705	-71.743	-0.209	0.078
-433.690	152.843	0.063	0.087
-432.676	800.000	-0.015	0.053
-431.661	-101.450	0.231	-0.056
-430.646	42.996	0.276	0.252
-429.632	-200.000	-0.054	0.265
-428.617	-135.357	0.350	0.042
-427.603	75.121	0.147	0.155
-426.588	-87.590	-0.425	0.128
-425.573	330.260	-0.074	-0.143
-424.559	-29.205	0.291	-0.167
-423.544	-62.314	0.282	-0.118
-422.530	-112.821	-0.349	-0.069
-421.515	-200.000	0.014	-0.135
-420.500	-89.637	0.217	0.064
-419.486	-178.848	-0.399	-0.009
-418.471	800.000	-0.044	-0.127
-417.457	-200.000	0.052	0.345
-416.442	-107.652	-0.227	-0.050
-415.428	800.000	-0.064	0.223
-414.413	671.879	0.130	-0.337
-413.398	193.158	-0.052	-0.078
-412.384	-29.563	0.163	-0.093
-411.369	-184.841	-0.038	-0.001
-410.355	-137.435	-0.382	0.043
-409.340	-200.000	-0.019	0.279
-408.325	55.401	0.277	0.268
-407.311	79.908	-0.148	0.159
-406.296	75.711	-0.208	0.220
-405.282	-200.000	0.016	-0.129
-404.267	800.000	0.039	0.161
-403.252	-177.491	0.243	-0.006
-402.238	617.422	0.110	0.276
-401.223	-138.216	0.149	0.016
-400.209	-4.896	0.026	-0.018
-399.194	-40.120	-0.267	-0.139
-398.179	441.828	0.025	0.054
-397.165	53.345	0.319	0.305
-396.150	115.568	-0.158	-0.193
-395.136	-200.000	-0.278	0.000
-394.121	47.051	0.238	0.221
-393.106	-200.000	-0.041	-0.181
-392.092	67.399	-0.143	0.146
-391.077	119.131	-0.065	0.080
-390.063	27.505	-0.017	-0.015
-389.048	800.000	-0.042	0.135
-388.033	-85.838	0.126	0.039
-387.019	346.602	0.055	0.108
-386.004	201.990	-0.124	0.191
-384.990	-76.282	-0.182	-0.064
-383.975	-143.007	0.273	-0.026
-382.960	-200.000	-0.012	0.266
-381.946	-76.350	-0.370	0.130
-380.931	488.369	0.033	0.076
-379.917	798.945	0.018	0.050
-378.902	-123.164	-0.373	0.060
-377.888	-23.745	-0.031	-0.019
-376.873	35.357	0.072	0.063
-375.858	301.753	0.095	0.175
-374.844	-167.869	0.518	0.020
-373.829	96.474	-0.029	0.033
-372.815	-18.995	0.158	-0.098
-371.800	258.958	-0.226	-0.390
-370.785	-0.823	0.092	0.065
-369.771	232.080	-0.058	0.095
-368.756	-113.271	-0.181	-0.035
-367.742	152.903	0.084	0.115
-366.727	231.721	0.082	0.134
-365.712	186.007	0.036	0.054
-364.698	191.268	-0.181	-0.272
-363.683	325.354	-0.069	0.132
-362.669	-47.752	-0.414	-0.200
-361.654	141.391	0.147	-0.194
-360.639	-200.000	0.010	0.290
-359.625	-152.958	0.124	-0.009
-358.610	-156.817	0.242	-0.015
-357.596	-78.938	0.161	0.055
-356.581	-200.000	-0.003	-0.393
-355.566	-45.812	-0.021	0.010
-354.552	-77.004	-0.170	-0.059
-353.537	-200.000	-0.017	-0.082
-352.523	800.000	-0.024	-0.079
-351.508	81.436	-0.370	-0.399
-350.493	-112.665	-0.236	0.047
-349.479	-200.000	0.017	0.199
-348.464	-10.651	0.175	0.116
-347.450	-5.826	-0.184	0.125
-346.435	-130.836	-0.161	0.022
-345.420	100.026	0.310	-0.358
-344.406	-65.651	-0.207	-0.083
-343.391	800.000	-0.021	0.059
-342.377	-200.000	0.038	-0.345
-341.362	-90.852	-0.263	-0.076
-340.348	184.392	-0.176	0.260
-339.333	-126.092	-0.114	0.017
-338.318	-106.305	-0.146	0.032
-337.304	800.000	0.088	-0.354
-336.289	-138.383	-0.286	-0.031
-335.275	-32.536	0.198	-0.110
-334.260	-131.111	-0.215	-0.029
-333.245	-102.758	-0.266	0.063
-332.231	234.344	0.248	0.407
-331.216	-160.234	0.264	-0.014
-330.202	256.079	-0.158	0.270
-329.187	140.743	0.236	0.310
-328.172	-94.791	-0.221	0.060
-327.158	199.350	0.060	-0.091
-326.143	582.433	0.165	0.404
-325.129	-113.536	0.127	-0.025
-324.114	765.366	-0.038	-0.102
-323.099	-112.731	0.392	-0.078
-322.085	-200.000	-0.015	-0.167
-321.070	-200.000	0.047	0.264
-320.056	-200.000	0.002	0.167
-319.041	-77.376	-0.081	-0.028
-318.026	-97.225	0.233	0.061
-317.012	-152.396	0.141	0.010
-315.997	141.103	-0.261	-0.344
-314.983	-200.000	0.064	-0.400
-313.968	4.463	-0.080	0.059
-312.953	231.266	-0.074	-0.120
-311.939	-73.527	0.059	0.022
-310.924	-158.164	-0.259	-0.015
-309.910	-102.324	-0.036	-0.009
-308.895	-200.000	0.016	0.357
-307.880	-200.000	-0.075	0.469
-306.866	646.509	-0.015	0.038
-305.851	35.469	0.144	0.125
-304.837	-116.068	-0.126	-0.023
-303.822	5.494	-0.165	-0.121
-302.807	-77.726	0.284	-0.098
-301.793	415.036	-0.182	-0.386
-300.778	346.827	-0.157	-0.307
-299.764	-114.388	0.250	-0.048
-298.749	-22.465	0.180	0.108
-297.735	96.249	0.062	-0.071
-296.720	800.000	0.104	-0.287
-295.705	364.188	-0.081	-0.163
-294.691	-155.185	0.111	-0.007
-293.676	-69.916	0.259	-0.098
-292.662	157.652	0.229	0.316
-291.647	-163.320	0.187	0.009
-290.632	216.083	-0.106	-0.168
-289.618	-94.101	0.214	-0.058
-288.603	788.173	-0.103	0.281
-287.589	29.003	-0.077	-0.065
-286.574	-39.053	0.283	0.148
-285.559	41.736	0.236	-0.213
-284.545	32.256	0.211	0.181
-283.530	-85.830	0.131	-0.041
-282.516	-37.682	-0.117	-0.062
-281.501	198.844	0.172	-0.262
-280.486	115.568	0.289	0.352
-279.472	800.000	0.084	-0.258
-278.457	16.709	-0.136	-0.107
-277.443	-132.133	-0.191	0.025
-276.428	-90.425	0.375	-0.108
-275.413	800.000	-0.121	-0.387
-274.399	-200.000	0.039	0.000
-273.384	73.656	-0.096	-0.100
-272.370	-95.492	0.289	-0.077
-271.355	71.557	0.050	0.052
-270.340	44.291	0.184	0.167
-269.326	-200.000	-0.034	-0.255
-268.311	71.894	0.178	0.184
-267.297	-76.080	0.230	0.081
-266.282	393.557	-0.063	0.129
-265.267	271.814	-0.101	-0.176
-264.253	-119.058	-0.196	0.034
-263.238	75.105	0.103	0.108
-262.224	-200.000	0.030	0.234
-261.209	64.933	0.084	0.085
-260.195	-87.788	0.157	0.047
-259.180	-200.000	0.015	-0.117
-258.165	-200.000	0.035	-0.279
-257.151	138.255	-0.275	-0.359
-256.136	-109.779	-0.275	0.057
-255.122	86.268	0.123	-0.134
-254.107	138.037	-0.250	0.325
-253.092	-200.000	-0.071	0.395
-252.078	-130.788	-0.088	-0.012
-251.063	-200.000	0.039	-0.482
-250.049	226.686	0.156	-0.252
-249.034	-157.348	-0.149	-0.009
-248.019	-75.143	0.222	-0.079
-247.005	56.276	-0.076	-0.074
-245.990	-200.000	0.063	-0.337
-244.976	-103.049	0.122	0.029
-243.961	675.053	-0.104	0.267
-242.946	-89.493	0.136	-0.040
-241.932	800.000	0.051	-0.174
-240.917	129.816	0.136	-0.173
-239.903	-200.000	-0.010	-0.081
-238.888	194.222	0.207	-0.311
-237.873	349.920	0.079	-0.154
-236.859	-146.143	-0.099	-0.009
-235.844	204.930	0.015	0.023
-234.830	180.065	0.092	0.133
-233.815	443.254	-0.091	-0.197
-232.800	55.925	-0.165	0.158
-231.786	313.382	-0.088	0.164
-230.771	224.504	0.096	0.154
-229.757	76.367	0.077	0.081
-228.742	508.343	0.128	0.295
-227.727	15.427	0.025	0.019
-226.713	97.158	0.142	0.162
-225.698	-20.999	0.030	0.018
-224.684	-62.148	-0.162	0.067
-223.669	14.691	0.149	0.116
-222.655	205.418	-0.182	-0.280
-221.640	-58.636	-0.205	-0.088
-220.625	40.830	0.202	0.181
-219.611	-200.000	0.020	-0.143
-218.596	-41.740	0.161	-0.082
-217.582	85.770	-0.249	-0.271
-216.567	-136.201	0.162	0.019
-215.552	800.000	0.091	0.325
-214.538	320.730	-0.093	0.175
-213.523	777.508	0.089	-0.241
-212.509	106.387	0.128	-0.150
-211.494	-49.551	0.102	-0.048
-210.479	303.240	-0.079	0.145
-209.465	311.385	0.048	-0.089
-208.450	456.512	-0.035	-0.076
-207.436	-22.254	0.077	-0.046
-206.421	12.260	-0.163	0.125
-205.406	-96.643	-0.143	0.037
-204.392	-158.817	-0.383	-0.022
-203.377	-200.000	-0.000	0.194
-202.363	301.726	-0.154	-0.283
-201.348	310.327	-0.150	-0.278
-200.333	294.356	0.069	-0.124
-199.319	303.056	0.085	0.156
-198.304	-200.000	-0.037	0.202
-197.290	-42.812	0.176	-0.089
-196.275	73.396	-0.079	0.082
-195.260	47.850	-0.150	0.139
-194.246	-200.000	-0.000	-0.140
-193.231	-200.000	0.006	0.118
-192.217	-131.157	-0.226	-0.030
-191.202	-200.000	0.003	-0.037
-190.187	300.253	0.047	0.087
-189.173	800.000	-0.059	-0.232
-188.158	-200.000	-0.007	-0.093
-187.144	800.000	0.022	0.083
-186.129	537.297	-0.070	-0.164
-185.114	-48.439	-0.097	0.046
-184.100	-20.219	0.070	-0.043
-183.085	-200.000	-0.027	0.143
-182.071	184.415	-0.106	0.156
-181.056	-22.793	0.153	-0.091
-180.042	357.973	0.144	-0.284
-179.027	-200.000	0.001	-0.025
-178.012	-90.365	0.156	-0.045
-176.998	49.965	-0.098	0.092
-175.983	428.758	0.096	-0.206
-174.969	10.909	-0.366	-0.277
-173.954	-30.957	-0.141	-0.079
-172.939	-200.000	0.017	0.140
-171.925	-6.583	0.145	0.097
-170.910	49.817	-0.069	-0.064
-169.896	-200.000	0.000	0.002
-168.881	-122.401	0.243	-0.039
-167.866	800.000	-0.054	-0.208
-166.852	16.907	0.149	0.117
-165.837	-189.967	0.174	-0.002
-164.823	-200.000	-0.060	0.429
-163.808	6.949	0.273	0.201
-162.793	193.679	-0.150	-0.224
-161.779	94.450	0.206	0.232
-160.764	-189.121	0.047	-0.001
-159.750	664.795	0.030	0.076
-158.735	177.704	0.192	0.277
-157.720	-200.000	-0.005	0.085
-156.706	70.618	0.246	0.252
-155.691	-116.535	-0.099	-0.018
-154.677	-124.523	-0.282	-0.043
-153.662	14.059	0.184	0.142
-152.647	471.235	-0.053	0.118
-151.633	-137.545	0.112	-0.012
-150.618	-71.905	0.065	-0.024
-149.604	-12.638	-0.300	-0.193
-148.589	800.000	0.058	0.170
-147.574	148.636	-0.168	-0.224
-146.560	-200.000	-0.032	-0.255
-145.545	174.222	0.158	-0.226
-144.531	206.112	-0.210	0.323
-143.516	7.351	0.296	-0.219
-142.502	-17.344	0.168	-0.105
-141.487	-200.000	0.031	0.325
-140.472	-100.272	-0.081	-0.020
-139.458	800.000	-0.120	-0.371
-138.443	340.634	0.065	-0.125
-137.429	800.000	-0.087	0.240
-136.414	-15.116	-0.036	0.023
-135.399	-106.288	0.157	-0.035
-134.385	-141.097	-0.304	0.031
-133.370	-162.166	0.120	0.006
-132.356	321.030	-0.080	0.150
-131.341	-200.000	-0.069	-0.386
-130.326	44.428	-0.188	0.171
-129.312	43.072	-0.164	-0.148
-128.297	-200.000	0.032	0.204
-127.283	277.903	0.191	0.336
-126.268	-26.049	0.094	-0.055
-125.253	-200.000	0.033	0.376
-124.239	-13.164	0.296	0.190
-123.224	-46.862	0.235	-0.114
-122.210	5.711	-0.163	0.119
-121.195	-200.000	0.004	0.023
-120.180	-200.000	0.022	0.200
-119.166	-131.512	0.183	-0.024
-118.151	-140.114	-0.228	-0.024
-117.137	12.328	-0.158	0.120
-116.122	800.000	-0.003	-0.008
-115.107	-200.000	0.025	0.169
-114.093	-9.283	0.304	0.201
-113.078	42.587	0.197	-0.177
-112.064	-77.279	-0.166	-0.057
-111.049	120.232	0.174	-0.213
-110.034	-30.798	-0.199	0.111
-109.020	60.165	0.070	-0.068
-108.005	-66.611	-0.244	-0.096
-106.991	-102.980	-0.230	-0.054
-105.976	-81.069	0.170	-0.055
-104.962	119.869	-0.100	-0.123
-103.947	-200.000	0.022	-0.102
-102.932	-200.000	0.014	-0.141
-101.918	52.754	-0.116	-0.110
-100.903	-200.000	0.027	0.189
-99.889	-80.155	0.171	0.056
-98.874	800.000	-0.051	0.187
-97.859	-61.704	0.392	-0.162
-96.845	-72.673	-0.353	-0.128
-95.830	-117.554	0.264	0.047
-94.816	-58.043	-0.156	0.067
-93.801	116.345	-0.055	-0.066
-92.786	-170.484	0.099	-0.003
-91.772	-25.421	0.072	-0.042
-90.757	10.425	-0.230	-0.173
-89.743	-23.505	0.111	-0.066
-88.728	165.775	-0.150	0.210
-87.713	356.802	-0.072	0.142
-86.699	-117.174	0.242	0.043
-85.684	566.830	0.116	0.277
-84.670	175.361	0.024	0.035
-83.655	-79.264	-0.154	-0.052
-82.640	-151.224	0.070	0.005
-81.626	800.000	0.086	0.301
-80.611	-200.000	-0.046	0.240
-79.597	-72.539	0.285	0.104
-78.582	40.806	-0.085	-0.076
-77.567	540.068	-0.100	0.234
-76.553	-10.159	0.387	-0.253
-75.538	204.491	0.083	-0.127
-74.524	-200.000	-0.037	-0.214
-73.509	187.060	0.133	0.196
-72.494	66.236	0.181	-0.181
-71.480	800.000	-0.024	0.103
-70.465	-85.057	0.140	-0.043
-69.451	-67.831	-0.238	0.092
-68.436	338.049	0.033	-0.063
-67.422	86.702	-0.071	-0.077
-66.407	-200.000	-0.061	-0.000
-65.392	-74.765	-0.086	0.030
-64.378	9.409	0.152	0.113
-63.363	70.423	-0.143	0.146
-62.349	134.423	0.120	-0.154
-61.334	209.990	-0.509	-0.788
-60.319	14.037	0.598	0.459
-59.305	-200.000	-0.096	-1.158
-58.290	12.380	0.702	0.533
-57.276	800.000	0.505	1.431
-56.261	-200.000	95.735	572.045
-55.246	657.412	1384.498	3508.791
-54.232	187.254	2610.047	3837.103
-53.217	117.620	2311.606	2804.412
-52.203	45.294	1924.202	1749.463
-51.188	38.653	1710.811	1504.619
-50.173	35.769	1665.839	1443.404
-49.159	52.980	1713.526	1616.007
-48.144	56.236	1732.044	1658.156
-47.130	38.302	1687.685	1481.383
-46.115	35.392	1672.814	1446.369
-45.100	35.328	1667.543	1441.280
-44.086	35.147	1665.864	1438.411
-43.071	35.104	1662.702	1435.298
-42.057	35.209	1659.927	1433.630
-41.042	35.134	1658.330	1431.633
-40.027	35.240	1656.100	1430.448
-39.013	35.172	1654.259	1428.293
-37.998	35.227	1652.706	1427.306
-36.984	35.096	1651.537	1425.260
-35.969	35.347	1649.830	1425.599
-34.954	35.318	1648.532	1424.204
-33.940	35.291	1646.649	1422.322
-32.925	35.332	1644.854	1421.022
-31.911	35.340	1642.751	1419.209
-30.896	35.293	1641.353	1417.597
-29.881	35.326	1639.660	1416.315
-28.867	35.249	1638.061	1414.315
-27.852	35.341	1636.553	1413.634
-26.838	35.325	1635.001	1412.119
-25.823	35.310	1633.452	1410.615
-24.809	35.321	1632.330	1409.671
-23.794	35.273	1630.868	1407.996
-22.779	35.272	1629.383	1406.656
-21.765	35.321	1627.462	1405.298
-20.750	35.257	1626.155	1403.645
-19.736	35.307	1624.446	1402.484
-18.721	35.509	1622.438	1402.168
-17.706	35.341	1621.357	1399.954
-16.692	35.329	1619.711	1398.384
-15.677	35.291	1618.438	1396.954
-14.663	35.302	1617.647	1396.300
-13.648	35.386	1615.694	1395.170
-12.633	35.302	1614.255	1393.258
-11.619	35.386	1612.302	1392.128
-10.604	35.403	1610.753	1390.858
-9.590	35.417	1609.750	1390.036
-8.575	35.367	1608.539	1388.576
-7.560	35.363	1607.347	1387.464
-6.546	35.411	1605.636	1386.275
-5.531	35.344	1605.161	1385.329
-4.517	35.316	1603.813	1383.905
-3.502	35.302	1603.184	1383.206
-2.487	35.463	1601.199	1382.598
-1.473	35.110	1589.366	1369.803
-0.458	31.674	1568.301	1327.290
0.556	29.697	1566.764	1286.957
1.571	26.580	1589.531	1283.485
2.586	25.401	1601.945	1284.971
3.600	22.227	1548.567	1220.053
4.615	13.738	1439.306	1078.883
5.629	6.173	1373.294	982.207
6.644	4.679	1364.276	966.394
7.659	4.631	1363.404	965.396
8.673	4.780	1362.166	965.353
9.688	4.820	1360.762	964.525
10.702	4.665	1358.931	962.181
11.717	8.376	1365.574	989.831
12.731	16.898	1380.693	1053.890
13.746	22.383	1389.418	1094.672
14.761	22.628	1388.342	1095.247
15.775	21.910	1385.863	1088.742
16.790	20.787	1383.507	1079.835
17.804	19.985	1381.356	1073.090
18.819	19.610	1379.698	1069.388
19.834	19.437	1379.147	1067.798
20.848	19.273	1377.973	1065.775
21.863	19.117	1376.779	1063.797
22.877	19.018	1375.376	1062.008
23.892	18.964	1374.875	1061.192
24.907	18.878	1373.809	1059.746
25.921	18.916	1372.531	1058.901
26.936	18.970	1371.946	1058.690
27.950	19.009	1371.050	1058.140
28.965	19.162	1369.932	1058.123
29.980	19.319	1368.661	1058.015
30.994	19.323	1368.062	1057.483
32.009	19.391	1366.759	1056.800
33.023	19.362	1365.611	1055.642
34.038	19.283	1364.232	1053.999
35.053	19.218	1362.984	1052.542
36.067	19.183	1362.039	1051.508
37.082	19.107	1361.174	1050.280
38.096	19.299	1359.885	1050.363
39.111	19.270	1359.792	1050.021
40.126	19.130	1358.284	1047.915
41.140	18.811	1357.678	1045.414
42.155	18.704	1356.882	1044.053
43.169	18.597	1357.025	1043.421
44.184	18.769	1355.854	1043.473
45.199	18.670	1355.813	1042.751
46.213	18.832	1355.471	1043.377
47.228	19.051	1354.554	1043.911
48.242	19.058	1353.559	1043.091
49.257	19.088	1351.968	1041.956
50.271	19.163	1350.392	1041.104
51.286	19.041	1349.668	1039.714
52.301	19.171	1348.149	1039.236
53.315	19.039	1346.560	1037.126
54.330	18.793	1345.864	1035.015
55.344	18.863	1344.898	1034.603
56.359	18.752	1343.962	1033.120
57.374	18.720	1343.103	1032.177
58.388	18.676	1342.045	1031.006
59.403	18.684	1341.402	1030.471
60.417	18.562	1341.024	1029.357
61.432	18.502	1340.091	1028.190
62.447	18.597	1338.240	1027.246
63.461	18.454	1337.548	1025.769
64.476	18.396	1336.322	1024.393
65.490	18.578	1335.104	1024.457
66.505	18.487	1333.625	1022.689
67.520	18.533	1332.473	1021.986
68.534	18.533	1331.529	1021.173
69.549	18.563	1330.247	1020.278
70.563	18.399	1329.502	1018.644
71.578	18.429	1328.139	1017.686
72.593	18.228	1327.259	1015.726
73.607	18.314	1326.625	1015.660
74.622	18.381	1325.755	1015.307
75.636	18.398	1325.144	1014.845
76.651	18.425	1324.580	1014.486
77.666	18.432	1324.344	1014.254
78.680	18.561	1323.920	1014.607
79.695	18.431	1323.669	1013.554
80.709	18.659	1322.288	1013.756
81.724	18.721	1322.078	1013.871
82.739	18.762	1321.406	1013.508
83.753	18.996	1320.390	1014.014
84.768	19.134	1319.643	1014.168
85.782	19.262	1318.277	1013.778
86.797	19.180	1317.136	1012.331
87.812	19.083	1316.291	1011.021
88.826	19.091	1315.251	1010.178
89.841	19.141	1313.751	1009.233
90.855	19.319	1312.782	1009.438
91.870	19.270	1312.055	1008.506
92.884	19.210	1311.508	1007.647
93.899	19.384	1310.304	1007.650
94.914	19.342	1309.756	1006.889
95.928	19.442	1308.913	1006.739
96.943	19.257	1308.450	1005.216
97.957	19.244	1307.306	1004.169
98.972	19.192	1306.435	1003.113
99.987	19.304	1304.947	1002.530
101.001	19.207	1304.513	1001.543
102.016	19.181	1303.784	1000.744
103.030	19.179	1302.376	999.565
104.045	19.189	1301.514	998.870
105.060	18.994	1300.430	996.823
106.074	18.864	1298.393	994.422
107.089	18.601	1296.996	991.743
108.103	18.507	1295.958	990.315
109.118	18.542	1294.702	989.471
110.133	18.556	1292.929	988.111
111.147	18.614	1291.610	987.347
112.162	18.677	1290.282	986.610
113.176	18.715	1289.533	986.163
114.191	18.741	1288.499	985.439
115.206	18.766	1287.555	984.772
116.220	18.747	1286.277	983.595
117.235	18.748	1284.898	982.459
118.249	18.751	1284.452	982.053
119.264	18.639	1283.227	980.388
120.279	18.606	1281.827	979.045
121.293	18.500	1280.982	977.706
122.308	18.387	1280.073	976.285
123.322	18.392	1278.678	975.160
124.337	18.309	1278.052	974.123
125.352	18.368	1276.899	973.495
126.366	18.332	1275.713	972.300
127.381	18.435	1274.387	971.787
128.395	18.502	1273.263	971.226
129.410	18.400	1272.820	970.225
130.424	18.604	1271.852	970.554
131.439	18.599	1271.027	969.808
132.454	18.687	1270.037	969.468
133.468	18.725	1269.371	969.085
134.483	18.668	1268.677	968.147
135.497	18.714	1267.709	967.581
136.512	18.770	1266.572	966.944
137.527	18.833	1264.417	965.570
138.541	18.856	1263.848	965.178
139.556	18.783	1262.660	963.777
140.570	19.002	1261.770	964.239
141.585	19.081	1260.500	963.626
142.600	19.078	1259.909	963.073
143.614	19.273	1258.293	962.842
144.629	19.238	1257.746	962.141
145.643	19.213	1256.669	961.091
146.658	19.002	1255.632	959.042
147.673	18.961	1253.757	957.295
148.687	18.846	1252.628	955.707
149.702	18.816	1251.227	954.385
150.716	18.694	1249.790	952.531
151.731	18.713	1248.730	951.741
152.746	18.775	1247.609	951.148
153.760	18.896	1246.496	950.887
154.775	18.869	1245.495	949.887
155.789	19.028	1244.024	949.559
156.804	19.152	1243.227	949.554
157.819	19.036	1242.697	948.426
158.833	19.190	1241.268	948.095
159.848	19.356	1240.590	948.409
160.862	19.165	1239.932	946.770
161.877	18.909	1238.587	944.253
162.892	18.808	1237.579	942.849
163.906	18.757	1236.298	941.510
164.921	18.758	1235.535	940.850
165.935	18.921	1234.227	940.665
166.950	19.035	1233.616	940.738
167.964	19.106	1232.746	940.381
168.979	18.793	1232.939	938.730
169.994	18.957	1231.622	938.544
171.008	18.901	1231.445	938.020
172.023	18.993	1230.467	937.689
173.037	19.115	1230.341	938.175
174.052	19.113	1228.445	936.640
175.067	18.952	1227.487	934.951
176.081	18.731	1226.203	932.688
177.096	18.904	1225.079	932.691
178.110	18.881	1224.264	931.864
179.125	18.878	1223.246	930.988
180.140	18.947	1222.100	930.409
181.154	19.079	1220.644	929.931
182.169	19.145	1219.712	929.492
183.183	19.306	1218.601	929.432
184.198	19.297	1217.876	928.748
185.213	19.330	1216.656	927.912
186.227	19.339	1215.687	927.143
187.242	19.390	1214.542	926.461
188.256	19.485	1213.357	925.987
189.271	19.453	1213.187	925.601
190.286	19.231	1211.755	923.235
191.300	18.993	1210.142	920.651
192.315	18.723	1210.033	919.041
193.329	18.778	1209.568	918.902
194.344	18.908	1208.759	918.900
195.359	19.057	1208.109	919.120
196.373	19.140	1207.756	919.213
197.388	19.219	1207.416	919.299
198.402	19.502	1207.302	920.636
199.417	19.510	1206.531	920.011
200.432	19.703	1205.863	920.451
201.446	19.671	1205.136	919.642
202.461	19.838	1204.464	919.936
203.475	19.740	1203.322	918.462
204.490	19.571	1201.734	916.270
205.504	19.345	1200.622	914.142
206.519	19.298	1199.556	913.003
207.534	19.363	1197.977	912.062
208.548	19.414	1197.240	911.692
209.563	19.409	1196.060	910.686
210.577	19.352	1195.410	909.813
211.592	19.548	1194.779	910.286
212.607	19.631	1193.990	910.040
213.621	19.676	1192.958	909.407
214.636	19.527	1192.262	908.013
215.650	19.544	1191.524	907.458
216.665	19.677	1190.715	907.462
217.680	19.783	1190.055	907.438
218.694	19.915	1188.587	906.927
219.709	19.761	1188.417	905.912
220.723	19.823	1187.340	905.333
221.738	19.683	1186.562	903.929
222.753	19.728	1186.049	903.695
223.767	19.748	1185.459	903.269
224.782	19.808	1185.442	903.491
225.796	20.028	1184.396	903.762
226.811	19.965	1183.128	902.383
227.826	19.811	1182.138	900.749
228.840	19.764	1181.630	900.038
229.855	19.741	1181.175	899.490
230.869	19.707	1179.999	898.340
231.884	19.727	1179.580	898.041
232.899	19.549	1178.557	896.261
233.913	19.468	1177.838	895.217
234.928	19.593	1176.660	894.887
235.942	19.465	1176.317	893.885
236.957	19.374	1175.932	893.044
237.972	19.526	1174.721	892.831
238.986	19.535	1173.993	892.243
240.001	19.475	1173.613	891.567
241.015	19.515	1172.580	890.911
242.030	19.621	1171.981	890.924
243.045	19.691	1170.686	890.217
244.059	19.838	1170.235	890.552
245.074	19.735	1170.039	889.795
246.088	19.774	1168.983	889.115
247.103	20.060	1167.682	889.515
248.117	20.055	1167.553	889.311
249.132	20.158	1167.295	889.567
250.147	20.363	1166.458	889.902
251.161	20.514	1165.847	890.130
252.176	20.607	1164.886	889.791
253.190	20.535	1164.860	889.325
254.205	20.608	1164.181	889.103
255.220	20.664	1163.691	888.935
256.234	20.578	1162.834	887.762
257.249	20.528	1162.118	886.881
258.263	20.600	1161.455	886.664
259.278	20.542	1160.542	885.594
260.293	20.555	1160.559	885.594
261.307	20.687	1159.969	885.738
262.322	20.809	1159.124	885.633
263.336	20.775	1158.271	884.733
264.351	20.760	1158.138	884.477
265.366	20.779	1157.266	883.826
266.380	20.739	1156.304	882.813
267.395	20.717	1155.432	881.957
268.409	20.586	1154.538	880.531
269.424	20.588	1153.812	879.910
270.439	20.610	1153.255	879.519
271.453	20.654	1152.337	878.962
272.468	20.395	1151.578	877.000
273.482	20.475	1150.560	876.553
274.497	20.387	1150.346	875.866
275.512	20.394	1150.184	875.701
276.526	20.460	1148.703	874.828
277.541	20.494	1148.196	874.537
278.555	20.490	1147.636	874.009
279.570	20.692	1146.942	874.421
280.585	20.784	1146.339	874.344
281.599	20.875	1145.272	873.911
282.614	20.662	1144.101	871.872
283.628	20.621	1142.705	870.524
284.643	20.597	1142.252	869.986
285.657	20.529	1141.657	869.116
286.672	20.621	1140.112	868.319
287.687	20.684	1139.405	868.019
288.701	20.614	1138.713	867.069
289.716	20.650	1137.842	866.505
290.730	20.712	1137.368	866.376
291.745	20.729	1136.724	865.894
292.760	20.827	1135.986	865.745
293.774	20.764	1136.087	865.428
294.789	20.902	1135.383	865.504
295.803	20.857	1134.374	864.433
296.818	20.747	1133.505	863.152
297.833	20.792	1132.301	862.377
298.847	20.712	1132.091	861.749
299.862	20.857	1130.834	861.432
300.876	20.758	1130.438	860.566
301.891	20.857	1129.973	860.623
302.906	20.976	1129.434	860.722
303.920	21.111	1129.018	860.996
304.935	21.178	1128.337	860.732
305.949	21.191	1128.037	860.493
306.964	21.220	1126.997	859.764
307.979	21.137	1125.849	858.406
308.993	21.185	1125.169	858.044
310.008	21.192	1124.917	857.813
311.022	21.297	1124.270	857.756
312.037	21.225	1122.965	856.332
313.052	21.059	1121.773	854.537
314.066	20.969	1120.608	853.132
315.081	20.823	1119.897	851.799
316.095	20.863	1119.005	851.244
317.110	20.903	1118.592	851.050
318.125	20.785	1117.816	849.809
319.139	20.847	1117.255	849.609
320.154	20.855	1116.668	849.127
321.168	20.853	1116.301	848.762
322.183	20.906	1115.424	848.278
323.197	20.997	1114.727	848.116
324.212	20.979	1114.427	847.725
325.227	20.850	1114.329	846.948
326.241	20.981	1113.408	846.810
327.256	20.957	1112.285	845.762
328.270	20.990	1111.158	844.989
329.285	21.067	1110.229	844.585
330.300	20.835	1109.674	842.965
331.314	20.835	1108.704	842.154
332.329	21.022	1107.377	841.971
333.343	21.089	1106.665	841.678
334.358	21.083	1106.072	841.123
335.373	21.104	1105.548	840.754
336.387	21.211	1104.763	840.596
337.402	21.227	1104.170	840.148
338.416	21.323	1103.381	839.935
339.431	21.437	1102.808	839.974
340.446	21.545	1102.162	839.925
341.460	21.595	1101.722	839.754
342.475	21.735	1100.817	839.662
343.489	21.764	1099.699	838.873
344.504	21.747	1099.038	838.212
345.519	21.686	1098.553	837.476
346.533	21.863	1097.758	837.642
347.548	21.864	1097.110	837.080
348.562	21.842	1096.120	836.146
349.577	21.626	1094.848	834.074
350.592	21.500	1094.399	833.057
351.606	21.400	1093.364	831.721
352.621	21.328	1092.840	830.903
353.635	21.322	1091.944	830.121
354.650	21.251	1091.515	829.386
355.665	21.505	1090.942	830.082
356.679	21.472	1090.372	829.417
357.694	21.412	1089.626	828.493
358.708	21.561	1089.052	828.689
359.723	21.721	1088.174	828.705
360.738	21.543	1087.831	827.527
361.752	21.636	1087.360	827.535
362.767	21.577	1087.058	826.953
363.781	21.665	1086.222	826.661
364.796	21.746	1085.612	826.503
365.810	21.826	1085.476	826.704
366.825	21.991	1084.727	826.838
367.840	22.088	1084.271	826.876
368.854	22.230	1083.500	826.882
369.869	22.187	1083.064	826.273
370.883	22.017	1081.995	824.588
371.898	21.920	1081.236	823.478
372.913	21.939	1080.422	822.875
373.927	21.950	1080.249	822.723
374.942	22.030	1079.918	822.771
375.956	22.093	1079.327	822.544
376.971	21.975	1078.421	821.229
377.986	22.096	1078.242	821.584
379.000	22.241	1077.474	821.605
380.015	22.317	1076.928	821.470
381.029	22.439	1076.112	821.346
382.044	22.247	1075.660	820.031
383.059	22.177	1075.036	819.158
384.073	22.333	1073.820	818.884
385.088	22.321	1073.165	818.257
386.102	22.374	1071.740	817.347
387.117	22.303	1070.838	816.257
388.132	22.057	1069.876	814.308
389.146	21.955	1069.240	813.282
390.161	21.879	1068.580	812.356
391.175	21.998	1067.948	812.354
392.190	22.150	1067.197	812.414
393.205	22.327	1066.628	812.724
394.219	22.282	1065.624	811.682
395.234	22.145	1064.781	810.335
396.248	21.979	1064.283	809.119
397.263	22.046	1063.059	808.427
398.278	21.988	1062.014	807.293
399.292	21.966	1061.096	806.424
400.307	21.934	1060.415	805.687
401.321	21.955	1059.812	805.255
402.336	21.870	1059.366	804.453
403.350	21.882	1058.602	803.857
404.365	21.958	1057.803	803.527
405.380	22.122	1057.290	803.817
406.394	22.155	1056.654	803.415
407.409	22.237	1055.829	803.089
408.423	22.407	1055.277	803.374
409.438	22.431	1054.543	802.851
410.453	22.545	1053.909	802.821
411.467	22.520	1053.323	802.189
412.482	22.574	1052.672	801.866
413.496	22.734	1052.366	802.289
414.511	22.811	1051.354	801.796
415.526	22.832	1051.100	801.627
416.540	22.845	1050.889	801.454
417.555	22.881	1050.304	801.102
418.569	22.748	1049.722	799.986
419.584	22.590	1049.301	798.878
420.599	22.675	1048.465	798.553
421.613	154.550	1400.811	1789.414
422.628	141.730	1452.165	1789.528
