DTS Sentinel unit serial number:	SN413079Multiplexer serial number:	ORYXHardware model number:	OX4-SRSoftware version number:	ORYX F/W v4.00 Oryx Data Collector v3.7.2.0data status	okinstallation	princeton_trtdifferential loss correction	single-endedforward channel	channel 2reverse channel	N/Adate	2019/09/12time	18:07:49forward acquisition time	15.00reverse acquisition time	0.00gamma	496.2192k internal	0.2323k external	0.2323temperature offset calibration	1.0128default loss term (dB/km)	0.3790temperature slope calibration	1.0000multiplexer offset coefficient	1.0000multiplexer slope coefficient	1.0000fibre end	0.00T internal ref (°C)	33.69T ext. ref 1 (°C)	2.94T ext. ref 2 (°C)	28.31length (m)	temperature (°C)	Stokes	anti-Stokes-747.200	-147.681	0.357	0.030
-746.185	-86.732	-0.214	0.066
-745.171	286.060	-0.346	0.631
-744.156	18.273	0.424	-0.342
-743.142	116.715	-0.413	0.511
-742.127	-76.582	-1.170	0.415
-741.112	41.664	0.708	0.648
-740.098	-200.000	-0.036	0.394
-739.083	-80.618	-0.209	-0.070
-738.069	72.287	0.281	0.296
-737.054	392.284	0.211	0.443
-736.039	-116.778	0.864	0.160
-735.025	-116.771	0.909	0.168
-734.010	74.731	0.123	-0.131
-732.996	800.000	0.026	0.081
-731.981	-120.244	0.182	-0.031
-730.966	122.041	0.645	0.813
-729.952	-14.621	-1.049	0.680
-728.937	387.914	0.138	-0.288
-727.923	-20.883	0.598	0.370
-726.908	82.587	-0.419	0.459
-725.894	-74.406	0.746	0.272
-724.879	-28.856	-0.087	0.051
-723.864	800.000	0.093	-0.378
-722.850	800.000	0.134	-0.401
-721.835	769.542	0.263	-0.723
-720.821	-107.155	-1.088	-0.242
-719.806	0.767	0.927	-0.670
-718.791	800.000	-0.144	-0.484
-717.777	-29.779	0.032	-0.019
-716.762	24.327	0.252	-0.210
-715.748	800.000	0.160	0.546
-714.733	-171.245	0.877	0.030
-713.718	572.838	-0.258	-0.634
-712.704	-52.049	0.110	0.052
-711.689	-153.928	-0.517	-0.036
-710.675	-6.597	-0.448	-0.308
-709.660	72.111	0.174	0.183
-708.645	772.024	-0.206	0.566
-707.631	-47.759	0.432	-0.211
-706.616	-114.916	0.322	0.062
-705.602	32.893	-0.164	0.144
-704.587	363.209	-0.347	0.702
-703.572	-48.454	-0.328	0.159
-702.558	-77.534	-0.799	0.280
-701.543	-110.211	-0.432	0.091
-700.529	-39.883	0.382	0.201
-699.514	89.782	-0.189	-0.213
-698.499	-166.588	0.477	-0.020
-697.485	167.025	0.300	-0.429
-696.470	-200.000	-0.043	-0.579
-695.456	-34.868	-0.865	0.476
-694.441	-106.306	-0.435	-0.098
-693.426	-33.762	-0.164	-0.091
-692.412	-2.614	0.411	0.290
-691.397	248.677	0.399	0.681
-690.383	-164.783	0.096	0.004
-689.368	-200.000	-0.077	0.403
-688.354	315.198	-0.478	0.908
-687.339	800.000	0.101	0.283
-686.324	-137.179	0.255	-0.029
-685.310	-200.000	-0.047	1.026
-684.295	40.077	0.581	-0.526
-683.281	204.093	-0.201	0.314
-682.266	-200.000	0.089	-0.663
-681.251	-72.435	0.920	-0.343
-680.237	-200.000	-0.033	-0.266
-679.222	-36.268	-0.333	-0.181
-678.208	800.000	0.097	0.316
-677.193	113.525	0.379	-0.463
-676.178	-200.000	-0.074	-0.704
-675.164	173.771	0.132	-0.192
-674.149	662.554	-0.215	0.559
-673.135	-134.530	0.239	0.029
-672.120	-69.265	0.841	-0.326
-671.105	428.019	-0.100	-0.218
-670.091	107.770	-0.515	0.617
-669.076	-70.837	0.467	0.177
-668.062	269.962	0.124	-0.219
-667.047	-142.091	0.877	-0.088
-666.032	-161.627	0.262	0.013
-665.018	-141.697	0.402	0.041
-664.003	-35.775	-0.071	-0.039
-662.989	-110.423	-0.405	0.085
-661.974	79.205	0.124	-0.134
-660.959	46.455	-0.147	-0.137
-659.945	10.810	-0.105	0.081
-658.930	-55.263	0.101	-0.046
-657.916	-200.000	0.010	0.506
-656.901	425.904	0.169	-0.367
-655.886	30.135	-0.250	0.215
-654.872	-146.651	-0.442	0.039
-653.857	-200.000	0.029	0.181
-652.843	-120.919	-0.744	-0.126
-651.828	-200.000	-0.216	-0.971
-650.814	2.978	0.119	-0.087
-649.799	464.979	0.210	-0.472
-648.784	-200.000	0.019	-0.614
-647.770	-100.616	0.507	-0.126
-646.755	800.000	0.243	0.909
-645.741	75.816	0.423	0.450
-644.726	-91.832	1.164	-0.332
-643.711	602.809	0.108	-0.270
-642.697	-142.463	-0.353	0.035
-641.682	-111.414	0.234	-0.048
-640.668	-93.900	0.292	0.081
-639.653	-145.817	0.104	0.009
-638.638	196.271	0.211	0.323
-637.624	800.000	0.074	0.254
-636.609	800.000	-0.077	0.315
-635.595	-66.068	-0.807	-0.324
-634.580	1.907	0.612	0.444
-633.565	44.643	0.123	0.114
-632.551	-113.213	0.660	0.131
-631.536	-3.558	-0.280	0.196
-630.522	-200.000	-0.152	-0.693
-629.507	-70.692	-0.396	0.150
-628.492	800.000	0.210	-0.583
-627.478	-49.237	0.442	0.212
-626.463	-15.263	-0.624	0.401
-625.449	266.860	0.230	-0.404
-624.434	248.465	-0.416	-0.708
-623.419	-200.000	0.127	0.568
-622.405	-78.613	-0.363	0.125
-621.390	-160.834	-0.252	0.013
-620.376	157.242	0.127	0.177
-619.361	-200.000	0.063	-0.643
-618.346	243.989	0.216	0.364
-617.332	124.566	-0.378	-0.477
-616.317	198.426	-0.216	0.331
-615.303	-189.537	-0.337	0.004
-614.288	388.107	0.286	0.594
-613.273	214.507	0.077	-0.122
-612.259	515.315	-0.299	-0.701
-611.244	-75.356	-0.183	-0.066
-610.230	295.055	-0.149	0.274
-609.215	800.000	-0.202	0.643
-608.201	-11.047	-0.694	-0.460
-607.186	23.955	0.575	0.477
-606.171	-25.878	-1.001	-0.592
-605.157	-73.270	-0.637	-0.234
-604.142	-200.000	0.039	0.235
-603.128	-2.476	-0.210	0.148
-602.113	329.304	0.183	0.354
-601.098	-7.443	-0.505	0.343
-600.084	244.174	-0.348	0.587
-599.069	-200.000	0.030	0.437
-598.055	-55.451	-0.140	0.063
-597.040	-75.336	0.234	-0.084
-596.025	-28.391	0.874	-0.506
-595.011	290.763	-0.422	0.770
-593.996	800.000	-0.165	0.647
-592.982	-200.000	0.142	0.692
-591.967	800.000	0.043	-0.142
-590.952	-200.000	0.003	0.394
-589.938	-33.619	-0.954	-0.529
-588.923	-21.721	0.982	0.600
-587.909	34.384	0.449	0.393
-586.894	105.160	0.287	-0.340
-585.879	-200.000	-0.091	0.573
-584.865	-44.885	0.155	-0.077
-583.850	-200.000	0.089	0.702
-582.836	800.000	-0.147	0.527
-581.821	30.185	0.256	0.219
-580.806	-116.527	0.501	-0.093
-579.792	340.525	-0.367	0.719
-578.777	-108.628	-0.625	-0.135
-577.763	41.674	-0.353	-0.321
-576.748	196.965	0.472	0.723
-575.733	241.326	0.308	0.517
-574.719	-200.000	0.053	0.629
-573.704	43.969	-0.119	0.109
-572.690	-113.531	0.231	-0.045
-571.675	148.574	-0.506	-0.686
-570.661	-200.000	0.016	-0.271
-569.646	800.000	-0.199	0.655
-568.631	14.814	-0.151	0.119
-567.617	49.890	-0.173	0.164
-566.602	-200.000	0.020	0.287
-565.588	-74.103	-0.485	0.176
-564.573	-32.462	0.890	0.497
-563.558	-11.509	-0.528	-0.348
-562.544	-72.624	0.307	-0.114
-561.529	-29.708	-0.628	-0.359
-560.515	-125.943	0.677	0.102
-559.500	-35.181	0.215	0.117
-558.485	9.416	-0.115	-0.087
-557.471	800.000	0.121	-0.389
-556.456	50.391	0.312	0.296
-555.442	-161.799	0.844	0.043
-554.427	800.000	0.384	-1.405
-553.412	8.854	-0.556	0.420
-552.398	654.501	0.038	-0.097
-551.383	-35.228	-0.359	0.196
-550.369	17.371	0.618	-0.492
-549.354	800.000	-0.323	-1.110
-548.339	800.000	0.124	-0.443
-547.325	388.252	-0.149	-0.310
-546.310	-200.000	-0.083	-0.509
-545.296	82.464	-0.300	0.326
-544.281	173.254	-0.333	0.481
-543.266	-152.425	-0.491	-0.035
-542.252	49.583	-0.589	-0.556
-541.237	-200.000	0.014	0.583
-540.223	-200.000	-0.042	-0.412
-539.208	158.861	0.128	0.178
-538.193	-82.516	0.031	0.010
-537.179	-189.593	0.178	0.002
-536.164	-200.000	0.289	0.001
-535.150	-200.000	-0.157	-1.039
-534.135	-109.774	0.999	-0.210
-533.121	749.400	-0.134	0.362
-532.106	-0.403	-0.106	-0.075
-531.091	-19.293	-0.079	-0.049
-530.077	-200.000	-0.019	-0.159
-529.062	-200.000	0.094	0.504
-528.048	-179.191	0.291	0.006
-527.033	132.063	0.267	-0.344
-526.018	202.502	-0.189	0.293
-525.004	-200.000	-0.012	-0.448
-523.989	-21.487	-0.336	-0.205
-522.975	562.000	-0.345	-0.836
-521.960	507.171	0.157	-0.365
-520.945	-66.332	-0.470	0.187
-519.931	159.166	-0.319	0.444
-518.916	800.000	0.074	0.272
-517.902	339.785	0.210	0.411
-516.887	406.291	0.204	0.432
-515.872	26.970	-0.644	0.541
-514.858	-157.035	0.312	0.019
-513.843	-94.326	-0.806	0.220
-512.829	-74.900	0.534	0.192
-511.814	-81.455	-0.108	0.036
-510.799	165.903	-0.154	0.218
-509.785	31.305	0.497	-0.427
-508.770	84.225	-0.234	-0.255
-507.756	629.904	-0.173	-0.438
-506.741	800.000	-0.239	-0.748
-505.726	-102.238	-0.800	0.192
-504.712	-200.000	-0.071	-0.412
-503.697	272.663	-0.144	-0.254
-502.683	-103.250	0.273	-0.064
-501.668	800.000	0.087	-0.339
-500.653	-133.775	-0.396	0.049
-499.639	800.000	-0.128	0.548
-498.624	-120.136	0.321	0.055
-497.610	-193.557	-0.501	-0.004
-496.595	-200.000	0.012	-0.165
-495.581	-46.914	-0.083	0.040
-494.566	288.160	0.320	0.580
-493.551	131.654	0.386	-0.496
-492.537	238.537	-0.042	-0.069
-491.522	-65.259	-0.712	-0.287
-490.508	96.695	0.172	0.197
-489.493	527.565	-0.114	-0.269
-488.478	21.713	-1.115	0.907
-487.464	800.000	0.052	0.177
-486.449	800.000	-0.188	-0.552
-485.435	-200.000	-0.057	0.625
-484.420	-124.481	-0.261	0.041
-483.405	-34.362	-0.522	-0.286
-482.391	-168.200	-1.185	-0.046
-481.376	-23.143	-0.024	-0.015
-480.362	156.292	-0.153	-0.210
-479.347	-100.835	0.041	-0.010
-478.332	20.049	0.577	-0.465
-477.318	33.122	0.417	0.361
-476.303	-200.000	0.016	-0.195
-475.289	-53.923	-0.354	-0.161
-474.274	-75.614	0.943	-0.335
-473.259	800.000	-0.107	-0.334
-472.245	158.366	-0.259	0.360
-471.230	800.000	0.185	0.743
-470.216	-97.377	-0.739	-0.192
-469.201	93.891	-0.420	-0.476
-468.186	800.000	-0.153	0.546
-467.172	-174.319	0.554	-0.016
-466.157	800.000	0.053	-0.228
-465.143	-25.944	-0.910	0.535
-464.128	271.786	0.224	0.394
-463.113	-92.174	-0.427	-0.121
-462.099	654.589	-0.073	0.187
-461.084	17.257	0.797	-0.631
-460.070	454.558	-0.315	-0.696
-459.055	-124.262	-0.159	-0.025
-458.040	138.697	-0.489	-0.641
-457.026	72.601	-0.193	-0.201
-456.011	-200.000	-0.011	0.219
-454.997	83.064	0.620	0.674
-453.982	-48.322	0.432	-0.208
-452.968	-200.000	0.055	-1.062
-451.953	-83.704	-0.506	0.161
-450.938	-1.921	-0.316	-0.222
-449.924	212.797	0.364	-0.573
-448.909	-65.781	0.284	-0.113
-447.895	-11.544	0.246	0.161
-446.880	800.000	0.233	0.707
-445.865	-23.714	-0.597	0.357
-444.851	-200.000	0.110	-0.785
-443.836	-149.059	0.288	-0.023
-442.822	256.384	-0.114	-0.196
-441.807	66.557	-0.558	0.566
-440.792	-200.000	-0.086	-0.551
-439.778	-31.704	0.310	0.174
-438.763	-27.547	-0.316	0.183
-437.749	504.536	0.184	-0.425
-436.734	-99.918	0.118	-0.029
-435.719	658.259	-0.104	0.268
-434.705	-39.027	-0.431	-0.226
-433.690	-80.282	0.126	0.042
-432.676	-37.654	0.206	-0.109
-431.661	-115.786	0.717	-0.134
-430.646	-9.312	0.151	-0.101
-429.632	-200.000	-0.092	-0.649
-428.617	200.811	0.149	0.229
-427.603	-180.944	-0.451	0.009
-426.588	-16.366	-0.156	0.099
-425.573	800.000	0.264	0.843
-424.559	275.890	0.228	-0.403
-423.544	-92.441	0.741	-0.208
-422.530	6.590	0.683	0.506
-421.515	102.695	0.268	0.313
-420.500	348.805	-0.092	-0.181
-419.486	30.613	-0.240	-0.205
-418.471	295.228	-0.328	0.599
-417.457	54.284	-0.520	-0.499
-416.442	-96.837	-0.753	-0.197
-415.428	-22.856	0.629	-0.379
-414.413	800.000	0.049	0.186
-413.398	55.029	0.171	-0.165
-412.384	271.751	0.270	-0.474
-411.369	-77.921	0.709	0.244
-410.355	-200.000	-0.154	0.775
-409.340	-91.054	0.551	0.158
-408.325	-127.972	0.991	-0.142
-407.311	-86.629	-0.033	-0.010
-406.296	800.000	0.130	-0.416
-405.282	-124.502	0.293	0.045
-404.267	-97.809	-0.499	0.128
-403.252	167.521	0.058	-0.082
-402.238	15.642	-0.392	0.307
-401.223	42.378	-0.358	-0.324
-400.209	800.000	0.151	-0.420
-399.194	-0.910	0.542	-0.382
-398.179	-120.008	0.193	-0.033
-397.165	-200.000	-0.007	0.259
-396.150	-105.914	0.400	0.090
-395.136	-200.000	-0.006	0.470
-394.121	402.719	-0.361	-0.755
-393.106	119.234	0.771	0.950
-392.092	-10.622	0.589	0.388
-391.077	695.303	-0.092	-0.241
-390.063	-24.430	0.073	0.043
-389.048	101.055	0.259	-0.301
-388.033	-42.389	0.194	-0.099
-387.019	-200.000	-0.127	1.459
-386.004	-130.052	0.294	-0.040
-384.990	101.309	0.510	-0.591
-383.975	106.839	-0.170	0.201
-382.960	-109.824	0.458	0.096
-381.946	-65.367	-1.130	0.453
-380.931	35.505	-0.364	0.319
-379.917	-158.113	0.184	0.011
-378.902	800.000	-0.106	-0.337
-377.888	-200.000	-0.033	0.549
-376.873	132.338	-0.140	-0.179
-375.858	427.006	-0.298	-0.640
-374.844	68.720	-0.071	0.073
-373.829	-63.217	0.647	0.265
-372.815	-11.720	0.484	0.316
-371.800	523.578	0.102	-0.239
-370.785	67.065	0.871	0.884
-369.771	93.513	-0.421	0.475
-368.756	472.681	0.157	-0.351
-367.742	-41.679	0.682	-0.349
-366.727	308.942	0.352	-0.654
-365.712	-5.077	0.161	0.110
-364.698	800.000	-0.010	-0.029
-363.683	96.207	0.410	0.467
-362.669	63.010	-0.549	0.547
-361.654	14.342	-0.344	-0.267
-360.639	43.600	0.226	-0.206
-359.625	-0.917	0.700	-0.493
-358.610	22.625	0.686	-0.558
-357.596	-169.054	-0.259	0.010
-356.581	-200.000	0.006	-0.233
-355.566	-80.801	0.717	-0.237
-354.552	173.508	-0.366	-0.525
-353.537	-42.185	0.584	0.297
-352.523	178.343	-0.106	-0.153
-351.508	110.783	-0.151	0.181
-350.493	464.631	0.419	-0.933
-349.479	-200.000	0.056	-0.395
-348.464	589.597	-0.290	-0.711
-347.450	50.497	0.401	0.377
-346.435	26.847	-0.267	0.222
-345.420	212.529	-0.360	0.564
-344.406	403.707	-0.461	-0.965
-343.391	-200.000	-0.022	-0.346
-342.377	271.325	0.157	-0.274
-341.362	-200.000	0.002	0.598
-340.348	3.040	1.185	0.856
-339.333	-140.734	-0.946	-0.097
-338.318	-200.000	-0.093	-0.414
-337.304	-126.000	0.562	0.084
-336.289	-123.127	0.759	-0.121
-335.275	-15.866	-0.367	-0.232
-334.260	64.399	-0.075	-0.075
-333.245	74.657	0.332	-0.347
-332.231	205.826	-0.517	0.798
-331.216	63.521	-0.186	-0.185
-330.202	137.745	0.129	-0.168
-329.187	76.175	-0.528	-0.556
-328.172	253.744	0.344	-0.585
-327.158	204.075	0.439	-0.675
-326.143	-87.515	0.292	-0.088
-325.129	50.641	-0.285	0.268
-324.114	-19.809	-0.456	-0.280
-323.099	-128.641	-0.232	0.033
-322.085	225.439	0.209	0.337
-321.070	35.755	-0.211	0.184
-320.056	-200.000	0.020	-0.701
-319.041	436.492	-0.297	-0.643
-318.026	6.941	-0.642	-0.476
-317.012	-200.000	0.001	-0.209
-315.997	-50.381	0.498	-0.234
-314.983	-125.484	-0.692	-0.105
-313.968	-158.900	-1.078	-0.061
-312.953	-108.190	-1.081	0.232
-311.939	661.355	-0.256	0.655
-310.924	147.280	0.231	0.308
-309.910	117.127	-0.330	-0.402
-308.895	173.593	0.493	-0.707
-307.880	314.216	-0.195	0.364
-306.866	206.076	-0.526	-0.812
-305.851	120.009	0.275	-0.339
-304.837	170.919	-0.494	-0.702
-303.822	800.000	-0.244	-0.812
-302.807	800.000	0.249	-0.878
-301.793	81.534	0.197	-0.211
-300.778	-200.000	0.034	0.765
-299.764	90.427	-0.060	0.067
-298.749	-115.609	0.507	0.094
-297.735	130.636	0.296	-0.376
-296.720	-64.981	0.753	-0.302
-295.705	-160.256	-0.900	0.048
-294.691	-200.000	-0.039	0.347
-293.676	210.110	0.141	0.219
-292.662	109.778	0.267	-0.318
-291.647	114.450	-0.480	-0.580
-290.632	38.553	0.595	0.526
-289.618	35.937	0.374	-0.326
-288.603	-5.744	0.586	-0.398
-287.589	-169.810	-0.506	-0.018
-286.574	47.034	0.402	0.371
-285.559	91.293	0.273	-0.304
-284.545	-141.386	1.201	0.121
-283.530	736.756	0.213	0.567
-282.516	-104.769	-0.282	0.064
-281.501	-200.000	-0.097	0.461
-280.486	-146.219	0.862	-0.075
-279.472	-178.745	0.602	0.014
-278.457	-77.434	0.238	-0.082
-277.443	778.012	0.313	-0.848
-276.428	49.952	-0.120	-0.112
-275.413	-69.969	-0.461	0.174
-274.399	-200.000	-0.108	0.516
-273.384	-76.644	0.785	-0.273
-272.370	-200.000	-0.015	0.266
-271.355	-200.000	0.012	-0.106
-270.340	-200.000	0.041	0.553
-269.326	99.928	-0.361	0.415
-268.311	-200.000	-0.005	0.593
-267.297	-200.000	0.096	-0.746
-266.282	-73.296	-0.800	0.290
-265.267	-136.106	-0.210	-0.024
-264.253	70.601	0.122	-0.125
-263.238	197.659	-0.057	-0.086
-262.224	456.871	-0.049	0.107
-261.209	125.922	-0.254	0.318
-260.195	137.872	-0.647	-0.840
-259.180	93.199	0.754	0.845
-258.165	-42.108	0.728	-0.369
-257.151	800.000	-0.168	0.683
-256.136	732.295	0.102	-0.271
-255.122	190.624	-0.425	0.633
-254.107	-172.818	0.780	0.024
-253.092	-97.351	0.319	0.082
-252.078	-200.000	0.041	-0.603
-251.063	-200.000	-0.063	0.800
-250.049	70.380	0.165	0.169
-249.034	-123.661	0.892	0.140
-248.019	218.406	-0.514	-0.814
-247.005	455.663	-0.527	-1.159
-245.990	97.422	-0.235	0.267
-244.976	-83.683	-0.378	0.120
-243.961	68.290	0.182	-0.185
-242.946	-81.679	0.950	-0.309
-241.932	-109.478	-0.595	-0.125
-240.917	136.401	-0.313	0.404
-239.903	800.000	-0.025	-0.106
-238.888	48.041	0.435	-0.403
-237.873	188.296	-0.476	-0.705
-236.859	21.644	0.286	-0.230
-235.844	-84.437	-0.830	0.260
-234.830	245.180	0.192	-0.320
-233.815	153.808	0.381	0.516
-232.800	800.000	-0.101	0.409
-231.786	-27.012	-0.698	0.403
-230.771	-200.000	-0.119	0.609
-229.757	102.440	-0.455	-0.526
-228.742	432.901	-0.189	0.407
-227.727	99.597	0.532	0.609
-226.713	-200.000	-0.140	0.000
-225.698	-55.924	0.784	0.346
-224.684	584.353	-0.235	0.572
-223.669	800.000	-0.071	0.242
-222.655	547.304	-0.191	0.452
-221.640	218.154	0.079	-0.125
-220.625	532.689	-0.091	-0.214
-219.611	238.618	-0.317	0.520
-218.596	490.185	0.101	0.230
-217.582	63.996	0.400	-0.398
-216.567	53.614	0.766	-0.727
-215.552	-75.864	0.546	0.191
-214.538	634.722	0.254	-0.637
-213.523	-87.333	0.848	0.254
-212.509	70.494	0.488	0.499
-211.494	119.676	-0.375	0.460
-210.479	277.421	-0.259	0.456
-209.465	-122.906	-1.027	-0.164
-208.450	-200.000	-0.004	0.897
-207.436	-4.760	-0.045	-0.031
-206.421	800.000	-0.126	0.471
-205.406	-200.000	0.095	0.614
-204.392	-2.600	-0.601	0.416
-203.377	266.957	0.375	0.648
-202.363	30.616	-0.177	0.150
-201.348	-12.137	-0.747	0.483
-200.333	-93.505	-0.532	0.146
-199.319	246.219	-0.651	-1.084
-198.304	-5.364	0.914	-0.621
-197.290	800.000	-0.063	-0.226
-196.275	-70.038	0.702	0.264
-195.260	800.000	-0.047	0.137
-194.246	-200.000	-0.031	0.624
-193.231	-56.935	-0.280	0.122
-192.217	523.561	-0.315	-0.731
-191.202	148.110	-0.590	-0.787
-190.187	-200.000	-0.009	0.141
-189.173	-200.000	-0.013	0.206
-188.158	-113.348	0.805	0.156
-187.144	-18.798	0.251	0.155
-186.129	-164.635	-0.773	0.035
-185.114	-78.413	-0.794	0.269
-184.100	-66.827	-0.210	0.082
-183.085	-71.287	0.294	0.109
-182.071	800.000	0.090	0.375
-181.056	-200.000	0.015	0.355
-180.042	-75.229	0.126	0.044
-179.027	559.362	-0.093	0.222
-178.012	126.980	0.773	-0.969
-176.998	170.156	-0.122	-0.173
-175.983	800.000	-0.061	-0.173
-174.969	-144.134	-0.702	0.065
-173.954	-25.777	-0.678	0.395
-172.939	800.000	0.208	0.740
-171.925	446.910	0.133	-0.290
-170.910	800.000	0.142	-0.612
-169.896	51.442	-0.204	0.191
-168.881	-200.000	-0.007	0.141
-167.866	-200.000	-0.069	0.747
-166.852	-24.041	0.487	0.287
-165.837	-114.887	-0.548	0.103
-164.823	47.283	-0.774	0.712
-163.808	-200.000	-0.004	-0.112
-162.793	48.083	-0.468	0.432
-161.779	540.844	-0.128	0.300
-160.764	32.462	-0.250	0.213
-159.750	-73.099	0.575	-0.208
-158.735	79.594	0.459	-0.486
-157.720	-38.942	-0.389	0.202
-156.706	355.743	0.246	-0.483
-155.691	256.607	0.194	-0.329
-154.677	-200.000	-0.081	0.506
-153.662	-156.161	-0.894	0.056
-152.647	-200.000	-0.143	-0.855
-151.633	315.310	0.306	-0.570
-150.618	800.000	-0.162	0.640
-149.604	-200.000	0.044	0.275
-148.589	497.627	-0.118	-0.267
-147.574	-44.873	0.476	-0.234
-146.560	-136.703	0.448	0.051
-145.545	800.000	0.071	-0.306
-144.531	800.000	0.166	0.548
-143.516	624.947	0.252	-0.626
-142.502	-65.053	0.682	0.272
-141.487	-200.000	0.051	0.305
-140.472	-200.000	0.007	0.777
-139.458	612.024	-0.194	-0.480
-138.443	234.204	0.217	-0.353
-137.429	-200.000	-0.158	-0.828
-136.414	-5.087	0.561	-0.381
-135.399	104.346	0.251	-0.292
-134.385	-182.448	-0.739	-0.013
-133.370	151.159	-0.149	0.200
-132.356	88.890	-0.276	0.303
-131.341	-122.659	-0.253	0.040
-130.326	-32.177	-0.521	-0.287
-129.312	-200.000	-0.014	-0.359
-128.297	-129.515	-0.341	-0.046
-127.283	-200.000	0.049	-0.312
-126.268	-175.373	0.496	0.013
-125.253	-200.000	0.048	-0.390
-124.239	-132.158	0.414	-0.053
-123.224	138.679	-0.323	-0.419
-122.210	308.359	0.245	0.451
-121.195	47.150	0.537	-0.493
-120.180	-143.216	-0.220	-0.021
-119.166	115.943	-0.209	-0.252
-118.151	-11.706	-0.711	-0.460
-117.137	-65.429	0.460	0.182
-116.122	-68.762	1.018	0.388
-115.107	132.596	-0.164	-0.209
-114.093	22.721	1.135	0.916
-113.078	-200.000	-0.088	0.442
-112.064	27.809	-0.289	-0.240
-111.049	49.678	-0.143	0.133
-110.034	-52.881	0.862	-0.391
-109.020	141.084	0.739	0.963
-108.005	-107.679	0.663	-0.143
-106.991	-200.000	-0.160	-0.715
-105.976	-200.000	0.008	0.273
-104.962	-92.083	-0.679	0.189
-103.947	-26.022	0.477	0.277
-102.932	117.681	0.395	-0.478
-101.918	-107.121	0.239	-0.052
-100.903	-43.944	-0.415	-0.206
-99.889	-98.237	0.840	0.213
-98.874	-45.345	1.187	0.580
-97.859	17.739	-0.181	-0.142
-96.845	10.945	-0.436	0.328
-95.830	122.384	0.555	-0.683
-94.816	-100.421	-0.264	-0.064
-93.801	-200.000	0.126	-0.848
-92.786	800.000	-0.319	1.374
-91.772	-147.782	0.102	0.008
-90.757	-73.459	-0.779	-0.280
-89.743	-98.596	0.525	-0.132
-88.728	155.549	-0.448	-0.608
-87.713	-67.571	0.524	-0.202
-86.699	-200.000	0.047	-0.373
-85.684	-60.668	-0.818	0.342
-84.670	-116.947	0.451	0.081
-83.655	-200.000	0.057	0.253
-82.640	800.000	0.074	-0.311
-81.626	-117.359	0.364	-0.065
-80.611	-13.477	-0.387	0.247
-79.597	-24.317	-0.380	0.223
-78.582	100.920	0.462	-0.529
-77.567	252.082	0.404	0.677
-76.553	-200.000	0.004	0.760
-75.538	262.583	-0.325	0.555
-74.524	295.168	-0.234	-0.421
-73.509	-109.275	0.911	-0.190
-72.494	-68.319	0.486	-0.186
-71.480	122.289	0.665	-0.818
-70.465	614.826	-0.244	0.601
-69.451	800.000	-0.164	-0.448
-68.436	254.158	-0.402	-0.675
-67.422	282.730	0.221	0.391
-66.407	800.000	-0.277	-0.915
-65.392	-200.000	-0.120	-0.580
-64.378	-200.000	0.139	-0.866
-63.363	15.827	0.869	-0.672
-62.349	259.182	0.178	-0.302
-61.334	-8.829	-0.979	-0.645
-60.319	-200.000	0.322	1.436
-59.305	-108.512	-0.787	-0.166
-58.290	52.318	0.600	0.563
-57.276	7.858	1.572	1.158
-56.261	-200.000	95.119	568.405
-55.246	641.425	1371.648	3434.468
-54.232	196.989	2560.201	3838.150
-53.217	112.069	2265.360	2691.022
-52.203	42.938	1888.514	1692.507
-51.188	36.750	1682.887	1461.618
-50.173	34.181	1637.835	1403.523
-49.159	52.657	1686.757	1583.979
-48.144	53.969	1702.278	1608.288
-47.130	36.303	1663.810	1441.486
-46.115	33.691	1648.605	1408.889
-45.100	33.603	1643.022	1403.411
-44.086	33.490	1641.681	1401.373
-43.071	33.654	1637.230	1398.729
-42.057	33.473	1635.151	1395.562
-41.042	33.368	1633.302	1393.162
-40.027	33.651	1630.595	1392.874
-39.013	33.458	1629.133	1390.154
-37.998	33.364	1627.359	1387.892
-36.984	33.751	1626.258	1389.732
-35.969	33.710	1624.499	1387.877
-34.954	33.636	1624.075	1386.916
-33.940	33.699	1621.081	1384.765
-32.925	33.767	1619.558	1383.909
-31.911	33.618	1618.456	1381.827
-30.896	33.760	1616.048	1380.749
-29.881	33.706	1614.627	1379.085
-28.867	33.695	1613.045	1377.602
-27.852	33.578	1611.725	1375.567
-26.838	33.695	1611.025	1375.765
-25.823	33.808	1608.344	1374.239
-24.809	33.746	1606.534	1372.191
-23.794	33.726	1605.879	1371.433
-22.779	33.927	1603.841	1371.083
-21.765	33.687	1602.482	1368.143
-20.750	33.743	1601.857	1367.953
-19.736	33.850	1599.272	1366.461
-18.721	33.802	1596.770	1363.928
-17.706	33.709	1596.617	1363.071
-16.692	33.588	1595.955	1361.588
-15.677	33.828	1593.515	1361.171
-14.663	33.601	1593.093	1359.128
-13.648	33.648	1592.373	1358.800
-12.633	33.681	1590.161	1357.095
-11.619	33.565	1589.299	1355.475
-10.604	33.681	1585.908	1353.357
-9.590	33.680	1585.268	1352.748
-8.575	33.628	1584.505	1351.671
-7.560	33.771	1583.502	1351.779
-6.546	33.772	1582.420	1350.811
-5.531	33.736	1580.600	1348.949
-4.517	33.501	1580.280	1346.955
-3.502	33.689	1578.392	1346.622
-2.487	33.709	1577.585	1346.025
-1.473	33.428	1564.770	1333.058
-0.458	30.497	1545.666	1296.322
0.556	27.834	1545.665	1263.423
1.571	25.193	1567.963	1262.967
2.586	24.562	1580.499	1268.477
3.600	21.569	1528.312	1205.899
4.615	12.497	1417.939	1060.459
5.629	4.264	1353.589	961.380
6.644	3.131	1344.415	947.799
7.659	2.733	1344.261	945.158
8.673	2.946	1341.428	944.389
9.688	2.950	1339.950	943.293
10.702	2.731	1337.331	940.020
11.717	5.941	1344.890	965.011
12.731	16.139	1362.760	1040.986
13.746	24.469	1378.344	1104.580
14.761	27.245	1381.160	1123.919
15.775	27.600	1380.427	1125.416
16.790	27.467	1380.165	1124.282
17.804	27.738	1380.131	1125.830
18.819	27.982	1379.721	1126.900
19.834	28.059	1378.613	1126.369
20.848	28.117	1378.637	1126.646
21.863	28.262	1377.578	1126.572
22.877	28.157	1377.232	1125.544
23.892	28.066	1376.012	1123.887
24.907	28.243	1374.225	1123.417
25.921	28.270	1374.027	1123.321
26.936	28.170	1372.513	1121.372
27.950	27.937	1373.014	1120.253
28.965	28.414	1370.503	1121.022
29.980	28.211	1369.282	1118.685
30.994	28.340	1368.126	1118.425
32.009	28.152	1368.084	1117.147
33.023	28.197	1365.886	1115.526
34.038	28.146	1364.929	1114.336
35.053	28.196	1363.700	1113.540
36.067	28.053	1364.023	1112.834
37.082	28.309	1362.255	1112.850
38.096	28.215	1362.042	1112.004
39.111	28.255	1361.134	1111.409
40.126	28.246	1360.200	1110.495
41.140	28.255	1359.677	1110.021
42.155	28.291	1360.203	1110.571
43.169	28.128	1360.325	1109.587
44.184	28.206	1359.598	1109.368
45.199	28.409	1358.357	1109.482
46.213	28.276	1358.368	1108.590
47.228	28.220	1357.803	1107.690
48.242	28.218	1356.360	1106.404
49.257	28.409	1354.942	1106.306
50.271	28.054	1353.885	1103.201
51.286	28.283	1352.215	1103.119
52.301	28.481	1350.037	1102.439
53.315	28.541	1349.283	1102.088
54.330	28.243	1348.866	1099.856
55.344	28.356	1347.633	1099.431
56.359	28.119	1347.679	1097.950
57.374	28.285	1345.824	1097.339
58.388	28.472	1345.349	1097.974
59.403	28.058	1345.550	1095.561
60.417	28.187	1344.602	1095.460
61.432	28.382	1343.476	1095.614
62.447	28.324	1343.312	1095.040
63.461	28.111	1342.222	1092.778
64.476	28.185	1341.486	1092.528
65.490	28.353	1339.455	1091.776
66.505	28.452	1338.022	1091.101
67.520	28.479	1337.364	1090.627
68.534	28.309	1335.921	1088.345
69.549	28.498	1335.022	1088.640
70.563	28.353	1334.611	1087.347
71.578	28.359	1333.378	1086.281
72.593	28.203	1332.055	1084.181
73.607	28.309	1331.942	1084.621
74.622	28.549	1330.468	1084.749
75.636	28.526	1329.740	1083.924
76.651	28.270	1330.226	1082.708
77.666	28.381	1329.704	1082.841
78.680	28.464	1328.468	1082.233
79.695	28.362	1328.424	1081.498
80.709	28.260	1327.737	1080.241
81.724	28.559	1325.263	1079.891
82.739	28.373	1325.787	1079.128
83.753	28.284	1324.545	1077.496
84.768	28.245	1324.369	1077.030
85.782	28.508	1321.753	1076.352
86.797	28.331	1321.409	1074.937
87.812	28.341	1320.977	1074.551
88.826	28.527	1319.646	1074.461
89.841	28.573	1317.333	1072.751
90.855	28.423	1317.381	1071.816
91.870	28.469	1315.686	1070.617
92.884	28.290	1315.436	1069.272
93.899	28.445	1314.025	1068.931
94.914	28.659	1313.245	1069.450
95.928	28.359	1313.182	1067.555
96.943	28.337	1312.490	1066.770
97.957	28.316	1312.563	1066.615
98.972	28.422	1311.234	1066.056
99.987	28.459	1309.881	1065.079
101.001	28.477	1308.971	1064.350
102.016	28.371	1308.404	1063.176
103.030	28.036	1308.158	1060.940
104.045	28.297	1306.823	1061.274
105.060	28.462	1306.218	1061.647
106.074	28.420	1304.566	1059.967
107.089	28.168	1303.680	1057.695
108.103	28.468	1301.713	1057.737
109.118	28.476	1301.231	1057.300
110.133	28.384	1300.451	1056.040
111.147	28.638	1298.532	1055.851
112.162	28.506	1297.822	1054.422
113.176	28.280	1296.591	1052.030
114.191	28.317	1296.603	1052.160
115.206	28.408	1296.058	1052.148
116.220	28.409	1295.307	1051.449
117.235	28.295	1293.233	1049.019
118.249	28.459	1293.071	1049.734
119.264	28.280	1292.896	1048.472
120.279	28.439	1292.045	1048.601
121.293	28.287	1291.407	1047.122
122.308	28.454	1289.971	1046.817
123.322	28.233	1288.869	1044.572
124.337	28.804	1287.546	1046.658
125.352	28.382	1287.161	1043.854
126.366	28.338	1286.303	1042.809
127.381	28.767	1284.174	1043.432
128.395	28.429	1284.639	1041.796
129.410	28.657	1284.211	1042.653
130.424	28.645	1282.121	1040.792
131.439	28.264	1282.707	1039.017
132.454	28.432	1281.594	1038.976
133.468	28.530	1280.560	1038.598
134.483	28.431	1280.208	1037.662
135.497	28.467	1280.157	1037.731
136.512	28.578	1278.544	1036.962
137.527	28.400	1276.932	1034.558
138.541	28.576	1276.015	1034.716
139.556	28.540	1275.153	1033.720
140.570	28.335	1275.176	1032.496
141.585	28.418	1273.157	1031.235
142.600	28.535	1272.083	1030.932
143.614	28.394	1271.221	1029.348
144.629	28.256	1270.213	1027.667
145.643	28.277	1269.282	1026.941
146.658	28.358	1268.236	1026.458
147.673	28.396	1266.736	1025.363
148.687	28.297	1266.523	1024.549
149.702	28.693	1265.533	1025.871
150.716	28.386	1264.798	1023.471
151.731	28.306	1263.398	1021.799
152.746	28.664	1262.047	1022.609
153.760	28.492	1261.942	1021.475
154.775	28.443	1260.731	1020.136
155.789	28.542	1259.234	1019.386
156.804	28.421	1258.766	1018.241
157.819	28.172	1258.246	1016.350
158.833	28.296	1257.479	1016.325
159.848	28.349	1256.477	1015.721
160.862	28.554	1255.189	1015.724
161.877	28.482	1254.493	1014.673
162.892	28.625	1253.711	1014.742
163.906	28.610	1252.969	1013.971
164.921	28.693	1251.741	1013.342
165.935	28.603	1251.892	1012.882
166.950	28.337	1251.437	1010.954
167.964	28.473	1250.645	1010.974
168.979	28.651	1250.058	1011.390
169.994	28.287	1250.295	1009.486
171.008	28.698	1248.078	1009.866
172.023	28.478	1248.259	1008.714
173.037	28.821	1245.988	1008.677
174.052	28.634	1246.104	1007.652
175.067	28.828	1244.691	1007.484
176.081	28.546	1244.777	1005.919
177.096	28.278	1245.527	1004.968
178.110	28.547	1242.593	1003.980
179.125	28.527	1241.158	1002.621
180.140	28.778	1240.936	1003.725
181.154	28.402	1240.286	1001.061
182.169	28.450	1239.044	1000.228
183.183	28.370	1238.409	999.191
184.198	28.204	1237.204	997.227
185.213	28.566	1236.451	998.504
186.227	28.657	1235.024	997.756
187.242	28.600	1234.266	996.748
188.256	28.530	1233.097	995.335
189.271	28.695	1232.642	995.775
190.286	28.745	1232.824	996.104
191.300	28.499	1231.746	993.814
192.315	28.694	1230.368	993.670
193.329	28.563	1229.570	992.227
194.344	28.763	1229.866	993.460
195.359	28.645	1229.931	992.786
196.373	28.527	1229.501	991.712
197.388	28.752	1228.833	992.302
198.402	28.429	1229.394	990.924
199.417	28.551	1227.689	990.119
200.432	28.401	1228.443	989.829
201.446	28.582	1226.718	989.325
202.461	28.774	1225.461	989.257
203.475	28.439	1225.857	987.690
204.490	28.238	1224.454	985.386
205.504	28.606	1222.909	986.034
206.519	28.718	1222.382	986.124
207.534	28.668	1221.129	984.760
208.548	28.733	1220.907	984.839
209.563	28.505	1219.779	982.624
210.577	28.835	1219.277	983.899
211.592	28.842	1218.539	983.251
212.607	28.792	1217.448	982.018
213.621	28.762	1216.597	981.081
214.636	28.717	1215.888	980.187
215.650	28.863	1214.420	979.696
216.665	28.692	1213.815	978.208
217.680	28.729	1213.324	977.925
218.694	28.719	1212.836	977.392
219.709	28.640	1212.601	976.696
220.723	28.644	1211.588	975.815
221.738	28.646	1210.317	974.712
222.753	28.590	1209.783	973.899
223.767	28.696	1208.370	973.236
224.782	28.692	1208.994	973.632
225.796	28.573	1208.626	972.620
226.811	28.821	1207.806	973.186
227.826	28.698	1207.586	972.274
228.840	28.515	1207.608	971.233
229.855	28.917	1205.955	971.947
230.869	28.827	1204.461	970.179
231.884	28.789	1204.150	969.640
232.899	29.129	1202.982	970.409
233.913	28.738	1203.985	969.068
234.928	28.704	1203.345	968.287
235.942	29.089	1201.213	968.512
236.957	28.780	1200.938	966.580
237.972	28.682	1200.880	965.936
238.986	28.806	1200.335	966.061
240.001	29.059	1198.922	966.167
241.015	29.040	1199.404	966.371
242.030	29.055	1198.090	965.304
243.045	29.308	1197.381	965.972
244.059	28.951	1196.422	963.245
245.074	28.983	1195.260	962.391
246.088	29.044	1194.345	961.887
247.103	28.861	1195.044	961.409
248.117	29.034	1193.586	961.053
249.132	28.986	1192.838	960.118
250.147	28.962	1192.863	959.926
251.161	29.109	1192.309	960.162
252.176	29.019	1190.820	958.411
253.190	29.070	1191.298	958.976
254.205	29.033	1189.225	957.031
255.220	29.139	1189.169	957.449
256.234	29.123	1188.330	956.607
257.249	29.095	1186.688	955.058
258.263	28.976	1187.550	955.048
259.278	28.891	1186.611	953.769
260.293	29.087	1185.925	954.145
261.307	29.302	1186.028	955.261
262.322	29.532	1185.385	955.846
263.336	29.169	1184.072	952.829
264.351	29.125	1183.325	951.916
265.366	29.106	1182.952	951.431
266.380	29.040	1182.513	950.652
267.395	29.215	1181.699	950.820
268.409	29.070	1181.084	949.494
269.424	29.110	1179.909	948.669
270.439	29.020	1180.629	948.700
271.453	29.392	1179.327	949.487
272.468	29.036	1178.491	946.896
273.482	28.858	1178.650	946.025
274.497	29.206	1177.038	946.435
275.512	29.206	1177.861	947.016
276.526	29.127	1177.088	945.902
277.541	29.111	1176.216	945.034
278.555	29.169	1175.028	944.297
279.570	29.248	1173.886	943.700
280.585	29.335	1173.459	943.716
281.599	29.189	1173.113	942.610
282.614	29.014	1171.770	940.551
283.628	29.351	1170.439	941.118
284.643	29.524	1168.896	940.676
285.657	29.360	1168.614	939.534
286.672	29.237	1168.579	938.797
287.687	29.482	1167.392	939.002
288.701	29.257	1166.898	937.380
289.716	29.472	1165.772	937.485
290.730	29.005	1165.594	934.888
291.745	29.508	1165.530	937.307
292.760	29.445	1164.488	936.066
293.774	29.633	1162.710	935.507
294.789	29.349	1163.107	934.302
295.803	29.319	1162.457	933.549
296.818	29.339	1162.547	933.636
297.833	29.327	1161.083	932.320
298.847	29.367	1161.713	932.943
299.862	29.163	1161.171	931.394
300.876	29.603	1159.155	931.917
301.891	29.358	1159.259	930.682
302.906	29.560	1158.269	930.823
303.920	29.180	1158.266	928.823
304.935	29.513	1156.856	929.288
305.949	29.362	1156.487	928.150
306.964	29.452	1156.213	928.297
307.979	29.478	1154.831	927.238
308.993	29.710	1154.299	927.894
310.008	29.499	1153.436	926.056
311.022	29.485	1153.651	926.080
312.037	29.875	1152.257	926.832
313.052	29.332	1151.569	923.479
314.066	29.538	1150.715	923.742
315.081	29.609	1149.922	923.380
316.095	29.529	1148.940	922.108
317.110	29.832	1148.570	923.240
318.125	29.446	1147.400	920.295
319.139	29.441	1147.091	919.942
320.154	29.473	1146.767	919.758
321.168	29.303	1146.665	918.749
322.183	29.536	1144.846	918.371
323.197	29.839	1144.379	919.422
324.212	29.678	1144.776	918.858
325.227	29.698	1144.191	918.403
326.241	29.867	1142.647	917.922
327.256	29.790	1142.384	917.250
328.270	29.657	1142.179	916.343
329.285	29.745	1140.763	915.560
330.300	29.749	1141.185	915.840
331.314	29.795	1139.263	914.443
332.329	29.785	1138.654	913.824
333.343	29.875	1138.266	913.879
334.358	29.768	1137.476	912.635
335.373	29.670	1136.949	911.648
336.387	29.665	1136.154	910.905
337.402	29.926	1135.230	911.370
338.416	29.985	1135.005	911.395
339.431	29.967	1133.538	910.049
340.446	29.837	1133.591	909.373
341.460	29.702	1133.557	908.602
342.475	30.025	1132.296	909.096
343.489	30.120	1130.995	908.435
344.504	29.984	1131.018	907.709
345.519	29.944	1129.593	906.290
346.533	29.943	1128.954	905.691
347.548	30.066	1127.972	905.423
348.562	29.891	1128.313	904.763
349.577	30.007	1127.133	904.301
350.592	29.614	1126.652	901.919
351.606	29.796	1125.209	901.572
352.621	30.036	1124.151	901.813
353.635	30.017	1124.375	901.817
354.650	30.241	1122.476	901.305
355.665	30.167	1122.858	901.173
356.679	30.016	1122.866	900.364
357.694	29.998	1122.043	899.535
358.708	30.250	1120.893	899.759
359.723	30.175	1120.169	898.732
360.738	29.844	1119.912	896.845
361.752	29.985	1119.380	897.020
362.767	30.214	1118.674	897.483
363.781	30.163	1118.439	896.972
364.796	30.188	1118.220	896.837
365.810	29.895	1117.717	894.935
366.825	30.509	1116.106	896.531
367.840	30.289	1115.036	894.533
368.854	30.011	1116.788	894.515
369.869	30.172	1114.787	893.609
370.883	30.247	1113.873	893.160
371.898	30.399	1112.031	892.334
372.913	30.079	1113.512	891.903
373.927	30.014	1112.768	890.916
374.942	30.382	1111.254	891.390
375.956	30.101	1110.840	889.630
376.971	30.146	1110.753	889.699
377.986	30.114	1110.318	889.118
379.000	30.582	1109.330	890.492
380.015	30.281	1109.426	889.049
381.029	30.307	1108.444	888.307
382.044	29.933	1108.595	886.556
383.059	30.378	1107.566	887.788
384.073	30.385	1106.903	887.210
385.088	30.365	1106.583	886.777
386.102	30.323	1104.740	885.024
387.117	30.638	1103.159	885.176
388.132	30.475	1102.968	884.172
389.146	30.392	1103.129	883.825
390.161	30.461	1101.988	883.163
391.175	30.499	1101.602	882.955
392.190	30.386	1100.536	881.487
393.205	30.464	1100.079	881.413
394.219	30.433	1098.536	879.949
395.234	30.527	1098.391	880.201
396.248	30.530	1097.443	879.376
397.263	30.485	1097.036	878.760
398.278	30.328	1097.340	878.182
399.292	30.458	1096.119	877.744
400.307	30.825	1095.406	878.826
401.321	30.700	1094.353	877.316
402.336	30.715	1093.812	876.874
403.350	30.691	1093.420	876.369
404.365	30.307	1093.333	874.412
405.380	30.728	1091.097	874.526
406.394	30.729	1090.921	874.316
407.409	30.676	1091.488	874.441
408.423	30.609	1090.378	873.162
409.438	30.904	1088.763	873.173
410.453	30.855	1088.487	872.643
411.467	31.066	1087.321	872.621
412.482	31.124	1086.801	872.397
413.496	30.954	1086.955	871.648
414.511	30.813	1086.057	870.192
415.526	30.744	1085.118	869.039
416.540	30.719	1085.703	869.314
417.555	31.051	1083.902	869.343
418.569	30.824	1084.269	868.500
419.584	31.146	1083.155	869.035
420.599	31.124	1082.011	867.938
421.613	151.685	1406.687	1792.287
422.628	140.028	1453.931	1792.275
