DTS Sentinel unit serial number:	SN413079Multiplexer serial number:	ORYXHardware model number:	OX4-SRSoftware version number:	ORYX F/W v4.00 Oryx Data Collector v3.7.2.0data status	okinstallation	princeton_trtdifferential loss correction	single-endedforward channel	channel 2reverse channel	N/Adate	2019/09/17time	05:39:35forward acquisition time	60.00reverse acquisition time	0.00gamma	496.2192k internal	0.2329k external	0.2329temperature offset calibration	0.9972default loss term (dB/km)	0.3790temperature slope calibration	1.0000multiplexer offset coefficient	1.0000multiplexer slope coefficient	1.0000fibre end	0.00T internal ref (°C)	29.12T ext. ref 1 (°C)	0.14T ext. ref 2 (°C)	22.90length (m)	temperature (°C)	Stokes	anti-Stokes-747.200	-155.671	0.234	-0.015
-746.185	737.101	0.071	0.192
-745.171	66.928	-0.124	-0.127
-744.156	182.997	-0.143	0.213
-743.142	-67.580	0.221	0.087
-742.127	-200.000	0.017	0.178
-741.112	71.668	0.069	0.072
-740.098	-200.000	-0.045	0.217
-739.083	33.575	0.102	0.089
-738.069	-102.181	-0.304	0.074
-737.054	28.811	0.122	0.104
-736.039	-87.563	-0.293	-0.089
-735.025	-167.268	-0.139	0.006
-734.010	163.255	0.026	-0.037
-732.996	-200.000	-0.016	0.089
-731.981	-64.441	0.262	-0.107
-730.966	-200.000	0.005	-0.262
-729.952	-67.833	0.192	-0.076
-728.937	-200.000	-0.067	0.317
-727.923	118.497	0.112	0.139
-726.908	-96.059	-0.447	-0.120
-725.894	-77.761	0.098	-0.034
-724.879	153.074	0.243	-0.334
-723.864	197.879	-0.076	0.117
-722.850	278.334	-0.074	0.133
-721.835	-136.995	-0.050	0.006
-720.821	775.357	0.149	0.410
-719.806	-14.782	-0.200	-0.130
-718.791	37.815	-0.223	-0.199
-717.777	-46.038	0.102	0.051
-716.762	-16.974	0.325	0.207
-715.748	-135.509	0.116	0.014
-714.733	204.935	-0.039	0.061
-713.718	-200.000	0.011	-0.086
-712.704	-200.000	0.020	-0.142
-711.689	143.643	-0.099	0.133
-710.675	155.810	0.104	0.144
-709.660	239.917	-0.065	0.110
-708.645	177.081	-0.088	-0.129
-707.631	-122.229	-0.304	0.050
-706.616	-170.809	0.171	-0.006
-705.602	285.301	0.128	-0.231
-704.587	-28.033	0.278	-0.162
-703.572	-200.000	0.010	0.063
-702.558	-133.429	0.373	-0.047
-701.543	-94.386	0.254	0.070
-700.529	-97.611	0.336	-0.088
-699.514	629.123	0.093	0.236
-698.499	-176.737	-0.266	-0.007
-697.485	-1.877	-0.331	-0.234
-696.470	-102.682	0.278	-0.067
-695.456	-200.000	0.022	-0.163
-694.441	-18.161	-0.110	0.069
-693.426	528.947	0.167	0.395
-692.412	-20.723	-0.132	-0.081
-691.397	-200.000	-0.005	-0.266
-690.383	483.940	-0.072	0.164
-689.368	-200.000	0.008	0.043
-688.354	-130.637	-0.171	-0.023
-687.339	-200.000	0.047	-0.282
-686.324	-196.264	0.131	0.001
-685.310	-200.000	-0.043	-0.284
-684.295	1.921	-0.153	0.111
-683.281	800.000	0.114	-0.466
-682.266	-95.104	-0.191	0.052
-681.251	111.531	-0.128	0.155
-680.237	256.019	-0.139	0.240
-679.222	-75.968	0.074	-0.026
-678.208	440.340	0.033	-0.072
-677.193	-200.000	0.060	-0.337
-676.178	-55.168	-0.251	0.113
-675.164	7.139	-0.111	0.083
-674.149	-117.434	-0.175	0.032
-673.135	203.033	0.134	-0.208
-672.120	213.323	0.109	-0.173
-671.105	121.812	0.094	-0.118
-670.091	157.024	0.214	-0.297
-669.076	-61.966	-0.220	-0.092
-668.062	-63.541	-0.165	0.068
-667.047	800.000	-0.012	-0.044
-666.032	233.091	-0.057	0.094
-665.018	-131.427	0.279	-0.037
-664.003	800.000	-0.061	-0.199
-662.989	-81.873	-0.291	0.096
-661.974	-127.647	0.092	-0.013
-660.959	800.000	0.074	0.238
-659.945	175.455	-0.091	0.132
-658.930	-102.379	-0.114	-0.027
-657.916	13.021	0.093	-0.072
-656.901	-170.616	-0.127	0.004
-655.886	278.432	0.157	0.281
-654.872	33.024	0.262	0.228
-653.857	-194.364	-0.053	-0.000
-652.843	-200.000	-0.038	0.248
-651.828	-89.578	0.013	0.004
-650.814	800.000	-0.072	-0.259
-649.799	319.563	-0.113	0.215
-648.784	-65.523	-0.048	0.020
-647.770	-108.497	-0.103	0.022
-646.755	-144.478	0.385	-0.036
-645.741	30.885	0.047	-0.041
-644.726	-29.913	-0.240	0.137
-643.711	800.000	0.063	0.265
-642.697	-200.000	-0.002	-0.095
-641.682	-149.615	0.101	0.008
-640.668	-200.000	-0.005	0.117
-639.653	-4.921	-0.186	0.128
-638.638	64.752	-0.178	-0.181
-637.624	-19.417	0.008	0.005
-636.609	-200.000	0.050	-0.269
-635.595	197.006	-0.104	0.159
-634.580	285.365	-0.050	0.091
-633.565	-192.935	-0.445	0.004
-632.551	92.889	0.088	0.100
-631.536	373.651	0.114	0.233
-630.522	552.329	-0.036	-0.088
-629.507	-200.000	0.040	-0.333
-628.492	-74.186	0.216	-0.078
-627.478	77.448	-0.112	-0.120
-626.463	800.000	-0.074	-0.210
-625.449	-101.478	0.334	0.082
-624.434	-121.800	-0.099	0.016
-623.419	-55.234	0.061	0.027
-622.405	-200.000	0.013	0.175
-621.390	130.613	-0.081	-0.105
-620.376	-138.742	0.296	0.032
-619.361	388.704	0.080	-0.167
-618.346	-22.386	-0.334	0.203
-617.332	605.675	-0.150	-0.375
-616.317	217.629	0.059	0.095
-615.303	2.500	0.314	0.228
-614.288	296.887	-0.149	0.274
-613.273	-95.010	-0.272	0.074
-612.259	40.263	-0.087	0.079
-611.244	-200.000	-0.010	0.071
-610.230	52.721	-0.131	-0.126
-609.215	-93.496	0.178	-0.049
-608.201	184.800	-0.174	0.258
-607.186	9.338	0.223	0.169
-606.171	30.878	-0.139	0.119
-605.157	-200.000	-0.025	0.120
-604.142	800.000	0.113	0.318
-603.128	-79.473	-0.266	0.090
-602.113	-36.623	0.107	-0.058
-601.098	-14.463	0.212	0.136
-600.084	-200.000	-0.021	-0.243
-599.069	133.086	-0.117	0.151
-598.055	-84.976	0.116	-0.036
-597.040	-81.669	-0.113	-0.037
-596.025	-200.000	-0.003	0.193
-595.011	-200.000	0.035	-0.243
-593.996	-72.645	-0.309	-0.114
-592.982	375.656	-0.083	-0.168
-591.967	800.000	0.055	0.158
-590.952	501.615	0.122	-0.282
-589.938	54.496	0.182	0.175
-588.923	-86.338	-0.048	-0.015
-587.909	-20.417	0.155	-0.096
-586.894	246.404	-0.151	-0.255
-585.879	800.000	0.048	-0.142
-584.865	-200.000	-0.051	-0.309
-583.850	484.548	-0.014	0.031
-582.836	800.000	0.028	-0.116
-581.821	-102.256	-0.042	-0.010
-580.806	79.670	0.192	0.207
-579.792	-24.500	-0.282	0.168
-578.777	3.765	0.179	0.131
-577.763	404.542	-0.127	-0.267
-576.748	-3.060	0.135	0.094
-575.733	-123.613	-0.409	-0.065
-574.719	53.650	0.207	0.199
-573.704	144.444	0.227	-0.303
-572.690	23.057	0.237	-0.195
-571.675	-56.991	0.294	-0.130
-570.661	-135.421	-0.031	0.004
-569.646	-200.000	0.051	-0.241
-568.631	-33.929	0.172	0.095
-567.617	18.025	0.171	-0.136
-566.602	32.799	0.078	-0.068
-565.588	-68.010	0.250	0.098
-564.573	227.293	0.091	-0.148
-563.558	-72.119	0.058	-0.022
-562.544	43.980	-0.247	0.226
-561.529	188.081	-0.080	0.120
-560.515	282.022	-0.103	0.184
-559.500	-162.033	0.164	0.008
-558.485	-39.377	0.144	0.076
-557.471	-52.452	-0.200	-0.093
-556.456	368.647	-0.098	0.198
-555.442	-12.495	-0.138	-0.090
-554.427	-15.356	-0.316	0.202
-553.412	-20.414	-0.141	0.087
-552.398	376.926	-0.101	-0.206
-551.383	-6.898	0.136	-0.093
-550.369	503.174	-0.169	-0.390
-549.354	353.422	-0.105	-0.208
-548.339	236.459	0.045	-0.075
-547.325	-114.517	0.462	-0.089
-546.310	-32.270	-0.498	0.278
-545.296	180.507	0.110	-0.161
-544.281	-200.000	0.066	-0.396
-543.266	210.740	0.182	0.286
-542.252	34.859	-0.080	0.070
-541.237	6.759	-0.347	-0.258
-540.223	362.852	-0.080	0.161
-539.208	-2.423	-0.124	0.087
-538.193	9.160	-0.402	-0.303
-537.179	157.750	-0.022	0.030
-536.164	183.712	0.099	-0.146
-535.150	-149.249	-0.338	0.027
-534.135	142.341	-0.111	0.148
-533.121	227.428	-0.059	-0.096
-532.106	-200.000	-0.014	-0.693
-531.091	-113.381	-0.455	-0.089
-530.077	800.000	-0.065	0.279
-529.062	-45.545	0.282	0.140
-528.048	-1.381	0.016	-0.011
-527.033	-61.840	-0.138	-0.058
-526.018	-97.360	0.062	-0.016
-525.004	-91.789	-0.191	0.054
-523.989	94.553	0.025	0.028
-522.975	175.601	-0.157	-0.227
-521.960	149.168	-0.263	0.355
-520.945	-200.000	-0.065	0.357
-519.931	-147.111	0.358	0.031
-518.916	-113.947	0.254	-0.049
-517.902	511.557	-0.062	-0.145
-516.887	-200.000	0.064	-0.378
-515.872	-173.952	-0.137	0.004
-514.858	-200.000	-0.041	-0.335
-513.843	-90.153	0.366	-0.106
-512.829	319.250	0.129	0.244
-511.814	314.745	0.029	-0.055
-510.799	259.726	-0.125	0.216
-509.785	-152.545	-0.245	-0.017
-508.770	-125.028	0.225	0.035
-507.756	292.753	-0.025	-0.046
-506.741	30.161	0.203	-0.173
-505.726	19.293	-0.123	-0.098
-504.712	-108.174	0.475	-0.103
-503.697	-200.000	-0.019	-0.112
-502.683	-200.000	-0.042	0.258
-501.668	-200.000	0.010	0.401
-500.653	12.016	0.279	0.214
-499.639	-166.153	0.438	-0.019
-498.624	-200.000	0.017	0.137
-497.610	86.947	0.213	-0.235
-496.595	406.326	-0.050	-0.105
-495.581	112.583	-0.324	-0.391
-494.566	-58.789	-0.379	-0.164
-493.551	800.000	-0.148	-0.427
-492.537	800.000	0.072	-0.226
-491.522	75.663	0.237	0.250
-490.508	-200.000	-0.031	-0.230
-489.493	777.085	0.022	0.061
-488.478	559.495	0.070	-0.169
-487.464	223.190	0.098	-0.158
-486.449	175.146	-0.152	-0.219
-485.435	-71.061	-0.212	-0.079
-484.420	-14.667	0.114	-0.073
-483.405	106.445	-0.107	-0.127
-482.391	43.868	-0.098	0.089
-481.376	398.529	-0.076	-0.158
-480.362	398.626	-0.088	-0.184
-479.347	207.145	-0.009	0.013
-478.332	-200.000	0.027	0.414
-477.318	18.706	0.201	-0.161
-476.303	-122.282	0.179	0.029
-475.289	-200.000	0.016	-0.102
-474.274	171.679	0.061	0.087
-473.259	-24.022	0.136	0.081
-472.245	-200.000	0.385	0.001
-471.230	-125.694	0.294	0.044
-470.216	800.000	-0.067	-0.287
-469.201	-7.445	-0.238	0.160
-468.186	107.351	0.049	0.058
-467.172	-200.000	0.033	-0.143
-466.157	-64.078	0.078	0.032
-465.143	528.765	0.163	-0.383
-464.128	800.000	-0.056	0.204
-463.113	155.820	0.138	0.189
-462.099	100.669	0.124	0.144
-461.084	43.100	-0.098	0.089
-460.070	-104.976	-0.080	0.018
-459.055	-82.646	0.213	0.069
-458.040	-200.000	-0.012	-0.055
-457.026	92.528	-0.335	0.377
-456.011	405.154	0.125	0.262
-454.997	289.349	0.022	-0.041
-453.982	148.589	-0.142	-0.191
-452.968	139.574	-0.210	-0.275
-451.953	-170.288	-0.475	-0.017
-450.938	46.899	0.194	0.180
-449.924	-25.671	-0.034	0.020
-448.909	-30.393	-0.151	0.085
-447.895	-200.000	0.035	0.212
-446.880	-131.512	0.122	0.016
-445.865	205.704	0.179	-0.277
-444.851	-112.816	0.121	-0.024
-443.836	428.372	-0.093	-0.201
-442.822	-77.788	0.140	-0.048
-441.807	280.960	0.116	-0.206
-440.792	-116.501	-0.419	-0.077
-439.778	-151.025	0.230	-0.017
-438.763	175.715	0.065	-0.093
-437.749	16.512	0.120	-0.094
-436.734	-7.754	-0.377	-0.253
-435.719	414.976	-0.094	0.199
-434.705	-200.000	-0.069	-0.403
-433.690	-200.000	0.013	-0.187
-432.676	48.172	0.143	-0.133
-431.661	-20.144	0.236	0.145
-430.646	-56.191	0.249	0.110
-429.632	-74.825	0.194	0.069
-428.617	302.024	-0.116	-0.214
-427.603	-115.872	-0.114	0.021
-426.588	-72.436	-0.266	-0.098
-425.573	800.000	0.100	0.310
-424.559	-73.763	0.126	0.046
-423.544	317.026	-0.172	0.323
-422.530	-200.000	-0.021	0.304
-421.515	161.891	-0.049	-0.069
-420.500	-200.000	0.019	-0.117
-419.486	-25.144	-0.237	-0.139
-418.471	-200.000	-0.043	0.450
-417.457	296.805	0.040	-0.074
-416.442	-99.536	0.111	-0.028
-415.428	86.124	-0.141	0.154
-414.413	-183.457	-0.225	0.004
-413.398	-161.036	0.233	0.012
-412.384	-122.177	0.239	-0.039
-411.369	-200.000	-0.083	0.425
-410.355	-27.838	-0.115	-0.066
-409.340	-107.495	0.155	-0.034
-408.325	-138.882	-0.135	0.015
-407.311	-91.395	-0.157	-0.045
-406.296	-128.583	0.116	0.016
-405.282	744.016	-0.067	-0.180
-404.267	470.267	-0.036	0.080
-403.252	-200.000	-0.039	0.360
-402.238	25.883	0.238	0.197
-401.223	-96.519	-0.239	-0.063
-400.209	100.176	-0.190	0.219
-399.194	-108.569	0.253	0.054
-398.179	12.059	0.012	0.009
-397.165	-45.520	0.222	-0.109
-396.150	-43.544	0.108	-0.054
-395.136	-200.000	0.096	0.424
-394.121	-200.000	-0.061	-0.285
-393.106	191.901	0.135	-0.201
-392.092	-200.000	-0.020	-0.151
-391.077	-86.578	0.248	-0.075
-390.063	61.339	0.416	-0.410
-389.048	26.451	-0.223	-0.185
-388.033	-106.634	-0.272	0.060
-387.019	-200.000	-0.093	-0.549
-386.004	-200.000	-0.006	-0.094
-384.990	-25.056	-0.072	0.043
-383.975	-108.157	0.215	0.046
-382.960	174.235	-0.093	0.133
-381.946	-200.000	0.011	-0.054
-380.931	292.377	0.184	-0.333
-379.917	-88.988	0.163	-0.048
-378.902	-139.464	-0.196	-0.021
-377.888	14.402	0.238	-0.184
-376.873	80.799	-0.135	-0.145
-375.858	-96.534	0.176	-0.046
-374.844	-119.661	-0.280	0.048
-373.829	-33.869	0.221	0.121
-372.815	-162.638	-0.336	0.016
-371.800	800.000	-0.080	-0.284
-370.785	-200.000	-0.047	0.278
-369.771	-110.070	0.166	-0.035
-368.756	-48.645	0.390	0.186
-367.742	-119.329	0.107	0.018
-366.727	-86.000	0.257	0.079
-365.712	668.304	0.030	-0.078
-364.698	35.768	0.149	0.130
-363.683	261.123	-0.171	0.293
-362.669	-72.396	0.174	0.064
-361.654	-78.657	-0.134	-0.045
-360.639	130.542	-0.153	0.194
-359.625	800.000	-0.093	0.273
-358.610	-162.072	-0.332	0.017
-357.596	13.743	0.340	-0.262
-356.581	421.512	-0.180	0.383
-355.566	-200.000	-0.024	0.181
-354.552	211.482	-0.058	0.090
-353.537	-85.535	-0.076	0.023
-352.523	-104.355	0.233	0.054
-351.508	-2.285	0.123	0.085
-350.493	-200.000	0.016	0.173
-349.479	192.206	0.123	0.184
-348.464	99.628	-0.053	0.061
-347.450	-111.726	0.292	-0.059
-346.435	-200.000	-0.011	-0.051
-345.420	-86.762	0.226	-0.069
-344.406	38.476	-0.264	-0.233
-343.391	800.000	-0.033	-0.093
-342.377	37.561	-0.144	0.127
-341.362	683.014	0.100	0.259
-340.348	74.646	0.213	0.222
-339.333	-11.256	0.084	0.055
-338.318	113.930	0.068	-0.082
-337.304	-99.357	0.084	0.021
-336.289	277.037	-0.085	0.150
-335.275	311.526	-0.154	0.286
-334.260	-40.572	0.038	0.020
-333.245	-200.000	-0.024	0.272
-332.231	53.694	-0.243	-0.231
-331.216	57.713	0.234	-0.227
-330.202	-200.000	0.039	-0.176
-329.187	800.000	-0.040	0.148
-328.172	-134.117	-0.093	0.011
-327.158	620.586	0.041	-0.102
-326.143	39.748	-0.257	0.228
-325.129	-133.154	-0.279	-0.035
-324.114	800.000	0.054	0.194
-323.099	-135.395	-0.154	-0.018
-322.085	-200.000	-0.038	-0.369
-321.070	103.436	-0.094	-0.109
-320.056	800.000	0.059	0.231
-319.041	800.000	0.112	0.328
-318.026	46.254	0.060	0.055
-317.012	-200.000	0.014	0.111
-315.997	144.731	0.248	0.328
-314.983	-200.000	0.009	-0.041
-313.968	532.104	-0.089	0.209
-312.953	298.198	0.201	-0.366
-311.939	2.028	-0.014	-0.010
-310.924	84.501	0.107	0.116
-309.910	800.000	-0.040	0.120
-308.895	-30.780	0.242	0.135
-307.880	800.000	0.082	-0.325
-306.866	89.570	0.274	-0.303
-305.851	213.827	0.070	-0.110
-304.837	800.000	-0.099	-0.318
-303.822	283.992	0.140	0.249
-302.807	800.000	-0.055	0.208
-301.793	-19.640	-0.132	0.081
-300.778	800.000	0.020	-0.074
-299.764	-200.000	0.016	0.125
-298.749	-52.734	0.152	0.070
-297.735	253.906	-0.084	-0.143
-296.720	-200.000	-0.021	0.116
-295.705	800.000	-0.076	-0.284
-294.691	-111.693	0.186	-0.037
-293.676	-200.000	-0.037	0.175
-292.662	-200.000	0.012	0.143
-291.647	800.000	-0.020	0.079
-290.632	117.842	-0.155	0.188
-289.618	-42.699	0.190	-0.096
-288.603	409.993	0.188	-0.394
-287.589	218.899	0.022	0.035
-286.574	-164.801	0.251	0.011
-285.559	-18.723	-0.178	0.110
-284.545	3.207	-0.156	0.112
-283.530	-159.869	-0.199	0.011
-282.516	245.653	0.317	0.528
-281.501	-144.818	-0.295	-0.027
-280.486	-95.834	-0.253	0.067
-279.472	-200.000	-0.024	-0.211
-278.457	288.644	-0.019	0.034
-277.443	-84.953	-0.128	0.040
-276.428	708.051	-0.080	0.210
-275.413	-128.804	0.141	-0.020
-274.399	-30.495	-0.034	0.019
-273.384	-94.771	-0.306	0.082
-272.370	343.595	-0.082	0.159
-271.355	104.666	-0.213	0.248
-270.340	-62.269	0.143	-0.059
-269.326	-144.114	-0.276	-0.026
-268.311	-189.262	0.214	-0.003
-267.297	-100.817	0.321	0.078
-266.282	20.269	-0.202	-0.161
-265.267	408.476	0.090	-0.187
-264.253	800.000	0.041	0.148
-263.238	361.378	0.070	-0.138
-262.224	-200.000	0.065	0.422
-261.209	-200.000	0.044	0.195
-260.195	181.198	-0.081	0.118
-259.180	-105.719	0.241	0.054
-258.165	218.054	-0.273	0.431
-257.151	191.110	0.116	-0.172
-256.136	-157.119	0.202	-0.012
-255.122	168.570	-0.103	0.145
-254.107	-73.656	-0.004	0.001
-253.092	-48.009	0.215	-0.103
-252.078	-200.000	0.008	0.061
-251.063	-165.767	-0.179	-0.008
-250.049	233.868	-0.125	-0.203
-249.034	-160.968	0.147	-0.008
-248.019	-200.000	0.015	-0.358
-247.005	-83.979	-0.213	0.067
-245.990	-31.406	0.124	-0.069
-244.976	-200.000	0.014	-0.219
-243.961	-34.798	0.089	0.048
-242.946	84.654	0.152	-0.164
-241.932	800.000	-0.037	0.154
-240.917	-47.394	-0.149	-0.071
-239.903	-28.808	-0.107	0.061
-238.888	-53.844	0.120	-0.054
-237.873	705.282	-0.091	0.236
-236.859	269.478	0.069	0.120
-235.844	87.356	0.209	-0.229
-234.830	-19.743	-0.096	-0.058
-233.815	92.130	0.435	-0.484
-232.800	130.834	-0.084	0.106
-231.786	-159.546	-0.344	0.019
-230.771	-168.111	0.314	-0.012
-229.757	252.335	-0.060	0.100
-228.742	64.994	0.160	0.159
-227.727	64.733	0.131	-0.130
-226.713	-84.511	-0.272	0.085
-225.698	13.428	-0.102	-0.078
-224.684	171.334	0.080	-0.113
-223.669	-162.342	-0.302	0.015
-222.655	198.851	-0.220	-0.333
-221.640	-38.973	-0.142	-0.074
-220.625	800.000	0.048	-0.185
-219.611	800.000	-0.032	0.107
-218.596	210.765	0.140	0.217
-217.582	143.571	0.100	-0.132
-216.567	120.708	0.260	-0.318
-215.552	-146.097	-0.209	-0.018
-214.538	45.991	-0.143	-0.130
-213.523	58.359	0.122	-0.118
-212.509	-59.445	-0.203	0.086
-211.494	8.138	-0.131	0.097
-210.479	-22.352	-0.293	0.175
-209.465	-77.658	0.243	0.083
-208.450	-200.000	-0.019	-0.177
-207.436	203.363	-0.214	-0.326
-206.421	800.000	-0.056	0.233
-205.406	-157.132	-0.215	0.013
-204.392	1.785	0.116	0.082
-203.377	800.000	0.016	0.050
-202.363	-47.791	0.226	0.108
-201.348	-200.000	-0.056	0.286
-200.333	-200.000	0.013	0.264
-199.319	-101.270	-0.366	-0.088
-198.304	-21.598	-0.207	-0.124
-197.290	313.033	-0.082	0.152
-196.275	800.000	-0.093	-0.302
-195.260	-5.683	-0.209	0.141
-194.246	27.333	-0.193	0.160
-193.231	34.005	0.050	-0.043
-192.217	-200.000	-0.043	-0.188
-191.202	-23.306	-0.351	-0.208
-190.187	-191.847	0.204	-0.002
-189.173	735.788	-0.108	0.286
-188.158	140.862	-0.136	-0.177
-187.144	-22.749	-0.046	-0.028
-186.129	-108.692	0.317	0.067
-185.114	-95.759	0.265	0.070
-184.100	157.465	0.118	-0.161
-183.085	42.934	0.132	0.119
-182.071	-64.670	0.254	-0.101
-181.056	508.286	-0.090	-0.207
-180.042	-200.000	0.284	0.001
-179.027	-200.000	-0.008	0.063
-178.012	-188.438	0.388	-0.005
-176.998	-171.323	-0.431	-0.014
-175.983	-65.131	0.581	-0.231
-174.969	800.000	0.036	0.131
-173.954	150.345	-0.296	0.396
-172.939	-200.000	0.068	0.324
-171.925	800.000	-0.045	-0.175
-170.910	-103.301	-0.183	0.042
-169.896	-200.000	0.027	-0.188
-168.881	-200.000	-0.049	-0.276
-167.866	-200.000	0.028	0.164
-166.852	445.089	-0.137	0.296
-165.837	243.138	0.132	-0.217
-164.823	780.980	-0.075	-0.203
-163.808	-109.377	-0.195	-0.041
-162.793	13.599	0.112	0.086
-161.779	-200.000	-0.000	0.195
-160.764	-96.193	-0.153	0.040
-159.750	-200.000	0.025	-0.220
-158.735	-83.451	0.319	0.101
-157.720	-133.800	-0.282	-0.035
-156.706	59.806	0.139	0.135
-155.691	114.784	0.078	0.094
-154.677	-120.470	-0.300	0.050
-153.662	244.614	0.059	-0.098
-152.647	63.897	0.065	-0.065
-151.633	-20.200	-0.211	0.128
-150.618	78.442	0.143	0.151
-149.604	244.185	-0.196	0.323
-148.589	5.522	0.124	-0.090
-147.574	800.000	-0.030	-0.113
-146.560	-22.260	-0.274	0.163
-145.545	-86.175	0.259	-0.079
-144.531	-200.000	-0.042	0.237
-143.516	-200.000	0.001	0.082
-142.502	-76.950	-0.120	0.041
-141.487	84.028	-0.101	-0.108
-140.472	226.551	-0.088	0.140
-139.458	380.270	0.126	-0.254
-138.443	-18.737	-0.271	0.166
-137.429	800.000	-0.052	0.141
-136.414	-200.000	0.019	-0.253
-135.399	-200.000	0.061	0.322
-134.385	347.524	0.163	0.316
-133.370	-200.000	-0.009	0.110
-132.356	-200.000	0.040	0.210
-131.341	202.203	-0.127	-0.192
-130.326	96.941	0.216	-0.243
-129.312	72.374	0.110	-0.112
-128.297	-45.059	0.010	0.005
-127.283	800.000	0.050	0.196
-126.268	-89.939	0.157	-0.045
-125.253	-116.482	-0.248	-0.045
-124.239	-200.000	0.036	0.279
-123.224	-87.367	0.501	-0.149
-122.210	11.765	0.020	0.015
-121.195	23.200	0.089	0.072
-120.180	349.025	-0.061	-0.118
-119.166	800.000	0.084	-0.288
-118.151	800.000	0.071	0.232
-117.137	-17.884	-0.076	-0.047
-116.122	169.239	-0.142	-0.200
-115.107	6.606	0.067	-0.049
-114.093	-83.137	-0.146	0.046
-113.078	-122.069	-0.226	-0.036
-112.064	800.000	0.086	-0.238
-111.049	-71.664	-0.212	0.078
-110.034	-200.000	0.000	-0.038
-109.020	-200.000	0.072	0.364
-108.005	800.000	0.088	0.331
-106.991	75.930	0.041	0.042
-105.976	-92.153	-0.123	0.034
-104.962	61.845	0.085	0.083
-103.947	800.000	-0.043	-0.140
-102.932	-196.240	0.496	0.003
-101.918	-86.170	-0.333	0.101
-100.903	-13.002	-0.417	-0.267
-99.889	-200.000	-0.018	0.111
-98.874	-200.000	0.021	0.140
-97.859	800.000	-0.050	-0.141
-96.845	-18.478	-0.067	-0.041
-95.830	-72.599	0.161	0.058
-94.816	322.884	-0.154	-0.288
-93.801	800.000	-0.053	0.151
-92.786	-200.000	-0.003	-0.062
-91.772	-92.088	0.226	0.063
-90.757	-39.035	-0.608	-0.314
-89.743	-99.618	0.304	-0.075
-88.728	-200.000	-0.012	0.273
-87.713	800.000	-0.082	0.272
-86.699	-99.670	0.400	-0.098
-85.684	34.433	0.245	-0.210
-84.670	56.347	0.112	-0.107
-83.655	200.190	0.114	0.172
-82.640	-101.488	-0.236	0.056
-81.626	326.141	-0.109	0.206
-80.611	-79.012	-0.122	-0.041
-79.597	275.359	0.232	-0.404
-78.582	-32.888	-0.185	-0.101
-77.567	-200.000	-0.016	-0.263
-76.553	98.056	-0.107	-0.121
-75.538	113.182	0.123	-0.146
-74.524	-200.000	-0.049	-0.262
-73.509	-44.201	-0.113	0.056
-72.494	22.891	0.250	-0.201
-71.480	-80.105	0.339	-0.111
-70.465	-200.000	0.030	0.134
-69.451	-50.443	-0.299	0.138
-68.436	0.197	0.127	-0.089
-67.422	-75.443	0.211	-0.074
-66.407	420.291	0.024	0.051
-65.392	-79.737	0.132	-0.044
-64.378	17.724	-0.085	-0.066
-63.363	-156.604	-0.422	0.026
-62.349	-177.978	-0.135	-0.003
-61.334	25.731	-1.267	-1.035
-60.319	398.443	0.528	1.083
-59.305	184.901	-0.606	-0.882
-58.290	361.800	0.724	1.424
-57.276	607.144	0.620	1.516
-56.261	-200.000	110.897	610.077
-55.246	444.205	1506.655	3240.467
-54.232	143.862	2693.338	3519.652
-53.217	98.836	2293.394	2594.886
-52.203	38.263	1900.823	1659.115
-51.188	32.363	1689.242	1429.701
-50.173	29.720	1646.413	1373.787
-49.159	49.580	1700.914	1569.754
-48.144	49.394	1716.334	1582.521
-47.130	31.900	1673.409	1412.592
-46.115	29.271	1658.607	1380.383
-45.100	29.139	1653.352	1374.963
-44.086	29.013	1651.051	1372.056
-43.071	29.032	1648.182	1369.760
-42.057	28.992	1646.301	1367.845
-41.042	28.994	1643.639	1365.597
-40.027	29.001	1642.078	1364.292
-39.013	28.965	1640.147	1362.371
-37.998	28.996	1638.655	1361.306
-36.984	28.919	1637.192	1359.468
-35.969	29.100	1635.586	1359.419
-34.954	29.132	1634.446	1358.652
-33.940	29.069	1632.519	1356.534
-32.925	29.089	1631.033	1355.393
-31.911	29.172	1628.950	1354.213
-30.896	29.118	1627.546	1352.596
-29.881	29.170	1625.802	1351.478
-28.867	29.132	1624.040	1349.677
-27.852	29.063	1623.445	1348.626
-26.838	29.061	1621.724	1347.130
-25.823	29.173	1619.714	1346.223
-24.809	29.189	1618.737	1345.474
-23.794	29.043	1618.071	1343.804
-22.779	29.118	1616.180	1342.722
-21.765	29.174	1613.560	1340.906
-20.750	29.141	1612.855	1340.023
-19.736	29.143	1611.249	1338.652
-18.721	29.211	1609.800	1337.885
-17.706	29.157	1608.323	1336.218
-16.692	29.213	1607.052	1335.514
-15.677	29.160	1605.561	1333.837
-14.663	29.243	1603.951	1333.047
-13.648	29.189	1602.810	1331.659
-12.633	29.160	1601.504	1330.310
-11.619	29.154	1599.789	1328.788
-10.604	29.128	1598.575	1327.538
-9.590	29.174	1596.812	1326.352
-8.575	29.183	1596.222	1325.873
-7.560	29.191	1594.562	1324.505
-6.546	29.173	1593.362	1323.326
-5.531	29.198	1592.437	1322.683
-4.517	29.143	1591.123	1321.140
-3.502	29.157	1589.729	1320.033
-2.487	29.238	1588.459	1319.503
-1.473	28.850	1576.481	1306.746
-0.458	25.810	1557.023	1269.185
0.556	20.273	1557.296	1235.532
1.571	17.666	1581.289	1235.580
2.586	17.354	1593.745	1242.926
3.600	15.940	1540.841	1191.561
4.615	8.843	1432.313	1060.713
5.629	1.678	1368.517	967.938
6.644	0.313	1360.385	953.471
7.659	0.088	1359.304	951.207
8.673	0.152	1358.119	950.696
9.688	-0.014	1356.736	948.596
10.702	-0.126	1353.341	945.431
11.717	3.344	1358.714	970.997
12.731	11.560	1371.197	1031.918
13.746	16.846	1378.469	1070.779
14.761	17.261	1377.628	1072.654
15.775	16.257	1374.809	1064.034
16.790	15.171	1372.963	1055.671
17.804	14.399	1370.601	1048.908
18.819	13.998	1369.515	1045.462
19.834	13.773	1367.776	1042.628
20.848	13.581	1366.692	1040.499
21.863	13.310	1365.339	1037.681
22.877	13.127	1363.916	1035.355
23.892	13.072	1363.068	1034.280
24.907	13.083	1362.501	1033.825
25.921	13.138	1361.318	1033.183
26.936	13.224	1360.399	1032.928
27.950	13.241	1359.715	1032.423
28.965	13.262	1358.891	1031.841
29.980	13.318	1357.725	1031.210
30.994	13.423	1356.869	1031.127
32.009	13.290	1356.374	1029.828
33.023	13.447	1354.845	1029.555
34.038	13.270	1354.141	1027.825
35.053	13.284	1352.531	1026.603
36.067	13.293	1351.552	1025.824
37.082	13.373	1350.300	1025.280
38.096	13.321	1350.088	1024.703
39.111	13.418	1348.649	1024.121
40.126	13.213	1348.534	1022.675
41.140	13.246	1347.028	1021.647
42.155	13.219	1346.476	1020.972
43.169	13.123	1346.765	1020.508
44.184	13.127	1346.333	1020.110
45.199	13.163	1345.982	1019.980
46.213	13.168	1345.343	1019.435
47.228	13.293	1344.252	1019.288
48.242	13.217	1343.327	1018.032
49.257	13.200	1341.728	1016.625
50.271	13.200	1340.243	1015.410
51.286	13.265	1338.939	1014.731
52.301	13.261	1337.703	1013.678
53.315	13.174	1336.781	1012.356
54.330	13.169	1335.769	1011.471
55.344	13.237	1333.821	1010.321
56.359	13.159	1333.585	1009.578
57.374	13.106	1332.504	1008.343
58.388	13.161	1331.720	1007.998
59.403	12.944	1332.306	1007.026
60.417	13.064	1330.701	1006.457
61.432	13.066	1329.635	1005.575
62.447	12.981	1329.051	1004.529
63.461	13.028	1327.440	1003.503
64.476	13.035	1326.395	1002.669
65.490	13.087	1325.160	1001.963
66.505	13.053	1323.572	1000.469
67.520	13.012	1322.400	999.243
68.534	13.142	1321.565	999.312
69.549	13.191	1320.544	998.748
70.563	13.107	1319.740	997.546
71.578	12.972	1318.314	995.564
72.593	13.011	1317.394	995.012
73.607	13.090	1316.564	994.773
74.622	12.921	1315.563	992.916
75.636	13.068	1314.898	993.209
76.651	13.037	1314.049	992.295
77.666	12.966	1313.846	991.627
78.680	12.979	1313.490	991.347
79.695	13.009	1312.185	990.453
80.709	12.962	1311.927	989.888
81.724	13.102	1310.678	989.700
82.739	13.148	1309.787	989.217
83.753	13.228	1308.745	988.818
84.768	13.286	1307.781	988.347
85.782	13.173	1307.215	987.160
86.797	13.300	1305.387	986.448
87.812	13.196	1304.388	984.987
88.826	13.219	1302.998	983.984
89.841	13.286	1301.934	983.498
90.855	13.240	1301.432	982.756
91.870	13.353	1299.857	982.151
92.884	13.263	1299.350	981.147
93.899	13.226	1299.048	980.612
94.914	13.391	1297.992	980.709
95.928	13.460	1296.828	980.146
96.943	13.296	1296.265	978.664
97.957	13.167	1295.328	977.109
98.972	13.275	1294.064	976.703
99.987	13.350	1293.180	976.394
101.001	13.383	1292.375	975.894
102.016	13.375	1291.255	974.916
103.030	13.403	1290.494	974.421
104.045	13.308	1289.722	973.192
105.060	13.284	1288.674	972.176
106.074	13.140	1287.504	970.363
107.089	13.159	1285.663	968.996
108.103	13.155	1284.886	968.301
109.118	13.136	1283.321	966.927
110.133	13.195	1281.933	966.140
111.147	13.192	1280.940	965.291
112.162	13.243	1279.347	964.299
113.176	13.185	1278.739	963.417
114.191	13.203	1277.904	962.808
115.206	13.206	1276.749	961.874
116.220	13.182	1275.364	960.602
117.235	13.202	1274.379	959.895
118.249	13.249	1273.549	959.454
119.264	13.182	1272.090	957.884
120.279	13.230	1271.053	957.294
121.293	13.140	1270.136	956.000
122.308	13.193	1269.076	955.423
123.322	13.131	1268.062	954.217
124.337	13.053	1267.019	952.898
125.352	13.169	1265.627	952.434
126.366	13.080	1264.635	951.092
127.381	13.189	1263.978	951.142
128.395	13.096	1263.034	949.814
129.410	13.260	1261.578	949.575
130.424	13.139	1261.269	948.564
131.439	13.189	1259.959	947.783
132.454	13.151	1259.239	946.936
133.468	13.231	1258.065	946.428
134.483	13.181	1257.463	945.609
135.497	13.254	1255.800	944.692
136.512	13.263	1254.539	943.707
137.527	13.269	1253.642	942.984
138.541	13.218	1252.262	941.572
139.556	13.277	1250.788	940.717
140.570	13.303	1250.039	940.218
141.585	13.371	1248.257	939.180
142.600	13.290	1247.433	938.016
143.614	13.384	1246.773	937.970
144.629	13.494	1245.169	937.304
145.643	13.433	1244.607	936.455
146.658	13.443	1243.243	935.404
147.673	13.354	1241.975	933.863
148.687	13.228	1240.959	932.306
149.702	13.342	1239.020	931.407
150.716	13.254	1237.944	930.023
151.731	13.370	1236.904	929.810
152.746	13.311	1235.963	928.688
153.760	13.373	1234.791	928.075
154.775	13.345	1233.525	926.886
155.789	13.483	1232.540	926.836
156.804	13.429	1231.611	925.749
157.819	13.430	1229.942	924.417
158.833	13.478	1229.662	924.399
159.848	13.516	1228.519	923.668
160.862	13.564	1227.515	923.100
161.877	13.510	1226.521	921.967
162.892	13.430	1225.323	920.544
163.906	13.412	1224.450	919.705
164.921	13.409	1224.079	919.329
165.935	13.496	1222.846	918.803
166.950	13.417	1222.323	917.890
167.964	13.492	1220.964	917.205
168.979	13.485	1220.966	917.088
169.994	13.483	1219.985	916.255
171.008	13.620	1219.152	916.305
172.023	13.552	1218.121	915.075
173.037	13.691	1217.358	915.188
174.052	13.591	1216.778	914.119
175.067	13.587	1215.324	912.924
176.081	13.581	1214.424	912.135
177.096	13.724	1213.334	912.024
178.110	13.560	1212.533	910.438
179.125	13.688	1211.426	910.227
180.140	13.600	1210.405	908.897
181.154	13.633	1209.189	908.086
182.169	13.705	1207.788	907.350
183.183	13.703	1206.728	906.459
184.198	13.671	1205.579	905.340
185.213	13.733	1204.429	904.739
186.227	13.720	1203.361	903.782
187.242	13.814	1202.078	903.254
188.256	13.865	1201.321	902.883
189.271	13.785	1200.547	901.785
190.286	13.813	1199.037	900.724
191.300	13.572	1198.714	899.094
192.315	13.638	1197.628	898.554
193.329	13.648	1197.108	898.140
194.344	13.645	1196.850	897.851
195.359	13.652	1196.072	897.224
196.373	13.760	1195.696	897.446
197.388	13.953	1194.789	897.731
198.402	13.856	1195.097	897.356
199.417	13.944	1193.823	896.797
200.432	14.051	1192.837	896.553
201.446	14.000	1192.373	895.851
202.461	14.081	1190.913	895.113
203.475	14.117	1190.021	894.555
204.490	14.133	1188.603	893.496
205.504	14.020	1187.919	892.296
206.519	14.036	1186.719	891.405
207.534	13.985	1185.554	890.173
208.548	14.025	1184.587	889.587
209.563	14.078	1183.732	889.149
210.577	14.028	1183.131	888.351
211.592	14.130	1181.743	887.772
212.607	14.119	1181.401	887.379
213.621	14.178	1180.312	886.796
214.636	14.195	1179.351	886.088
215.650	14.229	1178.253	885.367
216.665	14.258	1177.514	884.887
217.680	14.318	1176.672	884.495
218.694	14.303	1175.437	883.408
219.709	14.228	1175.223	882.773
220.723	14.323	1174.021	882.293
221.738	14.279	1173.605	881.668
222.753	14.304	1173.046	881.305
223.767	14.438	1171.780	880.983
224.782	14.261	1171.692	879.902
225.796	14.278	1171.209	879.552
226.811	14.426	1170.370	879.627
227.826	14.380	1169.580	878.712
228.840	14.410	1169.157	878.472
229.855	14.328	1168.421	877.410
230.869	14.417	1167.359	877.003
231.884	14.378	1166.459	876.047
232.899	14.328	1165.613	875.070
233.913	14.284	1165.397	874.597
234.928	14.241	1164.889	873.913
235.942	14.310	1163.956	873.498
236.957	14.233	1163.590	872.744
237.972	14.274	1162.349	871.953
238.986	14.364	1161.835	871.960
240.001	14.369	1160.551	870.946
241.015	14.413	1159.742	870.492
242.030	14.449	1159.186	870.181
243.045	14.513	1158.540	869.957
244.059	14.484	1157.849	869.208
245.074	14.553	1156.808	868.709
246.088	14.526	1155.608	867.589
247.103	14.557	1155.424	867.535
248.117	14.562	1154.430	866.741
249.132	14.564	1154.072	866.406
250.147	14.676	1153.296	866.327
251.161	14.655	1152.504	865.547
252.176	14.772	1151.508	865.328
253.190	14.711	1151.106	864.631
254.205	14.832	1150.925	865.049
255.220	14.852	1150.095	864.448
256.234	14.872	1149.148	863.764
257.249	14.813	1148.776	863.103
258.263	14.845	1147.868	862.511
259.278	14.823	1147.404	861.972
260.293	14.968	1146.666	862.088
261.307	14.974	1145.994	861.539
262.322	14.925	1145.532	860.865
263.336	14.899	1144.892	860.175
264.351	14.979	1144.173	859.966
265.366	14.991	1143.869	859.722
266.380	15.124	1142.642	859.408
267.395	15.025	1141.992	858.336
268.409	14.931	1141.364	857.305
269.424	14.963	1140.983	857.108
270.439	15.184	1140.009	857.430
271.453	15.059	1139.530	856.358
272.468	15.067	1138.556	855.590
273.482	15.003	1137.812	854.626
274.497	15.019	1137.291	854.241
275.512	15.101	1136.318	853.855
276.526	15.045	1135.937	853.209
277.541	15.199	1134.911	853.143
278.555	14.991	1134.419	851.640
279.570	15.301	1133.365	852.350
280.585	15.145	1132.934	851.157
281.599	15.217	1131.723	850.540
282.614	15.290	1130.682	850.050
283.628	15.165	1129.769	848.657
284.643	15.179	1128.741	847.878
285.657	15.293	1127.964	847.799
286.672	15.227	1127.195	846.813
287.687	15.251	1126.518	846.350
288.701	15.251	1125.711	845.665
289.716	15.327	1124.741	845.249
290.730	15.372	1123.714	844.629
291.745	15.405	1123.546	844.590
292.760	15.228	1123.207	843.372
293.774	15.458	1122.027	843.568
294.789	15.393	1121.704	842.920
295.803	15.442	1121.134	842.665
296.818	15.334	1120.404	841.500
297.833	15.469	1119.605	841.503
298.847	15.471	1118.467	840.584
299.862	15.576	1117.760	840.503
300.876	15.541	1116.974	839.664
301.891	15.599	1116.426	839.468
302.906	15.413	1115.883	838.057
303.920	15.540	1115.356	838.218
304.935	15.583	1115.030	838.112
305.949	15.687	1113.813	837.645
306.964	15.748	1113.270	837.463
307.979	15.627	1112.486	836.198
308.993	15.628	1111.923	835.705
310.008	15.701	1110.785	835.141
311.022	15.770	1109.887	834.735
312.037	15.727	1109.389	834.072
313.052	15.619	1108.606	832.875
314.066	15.631	1107.776	832.234
315.081	15.638	1106.827	831.483
316.095	15.694	1105.713	830.851
317.110	15.620	1105.355	830.141
318.125	15.662	1104.885	829.921
319.139	15.631	1103.819	828.899
320.154	15.631	1103.411	828.514
321.168	15.725	1102.821	828.464
322.183	15.665	1102.132	827.576
323.197	15.807	1101.692	827.873
324.212	15.680	1101.159	826.774
325.227	15.686	1100.519	826.249
326.241	15.671	1099.714	825.499
327.256	15.814	1098.598	825.290
328.270	15.722	1098.126	824.411
329.285	15.819	1096.741	823.774
330.300	15.772	1096.210	823.072
331.314	15.749	1095.447	822.314
332.329	15.752	1094.526	821.563
333.343	15.762	1093.452	820.731
334.358	15.893	1092.836	820.836
335.373	15.835	1092.144	819.963
336.387	15.995	1091.332	820.057
337.402	15.950	1090.725	819.310
338.416	15.998	1089.933	818.876
339.431	15.921	1089.660	818.224
340.446	16.102	1088.155	817.902
341.460	16.120	1087.790	817.643
342.475	16.040	1086.784	816.423
343.489	16.123	1086.415	816.479
344.504	16.202	1085.404	816.027
345.519	16.199	1084.546	815.298
346.533	16.168	1083.890	814.580
347.548	16.245	1082.955	814.180
348.562	16.270	1082.220	813.674
349.577	16.252	1081.600	813.049
350.592	16.235	1080.924	812.388
351.606	16.095	1080.463	811.294
352.621	16.194	1079.591	811.046
353.635	16.195	1078.638	810.263
354.650	16.165	1078.006	809.571
355.665	16.231	1077.285	809.273
356.679	16.086	1077.086	808.357
357.694	16.249	1076.170	808.382
358.708	16.256	1075.664	807.961
359.723	16.214	1075.325	807.433
360.738	16.267	1074.586	807.062
361.752	16.349	1073.924	806.883
362.767	16.317	1073.254	806.158
363.781	16.400	1072.273	805.746
364.796	16.371	1071.920	805.272
365.810	16.477	1071.478	805.373
366.825	16.560	1070.611	805.042
367.840	16.600	1070.527	805.098
368.854	16.532	1069.880	804.217
369.869	16.530	1068.921	803.416
370.883	16.536	1068.295	802.905
371.898	16.454	1067.627	801.943
372.913	16.576	1066.734	801.780
373.927	16.617	1066.480	801.713
374.942	16.544	1065.798	800.783
375.956	16.663	1065.311	800.909
376.971	16.640	1064.760	800.314
377.986	16.638	1064.564	800.086
379.000	16.740	1063.750	799.884
380.015	16.750	1063.158	799.419
381.029	16.759	1062.451	798.858
382.044	16.732	1061.867	798.221
383.059	16.753	1061.130	797.696
384.073	16.869	1059.833	797.193
385.088	16.882	1059.341	796.814
386.102	16.781	1058.284	795.473
387.117	16.775	1057.142	794.516
388.132	16.848	1056.249	794.121
389.146	16.741	1055.560	793.031
390.161	16.737	1055.115	792.607
391.175	16.778	1054.501	792.266
392.190	16.827	1053.919	791.990
393.205	16.891	1053.095	791.599
394.219	16.858	1052.415	790.861
395.234	16.723	1051.728	789.645
396.248	16.813	1050.419	789.014
397.263	16.847	1049.263	788.233
398.278	16.919	1048.403	787.852
399.292	16.760	1048.251	786.931
400.307	16.880	1047.245	786.662
401.321	16.832	1046.864	786.082
402.336	16.834	1046.220	785.539
403.350	16.939	1045.260	785.237
404.365	16.942	1044.960	784.953
405.380	17.009	1044.055	784.513
406.394	16.993	1043.405	783.884
407.409	17.021	1042.289	783.104
408.423	17.047	1042.182	783.073
409.438	17.101	1041.384	782.655
410.453	17.154	1040.279	781.998
411.467	17.333	1039.378	782.075
412.482	17.282	1038.708	781.267
413.496	17.236	1037.993	780.449
414.511	17.338	1037.856	780.747
415.526	17.392	1037.292	780.501
416.540	17.341	1037.118	780.069
417.555	17.260	1036.733	779.337
418.569	17.313	1035.716	778.744
419.584	17.434	1035.627	779.164
420.599	17.300	1035.147	778.119
421.613	103.719	1323.413	1471.777
422.628	95.033	1365.374	1471.869
