DTS Sentinel unit serial number:	SN413079Multiplexer serial number:	ORYXHardware model number:	OX4-SRSoftware version number:	ORYX F/W v4.00 Oryx Data Collector v3.7.2.0data status	okinstallation	princeton_trtdifferential loss correction	single-endedforward channel	channel 2reverse channel	N/Adate	2019/09/14time	09:35:35forward acquisition time	60.00reverse acquisition time	0.00gamma	496.2192k internal	0.2324k external	0.2324temperature offset calibration	1.0130default loss term (dB/km)	0.3790temperature slope calibration	1.0000multiplexer offset coefficient	1.0000multiplexer slope coefficient	1.0000fibre end	0.00T internal ref (°C)	31.73T ext. ref 1 (°C)	3.88T ext. ref 2 (°C)	29.91length (m)	temperature (°C)	Stokes	anti-Stokes-747.200	-146.094	-0.292	0.026
-746.185	366.952	-0.158	0.323
-745.171	-126.122	0.352	0.053
-744.156	-46.561	-0.118	0.058
-743.142	26.025	-0.255	0.215
-742.127	800.000	0.062	0.177
-741.112	756.904	-0.041	-0.112
-740.098	94.596	-0.025	-0.029
-739.083	-66.341	0.107	-0.043
-738.069	-122.486	-0.128	0.021
-737.054	113.552	0.253	-0.311
-736.039	800.000	0.084	0.285
-735.025	35.064	0.068	0.060
-734.010	-200.000	-0.027	0.180
-732.996	-14.243	-0.271	0.176
-731.981	-22.443	0.239	-0.146
-730.966	109.293	-0.126	-0.152
-729.952	194.275	0.111	0.170
-728.937	-54.523	-0.170	-0.078
-727.923	-74.109	-0.046	0.017
-726.908	349.064	0.134	0.266
-725.894	292.970	0.061	0.112
-724.879	-158.011	-0.213	0.013
-723.864	82.135	-0.042	0.046
-722.850	793.781	0.086	0.238
-721.835	-162.348	0.112	0.006
-720.821	41.408	-0.108	0.098
-719.806	219.845	0.029	-0.047
-718.791	800.000	-0.068	-0.258
-717.777	-40.004	-0.377	-0.198
-716.762	-200.000	0.061	-0.312
-715.748	-128.909	-0.181	-0.026
-714.733	336.794	0.144	-0.282
-713.718	-200.000	0.055	-0.248
-712.704	-200.000	-0.008	0.324
-711.689	-32.993	-0.262	-0.146
-710.675	-44.285	-0.279	-0.141
-709.660	800.000	0.117	0.379
-708.645	-200.000	-0.003	0.192
-707.631	-95.749	-0.363	0.098
-706.616	149.598	0.077	-0.105
-705.602	-36.519	-0.135	0.073
-704.587	-138.056	0.076	0.008
-703.572	800.000	-0.067	-0.207
-702.558	657.423	0.087	-0.226
-701.543	-97.018	0.219	-0.058
-700.529	-200.000	0.032	-0.162
-699.514	235.504	0.129	0.214
-698.499	-200.000	-0.021	-0.236
-697.485	-8.374	0.184	-0.124
-696.470	-103.659	-0.342	-0.081
-695.456	-200.000	-0.007	0.282
-694.441	-37.253	-0.235	0.127
-693.426	-137.121	-0.150	-0.017
-692.412	561.723	-0.152	-0.371
-691.397	-60.112	0.375	0.161
-690.383	-58.934	0.129	-0.056
-689.368	70.668	-0.175	-0.182
-688.354	800.000	0.026	0.102
-687.339	26.365	-0.038	0.032
-686.324	11.824	0.260	0.201
-685.310	-87.414	0.175	0.053
-684.295	800.000	-0.121	0.359
-683.281	-94.434	-0.427	-0.117
-682.266	-137.244	0.134	-0.015
-681.251	-78.929	0.228	-0.078
-680.237	-89.602	0.162	0.048
-679.222	-146.828	0.062	-0.005
-678.208	-200.000	-0.048	0.261
-677.193	-29.421	0.100	0.058
-676.178	-200.000	-0.003	0.177
-675.164	-200.000	0.031	-0.161
-674.149	404.919	-0.066	0.139
-673.135	627.062	0.063	-0.159
-672.120	115.684	0.016	-0.019
-671.105	-105.224	0.052	-0.012
-670.091	-69.874	0.302	-0.116
-669.076	127.556	-0.282	0.361
-668.062	138.300	0.079	0.104
-667.047	-166.741	-0.169	-0.007
-666.032	-200.000	-0.020	-0.265
-665.018	93.485	0.087	0.099
-664.003	-118.462	-0.227	0.041
-662.989	272.566	-0.084	-0.150
-661.974	176.237	0.116	-0.169
-660.959	-88.233	-0.304	-0.092
-659.945	56.977	-0.245	-0.240
-658.930	375.132	-0.061	-0.125
-657.916	72.446	-0.399	0.418
-656.901	-134.617	-0.285	-0.035
-655.886	157.269	0.018	-0.025
-654.872	119.167	0.081	0.100
-653.857	-51.897	-0.067	-0.031
-652.843	455.843	-0.169	-0.377
-651.828	60.276	0.172	-0.171
-650.814	-123.021	0.082	0.013
-649.799	-95.299	-0.181	-0.049
-648.784	-200.000	0.026	0.122
-647.770	262.275	-0.062	0.107
-646.755	-115.433	0.055	0.010
-645.741	-60.975	-0.171	0.073
-644.726	16.039	0.042	-0.033
-643.711	-200.000	-0.016	-0.296
-642.697	-200.000	0.023	-0.185
-641.682	-200.000	0.072	-0.336
-640.668	-193.922	0.058	-0.000
-639.653	-40.785	0.308	0.160
-638.638	-200.000	0.008	-0.195
-637.624	15.315	-0.153	0.121
-636.609	-126.803	-0.398	0.059
-635.595	611.797	0.048	-0.122
-634.580	-200.000	-0.020	-0.334
-633.565	-176.050	0.258	0.007
-632.551	-22.647	0.215	-0.131
-631.536	-51.053	0.339	-0.160
-630.522	143.340	0.254	-0.340
-629.507	-112.894	0.124	0.025
-628.492	-70.467	-0.304	0.116
-627.478	-200.000	0.054	-0.298
-626.463	647.744	-0.105	-0.269
-625.449	119.853	-0.159	-0.198
-624.434	-146.997	0.237	0.020
-623.419	-142.107	-0.492	0.049
-622.405	467.886	0.097	-0.218
-621.390	541.164	-0.041	0.098
-620.376	-40.594	-0.169	-0.088
-619.361	-113.779	0.022	-0.004
-618.346	-200.000	-0.025	-0.165
-617.332	-15.108	0.037	0.024
-616.317	-200.000	-0.022	0.169
-615.303	203.766	-0.148	-0.231
-614.288	-200.000	0.039	-0.183
-613.273	-200.000	-0.032	0.202
-612.259	-107.971	-0.209	0.046
-611.244	753.048	-0.035	-0.095
-610.230	800.000	0.051	0.147
-609.215	55.774	-0.075	0.073
-608.201	-81.949	-0.230	0.075
-607.186	1.936	0.330	0.239
-606.171	-47.521	0.149	0.073
-605.157	40.597	-0.138	0.125
-604.142	-21.162	-0.050	-0.031
-603.128	-200.000	0.005	0.106
-602.113	27.580	0.213	0.180
-601.098	-120.123	-0.289	0.050
-600.084	348.844	-0.083	0.165
-599.069	-200.000	-0.045	-0.293
-598.055	-83.123	-0.293	0.095
-597.040	800.000	0.159	0.474
-596.025	75.749	-0.083	-0.088
-595.011	509.312	0.117	-0.273
-593.996	31.094	0.145	0.125
-592.982	469.666	-0.060	0.135
-591.967	-200.000	-0.114	-0.582
-590.952	204.999	0.053	0.082
-589.938	119.169	0.038	-0.047
-588.923	-144.538	-0.192	-0.018
-587.909	-95.105	0.119	0.032
-586.894	-54.895	0.014	-0.006
-585.879	-25.712	-0.051	-0.030
-584.865	403.265	0.076	0.161
-583.850	240.535	-0.067	-0.113
-582.836	9.563	0.213	0.162
-581.821	-66.637	-0.315	-0.125
-580.806	-109.252	0.352	-0.075
-579.792	26.329	0.182	-0.153
-578.777	54.222	-0.062	0.060
-577.763	467.386	-0.052	-0.117
-576.748	800.000	0.051	0.168
-575.733	-114.384	-0.121	0.023
-574.719	21.277	-0.361	-0.294
-573.704	-70.061	0.275	-0.105
-572.690	389.116	-0.107	-0.223
-571.675	-169.245	-0.141	-0.005
-570.661	-70.064	0.323	-0.123
-569.646	119.328	-0.342	-0.425
-568.631	-168.663	0.046	-0.002
-567.617	-200.000	0.008	-0.178
-566.602	800.000	-0.072	-0.296
-565.588	-200.000	0.006	-0.052
-564.573	-200.000	0.099	0.440
-563.558	365.952	-0.102	0.206
-562.544	41.219	0.146	0.132
-561.529	100.382	0.111	0.129
-560.515	280.117	-0.055	0.098
-559.500	56.135	0.089	0.087
-558.485	-97.274	-0.316	0.083
-557.471	-71.213	0.250	0.094
-556.456	352.762	0.048	-0.096
-555.442	-100.156	0.291	0.073
-554.427	93.890	0.125	0.142
-553.412	209.473	-0.069	-0.109
-552.398	-200.000	-0.038	0.317
-551.383	39.111	0.332	-0.298
-550.369	140.169	-0.100	0.132
-549.354	467.897	0.019	0.043
-548.339	23.324	-0.179	-0.148
-547.325	800.000	-0.031	0.087
-546.310	76.237	-0.084	-0.089
-545.296	-49.986	-0.124	-0.059
-544.281	420.971	-0.041	0.089
-543.266	-74.850	-0.260	0.093
-542.252	-147.473	-0.091	-0.008
-541.237	122.793	0.246	-0.309
-540.223	59.998	-0.134	0.132
-539.208	-117.546	-0.275	0.050
-538.193	-200.000	0.008	-0.176
-537.179	-151.026	-0.068	0.005
-536.164	-81.659	0.259	0.085
-535.150	162.142	-0.055	0.078
-534.135	340.972	0.061	-0.119
-533.121	99.700	0.223	-0.259
-532.106	-10.506	0.164	-0.109
-531.091	226.596	0.095	-0.154
-530.077	-108.192	0.170	0.037
-529.062	-16.670	0.294	-0.186
-528.048	800.000	0.020	0.062
-527.033	-27.263	0.379	-0.221
-526.018	-143.434	0.099	-0.009
-525.004	-49.593	-0.170	0.081
-523.989	-56.377	-0.039	0.017
-522.975	-45.360	-0.426	0.211
-521.960	-113.774	-0.156	0.030
-520.945	-38.603	-0.208	0.110
-519.931	-94.590	-0.141	-0.038
-518.916	-191.338	-0.048	-0.000
-517.902	95.928	0.173	-0.197
-516.887	-117.869	-0.084	-0.015
-515.872	-4.940	-0.191	0.131
-514.858	93.210	-0.061	-0.069
-513.843	-55.873	0.206	0.092
-512.829	505.095	0.051	-0.119
-511.814	-87.388	-0.278	0.084
-510.799	108.100	-0.064	0.077
-509.785	96.916	-0.145	-0.166
-508.770	-195.576	0.087	-0.001
-507.756	-169.320	-0.226	0.008
-506.741	511.892	-0.045	-0.104
-505.726	510.086	-0.028	-0.065
-504.712	-36.592	0.383	-0.206
-503.697	-117.247	0.038	0.007
-502.683	-134.680	0.102	0.012
-501.668	-152.038	0.066	0.005
-500.653	-23.826	-0.252	0.151
-499.639	39.128	0.182	-0.163
-498.624	-44.894	0.059	0.030
-497.610	-129.641	0.396	0.055
-496.595	-107.984	-0.222	0.048
-495.581	-74.223	-0.264	-0.096
-494.566	177.451	0.192	0.280
-493.551	289.521	-0.138	0.250
-492.537	263.381	0.043	0.074
-491.522	580.598	-0.051	0.124
-490.508	-118.550	-0.079	-0.014
-489.493	800.000	0.098	0.358
-488.478	-142.079	-0.457	-0.045
-487.464	-200.000	-0.030	0.187
-486.449	-200.000	0.020	-0.335
-485.435	800.000	0.039	-0.116
-484.420	-200.000	0.027	0.239
-483.405	800.000	0.082	0.237
-482.391	526.547	0.137	-0.323
-481.376	-200.000	0.091	-0.483
-480.362	117.436	-0.168	-0.206
-479.347	-172.614	0.372	-0.012
-478.332	762.294	-0.092	0.249
-477.318	466.594	-0.107	-0.239
-476.303	-145.159	-0.306	0.028
-475.289	113.113	-0.143	-0.173
-474.274	-5.907	0.296	0.203
-473.259	47.759	0.203	0.189
-472.245	205.837	-0.280	-0.434
-471.230	276.012	0.066	-0.117
-470.216	-108.281	0.026	0.006
-469.201	0.677	-0.181	0.129
-468.186	-200.000	0.008	-0.421
-467.172	-52.227	-0.257	0.119
-466.157	505.101	-0.093	0.214
-465.143	-119.968	-0.100	0.017
-464.128	-184.230	-0.294	0.005
-463.113	800.000	-0.018	0.064
-462.099	-200.000	0.022	0.176
-461.084	800.000	-0.157	-0.435
-460.070	624.886	0.128	0.322
-459.055	-200.000	0.013	0.173
-458.040	-76.593	-0.280	-0.098
-457.026	-37.260	0.061	0.033
-456.011	-41.769	0.065	-0.033
-454.997	65.235	0.346	0.349
-453.982	160.418	-0.068	-0.094
-452.968	-167.047	-0.259	0.011
-451.953	-200.000	-0.041	0.220
-450.938	-88.646	0.328	0.098
-449.924	-200.000	-0.014	-0.151
-448.909	-15.041	-0.129	0.082
-447.895	-126.548	0.332	-0.049
-446.880	-89.260	-0.251	-0.074
-445.865	-60.775	0.170	-0.072
-444.851	14.907	-0.304	-0.237
-443.836	-95.425	0.477	0.128
-442.822	117.397	0.211	0.260
-441.807	-92.383	-0.233	0.065
-440.792	-200.000	0.024	0.114
-439.778	76.745	-0.166	0.176
-438.763	-200.000	-0.027	-0.258
-437.749	-51.774	0.435	-0.202
-436.734	75.533	-0.136	0.143
-435.719	-100.760	0.518	-0.127
-434.705	38.909	-0.098	-0.087
-433.690	445.616	-0.081	-0.177
-432.676	-20.668	-0.108	-0.066
-431.661	-33.055	-0.067	0.037
-430.646	-34.586	-0.385	-0.210
-429.632	-63.064	0.264	-0.109
-428.617	70.335	-0.115	0.119
-427.603	800.000	0.045	0.162
-426.588	-34.510	-0.247	0.135
-425.573	-133.254	0.340	0.043
-424.559	800.000	-0.048	-0.144
-423.544	-200.000	-0.008	0.163
-422.530	-125.272	-0.032	-0.005
-421.515	288.663	-0.063	0.114
-420.500	484.778	-0.030	0.068
-419.486	-22.444	-0.372	0.225
-418.471	564.470	-0.106	-0.256
-417.457	1.740	-0.097	0.069
-416.442	-73.444	-0.090	0.033
-415.428	-200.000	0.020	0.179
-414.413	13.073	-0.057	-0.044
-413.398	-66.239	-0.189	-0.075
-412.384	-48.918	-0.263	0.125
-411.369	0.908	-0.165	-0.118
-410.355	-128.206	0.422	0.060
-409.340	-200.000	-0.002	0.089
-408.325	-147.908	0.146	-0.012
-407.311	-8.434	0.284	-0.190
-406.296	50.703	-0.218	0.206
-405.282	-135.789	-0.333	0.039
-404.267	-200.000	-0.002	-0.180
-403.252	71.084	-0.211	0.218
-402.238	-155.361	-0.275	-0.018
-401.223	-87.161	-0.109	-0.033
-400.209	-200.000	0.029	0.289
-399.194	33.761	0.225	-0.195
-398.179	191.814	0.083	-0.125
-397.165	-77.699	0.191	0.066
-396.150	-167.544	-0.292	0.012
-395.136	-200.000	-0.022	-0.111
-394.121	-4.599	0.251	0.173
-393.106	800.000	0.040	0.134
-392.092	508.285	0.088	-0.204
-391.077	94.434	0.167	0.189
-390.063	108.813	-0.326	-0.388
-389.048	-200.000	-0.082	0.402
-388.033	-157.850	-0.052	-0.003
-387.019	-53.386	0.033	0.015
-386.004	180.078	0.062	-0.090
-384.990	103.378	0.202	0.235
-383.975	-200.000	-0.058	0.288
-382.960	-70.601	-0.358	-0.135
-381.946	-145.390	0.088	0.008
-380.931	289.358	-0.044	-0.080
-379.917	69.891	0.114	-0.117
-378.902	21.711	0.040	-0.033
-377.888	-200.000	-0.056	-0.339
-376.873	-200.000	-0.022	-0.311
-375.858	-200.000	-0.016	-0.281
-374.844	-161.705	-0.267	-0.014
-373.829	-16.201	0.240	0.152
-372.815	-152.653	-0.233	-0.017
-371.800	-133.012	0.221	-0.028
-370.785	800.000	0.030	0.094
-369.771	132.590	-0.040	0.052
-368.756	800.000	-0.049	0.191
-367.742	38.226	0.199	0.176
-366.727	-200.000	0.001	0.271
-365.712	-9.930	-0.283	0.187
-364.698	800.000	0.090	0.288
-363.683	-109.074	-0.218	-0.046
-362.669	93.333	-0.200	-0.225
-361.654	115.241	0.036	-0.043
-360.639	-122.122	-0.198	0.032
-359.625	-72.333	0.495	-0.182
-358.610	57.875	-0.155	-0.151
-357.596	252.228	0.151	0.257
-356.581	-166.993	0.074	-0.003
-355.566	-136.855	-0.051	0.006
-354.552	-161.643	0.100	-0.005
-353.537	361.777	-0.148	0.295
-352.523	-35.622	0.271	0.146
-351.508	-79.720	-0.152	-0.051
-350.493	192.296	0.076	0.114
-349.479	-2.509	0.403	0.280
-348.464	152.168	0.115	-0.156
-347.450	73.618	0.256	-0.267
-346.435	800.000	0.071	0.241
-345.420	503.371	0.014	-0.032
-344.406	-143.296	-0.256	0.024
-343.391	-51.922	0.336	0.155
-342.377	-102.119	-0.136	0.033
-341.362	-153.839	0.067	-0.005
-340.348	115.069	0.103	0.125
-339.333	220.994	-0.125	0.200
-338.318	44.282	-0.282	0.258
-337.304	-200.000	0.014	0.071
-336.289	-102.558	0.420	0.100
-335.275	179.874	0.206	0.299
-334.260	-96.014	-0.188	-0.050
-333.245	-200.000	-0.133	0.000
-332.231	-140.756	0.254	-0.026
-331.216	-91.969	-0.241	0.068
-330.202	-132.384	0.148	-0.019
-329.187	-200.000	-0.005	-0.177
-328.172	-200.000	-0.006	-0.357
-327.158	-200.000	-0.019	0.107
-326.143	67.535	0.104	0.105
-325.129	705.966	-0.096	-0.253
-324.114	40.045	0.089	-0.079
-323.099	19.650	-0.204	-0.163
-322.085	-5.955	0.067	-0.046
-321.070	47.409	-0.200	-0.185
-320.056	220.798	0.123	0.196
-319.041	-6.985	-0.086	-0.058
-318.026	-200.000	-0.253	0.000
-317.012	275.439	0.049	0.087
-315.997	-163.511	0.223	0.010
-314.983	37.094	-0.096	0.084
-313.968	-128.286	0.540	-0.076
-312.953	-200.000	0.006	0.164
-311.939	-200.000	0.013	0.140
-310.924	-200.000	-0.042	0.224
-309.910	179.788	-0.084	0.123
-308.895	-90.157	-0.227	0.066
-307.880	58.580	0.116	0.113
-306.866	-200.000	0.010	0.162
-305.851	-31.436	-0.273	0.152
-304.837	184.856	-0.083	-0.123
-303.822	93.902	-0.207	0.233
-302.807	119.343	-0.224	0.275
-301.793	-2.115	-0.312	-0.217
-300.778	-107.795	-0.206	-0.044
-299.764	17.713	0.159	0.126
-298.749	70.728	-0.141	0.145
-297.735	10.623	-0.210	-0.159
-296.720	800.000	-0.017	0.061
-295.705	360.839	0.120	-0.239
-294.691	-46.674	0.226	-0.110
-293.676	-177.622	-0.112	-0.003
-292.662	37.252	-0.305	-0.268
-291.647	665.607	0.109	-0.279
-290.632	-200.000	-0.022	-0.112
-289.618	800.000	0.007	0.029
-288.603	207.516	-0.042	-0.065
-287.589	-165.934	-0.221	-0.009
-286.574	-110.066	-0.097	-0.020
-285.559	178.892	-0.152	-0.220
-284.545	74.354	0.168	-0.175
-283.530	-200.000	-0.017	-0.097
-282.516	-200.000	0.036	-0.230
-281.501	374.867	-0.103	-0.207
-280.486	800.000	0.091	-0.287
-279.472	277.882	-0.055	0.097
-278.457	-135.577	0.218	-0.026
-277.443	37.205	-0.165	0.145
-276.428	-51.988	0.134	0.062
-275.413	-2.405	0.221	0.153
-274.399	326.249	0.166	-0.315
-273.384	14.034	0.347	-0.267
-272.370	-92.793	0.467	-0.129
-271.355	-15.987	0.095	0.060
-270.340	7.822	0.089	0.066
-269.326	-147.281	-0.207	0.017
-268.311	-67.822	-0.265	-0.103
-267.297	166.491	0.305	-0.428
-266.282	488.898	0.030	-0.067
-265.267	678.611	-0.042	0.109
-264.253	-200.000	0.000	-0.089
-263.238	-142.846	0.023	0.002
-262.224	-89.303	-0.047	-0.014
-261.209	-50.526	0.266	0.124
-260.195	254.641	-0.069	-0.117
-259.180	-200.000	-0.076	0.338
-258.165	-200.000	-0.064	0.393
-257.151	-62.929	0.071	0.029
-256.136	-3.478	-0.148	0.102
-255.122	-87.459	0.066	-0.020
-254.107	-200.000	0.047	-0.302
-253.092	-33.380	-0.061	0.033
-252.078	116.441	-0.187	-0.227
-251.063	-120.377	0.227	0.038
-250.049	-4.721	-0.315	0.215
-249.034	90.672	-0.103	-0.115
-248.019	-182.920	0.227	0.004
-247.005	200.534	-0.135	0.205
-245.990	-124.443	-0.213	-0.033
-244.976	-200.000	0.028	0.149
-243.961	407.312	0.051	-0.108
-242.946	190.217	0.088	0.131
-241.932	712.003	0.069	-0.180
-240.917	159.826	-0.083	-0.114
-239.903	300.978	-0.165	-0.302
-238.888	-71.245	-0.348	-0.129
-237.873	332.617	-0.016	-0.030
-236.859	-200.000	0.013	-0.218
-235.844	10.193	-0.085	0.064
-234.830	-101.592	-0.237	-0.057
-233.815	-102.178	0.288	0.069
-232.800	800.000	0.139	0.454
-231.786	36.117	-0.264	-0.230
-230.771	800.000	0.025	-0.102
-229.757	-100.224	0.282	0.069
-228.742	189.114	0.049	-0.072
-227.727	309.306	0.049	0.091
-226.713	1.220	-0.256	-0.182
-225.698	76.076	0.262	0.274
-224.684	-200.000	0.047	-0.284
-223.669	-92.445	-0.192	0.053
-222.655	-99.591	0.214	0.053
-221.640	-148.622	0.191	-0.015
-220.625	-35.960	0.063	0.034
-219.611	-73.486	0.130	0.047
-218.596	-53.727	-0.141	0.063
-217.582	-94.870	-0.194	0.052
-216.567	116.447	-0.144	0.174
-215.552	-18.939	0.389	0.239
-214.538	-2.684	0.286	0.198
-213.523	800.000	-0.086	0.318
-212.509	84.059	-0.125	0.135
-211.494	-189.151	-0.187	-0.002
-210.479	187.251	0.212	0.313
-209.465	800.000	0.076	0.304
-208.450	-143.963	0.071	0.007
-207.436	29.220	0.212	-0.178
-206.421	374.643	0.088	0.178
-205.406	82.498	0.060	0.065
-204.392	-115.810	-0.186	0.034
-203.377	-86.216	0.264	0.080
-202.363	649.510	-0.148	0.373
-201.348	415.786	-0.116	-0.244
-200.333	-200.000	0.005	0.065
-199.319	148.677	0.036	0.048
-198.304	-200.000	-0.013	-0.103
-197.290	800.000	-0.065	-0.195
-196.275	75.224	0.155	0.162
-195.260	98.383	0.066	-0.075
-194.246	800.000	0.059	-0.240
-193.231	2.359	0.316	-0.226
-192.217	537.038	0.020	-0.046
-191.202	-200.000	-0.005	0.447
-190.187	-200.000	0.056	0.317
-189.173	-89.877	-0.140	-0.040
-188.158	426.358	0.220	-0.468
-187.144	-200.000	-0.005	0.269
-186.129	78.622	-0.056	-0.059
-185.114	-200.000	0.003	-0.482
-184.100	-200.000	0.065	0.477
-183.085	199.771	0.133	0.202
-182.071	-200.000	-0.004	-0.212
-181.056	800.000	-0.017	-0.064
-180.042	-130.434	-0.269	0.036
-179.027	-10.884	0.123	0.080
-178.012	800.000	0.125	-0.423
-176.998	607.223	0.128	-0.314
-175.983	-200.000	-0.019	-0.098
-174.969	30.807	-0.035	0.030
-173.954	-149.777	0.246	0.019
-172.939	-200.000	0.007	-0.431
-171.925	-60.131	0.163	0.069
-170.910	-89.417	0.307	0.089
-169.896	-124.028	0.286	0.044
-168.881	-9.707	-0.167	-0.110
-167.866	-27.645	-0.224	-0.128
-166.852	-200.000	0.049	0.315
-165.837	181.760	-0.133	0.193
-164.823	-158.493	-0.159	0.009
-163.808	-200.000	0.040	0.296
-162.793	-200.000	-0.007	0.227
-161.779	-200.000	-0.069	0.564
-160.764	-166.113	0.524	0.022
-159.750	50.241	0.109	0.102
-158.735	11.992	0.107	-0.081
-157.720	800.000	0.061	-0.224
-156.706	-86.493	0.187	-0.057
-155.691	44.983	-0.084	-0.077
-154.677	115.488	0.108	0.130
-153.662	16.582	-0.169	0.132
-152.647	-109.669	-0.221	-0.046
-151.633	46.877	0.039	0.036
-150.618	-123.406	0.145	-0.023
-149.604	75.842	-0.056	-0.058
-148.589	37.135	-0.274	-0.239
-147.574	154.702	0.248	0.336
-146.560	-200.000	-0.043	0.408
-145.545	58.237	-0.053	-0.051
-144.531	-200.000	0.024	-0.161
-143.516	800.000	0.054	-0.218
-142.502	126.621	0.091	-0.114
-141.487	-179.732	0.172	0.004
-140.472	-9.419	0.273	0.180
-139.458	-116.955	0.241	-0.043
-138.443	-78.641	-0.165	-0.055
-137.429	-21.664	-0.106	0.064
-136.414	800.000	-0.145	0.519
-135.399	-57.493	-0.111	0.048
-134.385	800.000	0.030	0.083
-133.370	50.639	0.262	-0.245
-132.356	-200.000	-0.023	-0.284
-131.341	-200.000	0.014	0.066
-130.326	-200.000	-0.023	0.262
-129.312	299.405	-0.065	-0.118
-128.297	800.000	0.044	0.190
-127.283	156.243	0.092	0.125
-126.268	-86.522	0.082	0.025
-125.253	-105.779	0.031	0.007
-124.239	-108.240	-0.089	0.019
-123.224	-51.075	-0.194	0.090
-122.210	-200.000	0.035	0.185
-121.195	-83.468	0.135	0.043
-120.180	-200.000	0.001	-0.055
-119.166	-120.542	-0.279	0.047
-118.151	-105.412	-0.119	0.027
-117.137	40.861	-0.099	0.088
-116.122	465.111	-0.203	-0.447
-115.107	157.899	-0.191	0.260
-114.093	121.619	0.168	-0.207
-113.078	-146.359	0.142	-0.012
-112.064	800.000	0.072	0.210
-111.049	148.011	0.085	-0.113
-110.034	800.000	0.055	0.176
-109.020	160.154	-0.093	0.128
-108.005	142.314	0.275	-0.359
-106.991	285.457	-0.084	0.149
-105.976	627.155	-0.090	0.223
-104.962	274.727	0.176	0.307
-103.947	-200.000	-0.060	-0.266
-102.932	477.136	0.089	-0.199
-101.918	50.341	0.315	-0.293
-100.903	800.000	-0.033	-0.101
-99.889	-59.414	-0.165	-0.070
-98.874	800.000	0.054	0.183
-97.859	173.501	-0.071	0.101
-96.845	-84.446	0.238	0.074
-95.830	-200.000	-0.003	0.205
-94.816	11.460	-0.020	0.015
-93.801	800.000	-0.042	0.114
-92.786	-91.101	0.218	0.062
-91.772	-37.729	-0.278	0.146
-90.757	-33.352	0.139	0.076
-89.743	-200.000	-0.017	0.352
-88.728	-96.581	0.199	0.052
-87.713	534.483	0.090	-0.209
-86.699	132.091	-0.093	-0.118
-85.684	800.000	0.028	0.078
-84.670	800.000	0.086	0.349
-83.655	-200.000	0.000	0.373
-82.640	-200.000	0.018	-0.313
-81.626	336.490	-0.088	-0.168
-80.611	800.000	-0.061	0.170
-79.597	58.640	0.089	0.086
-78.582	-200.000	-0.007	-0.229
-77.567	-200.000	0.022	0.375
-76.553	624.672	-0.064	0.160
-75.538	-123.811	0.397	-0.062
-74.524	800.000	-0.042	0.179
-73.509	-38.475	0.110	0.057
-72.494	-200.000	-0.034	-0.250
-71.480	-104.271	-0.231	-0.053
-70.465	-170.831	-0.188	0.006
-69.451	-50.729	0.134	0.062
-68.436	-154.863	0.339	-0.022
-67.422	-200.000	-0.023	-0.292
-66.407	-127.060	-0.211	0.030
-65.392	269.562	-0.086	-0.148
-64.378	183.451	0.199	-0.289
-63.363	472.493	-0.200	-0.443
-62.349	342.549	0.056	0.108
-61.334	75.740	-0.936	-0.972
-60.319	48.145	0.478	0.439
-59.305	277.577	-0.446	-0.781
-58.290	635.024	0.348	0.868
-57.276	-200.000	0.238	1.290
-56.261	-200.000	96.285	581.186
-55.246	602.624	1418.858	3466.980
-54.232	186.391	2624.895	3839.048
-53.217	111.586	2312.303	2741.314
-52.203	41.299	1927.495	1712.714
-51.188	35.001	1714.151	1474.747
-50.173	32.300	1669.793	1416.219
-49.159	49.840	1716.185	1589.742
-48.144	51.616	1731.389	1617.297
-47.130	34.623	1692.913	1453.369
-46.115	31.876	1678.532	1420.193
-45.100	31.785	1673.269	1414.993
-44.086	31.669	1670.892	1412.054
-43.071	31.644	1668.186	1409.521
-42.057	31.575	1666.032	1407.125
-41.042	31.636	1664.005	1405.818
-40.027	31.625	1662.059	1404.034
-39.013	31.619	1659.864	1402.078
-37.998	31.472	1658.563	1399.827
-36.984	31.651	1657.318	1400.061
-35.969	31.792	1655.442	1399.473
-34.954	31.827	1654.258	1398.677
-33.940	31.663	1652.491	1395.901
-32.925	31.724	1650.661	1394.754
-31.911	31.740	1648.870	1393.304
-30.896	31.686	1647.241	1391.471
-29.881	31.690	1645.557	1390.028
-28.867	31.714	1643.692	1388.571
-27.852	31.701	1642.686	1387.574
-26.838	31.697	1641.126	1386.170
-25.823	31.742	1639.739	1385.278
-24.809	31.773	1638.253	1384.196
-23.794	31.805	1636.644	1383.019
-22.779	31.768	1635.661	1381.860
-21.765	31.821	1633.961	1380.758
-20.750	31.695	1632.171	1378.262
-19.736	31.781	1630.437	1377.372
-18.721	31.741	1629.503	1376.238
-17.706	31.782	1627.970	1375.187
-16.692	31.789	1625.963	1373.493
-15.677	31.821	1624.624	1372.542
-14.663	31.795	1623.160	1371.056
-13.648	31.713	1622.121	1369.527
-12.633	31.757	1620.431	1368.367
-11.619	31.772	1618.501	1366.793
-10.604	31.746	1617.462	1365.668
-9.590	31.817	1615.878	1364.798
-8.575	31.746	1615.472	1363.883
-7.560	31.818	1613.713	1362.869
-6.546	31.751	1612.303	1361.139
-5.531	31.809	1611.382	1360.722
-4.517	31.760	1610.032	1359.176
-3.502	31.712	1609.141	1358.022
-2.487	31.857	1607.201	1357.383
-1.473	31.862	1596.240	1348.105
-0.458	29.929	1577.693	1318.637
0.556	28.050	1579.171	1291.657
1.571	25.827	1604.522	1296.298
2.586	25.187	1617.250	1301.825
3.600	21.894	1560.622	1233.029
4.615	12.513	1446.874	1081.633
5.629	5.027	1382.839	986.466
6.644	3.994	1374.264	973.765
7.659	3.842	1373.057	971.869
8.673	3.800	1371.831	970.650
9.688	3.884	1370.634	970.241
10.702	3.790	1368.060	967.746
11.717	7.142	1374.439	993.234
12.731	15.675	1389.592	1058.009
13.746	20.707	1397.581	1095.760
14.761	20.623	1395.782	1093.728
15.775	19.754	1393.695	1086.534
16.790	18.746	1390.895	1077.931
17.804	17.962	1388.604	1071.147
18.819	17.586	1387.540	1067.874
19.834	17.376	1386.114	1065.370
20.848	17.127	1384.835	1062.729
21.863	16.916	1383.505	1060.296
22.877	16.860	1382.282	1058.917
23.892	16.705	1381.432	1057.207
24.907	16.695	1380.909	1056.649
25.921	16.830	1379.620	1056.413
26.936	16.779	1378.860	1055.418
27.950	16.790	1377.904	1054.657
28.965	17.029	1376.681	1055.119
29.980	16.990	1375.647	1053.989
30.994	17.117	1374.732	1053.984
32.009	17.095	1373.573	1052.864
33.023	17.043	1372.554	1051.669
34.038	17.046	1371.097	1050.481
35.053	16.982	1369.499	1048.762
36.067	16.960	1368.720	1047.942
37.082	16.951	1367.903	1047.168
38.096	17.008	1366.829	1046.603
39.111	16.947	1366.186	1045.642
40.126	16.904	1365.125	1044.473
41.140	16.729	1364.101	1042.518
42.155	16.611	1363.397	1041.160
43.169	16.596	1363.427	1040.998
44.184	16.703	1362.659	1040.978
45.199	16.543	1363.122	1040.257
46.213	16.904	1361.742	1041.329
47.228	16.839	1361.411	1040.587
48.242	16.901	1360.465	1040.153
49.257	16.882	1358.944	1038.779
50.271	16.790	1357.400	1036.945
51.286	16.859	1356.100	1036.280
52.301	16.911	1354.543	1035.318
53.315	16.804	1353.569	1033.831
54.330	16.675	1352.328	1032.006
55.344	16.684	1351.353	1031.221
56.359	16.803	1350.106	1030.905
57.374	16.716	1349.248	1029.625
58.388	16.621	1348.510	1028.399
59.403	16.574	1348.094	1027.702
60.417	16.654	1347.147	1027.376
61.432	16.692	1345.910	1026.572
62.447	16.559	1344.733	1024.781
63.461	16.459	1343.935	1023.474
64.476	16.398	1342.984	1022.288
65.490	16.467	1341.824	1021.733
66.505	16.465	1339.836	1020.115
67.520	16.505	1338.837	1019.509
68.534	16.476	1337.920	1018.546
69.549	16.491	1337.233	1018.023
70.563	16.409	1336.260	1016.694
71.578	16.417	1334.540	1015.347
72.593	16.371	1333.653	1014.303
73.607	16.450	1332.840	1014.069
74.622	16.366	1332.574	1013.277
75.636	16.384	1331.855	1012.745
76.651	16.350	1331.124	1011.901
77.666	16.394	1331.015	1011.991
78.680	16.393	1330.244	1011.310
79.695	16.430	1328.850	1010.380
80.709	16.538	1328.547	1010.707
81.724	16.578	1327.875	1010.341
82.739	16.676	1326.512	1009.801
83.753	16.832	1325.889	1010.167
84.768	16.872	1325.105	1009.722
85.782	17.013	1324.179	1009.765
86.797	16.872	1323.181	1008.077
87.812	16.777	1321.678	1006.275
88.826	16.850	1320.221	1005.512
89.841	16.899	1319.624	1005.260
90.855	17.049	1318.257	1005.018
91.870	17.003	1317.655	1004.194
92.884	17.023	1316.829	1003.598
93.899	17.035	1315.942	1002.899
94.914	17.069	1315.653	1002.791
95.928	17.111	1314.584	1002.140
96.943	17.042	1313.169	1000.563
97.957	17.004	1312.173	999.492
98.972	16.965	1311.139	998.389
99.987	17.035	1309.981	997.831
101.001	16.999	1309.425	997.107
102.016	16.963	1308.122	995.815
103.030	17.083	1306.876	995.483
104.045	16.906	1306.622	994.161
105.060	16.884	1305.305	992.944
106.074	16.807	1303.631	991.131
107.089	16.546	1302.285	988.497
108.103	16.543	1301.285	987.629
109.118	16.499	1299.750	986.123
110.133	16.579	1298.635	985.653
111.147	16.610	1297.136	984.608
112.162	16.597	1295.728	983.376
113.176	16.657	1294.936	983.042
114.191	16.699	1294.160	982.607
115.206	16.753	1292.673	981.704
116.220	16.675	1291.546	980.309
117.235	16.616	1290.467	979.063
118.249	16.692	1289.090	978.373
119.264	16.625	1288.099	977.145
120.279	16.629	1286.949	976.209
121.293	16.552	1285.798	974.807
122.308	16.484	1284.648	973.458
123.322	16.388	1284.197	972.478
124.337	16.442	1282.864	971.691
125.352	16.494	1281.912	971.181
126.366	16.420	1280.475	969.585
127.381	16.539	1279.338	969.318
128.395	16.517	1278.224	968.260
129.410	16.547	1277.487	967.793
130.424	16.606	1276.682	967.433
131.439	16.528	1275.933	966.332
132.454	16.634	1275.317	966.387
133.468	16.668	1274.300	965.723
134.483	16.742	1273.031	965.097
135.497	16.715	1272.213	964.242
136.512	16.680	1271.286	963.250
137.527	16.737	1269.878	962.423
138.541	16.711	1268.625	961.245
139.556	16.790	1267.145	960.487
140.570	16.816	1266.545	960.089
141.585	16.876	1265.616	959.639
142.600	16.998	1264.039	959.053
143.614	17.091	1263.209	958.863
144.629	17.033	1262.460	957.878
145.643	17.003	1261.383	956.809
146.658	16.846	1260.183	954.929
147.673	16.782	1258.604	953.287
148.687	16.795	1257.299	952.292
149.702	16.805	1255.614	950.986
150.716	16.735	1254.555	949.705
151.731	16.673	1253.514	948.487
152.746	16.724	1252.335	947.796
153.760	16.809	1251.301	947.407
154.775	16.944	1250.246	947.280
155.789	17.038	1248.858	946.667
156.804	16.847	1248.076	944.923
157.819	17.067	1246.499	944.872
158.833	17.058	1245.628	944.078
159.848	17.170	1245.059	944.185
160.862	17.111	1244.206	943.127
161.877	16.973	1242.850	941.253
162.892	16.879	1241.471	939.601
163.906	16.738	1241.132	938.483
164.921	16.856	1239.941	938.153
165.935	16.898	1239.350	937.853
166.950	16.935	1238.215	937.117
167.964	17.033	1237.175	936.785
168.979	16.888	1237.382	936.060
169.994	16.949	1236.159	935.386
171.008	16.941	1235.456	934.731
172.023	17.035	1234.722	934.609
173.037	17.160	1233.938	934.620
174.052	17.060	1233.062	933.324
175.067	16.976	1231.832	931.848
176.081	17.004	1230.721	931.080
177.096	16.899	1229.924	929.819
178.110	16.977	1228.917	929.405
179.125	17.075	1227.130	928.508
180.140	17.041	1226.063	927.433
181.154	17.093	1225.559	927.253
182.169	17.127	1223.837	926.050
183.183	17.236	1222.902	925.854
184.198	17.256	1221.876	925.107
185.213	17.187	1220.946	923.946
186.227	17.165	1220.067	923.080
187.242	17.392	1218.686	923.185
188.256	17.381	1217.669	922.271
189.271	17.463	1216.571	921.806
190.286	17.255	1215.788	920.003
191.300	16.843	1215.181	917.234
192.315	16.850	1213.912	916.232
193.329	16.845	1213.403	915.742
194.344	17.035	1212.572	916.055
195.359	17.117	1212.365	916.259
196.373	17.267	1211.977	916.694
197.388	17.295	1211.593	916.477
198.402	17.434	1211.124	916.790
199.417	17.540	1210.406	916.736
200.432	17.604	1209.478	916.297
201.446	17.642	1209.132	916.156
202.461	17.678	1208.089	915.480
203.475	17.719	1206.792	914.633
204.490	17.625	1205.464	913.043
205.504	17.435	1204.551	911.253
206.519	17.388	1203.176	909.883
207.534	17.341	1202.203	908.815
208.548	17.377	1201.102	908.093
209.563	17.368	1200.410	907.444
210.577	17.478	1198.980	906.867
211.592	17.428	1198.880	906.444
212.607	17.557	1197.623	906.101
213.621	17.620	1197.193	906.031
214.636	17.621	1196.018	905.064
215.650	17.631	1194.923	904.210
216.665	17.610	1194.315	903.558
217.680	17.785	1193.233	903.588
218.694	17.769	1192.588	902.932
219.709	17.764	1192.119	902.472
220.723	17.741	1191.127	901.522
221.738	17.719	1190.134	900.575
222.753	17.664	1189.539	899.755
223.767	17.726	1188.972	899.570
224.782	17.903	1188.137	899.793
225.796	17.884	1187.739	899.309
226.811	17.886	1187.142	898.791
227.826	17.802	1186.004	897.407
228.840	17.722	1184.956	896.114
229.855	17.908	1184.412	896.600
230.869	17.798	1183.839	895.513
231.884	17.783	1182.739	894.521
232.899	17.705	1181.888	893.391
233.913	17.686	1180.988	892.532
234.928	17.626	1180.290	891.613
235.942	17.507	1179.877	890.598
236.957	17.640	1178.638	890.277
237.972	17.706	1178.152	890.176
238.986	17.623	1177.444	889.129
240.001	17.607	1177.010	888.642
241.015	17.614	1176.245	888.020
242.030	17.770	1175.236	887.992
243.045	17.764	1174.770	887.531
244.059	17.804	1173.574	886.757
245.074	17.932	1173.077	886.968
246.088	17.907	1172.125	886.038
247.103	18.008	1171.588	886.079
248.117	18.028	1170.809	885.516
249.132	18.172	1170.146	885.683
250.147	18.256	1169.682	885.686
251.161	18.350	1168.912	885.508
252.176	18.466	1167.873	885.244
253.190	18.514	1167.620	885.220
254.205	18.482	1167.218	884.673
255.220	18.522	1166.114	883.966
256.234	18.320	1165.858	882.651
257.249	18.515	1164.610	882.632
258.263	18.558	1163.990	882.303
259.278	18.515	1163.303	881.483
260.293	18.531	1163.159	881.381
261.307	18.532	1162.675	880.942
262.322	18.594	1161.880	880.577
263.336	18.637	1161.227	880.226
264.351	18.610	1161.030	879.860
265.366	18.579	1160.235	879.021
266.380	18.663	1158.950	878.401
267.395	18.597	1158.057	877.308
268.409	18.559	1157.413	876.551
269.424	18.494	1156.479	875.429
270.439	18.488	1156.357	875.232
271.453	18.540	1155.048	874.426
272.468	18.447	1154.512	873.469
273.482	18.375	1154.227	872.813
274.497	18.434	1153.353	872.374
275.512	18.474	1152.608	871.934
276.526	18.532	1151.345	871.197
277.541	18.565	1150.812	870.886
278.555	18.536	1150.369	870.325
279.570	18.622	1149.852	870.296
280.585	18.692	1148.788	869.766
281.599	18.665	1148.137	869.058
282.614	18.633	1146.863	867.855
283.628	18.638	1146.084	867.218
284.643	18.662	1144.747	866.248
285.657	18.652	1143.750	865.368
286.672	18.688	1142.852	864.795
287.687	18.643	1142.429	864.171
288.701	18.693	1141.585	863.706
289.716	18.684	1140.571	862.819
290.730	18.786	1139.995	862.818
291.745	18.696	1139.193	861.685
292.760	18.785	1138.634	861.632
293.774	18.947	1138.125	861.979
294.789	18.918	1137.750	861.475
295.803	18.965	1136.949	861.026
296.818	18.819	1136.031	859.529
297.833	18.922	1135.351	859.453
298.847	18.912	1134.393	858.598
299.862	18.827	1133.661	857.543
300.876	18.838	1133.133	857.126
301.891	19.055	1131.987	857.262
302.906	19.084	1131.802	857.192
303.920	19.118	1131.295	856.902
304.935	19.188	1130.274	856.398
305.949	19.215	1129.813	856.107
306.964	19.226	1129.336	855.728
307.979	19.074	1128.490	854.256
308.993	19.113	1127.808	853.859
310.008	19.137	1127.376	853.573
311.022	19.306	1126.298	853.517
312.037	19.209	1125.657	852.480
313.052	19.122	1124.389	851.012
314.066	19.102	1123.363	850.062
315.081	18.954	1122.272	848.431
316.095	18.856	1121.979	847.650
317.110	18.912	1121.385	847.401
318.125	18.897	1120.700	846.734
319.139	18.936	1119.769	846.151
320.154	19.027	1118.902	845.869
321.168	19.003	1118.341	845.248
322.183	18.970	1117.878	844.664
323.197	18.943	1117.487	844.161
324.212	19.071	1116.736	844.148
325.227	19.198	1115.972	844.118
326.241	19.128	1115.391	843.260
327.256	19.079	1114.683	842.410
328.270	19.101	1113.387	841.462
329.285	19.109	1112.224	840.547
330.300	19.119	1111.450	839.940
331.314	19.060	1110.695	839.006
332.329	19.109	1109.594	838.339
333.343	19.243	1109.013	838.476
334.358	19.212	1108.217	837.653
335.373	19.206	1107.964	837.355
336.387	19.283	1107.104	837.009
337.402	19.286	1106.394	836.412
338.416	19.384	1105.538	836.162
339.431	19.404	1104.805	835.630
340.446	19.443	1104.571	835.571
341.460	19.479	1103.656	834.978
342.475	19.611	1102.617	834.758
343.489	19.651	1101.573	834.084
344.504	19.838	1100.721	834.267
345.519	19.750	1099.717	833.011
346.533	19.865	1098.997	832.943
347.548	19.940	1098.268	832.679
348.562	19.687	1098.247	831.374
349.577	19.591	1096.963	829.868
350.592	19.531	1096.388	829.071
351.606	19.434	1095.495	827.854
352.621	19.439	1094.732	827.227
353.635	19.459	1093.993	826.691
354.650	19.496	1093.048	826.084
355.665	19.603	1092.291	825.949
356.679	19.574	1092.065	825.568
357.694	19.716	1091.033	825.392
358.708	19.638	1090.952	824.887
359.723	19.665	1089.999	824.223
360.738	19.736	1089.224	823.901
361.752	19.699	1088.985	823.470
362.767	19.799	1088.281	823.341
363.781	19.691	1088.013	822.553
364.796	19.749	1087.801	822.594
365.810	19.914	1086.804	822.552
366.825	19.973	1086.148	822.262
367.840	20.026	1085.690	822.096
368.854	20.194	1085.137	822.401
369.869	20.073	1084.560	821.315
370.883	19.994	1083.603	820.144
371.898	20.085	1082.308	819.524
372.913	19.911	1082.324	818.639
373.927	20.099	1081.457	818.799
374.942	20.092	1081.087	818.413
375.956	20.132	1080.673	818.215
376.971	20.075	1080.035	817.393
377.986	20.150	1079.695	817.416
379.000	20.112	1079.249	816.827
380.015	20.233	1078.455	816.723
381.029	20.393	1077.816	816.922
382.044	20.211	1077.222	815.544
383.059	20.229	1076.289	814.849
384.073	20.349	1075.290	814.583
385.088	20.291	1074.733	813.817
386.102	20.357	1073.580	813.181
387.117	20.303	1072.445	811.995
388.132	20.094	1071.879	810.518
389.146	20.069	1071.003	809.667
390.161	20.161	1070.467	809.621
391.175	20.217	1069.459	809.046
392.190	20.227	1068.810	808.533
393.205	20.271	1068.070	808.106
394.219	20.291	1067.342	807.576
395.234	20.332	1066.329	806.927
396.248	20.264	1065.029	805.558
397.263	20.308	1064.225	805.081
398.278	20.088	1063.848	803.706
399.292	20.153	1062.702	803.070
400.307	20.073	1062.041	802.129
401.321	20.099	1061.436	801.721
402.336	20.089	1060.921	801.215
403.350	20.219	1060.186	801.189
404.365	20.104	1059.826	800.317
405.380	20.194	1058.849	799.925
406.394	20.252	1058.088	799.544
407.409	20.374	1057.194	799.360
408.423	20.470	1056.603	799.283
409.438	20.559	1056.096	799.238
410.453	20.542	1055.766	798.838
411.467	20.694	1054.585	798.574
412.482	20.665	1053.983	797.912
413.496	20.619	1053.787	797.483
414.511	20.623	1053.312	797.071
415.526	20.862	1052.347	797.366
416.540	20.767	1052.525	796.993
417.555	20.835	1051.413	796.394
418.569	20.787	1050.915	795.726
419.584	20.811	1050.391	795.370
420.599	20.835	1049.929	795.061
421.613	152.808	1402.664	1791.731
422.628	140.096	1454.055	1791.836
