DTS Sentinel unit serial number:	SN413079Multiplexer serial number:	ORYXHardware model number:	OX4-SRSoftware version number:	ORYX F/W v4.00 Oryx Data Collector v3.7.2.0data status	okinstallation	princeton_trtdifferential loss correction	single-endedforward channel	channel 2reverse channel	N/Adate	2019/09/19time	07:19:35forward acquisition time	60.00reverse acquisition time	0.00gamma	496.2192k internal	0.2350k external	0.2350temperature offset calibration	1.0009default loss term (dB/km)	0.3790temperature slope calibration	1.0000multiplexer offset coefficient	1.0000multiplexer slope coefficient	1.0000fibre end	0.00T internal ref (°C)	19.12T ext. ref 1 (°C)	0.55T ext. ref 2 (°C)	13.71length (m)	temperature (°C)	Stokes	anti-Stokes-747.200	60.305	-0.155	0.153
-746.185	-64.639	-0.240	-0.097
-745.171	-35.984	0.280	-0.151
-744.156	-141.249	-0.307	0.031
-743.142	-144.420	0.116	0.011
-742.127	283.322	0.109	0.195
-741.112	-82.211	0.299	-0.097
-740.098	-125.432	0.355	-0.054
-739.083	59.379	-0.247	0.243
-738.069	186.613	0.205	-0.305
-737.054	-175.544	0.088	0.002
-736.039	-107.214	-0.424	-0.093
-735.025	244.778	0.042	0.071
-734.010	8.341	-0.269	-0.202
-732.996	-200.000	-0.006	0.035
-731.981	-200.000	-0.029	-0.232
-730.966	-145.402	0.110	-0.010
-729.952	800.000	-0.098	-0.357
-728.937	-142.974	0.129	-0.012
-727.923	152.903	-0.107	0.145
-726.908	-65.586	0.229	-0.092
-725.894	-200.000	-0.012	0.381
-724.879	143.572	0.142	-0.189
-723.864	-16.906	0.039	0.025
-722.850	-155.886	-0.128	-0.008
-721.835	800.000	-0.102	-0.352
-720.821	507.108	0.037	0.085
-719.806	377.463	-0.216	-0.440
-718.791	339.723	0.188	0.366
-717.777	-200.000	0.043	0.218
-716.762	-44.968	0.435	0.216
-715.748	305.219	-0.079	0.146
-714.733	-61.360	-0.254	0.107
-713.718	-200.000	0.024	0.185
-712.704	-158.254	-0.062	0.004
-711.689	800.000	-0.119	-0.364
-710.675	800.000	0.061	-0.196
-709.660	-79.991	0.159	0.053
-708.645	-100.296	0.367	0.091
-707.631	-200.000	0.026	0.299
-706.616	124.749	0.062	0.078
-705.602	-83.954	-0.188	0.060
-704.587	-200.000	0.001	0.320
-703.572	800.000	-0.099	0.370
-702.558	-200.000	0.025	0.122
-701.543	67.508	0.243	-0.247
-700.529	-82.258	-0.320	-0.104
-699.514	234.034	-0.024	-0.040
-698.499	10.826	0.289	-0.220
-697.485	-53.617	0.014	0.006
-696.470	64.146	-0.104	-0.104
-695.456	66.365	-0.263	0.266
-694.441	606.588	0.109	-0.271
-693.426	800.000	0.140	-0.445
-692.412	-200.000	-0.002	-0.344
-691.397	-63.279	-0.382	-0.157
-690.383	442.188	-0.015	-0.033
-689.368	-52.290	-0.280	0.129
-688.354	800.000	0.056	-0.180
-687.339	43.792	0.193	-0.176
-686.324	151.483	-0.113	-0.153
-685.310	-107.063	-0.310	0.068
-684.295	141.043	0.081	-0.106
-683.281	-82.683	0.319	0.103
-682.266	176.872	0.083	-0.121
-681.251	234.960	-0.162	-0.265
-680.237	9.916	-0.109	-0.083
-679.222	-39.927	-0.137	0.071
-678.208	7.866	0.059	0.044
-677.193	-9.756	-0.070	-0.046
-676.178	214.885	0.101	0.160
-675.164	15.983	-0.070	-0.055
-674.149	-105.797	0.225	-0.051
-673.135	157.127	-0.014	0.020
-672.120	73.930	-0.215	-0.224
-671.105	-6.549	-0.248	0.168
-670.091	142.530	0.381	-0.504
-669.076	800.000	-0.053	0.216
-668.062	50.390	-0.141	-0.132
-667.047	71.337	0.208	0.215
-666.032	800.000	-0.039	-0.111
-665.018	72.474	-0.296	0.307
-664.003	135.359	-0.041	0.054
-662.989	123.860	0.138	-0.173
-661.974	645.216	0.128	-0.325
-660.959	28.828	0.297	-0.250
-659.945	-55.732	0.249	0.111
-658.930	588.071	-0.051	0.124
-657.916	-129.572	0.047	-0.007
-656.901	800.000	0.049	-0.154
-655.886	9.280	-0.233	0.175
-654.872	800.000	0.152	0.437
-653.857	-106.689	-0.363	0.080
-652.843	249.538	0.049	-0.083
-651.828	-33.838	0.295	0.161
-650.814	372.878	0.082	0.167
-649.799	173.494	0.237	0.340
-648.784	692.350	-0.050	-0.130
-647.770	8.544	0.356	0.267
-646.755	-9.526	-0.032	0.021
-645.741	-31.938	-0.391	-0.218
-644.726	-172.389	0.091	-0.003
-643.711	551.570	0.066	-0.157
-642.697	-99.799	-0.153	-0.038
-641.682	241.989	0.103	-0.172
-640.668	800.000	0.102	-0.337
-639.653	-200.000	-0.004	0.298
-638.638	17.992	-0.207	-0.164
-637.624	-134.073	-0.271	0.033
-636.609	698.437	0.046	0.121
-635.595	-117.345	0.390	0.070
-634.580	-83.981	-0.180	-0.057
-633.565	-200.000	0.039	-0.319
-632.551	-1.394	-0.304	0.213
-631.536	-159.707	-0.065	0.004
-630.522	-109.056	0.233	0.049
-629.507	607.153	-0.061	0.151
-628.492	-200.000	-0.006	-0.210
-627.478	-0.479	0.247	-0.174
-626.463	71.711	0.093	-0.096
-625.449	-107.045	0.109	-0.024
-624.434	173.891	-0.245	-0.352
-623.419	-200.000	-0.048	-0.286
-622.405	73.298	-0.093	0.096
-621.390	116.269	0.160	0.195
-620.376	238.701	-0.107	-0.177
-619.361	108.713	-0.196	0.233
-618.346	-200.000	0.026	0.408
-617.332	-20.844	-0.336	0.205
-616.317	800.000	0.037	0.134
-615.303	0.556	-0.132	-0.093
-614.288	-187.176	0.255	-0.003
-613.273	119.442	-0.077	0.095
-612.259	209.069	-0.077	0.120
-611.244	674.948	0.062	-0.160
-610.230	-153.115	-0.277	-0.019
-609.215	19.734	0.013	-0.011
-608.201	-67.050	-0.244	0.096
-607.186	-44.811	0.040	0.020
-606.171	101.118	-0.272	0.314
-605.157	-101.366	-0.040	0.010
-604.142	-200.000	0.038	0.209
-603.128	38.784	0.367	0.326
-602.113	74.510	0.185	-0.193
-601.098	-200.000	-0.028	0.465
-600.084	-42.730	-0.304	-0.153
-599.069	-200.000	0.030	0.354
-598.055	161.875	-0.048	0.066
-597.040	-154.881	0.249	0.016
-596.025	90.000	-0.284	-0.315
-595.011	-155.134	0.121	0.008
-593.996	-200.000	-0.003	0.086
-592.982	37.360	-0.271	-0.238
-591.967	-129.166	0.149	-0.021
-590.952	800.000	-0.128	0.400
-589.938	-200.000	0.048	-0.243
-588.923	251.506	0.236	0.399
-587.909	-200.000	0.018	0.158
-586.894	21.351	0.093	0.075
-585.879	-200.000	0.018	-0.170
-584.865	202.078	0.069	0.105
-583.850	292.014	0.205	0.371
-582.836	135.568	0.129	-0.166
-581.821	-64.979	0.121	-0.049
-580.806	107.348	0.040	0.047
-579.792	-200.000	0.047	-0.285
-578.777	-143.528	-0.156	0.015
-577.763	-149.452	0.042	-0.003
-576.748	6.549	-0.222	0.164
-575.733	237.176	0.049	-0.081
-574.719	67.588	0.304	-0.307
-573.704	-200.000	-0.001	0.045
-572.690	8.548	-0.167	-0.124
-571.675	209.652	-0.020	-0.030
-570.661	-200.000	0.040	0.193
-569.646	800.000	-0.037	-0.116
-568.631	513.956	-0.045	-0.104
-567.617	-123.052	0.572	-0.091
-566.602	160.684	-0.192	-0.266
-565.588	101.676	0.151	0.175
-564.573	-200.000	0.025	-0.146
-563.558	-200.000	0.026	-0.240
-562.544	-74.240	-0.180	0.065
-561.529	193.910	-0.100	0.150
-560.515	-57.448	0.082	0.036
-559.500	52.498	0.207	0.196
-558.485	-200.000	-0.033	0.222
-557.471	95.573	0.136	-0.154
-556.456	31.439	-0.269	-0.229
-555.442	-142.072	-0.228	-0.022
-554.427	-200.000	0.019	-0.180
-553.412	-198.257	0.223	0.001
-552.398	201.123	-0.183	0.280
-551.383	-66.545	0.224	0.088
-550.369	-126.046	-0.443	-0.066
-549.354	800.000	0.072	0.197
-548.339	62.957	-0.069	0.069
-547.325	-200.000	-0.016	-0.258
-546.310	75.273	-0.040	0.042
-545.296	-154.335	0.223	-0.015
-544.281	-55.998	-0.156	0.069
-543.266	-200.000	-0.025	-0.111
-542.252	84.028	0.068	0.073
-541.237	140.188	-0.075	0.098
-540.223	459.994	0.130	0.286
-539.208	107.082	0.025	-0.029
-538.193	217.345	0.074	0.117
-537.179	-99.127	-0.166	0.042
-536.164	652.191	-0.049	0.125
-535.150	185.928	-0.096	-0.142
-534.135	-200.000	-0.044	0.229
-533.121	29.657	-0.243	-0.204
-532.106	-200.000	-0.043	-0.343
-531.091	286.845	-0.191	-0.341
-530.077	478.342	0.164	0.367
-529.062	10.833	0.348	-0.263
-528.048	43.549	0.168	0.152
-527.033	-200.000	0.031	-0.150
-526.018	28.984	-0.143	-0.120
-525.004	-156.780	-0.225	-0.014
-523.989	-12.108	0.188	0.122
-522.975	-179.316	-0.072	0.002
-521.960	-123.549	0.572	-0.090
-520.945	-200.000	-0.027	0.228
-519.931	42.241	-0.223	0.200
-518.916	150.618	0.190	0.255
-517.902	-200.000	0.036	0.271
-516.887	-140.677	-0.377	-0.039
-515.872	30.036	0.367	0.309
-514.858	67.644	0.119	-0.120
-513.843	800.000	0.034	-0.122
-512.829	19.044	-0.139	0.110
-511.814	-67.050	-0.032	0.012
-510.799	-29.593	0.246	0.139
-509.785	124.188	0.121	0.150
-508.770	-200.000	-0.001	-0.029
-507.756	170.989	-0.273	-0.386
-506.741	636.593	0.078	0.196
-505.726	-42.900	-0.442	-0.222
-504.712	-200.000	0.012	-0.054
-503.697	119.624	-0.146	-0.178
-502.683	-200.000	0.468	0.001
-501.668	800.000	-0.077	-0.263
-500.653	167.170	0.192	-0.269
-499.639	259.038	-0.130	-0.222
-498.624	-200.000	-0.001	-0.124
-497.610	-200.000	0.007	-0.370
-496.595	-8.049	-0.033	0.022
-495.581	26.848	0.199	0.164
-494.566	-28.244	-0.053	-0.030
-493.551	8.707	0.176	-0.131
-492.537	51.073	-0.268	0.251
-491.522	65.492	-0.018	0.018
-490.508	-112.934	-0.032	0.006
-489.493	-93.801	-0.276	0.075
-488.478	517.515	0.126	0.290
-487.464	-145.338	0.255	0.023
-486.449	98.655	-0.146	0.166
-485.435	-30.012	0.053	-0.030
-484.420	118.336	0.152	-0.185
-483.405	-14.997	0.113	-0.071
-482.391	-92.275	-0.111	0.031
-481.376	365.343	0.098	0.194
-480.362	-68.038	-0.184	0.071
-479.347	157.982	-0.073	0.100
-478.332	42.646	-0.205	0.185
-477.318	-200.000	-0.016	0.237
-476.303	287.908	0.121	-0.216
-475.289	-165.060	-0.101	-0.004
-474.274	49.735	0.080	0.074
-473.259	800.000	0.065	-0.265
-472.245	99.687	0.192	0.220
-471.230	-3.302	-0.084	0.058
-470.216	103.741	-0.207	0.240
-469.201	800.000	-0.065	-0.209
-468.186	-80.132	-0.221	0.073
-467.172	-141.817	-0.131	0.013
-466.157	86.556	0.199	-0.217
-465.143	-200.000	0.020	0.214
-464.128	-141.089	0.190	-0.019
-463.113	-57.606	-0.121	-0.052
-462.099	800.000	-0.063	-0.171
-461.084	-87.823	-0.113	-0.034
-460.070	-103.917	0.071	0.016
-459.055	-200.000	-0.016	0.245
-458.040	-121.467	0.155	0.025
-457.026	40.946	0.300	-0.268
-456.011	75.357	-0.173	-0.181
-454.997	-34.778	0.184	0.099
-453.982	-200.000	-0.026	0.149
-452.968	-112.026	-0.396	0.079
-451.953	-68.947	-0.260	0.099
-450.938	87.416	-0.065	0.071
-449.924	7.061	0.200	0.148
-448.909	541.081	-0.162	0.381
-447.895	114.127	0.076	0.091
-446.880	132.966	-0.157	-0.200
-445.865	34.493	0.138	0.119
-444.851	-15.315	0.206	0.130
-443.836	249.951	0.017	0.029
-442.822	-118.383	-0.302	0.053
-441.807	-93.086	0.210	0.058
-440.792	69.549	-0.066	0.067
-439.778	-88.094	0.235	-0.069
-438.763	-120.819	-0.204	-0.034
-437.749	-144.091	-0.091	0.008
-436.734	20.379	-0.126	-0.100
-435.719	7.567	-0.246	0.182
-434.705	-91.316	-0.369	-0.104
-433.690	-121.908	-0.344	0.056
-432.676	66.079	0.064	0.064
-431.661	501.753	0.136	0.309
-430.646	-111.535	-0.293	0.059
-429.632	13.777	0.203	0.155
-428.617	-200.000	0.056	-0.301
-427.603	800.000	-0.055	0.213
-426.588	-3.173	0.243	0.167
-425.573	-200.000	0.020	0.252
-424.559	-193.476	-0.176	0.002
-423.544	247.346	-0.063	0.106
-422.530	-99.706	0.133	-0.033
-421.515	-104.127	0.136	0.031
-420.500	-200.000	0.066	0.297
-419.486	52.853	-0.216	-0.203
-418.471	656.367	-0.080	-0.202
-417.457	-101.589	0.441	0.106
-416.442	-102.165	0.348	0.082
-415.428	209.762	0.151	-0.233
-414.413	-200.000	-0.039	0.280
-413.398	10.200	-0.236	0.177
-412.384	766.716	-0.036	-0.096
-411.369	-200.000	-0.044	-0.316
-410.355	187.460	0.143	-0.210
-409.340	19.646	-0.271	-0.215
-408.325	44.684	0.019	0.017
-407.311	-28.557	0.093	0.053
-406.296	-57.095	0.116	0.050
-405.282	-200.000	0.009	0.108
-404.267	321.859	-0.215	0.403
-403.252	-127.105	-0.178	0.026
-402.238	-53.274	0.192	-0.087
-401.223	-120.160	-0.325	0.055
-400.209	800.000	0.008	-0.027
-399.194	-76.502	-0.300	0.104
-398.179	40.620	-0.280	0.249
-397.165	93.839	-0.069	-0.077
-396.150	-44.754	-0.191	-0.094
-395.136	-177.211	-0.240	0.006
-394.121	29.771	0.207	0.174
-393.106	-200.000	-0.065	0.362
-392.092	87.496	0.152	-0.166
-391.077	279.966	0.013	-0.023
-390.063	34.104	0.139	-0.119
-389.048	223.190	0.050	0.079
-388.033	-200.000	-0.032	-0.205
-387.019	-200.000	0.007	-0.071
-386.004	-200.000	-0.013	-0.072
-384.990	-200.000	0.025	0.160
-383.975	-7.997	0.086	-0.057
-382.960	1.621	-0.088	0.063
-381.946	-124.317	0.135	-0.021
-380.931	-200.000	0.018	0.121
-379.917	-200.000	-0.010	-0.121
-378.902	-137.877	0.029	-0.003
-377.888	120.376	-0.155	0.189
-376.873	421.694	0.037	-0.078
-375.858	-129.119	0.174	0.024
-374.844	7.238	0.183	0.135
-373.829	85.463	-0.190	-0.205
-372.815	288.387	-0.096	-0.170
-371.800	-200.000	0.004	-0.067
-370.785	-98.628	0.256	0.064
-369.771	-139.606	0.278	-0.029
-368.756	79.722	-0.340	0.359
-367.742	-92.459	0.120	-0.033
-366.727	110.846	-0.116	0.137
-365.712	-122.206	-0.095	-0.015
-364.698	-200.000	0.003	0.083
-363.683	-123.589	-0.201	-0.031
-362.669	-163.585	0.238	0.011
-361.654	-99.550	0.469	0.116
-360.639	375.811	-0.084	-0.168
-359.625	-152.458	0.099	0.007
-358.610	-15.858	-0.244	-0.153
-357.596	509.310	-0.159	-0.363
-356.581	-200.000	0.058	0.263
-355.566	162.710	-0.155	0.213
-354.552	-200.000	-0.072	-0.392
-353.537	346.518	-0.027	0.052
-352.523	96.257	0.129	0.145
-351.508	614.512	0.181	-0.446
-350.493	213.975	0.128	-0.199
-349.479	800.000	0.101	-0.286
-348.464	135.934	0.068	-0.088
-347.450	-200.000	0.022	0.313
-346.435	-40.944	-0.379	-0.192
-345.420	775.846	0.144	-0.387
-344.406	-45.554	-0.220	0.107
-343.391	-13.310	0.320	-0.204
-342.377	-200.000	0.049	-0.285
-341.362	800.000	0.020	0.074
-340.348	7.449	-0.035	0.026
-339.333	-25.833	0.250	0.144
-338.318	645.889	-0.130	-0.327
-337.304	-92.183	0.078	0.022
-336.289	-200.000	0.056	0.349
-335.275	171.922	0.166	-0.234
-334.260	800.000	-0.039	0.151
-333.245	-137.611	0.311	-0.034
-332.231	326.170	0.104	0.196
-331.216	307.095	0.097	0.178
-330.202	407.803	-0.097	-0.202
-329.187	-39.207	-0.180	-0.093
-328.172	-142.881	0.318	0.030
-327.158	800.000	-0.061	0.206
-326.143	337.030	-0.048	-0.092
-325.129	-48.709	0.048	0.023
-324.114	-96.960	0.241	0.062
-323.099	-160.115	0.233	-0.012
-322.085	-47.066	-0.084	0.040
-321.070	182.428	0.228	-0.331
-320.056	-200.000	0.006	0.309
-319.041	-200.000	0.045	-0.220
-318.026	800.000	0.134	0.407
-317.012	-92.226	-0.172	-0.048
-315.997	126.161	0.151	0.188
-314.983	-88.115	-0.230	0.068
-313.968	-100.998	0.332	0.080
-312.953	522.076	0.028	0.066
-311.939	-152.443	-0.196	-0.014
-310.924	306.542	-0.205	-0.374
-309.910	-83.596	0.045	-0.014
-308.895	-200.000	-0.156	-0.001
-307.880	800.000	-0.065	-0.237
-306.866	-164.060	0.192	-0.009
-305.851	-20.889	0.271	0.163
-304.837	-151.055	0.132	-0.010
-303.822	-52.746	0.129	0.058
-302.807	58.481	0.179	-0.172
-301.793	197.178	-0.079	-0.119
-300.778	-120.406	-0.124	-0.021
-299.764	137.676	-0.011	-0.014
-298.749	800.000	-0.061	0.218
-297.735	108.587	0.193	-0.226
-296.720	51.352	0.166	-0.155
-295.705	-25.990	-0.312	-0.180
-294.691	110.317	0.157	-0.185
-293.676	-105.067	0.107	0.024
-292.662	336.089	-0.156	0.297
-291.647	86.643	-0.282	0.305
-290.632	-63.423	-0.078	0.031
-289.618	-167.691	0.090	0.004
-288.603	-27.727	0.070	-0.040
-287.589	-200.000	-0.024	-0.137
-286.574	-63.741	-0.328	-0.132
-285.559	660.455	-0.100	-0.252
-284.545	-5.467	0.276	0.186
-283.530	-103.053	0.072	-0.017
-282.516	-200.000	0.031	-0.156
-281.501	646.172	-0.067	-0.168
-280.486	293.289	-0.063	-0.113
-279.472	-90.834	0.259	-0.073
-278.457	-104.397	0.286	0.065
-277.443	155.118	-0.080	0.107
-276.428	-87.822	0.093	0.027
-275.413	-149.622	-0.045	0.004
-274.399	28.498	0.141	-0.117
-273.384	-200.000	-0.022	-0.232
-272.370	585.456	-0.032	0.077
-271.355	83.536	-0.094	-0.101
-270.340	-25.258	0.177	-0.103
-269.326	358.605	-0.038	-0.074
-268.311	-132.050	0.067	-0.009
-267.297	-98.273	0.247	-0.062
-266.282	-36.298	-0.203	0.107
-265.267	-147.713	0.230	-0.019
-264.253	7.821	-0.179	0.132
-263.238	148.863	0.173	-0.229
-262.224	664.289	0.081	-0.204
-261.209	-95.065	0.188	0.050
-260.195	-13.804	-0.215	0.136
-259.180	94.786	0.123	-0.137
-258.165	21.803	-0.153	-0.122
-257.151	-200.000	-0.014	0.124
-256.136	-103.906	-0.406	-0.093
-255.122	169.531	-0.232	-0.325
-254.107	370.474	0.073	0.146
-253.092	247.898	0.028	0.046
-252.078	-200.000	-0.008	-0.057
-251.063	-162.153	-0.449	0.022
-250.049	-200.000	-0.014	-0.090
-249.034	-32.983	0.461	-0.251
-248.019	-67.073	-0.099	0.038
-247.005	78.957	0.252	-0.264
-245.990	523.046	0.067	-0.155
-244.976	256.089	0.151	-0.253
-243.961	-148.446	0.255	-0.020
-242.946	116.323	0.260	0.312
-241.932	11.087	-0.197	-0.147
-240.917	-101.807	0.148	0.035
-239.903	295.914	-0.150	0.270
-238.888	-200.000	0.044	-0.193
-237.873	-66.416	-0.308	-0.120
-236.859	800.000	-0.112	0.446
-235.844	-124.651	-0.213	0.032
-234.830	-200.000	-0.054	-0.259
-233.815	-44.037	0.154	0.076
-232.800	317.901	0.090	-0.167
-231.786	99.828	0.119	-0.135
-230.771	-49.712	-0.136	0.063
-229.757	381.519	-0.011	-0.023
-228.742	800.000	0.069	-0.190
-227.727	22.484	-0.197	-0.157
-226.713	800.000	-0.128	-0.383
-225.698	-14.350	-0.074	0.046
-224.684	-200.000	0.029	-0.169
-223.669	-200.000	0.004	-0.102
-222.655	-66.999	0.316	0.122
-221.640	-200.000	-0.059	0.289
-220.625	122.186	-0.222	0.271
-219.611	-200.000	-0.004	-0.033
-218.596	17.195	0.154	-0.120
-217.582	-41.424	-0.381	0.192
-216.567	-38.659	0.210	-0.108
-215.552	98.499	-0.098	0.111
-214.538	-135.555	-0.454	0.053
-213.523	330.863	-0.014	0.027
-212.509	184.910	-0.143	0.208
-211.494	-125.777	0.074	0.011
-210.479	24.534	-0.242	-0.196
-209.465	-74.608	-0.237	-0.083
-208.450	-40.344	-0.023	-0.012
-207.436	39.243	-0.088	0.077
-206.421	-200.000	-0.037	0.158
-205.406	125.274	0.175	-0.216
-204.392	3.718	-0.062	0.044
-203.377	180.129	0.190	-0.272
-202.363	-97.569	-0.341	0.087
-201.348	711.256	-0.022	-0.056
-200.333	-200.000	-0.053	0.262
-199.319	-0.024	0.240	0.167
-198.304	-9.361	0.404	-0.264
-197.290	-33.417	-0.228	-0.123
-196.275	182.501	-0.092	-0.132
-195.260	64.855	0.136	0.134
-194.246	800.000	0.121	-0.435
-193.231	-69.436	-0.242	0.091
-192.217	46.245	0.236	0.214
-191.202	-200.000	0.057	0.370
-190.187	-48.537	-0.493	-0.232
-189.173	800.000	0.071	-0.284
-188.158	-83.718	-0.245	-0.076
-187.144	106.319	0.335	-0.387
-186.129	-51.431	-0.078	0.036
-185.114	41.801	0.090	0.080
-184.100	-9.180	0.043	-0.028
-183.085	698.346	-0.168	-0.431
-182.071	38.892	0.228	0.199
-181.056	462.556	0.098	-0.215
-180.042	-55.579	-0.257	0.113
-179.027	-139.580	-0.144	-0.015
-178.012	-85.869	-0.072	0.022
-176.998	469.706	0.137	-0.301
-175.983	-200.000	0.052	-0.236
-174.969	438.641	0.114	0.244
-173.954	-89.898	0.218	-0.062
-172.939	800.000	0.024	-0.087
-171.925	-186.348	-0.246	-0.003
-170.910	294.156	0.141	-0.251
-169.896	-200.000	-0.007	0.337
-168.881	-200.000	0.050	0.411
-167.866	32.016	0.120	-0.101
-166.852	-158.194	-0.216	0.012
-165.837	-64.853	0.117	0.046
-164.823	-200.000	-0.024	-0.124
-163.808	-83.130	0.234	0.074
-162.793	-200.000	-0.108	0.603
-161.779	800.000	0.119	0.378
-160.764	-52.048	-0.077	-0.035
-159.750	-6.819	-0.062	0.041
-158.735	-200.000	-0.003	-0.029
-157.720	12.916	0.111	-0.084
-156.706	1.110	-0.342	0.239
-155.691	505.166	0.154	0.348
-154.677	163.611	0.121	-0.166
-153.662	-68.145	-0.190	-0.072
-152.647	-4.140	0.216	-0.146
-151.633	-151.112	-0.244	0.018
-150.618	-169.710	-0.025	-0.001
-149.604	-147.741	-0.298	-0.024
-148.589	-187.487	0.272	-0.004
-147.574	76.154	-0.066	-0.068
-146.560	-31.959	-0.346	-0.189
-145.545	-90.079	0.369	0.105
-144.531	-39.896	-0.150	0.076
-143.516	-200.000	0.002	-0.127
-142.502	-24.934	0.102	-0.059
-141.487	253.793	-0.029	0.048
-140.472	-73.939	-0.090	-0.032
-139.458	-49.462	0.177	0.082
-138.443	-200.000	-0.013	0.213
-137.429	-125.512	0.196	-0.029
-136.414	-200.000	0.050	-0.288
-135.399	-197.275	-0.248	-0.002
-134.385	63.215	-0.108	0.105
-133.370	197.315	-0.145	0.215
-132.356	-144.802	0.146	0.013
-131.341	240.156	0.118	-0.192
-130.326	-64.226	0.204	0.081
-129.312	800.000	0.034	-0.145
-128.297	602.847	-0.040	-0.097
-127.283	-200.000	-0.028	-0.208
-126.268	-200.000	-0.018	0.093
-125.253	173.049	0.248	0.348
-124.239	115.552	0.085	-0.101
-123.224	71.184	0.186	0.188
-122.210	-29.923	0.260	0.144
-121.195	126.342	0.040	-0.050
-120.180	-30.621	0.363	-0.200
-119.166	-77.042	0.191	0.065
-118.151	-200.000	0.006	0.170
-117.137	-200.000	-0.010	-0.171
-116.122	800.000	0.146	0.449
-115.107	558.510	-0.171	-0.401
-114.093	-22.301	-0.400	-0.236
-113.078	-11.165	0.228	-0.146
-112.064	-17.327	0.066	-0.040
-111.049	800.000	0.075	0.212
-110.034	301.010	0.073	-0.130
-109.020	355.549	0.102	0.198
-108.005	668.172	0.120	-0.302
-106.991	800.000	0.055	0.165
-105.976	120.538	-0.056	-0.067
-104.962	151.134	0.125	0.166
-103.947	-200.000	0.009	0.080
-102.932	627.621	0.147	0.361
-101.918	204.845	-0.029	0.043
-100.903	-43.447	-0.123	0.060
-99.889	238.932	0.069	0.112
-98.874	-128.388	-0.321	0.044
-97.859	694.854	0.084	0.214
-96.845	90.272	0.147	0.160
-95.830	44.815	0.184	0.165
-94.816	800.000	-0.051	0.200
-93.801	800.000	-0.020	0.060
-92.786	231.599	0.102	0.162
-91.772	-45.177	0.082	-0.040
-90.757	16.596	0.396	0.304
-89.743	800.000	0.117	-0.316
-88.728	-200.000	0.016	-0.132
-87.713	-95.358	-0.381	0.100
-86.699	-200.000	0.143	0.660
-85.684	-115.545	0.255	0.047
-84.670	800.000	0.074	-0.278
-83.655	78.594	0.079	0.082
-82.640	-163.419	-0.216	-0.010
-81.626	-71.534	0.226	0.082
-80.611	800.000	-0.042	0.118
-79.597	-8.149	-0.182	-0.119
-78.582	-200.000	0.012	-0.105
-77.567	-163.423	-0.144	-0.007
-76.553	-200.000	-0.054	0.375
-75.538	183.446	-0.115	-0.165
-74.524	800.000	0.012	0.046
-73.509	-200.000	-0.033	-0.182
-72.494	-57.492	-0.255	0.109
-71.480	729.208	0.062	-0.162
-70.465	31.897	0.201	0.168
-69.451	18.898	-0.063	-0.049
-68.436	-58.701	-0.168	-0.071
-67.422	-49.591	0.301	-0.139
-66.407	-200.000	0.003	0.134
-65.392	-10.024	-0.073	-0.047
-64.378	-180.180	-0.157	0.003
-63.363	498.141	-0.026	-0.058
-62.349	-200.000	0.009	0.158
-61.334	51.643	-1.285	-1.188
-60.319	-43.913	0.987	0.482
-59.305	800.000	-0.513	-1.389
-58.290	445.887	0.703	1.501
-57.276	800.000	0.492	1.557
-56.261	-200.000	136.096	619.961
-55.246	340.976	1641.389	3114.630
-54.232	136.333	2790.825	3536.212
-53.217	76.415	2305.546	2373.294
-52.203	27.536	1908.533	1559.715
-51.188	21.925	1703.702	1349.254
-50.173	20.206	1666.588	1306.866
-49.159	41.070	1740.773	1527.231
-48.144	37.457	1749.441	1506.845
-47.130	21.467	1701.620	1343.870
-46.115	19.249	1686.180	1314.715
-45.100	19.097	1680.869	1309.373
-44.086	19.106	1677.732	1306.944
-43.071	19.010	1675.562	1304.468
-42.057	19.004	1673.257	1302.579
-41.042	19.024	1671.120	1301.016
-40.027	19.098	1669.182	1300.011
-39.013	19.007	1667.791	1298.193
-37.998	18.927	1666.464	1296.505
-36.984	19.088	1664.960	1296.494
-35.969	19.072	1663.784	1295.408
-34.954	19.092	1661.989	1294.108
-33.940	19.092	1660.144	1292.625
-32.925	19.079	1658.528	1291.217
-31.911	19.052	1656.861	1289.667
-30.896	19.023	1655.672	1288.468
-29.881	19.167	1653.264	1287.623
-28.867	19.103	1652.138	1286.216
-27.852	19.048	1651.037	1284.899
-26.838	19.084	1649.374	1283.817
-25.823	19.152	1647.666	1282.949
-24.809	19.190	1646.368	1282.165
-23.794	19.149	1644.610	1280.440
-22.779	19.225	1643.222	1279.874
-21.765	19.094	1642.453	1278.253
-20.750	19.148	1640.205	1276.855
-19.736	19.208	1639.351	1276.582
-18.721	19.232	1638.099	1275.731
-17.706	19.160	1636.419	1273.846
-16.692	19.154	1635.442	1272.986
-15.677	19.124	1633.851	1271.477
-14.663	19.155	1632.269	1270.424
-13.648	19.160	1630.537	1269.064
-12.633	19.240	1629.027	1268.427
-11.619	19.132	1627.754	1266.591
-10.604	19.154	1626.406	1265.649
-9.590	19.225	1624.682	1264.780
-8.575	19.175	1624.291	1264.061
-7.560	19.214	1622.444	1262.858
-6.546	19.193	1621.576	1261.977
-5.531	19.169	1620.574	1260.976
-4.517	19.120	1619.503	1259.730
-3.502	19.120	1618.621	1258.995
-2.487	19.294	1616.375	1258.470
-1.473	18.843	1604.222	1245.687
-0.458	16.078	1584.525	1210.520
0.556	11.637	1586.937	1181.090
1.571	9.499	1611.849	1183.822
2.586	9.558	1623.078	1192.403
3.600	9.008	1568.004	1147.907
4.615	5.102	1463.076	1044.879
5.629	1.208	1408.754	980.847
6.644	0.566	1402.283	972.124
7.659	0.556	1401.637	971.529
8.673	0.566	1400.687	970.847
9.688	0.512	1397.546	968.235
10.702	0.358	1394.231	964.871
11.717	2.309	1395.906	978.436
12.731	7.975	1404.188	1020.542
13.746	14.203	1413.961	1067.627
14.761	16.907	1417.778	1087.783
15.775	16.425	1416.746	1083.809
16.790	15.513	1413.938	1075.722
17.804	14.802	1411.386	1069.136
18.819	14.335	1410.398	1065.308
19.834	14.118	1409.111	1062.856
20.848	13.984	1407.853	1060.954
21.863	13.753	1405.950	1057.956
22.877	13.570	1404.847	1055.869
23.892	13.502	1403.755	1054.518
24.907	13.484	1403.301	1053.970
25.921	13.475	1402.254	1053.033
26.936	13.636	1401.055	1053.063
27.950	13.672	1399.821	1052.272
28.965	13.701	1399.123	1051.840
29.980	13.671	1398.483	1051.073
30.994	13.800	1396.893	1050.603
32.009	13.836	1395.887	1049.982
33.023	13.832	1395.285	1049.409
34.038	13.790	1394.146	1048.194
35.053	13.696	1392.975	1046.630
36.067	13.632	1391.583	1045.086
37.082	13.693	1391.149	1045.055
38.096	13.708	1389.980	1044.177
39.111	13.640	1389.466	1043.267
40.126	13.676	1388.575	1042.736
41.140	13.580	1388.051	1041.642
42.155	13.501	1387.249	1040.452
43.169	13.550	1387.402	1040.782
44.184	13.535	1386.709	1040.081
45.199	13.454	1386.464	1039.295
46.213	13.531	1385.986	1039.325
47.228	13.646	1384.644	1038.951
48.242	13.634	1383.346	1037.807
49.257	13.609	1382.067	1036.602
50.271	13.573	1380.668	1035.237
51.286	13.668	1378.990	1034.479
52.301	13.576	1378.478	1033.427
53.315	13.662	1377.199	1032.913
54.330	13.602	1376.288	1031.763
55.344	13.538	1374.707	1030.091
56.359	13.635	1373.587	1029.761
57.374	13.480	1373.109	1028.351
58.388	13.450	1372.231	1027.418
59.403	13.534	1371.264	1027.122
60.417	13.518	1370.739	1026.542
61.432	13.401	1370.345	1025.429
62.447	13.471	1368.900	1024.689
63.461	13.410	1367.957	1023.519
64.476	13.481	1366.624	1022.865
65.490	13.483	1365.296	1021.792
66.505	13.470	1363.489	1020.274
67.520	13.495	1362.636	1019.699
68.534	13.513	1361.505	1018.873
69.549	13.513	1360.271	1017.856
70.563	13.473	1359.589	1017.010
71.578	13.382	1358.481	1015.532
72.593	13.433	1357.385	1014.940
73.607	13.329	1356.560	1013.595
74.622	13.368	1355.914	1013.260
75.636	13.459	1355.039	1013.074
76.651	13.397	1354.072	1011.881
77.666	13.447	1353.626	1011.767
78.680	13.468	1353.108	1011.414
79.695	13.463	1352.183	1010.606
80.709	13.461	1351.429	1009.939
81.724	13.544	1350.340	1009.541
82.739	13.471	1349.337	1008.258
83.753	13.570	1348.741	1008.327
84.768	13.633	1347.110	1007.404
85.782	13.657	1345.773	1006.460
86.797	13.633	1344.693	1005.416
87.812	13.560	1343.517	1004.004
88.826	13.615	1341.911	1003.049
89.841	13.543	1340.924	1001.789
90.855	13.583	1340.198	1001.398
91.870	13.597	1339.383	1000.786
92.884	13.589	1338.522	1000.006
93.899	13.656	1337.509	999.563
94.914	13.728	1336.683	999.292
95.928	13.762	1335.922	998.842
96.943	13.639	1335.151	997.436
97.957	13.709	1333.964	996.881
98.972	13.664	1333.137	995.903
99.987	13.578	1331.753	994.265
101.001	13.757	1330.468	994.291
102.016	13.758	1329.506	993.493
103.030	13.741	1328.828	992.794
104.045	13.706	1328.065	991.927
105.060	13.646	1327.093	990.754
106.074	13.617	1325.254	989.118
107.089	13.597	1324.104	988.058
108.103	13.522	1322.870	986.602
109.118	13.477	1321.634	985.321
110.133	13.482	1320.365	984.317
111.147	13.607	1318.288	983.425
112.162	13.501	1317.442	982.078
113.176	13.627	1316.219	981.830
114.191	13.623	1315.586	981.245
115.206	13.770	1313.839	980.723
116.220	13.717	1312.724	979.493
117.235	13.635	1311.862	978.275
118.249	13.593	1311.050	977.340
119.264	13.664	1309.382	976.427
120.279	13.579	1308.568	975.231
121.293	13.511	1307.503	973.953
122.308	13.572	1306.093	973.174
123.322	13.584	1305.239	972.524
124.337	13.531	1304.236	971.381
125.352	13.503	1302.853	970.096
126.366	13.590	1301.761	969.709
127.381	13.501	1300.991	968.532
128.395	13.517	1299.731	967.597
129.410	13.559	1298.244	966.651
130.424	13.649	1297.601	966.611
131.439	13.637	1296.253	965.453
132.454	13.583	1295.677	964.626
133.468	13.579	1294.697	963.786
134.483	13.600	1293.759	963.121
135.497	13.579	1293.114	962.434
136.512	13.639	1291.392	961.418
137.527	13.670	1290.182	960.612
138.541	13.610	1288.910	959.231
139.556	13.587	1287.289	957.808
140.570	13.698	1286.226	957.575
141.585	13.662	1285.451	956.704
142.600	13.749	1283.815	955.901
143.614	13.832	1282.862	955.585
144.629	13.828	1281.946	954.795
145.643	13.842	1280.933	954.039
146.658	13.777	1279.549	952.548
147.673	13.684	1278.265	950.976
148.687	13.663	1277.763	950.398
149.702	13.740	1275.410	949.007
150.716	13.782	1274.301	948.336
151.731	13.717	1273.313	947.148
152.746	13.837	1272.076	946.826
153.760	13.808	1271.079	945.835
154.775	13.920	1269.993	945.581
155.789	13.853	1268.807	944.234
156.804	13.867	1267.794	943.476
157.819	13.900	1266.828	942.860
158.833	13.950	1265.620	942.160
159.848	13.998	1264.950	941.851
160.862	13.987	1263.318	940.490
161.877	13.937	1262.797	939.735
162.892	13.895	1261.017	938.090
163.906	13.851	1261.187	937.885
164.921	13.859	1259.896	936.888
165.935	13.870	1258.935	936.156
166.950	13.923	1258.208	935.831
167.964	13.984	1257.315	935.423
168.979	13.856	1256.828	934.258
169.994	13.961	1256.063	934.200
171.008	14.048	1254.924	933.757
172.023	14.088	1253.758	933.033
173.037	14.104	1253.344	932.729
174.052	14.075	1252.483	931.844
175.067	14.101	1251.380	931.088
176.081	14.029	1250.117	929.662
177.096	13.987	1249.458	928.858
178.110	14.054	1247.964	928.038
179.125	14.089	1246.861	927.328
180.140	13.990	1245.950	926.018
181.154	14.105	1244.631	925.597
182.169	14.121	1243.319	924.628
183.183	14.197	1242.266	924.184
184.198	14.193	1241.159	923.256
185.213	14.265	1239.859	922.610
186.227	14.104	1238.828	920.868
187.242	14.239	1237.753	920.735
188.256	14.271	1236.669	920.021
189.271	14.207	1236.077	919.147
190.286	14.224	1234.470	917.963
191.300	14.192	1233.661	917.108
192.315	14.164	1232.991	916.374
193.329	14.191	1232.368	915.978
194.344	14.144	1231.883	915.274
195.359	14.227	1231.201	915.149
196.373	14.245	1230.693	914.787
197.388	14.310	1230.287	914.763
198.402	14.314	1229.724	914.284
199.417	14.250	1229.570	913.736
200.432	14.373	1228.277	913.371
201.446	14.449	1227.002	912.757
202.461	14.429	1226.141	911.927
203.475	14.532	1225.431	911.878
204.490	14.413	1224.434	910.406
205.504	14.401	1223.258	909.387
206.519	14.446	1221.846	908.501
207.534	14.473	1220.640	907.673
208.548	14.459	1219.923	906.984
209.563	14.507	1218.757	906.296
210.577	14.500	1218.143	905.723
211.592	14.541	1216.971	904.989
212.607	14.572	1216.430	904.676
213.621	14.536	1215.672	903.839
214.636	14.470	1214.873	902.807
215.650	14.772	1213.409	903.270
216.665	14.610	1212.506	901.644
217.680	14.698	1211.562	901.339
218.694	14.749	1211.105	901.197
219.709	14.697	1209.919	899.952
220.723	14.796	1209.001	899.724
221.738	14.764	1208.305	898.955
222.753	14.706	1208.062	898.382
223.767	14.682	1207.167	897.508
224.782	14.822	1206.174	897.440
225.796	14.679	1206.358	896.730
226.811	14.722	1204.996	895.870
227.826	14.701	1204.541	895.336
228.840	14.795	1203.184	894.756
229.855	14.877	1202.654	894.718
230.869	14.767	1202.185	893.704
231.884	14.949	1200.718	893.505
232.899	14.750	1200.521	892.218
233.913	14.847	1199.519	891.913
234.928	14.726	1198.825	890.670
235.942	14.753	1198.309	890.352
236.957	14.796	1197.411	889.833
237.972	14.829	1196.507	889.263
238.986	14.816	1195.970	888.716
240.001	14.877	1195.084	888.303
241.015	14.844	1194.387	887.531
242.030	14.947	1193.561	887.384
243.045	14.988	1192.741	886.913
244.059	14.985	1191.863	886.163
245.074	14.945	1191.334	885.482
246.088	14.927	1190.375	884.596
247.103	14.941	1189.860	884.209
248.117	15.055	1189.074	884.147
249.132	15.145	1188.379	884.026
250.147	15.130	1187.717	883.378
251.161	15.115	1186.781	882.524
252.176	15.105	1186.333	882.060
253.190	15.136	1185.585	881.592
254.205	15.172	1185.086	881.328
255.220	15.409	1183.910	881.625
256.234	15.243	1183.322	880.234
257.249	15.217	1182.869	879.685
258.263	15.316	1181.723	879.275
259.278	15.364	1181.551	879.320
260.293	15.369	1180.796	878.703
261.307	15.407	1179.780	878.069
262.322	15.432	1179.741	878.093
263.336	15.455	1178.836	877.461
264.351	15.382	1178.427	876.700
265.366	15.521	1177.084	876.348
266.380	15.455	1176.927	875.812
267.395	15.538	1175.450	875.069
268.409	15.510	1175.132	874.607
269.424	15.485	1174.955	874.267
270.439	15.550	1173.978	873.801
271.453	15.480	1173.169	872.755
272.468	15.505	1172.619	872.403
273.482	15.489	1171.773	871.609
274.497	15.548	1171.507	871.644
275.512	15.582	1170.194	870.764
276.526	15.540	1169.293	869.800
277.541	15.554	1169.001	869.580
278.555	15.579	1168.179	869.017
279.570	15.537	1167.567	868.268
280.585	15.540	1166.840	867.666
281.599	15.727	1165.459	867.530
282.614	15.730	1164.239	866.558
283.628	15.696	1163.410	865.692
284.643	15.692	1162.956	865.253
285.657	15.745	1161.622	864.458
286.672	15.758	1160.632	863.714
287.687	15.778	1159.495	862.893
288.701	15.788	1158.997	862.498
289.716	15.794	1158.223	861.872
290.730	15.832	1157.567	861.505
291.745	15.738	1157.017	860.540
292.760	15.763	1156.235	860.009
293.774	15.906	1155.489	860.107
294.789	15.900	1154.866	859.538
295.803	15.918	1154.234	859.081
296.818	15.859	1153.485	858.147
297.833	15.935	1152.929	858.049
298.847	15.874	1152.303	857.194
299.862	15.901	1151.369	856.563
300.876	15.899	1150.789	856.041
301.891	15.968	1150.207	855.886
302.906	16.090	1149.340	855.786
303.920	16.046	1148.961	855.204
304.935	15.981	1148.089	854.147
305.949	16.085	1146.977	853.775
306.964	16.154	1146.334	853.566
307.979	16.077	1145.981	852.837
308.993	16.079	1145.126	852.137
310.008	16.208	1144.051	851.915
311.022	16.179	1143.654	851.397
312.037	16.065	1142.570	849.940
313.052	16.229	1141.452	849.859
314.066	16.244	1140.271	848.979
315.081	16.045	1140.277	847.908
316.095	16.147	1138.975	847.375
317.110	16.123	1138.819	847.064
318.125	16.083	1137.707	845.963
319.139	16.168	1136.966	845.761
320.154	16.147	1136.657	845.355
321.168	16.197	1135.930	844.986
322.183	16.323	1134.909	844.782
323.197	16.129	1134.675	843.567
324.212	16.161	1133.908	843.078
325.227	16.248	1133.364	843.035
326.241	16.233	1132.610	842.324
327.256	16.359	1131.669	842.177
328.270	16.296	1130.671	841.045
329.285	16.252	1129.915	840.190
330.300	16.310	1128.787	839.567
331.314	16.296	1127.814	838.700
332.329	16.301	1126.975	838.027
333.343	16.376	1125.672	837.357
334.358	16.386	1124.915	836.765
335.373	16.292	1124.765	836.116
336.387	16.356	1123.645	835.525
337.402	16.438	1122.827	835.247
338.416	16.482	1122.135	834.879
339.431	16.444	1121.523	834.162
340.446	16.617	1120.618	834.265
341.460	16.550	1120.252	833.591
342.475	16.660	1119.257	833.320
343.489	16.590	1118.414	832.271
344.504	16.630	1117.127	831.439
345.519	16.532	1116.811	830.646
346.533	16.655	1115.931	830.522
347.548	16.776	1114.839	830.231
348.562	16.828	1113.812	829.647
349.577	16.594	1113.811	828.428
350.592	16.659	1113.198	828.217
351.606	16.708	1112.235	827.667
352.621	16.526	1111.687	826.296
353.635	16.745	1110.695	826.556
354.650	16.562	1110.517	825.454
355.665	16.595	1109.410	824.718
356.679	16.679	1109.048	824.787
357.694	16.779	1108.533	824.817
358.708	16.799	1107.200	823.852
359.723	16.771	1106.602	823.195
360.738	16.696	1106.370	822.586
361.752	16.767	1105.767	822.412
362.767	16.814	1105.139	822.098
363.781	16.885	1104.526	821.916
364.796	16.979	1103.655	821.648
365.810	16.822	1103.187	820.466
366.825	16.995	1102.317	820.584
367.840	16.983	1101.937	820.174
368.854	17.068	1101.130	819.907
369.869	17.099	1100.403	819.446
370.883	17.030	1099.671	818.492
371.898	17.001	1098.741	817.590
372.913	16.927	1098.180	816.743
373.927	17.129	1097.631	817.235
374.942	17.081	1097.241	816.643
375.956	17.100	1096.440	816.066
376.971	17.165	1096.201	816.127
377.986	17.114	1095.441	815.241
379.000	17.239	1094.862	815.341
380.015	17.224	1094.449	814.890
381.029	17.099	1093.911	813.818
382.044	17.247	1093.293	813.995
383.059	17.101	1092.771	812.835
384.073	17.317	1091.447	812.811
385.088	17.259	1090.280	811.595
386.102	17.327	1089.283	811.101
387.117	17.271	1088.569	810.231
388.132	17.220	1087.635	809.223
389.146	17.370	1086.997	809.390
390.161	17.226	1086.466	808.240
391.175	17.329	1085.168	807.690
392.190	17.348	1084.887	807.501
393.205	17.273	1084.038	806.443
394.219	17.278	1083.290	805.836
395.234	17.367	1082.639	805.703
396.248	17.361	1081.445	804.715
397.263	17.436	1080.143	804.028
398.278	17.475	1079.402	803.589
399.292	17.352	1079.019	802.652
400.307	17.253	1078.722	801.893
401.321	17.377	1077.516	801.514
402.336	17.489	1076.950	801.548
403.350	17.424	1076.200	800.613
404.365	17.545	1075.262	800.415
405.380	17.430	1074.682	799.367
406.394	17.483	1074.141	799.146
407.409	17.560	1073.308	798.816
408.423	17.627	1072.319	798.321
409.438	17.607	1071.546	797.583
410.453	17.713	1071.034	797.627
411.467	17.639	1070.337	796.690
412.482	17.608	1069.689	795.992
413.496	17.646	1068.760	795.410
414.511	17.812	1068.294	795.765
415.526	17.763	1068.158	795.369
416.540	17.787	1067.431	794.869
417.555	17.802	1066.539	794.203
418.569	17.811	1066.341	794.028
419.584	17.845	1065.871	793.764
420.599	17.893	1065.495	793.635
421.613	109.489	1332.737	1492.886
422.628	101.233	1371.594	1492.967
