DTS Sentinel unit serial number:	SN413079Multiplexer serial number:	ORYXHardware model number:	OX4-SRSoftware version number:	ORYX F/W v4.00 Oryx Data Collector v3.7.2.0data status	okinstallation	princeton_trtdifferential loss correction	single-endedforward channel	channel 2reverse channel	N/Adate	2019/09/13time	09:07:35forward acquisition time	60.00reverse acquisition time	0.00gamma	496.2192k internal	0.2330k external	0.2330temperature offset calibration	1.0196default loss term (dB/km)	0.3790temperature slope calibration	1.0000multiplexer offset coefficient	1.0000multiplexer slope coefficient	1.0000fibre end	0.00T internal ref (°C)	28.69T ext. ref 1 (°C)	4.36T ext. ref 2 (°C)	26.12length (m)	temperature (°C)	Stokes	anti-Stokes-747.200	34.600	0.148	-0.130
-746.185	-17.481	0.354	0.224
-745.171	-200.000	-0.006	0.157
-744.156	319.388	-0.120	0.229
-743.142	-83.236	-0.219	-0.071
-742.127	125.181	-0.099	0.126
-741.112	45.650	-0.251	0.233
-740.098	-200.000	-0.025	0.182
-739.083	50.693	0.063	-0.060
-738.069	393.898	0.138	0.289
-737.054	-200.000	0.065	0.431
-736.039	-91.571	-0.489	-0.140
-735.025	-114.749	-0.109	-0.021
-734.010	123.370	0.089	0.113
-732.996	-68.648	-0.319	0.124
-731.981	-140.456	0.300	-0.031
-730.966	-192.555	0.152	-0.001
-729.952	409.628	-0.128	-0.272
-728.937	217.995	-0.277	0.444
-727.923	405.719	0.039	-0.083
-726.908	26.631	0.006	0.005
-725.894	318.455	0.031	-0.059
-724.879	800.000	0.020	0.077
-723.864	-47.644	-0.134	-0.066
-722.850	97.293	-0.073	-0.084
-721.835	649.288	-0.019	-0.049
-720.821	30.870	-0.181	0.156
-719.806	-16.313	-0.087	0.056
-718.791	-111.183	-0.199	-0.041
-717.777	28.797	0.280	-0.239
-716.762	120.226	-0.118	0.147
-715.748	-30.748	0.166	-0.095
-714.733	263.784	-0.182	-0.318
-713.718	800.000	-0.062	0.224
-712.704	-8.264	-0.073	-0.049
-711.689	-89.820	-0.315	0.093
-710.675	800.000	0.041	0.122
-709.660	-20.225	-0.051	0.032
-708.645	800.000	-0.067	-0.197
-707.631	-92.318	-0.040	-0.011
-706.616	43.681	0.180	0.166
-705.602	-133.811	-0.099	-0.012
-704.587	-45.199	-0.089	0.045
-703.572	722.334	0.077	-0.207
-702.558	94.980	-0.110	-0.126
-701.543	-38.970	0.239	0.126
-700.529	-200.000	-0.008	-0.062
-699.514	800.000	-0.047	0.167
-698.499	-86.622	-0.295	-0.091
-697.485	-65.501	0.334	0.135
-696.470	246.883	0.134	-0.227
-695.456	800.000	-0.046	-0.145
-694.441	58.946	0.193	0.191
-693.426	-60.049	0.202	0.087
-692.412	102.838	-0.178	0.210
-691.397	360.421	0.119	0.239
-690.383	-151.905	0.255	0.019
-689.368	-48.001	0.167	0.081
-688.354	678.240	0.082	-0.214
-687.339	132.414	-0.167	-0.216
-686.324	142.408	-0.097	0.129
-685.310	88.844	0.099	-0.110
-684.295	-91.668	0.568	-0.162
-683.281	95.912	0.179	-0.206
-682.266	-200.000	-0.015	0.141
-681.251	-44.202	-0.168	-0.085
-680.237	44.641	0.087	-0.081
-679.222	-117.896	0.190	-0.034
-678.208	158.290	-0.103	-0.143
-677.193	-45.512	-0.307	-0.152
-676.178	-0.896	-0.363	-0.258
-675.164	221.197	0.164	0.265
-674.149	-63.550	0.155	-0.064
-673.135	669.026	0.158	0.411
-672.120	-62.897	-0.172	0.072
-671.105	-133.528	-0.229	-0.029
-670.091	113.135	0.034	0.041
-669.076	606.552	0.029	0.072
-668.062	800.000	-0.077	-0.255
-667.047	-160.833	-0.406	-0.022
-666.032	105.278	-0.107	-0.127
-665.018	-189.735	-0.409	0.005
-664.003	800.000	0.116	0.330
-662.989	204.950	0.074	-0.115
-661.974	-97.827	-0.051	-0.013
-660.959	-200.000	0.025	-0.166
-659.945	-200.000	0.053	-0.241
-658.930	-64.162	-0.437	-0.179
-657.916	134.302	0.130	-0.169
-656.901	-93.234	-0.213	0.059
-655.886	-143.369	0.256	-0.025
-654.872	-13.345	-0.092	-0.060
-653.857	-74.784	0.286	-0.103
-652.843	-200.000	-0.018	-0.113
-651.828	-78.893	-0.232	-0.079
-650.814	-200.000	0.038	-0.269
-649.799	563.392	-0.042	0.101
-648.784	-56.526	0.121	0.054
-647.770	800.000	0.040	0.116
-646.755	-200.000	0.003	-0.081
-645.741	-104.549	-0.171	-0.040
-644.726	-17.173	0.287	0.181
-643.711	186.868	-0.083	0.124
-642.697	-76.951	0.122	0.043
-641.682	800.000	-0.038	-0.113
-640.668	-200.000	0.080	-0.380
-639.653	484.686	-0.258	-0.589
-638.638	-133.973	-0.345	-0.043
-637.624	-164.441	-0.381	-0.017
-636.609	66.654	-0.079	0.081
-635.595	-22.683	0.096	0.058
-634.580	-200.000	-0.020	0.327
-633.565	89.193	0.290	-0.324
-632.551	-200.000	-0.005	-0.242
-631.536	-200.000	0.043	-0.227
-630.522	105.544	-0.166	-0.196
-629.507	-200.000	-0.018	-0.118
-628.492	-128.583	0.437	-0.062
-627.478	261.142	-0.154	-0.267
-626.463	274.390	-0.132	0.235
-625.449	-200.000	0.002	-0.033
-624.434	-139.249	-0.140	0.015
-623.419	-200.000	0.011	0.124
-622.405	-158.808	0.310	0.018
-621.390	282.138	-0.161	0.289
-620.376	-63.602	0.117	-0.048
-619.361	196.362	0.174	0.266
-618.346	800.000	-0.114	0.356
-617.332	800.000	-0.089	-0.358
-616.317	-129.289	0.027	0.004
-615.303	613.764	-0.109	0.275
-614.288	289.522	-0.101	0.183
-613.273	-72.011	-0.073	-0.027
-612.259	-154.359	0.426	-0.029
-611.244	94.854	0.129	0.147
-610.230	800.000	-0.055	0.164
-609.215	-103.601	0.147	0.035
-608.201	80.751	0.116	-0.125
-607.186	354.779	0.096	-0.192
-606.171	421.354	-0.088	0.189
-605.157	11.608	0.243	-0.187
-604.142	-29.061	-0.120	0.069
-603.128	248.465	0.191	-0.324
-602.113	311.329	-0.078	0.146
-601.098	575.334	0.147	0.359
-600.084	-61.051	-0.581	0.246
-599.069	-104.425	-0.174	0.040
-598.055	667.528	0.105	0.273
-597.040	-131.832	0.298	-0.039
-596.025	121.603	0.012	0.015
-595.011	-200.000	-0.049	-0.233
-593.996	-128.833	0.221	-0.031
-592.982	800.000	-0.023	0.081
-591.967	-110.452	-0.067	0.014
-590.952	-140.190	-0.129	-0.014
-589.938	383.131	-0.098	0.201
-588.923	2.570	-0.357	0.259
-587.909	-168.545	-0.188	-0.007
-586.894	-200.000	0.078	0.394
-585.879	-200.000	-0.024	0.173
-584.865	-79.004	-0.053	-0.018
-583.850	-94.637	0.136	-0.037
-582.836	-200.000	-0.000	0.169
-581.821	-200.000	0.043	-0.348
-580.806	-20.642	0.110	0.067
-579.792	-29.068	-0.176	-0.101
-578.777	438.029	0.067	0.146
-577.763	-200.000	0.001	0.038
-576.748	800.000	-0.050	-0.215
-575.733	400.480	-0.138	0.291
-574.719	316.444	-0.040	-0.076
-573.704	317.516	0.219	0.414
-572.690	800.000	0.064	-0.233
-571.675	434.067	-0.140	-0.303
-570.661	13.984	-0.151	-0.118
-569.646	303.292	-0.048	-0.089
-568.631	-200.000	0.059	0.311
-567.617	-60.081	0.362	0.155
-566.602	35.719	-0.110	0.097
-565.588	-151.053	-0.204	-0.015
-564.573	143.100	-0.138	0.184
-563.558	-200.000	-0.032	0.173
-562.544	176.079	-0.037	0.054
-561.529	-200.000	-0.022	0.463
-560.515	-73.735	-0.282	0.103
-559.500	-161.950	-0.206	-0.010
-558.485	-127.529	0.177	-0.026
-557.471	316.450	0.049	-0.092
-556.456	800.000	0.109	-0.330
-555.442	-200.000	-0.014	-0.460
-554.427	220.056	-0.119	-0.190
-553.412	-200.000	0.007	0.199
-552.398	-81.975	-0.205	-0.067
-551.383	252.220	-0.133	-0.226
-550.369	-106.826	-0.208	-0.046
-549.354	418.473	0.035	0.075
-548.339	-109.798	0.142	0.030
-547.325	190.716	0.039	0.059
-546.310	-200.000	-0.026	0.127
-545.296	-70.046	0.260	0.099
-544.281	95.030	-0.121	0.138
-543.266	800.000	0.045	-0.183
-542.252	-148.916	0.238	0.019
-541.237	29.931	0.034	-0.029
-540.223	-200.000	0.004	0.062
-539.208	-176.290	-0.235	-0.006
-538.193	-12.784	0.377	0.245
-537.179	-200.000	-0.017	0.108
-536.164	136.938	0.142	0.185
-535.150	95.435	-0.070	0.080
-534.135	36.362	0.235	0.207
-533.121	99.211	-0.089	-0.103
-532.106	-169.982	-0.018	0.001
-531.091	-200.000	-0.003	-0.033
-530.077	-200.000	-0.019	0.142
-529.062	128.181	0.212	-0.270
-528.048	-108.288	-0.501	-0.108
-527.033	12.559	-0.198	-0.152
-526.018	-78.659	-0.291	0.099
-525.004	-200.000	0.005	-0.079
-523.989	800.000	0.064	0.240
-522.975	-200.000	0.026	0.225
-521.960	800.000	-0.153	-0.558
-520.945	800.000	0.044	0.122
-519.931	-200.000	-0.007	-0.108
-518.916	-181.792	0.460	-0.009
-517.902	-62.087	-0.366	0.153
-516.887	800.000	-0.118	-0.351
-515.872	147.560	0.079	0.106
-514.858	-39.314	-0.036	0.019
-513.843	800.000	0.069	-0.262
-512.829	-44.746	0.207	0.103
-511.814	-200.000	-0.031	0.221
-510.799	-166.296	0.234	-0.010
-509.785	800.000	-0.105	-0.368
-508.770	-101.056	-0.165	0.040
-507.756	-43.801	0.209	-0.105
-506.741	345.163	-0.259	0.507
-505.726	15.609	-0.209	0.164
-504.712	-56.278	-0.305	-0.135
-503.697	-130.051	-0.391	0.053
-502.683	13.872	-0.342	-0.265
-501.668	800.000	0.018	0.053
-500.653	264.973	0.199	0.346
-499.639	800.000	-0.010	0.037
-498.624	302.683	0.050	0.091
-497.610	21.943	-0.031	-0.025
-496.595	167.265	0.103	-0.146
-495.581	-200.000	0.048	-0.300
-494.566	-52.645	-0.237	0.109
-493.551	800.000	0.018	-0.067
-492.537	785.046	-0.051	0.139
-491.522	55.858	-0.107	0.103
-490.508	-66.870	0.255	0.101
-489.493	123.286	-0.086	-0.108
-488.478	-200.000	-0.019	0.085
-487.464	-41.704	0.332	0.170
-486.449	95.744	0.163	0.186
-485.435	-134.122	0.149	0.018
-484.420	784.725	0.122	-0.333
-483.405	-62.338	0.274	-0.114
-482.391	67.017	-0.119	-0.121
-481.376	116.180	0.173	-0.211
-480.362	223.924	-0.122	0.196
-479.347	800.000	-0.056	-0.203
-478.332	111.111	0.210	-0.252
-477.318	-200.000	0.014	-0.150
-476.303	340.923	-0.043	-0.083
-475.289	292.029	0.035	-0.063
-474.274	-22.106	0.340	0.205
-473.259	426.293	-0.071	0.153
-472.245	-200.000	0.008	0.242
-471.230	496.179	-0.038	0.087
-470.216	30.748	0.088	-0.075
-469.201	-200.000	-0.002	-0.075
-468.186	-20.501	-0.094	-0.057
-467.172	718.873	0.045	-0.120
-466.157	-98.256	-0.146	-0.037
-465.143	40.685	0.160	0.144
-464.128	139.653	0.042	0.055
-463.113	-135.630	-0.176	0.021
-462.099	49.513	-0.212	-0.199
-461.084	-186.820	0.273	-0.004
-460.070	76.805	-0.265	-0.280
-459.055	604.625	-0.048	-0.119
-458.040	6.888	-0.105	-0.078
-457.026	-200.000	-0.181	-0.001
-456.011	-42.616	-0.101	0.051
-454.997	126.523	-0.020	-0.025
-453.982	-41.988	-0.056	0.028
-452.968	-125.371	-0.265	0.040
-451.953	-105.230	-0.047	0.011
-450.938	6.560	-0.175	0.130
-449.924	49.200	0.117	-0.109
-448.909	800.000	0.059	-0.182
-447.895	-200.000	0.037	0.389
-446.880	515.061	0.050	-0.116
-445.865	-38.317	-0.116	0.061
-444.851	-77.618	-0.100	0.034
-443.836	-200.000	0.009	-0.054
-442.822	-145.341	-0.356	-0.032
-441.807	57.772	0.049	-0.047
-440.792	577.067	0.103	-0.251
-439.778	-16.692	-0.375	0.236
-438.763	-200.000	0.035	0.162
-437.749	-86.347	-0.167	0.051
-436.734	-20.481	0.117	-0.072
-435.719	-86.174	0.231	0.071
-434.705	-148.555	-0.266	-0.022
-433.690	-161.259	0.187	-0.010
-432.676	152.759	0.162	0.220
-431.661	-36.053	0.204	0.110
-430.646	6.871	0.228	-0.169
-429.632	-142.388	-0.113	0.011
-428.617	-106.959	-0.192	0.042
-427.603	301.657	0.112	-0.207
-426.588	-200.000	-0.060	-0.664
-425.573	-149.303	-0.115	0.009
-424.559	183.724	-0.048	-0.070
-423.544	-200.000	-0.043	0.194
-422.530	322.919	-0.063	0.119
-421.515	-36.120	0.333	0.179
-420.500	-60.224	-0.142	-0.060
-419.486	-151.014	-0.244	-0.018
-418.471	-96.348	-0.257	-0.068
-417.457	411.746	-0.130	-0.275
-416.442	638.570	-0.049	0.123
-415.428	-17.153	0.203	-0.127
-414.413	77.188	-0.220	0.233
-413.398	226.748	-0.160	-0.259
-412.384	-45.303	-0.225	-0.111
-411.369	614.797	0.101	0.253
-410.355	-200.000	0.067	-0.428
-409.340	226.154	0.114	0.184
-408.325	800.000	-0.039	0.130
-407.311	578.735	0.065	-0.158
-406.296	67.175	0.076	0.077
-405.282	729.812	0.027	-0.072
-404.267	-66.791	-0.357	-0.141
-403.252	423.400	0.114	-0.244
-402.238	-200.000	0.121	0.000
-401.223	-102.754	-0.284	0.067
-400.209	-60.223	0.250	-0.106
-399.194	-128.717	0.114	0.016
-398.179	216.490	0.234	0.369
-397.165	66.767	-0.104	0.105
-396.150	47.591	0.111	-0.103
-395.136	-167.138	0.255	-0.010
-394.121	800.000	0.083	0.340
-393.106	800.000	0.091	0.282
-392.092	-34.853	0.226	0.123
-391.077	-200.000	-0.002	0.086
-390.063	-200.000	0.022	0.173
-389.048	-62.342	-0.137	-0.057
-388.033	-200.000	0.013	-0.152
-387.019	-96.874	-0.086	0.022
-386.004	-10.066	0.176	-0.116
-384.990	-200.000	0.002	-0.142
-383.975	59.445	-0.254	-0.248
-382.960	66.679	0.083	0.083
-381.946	-189.645	-0.369	0.004
-380.931	-200.000	-0.025	-0.229
-379.917	800.000	0.157	0.523
-378.902	2.128	-0.053	0.038
-377.888	-172.972	-0.132	0.004
-376.873	-59.984	0.444	0.188
-375.858	377.268	0.118	-0.240
-374.844	-122.558	-0.279	-0.045
-373.829	-200.000	0.016	0.271
-372.815	-200.000	0.065	0.336
-371.800	-101.129	0.249	-0.060
-370.785	-0.486	-0.258	-0.182
-369.771	-49.023	-0.201	0.095
-368.756	-172.700	0.278	-0.009
-367.742	41.868	-0.228	0.205
-366.727	416.963	-0.052	-0.110
-365.712	153.294	0.251	0.341
-364.698	-18.765	-0.318	-0.197
-363.683	-30.204	0.238	0.134
-362.669	800.000	-0.023	0.068
-361.654	-200.000	0.000	-0.158
-360.639	-63.893	-0.476	0.193
-359.625	180.522	0.149	-0.216
-358.610	800.000	0.047	0.156
-357.596	225.653	-0.287	-0.461
-356.581	15.283	-0.090	-0.070
-355.566	18.847	0.207	0.165
-354.552	-55.383	0.318	-0.141
-353.537	142.460	0.311	-0.409
-352.523	4.015	0.247	0.179
-351.508	-49.202	0.227	0.107
-350.493	523.812	-0.076	-0.177
-349.479	-81.318	-0.409	-0.134
-348.464	120.446	0.182	0.225
-347.450	74.944	0.157	0.164
-346.435	240.095	-0.090	0.148
-345.420	261.539	0.061	-0.105
-344.406	35.420	-0.188	0.164
-343.391	-113.334	0.065	-0.013
-342.377	-200.000	0.038	0.289
-341.362	-200.000	-0.007	0.184
-340.348	-200.000	-0.028	0.163
-339.333	-200.000	0.005	0.072
-338.318	-200.000	-0.361	0.000
-337.304	6.963	-0.034	-0.025
-336.289	-31.123	-0.347	0.194
-335.275	-15.671	-0.098	-0.062
-334.260	-200.000	-0.039	-0.357
-333.245	42.915	0.209	-0.188
-332.231	800.000	-0.086	-0.271
-331.216	52.014	-0.063	-0.059
-330.202	-200.000	-0.002	0.228
-329.187	-37.789	0.219	0.115
-328.172	55.451	-0.150	-0.144
-327.158	-200.000	-0.024	0.198
-326.143	-71.763	0.180	0.066
-325.129	-98.397	-0.093	0.023
-324.114	-17.304	0.290	-0.181
-323.099	250.123	0.189	0.318
-322.085	800.000	0.044	0.136
-321.070	-18.578	0.085	-0.052
-320.056	-28.656	0.168	-0.096
-319.041	800.000	0.016	0.054
-318.026	800.000	-0.114	0.368
-317.012	-69.975	0.162	0.061
-315.997	-20.464	0.236	-0.144
-314.983	30.785	0.156	-0.132
-313.968	-200.000	0.021	-0.157
-312.953	-108.912	-0.131	0.028
-311.939	800.000	0.022	-0.081
-310.924	-157.228	0.034	-0.002
-309.910	460.378	0.106	-0.233
-308.895	800.000	-0.048	-0.162
-307.880	57.671	-0.155	-0.150
-306.866	-35.082	0.179	-0.097
-305.851	-200.000	0.011	-0.146
-304.837	-200.000	0.001	-0.337
-303.822	-200.000	-0.015	-0.080
-302.807	800.000	0.056	0.180
-301.793	-200.000	0.028	-0.231
-300.778	-60.963	0.295	0.123
-299.764	183.867	0.180	-0.264
-298.749	-89.804	-0.123	0.036
-297.735	-177.423	-0.112	-0.003
-296.720	-200.000	0.328	-0.000
-295.705	30.151	0.119	-0.100
-294.691	-47.773	-0.114	0.055
-293.676	-70.198	-0.323	0.121
-292.662	15.019	0.123	0.095
-291.647	632.104	-0.121	-0.304
-290.632	-1.763	0.387	0.270
-289.618	378.071	-0.067	-0.136
-288.603	800.000	-0.056	-0.184
-287.589	-38.956	0.162	-0.085
-286.574	-200.000	-0.087	0.406
-285.559	-159.819	0.166	0.009
-284.545	-22.073	-0.297	-0.178
-283.530	164.333	-0.174	0.243
-282.516	103.108	0.222	-0.257
-281.501	-34.543	-0.229	0.124
-280.486	349.947	-0.071	-0.139
-279.472	-11.140	0.226	0.147
-278.457	-85.178	0.177	0.055
-277.443	-0.527	0.198	0.139
-276.428	-150.598	-0.468	-0.035
-275.413	800.000	0.071	-0.217
-274.399	-133.136	0.171	0.021
-273.384	130.314	0.090	0.114
-272.370	-14.634	0.172	0.109
-271.355	-6.542	-0.177	0.119
-270.340	-188.442	-0.223	-0.003
-269.326	-108.525	-0.063	-0.013
-268.311	275.543	0.289	-0.507
-267.297	46.500	0.139	-0.127
-266.282	-39.385	0.154	0.080
-265.267	800.000	-0.062	0.248
-264.253	82.538	-0.069	0.074
-263.238	5.197	0.255	-0.185
-262.224	-31.895	0.091	-0.050
-261.209	-113.121	-0.060	-0.012
-260.195	127.112	-0.160	-0.201
-259.180	-200.000	0.032	0.292
-258.165	35.751	-0.182	-0.158
-257.151	89.532	0.261	-0.287
-256.136	-97.767	0.157	-0.040
-255.122	-200.000	-0.012	-0.148
-254.107	85.985	-0.101	0.109
-253.092	362.117	0.093	0.185
-252.078	147.188	0.057	-0.076
-251.063	-101.935	-0.253	0.060
-250.049	-138.479	0.229	-0.025
-249.034	149.693	-0.042	-0.056
-248.019	-101.772	-0.030	0.007
-247.005	218.252	-0.036	0.057
-245.990	620.155	0.131	0.325
-244.976	-200.000	-0.009	-0.168
-243.961	-42.945	0.385	0.193
-242.946	800.000	-0.054	-0.171
-241.932	87.357	-0.042	0.046
-240.917	20.094	0.065	-0.052
-239.903	-111.915	0.152	-0.030
-238.888	125.639	0.103	-0.128
-237.873	800.000	-0.090	-0.318
-236.859	59.506	0.091	0.088
-235.844	366.387	-0.150	0.299
-234.830	-104.763	0.373	-0.085
-233.815	-36.755	-0.166	0.088
-232.800	-11.185	0.172	0.112
-231.786	-177.628	0.374	0.009
-230.771	-122.801	0.335	0.053
-229.757	-97.178	0.209	-0.054
-228.742	87.173	-0.135	0.147
-227.727	98.741	0.095	-0.108
-226.713	800.000	-0.024	-0.087
-225.698	69.863	-0.002	-0.002
-224.684	252.220	0.196	-0.330
-223.669	-200.000	-0.026	-0.144
-222.655	-45.709	-0.174	0.085
-221.640	147.073	0.124	0.164
-220.625	-200.000	0.047	-0.366
-219.611	-81.266	-0.230	0.075
-218.596	567.014	-0.037	0.088
-217.582	142.340	-0.091	0.119
-216.567	-105.359	-0.235	0.053
-215.552	23.221	-0.099	0.080
-214.538	-43.775	0.175	0.087
-213.523	-200.000	0.006	-0.068
-212.509	-0.318	-0.202	-0.141
-211.494	-125.727	0.009	-0.001
-210.479	-82.352	-0.371	-0.119
-209.465	49.602	-0.332	0.309
-208.450	-177.768	-0.622	0.015
-207.436	384.159	0.079	-0.160
-206.421	-200.000	-0.071	-0.357
-205.406	-41.255	-0.288	0.146
-204.392	366.110	-0.123	0.245
-203.377	127.928	-0.135	0.169
-202.363	800.000	0.028	-0.100
-201.348	255.219	0.123	0.208
-200.333	577.438	0.060	0.145
-199.319	-44.761	-0.218	-0.107
-198.304	76.593	0.214	-0.224
-197.290	-68.392	-0.087	0.033
-196.275	800.000	0.226	-0.700
-195.260	558.483	-0.047	-0.112
-194.246	-33.163	-0.175	-0.095
-193.231	800.000	0.117	-0.497
-192.217	-138.370	-0.055	-0.006
-191.202	51.512	0.029	0.027
-190.187	-139.972	0.353	-0.037
-189.173	150.672	0.127	-0.170
-188.158	-200.000	-0.029	0.145
-187.144	-39.275	0.105	-0.055
-186.129	47.576	-0.107	-0.098
-185.114	197.359	-0.233	-0.351
-184.100	-115.674	0.042	0.008
-183.085	135.058	-0.078	0.100
-182.071	13.657	-0.085	-0.065
-181.056	-76.999	-0.087	-0.030
-180.042	417.106	0.080	0.168
-179.027	292.537	0.149	0.267
-178.012	-56.984	-0.260	0.113
-176.998	-200.000	0.007	0.291
-175.983	800.000	0.019	0.056
-174.969	-21.160	-0.253	-0.152
-173.954	123.386	-0.161	-0.199
-172.939	127.740	0.291	0.364
-171.925	-200.000	0.024	0.110
-170.910	222.976	-0.114	0.181
-169.896	-197.231	-0.063	0.000
-168.881	-92.542	-0.157	-0.043
-167.866	-189.561	0.160	-0.002
-166.852	-67.797	0.418	0.161
-165.837	-8.556	0.119	0.079
-164.823	-200.000	-0.021	0.132
-163.808	337.927	-0.017	-0.032
-162.793	-42.546	-0.073	0.037
-161.779	-102.123	0.096	-0.023
-160.764	262.595	0.052	-0.089
-159.750	-66.861	0.116	0.045
-158.735	800.000	0.022	0.061
-157.720	241.445	0.020	-0.033
-156.706	292.966	0.155	0.279
-155.691	-200.000	-0.036	-0.212
-154.677	-172.867	-0.550	0.017
-153.662	204.894	0.196	0.300
-152.647	-58.760	0.178	-0.076
-151.633	334.874	0.186	-0.354
-150.618	-7.623	-0.350	0.233
-149.604	-100.244	-0.164	-0.040
-148.589	-75.640	0.218	-0.076
-147.574	-200.000	0.033	-0.162
-146.560	-73.065	0.084	-0.030
-145.545	422.288	0.082	0.173
-144.531	-200.000	-0.021	-0.164
-143.516	-45.431	0.124	0.060
-142.502	-76.460	-0.278	0.096
-141.487	9.185	0.136	-0.101
-140.472	-53.003	-0.180	0.081
-139.458	8.053	0.087	0.064
-138.443	-91.798	0.053	-0.015
-137.429	-200.000	-0.012	0.177
-136.414	800.000	0.055	-0.194
-135.399	-73.046	0.206	-0.074
-134.385	-99.791	0.154	0.038
-133.370	47.359	0.277	-0.253
-132.356	13.018	0.128	0.097
-131.341	800.000	-0.064	0.199
-130.326	-117.298	-0.093	0.017
-129.312	-2.510	0.169	-0.117
-128.297	800.000	0.082	-0.341
-127.283	275.317	0.147	0.257
-126.268	-128.786	0.094	-0.013
-125.253	288.797	0.118	-0.209
-124.239	-72.370	-0.196	-0.071
-123.224	-80.389	0.135	-0.044
-122.210	81.304	-0.237	0.252
-121.195	-16.082	-0.294	0.184
-120.180	-57.415	0.293	-0.127
-119.166	424.139	-0.093	0.196
-118.151	29.499	0.139	0.116
-117.137	3.060	0.122	-0.087
-116.122	-23.720	-0.191	-0.112
-115.107	-75.289	0.051	0.018
-114.093	19.036	-0.115	0.090
-113.078	-21.078	0.140	-0.084
-112.064	-155.431	0.104	-0.007
-111.049	-77.718	0.107	-0.036
-110.034	-138.764	0.093	0.010
-109.020	-138.765	0.051	0.005
-108.005	626.844	0.047	-0.118
-106.991	-107.446	-0.391	0.084
-105.976	-80.513	-0.263	-0.086
-104.962	-200.000	-0.031	-0.303
-103.947	-141.340	0.142	0.014
-102.932	-163.157	0.199	-0.009
-101.918	302.078	-0.237	0.430
-100.903	-66.978	-0.224	-0.087
-99.889	-170.711	-0.304	0.010
-98.874	311.454	-0.067	0.124
-97.859	94.337	-0.066	0.073
-96.845	-1.420	0.199	0.138
-95.830	-99.072	-0.331	0.082
-94.816	-143.427	-0.396	-0.037
-93.801	-200.000	-0.001	-0.201
-92.786	105.795	0.095	0.111
-91.772	144.194	0.118	0.155
-90.757	-200.000	0.044	0.430
-89.743	-54.025	0.129	-0.057
-88.728	111.741	-0.197	-0.233
-87.713	109.931	0.076	-0.090
-86.699	-200.000	0.008	0.451
-85.684	44.482	0.303	-0.273
-84.670	-99.931	-0.356	0.087
-83.655	87.689	0.290	0.315
-82.640	-200.000	0.056	0.305
-81.626	133.915	-0.172	0.218
-80.611	-200.000	0.030	0.182
-79.597	800.000	0.079	-0.336
-78.582	528.206	0.053	-0.123
-77.567	-200.000	-0.033	-0.221
-76.553	49.328	-0.218	-0.201
-75.538	-113.438	-0.094	0.018
-74.524	-111.129	-0.233	-0.047
-73.509	17.239	-0.209	-0.163
-72.494	-90.685	0.238	-0.067
-71.480	-108.504	0.189	-0.040
-70.465	-53.099	-0.080	-0.036
-69.451	10.906	0.137	-0.102
-68.436	97.441	0.070	0.079
-67.422	-54.614	0.200	0.089
-66.407	-110.341	-0.548	0.112
-65.392	-26.682	-0.267	0.153
-64.378	-200.000	-0.052	0.361
-63.363	288.987	0.136	0.241
-62.349	10.077	-0.197	-0.147
-61.334	73.032	-0.957	-0.981
-60.319	-57.319	0.585	0.252
-59.305	463.035	-0.406	-0.889
-58.290	78.079	0.797	0.833
-57.276	-200.000	0.274	1.381
-56.261	-200.000	106.771	590.621
-55.246	492.941	1507.278	3387.062
-54.232	174.027	2712.713	3840.588
-53.217	102.283	2307.299	2642.326
-52.203	37.670	1911.540	1663.113
-51.188	31.843	1697.651	1432.598
-50.173	29.231	1653.983	1376.209
-49.159	47.544	1708.423	1561.094
-48.144	47.772	1723.579	1576.618
-47.130	31.319	1680.896	1414.261
-46.115	28.827	1665.571	1382.595
-45.100	28.623	1661.005	1377.217
-44.086	28.602	1658.566	1374.986
-43.071	28.572	1655.559	1372.215
-42.057	28.524	1653.063	1369.731
-41.042	28.476	1651.500	1368.019
-40.027	28.564	1649.300	1366.800
-39.013	28.496	1647.524	1364.770
-37.998	28.502	1645.955	1363.464
-36.984	28.615	1644.217	1362.802
-35.969	28.646	1643.494	1362.382
-34.954	28.719	1641.549	1361.261
-33.940	28.656	1639.616	1359.133
-32.925	28.740	1637.997	1358.358
-31.911	28.657	1636.632	1356.561
-30.896	28.699	1635.046	1355.505
-29.881	28.684	1632.915	1353.569
-28.867	28.692	1631.457	1352.367
-27.852	28.688	1629.851	1350.952
-26.838	28.635	1628.670	1349.533
-25.823	28.724	1626.887	1348.651
-24.809	28.735	1625.881	1347.850
-23.794	28.768	1624.082	1346.545
-22.779	28.692	1623.235	1345.231
-21.765	28.662	1621.042	1343.143
-20.750	28.651	1619.618	1341.831
-19.736	28.719	1618.903	1341.681
-18.721	28.767	1616.893	1340.310
-17.706	28.674	1615.244	1338.213
-16.692	28.735	1613.927	1337.510
-15.677	28.719	1612.689	1336.319
-14.663	28.699	1611.168	1334.855
-13.648	28.750	1609.901	1334.123
-12.633	28.697	1608.256	1332.327
-11.619	28.717	1606.766	1331.185
-10.604	28.729	1605.291	1329.994
-9.590	28.817	1603.817	1329.360
-8.575	28.753	1602.594	1327.825
-7.560	28.749	1601.862	1327.138
-6.546	28.777	1600.182	1325.897
-5.531	28.645	1599.262	1324.127
-4.517	28.708	1597.677	1323.218
-3.502	28.723	1597.025	1322.733
-2.487	28.810	1595.507	1322.053
-1.473	28.739	1583.942	1311.913
-0.458	26.286	1565.361	1279.130
0.556	25.254	1566.475	1250.114
1.571	23.157	1591.437	1255.066
2.586	22.441	1603.845	1259.623
3.600	19.949	1549.011	1199.207
4.615	12.240	1440.699	1065.404
5.629	5.568	1379.366	978.374
6.644	4.307	1371.416	964.811
7.659	4.345	1370.268	964.154
8.673	4.370	1369.435	963.638
9.688	4.438	1367.511	962.624
10.702	4.330	1364.692	959.884
11.717	7.622	1370.191	984.084
12.731	15.562	1385.173	1044.300
13.746	21.487	1394.560	1088.253
14.761	22.552	1395.004	1095.128
15.775	21.948	1393.137	1089.813
16.790	20.963	1390.913	1081.872
17.804	20.234	1388.424	1075.319
18.819	19.818	1387.551	1071.972
19.834	19.809	1386.633	1071.113
20.848	19.618	1385.456	1068.929
21.863	19.572	1384.236	1067.605
22.877	19.387	1383.264	1065.622
23.892	19.451	1381.999	1064.945
24.907	19.332	1381.069	1063.400
25.921	19.317	1380.528	1062.796
26.936	19.306	1379.622	1061.935
27.950	19.531	1378.336	1062.237
28.965	19.534	1377.753	1061.714
29.980	19.609	1376.864	1061.399
30.994	19.790	1375.470	1061.338
32.009	19.765	1374.870	1060.630
33.023	19.730	1373.517	1059.274
34.038	19.621	1371.960	1057.318
35.053	19.531	1370.687	1055.688
36.067	19.572	1369.662	1055.055
37.082	19.605	1368.616	1054.360
38.096	19.560	1367.981	1053.501
39.111	19.730	1367.486	1054.066
40.126	19.602	1366.082	1052.109
41.140	19.224	1365.306	1049.115
42.155	18.998	1364.634	1047.130
43.169	19.000	1364.593	1047.021
44.184	18.977	1364.250	1046.525
45.199	19.091	1363.522	1046.570
46.213	19.228	1363.641	1047.400
47.228	19.548	1362.572	1048.431
48.242	19.484	1361.812	1047.363
49.257	19.508	1359.678	1045.777
50.271	19.439	1358.657	1044.480
51.286	19.425	1357.160	1043.153
52.301	19.460	1355.976	1042.362
53.315	19.352	1355.123	1040.961
54.330	19.190	1354.123	1039.124
55.344	19.166	1352.477	1037.624
56.359	19.191	1351.471	1036.907
57.374	19.146	1351.046	1036.223
58.388	19.043	1350.144	1034.818
59.403	18.944	1349.815	1033.879
60.417	19.005	1348.650	1033.261
61.432	18.876	1348.345	1032.164
62.447	18.773	1346.731	1030.219
63.461	18.761	1345.853	1029.382
64.476	18.726	1344.802	1028.278
65.490	18.770	1343.606	1027.534
66.505	18.782	1341.831	1026.158
67.520	18.873	1340.468	1025.571
68.534	18.913	1339.493	1024.971
69.549	18.893	1338.278	1023.831
70.563	18.799	1337.366	1022.484
71.578	18.717	1336.310	1021.096
72.593	18.518	1335.782	1019.418
73.607	18.470	1335.000	1018.452
74.622	18.505	1334.629	1018.283
75.636	18.757	1333.501	1018.831
76.651	18.638	1333.203	1017.807
77.666	18.654	1332.709	1017.431
78.680	18.898	1331.985	1018.235
79.695	18.980	1331.404	1018.187
80.709	18.957	1330.966	1017.624
81.724	19.055	1330.257	1017.570
82.739	19.239	1328.988	1017.599
83.753	19.262	1329.184	1017.792
84.768	19.617	1327.437	1018.461
85.782	19.648	1326.488	1017.826
86.797	19.647	1325.443	1016.929
87.812	19.499	1323.977	1014.845
88.826	19.461	1323.171	1013.912
89.841	19.400	1322.567	1013.001
90.855	19.655	1320.875	1013.111
91.870	19.725	1320.445	1013.103
92.884	19.657	1319.725	1012.060
93.899	19.732	1319.085	1011.918
94.914	19.851	1318.036	1011.724
95.928	19.751	1317.527	1010.656
96.943	19.656	1316.728	1009.397
97.957	19.623	1315.496	1008.170
98.972	19.641	1314.639	1007.533
99.987	19.607	1313.503	1006.374
101.001	19.632	1312.623	1005.757
102.016	19.576	1312.021	1004.877
103.030	19.592	1311.134	1004.204
104.045	19.616	1310.161	1003.512
105.060	19.396	1308.565	1000.924
106.074	19.127	1306.833	997.950
107.089	18.992	1305.217	995.848
108.103	18.915	1303.981	994.369
109.118	18.875	1302.872	993.203
110.133	18.843	1301.719	992.050
111.147	18.893	1299.947	990.902
112.162	18.961	1298.768	990.307
113.176	19.052	1298.086	990.227
114.191	19.006	1297.055	989.083
115.206	19.101	1295.873	988.640
116.220	19.134	1294.654	987.812
117.235	18.987	1293.498	986.001
118.249	18.928	1292.850	985.081
119.264	18.854	1291.113	983.247
120.279	18.741	1290.190	981.815
121.293	18.815	1288.930	981.192
122.308	18.720	1287.616	979.560
123.322	18.549	1286.545	977.684
124.337	18.550	1285.936	977.141
125.352	18.557	1284.504	976.004
126.366	18.661	1283.633	975.850
127.381	18.634	1282.582	974.810
128.395	18.628	1281.300	973.717
129.410	18.761	1280.471	973.754
130.424	18.780	1279.852	973.307
131.439	18.952	1279.219	973.712
132.454	19.006	1278.324	973.252
133.468	19.023	1277.302	972.483
134.483	19.016	1277.049	972.163
135.497	19.073	1275.620	971.313
136.512	19.037	1274.596	970.244
137.527	19.212	1273.011	969.936
138.541	19.145	1271.848	968.589
139.556	19.210	1270.981	968.208
140.570	19.312	1270.094	968.020
141.585	19.372	1268.902	967.363
142.600	19.456	1268.285	967.278
143.614	19.629	1267.018	967.194
144.629	19.588	1266.443	966.441
145.643	19.524	1265.494	965.269
146.658	19.387	1263.930	963.226
147.673	19.274	1261.995	961.038
148.687	19.133	1261.169	959.537
149.702	19.058	1259.420	957.704
150.716	19.044	1258.332	956.713
151.731	19.054	1256.812	955.530
152.746	19.080	1255.782	954.808
153.760	19.219	1254.381	954.424
154.775	19.329	1253.556	954.326
155.789	19.314	1252.960	953.705
156.804	19.413	1251.640	953.160
157.819	19.483	1250.984	952.962
158.833	19.559	1250.932	953.261
159.848	19.722	1249.705	953.138
160.862	19.716	1248.023	951.736
161.877	19.322	1247.183	948.846
162.892	19.118	1245.743	946.543
163.906	19.144	1244.610	945.742
164.921	19.090	1243.701	944.673
165.935	19.109	1243.423	944.483
166.950	19.272	1243.085	945.037
167.964	19.411	1241.973	944.869
168.979	19.202	1241.479	943.262
169.994	19.324	1240.207	942.883
171.008	19.335	1239.816	942.562
172.023	19.441	1239.126	942.532
173.037	19.515	1238.890	942.675
174.052	19.452	1237.445	941.148
175.067	19.216	1236.519	939.072
176.081	19.121	1235.103	937.398
177.096	19.061	1234.292	936.370
178.110	19.139	1233.155	935.852
179.125	19.197	1232.427	935.528
180.140	19.273	1231.143	934.886
181.154	19.387	1230.147	934.661
182.169	19.443	1228.892	933.931
183.183	19.623	1227.919	934.084
184.198	19.570	1226.993	933.007
185.213	19.739	1225.624	932.795
186.227	19.571	1224.977	931.315
187.242	19.701	1224.010	931.198
188.256	19.824	1223.342	931.273
189.271	19.961	1221.891	930.823
190.286	19.601	1220.600	927.821
191.300	19.227	1219.338	924.773
192.315	19.024	1218.673	923.096
193.329	19.166	1217.919	923.207
194.344	19.260	1217.879	923.599
195.359	19.418	1216.919	923.635
196.373	19.419	1216.690	923.386
197.388	19.496	1216.320	923.431
198.402	19.825	1216.168	924.997
199.417	19.897	1215.604	924.872
200.432	19.958	1214.865	924.551
201.446	20.129	1214.363	925.002
202.461	20.203	1213.641	924.760
203.475	20.121	1212.999	923.757
204.490	19.896	1211.532	921.358
205.504	19.726	1209.656	918.947
206.519	19.770	1208.038	917.867
207.534	19.730	1207.000	916.790
208.548	19.722	1206.372	916.188
209.563	19.743	1205.404	915.480
210.577	19.730	1204.560	914.691
211.592	19.849	1204.114	914.899
212.607	19.871	1203.819	914.714
213.621	20.037	1202.373	914.408
214.636	19.931	1201.303	912.953
215.650	19.892	1200.651	912.174
216.665	20.201	1199.647	912.958
217.680	20.214	1199.397	912.754
218.694	20.176	1198.569	911.846
219.709	20.233	1197.389	911.166
220.723	20.075	1196.672	909.710
221.738	20.126	1195.978	909.367
222.753	20.078	1195.200	908.443
223.767	20.072	1194.710	907.959
224.782	20.313	1193.720	908.390
225.796	20.281	1193.607	908.056
226.811	20.264	1192.708	907.203
227.826	20.137	1191.570	905.594
228.840	20.032	1191.077	904.590
229.855	20.084	1190.035	903.990
230.869	20.023	1189.161	902.928
231.884	20.032	1188.279	902.227
232.899	19.923	1187.507	900.994
233.913	19.874	1186.531	899.918
234.928	19.799	1186.110	899.129
235.942	19.718	1185.279	898.000
236.957	19.587	1184.838	896.902
237.972	19.781	1183.566	896.869
238.986	19.645	1183.526	896.052
240.001	19.793	1182.188	895.726
241.015	19.773	1181.523	895.042
242.030	20.021	1180.744	895.653
243.045	20.033	1180.026	895.092
244.059	20.032	1179.119	894.318
245.074	20.090	1178.616	894.158
246.088	20.143	1177.930	893.832
247.103	20.361	1176.959	894.137
248.117	20.425	1176.891	894.336
249.132	20.530	1176.275	894.331
250.147	20.767	1175.661	895.005
251.161	20.842	1175.141	894.916
252.176	21.005	1174.354	895.074
253.190	21.063	1173.785	894.856
254.205	21.093	1173.191	894.480
255.220	21.154	1172.163	893.929
256.234	21.096	1171.636	893.148
257.249	21.088	1171.083	892.610
258.263	21.037	1170.338	891.703
259.278	21.056	1170.118	891.551
260.293	21.150	1169.417	891.418
261.307	21.177	1168.733	890.955
262.322	21.156	1168.295	890.438
263.336	21.203	1167.367	889.887
264.351	21.207	1167.233	889.728
265.366	21.125	1166.515	888.682
266.380	21.189	1165.435	888.109
267.395	21.264	1164.387	887.612
268.409	20.957	1163.840	885.560
269.424	20.858	1163.379	884.627
270.439	20.886	1162.657	884.140
271.453	20.837	1161.804	883.167
272.468	20.808	1160.462	881.919
273.482	20.697	1159.931	880.876
274.497	20.772	1159.443	880.809
275.512	20.838	1158.164	880.091
276.526	20.811	1157.571	879.428
277.541	20.864	1156.743	878.986
278.555	20.900	1156.682	879.045
279.570	21.095	1155.953	879.399
280.585	21.312	1155.227	879.860
281.599	21.149	1154.327	878.278
282.614	20.984	1153.257	876.554
283.628	20.939	1151.874	875.198
284.643	20.917	1150.791	874.192
285.657	21.013	1149.910	873.925
286.672	20.883	1149.267	872.705
287.687	20.952	1148.414	872.328
288.701	20.975	1147.562	871.719
289.716	21.003	1146.851	871.241
290.730	21.046	1145.885	870.644
291.745	21.050	1145.728	870.470
292.760	21.197	1145.081	870.630
293.774	21.196	1144.395	870.029
294.789	21.229	1144.064	869.866
295.803	21.308	1143.265	869.574
296.818	21.129	1142.271	867.850
297.833	21.143	1141.039	866.909
298.847	21.032	1140.871	866.151
299.862	21.155	1140.142	866.130
300.876	21.099	1139.453	865.254
301.891	21.158	1138.984	865.114
302.906	21.261	1138.426	865.122
303.920	21.396	1137.987	865.381
304.935	21.516	1137.118	865.237
305.949	21.745	1136.164	865.566
306.964	21.749	1135.201	864.774
307.979	21.589	1134.689	863.521
308.993	21.532	1134.072	862.693
310.008	21.507	1133.437	862.012
311.022	21.597	1132.886	861.956
312.037	21.604	1131.759	861.060
313.052	21.371	1130.864	859.157
314.066	21.266	1129.707	857.686
315.081	21.059	1129.107	856.139
316.095	21.063	1128.046	855.277
317.110	20.954	1127.530	854.276
318.125	21.123	1126.444	854.205
319.139	21.078	1126.176	853.709
320.154	21.066	1125.560	853.107
321.168	21.123	1124.822	852.750
322.183	21.109	1124.041	852.012
323.197	21.215	1123.767	852.249
324.212	21.226	1123.114	851.733
325.227	21.277	1122.689	851.581
326.241	21.291	1121.892	850.973
327.256	21.321	1120.744	850.170
328.270	21.184	1119.726	848.657
329.285	21.136	1118.989	847.787
330.300	21.235	1118.255	847.642
331.314	21.066	1117.322	846.038
332.329	21.269	1116.236	846.123
333.343	21.177	1115.677	845.181
334.358	21.356	1115.035	845.485
335.373	21.472	1114.312	845.422
336.387	21.549	1113.529	845.124
337.402	21.628	1112.564	844.699
338.416	21.609	1112.200	844.256
339.431	21.684	1111.789	844.231
340.446	21.827	1111.243	844.433
341.460	22.018	1110.485	844.699
342.475	22.107	1109.758	844.497
343.489	22.136	1109.170	844.117
344.504	22.059	1108.111	842.866
345.519	22.024	1107.424	842.100
346.533	22.166	1106.650	842.117
347.548	22.310	1105.799	842.088
348.562	22.318	1105.272	841.647
349.577	21.901	1104.280	838.824
350.592	21.750	1102.791	836.899
351.606	21.565	1102.535	835.749
352.621	21.526	1101.562	834.748
353.635	21.611	1100.274	834.103
354.650	21.555	1100.140	833.660
355.665	21.725	1099.132	833.634
356.679	21.732	1098.892	833.410
357.694	21.728	1098.811	833.255
358.708	21.844	1098.147	833.228
359.723	21.940	1097.192	832.888
360.738	21.899	1096.675	832.228
361.752	21.850	1096.180	831.547
362.767	21.876	1095.601	831.155
363.781	21.934	1095.142	831.007
364.796	22.049	1094.768	831.195
365.810	22.277	1094.198	831.766
366.825	22.400	1093.128	831.461
367.840	22.554	1093.002	832.018
368.854	22.589	1092.566	831.778
369.869	22.545	1091.606	830.767
370.883	22.401	1090.473	829.156
371.898	22.278	1089.657	827.879
372.913	22.361	1088.755	827.514
373.927	22.424	1088.612	827.628
374.942	22.560	1088.047	827.762
375.956	22.401	1087.768	826.732
376.971	22.378	1086.419	825.525
377.986	22.494	1086.432	826.005
379.000	22.597	1085.940	826.040
380.015	22.725	1085.175	825.987
381.029	22.759	1085.028	825.961
382.044	22.612	1084.089	824.487
383.059	22.667	1083.111	823.924
384.073	22.601	1082.861	823.355
385.088	22.662	1081.704	822.684
386.102	22.752	1080.490	822.106
387.117	22.436	1079.470	819.790
388.132	22.175	1078.654	817.884
389.146	22.199	1077.894	817.345
390.161	22.191	1076.943	816.516
391.175	22.263	1075.953	816.025
392.190	22.360	1075.829	816.309
393.205	22.552	1075.339	816.755
394.219	22.551	1074.324	815.908
395.234	22.369	1073.523	814.386
396.248	22.291	1072.413	813.110
397.263	22.275	1071.332	812.145
398.278	22.335	1070.259	811.535
399.292	22.149	1069.537	810.061
400.307	22.167	1068.821	809.530
401.321	22.058	1068.092	808.403
402.336	22.006	1067.592	807.713
403.350	22.087	1066.883	807.479
404.365	22.064	1066.247	806.820
405.380	22.331	1065.178	807.166
406.394	22.398	1065.085	807.331
407.409	22.517	1064.353	807.249
408.423	22.658	1063.899	807.479
409.438	22.758	1063.320	807.427
410.453	22.757	1062.652	806.841
411.467	22.915	1061.992	806.991
412.482	22.837	1061.309	806.046
413.496	23.028	1060.383	806.143
414.511	23.083	1059.969	806.005
415.526	23.148	1059.782	806.091
416.540	23.255	1059.440	806.246
417.555	23.189	1058.807	805.392
418.569	23.071	1058.169	804.298
419.584	22.890	1057.692	803.040
420.599	22.974	1057.154	802.944
421.613	156.803	1402.552	1794.534
422.628	144.109	1452.858	1794.602
