DTS Sentinel unit serial number:	SN413079Multiplexer serial number:	ORYXHardware model number:	OX4-SRSoftware version number:	ORYX F/W v4.00 Oryx Data Collector v3.7.2.0data status	okinstallation	princeton_trtdifferential loss correction	single-endedforward channel	channel 2reverse channel	N/Adate	2019/09/16time	01:31:35forward acquisition time	60.00reverse acquisition time	0.00gamma	496.2192k internal	0.2336k external	0.2336temperature offset calibration	0.9965default loss term (dB/km)	0.3790temperature slope calibration	1.0000multiplexer offset coefficient	1.0000multiplexer slope coefficient	1.0000fibre end	0.00T internal ref (°C)	27.28T ext. ref 1 (°C)	9.92T ext. ref 2 (°C)	22.02length (m)	temperature (°C)	Stokes	anti-Stokes-747.200	77.065	0.126	0.135
-746.185	258.765	-0.124	0.215
-745.171	45.592	-0.100	0.093
-744.156	-116.266	0.038	0.007
-743.142	157.791	0.275	-0.382
-742.127	-200.000	0.014	0.097
-741.112	-128.250	-0.305	0.044
-740.098	-200.000	-0.033	0.150
-739.083	-131.488	0.296	0.039
-738.069	-44.701	0.299	0.150
-737.054	-200.000	-0.007	0.341
-736.039	-200.000	-0.179	-0.001
-735.025	5.865	-0.055	0.041
-734.010	23.895	0.012	-0.010
-732.996	250.226	-0.266	0.453
-731.981	-200.000	-0.009	0.124
-730.966	-44.187	-0.110	0.055
-729.952	572.763	-0.030	0.075
-728.937	-148.770	-0.224	0.018
-727.923	-109.401	-0.029	0.006
-726.908	108.204	0.242	-0.289
-725.894	-74.161	0.190	0.069
-724.879	18.535	-0.124	0.099
-723.864	22.992	-0.301	-0.248
-722.850	208.816	0.145	-0.228
-721.835	-71.057	-0.421	0.159
-720.821	7.574	-0.135	-0.101
-719.806	78.808	-0.349	-0.374
-718.791	-200.000	-0.002	0.250
-717.777	-18.339	0.196	0.123
-716.762	800.000	0.047	-0.166
-715.748	76.451	-0.173	-0.184
-714.733	471.391	-0.074	0.168
-713.718	800.000	-0.073	-0.218
-712.704	-200.000	-0.030	-0.134
-711.689	800.000	0.058	-0.177
-710.675	-139.062	-0.198	-0.021
-709.660	143.491	-0.159	0.213
-708.645	-200.000	-0.007	0.354
-707.631	-200.000	0.010	0.150
-706.616	230.651	0.089	-0.146
-705.602	429.205	-0.086	0.187
-704.587	633.110	-0.127	-0.323
-703.572	80.257	-0.181	0.195
-702.558	-200.000	-0.042	0.426
-701.543	63.616	0.119	0.120
-700.529	-92.373	0.324	0.091
-699.514	-160.475	-0.147	-0.008
-698.499	-200.000	-0.011	0.247
-697.485	-50.038	0.086	0.041
-696.470	-130.004	-0.141	-0.019
-695.456	-14.417	-0.031	-0.020
-694.441	35.923	-0.221	-0.195
-693.426	-9.127	0.133	0.089
-692.412	-92.236	-0.116	-0.033
-691.397	-70.198	-0.163	0.062
-690.383	770.599	-0.068	-0.185
-689.368	-57.302	-0.191	0.084
-688.354	-77.672	0.109	-0.038
-687.339	29.292	0.130	-0.110
-686.324	-62.442	-0.101	0.042
-685.310	-89.753	-0.212	-0.062
-684.295	-200.000	0.025	-0.154
-683.281	112.006	-0.243	-0.294
-682.266	800.000	-0.034	-0.105
-681.251	329.515	0.140	0.270
-680.237	-200.000	-0.019	0.245
-679.222	314.380	-0.075	0.141
-678.208	283.887	0.054	-0.098
-677.193	-200.000	-0.032	0.367
-676.178	-154.722	0.132	0.009
-675.164	-200.000	0.037	-0.494
-674.149	-200.000	0.051	-0.250
-673.135	800.000	-0.084	-0.235
-672.120	413.729	-0.052	-0.111
-671.105	-200.000	-0.018	-0.183
-670.091	800.000	-0.163	-0.477
-669.076	800.000	-0.046	0.184
-668.062	-170.874	-0.376	-0.013
-667.047	800.000	-0.034	-0.136
-666.032	210.297	-0.150	0.236
-665.018	-200.000	-0.012	0.100
-664.003	800.000	0.123	0.365
-662.989	-39.438	0.176	0.092
-661.974	90.064	0.135	-0.151
-660.959	-71.028	0.195	-0.073
-659.945	-200.000	0.010	0.455
-658.930	-68.450	0.254	-0.099
-657.916	-101.203	0.277	0.068
-656.901	325.283	0.175	-0.335
-655.886	-118.933	-0.409	-0.072
-654.872	800.000	0.106	-0.305
-653.857	-87.521	-0.320	-0.097
-652.843	-200.000	-0.022	0.108
-651.828	-200.000	-0.037	0.354
-650.814	95.479	0.145	0.166
-649.799	-73.353	0.290	0.106
-648.784	-62.966	-0.135	0.056
-647.770	-123.122	0.112	0.018
-646.755	800.000	0.041	-0.114
-645.741	3.128	0.152	-0.110
-644.726	88.853	0.220	0.244
-643.711	-200.000	-0.028	-0.195
-642.697	-119.787	-0.258	0.044
-641.682	277.970	-0.123	0.218
-640.668	-143.559	-0.336	0.032
-639.653	-200.000	-0.025	0.170
-638.638	-90.633	-0.077	0.022
-637.624	13.986	-0.261	-0.203
-636.609	-101.080	0.138	0.034
-635.595	-29.192	0.246	-0.141
-634.580	-108.225	-0.031	0.007
-633.565	3.758	-0.382	-0.279
-632.551	109.354	-0.350	0.420
-631.536	-200.000	-0.015	-0.109
-630.522	416.108	-0.118	0.252
-629.507	-34.273	-0.261	-0.143
-628.492	-20.317	-0.117	-0.072
-627.478	-134.742	0.227	-0.028
-626.463	2.026	0.324	0.234
-625.449	-112.847	-0.021	0.004
-624.434	172.453	0.389	0.559
-623.419	61.392	0.120	-0.120
-622.405	160.489	0.070	0.097
-621.390	-46.787	0.314	-0.153
-620.376	800.000	0.022	0.067
-619.361	-20.362	-0.314	0.193
-618.346	82.410	0.027	0.029
-617.332	21.706	-0.054	-0.044
-616.317	184.800	0.133	0.197
-615.303	62.805	0.300	0.299
-614.288	-200.000	-0.145	0.000
-613.273	-37.823	-0.274	0.145
-612.259	142.324	-0.090	-0.119
-611.244	50.735	0.087	0.082
-610.230	-70.527	-0.376	0.142
-609.215	800.000	0.084	-0.243
-608.201	-200.000	-0.040	-0.359
-607.186	188.934	0.069	-0.102
-606.171	-43.374	-0.254	-0.128
-605.157	1.394	0.040	-0.029
-604.142	-9.980	-0.188	0.125
-603.128	-4.686	-0.382	0.263
-602.113	212.787	-0.018	-0.029
-601.098	198.094	0.115	0.176
-600.084	800.000	0.043	-0.184
-599.069	-82.544	-0.458	-0.148
-598.055	-200.000	0.021	0.235
-597.040	42.975	-0.136	0.124
-596.025	-34.475	0.183	-0.100
-595.011	-200.000	-0.015	0.085
-593.996	-108.221	-0.234	-0.051
-592.982	-154.689	0.214	-0.014
-591.967	-120.102	-0.296	-0.051
-590.952	-79.570	-0.154	0.052
-589.938	164.546	-0.064	-0.090
-588.923	214.479	0.113	0.179
-587.909	-71.637	-0.316	0.118
-586.894	424.139	0.077	-0.165
-585.879	800.000	-0.050	0.214
-584.865	-4.364	0.192	-0.133
-583.850	-200.000	-0.026	0.165
-582.836	-200.000	-0.037	0.168
-581.821	162.118	0.092	-0.128
-580.806	703.611	-0.089	-0.235
-579.792	-62.004	-0.125	-0.052
-578.777	-200.000	-0.038	-0.336
-577.763	800.000	0.054	-0.221
-576.748	134.672	-0.104	0.134
-575.733	-139.162	-0.077	0.008
-574.719	36.057	-0.229	0.201
-573.704	37.616	0.073	-0.064
-572.690	-186.401	0.219	0.003
-571.675	-21.901	-0.118	-0.071
-570.661	166.849	0.244	-0.346
-569.646	203.166	0.132	0.204
-568.631	3.300	-0.023	-0.017
-567.617	-200.000	0.003	-0.121
-566.602	405.877	-0.092	-0.194
-565.588	3.412	0.221	-0.161
-564.573	-127.566	0.195	-0.028
-563.558	-103.423	0.204	-0.048
-562.544	-181.127	-0.357	-0.007
-561.529	-145.828	-0.173	-0.015
-560.515	97.672	0.259	-0.297
-559.500	-200.000	-0.001	-0.019
-558.485	12.980	-0.119	-0.092
-557.471	-143.702	0.211	-0.020
-556.456	-112.362	-0.017	0.003
-555.442	-67.039	-0.311	0.122
-554.427	800.000	-0.049	-0.204
-553.412	-6.034	-0.106	-0.072
-552.398	-200.000	0.015	0.111
-551.383	147.145	-0.261	0.351
-550.369	102.724	-0.136	0.159
-549.354	79.813	-0.226	-0.242
-548.339	-135.588	0.611	0.072
-547.325	-78.163	-0.139	-0.047
-546.310	-62.558	0.050	-0.021
-545.296	550.378	-0.098	0.234
-544.281	118.971	-0.101	-0.124
-543.266	57.032	0.118	0.114
-542.252	-200.000	-0.019	-0.283
-541.237	-7.486	0.138	0.093
-540.223	100.203	0.044	-0.051
-539.208	-200.000	-0.002	-0.125
-538.193	-106.811	-0.159	0.035
-537.179	4.304	-0.268	-0.196
-536.164	-59.843	-0.102	-0.043
-535.150	-49.318	0.194	0.092
-534.135	-200.000	-0.028	-0.423
-533.121	800.000	-0.046	-0.176
-532.106	-200.000	0.028	0.197
-531.091	-58.642	-0.305	0.132
-530.077	-126.923	0.119	-0.017
-529.062	-200.000	-0.008	-0.203
-528.048	54.372	-0.055	-0.053
-527.033	-200.000	0.079	0.346
-526.018	800.000	-0.092	0.314
-525.004	-147.016	-0.149	0.013
-523.989	-200.000	0.039	0.297
-522.975	330.418	-0.104	0.200
-521.960	176.490	0.136	0.197
-520.945	472.753	0.103	-0.232
-519.931	-200.000	0.053	-0.369
-518.916	8.788	-0.326	-0.245
-517.902	720.363	-0.127	-0.336
-516.887	-93.311	0.205	0.057
-515.872	-200.000	0.009	-0.273
-514.858	800.000	0.068	0.209
-513.843	-129.723	-0.662	0.091
-512.829	-134.260	0.367	0.045
-511.814	404.616	0.198	0.415
-510.799	800.000	-0.056	0.167
-509.785	8.258	-0.248	-0.185
-508.770	143.200	0.117	-0.155
-507.756	-75.965	0.060	-0.021
-506.741	109.942	-0.087	0.104
-505.726	-121.329	0.344	0.057
-504.712	-127.798	0.093	0.013
-503.697	308.278	0.134	-0.248
-502.683	22.911	0.102	-0.083
-501.668	-112.497	0.119	-0.024
-500.653	-200.000	-0.019	-0.282
-499.639	-162.872	0.241	-0.012
-498.624	-14.278	0.133	-0.085
-497.610	-128.979	0.131	0.018
-496.595	-200.000	-0.011	-0.087
-495.581	-0.099	-0.105	0.074
-494.566	800.000	0.049	-0.191
-493.551	800.000	-0.026	0.094
-492.537	156.506	-0.305	-0.418
-491.522	38.131	-0.312	0.276
-490.508	-95.267	-0.139	-0.037
-489.493	772.423	-0.022	0.058
-488.478	-200.000	-0.012	0.140
-487.464	112.004	-0.102	-0.122
-486.449	148.359	0.010	-0.014
-485.435	209.943	0.120	0.187
-484.420	-200.000	0.048	-0.235
-483.405	-17.962	0.371	-0.231
-482.391	-200.000	-0.075	-0.397
-481.376	239.209	-0.089	-0.147
-480.362	77.731	0.185	0.196
-479.347	243.687	0.059	-0.098
-478.332	199.163	0.229	0.349
-477.318	-47.711	0.050	-0.024
-476.303	-109.864	0.151	0.031
-475.289	-149.614	-0.114	0.009
-474.274	-200.000	-0.000	0.247
-473.259	475.910	-0.135	0.303
-472.245	175.319	0.107	0.154
-471.230	8.366	0.152	0.114
-470.216	155.410	0.137	-0.187
-469.201	-200.000	0.027	0.257
-468.186	62.013	0.120	0.118
-467.172	0.691	0.324	0.230
-466.157	164.957	-0.113	0.159
-465.143	800.000	-0.084	-0.297
-464.128	75.431	-0.142	0.149
-463.113	-21.792	0.069	-0.042
-462.099	-200.000	-0.003	-0.047
-461.084	330.481	-0.184	-0.352
-460.070	800.000	0.032	0.098
-459.055	800.000	-0.062	-0.215
-458.040	129.191	-0.131	-0.166
-457.026	-98.859	0.235	-0.059
-456.011	246.018	-0.099	0.165
-454.997	-42.516	-0.106	-0.054
-453.982	-200.000	0.041	-0.317
-452.968	160.512	-0.122	0.168
-451.953	-200.000	-0.009	0.059
-450.938	-121.598	0.351	-0.058
-449.924	800.000	0.022	-0.072
-448.909	137.016	0.123	0.159
-447.895	800.000	0.124	0.444
-446.880	-46.503	-0.251	0.122
-445.865	340.515	-0.111	-0.215
-444.851	-200.000	-0.033	0.226
-443.836	-15.808	-0.089	0.056
-442.822	800.000	-0.095	-0.265
-441.807	-119.181	0.019	0.003
-440.792	-111.737	-0.329	-0.066
-439.778	-200.000	0.034	0.236
-438.763	27.838	-0.265	0.222
-437.749	800.000	0.030	-0.120
-436.734	-200.000	0.044	-0.241
-435.719	1.456	0.146	-0.104
-434.705	-133.685	0.069	-0.009
-433.690	-85.976	-0.175	-0.054
-432.676	-1.308	-0.112	-0.078
-431.661	-200.000	0.001	-0.128
-430.646	-200.000	-0.003	-0.314
-429.632	166.883	-0.126	0.177
-428.617	87.816	-0.103	-0.113
-427.603	-77.233	-0.200	-0.069
-426.588	37.727	0.104	0.092
-425.573	-200.000	-0.297	0.000
-424.559	193.386	-0.088	0.133
-423.544	118.938	-0.088	0.108
-422.530	-200.000	0.033	0.365
-421.515	-200.000	-0.059	-0.420
-420.500	-15.407	-0.050	-0.032
-419.486	-172.185	-0.234	-0.007
-418.471	-28.258	-0.158	-0.090
-417.457	-200.000	-0.016	-0.181
-416.442	-139.463	0.354	0.038
-415.428	-99.887	-0.260	-0.065
-414.413	-145.847	0.109	-0.010
-413.398	-100.299	-0.432	-0.106
-412.384	800.000	0.073	0.233
-411.369	-102.029	0.309	0.074
-410.355	-105.729	-0.288	0.065
-409.340	583.971	-0.090	0.220
-408.325	71.159	0.113	0.117
-407.311	-39.950	0.138	-0.072
-406.296	322.547	0.013	0.024
-405.282	81.307	0.114	0.122
-404.267	-105.037	0.076	0.017
-403.252	463.485	0.163	-0.361
-402.238	98.580	-0.208	0.238
-401.223	103.569	0.053	-0.062
-400.209	-162.690	-0.138	0.007
-399.194	-106.106	0.120	0.027
-398.179	-56.086	-0.132	0.058
-397.165	-31.905	-0.086	0.048
-396.150	-150.464	-0.386	0.029
-395.136	-16.727	-0.046	-0.029
-394.121	225.573	0.063	0.100
-393.106	-200.000	0.003	0.117
-392.092	-200.000	-0.011	0.343
-391.077	-131.303	0.453	0.059
-390.063	-68.969	-0.271	-0.103
-389.048	204.435	0.067	-0.103
-388.033	5.317	-0.167	0.122
-387.019	-153.869	-0.154	-0.010
-386.004	203.251	-0.121	0.186
-384.990	154.714	0.070	0.095
-383.975	18.214	0.284	0.224
-382.960	319.537	-0.106	-0.198
-381.946	-123.753	0.243	0.038
-380.931	228.699	-0.036	-0.059
-379.917	-200.000	0.018	-0.225
-378.902	186.274	-0.157	-0.231
-377.888	71.352	-0.239	0.246
-376.873	20.804	0.271	-0.217
-375.858	-81.853	0.211	0.069
-374.844	309.583	0.121	-0.224
-373.829	-29.290	0.166	-0.094
-372.815	-32.711	-0.080	0.044
-371.800	-69.334	0.086	0.033
-370.785	-200.000	0.027	0.257
-369.771	-30.125	0.294	0.166
-368.756	-200.000	0.022	0.220
-367.742	418.757	-0.056	0.119
-366.727	-163.522	-0.050	0.002
-365.712	-58.646	-0.172	0.074
-364.698	86.960	0.306	-0.334
-363.683	-55.543	0.088	-0.039
-362.669	355.916	-0.181	-0.356
-361.654	800.000	0.080	-0.243
-360.639	59.739	-0.071	-0.069
-359.625	1.783	0.095	0.068
-358.610	350.546	-0.026	-0.051
-357.596	11.684	-0.301	-0.229
-356.581	-5.970	-0.134	-0.090
-355.566	35.759	-0.091	0.079
-354.552	-50.662	0.174	0.081
-353.537	-146.638	0.223	-0.019
-352.523	-84.987	-0.223	-0.069
-351.508	-105.501	-0.284	-0.064
-350.493	-200.000	-0.067	0.296
-349.479	45.146	-0.209	0.191
-348.464	-200.000	-0.001	0.144
-347.450	51.621	0.132	-0.124
-346.435	-58.401	0.140	0.060
-345.420	-25.037	0.241	0.141
-344.406	-12.015	-0.130	0.084
-343.391	-37.383	-0.260	0.137
-342.377	299.183	-0.065	0.118
-341.362	163.918	0.202	0.281
-340.348	-200.000	0.001	0.128
-339.333	57.399	0.166	0.160
-338.318	800.000	0.058	-0.184
-337.304	228.264	-0.107	0.172
-336.289	-77.493	0.346	0.119
-335.275	-200.000	0.039	-0.395
-334.260	-129.679	0.178	0.024
-333.245	800.000	-0.060	-0.229
-332.231	-200.000	-0.017	0.094
-331.216	-200.000	-0.012	-0.203
-330.202	47.913	0.090	0.083
-329.187	-200.000	-0.033	-0.221
-328.172	-141.889	0.299	-0.030
-327.158	339.194	0.045	0.087
-326.143	-115.402	0.013	0.002
-325.129	-156.140	-0.029	0.002
-324.114	-143.355	0.246	0.023
-323.099	-200.000	-0.013	0.110
-322.085	-200.000	-0.024	-0.110
-321.070	82.338	-0.172	0.184
-320.056	-56.624	-0.118	0.051
-319.041	800.000	0.040	-0.121
-318.026	-94.536	-0.292	0.079
-317.012	796.900	0.063	-0.171
-315.997	136.330	0.087	-0.113
-314.983	292.364	-0.076	0.137
-313.968	-200.000	0.016	0.328
-312.953	-22.515	-0.169	0.101
-311.939	108.937	0.327	-0.386
-310.924	-172.320	-0.695	-0.022
-309.910	6.270	-0.076	-0.055
-308.895	634.557	-0.089	0.222
-307.880	-200.000	0.034	0.211
-306.866	-46.670	0.318	-0.154
-305.851	-200.000	0.039	-0.178
-304.837	-35.201	0.473	-0.254
-303.822	800.000	0.056	-0.219
-302.807	-165.323	0.177	-0.008
-301.793	13.311	0.090	-0.069
-300.778	147.696	-0.177	-0.235
-299.764	-41.028	0.231	0.118
-298.749	-44.937	0.214	-0.105
-297.735	-11.832	-0.169	0.110
-296.720	-125.982	0.232	-0.034
-295.705	643.606	0.050	-0.126
-294.691	-58.209	0.162	-0.070
-293.676	-116.847	-0.137	0.025
-292.662	-200.000	0.009	0.173
-291.647	298.790	0.144	0.262
-290.632	-52.189	-0.142	-0.065
-289.618	-200.000	0.054	-0.418
-288.603	-97.242	-0.198	0.051
-287.589	130.423	-0.131	0.166
-286.574	228.831	-0.130	-0.208
-285.559	-50.031	0.359	0.168
-284.545	-200.000	0.022	-0.142
-283.530	-104.675	-0.270	-0.061
-282.516	-12.100	0.380	-0.246
-281.501	101.884	-0.251	0.289
-280.486	157.889	0.098	0.133
-279.472	425.493	0.166	-0.352
-278.457	-55.365	0.186	0.082
-277.443	-200.000	0.045	0.247
-276.428	-200.000	0.004	-0.080
-275.413	162.603	0.188	-0.260
-274.399	-162.134	0.236	-0.012
-273.384	315.951	-0.075	0.139
-272.370	-0.299	0.166	-0.116
-271.355	800.000	0.046	-0.181
-270.340	-37.429	-0.204	0.107
-269.326	-200.000	-0.038	-0.383
-268.311	37.511	0.057	-0.050
-267.297	-200.000	0.029	0.201
-266.282	534.345	-0.148	-0.346
-265.267	-95.186	0.103	-0.027
-264.253	-37.921	0.208	-0.109
-263.238	-121.187	0.111	0.018
-262.224	26.287	-0.170	0.140
-261.209	69.082	-0.135	-0.136
-260.195	-200.000	-0.007	0.141
-259.180	144.693	0.145	0.191
-258.165	-155.232	0.154	-0.010
-257.151	-33.728	-0.097	0.053
-256.136	-38.300	0.050	-0.026
-255.122	-200.000	-0.022	-0.106
-254.107	129.948	0.134	0.169
-253.092	800.000	-0.078	0.263
-252.078	-200.000	0.028	0.319
-251.063	137.129	-0.056	0.072
-250.049	161.443	0.034	-0.047
-249.034	22.424	0.194	0.156
-248.019	-23.559	0.146	0.086
-247.005	-124.079	-0.340	-0.053
-245.990	438.098	0.086	0.186
-244.976	800.000	-0.028	0.103
-243.961	-46.423	-0.182	-0.088
-242.946	-200.000	-0.067	0.318
-241.932	800.000	-0.128	0.429
-240.917	-119.982	0.399	-0.068
-239.903	613.491	0.208	0.513
-238.888	-200.000	-0.013	-0.382
-237.873	-200.000	0.009	-0.286
-236.859	-200.000	0.011	-0.109
-235.844	414.934	0.160	-0.336
-234.830	18.982	-0.439	0.347
-233.815	-200.000	-0.051	-0.300
-232.800	33.828	0.066	0.056
-231.786	-200.000	-0.064	-0.332
-230.771	-42.858	-0.107	-0.054
-229.757	463.677	-0.088	-0.193
-228.742	29.943	-0.190	0.160
-227.727	-15.027	-0.147	0.092
-226.713	171.672	-0.252	-0.356
-225.698	-124.007	0.062	-0.010
-224.684	-126.855	-0.150	0.022
-223.669	221.015	-0.118	-0.186
-222.655	301.028	0.092	-0.167
-221.640	800.000	0.052	0.179
-220.625	245.071	-0.068	0.113
-219.611	-71.341	-0.246	-0.091
-218.596	-125.654	0.174	-0.026
-217.582	224.041	0.146	0.233
-216.567	0.301	0.230	-0.161
-215.552	203.954	0.103	0.157
-214.538	-73.514	-0.149	-0.054
-213.523	-111.542	-0.271	0.054
-212.509	231.859	0.200	0.323
-211.494	33.009	0.054	0.046
-210.479	460.086	-0.064	0.141
-209.465	800.000	-0.144	-0.485
-208.450	-7.408	0.385	0.256
-207.436	-107.059	0.109	-0.024
-206.421	-116.091	0.525	0.096
-205.406	-200.000	-0.046	-0.208
-204.392	800.000	0.067	-0.199
-203.377	-200.000	0.029	-0.218
-202.363	-44.919	0.080	0.039
-201.348	800.000	0.115	0.424
-200.333	-42.190	0.176	0.088
-199.319	-200.000	-0.069	0.445
-198.304	-93.036	0.169	0.046
-197.290	274.748	-0.020	0.035
-196.275	-200.000	0.020	-0.118
-195.260	800.000	0.055	0.197
-194.246	-101.631	0.151	-0.036
-193.231	282.890	-0.164	-0.290
-192.217	-130.708	-0.241	-0.032
-191.202	299.512	0.092	0.167
-190.187	248.333	-0.048	-0.080
-189.173	-200.000	0.017	0.118
-188.158	800.000	0.112	-0.416
-187.144	436.494	0.062	-0.132
-186.129	26.254	0.232	-0.190
-185.114	-81.318	-0.247	-0.080
-184.100	336.210	-0.173	-0.330
-183.085	22.232	-0.063	-0.051
-182.071	166.442	0.086	0.120
-181.056	-200.000	0.017	0.234
-180.042	-14.555	-0.095	0.060
-179.027	-68.025	0.109	0.042
-178.012	-26.935	-0.352	-0.202
-176.998	-34.121	0.367	0.198
-175.983	176.583	-0.035	-0.050
-174.969	800.000	0.095	0.274
-173.954	-1.127	0.198	-0.138
-172.939	-32.080	-0.158	0.087
-171.925	-161.503	-0.150	-0.008
-170.910	-15.694	0.198	0.124
-169.896	721.675	0.108	0.282
-168.881	-54.352	-0.332	-0.148
-167.866	37.955	-0.221	-0.193
-166.852	-200.000	-0.013	0.106
-165.837	-102.101	0.228	-0.054
-164.823	18.836	0.196	-0.154
-163.808	-56.434	0.378	0.165
-162.793	-8.081	-0.240	0.159
-161.779	800.000	-0.021	0.058
-160.764	-159.376	0.222	0.012
-159.750	-193.654	0.270	-0.002
-158.735	307.242	-0.176	-0.323
-157.720	-139.802	0.200	-0.021
-156.706	-200.000	-0.045	0.268
-155.691	-76.953	-0.152	-0.052
-154.677	38.786	-0.114	-0.100
-153.662	800.000	0.047	0.153
-152.647	37.367	0.128	-0.111
-151.633	-200.000	-0.006	0.160
-150.618	71.961	0.234	-0.239
-149.604	-92.515	0.053	-0.015
-148.589	50.062	0.281	-0.260
-147.574	-151.461	-0.335	0.024
-146.560	518.072	0.049	-0.113
-145.545	-32.852	0.309	0.168
-144.531	41.952	0.195	0.174
-143.516	-78.872	-0.127	-0.043
-142.502	32.764	0.197	-0.167
-141.487	-186.240	0.211	-0.003
-140.472	10.906	0.233	-0.175
-139.458	101.096	-0.117	0.133
-138.443	-90.585	0.345	0.098
-137.429	-160.629	-0.067	0.004
-136.414	623.917	-0.138	-0.342
-135.399	-52.405	0.281	0.127
-134.385	-37.330	0.142	-0.074
-133.370	-200.000	0.013	0.117
-132.356	14.735	0.186	-0.142
-131.341	-134.413	-0.113	0.014
-130.326	-86.237	0.178	-0.054
-129.312	175.644	0.129	-0.183
-128.297	714.844	0.103	0.268
-127.283	-200.000	-0.002	-0.350
-126.268	384.706	-0.071	-0.144
-125.253	-178.512	-0.175	0.004
-124.239	-200.000	-0.012	-0.122
-123.224	-114.720	-0.291	-0.055
-122.210	-200.000	0.053	0.241
-121.195	-100.922	-0.147	0.035
-120.180	-76.750	0.197	-0.068
-119.166	13.752	-0.174	0.133
-118.151	-119.386	0.141	0.024
-117.137	-53.395	-0.109	0.049
-116.122	-13.490	-0.258	0.164
-115.107	800.000	0.053	0.207
-114.093	-129.234	-0.250	-0.034
-113.078	178.798	0.172	0.246
-112.064	-78.243	-0.083	0.028
-111.049	-200.000	-0.048	-0.277
-110.034	249.883	-0.031	0.051
-109.020	-21.052	0.080	-0.048
-108.005	800.000	-0.065	-0.239
-106.991	-170.135	-0.187	0.006
-105.976	98.377	-0.108	0.122
-104.962	51.205	0.204	-0.190
-103.947	166.019	0.043	0.060
-102.932	679.757	0.044	0.111
-101.918	630.897	-0.064	-0.159
-100.903	-200.000	-0.046	-0.204
-99.889	163.197	0.030	0.041
-98.874	-11.162	0.156	0.101
-97.859	440.536	0.126	0.269
-96.845	184.294	-0.141	0.205
-95.830	-200.000	0.053	-0.240
-94.816	-84.840	0.292	-0.090
-93.801	-20.731	-0.126	-0.076
-92.786	103.419	-0.060	0.069
-91.772	237.521	0.039	-0.063
-90.757	-200.000	0.009	0.271
-89.743	-92.172	-0.372	-0.103
-88.728	462.004	-0.122	0.267
-87.713	800.000	-0.087	-0.239
-86.699	91.124	0.231	0.254
-85.684	5.487	-0.163	-0.118
-84.670	-13.116	-0.176	0.112
-83.655	16.398	0.149	0.115
-82.640	549.024	0.160	-0.374
-81.626	131.462	0.117	-0.148
-80.611	-200.000	0.043	0.259
-79.597	-45.563	0.113	0.055
-78.582	-200.000	-0.024	-0.238
-77.567	105.728	0.226	-0.261
-76.553	-168.921	-0.102	-0.004
-75.538	44.394	0.047	-0.042
-74.524	284.001	0.140	-0.247
-73.509	-48.134	0.326	-0.154
-72.494	-200.000	-0.010	-0.131
-71.480	164.057	0.110	0.152
-70.465	-100.355	0.077	-0.019
-69.451	45.594	-0.047	0.043
-68.436	459.764	-0.084	-0.182
-67.422	-200.000	-0.059	-0.323
-66.407	800.000	-0.072	-0.220
-65.392	-168.339	0.438	0.016
-64.378	800.000	-0.114	0.310
-63.363	36.624	-0.315	-0.272
-62.349	-199.904	0.144	0.001
-61.334	58.841	-1.364	-1.311
-60.319	114.156	0.618	0.735
-59.305	421.550	-0.538	-1.129
-58.290	296.746	0.846	1.517
-57.276	-200.000	0.281	1.513
-56.261	-200.000	114.303	643.873
-55.246	475.964	1501.611	3316.320
-54.232	147.785	2674.005	3523.356
-53.217	96.300	2280.272	2549.275
-52.203	36.104	1894.836	1630.960
-51.188	30.379	1688.041	1409.597
-50.173	27.866	1647.349	1356.911
-49.159	49.213	1701.601	1563.205
-48.144	48.179	1715.948	1568.533
-47.130	30.006	1674.813	1395.514
-46.115	27.366	1660.237	1363.566
-45.100	27.231	1655.456	1358.580
-44.086	27.186	1652.954	1356.134
-43.071	27.160	1650.335	1353.737
-42.057	27.105	1648.202	1351.523
-41.042	27.185	1645.882	1350.163
-40.027	27.179	1644.318	1348.786
-39.013	27.113	1642.723	1346.935
-37.998	27.081	1640.636	1344.932
-36.984	27.147	1639.656	1344.559
-35.969	27.232	1638.005	1343.781
-34.954	27.285	1636.531	1342.914
-33.940	27.301	1634.262	1341.114
-32.925	27.269	1632.815	1339.636
-31.911	27.238	1631.104	1337.952
-30.896	27.272	1629.161	1336.557
-29.881	27.313	1627.495	1335.436
-28.867	27.249	1626.099	1333.769
-27.852	27.239	1624.580	1332.394
-26.838	27.235	1622.954	1330.984
-25.823	27.363	1621.770	1330.896
-24.809	27.301	1620.495	1329.343
-23.794	27.324	1619.177	1328.379
-22.779	27.362	1617.691	1327.382
-21.765	27.265	1616.362	1325.531
-20.750	27.351	1614.444	1324.535
-19.736	27.321	1613.380	1323.388
-18.721	27.333	1611.970	1322.266
-17.706	27.321	1610.221	1320.692
-16.692	27.361	1608.957	1319.894
-15.677	27.344	1607.365	1318.412
-14.663	27.358	1605.914	1317.272
-13.648	27.269	1604.842	1315.697
-12.633	27.350	1603.240	1314.918
-11.619	27.298	1601.549	1313.103
-10.604	27.317	1600.719	1312.506
-9.590	27.290	1599.417	1311.193
-8.575	27.399	1597.401	1310.270
-7.560	27.246	1596.803	1308.628
-6.546	27.367	1595.220	1308.146
-5.531	27.286	1594.224	1306.696
-4.517	27.357	1593.406	1306.483
-3.502	27.301	1591.409	1304.395
-2.487	27.337	1590.613	1303.951
-1.473	27.117	1578.481	1292.387
-0.458	24.419	1560.120	1258.307
0.556	19.260	1562.319	1229.737
1.571	17.162	1586.477	1233.425
2.586	16.859	1599.506	1241.228
3.600	16.330	1549.012	1198.186
4.615	13.389	1450.340	1102.199
5.629	10.596	1394.772	1041.959
6.644	9.987	1388.032	1032.943
7.659	9.990	1387.002	1032.101
8.673	9.852	1385.846	1030.270
9.688	9.850	1383.772	1028.626
10.702	9.893	1380.186	1026.143
11.717	11.123	1382.710	1035.755
12.731	14.452	1388.816	1061.463
13.746	17.015	1392.492	1080.522
14.761	17.403	1391.596	1082.200
15.775	16.550	1388.868	1074.568
16.790	15.428	1386.267	1065.344
17.804	14.549	1383.988	1057.926
18.819	14.097	1382.802	1054.059
19.834	13.734	1381.846	1050.934
20.848	13.751	1379.704	1049.323
21.863	13.379	1378.687	1046.101
22.877	13.304	1377.538	1044.667
23.892	13.161	1376.414	1042.816
24.907	13.223	1375.826	1042.673
25.921	13.207	1374.927	1041.795
26.936	13.264	1374.106	1041.442
27.950	13.343	1372.958	1040.977
28.965	13.369	1372.277	1040.530
29.980	13.480	1370.581	1039.852
30.994	13.464	1369.595	1038.910
32.009	13.559	1367.825	1038.071
33.023	13.431	1367.636	1037.035
34.038	13.403	1366.141	1035.633
35.053	13.302	1364.507	1033.672
36.067	13.423	1363.213	1033.358
37.082	13.347	1362.215	1032.032
38.096	13.476	1361.408	1032.138
39.111	13.509	1360.245	1031.371
40.126	13.381	1359.439	1029.869
41.140	13.185	1359.052	1028.268
42.155	13.149	1358.465	1027.508
43.169	13.158	1358.414	1027.434
44.184	13.150	1357.786	1026.820
45.199	13.223	1357.014	1026.594
46.213	13.189	1356.974	1026.263
47.228	13.296	1355.843	1025.983
48.242	13.371	1354.784	1025.554
49.257	13.338	1353.003	1023.912
50.271	13.316	1351.761	1022.744
51.286	13.298	1350.577	1021.649
52.301	13.260	1349.045	1020.162
53.315	13.228	1347.752	1018.897
54.330	13.237	1347.033	1018.322
55.344	13.224	1345.896	1017.288
56.359	13.284	1344.296	1016.360
57.374	13.167	1344.095	1015.397
58.388	13.146	1343.644	1014.840
59.403	13.091	1342.783	1013.760
60.417	13.044	1342.022	1012.807
61.432	13.010	1341.609	1012.201
62.447	13.073	1340.062	1011.325
63.461	13.102	1338.583	1010.299
64.476	12.980	1337.944	1008.983
65.490	13.069	1336.533	1008.374
66.505	13.088	1334.916	1007.182
67.520	13.064	1333.571	1005.926
68.534	13.122	1333.182	1005.897
69.549	13.089	1331.690	1004.486
70.563	13.135	1330.852	1004.041
71.578	13.050	1329.936	1002.745
72.593	13.067	1328.901	1001.978
73.607	13.015	1328.394	1001.194
74.622	13.045	1327.022	1000.253
75.636	12.961	1326.980	999.626
76.651	13.014	1326.145	999.227
77.666	12.949	1325.942	998.593
78.680	12.973	1325.359	998.209
79.695	13.055	1324.603	998.046
80.709	13.126	1323.687	997.701
81.724	13.268	1322.729	997.743
82.739	13.184	1321.705	996.377
83.753	13.172	1321.018	995.698
84.768	13.262	1320.159	995.505
85.782	13.354	1318.666	994.846
86.797	13.362	1317.092	993.621
87.812	13.187	1316.550	992.072
88.826	13.221	1315.176	991.152
89.841	13.381	1314.101	991.215
90.855	13.307	1313.154	989.970
91.870	13.344	1312.583	989.673
92.884	13.296	1311.791	988.702
93.899	13.469	1310.460	988.641
94.914	13.455	1309.822	987.991
95.928	13.396	1309.158	987.047
96.943	13.512	1307.709	986.559
97.957	13.356	1307.179	985.147
98.972	13.439	1305.875	984.570
99.987	13.407	1304.694	983.400
101.001	13.343	1304.076	982.465
102.016	13.481	1302.376	981.916
103.030	13.286	1302.157	980.507
104.045	13.485	1300.918	980.667
105.060	13.388	1299.869	979.220
106.074	13.246	1298.805	977.490
107.089	13.017	1297.566	975.119
108.103	13.224	1295.823	974.943
109.118	13.192	1294.166	973.419
110.133	13.116	1293.259	972.209
111.147	13.093	1291.758	970.855
112.162	13.262	1290.344	970.701
113.176	13.226	1289.289	969.608
114.191	13.245	1288.269	968.868
115.206	13.132	1287.401	967.471
116.220	13.201	1285.836	966.611
117.235	13.173	1284.852	965.624
118.249	13.308	1284.446	966.017
119.264	13.181	1283.015	964.114
120.279	13.120	1281.976	962.895
121.293	13.188	1280.721	962.265
122.308	13.144	1279.799	961.231
123.322	13.226	1278.531	960.666
124.337	13.170	1277.664	959.608
125.352	13.202	1276.194	958.603
126.366	13.146	1275.190	957.440
127.381	13.103	1274.297	956.438
128.395	13.068	1273.279	955.382
129.410	13.179	1271.896	954.901
130.424	13.280	1271.218	954.891
131.439	13.162	1270.805	953.816
132.454	13.252	1269.335	953.147
133.468	13.232	1268.975	952.679
134.483	13.266	1268.036	952.084
135.497	13.220	1267.172	951.085
136.512	13.230	1265.643	949.912
137.527	13.279	1263.965	948.851
138.541	13.234	1262.619	947.498
139.556	13.351	1261.137	946.975
140.570	13.315	1260.501	946.203
141.585	13.369	1259.198	945.454
142.600	13.371	1258.413	944.791
143.614	13.460	1257.392	944.448
144.629	13.404	1256.705	943.529
145.643	13.483	1255.060	942.662
146.658	13.373	1254.019	941.167
147.673	13.266	1252.759	939.530
148.687	13.295	1251.633	938.769
149.702	13.304	1250.061	937.561
150.716	13.269	1248.771	936.311
151.731	13.304	1247.585	935.538
152.746	13.372	1246.530	935.049
153.760	13.405	1245.414	934.316
154.775	13.424	1244.249	933.465
155.789	13.542	1242.782	932.944
156.804	13.502	1242.069	932.101
157.819	13.453	1241.151	931.057
158.833	13.629	1239.811	930.957
159.848	13.601	1239.408	930.414
160.862	13.554	1238.166	929.137
161.877	13.437	1237.165	927.648
162.892	13.528	1235.771	927.031
163.906	13.476	1235.234	926.251
164.921	13.456	1233.969	925.110
165.935	13.477	1233.133	924.520
166.950	13.586	1232.302	924.421
167.964	13.520	1231.651	923.486
168.979	13.573	1230.936	923.160
169.994	13.547	1229.967	922.210
171.008	13.573	1229.253	921.738
172.023	13.591	1228.904	921.494
173.037	13.636	1227.781	920.821
174.052	13.671	1226.790	920.187
175.067	13.680	1225.761	919.387
176.081	13.687	1224.383	918.311
177.096	13.680	1223.756	917.719
178.110	13.540	1222.872	916.200
179.125	13.628	1221.573	915.632
180.140	13.549	1220.540	914.344
181.154	13.711	1219.328	914.248
182.169	13.662	1218.588	913.343
183.183	13.713	1217.384	912.638
184.198	13.786	1216.070	911.976
185.213	13.779	1214.540	910.705
186.227	13.905	1213.321	910.402
187.242	13.870	1212.587	909.583
188.256	13.809	1211.677	908.483
189.271	13.973	1210.909	908.723
190.286	13.790	1209.813	906.821
191.300	13.573	1209.067	904.997
192.315	13.544	1208.543	904.367
193.329	13.629	1207.495	903.965
194.344	13.583	1207.182	903.398
195.359	13.768	1206.607	903.900
196.373	13.773	1205.922	903.331
197.388	13.798	1205.440	903.027
198.402	13.950	1205.008	903.450
199.417	14.064	1204.295	903.456
200.432	13.994	1203.581	902.459
201.446	14.062	1202.944	902.271
202.461	14.135	1201.900	901.804
203.475	14.119	1200.571	900.639
204.490	14.097	1199.618	899.727
205.504	14.025	1198.548	898.456
206.519	13.931	1197.005	896.712
207.534	14.017	1195.917	896.281
208.548	14.061	1195.232	895.925
209.563	13.959	1194.832	894.998
210.577	14.009	1193.530	894.210
211.592	14.133	1192.579	894.087
212.607	14.174	1191.689	893.560
213.621	14.139	1190.948	892.739
214.636	14.180	1189.732	891.967
215.650	14.053	1189.587	891.100
216.665	14.317	1187.905	891.175
217.680	14.302	1187.383	890.624
218.694	14.225	1186.565	889.516
219.709	14.257	1185.825	889.058
220.723	14.273	1185.490	888.811
221.738	14.253	1184.242	887.693
222.753	14.245	1183.660	887.135
223.767	14.188	1182.947	886.216
224.782	14.320	1181.924	886.074
225.796	14.342	1181.873	886.074
226.811	14.441	1180.690	885.635
227.826	14.337	1179.896	884.409
228.840	14.327	1179.312	883.842
229.855	14.377	1178.481	883.404
230.869	14.386	1177.644	882.744
231.884	14.383	1176.685	881.933
232.899	14.310	1176.313	881.188
233.913	14.247	1175.273	880.001
234.928	14.346	1174.392	879.784
235.942	14.284	1173.822	878.956
236.957	14.273	1173.397	878.500
237.972	14.317	1172.236	877.785
238.986	14.390	1171.541	877.571
240.001	14.356	1171.104	876.985
241.015	14.293	1170.508	876.131
242.030	14.373	1169.567	875.768
243.045	14.507	1168.248	875.411
244.059	14.551	1167.563	875.048
245.074	14.447	1167.147	874.115
246.088	14.431	1166.652	873.582
247.103	14.632	1165.515	873.707
248.117	14.607	1164.564	872.783
249.132	14.732	1164.127	873.033
250.147	14.702	1163.604	872.406
251.161	14.899	1162.283	872.370
252.176	14.765	1162.034	871.405
253.190	14.872	1161.112	871.194
254.205	14.898	1160.920	871.109
255.220	14.850	1160.113	870.174
256.234	15.012	1159.576	870.538
257.249	14.907	1158.929	869.431
258.263	14.852	1158.277	868.576
259.278	14.930	1157.218	868.112
260.293	14.965	1156.841	867.935
261.307	14.996	1156.512	867.771
262.322	15.107	1155.485	867.500
263.336	15.027	1154.969	866.619
264.351	15.079	1154.366	866.359
265.366	15.092	1153.557	865.745
266.380	15.109	1152.786	865.175
267.395	15.081	1151.968	864.341
268.409	15.093	1151.308	863.831
269.424	14.984	1151.054	863.004
270.439	15.041	1149.952	862.391
271.453	15.131	1148.918	862.005
272.468	15.057	1148.259	861.056
273.482	15.104	1147.309	860.507
274.497	14.878	1147.119	859.124
275.512	15.018	1146.113	859.016
276.526	15.166	1145.298	859.091
277.541	15.070	1145.121	858.389
278.555	15.135	1144.673	858.306
279.570	15.101	1143.421	857.121
280.585	15.237	1142.727	857.222
281.599	15.177	1141.687	856.057
282.614	15.298	1140.492	855.702
283.628	15.144	1139.860	854.367
284.643	15.267	1138.772	854.101
285.657	15.217	1138.149	853.303
286.672	15.341	1136.896	852.921
287.687	15.326	1136.180	852.231
288.701	15.307	1135.221	851.343
289.716	15.349	1134.431	850.887
290.730	15.363	1134.003	850.561
291.745	15.299	1133.263	849.606
292.760	15.241	1132.949	849.003
293.774	15.396	1131.664	848.749
294.789	15.459	1131.724	849.038
295.803	15.473	1130.432	848.064
296.818	15.331	1129.892	846.867
297.833	15.424	1128.884	846.505
298.847	15.417	1128.379	846.015
299.862	15.527	1127.463	845.809
300.876	15.506	1126.661	845.024
301.891	15.588	1126.374	845.151
302.906	15.473	1125.677	843.972
303.920	15.608	1125.225	844.239
304.935	15.581	1124.670	843.611
305.949	15.622	1123.838	843.117
306.964	15.686	1123.056	842.775
307.979	15.487	1122.582	841.349
308.993	15.627	1121.581	841.228
310.008	15.585	1120.959	840.475
311.022	15.668	1120.116	840.185
312.037	15.665	1119.043	839.287
313.052	15.739	1117.868	838.704
314.066	15.620	1117.272	837.590
315.081	15.577	1116.433	836.673
316.095	15.572	1115.851	836.137
317.110	15.599	1114.997	835.558
318.125	15.638	1114.099	835.002
319.139	15.663	1113.689	834.744
320.154	15.660	1112.737	833.945
321.168	15.570	1112.469	833.223
322.183	15.671	1111.522	832.942
323.197	15.689	1111.016	832.578
324.212	15.706	1110.562	832.247
325.227	15.741	1109.607	831.629
326.241	15.801	1108.753	831.215
327.256	15.764	1108.233	830.568
328.270	15.643	1107.290	829.192
329.285	15.721	1106.208	828.693
330.300	15.817	1105.359	828.454
331.314	15.815	1104.076	827.409
332.329	15.734	1103.158	826.251
333.343	15.819	1102.517	826.113
334.358	15.807	1101.479	825.205
335.373	15.934	1100.966	825.368
336.387	15.803	1100.335	824.183
337.402	15.843	1099.699	823.828
338.416	15.901	1099.299	823.738
339.431	15.831	1098.711	822.883
340.446	15.956	1098.031	822.911
341.460	16.134	1096.958	822.902
342.475	16.149	1095.499	821.810
343.489	16.197	1095.083	821.660
344.504	16.240	1094.123	821.077
345.519	16.177	1093.512	820.237
346.533	16.152	1092.987	819.650
347.548	16.141	1092.278	818.992
348.562	16.185	1091.278	818.382
349.577	16.213	1090.324	817.731
350.592	16.045	1089.903	816.531
351.606	16.205	1089.153	816.670
352.621	16.071	1088.703	815.610
353.635	16.105	1087.809	815.033
354.650	16.113	1087.128	814.492
355.665	16.094	1086.524	813.874
356.679	16.163	1085.202	813.143
357.694	16.068	1085.077	812.521
358.708	16.237	1084.168	812.583
359.723	16.341	1083.538	812.536
360.738	16.260	1082.998	811.673
361.752	16.289	1082.792	811.587
362.767	16.325	1081.547	810.754
363.781	16.323	1081.432	810.584
364.796	16.381	1080.704	810.245
365.810	16.320	1080.647	809.838
366.825	16.439	1079.861	809.752
367.840	16.525	1078.858	809.339
368.854	16.584	1078.110	808.984
369.869	16.459	1077.841	808.118
370.883	16.573	1076.682	807.717
371.898	16.389	1076.408	806.565
372.913	16.379	1076.011	806.147
373.927	16.583	1074.823	806.157
374.942	16.620	1074.337	805.897
375.956	16.678	1073.942	805.805
376.971	16.609	1073.216	804.862
377.986	16.637	1072.928	804.708
379.000	16.664	1072.483	804.431
380.015	16.762	1071.454	804.055
381.029	16.701	1070.804	803.206
382.044	16.766	1070.398	803.137
383.059	16.822	1069.695	802.804
384.073	16.887	1068.238	801.950
385.088	16.800	1067.767	801.114
386.102	16.830	1066.716	800.397
387.117	16.824	1065.780	799.593
388.132	16.620	1065.012	797.985
389.146	16.835	1063.850	798.056
390.161	16.792	1063.290	797.365
391.175	16.673	1062.923	796.458
392.190	16.723	1062.617	796.393
393.205	16.885	1061.412	796.179
394.219	16.913	1060.762	795.754
395.234	16.839	1060.194	794.908
396.248	16.821	1058.874	793.765
397.263	16.887	1057.676	793.104
398.278	16.832	1057.139	792.376
399.292	16.841	1056.461	791.841
400.307	16.809	1055.506	790.903
401.321	16.778	1055.216	790.471
402.336	16.861	1054.875	790.534
403.350	16.740	1054.135	789.347
404.365	16.829	1053.269	789.044
405.380	17.011	1052.546	789.278
406.394	16.973	1051.634	788.348
407.409	16.913	1051.040	787.555
408.423	17.002	1050.115	787.205
409.438	17.128	1049.218	787.046
410.453	17.084	1048.977	786.593
411.467	17.162	1048.284	786.365
412.482	17.236	1047.704	786.202
413.496	17.192	1047.320	785.641
414.511	17.284	1046.685	785.518
415.526	17.309	1045.812	784.909
416.540	17.395	1045.531	785.025
417.555	17.327	1045.229	784.416
418.569	17.244	1044.437	783.372
419.584	17.332	1043.668	783.130
420.599	17.361	1043.014	782.703
421.613	104.524	1325.931	1475.676
422.628	95.972	1367.127	1475.780
