DTS Sentinel unit serial number:	SN413079Multiplexer serial number:	ORYXHardware model number:	OX4-SRSoftware version number:	ORYX F/W v4.00 Oryx Data Collector v3.7.2.0data status	okinstallation	princeton_trtdifferential loss correction	single-endedforward channel	channel 2reverse channel	N/Adate	2019/09/13time	19:11:35forward acquisition time	60.00reverse acquisition time	0.00gamma	496.2192k internal	0.2328k external	0.2328temperature offset calibration	1.0174default loss term (dB/km)	0.3790temperature slope calibration	1.0000multiplexer offset coefficient	1.0000multiplexer slope coefficient	1.0000fibre end	0.00T internal ref (°C)	31.47T ext. ref 1 (°C)	3.84T ext. ref 2 (°C)	24.83length (m)	temperature (°C)	Stokes	anti-Stokes-747.200	-50.946	-0.253	0.120
-746.185	-56.637	-0.060	-0.027
-745.171	81.868	-0.135	-0.147
-744.156	800.000	-0.071	0.233
-743.142	8.166	-0.244	0.184
-742.127	-136.863	-0.159	-0.018
-741.112	-200.000	-0.015	0.118
-740.098	-200.000	-0.003	0.468
-739.083	-200.000	-0.007	0.160
-738.069	144.666	-0.261	0.352
-737.054	-81.718	-0.336	-0.111
-736.039	309.049	0.188	-0.355
-735.025	-200.000	0.041	0.439
-734.010	-0.041	-0.132	0.095
-732.996	-111.457	-0.251	-0.052
-731.981	-200.000	0.013	-0.107
-730.966	-0.513	0.254	0.182
-729.952	-142.197	-0.203	0.020
-728.937	-14.960	-0.090	-0.058
-727.923	-100.576	-0.463	-0.115
-726.908	139.179	-0.217	0.287
-725.894	175.850	0.167	0.244
-724.879	-200.000	0.021	0.202
-723.864	800.000	-0.053	-0.155
-722.850	-200.000	0.022	0.166
-721.835	-76.460	-0.149	0.053
-720.821	275.677	-0.152	0.272
-719.806	-107.367	-0.285	0.063
-718.791	343.195	-0.074	0.146
-717.777	90.608	-0.172	-0.194
-716.762	-200.000	0.016	-0.165
-715.748	27.559	-0.065	0.055
-714.733	75.558	0.071	-0.075
-713.718	-200.000	-0.034	-0.162
-712.704	-116.788	-0.052	-0.010
-711.689	-95.201	-0.290	-0.079
-710.675	-118.232	-0.282	-0.050
-709.660	-200.000	-0.030	-0.176
-708.645	44.819	-0.138	-0.128
-707.631	53.045	-0.138	-0.132
-706.616	-55.624	0.111	0.050
-705.602	20.197	-0.240	0.195
-704.587	114.682	-0.039	-0.048
-703.572	766.961	-0.093	-0.255
-702.558	-40.229	-0.056	0.029
-701.543	778.591	0.075	0.207
-700.529	-153.758	0.055	0.004
-699.514	443.733	-0.089	0.195
-698.499	-131.266	-0.144	-0.019
-697.485	-161.012	-0.394	-0.021
-696.470	-137.399	-0.275	-0.031
-695.456	-43.754	0.126	0.064
-694.441	1.681	-0.156	0.113
-693.426	127.314	0.022	0.028
-692.412	634.804	-0.068	0.172
-691.397	-7.326	-0.151	-0.103
-690.383	429.250	0.069	0.151
-689.368	-50.500	0.102	-0.048
-688.354	-57.924	-0.240	-0.105
-687.339	143.221	0.183	-0.245
-686.324	103.268	0.291	-0.343
-685.310	24.922	-0.208	-0.173
-684.295	-200.000	-0.001	0.198
-683.281	-200.000	0.020	0.126
-682.266	-124.108	0.292	0.046
-681.251	-200.000	0.051	0.288
-680.237	-124.558	0.298	-0.046
-679.222	-89.060	-0.284	0.084
-678.208	-171.465	-0.038	-0.001
-677.193	353.674	-0.023	-0.047
-676.178	-142.472	0.475	0.047
-675.164	-136.396	-0.420	-0.049
-674.149	26.891	-0.127	-0.107
-673.135	229.251	-0.038	-0.063
-672.120	800.000	-0.091	-0.300
-671.105	-128.282	0.198	-0.028
-670.091	-200.000	0.054	0.320
-669.076	800.000	-0.054	-0.155
-668.062	28.597	0.096	0.082
-667.047	97.921	-0.124	-0.144
-666.032	44.420	0.184	-0.170
-665.018	-155.467	0.237	0.015
-664.003	800.000	-0.013	0.055
-662.989	104.652	0.141	0.167
-661.974	-57.621	-0.232	-0.102
-660.959	-46.422	0.350	-0.173
-659.945	800.000	-0.020	-0.078
-658.930	800.000	0.072	0.250
-657.916	99.229	-0.090	-0.104
-656.901	-200.000	-0.034	-0.291
-655.886	189.038	0.083	0.125
-654.872	-10.366	-0.186	-0.124
-653.857	790.342	-0.084	0.232
-652.843	800.000	-0.049	0.173
-651.828	800.000	-0.094	-0.332
-650.814	-53.296	0.318	0.146
-649.799	119.640	-0.073	0.090
-648.784	800.000	-0.077	0.256
-647.770	-92.655	0.224	0.063
-646.755	104.446	-0.075	-0.088
-645.741	-45.442	-0.191	0.095
-644.726	-200.000	0.035	0.167
-643.711	-53.183	-0.345	-0.159
-642.697	-56.703	0.214	0.095
-641.682	-44.757	0.040	0.020
-640.668	-111.933	-0.198	0.040
-639.653	-123.774	-0.216	0.034
-638.638	-180.633	0.124	-0.003
-637.624	-110.457	0.134	0.028
-636.609	-140.087	0.279	0.029
-635.595	-200.000	0.044	-0.372
-634.580	296.669	-0.130	-0.239
-633.565	44.339	-0.155	0.143
-632.551	-175.912	-0.188	0.005
-631.536	800.000	-0.061	0.182
-630.522	-74.027	-0.412	0.150
-629.507	800.000	-0.098	-0.347
-628.492	-200.000	-0.018	0.125
-627.478	800.000	0.149	-0.545
-626.463	628.062	-0.082	0.207
-625.449	433.517	-0.121	0.264
-624.434	800.000	-0.033	0.118
-623.419	-14.189	-0.107	0.069
-622.405	-119.403	0.438	-0.076
-621.390	800.000	-0.009	0.027
-620.376	-15.917	0.245	0.156
-619.361	800.000	0.077	0.271
-618.346	-200.000	-0.017	-0.151
-617.332	-71.614	0.176	0.066
-616.317	260.583	0.043	-0.075
-615.303	86.594	-0.199	-0.220
-614.288	-19.488	0.118	0.073
-613.273	-200.000	0.003	-0.076
-612.259	17.896	0.099	-0.079
-611.244	-96.933	-0.273	0.072
-610.230	0.291	0.030	-0.021
-609.215	800.000	-0.061	0.259
-608.201	-156.768	-0.660	-0.041
-607.186	-113.664	0.197	-0.038
-606.171	800.000	-0.021	0.086
-605.157	800.000	-0.046	-0.161
-604.142	178.487	-0.168	0.246
-603.128	800.000	0.097	0.333
-602.113	9.826	0.209	0.159
-601.098	800.000	0.099	0.398
-600.084	451.998	0.007	0.015
-599.069	180.148	0.184	0.271
-598.055	80.850	0.117	-0.127
-597.040	800.000	-0.028	-0.078
-596.025	5.791	-0.258	-0.191
-595.011	-200.000	0.015	-0.076
-593.996	-111.826	0.066	0.013
-592.982	-175.560	-0.199	0.005
-591.967	800.000	0.031	0.114
-590.952	-200.000	-0.029	-0.233
-589.938	487.700	0.078	-0.179
-588.923	-200.000	0.005	-0.233
-587.909	-13.911	-0.206	-0.133
-586.894	-200.000	-0.027	-0.313
-585.879	-200.000	0.006	-0.030
-584.865	-120.201	0.254	0.044
-583.850	-200.000	0.003	-0.128
-582.836	5.201	0.070	0.051
-581.821	-165.427	0.186	0.008
-580.806	800.000	-0.069	0.259
-579.792	24.267	0.073	0.061
-578.777	132.891	0.169	-0.218
-577.763	-108.401	-0.073	0.016
-576.748	-37.798	-0.252	-0.134
-575.733	-155.058	0.212	0.014
-574.719	-173.120	-0.451	-0.014
-573.704	20.295	-0.304	-0.245
-572.690	-145.560	-0.277	-0.025
-571.675	-200.000	0.011	-0.398
-570.661	-124.777	0.218	0.034
-569.646	-200.000	-0.015	0.254
-568.631	-111.553	0.094	-0.019
-567.617	174.036	0.140	0.202
-566.602	65.254	-0.015	0.015
-565.588	-200.000	-0.010	0.135
-564.573	42.717	-0.115	-0.105
-563.558	53.880	0.220	-0.211
-562.544	119.679	0.201	0.249
-561.529	-55.130	-0.112	-0.050
-560.515	207.871	-0.202	-0.316
-559.500	800.000	0.053	-0.222
-558.485	512.507	0.092	-0.216
-557.471	105.600	0.167	-0.198
-556.456	99.135	-0.215	0.249
-555.442	-98.217	-0.151	-0.039
-554.427	61.960	0.101	-0.100
-553.412	-200.000	0.073	-0.395
-552.398	7.267	0.211	0.158
-551.383	-140.372	-0.159	0.017
-550.369	-26.542	0.116	-0.068
-549.354	267.015	0.080	0.139
-548.339	267.145	0.020	-0.035
-547.325	90.875	-0.040	-0.045
-546.310	327.148	0.055	0.105
-545.296	364.569	-0.098	0.198
-544.281	227.721	0.118	0.192
-543.266	800.000	-0.039	-0.123
-542.252	-200.000	-0.007	0.184
-541.237	623.279	0.140	0.352
-540.223	285.572	-0.080	-0.145
-539.208	-200.000	0.147	-0.000
-538.193	69.006	0.224	-0.230
-537.179	-200.000	-0.017	-0.346
-536.164	-3.604	-0.135	0.094
-535.150	-200.000	-0.094	-0.472
-534.135	473.031	-0.116	-0.262
-533.121	-125.020	0.048	-0.007
-532.106	-200.000	-0.025	0.213
-531.091	58.130	-0.082	0.080
-530.077	800.000	-0.068	-0.193
-529.062	-27.939	0.531	0.307
-528.048	-169.139	-0.270	0.010
-527.033	-200.000	-0.011	0.164
-526.018	-200.000	0.004	-0.341
-525.004	-200.000	-0.346	0.001
-523.989	-200.000	-0.046	0.239
-522.975	-1.257	0.162	-0.114
-521.960	-200.000	0.027	0.250
-520.945	-147.271	-0.319	0.027
-519.931	800.000	-0.058	0.252
-518.916	-17.798	0.102	0.064
-517.902	-89.636	0.439	0.129
-516.887	800.000	-0.052	-0.152
-515.872	-121.913	0.437	-0.072
-514.858	-200.000	-0.003	-0.022
-513.843	-124.520	0.450	-0.070
-512.829	32.605	0.112	0.097
-511.814	-145.107	0.081	0.007
-510.799	44.586	0.145	0.133
-509.785	3.548	0.154	0.112
-508.770	-161.140	-0.145	0.008
-507.756	29.248	0.154	-0.131
-506.741	36.228	-0.052	-0.046
-505.726	-200.000	0.088	0.391
-504.712	-69.638	0.278	0.106
-503.697	800.000	0.101	0.344
-502.683	22.722	-0.123	0.101
-501.668	-200.000	-0.000	-0.118
-500.653	102.597	-0.148	-0.172
-499.639	-157.645	0.074	0.004
-498.624	-65.473	-0.170	0.068
-497.610	-18.187	-0.193	-0.121
-496.595	800.000	-0.028	0.119
-495.581	-31.204	-0.172	-0.097
-494.566	-200.000	0.082	-0.389
-493.551	-160.854	0.061	0.003
-492.537	33.259	0.032	0.027
-491.522	58.807	0.183	0.180
-490.508	305.280	-0.030	-0.056
-489.493	46.749	0.295	0.274
-488.478	-200.000	-0.036	0.212
-487.464	28.194	-0.140	-0.118
-486.449	-126.241	-0.114	-0.017
-485.435	-109.380	-0.167	-0.035
-484.420	-200.000	-0.004	0.403
-483.405	436.281	-0.072	-0.156
-482.391	-53.423	-0.192	-0.088
-481.376	513.359	0.158	-0.367
-480.362	-86.586	-0.050	-0.015
-479.347	37.032	0.207	-0.183
-478.332	215.151	-0.219	-0.347
-477.318	-125.855	-0.329	0.049
-476.303	-200.000	-0.016	0.093
-475.289	-200.000	0.034	0.178
-474.274	-74.325	-0.087	0.031
-473.259	800.000	-0.026	0.081
-472.245	-105.910	-0.043	0.010
-471.230	78.568	0.020	-0.021
-470.216	-200.000	-0.021	0.210
-469.201	386.317	-0.183	-0.377
-468.186	53.914	-0.168	0.161
-467.172	79.831	0.337	-0.361
-466.157	31.407	0.187	-0.160
-465.143	-55.090	-0.090	-0.040
-464.128	-200.000	0.015	0.257
-463.113	-98.759	-0.127	0.032
-462.099	95.674	0.223	-0.254
-461.084	20.597	-0.361	-0.291
-460.070	-160.044	-0.199	0.011
-459.055	-200.000	-0.020	-0.089
-458.040	-200.000	0.062	-0.330
-457.026	-104.862	-0.373	0.085
-456.011	-200.000	-0.018	0.499
-454.997	-114.983	0.251	-0.048
-453.982	79.516	-0.132	0.141
-452.968	-200.000	0.001	0.017
-451.953	19.682	0.157	0.126
-450.938	140.803	0.261	-0.343
-449.924	-111.089	-0.142	-0.029
-448.909	-40.097	0.181	0.094
-447.895	705.150	0.047	-0.123
-446.880	800.000	0.013	0.042
-445.865	54.721	0.093	0.089
-444.851	55.712	0.187	0.180
-443.836	-51.215	-0.156	0.073
-442.822	380.170	0.097	-0.198
-441.807	-143.914	-0.175	0.016
-440.792	17.802	-0.237	0.188
-439.778	-99.153	0.272	0.069
-438.763	-116.031	0.047	0.009
-437.749	-159.405	0.085	0.005
-436.734	-71.638	-0.212	-0.079
-435.719	367.409	0.185	0.372
-434.705	-140.125	0.271	0.028
-433.690	800.000	0.015	0.048
-432.676	800.000	-0.036	-0.121
-431.661	276.726	-0.227	-0.401
-430.646	189.238	-0.101	-0.151
-429.632	-142.993	-0.074	0.007
-428.617	10.439	-0.206	0.156
-427.603	-8.371	-0.067	-0.045
-426.588	-37.516	-0.173	0.092
-425.573	149.993	-0.075	0.101
-424.559	800.000	0.066	0.184
-423.544	322.299	0.193	-0.365
-422.530	211.933	-0.133	0.209
-421.515	205.001	0.130	-0.201
-420.500	-165.967	-0.539	-0.023
-419.486	162.077	-0.046	-0.064
-418.471	150.721	-0.115	0.155
-417.457	233.415	-0.024	-0.040
-416.442	-200.000	-0.034	0.267
-415.428	-86.932	0.081	0.025
-414.413	800.000	0.088	-0.324
-413.398	800.000	-0.092	-0.333
-412.384	800.000	0.077	0.214
-411.369	800.000	-0.082	0.253
-410.355	-200.000	0.002	0.020
-409.340	141.479	0.295	-0.389
-408.325	465.859	0.197	0.439
-407.311	241.122	0.032	0.052
-406.296	-117.480	-0.120	0.022
-405.282	-200.000	-0.029	-0.169
-404.267	-200.000	-0.013	-0.265
-403.252	3.734	0.112	-0.081
-402.238	-200.000	-0.022	-0.125
-401.223	800.000	0.032	-0.091
-400.209	-38.464	0.182	-0.096
-399.194	106.058	0.237	0.278
-398.179	-200.000	0.021	0.112
-397.165	203.318	-0.064	-0.098
-396.150	-4.145	-0.228	-0.157
-395.136	-26.503	-0.278	-0.162
-394.121	242.501	-0.212	-0.353
-393.106	-24.932	0.253	0.149
-392.092	-51.265	0.242	0.113
-391.077	-200.000	0.002	0.270
-390.063	0.569	-0.315	0.224
-389.048	-39.982	0.177	-0.092
-388.033	-200.000	-0.021	-0.212
-387.019	110.472	-0.219	0.261
-386.004	-39.067	-0.101	0.053
-384.990	239.403	-0.159	0.262
-383.975	800.000	-0.030	0.116
-382.960	15.004	-0.050	0.039
-381.946	196.441	0.040	-0.060
-380.931	376.620	-0.042	0.085
-379.917	454.718	-0.118	-0.259
-378.902	29.394	0.106	0.090
-377.888	-200.000	0.053	0.333
-376.873	-59.796	0.174	0.074
-375.858	-200.000	-0.011	-0.209
-374.844	-68.167	-0.173	-0.067
-373.829	-37.432	-0.629	-0.334
-372.815	800.000	0.088	0.285
-371.800	23.854	-0.056	-0.046
-370.785	694.576	-0.055	0.144
-369.771	-200.000	0.004	0.053
-368.756	75.973	0.063	0.066
-367.742	205.325	-0.211	0.326
-366.727	-4.319	-0.307	-0.211
-365.712	772.744	0.063	0.172
-364.698	70.475	-0.234	-0.240
-363.683	48.854	0.055	-0.051
-362.669	38.949	-0.178	0.158
-361.654	-92.525	0.098	-0.027
-360.639	15.549	-0.208	-0.162
-359.625	196.250	0.181	-0.274
-358.610	-77.517	0.091	-0.031
-357.596	-49.392	-0.087	0.041
-356.581	-106.804	-0.085	0.019
-355.566	-44.921	0.287	-0.142
-354.552	-200.000	0.027	-0.230
-353.537	53.186	-0.113	0.107
-352.523	6.362	0.142	0.105
-351.508	678.069	-0.156	-0.403
-350.493	14.783	-0.194	0.150
-349.479	-36.603	-0.211	-0.113
-348.464	-200.000	0.002	0.063
-347.450	9.027	0.313	0.235
-346.435	-157.286	0.101	0.006
-345.420	-146.833	0.473	0.040
-344.406	377.892	0.132	-0.268
-343.391	36.532	0.117	0.102
-342.377	66.539	-0.216	0.218
-341.362	11.383	0.061	-0.046
-340.348	-105.679	-0.170	-0.038
-339.333	-60.794	-0.355	0.149
-338.318	-200.000	-0.004	0.192
-337.304	-35.482	0.243	-0.131
-336.289	-11.707	0.129	-0.084
-335.275	-200.000	-0.006	-0.148
-334.260	341.394	0.231	0.448
-333.245	-77.992	-0.148	-0.050
-332.231	451.689	0.110	-0.240
-331.216	81.802	-0.259	0.278
-330.202	84.166	-0.179	-0.194
-329.187	127.794	0.133	0.167
-328.172	-37.540	0.139	-0.074
-327.158	-2.782	-0.112	-0.078
-326.143	-108.191	0.110	0.024
-325.129	800.000	0.006	-0.016
-324.114	-18.157	-0.024	-0.015
-323.099	-101.933	-0.221	0.053
-322.085	-10.130	0.097	-0.064
-321.070	800.000	0.037	-0.123
-320.056	-93.129	0.036	-0.010
-319.041	73.358	-0.053	-0.055
-318.026	800.000	0.087	0.299
-317.012	-52.274	-0.366	-0.168
-315.997	-121.967	-0.400	-0.065
-314.983	-200.000	-0.038	0.411
-313.968	52.941	-0.175	0.166
-312.953	-80.632	0.114	-0.037
-311.939	214.362	-0.139	0.217
-310.924	84.640	0.282	0.306
-309.910	297.263	0.052	0.094
-308.895	-157.945	-0.278	0.016
-307.880	800.000	0.083	0.279
-306.866	-200.000	-0.014	0.299
-305.851	-68.088	0.095	0.037
-304.837	-55.981	0.172	0.076
-303.822	-105.798	-0.205	0.046
-302.807	343.924	0.094	-0.182
-301.793	-192.732	-0.134	-0.001
-300.778	-35.056	0.155	-0.084
-299.764	143.924	-0.134	-0.176
-298.749	800.000	0.072	-0.226
-297.735	792.562	-0.132	0.360
-296.720	-29.611	-0.346	-0.196
-295.705	0.640	0.318	0.225
-294.691	-124.833	0.155	0.024
-293.676	-133.619	-0.153	0.019
-292.662	67.420	-0.060	0.061
-291.647	114.840	0.130	-0.157
-290.632	-89.255	-0.153	0.045
-289.618	-121.981	-0.035	-0.006
-288.603	7.163	0.165	0.122
-287.589	-79.624	0.270	0.090
-286.574	43.684	0.117	0.106
-285.559	244.422	0.037	0.062
-284.545	-105.227	0.161	-0.036
-283.530	-200.000	-0.004	0.070
-282.516	-142.499	-0.066	-0.006
-281.501	102.207	0.295	-0.342
-280.486	18.160	0.204	-0.161
-279.472	90.675	0.059	0.066
-278.457	75.623	-0.291	-0.304
-277.443	-200.000	-0.036	-0.172
-276.428	440.543	0.068	-0.146
-275.413	-78.746	0.220	0.074
-274.399	-200.000	0.012	0.079
-273.384	-200.000	0.007	-0.141
-272.370	468.441	0.065	-0.144
-271.355	257.234	0.054	-0.092
-270.340	-200.000	-0.018	0.119
-269.326	800.000	0.137	0.524
-268.311	-54.844	-0.064	0.029
-267.297	800.000	-0.035	0.118
-266.282	72.512	0.108	-0.112
-265.267	0.236	-0.124	0.088
-264.253	87.653	-0.067	-0.074
-263.238	800.000	-0.016	0.060
-262.224	-200.000	-0.013	-0.135
-261.209	800.000	0.096	-0.297
-260.195	221.867	0.064	-0.101
-259.180	-105.869	-0.451	0.101
-258.165	503.123	-0.222	0.509
-257.151	96.016	0.207	0.233
-256.136	-200.000	-0.019	-0.239
-255.122	339.896	-0.152	-0.292
-254.107	71.628	-0.062	0.063
-253.092	-100.706	0.135	-0.033
-252.078	-23.008	-0.211	-0.126
-251.063	-36.074	0.203	0.109
-250.049	145.308	0.110	-0.145
-249.034	18.657	0.134	-0.106
-248.019	43.662	0.392	0.354
-247.005	-200.000	0.010	0.104
-245.990	34.973	-0.278	0.240
-244.976	239.576	-0.188	0.308
-243.961	800.000	0.052	-0.167
-242.946	-13.729	0.205	-0.131
-241.932	22.323	-0.081	-0.066
-240.917	800.000	-0.032	-0.107
-239.903	800.000	-0.076	0.235
-238.888	-38.892	-0.119	-0.062
-237.873	-2.577	0.274	-0.190
-236.859	-131.417	-0.130	-0.017
-235.844	138.571	0.151	0.196
-234.830	15.799	0.313	-0.243
-233.815	162.228	0.185	-0.256
-232.800	-61.075	-0.328	0.137
-231.786	-52.860	0.200	0.091
-230.771	92.376	0.174	-0.193
-229.757	59.205	-0.175	-0.170
-228.742	395.446	0.226	-0.465
-227.727	-45.645	-0.397	-0.194
-226.713	-81.288	-0.045	0.015
-225.698	96.921	-0.179	-0.203
-224.684	31.042	0.197	-0.167
-223.669	-90.892	-0.085	0.024
-222.655	-136.383	0.182	-0.021
-221.640	531.803	0.055	0.127
-220.625	51.344	-0.074	-0.069
-219.611	-51.641	0.046	-0.021
-218.596	689.488	0.048	0.125
-217.582	-32.245	0.159	-0.088
-216.567	216.941	-0.026	0.041
-215.552	-151.656	0.191	0.014
-214.538	-200.000	-0.009	-0.120
-213.523	102.737	-0.077	0.089
-212.509	130.055	-0.114	0.144
-211.494	800.000	-0.058	0.165
-210.479	-21.732	-0.097	-0.058
-209.465	-53.024	0.145	0.066
-208.450	65.511	0.165	-0.165
-207.436	-67.208	-0.275	0.107
-206.421	574.777	-0.029	0.069
-205.406	-94.618	0.033	-0.009
-204.392	800.000	-0.120	-0.340
-203.377	11.491	0.242	0.183
-202.363	489.594	0.084	0.188
-201.348	-200.000	0.027	-0.178
-200.333	-161.970	0.425	0.021
-199.319	-16.948	-0.205	-0.128
-198.304	-73.708	-0.258	0.093
-197.290	-107.973	-0.125	-0.027
-196.275	324.129	0.104	-0.195
-195.260	275.184	-0.108	-0.190
-194.246	-130.563	0.279	-0.037
-193.231	-41.727	0.242	-0.123
-192.217	151.277	0.109	0.147
-191.202	-50.746	0.137	0.064
-190.187	515.704	0.116	-0.268
-189.173	800.000	-0.049	0.190
-188.158	-113.124	0.327	0.064
-187.144	-5.342	0.099	0.067
-186.129	176.331	0.057	0.081
-185.114	-153.838	-0.067	0.005
-184.100	72.840	-0.155	-0.160
-183.085	33.250	0.119	0.102
-182.071	-123.472	0.183	0.029
-181.056	-200.000	-0.100	0.439
-180.042	221.667	-0.206	-0.326
-179.027	-200.000	-0.001	-0.342
-178.012	459.991	-0.111	-0.243
-176.998	-36.742	0.360	0.191
-175.983	206.828	-0.180	0.276
-174.969	149.813	0.182	0.243
-173.954	-93.395	-0.271	0.074
-172.939	-96.407	-0.125	-0.033
-171.925	-200.000	0.041	-0.196
-170.910	-42.178	0.249	-0.125
-169.896	-74.077	-0.057	-0.020
-168.881	90.137	-0.353	0.389
-167.866	-156.629	0.190	-0.012
-166.852	-6.070	-0.274	-0.184
-165.837	51.439	-0.135	0.127
-164.823	-156.215	0.293	-0.018
-163.808	488.217	-0.061	-0.138
-162.793	-150.891	0.222	-0.017
-161.779	-59.229	-0.158	-0.067
-160.764	124.443	0.277	0.343
-159.750	-125.845	0.054	-0.008
-158.735	-200.000	-0.056	-0.278
-157.720	-173.972	-0.301	0.009
-156.706	-65.456	0.094	0.037
-155.691	800.000	-0.009	0.038
-154.677	-147.209	0.146	0.012
-153.662	70.856	-0.111	-0.113
-152.647	101.218	0.194	0.222
-151.633	-74.928	0.230	0.081
-150.618	-89.685	0.083	-0.024
-149.604	800.000	0.068	-0.251
-148.589	208.141	0.128	0.197
-147.574	270.724	-0.112	-0.194
-146.560	-137.058	-0.081	-0.009
-145.545	30.807	0.206	0.174
-144.531	-104.110	0.296	-0.068
-143.516	-63.002	-0.278	0.113
-142.502	-80.848	0.141	-0.046
-141.487	498.227	-0.092	0.208
-140.472	-200.000	0.003	0.196
-139.458	-135.206	-0.214	-0.025
-138.443	68.028	-0.155	0.156
-137.429	83.778	0.118	0.126
-136.414	800.000	-0.084	-0.337
-135.399	98.636	-0.071	0.080
-134.385	292.170	-0.096	-0.171
-133.370	-41.410	-0.241	0.122
-132.356	-169.936	-0.390	0.014
-131.341	58.259	-0.065	0.063
-130.326	800.000	-0.076	-0.217
-129.312	97.540	-0.128	-0.145
-128.297	94.352	0.346	0.386
-127.283	-49.972	-0.179	0.083
-126.268	800.000	-0.072	-0.244
-125.253	657.147	-0.045	-0.115
-124.239	-112.514	0.184	-0.036
-123.224	377.806	0.227	-0.457
-122.210	286.186	0.035	-0.063
-121.195	341.832	0.208	0.399
-120.180	14.838	-0.031	-0.024
-119.166	-200.000	-0.009	-0.197
-118.151	-135.284	0.274	0.032
-117.137	195.548	-0.142	0.212
-116.122	-200.000	0.000	0.256
-115.107	800.000	0.106	0.389
-114.093	-200.000	-0.015	0.185
-113.078	800.000	-0.014	0.046
-112.064	-55.873	-0.217	0.095
-111.049	-6.085	-0.219	-0.147
-110.034	371.720	-0.065	0.130
-109.020	-37.025	-0.111	-0.059
-108.005	90.318	0.216	-0.237
-106.991	8.567	0.259	0.192
-105.976	-55.369	-0.199	0.088
-104.962	11.129	-0.186	0.140
-103.947	73.928	-0.131	-0.135
-102.932	800.000	0.060	0.243
-101.918	-43.866	-0.283	0.140
-100.903	-200.000	0.008	-0.053
-99.889	-84.583	0.196	-0.061
-98.874	-165.294	0.171	0.007
-97.859	-200.000	-0.030	-0.146
-96.845	-0.118	0.115	-0.080
-95.830	67.277	-0.085	-0.085
-94.816	-43.285	0.243	0.121
-93.801	800.000	-0.078	0.325
-92.786	-200.000	0.002	0.117
-91.772	-200.000	-0.031	0.268
-90.757	-200.000	-0.020	-0.291
-89.743	205.085	-0.178	0.271
-88.728	-200.000	0.015	-0.124
-87.713	-25.334	0.093	-0.054
-86.699	75.288	-0.185	-0.192
-85.684	291.595	-0.139	-0.248
-84.670	800.000	0.083	-0.255
-83.655	-84.443	-0.169	0.052
-82.640	-200.000	-0.017	-0.244
-81.626	-107.684	0.033	0.007
-80.611	63.595	0.315	0.310
-79.597	-106.605	-0.050	0.011
-78.582	-200.000	0.050	0.369
-77.567	-200.000	-0.042	-0.291
-76.553	-200.000	-0.032	0.158
-75.538	14.564	-0.112	0.086
-74.524	800.000	0.068	0.262
-73.509	14.197	-0.190	-0.146
-72.494	100.879	0.147	-0.167
-71.480	-141.010	-0.368	0.037
-70.465	-96.075	-0.320	0.083
-69.451	17.938	-0.107	0.084
-68.436	-200.000	0.027	0.179
-67.422	-22.698	0.173	-0.102
-66.407	40.780	-0.060	-0.053
-65.392	-200.000	0.017	0.159
-64.378	-172.485	-0.173	-0.005
-63.363	-108.118	0.101	-0.021
-62.349	800.000	0.088	0.317
-61.334	8.061	-1.164	-0.857
-60.319	68.387	0.481	0.484
-59.305	-200.000	-0.087	-0.852
-58.290	419.614	0.527	1.107
-57.276	495.894	0.772	1.741
-56.261	-200.000	100.601	603.587
-55.246	587.317	1410.999	3406.302
-54.232	191.048	2603.816	3841.920
-53.217	111.915	2268.653	2687.089
-52.203	40.862	1892.514	1674.557
-51.188	34.705	1683.767	1443.438
-50.173	32.100	1640.276	1386.895
-49.159	50.324	1690.859	1566.716
-48.144	51.848	1707.064	1593.091
-47.130	34.313	1665.957	1425.013
-46.115	31.586	1651.493	1392.330
-45.100	31.507	1646.209	1387.238
-44.086	31.437	1644.274	1385.032
-43.071	31.317	1641.943	1382.126
-42.057	31.377	1639.350	1380.333
-41.042	31.395	1637.299	1378.683
-40.027	31.303	1635.424	1376.370
-39.013	31.310	1633.599	1374.834
-37.998	31.365	1631.805	1373.676
-36.984	31.336	1631.026	1372.750
-35.969	31.500	1629.050	1372.236
-34.954	31.531	1627.433	1371.046
-33.940	31.570	1625.461	1369.614
-32.925	31.492	1623.838	1367.622
-31.911	31.487	1622.251	1366.198
-30.896	31.436	1620.916	1364.643
-29.881	31.444	1619.199	1363.204
-28.867	31.430	1617.460	1361.583
-27.852	31.458	1615.873	1360.395
-26.838	31.492	1614.430	1359.375
-25.823	31.455	1613.179	1357.996
-24.809	31.514	1612.188	1357.541
-23.794	31.389	1610.924	1355.517
-22.779	31.546	1609.216	1355.163
-21.765	31.527	1607.304	1353.362
-20.750	31.521	1605.512	1351.753
-19.736	31.472	1604.732	1350.690
-18.721	31.463	1603.010	1349.121
-17.706	31.482	1601.504	1347.940
-16.692	31.410	1600.354	1346.398
-15.677	31.420	1598.798	1345.109
-14.663	31.562	1597.593	1345.059
-13.648	31.650	1595.734	1344.076
-12.633	31.416	1594.963	1341.694
-11.619	31.478	1593.182	1340.588
-10.604	31.494	1591.738	1339.432
-9.590	31.439	1590.420	1337.880
-8.575	31.488	1589.191	1337.142
-7.560	31.531	1588.134	1336.502
-6.546	31.561	1586.556	1335.340
-5.531	31.508	1585.958	1334.402
-4.517	31.541	1584.735	1333.555
-3.502	31.518	1583.248	1332.086
-2.487	31.571	1582.070	1331.418
-1.473	31.036	1569.406	1316.933
-0.458	27.649	1548.661	1275.823
0.556	25.065	1547.730	1237.353
1.571	22.216	1570.217	1235.236
2.586	21.440	1582.149	1239.016
3.600	18.714	1528.652	1178.327
4.615	11.227	1421.309	1047.532
5.629	4.918	1360.014	963.362
6.644	3.850	1352.393	951.313
7.659	3.783	1351.488	950.183
8.673	3.860	1350.293	949.728
9.688	3.847	1348.841	948.544
10.702	3.860	1345.746	946.365
11.717	6.621	1350.703	966.707
12.731	14.307	1365.024	1024.313
13.746	20.506	1374.700	1069.759
14.761	21.604	1375.341	1076.921
15.775	20.896	1373.081	1070.711
16.790	19.832	1370.689	1062.219
17.804	18.953	1368.643	1055.146
18.819	18.625	1367.112	1051.863
19.834	18.558	1365.882	1050.413
20.848	18.305	1365.468	1048.453
21.863	18.056	1363.990	1045.703
22.877	17.964	1363.142	1044.396
23.892	18.046	1361.867	1043.826
24.907	18.031	1360.804	1042.831
25.921	17.967	1360.202	1041.885
26.936	17.907	1359.548	1040.925
27.950	18.072	1357.917	1040.592
28.965	18.148	1357.399	1040.566
29.980	18.277	1355.860	1040.078
30.994	18.258	1355.150	1039.327
32.009	18.431	1353.834	1039.273
33.023	18.436	1352.219	1037.969
34.038	18.288	1351.483	1036.416
35.053	18.166	1350.054	1034.495
36.067	18.235	1348.579	1033.691
37.082	18.106	1348.278	1032.586
38.096	18.294	1347.077	1032.712
39.111	18.181	1346.768	1031.698
40.126	18.155	1345.602	1030.556
41.140	17.952	1344.369	1028.304
42.155	17.782	1344.177	1027.041
43.169	17.719	1343.896	1026.352
44.184	17.796	1343.385	1026.337
45.199	17.783	1343.059	1025.923
46.213	17.830	1342.674	1025.819
47.228	18.066	1341.597	1026.318
48.242	18.256	1340.434	1026.482
49.257	18.130	1339.049	1024.572
50.271	18.074	1337.571	1023.020
51.286	18.112	1336.212	1022.117
52.301	18.117	1335.101	1021.202
53.315	18.037	1333.993	1019.787
54.330	17.789	1333.111	1017.545
55.344	17.875	1331.464	1016.711
56.359	17.885	1330.513	1015.956
57.374	17.872	1329.784	1015.228
58.388	17.745	1328.578	1013.464
59.403	17.653	1328.395	1012.691
60.417	17.657	1327.699	1012.091
61.432	17.647	1326.957	1011.377
62.447	17.586	1325.804	1010.048
63.461	17.584	1324.543	1008.985
64.476	17.643	1323.595	1008.522
65.490	17.530	1322.487	1006.922
66.505	17.629	1320.523	1005.924
67.520	17.616	1319.541	1005.008
68.534	17.614	1318.910	1004.428
69.549	17.529	1317.884	1003.059
70.563	17.472	1316.662	1001.704
71.578	17.430	1315.176	1000.236
72.593	17.402	1314.396	999.387
73.607	17.306	1314.333	998.689
74.622	17.412	1313.133	998.311
75.636	17.445	1312.005	997.559
76.651	17.435	1311.629	997.124
77.666	17.453	1311.576	997.102
78.680	17.534	1311.124	997.143
79.695	17.640	1310.184	996.964
80.709	17.757	1309.300	996.886
81.724	17.773	1308.467	996.258
82.739	17.869	1307.697	996.144
83.753	17.990	1307.450	996.573
84.768	18.098	1306.519	996.402
85.782	18.095	1305.626	995.617
86.797	18.191	1303.925	994.789
87.812	18.056	1302.858	993.104
88.826	18.097	1301.877	992.504
89.841	18.158	1300.616	991.811
90.855	18.229	1299.608	991.366
91.870	18.086	1299.768	990.573
92.884	18.256	1298.173	990.250
93.899	18.324	1297.234	989.843
94.914	18.300	1297.036	989.463
95.928	18.274	1295.971	988.416
96.943	18.258	1295.366	987.772
97.957	18.120	1294.156	985.964
98.972	18.192	1293.303	985.648
99.987	18.266	1291.683	984.749
101.001	18.203	1291.194	983.929
102.016	18.260	1289.980	983.240
103.030	18.362	1288.841	982.873
104.045	18.166	1288.523	981.418
105.060	18.144	1286.685	979.807
106.074	17.900	1285.447	977.377
107.089	17.608	1284.079	974.584
108.103	17.631	1282.447	973.390
109.118	17.617	1281.604	972.585
110.133	17.596	1279.850	971.044
111.147	17.660	1278.655	970.416
112.162	17.735	1277.599	969.955
113.176	17.767	1276.742	969.403
114.191	17.789	1275.471	968.478
115.206	17.775	1274.450	967.534
116.220	17.761	1273.215	966.434
117.235	17.747	1272.120	965.439
118.249	17.625	1271.323	964.054
119.264	17.541	1270.022	962.511
120.279	17.589	1268.954	961.887
121.293	17.584	1267.998	961.047
122.308	17.461	1266.760	959.333
123.322	17.458	1265.396	958.197
124.337	17.448	1264.439	957.330
125.352	17.457	1263.502	956.587
126.366	17.364	1262.484	955.211
127.381	17.459	1261.468	954.891
128.395	17.507	1260.355	954.235
129.410	17.522	1259.239	953.390
130.424	17.547	1258.925	953.208
131.439	17.740	1258.133	953.600
132.454	17.738	1256.922	952.587
133.468	17.814	1256.129	952.326
134.483	17.804	1255.879	951.994
135.497	17.783	1254.394	950.672
136.512	17.691	1253.543	949.429
137.527	17.783	1252.213	948.851
138.541	17.866	1250.923	948.248
139.556	17.949	1249.730	947.720
140.570	17.915	1249.265	947.094
141.585	18.091	1247.525	946.670
142.600	18.054	1246.621	945.692
143.614	18.179	1246.017	945.841
144.629	18.178	1244.927	944.924
145.643	18.166	1244.065	944.124
146.658	18.052	1242.432	942.170
147.673	17.996	1240.931	940.642
148.687	17.849	1239.713	938.824
149.702	17.899	1237.917	937.658
150.716	17.779	1236.582	935.908
151.731	17.788	1235.371	934.956
152.746	17.857	1234.132	934.314
153.760	17.916	1233.650	934.188
154.775	17.828	1232.809	932.986
155.789	18.063	1231.304	933.049
156.804	18.097	1230.406	932.472
157.819	18.195	1228.906	931.787
158.833	18.162	1228.650	931.330
159.848	18.223	1228.015	931.096
160.862	18.270	1226.779	930.331
161.877	18.057	1225.635	928.229
162.892	17.894	1224.310	926.259
163.906	17.795	1223.472	925.003
164.921	17.926	1222.495	924.894
165.935	17.970	1221.932	924.622
166.950	17.937	1221.477	924.018
167.964	17.964	1220.695	923.490
168.979	18.000	1219.742	922.883
169.994	18.019	1218.906	922.271
171.008	18.141	1218.101	922.240
172.023	18.174	1217.554	921.921
173.037	18.379	1216.886	922.437
174.052	18.246	1215.626	920.686
175.067	18.032	1214.655	918.720
176.081	17.934	1213.759	917.434
177.096	18.003	1212.487	916.760
178.110	18.014	1211.393	915.911
179.125	17.991	1210.705	915.186
180.140	17.999	1209.999	914.615
181.154	18.263	1208.717	914.975
182.169	18.328	1207.325	914.189
183.183	18.355	1206.106	913.332
184.198	18.412	1204.807	912.570
185.213	18.364	1203.969	911.599
186.227	18.358	1202.508	910.377
187.242	18.401	1202.206	910.298
188.256	18.428	1201.529	909.846
189.271	18.518	1200.254	909.280
190.286	18.315	1198.877	907.083
191.300	17.983	1197.920	904.520
192.315	17.896	1196.927	903.226
193.329	17.892	1196.244	902.612
194.344	17.979	1196.083	902.873
195.359	18.159	1194.888	902.840
196.373	18.345	1194.152	903.182
197.388	18.274	1194.667	903.120
198.402	18.437	1194.337	903.651
199.417	18.577	1193.908	903.981
200.432	18.691	1192.639	903.542
201.446	18.817	1192.273	903.845
202.461	18.829	1191.315	903.107
203.475	18.772	1190.305	901.960
204.490	18.574	1188.885	899.765
205.504	18.524	1187.239	898.178
206.519	18.481	1186.032	896.963
207.534	18.364	1185.584	895.928
208.548	18.439	1184.470	895.403
209.563	18.486	1183.802	895.063
210.577	18.438	1182.954	894.090
211.592	18.461	1182.561	893.835
212.607	18.662	1181.271	893.829
213.621	18.719	1180.076	893.144
214.636	18.619	1179.374	892.013
215.650	18.719	1178.425	891.733
216.665	18.783	1177.825	891.533
217.680	18.875	1177.033	891.331
218.694	18.901	1176.672	891.116
219.709	19.005	1175.175	890.439
220.723	18.887	1174.502	889.244
221.738	18.792	1173.986	888.279
222.753	18.598	1173.608	886.911
223.767	18.834	1172.290	887.060
224.782	18.969	1171.798	887.301
225.796	19.029	1171.059	886.977
226.811	18.884	1170.760	885.922
227.826	18.939	1169.316	885.032
228.840	18.999	1168.696	884.794
229.855	18.696	1168.235	882.808
230.869	18.871	1167.159	882.816
231.884	18.776	1166.582	881.815
232.899	18.725	1165.551	880.694
233.913	18.536	1165.458	879.580
234.928	18.641	1164.027	878.960
235.942	18.581	1163.465	878.148
236.957	18.636	1162.624	877.717
237.972	18.625	1161.596	876.807
238.986	18.652	1161.246	876.606
240.001	18.649	1160.595	876.023
241.015	18.770	1159.407	875.664
242.030	18.723	1159.055	875.081
243.045	18.828	1158.413	875.052
244.059	18.768	1157.592	874.049
245.074	18.896	1156.902	874.101
246.088	18.971	1156.249	873.914
247.103	19.106	1155.288	873.793
248.117	19.220	1154.641	873.808
249.132	19.249	1154.269	873.593
250.147	19.433	1153.568	873.919
251.161	19.567	1153.233	874.264
252.176	19.528	1152.832	873.688
253.190	19.640	1151.935	873.497
254.205	19.602	1151.677	873.030
255.220	19.654	1150.873	872.608
256.234	19.585	1150.064	871.570
257.249	19.514	1149.632	870.806
258.263	19.553	1148.873	870.348
259.278	19.609	1147.882	869.806
260.293	19.703	1147.463	869.883
261.307	19.700	1146.896	869.360
262.322	19.714	1146.208	868.833
263.336	19.931	1145.481	869.296
264.351	19.736	1145.180	868.013
265.366	19.773	1144.256	867.422
266.380	19.771	1143.468	866.737
267.395	19.744	1142.699	865.939
268.409	19.578	1141.690	864.269
269.424	19.657	1140.959	864.034
270.439	19.572	1140.628	863.281
271.453	19.607	1139.791	862.748
272.468	19.538	1138.748	861.537
273.482	19.540	1138.068	860.958
274.497	19.583	1137.022	860.301
275.512	19.573	1136.742	859.966
276.526	19.600	1135.868	859.364
277.541	19.654	1135.139	859.002
278.555	19.637	1134.811	858.594
279.570	19.753	1134.276	858.688
280.585	19.927	1133.394	858.807
281.599	19.848	1132.347	857.546
282.614	19.749	1131.338	856.220
283.628	19.771	1129.786	855.078
284.643	19.711	1129.326	854.356
285.657	19.779	1128.131	853.711
286.672	19.566	1128.015	852.497
287.687	19.736	1126.501	852.116
288.701	19.692	1125.841	851.323
289.716	19.808	1124.927	851.129
290.730	19.640	1124.700	850.054
291.745	19.765	1124.077	850.123
292.760	19.917	1123.071	850.034
293.774	19.967	1122.706	849.929
294.789	19.964	1122.502	849.686
295.803	19.907	1122.272	849.157
296.818	19.852	1120.700	847.622
297.833	19.879	1119.961	847.120
298.847	19.829	1119.606	846.530
299.862	19.790	1118.418	845.368
300.876	19.904	1118.015	845.547
301.891	20.058	1117.095	845.524
302.906	20.123	1116.849	845.583
303.920	20.042	1116.241	844.650
304.935	20.035	1116.072	844.417
305.949	20.281	1115.309	844.959
306.964	20.341	1114.439	844.517
307.979	20.225	1113.675	843.302
308.993	20.258	1112.509	842.505
310.008	20.303	1112.005	842.266
311.022	20.314	1111.080	841.545
312.037	20.219	1110.222	840.359
313.052	20.162	1108.944	839.041
314.066	19.946	1108.544	837.621
315.081	19.918	1107.173	836.374
316.095	19.946	1106.567	835.980
317.110	19.953	1106.214	835.672
318.125	19.949	1105.124	834.754
319.139	19.912	1104.679	834.166
320.154	19.852	1103.873	833.194
321.168	20.089	1103.378	833.887
322.183	20.062	1102.511	833.029
323.197	20.130	1102.150	833.011
324.212	20.054	1101.514	832.093
325.227	20.218	1101.105	832.495
326.241	20.165	1100.674	831.843
327.256	19.892	1100.392	830.246
328.270	19.961	1099.017	829.466
329.285	20.030	1097.584	828.640
330.300	20.054	1096.946	828.202
331.314	20.047	1095.779	827.215
332.329	20.078	1094.784	826.534
333.343	20.135	1094.119	826.233
334.358	20.285	1093.424	826.347
335.373	20.238	1093.447	826.070
336.387	20.296	1092.402	825.484
337.402	20.349	1091.601	825.058
338.416	20.340	1091.065	824.534
339.431	20.391	1090.623	824.369
340.446	20.544	1090.097	824.627
341.460	20.635	1089.132	824.256
342.475	20.726	1088.287	823.972
343.489	20.729	1087.436	823.268
344.504	20.696	1087.078	822.769
345.519	20.788	1085.845	822.198
346.533	20.846	1085.508	822.146
347.548	20.800	1084.977	821.454
348.562	20.944	1083.579	821.001
349.577	20.744	1082.964	819.517
350.592	20.690	1081.750	818.274
351.606	20.422	1081.115	816.460
352.621	20.459	1080.418	816.040
353.635	20.429	1079.572	815.187
354.650	20.449	1079.316	815.013
355.665	20.443	1078.653	814.413
356.679	20.522	1078.260	814.415
357.694	20.652	1077.468	814.354
358.708	20.709	1076.708	813.971
359.723	20.725	1076.064	813.488
360.738	20.701	1075.237	812.677
361.752	20.747	1075.004	812.646
362.767	20.792	1074.440	812.356
363.781	20.784	1073.758	811.733
364.796	20.875	1073.236	811.690
365.810	20.950	1072.945	811.747
366.825	21.043	1072.490	811.764
367.840	21.282	1071.147	811.786
368.854	21.308	1070.893	811.641
369.869	21.153	1070.585	810.620
370.883	21.130	1069.528	809.640
371.898	20.952	1069.088	808.408
372.913	20.977	1068.379	807.916
373.927	21.110	1067.882	808.084
374.942	21.241	1067.256	808.147
375.956	21.157	1066.589	807.182
376.971	21.128	1066.168	806.660
377.986	21.081	1066.072	806.298
379.000	21.280	1065.212	806.494
380.015	21.417	1064.653	806.630
381.029	21.510	1063.909	806.424
382.044	21.478	1063.144	805.626
383.059	21.382	1062.170	804.376
384.073	21.484	1061.509	804.274
385.088	21.282	1060.844	802.769
386.102	21.322	1059.772	802.073
387.117	21.300	1058.249	800.746
388.132	21.161	1057.994	799.846
389.146	21.113	1057.078	798.861
390.161	21.063	1056.415	798.062
391.175	21.157	1055.419	797.669
392.190	21.264	1055.175	797.900
393.205	21.323	1054.764	797.788
394.219	21.444	1053.535	797.344
395.234	21.242	1052.488	795.559
396.248	21.226	1051.528	794.690
397.263	21.182	1050.694	793.788
398.278	21.141	1049.878	792.916
399.292	20.996	1049.355	791.791
400.307	20.992	1048.408	790.992
401.321	21.036	1047.753	790.625
402.336	21.053	1047.206	790.222
403.350	21.093	1046.233	789.598
404.365	21.179	1045.899	789.664
405.380	21.216	1045.088	789.147
406.394	21.292	1044.517	788.992
407.409	21.401	1044.005	789.025
408.423	21.386	1043.651	788.623
409.438	21.544	1042.652	788.508
410.453	21.567	1041.892	787.967
411.467	21.651	1040.938	787.556
412.482	21.649	1040.773	787.352
413.496	21.750	1040.179	787.285
414.511	21.868	1039.463	787.205
415.526	21.999	1039.199	787.521
416.540	21.982	1038.929	787.172
417.555	21.876	1038.286	786.139
418.569	21.721	1038.000	785.158
419.584	21.753	1037.318	784.718
420.599	21.890	1036.773	784.848
421.613	155.945	1401.852	1794.573
422.628	142.606	1455.045	1794.661
