DTS Sentinel unit serial number:	SN413079Multiplexer serial number:	ORYXHardware model number:	OX4-SRSoftware version number:	ORYX F/W v4.00 Oryx Data Collector v3.7.2.0data status	okinstallation	princeton_trtdifferential loss correction	single-endedforward channel	channel 2reverse channel	N/Adate	2019/09/11time	02:09:11forward acquisition time	60.00reverse acquisition time	0.00gamma	496.2192k internal	0.2332k external	0.2332temperature offset calibration	0.9945default loss term (dB/km)	0.3790temperature slope calibration	1.0000multiplexer offset coefficient	1.0000multiplexer slope coefficient	1.0000fibre end	0.00T internal ref (°C)	29.19T ext. ref 1 (°C)	-0.29T ext. ref 2 (°C)	23.16length (m)	temperature (°C)	Stokes	anti-Stokes-747.200	-155.059	0.079	0.005
-746.185	-14.093	-0.400	0.260
-745.171	-141.324	-0.305	0.031
-744.156	47.533	0.199	0.187
-743.142	87.978	0.257	0.286
-742.127	316.722	-0.187	0.356
-741.112	184.481	-0.107	-0.159
-740.098	-200.000	-0.001	-0.039
-739.083	-111.615	0.039	0.008
-738.069	140.600	-0.086	-0.115
-737.054	-72.340	-0.365	0.136
-736.039	800.000	-0.057	-0.195
-735.025	800.000	0.069	0.216
-734.010	46.880	-0.276	0.258
-732.996	-149.411	-0.097	0.008
-731.981	-60.500	-0.360	-0.154
-730.966	-200.000	0.013	0.169
-729.952	304.966	0.222	0.415
-728.937	-200.000	0.015	0.202
-727.923	-89.123	0.344	-0.102
-726.908	-58.694	-0.205	0.089
-725.894	362.024	-0.115	-0.232
-724.879	112.147	0.076	-0.092
-723.864	800.000	-0.040	0.133
-722.850	52.111	0.070	-0.067
-721.835	-84.551	-0.161	-0.051
-720.821	-49.467	-0.145	-0.070
-719.806	444.606	0.123	-0.272
-718.791	-72.733	-0.265	-0.098
-717.777	348.180	-0.119	-0.237
-716.762	471.921	0.079	-0.179
-715.748	86.053	-0.091	-0.101
-714.733	37.454	0.065	-0.058
-713.718	-200.000	0.011	-0.207
-712.704	-60.003	-0.231	0.099
-711.689	800.000	0.044	-0.167
-710.675	-171.723	0.239	0.008
-709.660	-5.181	0.207	-0.143
-708.645	625.458	-0.154	0.390
-707.631	-200.000	-0.001	-0.051
-706.616	218.923	-0.223	-0.358
-705.602	-200.000	-0.011	-0.178
-704.587	312.151	-0.039	0.073
-703.572	800.000	-0.160	0.473
-702.558	-200.000	-0.001	-0.317
-701.543	-20.391	-0.299	-0.185
-700.529	187.037	0.100	-0.150
-699.514	800.000	-0.069	0.281
-698.499	-134.807	-0.058	0.007
-697.485	89.738	0.181	-0.202
-696.470	113.611	-0.217	-0.265
-695.456	-47.070	0.191	-0.094
-694.441	-56.331	0.135	-0.060
-693.426	246.722	-0.119	-0.201
-692.412	-97.607	0.109	-0.028
-691.397	164.924	0.128	0.182
-690.383	-80.214	-0.443	0.149
-689.368	800.000	0.083	0.249
-688.354	585.481	-0.044	0.108
-687.339	800.000	0.032	0.123
-686.324	-99.901	-0.326	0.082
-685.310	-60.737	0.208	0.088
-684.295	800.000	-0.123	-0.414
-683.281	278.975	-0.093	-0.167
-682.266	800.000	0.063	-0.227
-681.251	278.480	-0.154	-0.275
-680.237	248.084	-0.096	-0.162
-679.222	449.490	0.118	-0.261
-678.208	-119.321	0.141	0.025
-677.193	-14.660	0.171	0.110
-676.178	59.681	-0.203	-0.201
-675.164	14.735	-0.176	0.138
-674.149	-126.940	-0.107	-0.016
-673.135	404.892	-0.121	-0.255
-672.120	-78.444	0.142	-0.049
-671.105	-60.594	0.187	0.080
-670.091	109.620	-0.095	0.114
-669.076	-200.000	0.010	-0.210
-668.062	46.765	-0.171	-0.160
-667.047	-96.981	-0.140	0.037
-666.032	101.099	-0.250	-0.292
-665.018	-198.682	-0.155	0.001
-664.003	53.088	-0.241	-0.231
-662.989	98.374	-0.177	-0.204
-661.974	30.695	-0.186	-0.160
-660.959	-37.241	-0.016	0.008
-659.945	-36.060	0.170	-0.092
-658.930	73.966	0.138	-0.145
-657.916	-88.629	-0.197	0.059
-656.901	-173.288	-0.210	-0.006
-655.886	-200.000	-0.057	-0.252
-654.872	-26.596	-0.252	0.148
-653.857	641.181	0.032	-0.082
-652.843	-200.000	0.057	-0.255
-651.828	345.653	-0.020	-0.040
-650.814	239.499	-0.119	-0.198
-649.799	-50.946	-0.125	0.059
-648.784	-200.000	0.060	0.351
-647.770	80.293	0.191	-0.206
-646.755	333.851	-0.068	-0.132
-645.741	-200.000	0.019	0.248
-644.726	800.000	0.008	-0.027
-643.711	299.189	-0.029	0.054
-642.697	40.611	-0.158	0.143
-641.682	-179.268	0.079	-0.002
-640.668	67.596	-0.140	-0.143
-639.653	210.556	-0.159	0.250
-638.638	98.468	-0.068	0.078
-637.624	619.698	0.089	-0.225
-636.609	-169.119	0.402	0.015
-635.595	800.000	0.044	-0.136
-634.580	7.832	0.143	0.107
-633.565	-200.000	0.010	-0.130
-632.551	-97.617	0.153	0.040
-631.536	2.915	-0.272	-0.198
-630.522	-200.000	-0.003	-0.101
-629.507	351.241	-0.186	-0.369
-628.492	-200.000	0.023	-0.237
-627.478	-96.294	0.030	0.008
-626.463	-74.840	0.138	-0.049
-625.449	-132.762	-0.130	-0.017
-624.434	-13.042	-0.188	-0.122
-623.419	-200.000	0.032	-0.258
-622.405	-200.000	0.029	-0.221
-621.390	800.000	-0.076	-0.251
-620.376	178.387	-0.159	-0.233
-619.361	-200.000	0.043	-0.193
-618.346	50.136	-0.195	-0.184
-617.332	379.475	-0.030	0.062
-616.317	221.884	-0.096	-0.154
-615.303	44.868	0.112	0.103
-614.288	2.080	-0.126	0.091
-613.273	-83.155	-0.252	0.081
-612.259	726.228	-0.006	0.016
-611.244	-200.000	0.011	0.071
-610.230	-20.434	-0.161	0.099
-609.215	-200.000	-0.041	-0.190
-608.201	-189.341	0.352	0.004
-607.186	-200.000	-0.066	0.354
-606.171	8.271	-0.344	-0.258
-605.157	800.000	-0.059	-0.198
-604.142	-200.000	-0.008	-0.081
-603.128	131.158	0.079	-0.102
-602.113	210.167	-0.261	-0.410
-601.098	-11.056	-0.155	-0.102
-600.084	147.749	0.061	-0.082
-599.069	34.131	-0.361	-0.315
-598.055	33.871	-0.040	0.035
-597.040	6.577	0.049	-0.037
-596.025	-200.000	-0.061	0.384
-595.011	800.000	-0.048	-0.181
-593.996	-84.512	-0.091	0.029
-592.982	50.824	0.208	-0.197
-591.967	800.000	-0.021	-0.070
-590.952	-87.720	0.304	0.092
-589.938	-84.656	0.218	-0.069
-588.923	-37.492	-0.332	0.177
-587.909	-51.595	-0.122	-0.057
-586.894	52.479	-0.151	0.144
-585.879	-200.000	-0.067	0.480
-584.865	-78.894	-0.179	0.061
-583.850	-200.000	-0.073	-0.322
-582.836	-6.823	-0.176	-0.119
-581.821	335.354	0.218	-0.422
-580.806	345.353	-0.068	0.134
-579.792	-108.180	-0.324	0.070
-578.777	-200.000	0.038	-0.187
-577.763	-151.716	0.236	-0.017
-576.748	-200.000	0.002	0.176
-575.733	-148.433	-0.201	0.016
-574.719	-46.293	-0.327	-0.161
-573.704	103.766	-0.081	-0.095
-572.690	53.616	0.190	0.182
-571.675	-48.946	-0.171	-0.082
-570.661	-125.671	-0.154	0.023
-569.646	-134.553	-0.175	0.021
-568.631	800.000	-0.161	0.469
-567.617	800.000	0.071	0.294
-566.602	-200.000	-0.031	0.432
-565.588	-86.911	0.121	-0.037
-564.573	-200.000	-0.001	-0.380
-563.558	116.104	0.275	-0.337
-562.544	243.120	-0.042	0.071
-561.529	-134.096	0.291	-0.036
-560.515	-26.124	0.129	0.075
-559.500	-200.000	-0.040	0.245
-558.485	-102.238	0.151	0.036
-557.471	-54.973	-0.189	-0.085
-556.456	-78.274	0.071	-0.024
-555.442	59.124	-0.105	0.104
-554.427	125.408	0.201	-0.253
-553.412	800.000	-0.064	0.201
-552.398	-66.588	-0.276	0.109
-551.383	-200.000	0.026	0.122
-550.369	-77.304	0.293	0.102
-549.354	800.000	0.041	-0.133
-548.339	52.627	-0.147	-0.140
-547.325	-36.741	-0.108	0.058
-546.310	-10.235	0.165	-0.110
-545.296	800.000	-0.033	-0.095
-544.281	-103.059	0.137	0.032
-543.266	-133.109	-0.405	-0.051
-542.252	-200.000	0.005	-0.076
-541.237	-200.000	0.012	0.376
-540.223	-200.000	-0.004	0.132
-539.208	-61.343	-0.278	-0.117
-538.193	62.784	-0.234	-0.233
-537.179	-126.778	0.417	-0.062
-536.164	-146.083	-0.126	-0.011
-535.150	-200.000	-0.060	0.295
-534.135	538.485	0.053	0.126
-533.121	-15.733	-0.036	0.023
-532.106	-98.378	-0.236	-0.060
-531.091	57.731	-0.244	-0.239
-530.077	-86.105	0.277	-0.085
-529.062	-200.000	-0.041	-0.252
-528.048	159.120	-0.055	0.077
-527.033	-75.154	-0.152	0.054
-526.018	-80.244	0.130	0.043
-525.004	455.297	-0.119	-0.262
-523.989	800.000	-0.050	-0.190
-522.975	16.034	-0.295	-0.232
-521.960	96.711	-0.066	0.076
-520.945	800.000	-0.118	0.367
-519.931	-65.937	0.301	-0.120
-518.916	-70.377	0.236	0.089
-517.902	78.192	-0.072	-0.077
-516.887	-95.922	-0.105	-0.028
-515.872	438.037	-0.073	0.158
-514.858	681.484	-0.112	-0.290
-513.843	-39.077	0.246	0.129
-512.829	-153.287	0.416	0.029
-511.814	-200.000	-0.022	0.120
-510.799	-200.000	0.002	0.248
-509.785	-72.466	-0.189	-0.069
-508.770	-140.445	0.203	-0.021
-507.756	421.792	-0.059	0.127
-506.741	398.350	0.057	0.119
-505.726	54.347	0.210	-0.201
-504.712	-178.986	0.206	-0.005
-503.697	371.144	-0.061	-0.123
-502.683	-167.465	0.033	0.001
-501.668	-163.129	-0.121	0.006
-500.653	-79.850	-0.150	0.050
-499.639	311.124	0.089	-0.166
-498.624	-151.912	-0.125	-0.009
-497.610	800.000	0.021	-0.089
-496.595	-65.646	-0.104	0.041
-495.581	80.265	0.026	0.028
-494.566	-2.286	-0.170	0.119
-493.551	82.160	0.103	0.111
-492.537	-7.437	-0.110	-0.074
-491.522	124.883	-0.132	-0.166
-490.508	-200.000	0.070	0.000
-489.493	-77.997	0.174	0.060
-488.478	189.409	-0.082	-0.122
-487.464	434.009	-0.062	0.134
-486.449	-200.000	0.012	-0.213
-485.435	-23.258	0.310	-0.185
-484.420	-74.918	0.089	0.032
-483.405	154.519	-0.148	-0.203
-482.391	-200.000	0.045	-0.204
-481.376	20.519	0.066	-0.053
-480.362	-200.000	-0.017	0.181
-479.347	-99.422	0.108	0.027
-478.332	165.338	0.156	0.219
-477.318	-18.251	0.089	0.056
-476.303	677.526	-0.054	0.140
-475.289	86.375	0.169	0.186
-474.274	38.943	0.074	0.066
-473.259	-56.067	0.061	0.027
-472.245	212.197	0.323	-0.507
-471.230	-48.532	0.168	-0.081
-470.216	234.974	0.062	0.102
-469.201	87.865	-0.147	-0.162
-468.186	375.593	-0.101	-0.205
-467.172	-59.355	0.283	-0.121
-466.157	-150.960	-0.223	0.017
-465.143	44.323	0.084	-0.076
-464.128	-141.084	0.046	0.005
-463.113	-200.000	-0.036	0.270
-462.099	-47.725	0.215	-0.104
-461.084	68.183	-0.029	0.030
-460.070	15.979	0.148	0.116
-459.055	68.767	0.162	-0.166
-458.040	800.000	0.071	-0.204
-457.026	-156.596	-0.157	0.010
-456.011	800.000	-0.050	0.176
-454.997	-200.000	-0.042	0.198
-453.982	800.000	-0.030	-0.107
-452.968	235.612	-0.172	-0.283
-451.953	56.680	0.148	-0.143
-450.938	-2.689	0.126	-0.088
-449.924	-30.199	0.030	0.017
-448.909	622.628	-0.074	-0.187
-447.895	117.103	0.196	-0.239
-446.880	-200.000	0.017	-0.208
-445.865	4.588	-0.317	0.232
-444.851	60.715	-0.168	0.165
-443.836	-200.000	-0.040	0.188
-442.822	800.000	0.029	0.083
-441.807	-132.632	0.141	0.018
-440.792	-113.242	-0.357	-0.070
-439.778	-104.397	-0.216	-0.050
-438.763	323.769	-0.121	0.229
-437.749	161.784	0.109	-0.152
-436.734	-81.020	-0.436	0.143
-435.719	-91.688	0.388	-0.110
-434.705	94.177	-0.135	-0.152
-433.690	354.044	0.081	0.160
-432.676	-69.384	0.195	0.074
-431.661	54.659	-0.132	-0.126
-430.646	800.000	0.076	0.304
-429.632	-91.344	0.218	0.062
-428.617	243.437	-0.204	0.339
-427.603	697.997	0.104	-0.271
-426.588	144.356	-0.241	0.319
-425.573	44.623	0.173	-0.158
-424.559	-62.859	0.263	-0.108
-423.544	-200.000	0.010	0.284
-422.530	64.177	0.386	0.386
-421.515	402.768	-0.076	0.159
-420.500	-16.494	0.083	-0.052
-419.486	286.629	-0.204	-0.366
-418.471	203.465	0.091	-0.140
-417.457	-108.397	0.193	-0.041
-416.442	-80.261	0.178	0.059
-415.428	-49.615	0.179	-0.085
-414.413	241.238	0.164	0.272
-413.398	800.000	0.058	0.212
-412.384	-200.000	-0.057	0.324
-411.369	-143.014	0.195	0.019
-410.355	800.000	0.016	-0.050
-409.340	255.673	0.044	0.075
-408.325	-198.595	0.138	0.001
-407.311	-24.522	-0.529	0.313
-406.296	32.584	-0.137	0.117
-405.282	99.142	-0.120	0.138
-404.267	320.278	0.133	0.251
-403.252	-97.238	0.166	-0.043
-402.238	-200.000	0.011	0.209
-401.223	102.078	0.023	-0.026
-400.209	144.909	-0.115	0.153
-399.194	3.033	0.303	0.219
-398.179	16.204	-0.206	-0.161
-397.165	-173.586	0.074	0.002
-396.150	-200.000	-0.027	-0.235
-395.136	-200.000	-0.072	-0.326
-394.121	-200.000	-0.013	-0.151
-393.106	-200.000	-0.001	-0.093
-392.092	-180.511	0.248	0.005
-391.077	-167.638	0.513	-0.020
-390.063	255.947	0.091	0.155
-389.048	51.081	-0.038	0.036
-388.033	361.179	0.092	-0.184
-387.019	-160.554	-0.208	-0.011
-386.004	366.349	0.027	0.054
-384.990	800.000	0.100	0.318
-383.975	49.530	0.444	-0.415
-382.960	-194.017	-0.088	0.001
-381.946	-100.264	0.126	-0.031
-380.931	-200.000	0.046	-0.279
-379.917	-117.751	-0.292	0.052
-378.902	42.970	-0.154	0.139
-377.888	-200.000	-0.004	-0.091
-376.873	800.000	-0.039	0.165
-375.858	800.000	0.113	-0.326
-374.844	-3.774	0.017	0.012
-373.829	-10.380	-0.180	-0.118
-372.815	-110.423	0.221	-0.045
-371.800	-18.043	0.169	-0.105
-370.785	-28.929	0.087	0.050
-369.771	-72.116	-0.141	0.052
-368.756	103.601	0.259	-0.302
-367.742	587.944	-0.031	-0.076
-366.727	275.032	-0.131	0.231
-365.712	-76.950	-0.207	0.072
-364.698	209.565	0.044	0.068
-363.683	800.000	0.078	-0.223
-362.669	-200.000	0.028	0.232
-361.654	28.411	0.111	-0.093
-360.639	79.410	-0.062	-0.066
-359.625	-151.619	0.110	0.008
-358.610	-72.361	0.041	0.015
-357.596	-152.488	-0.186	-0.013
-356.581	-15.365	-0.247	-0.156
-355.566	-5.881	-0.110	0.075
-354.552	-200.000	-0.008	-0.140
-353.537	746.799	-0.100	-0.267
-352.523	-106.459	0.277	0.061
-351.508	40.955	0.338	-0.303
-350.493	-92.284	-0.149	-0.042
-349.479	-200.000	0.022	-0.110
-348.464	-74.438	-0.257	0.092
-347.450	20.044	-0.080	-0.064
-346.435	800.000	-0.095	-0.331
-345.420	-5.619	-0.208	-0.141
-344.406	-193.958	-0.322	0.003
-343.391	94.174	0.154	0.173
-342.377	-200.000	0.004	-0.197
-341.362	3.079	-0.119	-0.085
-340.348	-18.369	-0.359	0.222
-339.333	97.399	-0.086	0.098
-338.318	141.832	-0.247	0.324
-337.304	221.758	-0.028	0.045
-336.289	-106.292	0.104	0.023
-335.275	53.655	0.160	0.152
-334.260	-62.008	-0.394	0.163
-333.245	30.089	0.079	0.066
-332.231	-200.000	-0.018	0.185
-331.216	221.371	-0.249	0.396
-330.202	528.268	-0.031	-0.073
-329.187	102.087	0.061	0.070
-328.172	-81.477	0.192	-0.063
-327.158	286.842	0.186	-0.333
-326.143	-200.000	-0.003	-0.171
-325.129	55.975	0.059	-0.056
-324.114	-200.000	-0.040	0.232
-323.099	-200.000	0.023	0.116
-322.085	-46.780	0.282	-0.137
-321.070	-200.000	0.073	-0.354
-320.056	-124.398	0.234	-0.036
-319.041	-124.180	-0.239	0.037
-318.026	112.603	-0.139	-0.167
-317.012	695.274	0.040	-0.103
-315.997	213.046	-0.075	0.117
-314.983	16.676	-0.232	0.182
-313.968	221.282	-0.020	-0.032
-312.953	-113.907	-0.285	0.055
-311.939	44.749	0.310	-0.282
-310.924	-132.714	0.154	0.019
-309.910	96.159	-0.109	0.123
-308.895	-200.000	0.070	0.370
-307.880	-200.000	0.050	0.322
-306.866	205.278	0.136	0.208
-305.851	8.030	-0.096	0.071
-304.837	19.892	0.116	0.092
-303.822	144.592	0.061	0.081
-302.807	-155.835	0.430	-0.027
-301.793	-152.594	-0.097	-0.007
-300.778	709.105	-0.044	-0.114
-299.764	-34.835	0.363	0.196
-298.749	-72.417	-0.279	0.102
-297.735	-27.290	0.177	-0.102
-296.720	-200.000	0.022	0.136
-295.705	192.486	0.126	0.188
-294.691	659.135	-0.031	0.078
-293.676	-200.000	0.008	0.164
-292.662	800.000	-0.072	-0.218
-291.647	360.429	0.069	-0.137
-290.632	-117.271	0.133	0.024
-289.618	800.000	0.070	0.263
-288.603	559.527	-0.042	0.101
-287.589	-106.891	-0.260	-0.057
-286.574	313.190	-0.023	-0.043
-285.559	-72.133	0.226	0.083
-284.545	172.303	-0.058	-0.083
-283.530	-94.147	0.103	-0.028
-282.516	732.358	0.070	0.186
-281.501	-88.622	-0.224	-0.066
-280.486	-26.325	0.219	0.127
-279.472	119.168	-0.072	-0.088
-278.457	800.000	0.086	-0.251
-277.443	-193.087	-0.031	0.000
-276.428	800.000	0.046	-0.127
-275.413	-200.000	0.090	0.454
-274.399	296.623	-0.094	0.171
-273.384	-20.210	0.045	-0.027
-272.370	-200.000	-0.506	0.002
-271.355	436.040	0.067	0.145
-270.340	8.987	0.197	-0.147
-269.326	9.592	-0.215	-0.161
-268.311	9.873	-0.311	0.233
-267.297	-143.091	0.173	-0.017
-266.282	800.000	-0.154	-0.637
-265.267	39.663	0.263	-0.233
-264.253	-171.317	-0.158	0.005
-263.238	-108.944	-0.193	-0.041
-262.224	-73.900	0.019	-0.007
-261.209	-200.000	0.018	-0.154
-260.195	-2.235	-0.166	0.115
-259.180	-200.000	0.038	-0.470
-258.165	95.512	0.062	-0.069
-257.151	21.578	-0.147	-0.118
-256.136	-200.000	-0.138	-0.000
-255.122	-104.780	0.169	0.038
-254.107	-134.462	0.129	-0.016
-253.092	-68.051	0.261	0.100
-252.078	-85.868	-0.075	-0.023
-251.063	-200.000	0.055	0.407
-250.049	57.475	-0.182	0.176
-249.034	-52.729	-0.031	-0.014
-248.019	-200.000	-0.049	0.260
-247.005	496.907	0.115	0.260
-245.990	551.973	0.061	-0.146
-244.976	-200.000	-0.053	-0.336
-243.961	75.516	-0.219	-0.228
-242.946	673.542	0.027	-0.069
-241.932	-94.045	0.103	0.028
-240.917	800.000	-0.014	0.037
-239.903	14.534	-0.214	0.165
-238.888	-43.378	0.176	0.088
-237.873	-99.711	-0.179	-0.044
-236.859	115.633	0.102	0.123
-235.844	800.000	0.021	-0.087
-234.830	682.301	-0.083	-0.213
-233.815	-200.000	-0.072	0.382
-232.800	165.544	-0.121	-0.169
-231.786	-200.000	0.029	0.210
-230.771	264.854	-0.195	-0.334
-229.757	-85.274	0.193	-0.060
-228.742	180.568	0.125	0.182
-227.727	800.000	-0.022	0.077
-226.713	-25.490	-0.176	-0.102
-225.698	-155.301	0.482	0.031
-224.684	-148.425	0.076	-0.006
-223.669	-43.803	0.344	-0.171
-222.655	483.450	-0.133	-0.298
-221.640	112.028	0.175	0.208
-220.625	318.664	0.113	-0.211
-219.611	-1.167	0.171	0.119
-218.596	519.080	0.142	0.327
-217.582	-93.359	-0.302	-0.083
-216.567	653.113	-0.044	-0.111
-215.552	-13.155	-0.168	-0.108
-214.538	-13.307	0.103	0.066
-213.523	504.957	-0.194	0.443
-212.509	-154.929	-0.272	0.018
-211.494	-112.790	0.313	0.061
-210.479	-144.555	-0.046	-0.004
-209.465	162.217	0.067	-0.092
-208.450	-60.942	-0.236	0.098
-207.436	43.140	0.012	0.011
-206.421	68.270	0.145	0.147
-205.406	-200.000	0.049	0.336
-204.392	214.791	0.057	0.089
-203.377	-118.802	-0.050	-0.009
-202.363	800.000	0.130	0.380
-201.348	-93.868	0.129	0.035
-200.333	-97.659	-0.312	0.080
-199.319	800.000	-0.089	-0.278
-198.304	-200.000	-0.016	0.231
-197.290	-34.049	-0.143	-0.077
-196.275	231.092	-0.121	0.195
-195.260	800.000	0.043	0.178
-194.246	-200.000	-0.023	-0.207
-193.231	-23.652	0.209	0.124
-192.217	561.518	-0.165	0.392
-191.202	800.000	-0.062	-0.231
-190.187	-200.000	-0.035	0.318
-189.173	-127.821	-0.283	-0.040
-188.158	-72.303	-0.143	-0.052
-187.144	-83.405	0.184	-0.058
-186.129	367.186	0.056	-0.110
-185.114	523.451	0.072	0.167
-184.100	-200.000	0.002	0.051
-183.085	26.708	-0.188	0.155
-182.071	-200.000	-0.019	0.219
-181.056	-181.856	-0.152	0.003
-180.042	31.452	0.123	0.104
-179.027	181.088	0.058	-0.084
-178.012	363.987	0.076	-0.150
-176.998	-148.400	0.086	-0.007
-175.983	103.167	0.307	0.354
-174.969	199.803	-0.105	0.159
-173.954	-200.000	-0.022	-0.353
-172.939	-135.314	0.285	0.034
-171.925	-111.719	-0.014	-0.003
-170.910	800.000	-0.130	0.390
-169.896	800.000	0.067	-0.223
-168.881	-200.000	0.041	0.216
-167.866	106.409	-0.264	0.308
-166.852	800.000	-0.030	-0.100
-165.837	-95.339	0.413	-0.109
-164.823	-81.072	0.120	-0.039
-163.808	140.230	-0.155	0.201
-162.793	-200.000	0.018	-0.323
-161.779	-84.747	0.047	-0.014
-160.764	446.959	0.072	-0.155
-159.750	-200.000	-0.213	0.001
-158.735	-118.820	-0.111	-0.019
-157.720	-68.438	-0.054	-0.021
-156.706	456.213	0.046	-0.099
-155.691	18.796	0.324	-0.255
-154.677	-133.160	0.337	0.042
-153.662	-178.768	0.100	-0.002
-152.647	-115.474	0.360	0.067
-151.633	-56.582	-0.247	-0.107
-150.618	41.717	-0.286	0.255
-149.604	-139.221	0.401	-0.042
-148.589	-81.751	0.357	0.115
-147.574	172.749	0.079	0.112
-146.560	-200.000	-0.001	0.283
-145.545	200.276	-0.119	0.180
-144.531	355.464	-0.096	0.187
-143.516	93.097	-0.062	-0.069
-142.502	-31.333	0.172	0.095
-141.487	-200.000	-0.009	-0.163
-140.472	-95.418	-0.079	-0.021
-139.458	-157.940	0.089	0.005
-138.443	789.580	0.145	0.391
-137.429	193.790	-0.215	0.319
-136.414	800.000	-0.122	-0.384
-135.399	83.657	0.115	-0.123
-134.385	-191.561	-0.269	-0.003
-133.370	207.189	0.213	-0.326
-132.356	54.693	0.083	0.078
-131.341	13.524	-0.198	-0.151
-130.326	152.420	0.125	0.167
-129.312	-26.572	0.124	-0.071
-128.297	-34.769	0.295	-0.158
-127.283	111.569	-0.065	-0.077
-126.268	-26.024	0.261	-0.151
-125.253	181.524	0.112	-0.162
-124.239	-103.918	-0.329	0.075
-123.224	-200.000	0.005	-0.139
-122.210	800.000	0.041	-0.151
-121.195	-147.454	0.249	-0.021
-120.180	-92.119	0.195	0.054
-119.166	-33.768	-0.146	-0.079
-118.151	-47.735	0.055	-0.026
-117.137	-112.215	0.183	-0.036
-116.122	219.448	0.105	-0.165
-115.107	-142.258	0.119	0.012
-114.093	-84.419	0.195	0.060
-113.078	1.676	0.266	-0.188
-112.064	800.000	-0.161	-0.447
-111.049	-166.610	0.401	-0.016
-110.034	-99.325	0.251	-0.062
-109.020	-200.000	0.031	-0.235
-108.005	-110.672	-0.312	0.063
-106.991	-113.092	0.083	0.016
-105.976	-200.000	-0.014	-0.075
-104.962	85.378	-0.023	0.024
-103.947	387.736	-0.147	-0.299
-102.932	54.749	0.039	0.037
-101.918	-74.066	0.207	-0.074
-100.903	30.815	0.237	0.199
-99.889	800.000	-0.039	-0.164
-98.874	-18.332	-0.229	-0.141
-97.859	109.251	0.111	0.130
-96.845	-53.360	-0.226	0.101
-95.830	-33.757	-0.514	-0.278
-94.816	800.000	-0.085	0.247
-93.801	-200.000	0.072	0.447
-92.786	26.349	0.178	-0.146
-91.772	207.379	-0.099	-0.152
-90.757	-200.000	0.008	0.281
-89.743	-71.469	0.194	-0.071
-88.728	-100.132	0.368	-0.090
-87.713	146.473	0.114	-0.150
-86.699	-109.346	0.115	-0.024
-85.684	219.368	0.209	0.327
-84.670	695.465	0.032	0.083
-83.655	-200.000	-0.039	-0.330
-82.640	69.662	-0.133	-0.135
-81.626	-125.841	0.222	-0.033
-80.611	-66.675	-0.142	-0.055
-79.597	-69.210	-0.412	-0.155
-78.582	-77.776	0.160	0.054
-77.567	-96.207	0.171	0.045
-76.553	-63.738	0.134	0.054
-75.538	452.051	0.113	-0.245
-74.524	100.260	-0.171	-0.195
-73.509	-72.743	-0.306	-0.110
-72.494	-141.536	-0.106	0.011
-71.480	-122.980	-0.225	-0.035
-70.465	81.534	-0.116	0.123
-69.451	8.183	-0.153	-0.112
-68.436	148.339	-0.069	-0.091
-67.422	-8.737	-0.077	-0.050
-66.407	21.446	0.248	0.197
-65.392	30.863	-0.208	-0.175
-64.378	-101.178	-0.354	0.085
-63.363	-10.049	-0.172	0.112
-62.349	-8.557	0.076	0.050
-61.334	91.848	-1.004	-1.106
-60.319	-9.757	0.319	0.208
-59.305	274.797	-0.578	-1.002
-58.290	306.770	0.613	1.119
-57.276	273.529	0.821	1.421
-56.261	-200.000	107.479	626.316
-55.246	520.128	1515.641	3479.329
-54.232	174.591	2714.600	3845.343
-53.217	104.792	2298.403	2653.067
-52.203	38.483	1903.072	1661.237
-51.188	32.309	1689.293	1427.859
-50.173	29.797	1645.570	1372.243
-49.159	48.796	1700.259	1561.681
-48.144	48.917	1715.502	1576.529
-47.130	31.942	1672.259	1410.480
-46.115	29.171	1658.055	1377.750
-45.100	29.176	1652.586	1373.187
-44.086	29.094	1649.939	1370.327
-43.071	29.028	1647.453	1367.715
-42.057	28.983	1645.276	1365.521
-41.042	28.996	1643.268	1363.897
-40.027	29.166	1640.691	1362.959
-39.013	29.082	1639.255	1361.096
-37.998	29.042	1637.864	1359.588
-36.984	28.994	1636.761	1358.263
-35.969	29.185	1634.505	1357.748
-34.954	29.269	1633.092	1357.141
-33.940	29.150	1631.457	1354.851
-32.925	29.131	1629.805	1353.285
-31.911	29.125	1627.791	1351.513
-30.896	29.228	1625.718	1350.496
-29.881	29.142	1624.836	1349.076
-28.867	29.141	1623.306	1347.746
-27.852	29.254	1621.110	1346.695
-26.838	29.244	1619.574	1345.295
-25.823	29.273	1618.481	1344.545
-24.809	29.152	1617.605	1342.880
-23.794	29.174	1616.257	1341.869
-22.779	29.222	1614.262	1340.512
-21.765	29.174	1613.074	1339.119
-20.750	29.150	1610.939	1337.121
-19.736	29.238	1609.407	1336.432
-18.721	29.237	1608.123	1335.309
-17.706	29.176	1606.976	1333.862
-16.692	29.214	1605.100	1332.524
-15.677	29.266	1603.694	1331.679
-14.663	29.241	1602.691	1330.611
-13.648	29.210	1601.361	1329.232
-12.633	29.222	1599.820	1327.987
-11.619	29.219	1598.357	1326.703
-10.604	29.230	1596.347	1325.056
-9.590	29.282	1595.135	1324.374
-8.575	29.211	1594.343	1323.150
-7.560	29.188	1593.381	1322.140
-6.546	29.278	1591.968	1321.557
-5.531	29.265	1591.015	1320.620
-4.517	29.193	1589.582	1318.862
-3.502	29.250	1588.461	1318.292
-2.487	29.364	1586.778	1317.655
-1.473	29.025	1575.038	1305.448
-0.458	26.325	1555.431	1270.203
0.556	20.696	1557.244	1240.674
1.571	18.518	1582.911	1245.215
2.586	18.319	1596.182	1254.084
3.600	16.728	1543.309	1201.158
4.615	8.956	1433.789	1064.418
5.629	1.316	1369.732	968.188
6.644	-0.180	1362.196	953.288
7.659	-0.295	1360.783	951.486
8.673	-0.358	1360.042	950.480
9.688	-0.327	1357.592	948.878
10.702	-0.577	1354.950	945.373
11.717	2.650	1360.564	969.638
12.731	11.828	1378.083	1040.626
13.746	19.378	1391.420	1098.898
14.761	21.370	1394.191	1113.692
15.775	21.619	1394.121	1115.121
16.790	21.674	1393.793	1115.113
17.804	21.738	1392.959	1114.749
18.819	21.958	1392.548	1115.724
19.834	22.193	1391.682	1116.422
20.848	22.136	1391.118	1115.509
21.863	22.125	1390.267	1114.662
22.877	22.216	1389.447	1114.478
23.892	22.119	1388.569	1113.061
24.907	22.109	1387.616	1112.140
25.921	22.140	1386.632	1111.447
26.936	22.195	1385.536	1110.815
27.950	22.119	1384.851	1109.688
28.965	22.218	1383.249	1108.929
29.980	22.108	1382.309	1107.390
30.994	22.178	1380.972	1106.656
32.009	22.185	1379.883	1105.733
33.023	22.128	1378.748	1104.369
34.038	22.142	1377.766	1103.569
35.053	22.070	1376.829	1102.271
36.067	22.111	1375.898	1101.682
37.082	22.147	1374.651	1100.815
38.096	22.243	1373.790	1100.631
39.111	22.166	1373.390	1099.726
40.126	22.173	1372.755	1099.169
41.140	22.177	1371.796	1098.325
42.155	22.167	1371.615	1098.020
43.169	22.117	1371.695	1097.678
44.184	22.126	1371.174	1097.221
45.199	22.040	1370.893	1096.361
46.213	22.132	1370.262	1096.334
47.228	22.098	1369.319	1095.266
48.242	22.129	1367.977	1094.289
49.257	22.098	1366.846	1093.096
50.271	22.141	1365.208	1091.958
51.286	22.148	1363.590	1090.610
52.301	22.170	1362.960	1090.144
53.315	22.074	1362.216	1088.857
54.330	22.185	1361.066	1088.530
55.344	22.037	1359.953	1086.629
56.359	22.063	1358.801	1085.776
57.374	22.038	1357.965	1084.856
58.388	22.123	1357.498	1084.913
59.403	22.172	1356.958	1084.684
60.417	22.139	1356.494	1084.014
61.432	22.102	1355.395	1082.811
62.447	22.180	1354.651	1082.605
63.461	22.097	1353.949	1081.433
64.476	22.203	1352.288	1080.662
65.490	22.137	1351.454	1079.499
66.505	22.188	1349.465	1078.125
67.520	22.256	1348.343	1077.553
68.534	22.175	1347.833	1076.554
69.549	22.245	1346.429	1075.764
70.563	22.163	1345.550	1074.466
71.578	22.132	1345.048	1073.782
72.593	22.194	1343.968	1073.198
73.607	22.170	1343.041	1072.219
74.622	22.201	1342.330	1071.748
75.636	22.146	1341.980	1071.038
76.651	22.272	1340.515	1070.539
77.666	22.184	1340.759	1070.105
78.680	22.234	1339.808	1069.551
79.695	22.220	1339.085	1068.796
80.709	22.204	1338.186	1067.887
81.724	22.228	1337.687	1067.540
82.739	22.219	1336.341	1066.314
83.753	22.190	1335.284	1065.205
84.768	22.181	1334.526	1064.450
85.782	22.083	1333.736	1063.130
86.797	22.172	1332.369	1062.484
87.812	22.130	1331.057	1061.094
88.826	22.244	1329.826	1060.708
89.841	22.240	1328.832	1059.797
90.855	22.221	1328.075	1058.985
91.870	22.297	1326.957	1058.457
92.884	22.277	1326.000	1057.480
93.899	22.228	1325.242	1056.485
94.914	22.304	1324.431	1056.201
95.928	22.180	1323.795	1054.858
96.943	22.218	1322.656	1054.083
97.957	22.250	1322.244	1053.851
98.972	22.260	1321.371	1053.123
99.987	22.231	1320.237	1051.952
101.001	22.181	1319.207	1050.739
102.016	22.197	1318.337	1050.050
103.030	22.175	1317.692	1049.312
104.045	22.278	1316.493	1048.878
105.060	22.322	1315.483	1048.243
106.074	22.276	1314.814	1047.346
107.089	22.350	1313.371	1046.544
108.103	22.304	1312.361	1045.370
109.118	22.422	1311.180	1045.037
110.133	22.310	1310.314	1043.595
111.147	22.377	1309.100	1042.929
112.162	22.332	1307.751	1041.496
113.176	22.292	1307.006	1040.575
114.191	22.368	1306.101	1040.214
115.206	22.387	1304.797	1039.195
116.220	22.307	1303.749	1037.795
117.235	22.344	1302.561	1036.973
118.249	22.205	1301.974	1035.597
119.264	22.325	1300.708	1035.204
120.279	22.351	1300.297	1034.941
121.293	22.415	1299.593	1034.662
122.308	22.406	1298.132	1033.354
123.322	22.342	1297.763	1032.598
124.337	22.489	1296.435	1032.311
125.352	22.394	1295.604	1031.000
126.366	22.458	1294.568	1030.459
127.381	22.332	1294.182	1029.323
128.395	22.378	1292.895	1028.479
129.410	22.395	1291.698	1027.530
130.424	22.391	1291.067	1026.918
131.439	22.346	1290.711	1026.282
132.454	22.286	1289.990	1025.267
133.468	22.358	1288.780	1024.631
134.483	22.471	1288.079	1024.645
135.497	22.198	1287.871	1022.798
136.512	22.304	1286.323	1022.093
137.527	22.369	1285.109	1021.414
138.541	22.438	1283.520	1020.461
139.556	22.312	1282.682	1018.975
140.570	22.307	1281.836	1018.189
141.585	22.345	1280.677	1017.394
142.600	22.233	1279.661	1015.848
143.614	22.340	1278.922	1015.792
144.629	22.345	1277.997	1014.993
145.643	22.240	1276.928	1013.453
146.658	22.223	1276.077	1012.590
147.673	22.314	1274.459	1011.740
148.687	22.200	1273.772	1010.450
149.702	22.239	1272.748	1009.769
150.716	22.273	1271.471	1008.863
151.731	22.324	1270.422	1008.236
152.746	22.375	1269.531	1007.730
153.760	22.381	1268.327	1006.720
154.775	22.304	1267.906	1005.858
155.789	22.362	1266.510	1004.990
156.804	22.357	1265.507	1004.077
157.819	22.337	1264.695	1003.230
158.833	22.529	1263.825	1003.547
159.848	22.420	1263.229	1002.365
160.862	22.391	1262.373	1001.429
161.877	22.449	1261.645	1001.093
162.892	22.449	1260.695	1000.251
163.906	22.419	1260.111	999.528
164.921	22.383	1259.530	998.774
165.935	22.526	1258.321	998.537
166.950	22.503	1257.945	998.024
167.964	22.465	1257.424	997.306
168.979	22.532	1257.071	997.315
169.994	22.458	1256.545	996.391
171.008	22.461	1255.570	995.546
172.023	22.486	1255.029	995.170
173.037	22.469	1253.992	994.167
174.052	22.491	1253.504	993.813
175.067	22.627	1252.357	993.586
176.081	22.545	1251.472	992.333
177.096	22.531	1250.574	991.452
178.110	22.507	1250.140	990.889
179.125	22.513	1249.183	990.076
180.140	22.499	1248.161	989.097
181.154	22.567	1246.649	988.191
182.169	22.604	1245.427	987.344
183.183	22.558	1244.621	986.361
184.198	22.632	1243.486	985.789
185.213	22.638	1242.470	984.929
186.227	22.638	1241.900	984.389
187.242	22.723	1240.735	983.852
188.256	22.533	1240.073	982.182
189.271	22.634	1238.963	981.778
190.286	22.652	1238.520	981.441
191.300	22.573	1237.961	980.472
192.315	22.537	1237.343	979.695
193.329	22.544	1237.225	979.552
194.344	22.627	1236.684	979.502
195.359	22.702	1235.657	979.014
196.373	22.612	1235.610	978.391
197.388	22.454	1235.425	977.283
198.402	22.672	1234.527	977.697
199.417	22.630	1234.302	977.197
200.432	22.597	1233.605	976.375
201.446	22.608	1233.106	975.957
202.461	22.513	1232.419	974.803
203.475	22.479	1231.495	973.794
204.490	22.556	1230.448	973.308
205.504	22.612	1229.479	972.761
206.519	22.700	1228.451	972.346
207.534	22.650	1227.650	971.352
208.548	22.655	1226.535	970.411
209.563	22.677	1225.826	969.886
210.577	22.641	1225.131	969.053
211.592	22.610	1224.567	968.351
212.607	22.600	1224.019	967.780
213.621	22.730	1223.051	967.637
214.636	22.679	1222.392	966.750
215.650	22.738	1221.440	966.236
216.665	22.717	1220.239	965.086
217.680	22.667	1219.623	964.240
218.694	22.625	1218.724	963.215
219.709	22.696	1218.002	962.947
220.723	22.817	1217.144	962.843
221.738	22.686	1216.796	961.768
222.753	22.617	1215.893	960.596
223.767	22.643	1215.622	960.437
224.782	22.805	1214.522	960.365
225.796	22.764	1214.359	959.924
226.811	22.741	1213.571	959.094
227.826	22.813	1212.793	958.787
228.840	22.813	1211.976	958.054
229.855	22.741	1211.905	957.525
230.869	22.780	1211.333	957.195
231.884	22.836	1210.239	956.550
232.899	22.800	1209.750	955.886
233.913	22.834	1209.197	955.548
234.928	22.903	1208.256	955.093
235.942	22.892	1207.695	954.507
236.957	22.863	1207.421	954.048
237.972	22.863	1206.215	953.010
238.986	22.831	1205.792	952.420
240.001	22.918	1205.321	952.430
241.015	22.901	1204.608	951.694
242.030	22.856	1203.671	950.624
243.045	22.931	1202.758	950.222
244.059	22.975	1202.182	949.921
245.074	22.968	1201.154	948.987
246.088	23.065	1200.232	948.694
247.103	22.994	1199.728	947.835
248.117	22.987	1198.892	947.049
249.132	22.936	1198.143	946.101
250.147	22.949	1198.055	946.022
251.161	22.968	1196.710	944.975
252.176	23.035	1195.899	944.609
253.190	22.958	1195.579	943.863
254.205	23.050	1194.664	943.548
255.220	23.071	1194.134	943.157
256.234	23.122	1193.893	943.155
257.249	23.052	1193.404	942.312
258.263	23.006	1192.487	941.257
259.278	23.170	1191.630	941.373
260.293	23.085	1191.518	940.747
261.307	23.102	1190.867	940.240
262.322	23.108	1190.191	939.658
263.336	23.132	1189.484	939.142
264.351	23.107	1188.704	938.311
265.366	23.114	1188.638	938.214
266.380	23.127	1188.166	937.823
267.395	23.112	1187.106	936.825
268.409	23.008	1186.541	935.746
269.424	23.196	1185.702	935.995
270.439	23.102	1185.621	935.354
271.453	23.093	1184.967	934.710
272.468	23.057	1183.666	933.407
273.482	23.107	1183.554	933.502
274.497	23.165	1182.880	933.193
275.512	23.233	1182.026	932.793
276.526	23.089	1181.640	931.651
277.541	23.225	1180.968	931.752
278.555	23.189	1180.083	930.782
279.570	23.227	1179.931	930.779
280.585	23.150	1178.808	929.408
281.599	23.266	1177.462	928.871
282.614	23.183	1176.979	927.977
283.628	23.317	1175.800	927.667
284.643	23.331	1175.231	927.208
285.657	23.200	1174.407	925.792
286.672	23.313	1173.334	925.454
287.687	23.330	1173.067	925.250
288.701	23.367	1172.011	924.525
289.716	23.318	1171.567	923.837
290.730	23.401	1171.119	923.834
291.745	23.338	1169.917	922.479
292.760	23.373	1169.684	922.396
293.774	23.343	1169.291	921.846
294.789	23.325	1168.355	920.935
295.803	23.317	1168.354	920.809
296.818	23.434	1167.129	920.372
297.833	23.322	1166.494	919.210
298.847	23.498	1165.399	919.174
299.862	23.440	1164.860	918.369
300.876	23.521	1164.239	918.217
301.891	23.482	1164.090	917.818
302.906	23.446	1163.328	916.947
303.920	23.457	1162.708	916.437
304.935	23.549	1161.724	916.057
305.949	23.435	1161.403	915.133
306.964	23.512	1160.994	915.126
307.979	23.518	1160.018	914.305
308.993	23.449	1159.514	913.475
310.008	23.596	1158.615	913.443
311.022	23.590	1157.604	912.533
312.037	23.588	1156.974	911.946
313.052	23.532	1155.877	910.711
314.066	23.603	1155.347	910.577
315.081	23.470	1154.980	909.524
316.095	23.520	1153.981	908.912
317.110	23.560	1153.437	908.611
318.125	23.641	1152.815	908.454
319.139	23.651	1152.249	907.982
320.154	23.580	1151.339	906.817
321.168	23.586	1150.964	906.477
322.183	23.662	1150.335	906.285
323.197	23.555	1149.851	905.278
324.212	23.643	1149.159	905.104
325.227	23.640	1148.866	904.777
326.241	23.745	1148.328	904.808
327.256	23.700	1147.447	903.806
328.270	23.689	1146.272	902.744
329.285	23.598	1146.063	902.038
330.300	23.686	1145.439	901.913
331.314	23.682	1144.415	901.007
332.329	23.709	1143.510	900.351
333.343	23.762	1142.830	900.003
334.358	23.729	1141.891	899.017
335.373	23.809	1141.500	899.036
336.387	23.856	1140.500	898.407
337.402	23.863	1139.737	897.763
338.416	23.860	1139.067	897.137
339.431	23.807	1138.480	896.329
340.446	23.836	1138.000	896.017
341.460	23.897	1136.952	895.420
342.475	23.992	1136.022	895.087
343.489	23.871	1135.471	893.963
344.504	23.811	1134.735	893.005
345.519	23.864	1134.375	892.909
346.533	23.828	1133.350	891.845
347.548	23.951	1132.515	891.724
348.562	24.046	1131.511	891.329
349.577	23.856	1131.368	890.189
350.592	23.787	1130.747	889.275
351.606	23.924	1129.729	889.082
352.621	23.997	1128.924	888.732
353.635	24.061	1128.470	888.617
354.650	23.985	1128.035	887.816
355.665	23.930	1127.283	886.870
356.679	24.026	1126.558	886.702
357.694	24.097	1125.770	886.353
358.708	24.068	1125.146	885.641
359.723	24.051	1124.563	885.020
360.738	24.047	1124.099	884.557
361.752	24.011	1124.000	884.218
362.767	24.037	1122.916	883.419
363.781	24.121	1122.412	883.363
364.796	24.170	1121.851	883.085
365.810	24.091	1120.879	881.849
366.825	24.281	1119.903	881.943
367.840	24.160	1120.262	881.552
368.854	24.252	1119.767	881.536
369.869	24.292	1118.425	880.602
370.883	24.150	1118.108	879.569
371.898	24.248	1116.949	879.064
372.913	24.208	1116.650	878.556
373.927	24.229	1116.280	878.291
374.942	24.294	1115.977	878.295
375.956	24.282	1115.248	877.583
376.971	24.294	1114.416	876.911
377.986	24.237	1114.504	876.619
379.000	24.349	1113.389	876.216
380.015	24.334	1113.075	875.818
381.029	24.345	1112.184	875.094
382.044	24.324	1111.700	874.531
383.059	24.370	1111.194	874.281
384.073	24.441	1110.344	873.886
385.088	24.315	1109.567	872.577
386.102	24.303	1108.980	871.981
387.117	24.315	1107.986	871.183
388.132	24.243	1107.466	870.342
389.146	24.294	1106.511	869.767
390.161	24.351	1105.885	869.472
391.175	24.345	1105.229	868.852
392.190	24.397	1104.597	868.531
393.205	24.466	1103.948	868.279
394.219	24.348	1103.441	867.228
395.234	24.398	1102.541	866.691
396.248	24.491	1101.213	866.019
397.263	24.529	1100.356	865.454
398.278	24.550	1100.251	865.394
399.292	24.518	1099.469	864.550
400.307	24.591	1099.107	864.542
401.321	24.469	1098.585	863.462
402.336	24.440	1097.864	862.679
403.350	24.538	1097.264	862.605
404.365	24.604	1095.995	861.851
405.380	24.694	1095.308	861.671
406.394	24.554	1095.143	860.788
407.409	24.618	1094.029	860.143
408.423	24.782	1093.104	860.128
409.438	24.704	1092.456	859.170
410.453	24.743	1091.666	858.659
411.467	24.666	1091.117	857.781
412.482	24.674	1090.829	857.517
413.496	24.698	1089.899	856.825
414.511	24.722	1089.452	856.512
415.526	24.661	1088.978	855.774
416.540	24.659	1088.666	855.442
417.555	24.823	1087.939	855.579
418.569	24.738	1087.294	854.592
419.584	24.721	1087.290	854.428
420.599	24.824	1086.427	854.169
421.613	149.018	1401.877	1798.775
422.628	137.793	1447.814	1798.858
