DTS Sentinel unit serial number:	SN413079Multiplexer serial number:	ORYXHardware model number:	OX4-SRSoftware version number:	ORYX F/W v4.00 Oryx Data Collector v3.7.2.0data status	okinstallation	princeton_trtdifferential loss correction	single-endedforward channel	channel 2reverse channel	N/Adate	2019/09/15time	16:43:35forward acquisition time	60.00reverse acquisition time	0.00gamma	496.2192k internal	0.2285k external	0.2285temperature offset calibration	0.9929default loss term (dB/km)	0.3790temperature slope calibration	1.0000multiplexer offset coefficient	1.0000multiplexer slope coefficient	1.0000fibre end	0.00T internal ref (°C)	44.19T ext. ref 1 (°C)	5.70T ext. ref 2 (°C)	40.42length (m)	temperature (°C)	Stokes	anti-Stokes-747.200	-200.000	-0.011	0.080
-746.185	476.527	-0.130	0.301
-745.171	56.810	0.209	-0.209
-744.156	-200.000	-0.041	0.187
-743.142	775.179	0.069	0.192
-742.127	-182.878	0.258	0.005
-741.112	-72.832	0.091	-0.034
-740.098	178.859	-0.264	0.396
-739.083	-34.726	-0.342	0.192
-738.069	194.452	-0.088	0.138
-737.054	136.301	-0.179	0.240
-736.039	-64.546	-0.149	0.062
-735.025	23.002	0.348	-0.293
-734.010	18.089	-0.036	-0.029
-732.996	-0.443	-0.121	-0.088
-731.981	129.391	-0.072	0.095
-730.966	25.294	0.174	-0.149
-729.952	-132.846	0.115	0.015
-728.937	-200.000	0.008	0.097
-727.923	-200.000	-0.061	0.291
-726.908	-43.937	-0.179	-0.092
-725.894	-188.224	0.261	-0.003
-724.879	51.733	0.059	0.058
-723.864	279.425	0.037	0.067
-722.850	800.000	0.079	-0.327
-721.835	-107.071	-0.052	-0.012
-720.821	419.071	-0.040	-0.088
-719.806	400.332	0.187	0.402
-718.791	-200.000	0.030	-0.223
-717.777	-200.000	-0.002	-0.195
-716.762	-186.904	0.222	0.003
-715.748	138.193	-0.270	-0.364
-714.733	208.883	-0.112	-0.180
-713.718	-155.224	0.237	-0.016
-712.704	-200.000	0.053	0.446
-711.689	-53.457	-0.229	-0.107
-710.675	800.000	0.058	0.205
-709.660	434.674	0.060	-0.134
-708.645	781.772	0.103	-0.288
-707.631	30.883	-0.128	0.113
-706.616	-200.000	0.030	0.137
-705.602	-58.074	-0.108	0.048
-704.587	-200.000	-0.019	0.285
-703.572	-103.053	-0.385	0.093
-702.558	-200.000	-0.012	0.206
-701.543	-67.726	0.180	-0.072
-700.529	-6.149	-0.149	-0.105
-699.514	-200.000	-0.013	0.299
-698.499	-93.958	-0.145	-0.041
-697.485	28.660	0.094	0.082
-696.470	36.867	0.179	0.162
-695.456	-110.928	-0.139	-0.029
-694.441	52.934	-0.057	0.056
-693.426	-200.000	-0.005	-0.274
-692.412	-200.000	-0.017	-0.086
-691.397	145.780	0.028	-0.038
-690.383	15.555	-0.105	0.085
-689.368	45.160	0.169	0.159
-688.354	96.718	-0.022	-0.026
-687.339	376.412	0.083	0.174
-686.324	515.006	-0.222	-0.530
-685.310	-152.694	0.427	0.031
-684.295	-91.064	0.156	-0.046
-683.281	73.487	-0.188	-0.201
-682.266	11.212	0.189	-0.148
-681.251	-200.000	0.040	-0.287
-680.237	111.495	0.048	0.060
-679.222	-200.000	0.035	0.312
-678.208	800.000	0.145	0.488
-677.193	800.000	0.063	0.181
-676.178	-200.000	0.061	-0.304
-675.164	-46.478	0.159	-0.080
-674.149	379.237	0.155	-0.325
-673.135	-103.755	-0.301	0.072
-672.120	-85.137	0.129	-0.041
-671.105	-200.000	-0.008	0.093
-670.091	24.966	-0.114	-0.097
-669.076	455.953	-0.168	-0.382
-668.062	-162.475	0.151	-0.008
-667.047	198.717	-0.041	0.064
-666.032	95.913	-0.046	0.054
-665.018	-200.000	0.013	0.337
-664.003	237.059	0.153	-0.260
-662.989	191.403	-0.041	-0.063
-661.974	-117.593	0.062	0.011
-660.959	153.579	-0.174	0.244
-659.945	99.902	0.230	-0.273
-658.930	18.279	0.204	-0.167
-657.916	34.970	0.167	-0.149
-656.901	-200.000	-0.020	-0.516
-655.886	-31.482	-0.330	-0.190
-654.872	800.000	0.042	0.124
-653.857	742.225	0.071	-0.196
-652.843	99.447	-0.090	-0.107
-651.828	-200.000	-0.035	0.226
-650.814	259.030	-0.132	-0.234
-649.799	53.556	0.139	0.137
-648.784	-143.445	0.428	-0.042
-647.770	-133.276	-0.492	0.064
-646.755	-48.830	0.248	-0.122
-645.741	-119.400	-0.334	0.059
-644.726	-200.000	0.030	-0.186
-643.711	637.756	-0.130	-0.337
-642.697	-61.862	-0.242	-0.104
-641.682	-200.000	0.035	0.236
-640.668	-6.273	-0.155	-0.108
-639.653	179.616	-0.188	0.281
-638.638	-130.674	-0.351	-0.048
-637.624	722.681	0.131	-0.357
-636.609	-57.659	-0.317	0.142
-635.595	54.959	-0.375	0.370
-634.580	174.538	0.221	0.326
-633.565	-125.887	-0.179	-0.028
-632.551	-177.713	0.145	0.004
-631.536	-134.339	0.239	-0.030
-630.522	206.336	-0.239	-0.380
-629.507	-92.285	-0.353	-0.102
-628.492	800.000	0.083	-0.276
-627.478	-179.820	0.367	0.008
-626.463	-23.593	-0.170	-0.104
-625.449	41.580	0.130	-0.120
-624.434	-128.026	-0.303	-0.044
-623.419	159.483	-0.092	0.131
-622.405	-200.000	0.023	-0.302
-621.390	-200.000	0.038	-0.320
-620.376	36.033	0.100	-0.090
-619.361	67.060	0.245	-0.255
-618.346	32.083	0.138	-0.121
-617.332	209.478	0.172	-0.275
-616.317	726.022	-0.037	0.101
-615.303	-200.000	0.025	-0.275
-614.288	-138.261	0.342	-0.039
-613.273	-114.438	0.235	0.046
-612.259	-133.229	0.133	-0.017
-611.244	525.200	0.143	0.343
-610.230	192.032	-0.039	0.060
-609.215	-194.939	-0.201	-0.002
-608.201	-70.104	-0.255	-0.099
-607.186	-200.000	0.008	0.046
-606.171	-200.000	0.008	0.076
-605.157	-0.095	0.113	0.082
-604.142	137.970	-0.097	-0.129
-603.128	-176.278	0.224	0.006
-602.113	800.000	-0.028	-0.092
-601.098	-42.459	-0.169	0.088
-600.084	-97.199	-0.081	-0.022
-599.069	-200.000	0.004	-0.125
-598.055	120.536	0.216	-0.274
-597.040	324.229	0.034	0.066
-596.025	66.253	0.115	-0.120
-595.011	307.166	-0.061	-0.116
-593.996	238.550	0.084	-0.142
-592.982	800.000	-0.156	-0.503
-591.967	-200.000	0.000	-0.304
-590.952	-29.962	0.245	0.142
-589.938	45.703	-0.248	-0.234
-588.923	76.223	-0.209	0.226
-587.909	-80.586	-0.297	0.101
-586.894	800.000	-0.026	0.090
-585.879	350.541	-0.079	0.159
-584.865	84.009	0.309	0.344
-583.850	202.876	0.167	-0.263
-582.836	723.818	-0.049	-0.133
-581.821	800.000	0.068	0.276
-580.806	2.806	0.095	-0.070
-579.792	440.896	0.064	-0.142
-578.777	742.671	-0.053	0.146
-577.763	-86.075	0.298	-0.094
-576.748	800.000	-0.066	0.212
-575.733	-134.174	-0.132	0.017
-574.719	21.098	0.280	-0.232
-573.704	405.823	-0.165	-0.354
-572.690	-40.678	0.140	0.074
-571.675	-107.040	-0.351	0.079
-570.661	-21.679	0.075	0.046
-569.646	191.080	0.099	0.152
-568.631	46.060	0.255	0.241
-567.617	47.988	0.092	0.088
-566.602	-200.000	-0.002	-0.031
-565.588	-50.675	-0.054	-0.026
-564.573	-28.146	-0.330	-0.194
-563.558	-131.671	0.484	-0.065
-562.544	-60.904	-0.147	0.063
-561.529	502.132	0.055	-0.130
-560.515	-28.926	-0.224	0.131
-559.500	-82.753	0.189	0.062
-558.485	-88.884	0.211	-0.064
-557.471	-26.056	-0.172	0.103
-556.456	149.310	0.119	-0.164
-555.442	-51.060	0.060	-0.029
-554.427	-60.365	0.136	-0.059
-553.412	93.425	0.041	-0.047
-552.398	519.607	0.094	0.223
-551.383	66.212	-0.352	0.364
-550.369	326.558	0.175	-0.342
-549.354	-200.000	-0.065	0.552
-548.339	-75.194	-0.144	-0.052
-547.325	-194.511	-0.254	-0.002
-546.310	800.000	-0.059	0.175
-545.296	-200.000	-0.007	0.193
-544.281	-79.992	-0.242	-0.083
-543.266	-96.530	-0.097	-0.026
-542.252	113.966	-0.252	-0.312
-541.237	80.983	-0.164	-0.180
-540.223	51.226	0.165	-0.159
-539.208	25.023	-0.169	0.142
-538.193	-200.000	0.049	-0.313
-537.179	-110.426	0.252	0.053
-536.164	39.421	-0.134	-0.122
-535.150	-200.000	0.058	-0.329
-534.135	65.926	-0.204	-0.211
-533.121	174.619	0.147	-0.216
-532.106	800.000	0.058	-0.219
-531.091	-15.107	0.336	0.219
-530.077	-88.878	-0.098	-0.029
-529.062	251.266	-0.097	-0.167
-528.048	-54.251	-0.213	-0.099
-527.033	-55.717	0.368	0.167
-526.018	-74.649	-0.199	0.073
-525.004	-155.147	-0.366	0.024
-523.989	-37.069	0.180	-0.098
-522.975	128.765	-0.291	-0.377
-521.960	-151.663	0.386	0.029
-520.945	142.872	-0.117	-0.159
-519.931	-92.140	0.029	0.008
-518.916	109.854	-0.214	-0.261
-517.902	39.640	-0.139	-0.127
-516.887	126.086	-0.159	-0.204
-515.872	71.024	-0.136	-0.143
-514.858	11.144	0.423	0.329
-513.843	-1.029	-0.103	0.074
-512.829	-200.000	-0.010	0.271
-511.814	240.833	0.047	0.080
-510.799	207.093	0.138	0.218
-509.785	800.000	-0.060	-0.196
-508.770	-4.475	-0.046	-0.032
-507.756	-39.698	-0.134	0.071
-506.741	107.064	0.176	-0.213
-505.726	-200.000	0.044	-0.232
-504.712	-200.000	0.017	0.210
-503.697	-200.000	-0.060	-0.435
-502.683	-56.594	-0.078	0.035
-501.668	800.000	0.085	-0.268
-500.653	-80.523	0.112	0.038
-499.639	493.801	0.146	0.341
-498.624	-26.742	0.288	-0.171
-497.610	-175.065	0.276	-0.008
-496.595	-28.472	0.140	0.082
-495.581	660.696	0.084	-0.219
-494.566	800.000	-0.046	-0.135
-493.551	51.856	0.176	0.171
-492.537	56.793	0.272	-0.270
-491.522	-88.728	0.461	-0.139
-490.508	103.075	0.192	-0.229
-489.493	-200.000	-0.015	0.199
-488.478	800.000	0.045	0.153
-487.464	46.942	0.055	-0.052
-486.449	-200.000	0.022	0.180
-485.435	-137.488	0.093	-0.011
-484.420	-158.998	0.177	-0.010
-483.405	-50.698	-0.129	-0.062
-482.391	-35.186	-0.175	0.097
-481.376	289.355	-0.075	0.138
-480.362	111.374	0.108	-0.132
-479.347	-200.000	0.011	0.072
-478.332	167.762	0.190	0.275
-477.318	316.667	-0.070	-0.135
-476.303	438.687	0.054	-0.119
-475.289	0.743	0.250	-0.182
-474.274	-200.000	-0.006	-0.071
-473.259	-139.563	-0.210	-0.023
-472.245	800.000	-0.101	0.438
-471.230	56.324	-0.211	0.209
-470.216	-141.369	0.089	0.009
-469.201	-7.401	0.078	0.053
-468.186	257.336	0.015	0.027
-467.172	350.363	0.066	0.133
-466.157	-73.791	0.091	-0.034
-465.143	-200.000	-0.001	0.095
-464.128	-97.213	0.098	0.026
-463.113	82.161	-0.102	0.112
-462.099	-200.000	-0.004	0.076
-461.084	-140.769	0.315	-0.033
-460.070	-200.000	-0.030	-0.229
-459.055	-200.000	0.001	0.293
-458.040	99.558	-0.158	-0.186
-457.026	172.774	0.166	-0.242
-456.011	0.259	-0.190	-0.137
-454.997	-200.000	0.009	0.118
-453.982	112.180	-0.094	-0.115
-452.968	-200.000	-0.007	-0.050
-451.953	509.667	0.097	0.228
-450.938	-55.346	-0.338	-0.154
-449.924	-200.000	0.002	0.058
-448.909	800.000	0.024	0.074
-447.895	-200.000	-0.013	0.102
-446.880	198.242	-0.058	0.091
-445.865	-90.824	-0.345	0.101
-444.851	800.000	0.020	0.062
-443.836	292.637	-0.138	0.254
-442.822	-93.951	-0.160	-0.045
-441.807	800.000	0.060	0.224
-440.792	-7.605	-0.128	0.088
-439.778	-15.296	-0.306	-0.199
-438.763	-26.144	-0.156	0.093
-437.749	-200.000	0.052	-0.375
-436.734	-200.000	0.032	-0.223
-435.719	-98.660	0.076	0.020
-434.705	-32.416	-0.196	-0.111
-433.690	41.368	-0.184	-0.169
-432.676	-200.000	-0.036	0.459
-431.661	71.627	0.309	0.326
-430.646	-112.639	-0.371	-0.075
-429.632	-131.957	0.058	-0.008
-428.617	800.000	0.138	0.433
-427.603	489.400	-0.038	-0.089
-426.588	114.678	-0.127	0.156
-425.573	792.621	0.097	0.271
-424.559	-129.501	0.220	0.031
-423.544	-173.782	-0.369	-0.011
-422.530	33.095	-0.117	-0.102
-421.515	162.813	0.148	0.210
-420.500	12.594	-0.078	-0.061
-419.486	5.386	-0.066	0.049
-418.471	-75.674	-0.143	-0.052
-417.457	-200.000	-0.037	-0.200
-416.442	-107.157	-0.164	0.037
-415.428	-87.070	-0.186	0.057
-414.413	-58.966	0.206	0.090
-413.398	-36.667	0.343	0.187
-412.384	800.000	0.078	-0.264
-411.369	-125.880	-0.368	-0.056
-410.355	208.711	0.145	0.230
-409.340	297.945	0.121	0.226
-408.325	-27.128	0.194	0.115
-407.311	-54.185	-0.197	-0.091
-406.296	511.734	-0.113	0.265
-405.282	410.880	-0.118	-0.253
-404.267	-200.000	-0.022	-0.237
-403.252	65.899	-0.030	-0.031
-402.238	-135.807	-0.344	0.041
-401.223	-200.000	-0.065	0.386
-400.209	665.896	-0.108	0.282
-399.194	-102.414	0.105	-0.025
-398.179	144.969	-0.085	-0.115
-397.165	-104.881	-0.066	0.015
-396.150	-127.033	0.228	0.034
-395.136	-200.000	0.001	0.346
-394.121	-172.407	-0.238	-0.008
-393.106	-27.193	0.347	-0.205
-392.092	271.895	0.135	-0.242
-391.077	-161.839	0.145	0.007
-390.063	-13.229	0.097	-0.064
-389.048	-58.642	-0.052	-0.023
-388.033	59.664	0.038	-0.038
-387.019	393.402	0.114	0.240
-386.004	-120.259	0.367	0.063
-384.990	-200.000	0.092	0.519
-383.975	66.431	0.100	0.103
-382.960	-69.609	0.193	-0.075
-381.946	92.434	0.238	0.271
-380.931	-152.569	-0.176	0.013
-379.917	37.068	0.032	-0.028
-378.902	44.576	-0.081	0.076
-377.888	800.000	0.119	-0.341
-376.873	48.302	-0.107	0.102
-375.858	107.040	-0.173	0.208
-374.844	-65.924	-0.147	0.059
-373.829	776.361	0.067	0.186
-372.815	-65.703	-0.208	0.084
-371.800	-96.585	-0.386	-0.103
-370.785	474.720	-0.104	-0.238
-369.771	800.000	0.046	-0.193
-368.756	-72.316	-0.214	0.080
-367.742	-200.000	-0.060	0.342
-366.727	800.000	-0.052	-0.185
-365.712	82.815	-0.041	0.045
-364.698	-200.000	0.020	0.368
-363.683	-20.375	-0.165	0.103
-362.669	-123.890	-0.096	0.015
-361.654	-128.337	0.120	0.017
-360.639	800.000	0.171	-0.482
-359.625	-200.000	-0.034	0.201
-358.610	-200.000	0.009	0.332
-357.596	375.330	0.152	-0.313
-356.581	103.511	-0.182	-0.216
-355.566	420.530	-0.080	0.172
-354.552	55.954	0.242	0.238
-353.537	191.668	0.105	0.160
-352.523	235.587	0.180	0.301
-351.508	-200.000	0.043	0.460
-350.493	555.078	0.019	-0.046
-349.479	-200.000	-0.044	-0.279
-348.464	198.610	-0.135	-0.209
-347.450	-17.968	-0.107	-0.068
-346.435	-200.000	-0.007	0.053
-345.420	-77.457	-0.270	0.095
-344.406	-200.000	-0.048	-0.248
-343.391	-200.000	0.019	-0.253
-342.377	-136.259	-0.064	-0.008
-341.362	11.701	0.028	0.022
-340.348	-7.573	0.117	-0.080
-339.333	800.000	-0.024	-0.072
-338.318	-46.370	0.398	0.197
-337.304	-137.841	-0.275	-0.031
-336.289	-101.592	-0.146	0.036
-335.275	-63.079	0.159	-0.066
-334.260	-200.000	0.019	-0.172
-333.245	-200.000	0.000	0.006
-332.231	90.430	0.129	-0.146
-331.216	255.471	-0.074	0.128
-330.202	-33.612	0.106	0.059
-329.187	482.235	0.098	-0.224
-328.172	-104.445	0.249	0.058
-327.158	519.640	0.118	0.280
-326.143	-88.622	0.199	-0.060
-325.129	-200.000	0.011	0.207
-324.114	171.761	0.169	-0.245
-323.099	-23.147	-0.252	-0.153
-322.085	800.000	-0.024	-0.090
-321.070	-200.000	0.014	0.099
-320.056	-98.858	-0.373	0.096
-319.041	79.341	-0.109	0.117
-318.026	136.326	-0.181	-0.238
-317.012	62.373	0.199	-0.200
-315.997	184.575	0.107	-0.159
-314.983	-200.000	-0.036	0.383
-313.968	-200.000	-0.183	0.000
-312.953	37.552	0.067	-0.060
-311.939	-24.055	-0.139	-0.084
-310.924	-170.149	0.200	0.007
-309.910	-200.000	0.056	0.361
-308.895	124.983	0.220	0.279
-307.880	-37.794	-0.167	-0.090
-306.866	-200.000	0.003	0.023
-305.851	-200.000	-0.011	-0.055
-304.837	-110.075	0.145	-0.031
-303.822	361.281	0.178	-0.361
-302.807	8.343	0.222	-0.169
-301.793	113.517	0.153	-0.188
-300.778	-72.322	-0.167	-0.062
-299.764	-0.538	0.131	0.094
-298.749	-13.763	-0.088	-0.057
-297.735	13.051	0.145	0.113
-296.720	319.857	-0.077	-0.147
-295.705	-200.000	0.041	0.352
-294.691	-200.000	0.031	0.285
-293.676	-34.789	0.192	0.106
-292.662	-64.465	-0.143	0.059
-291.647	748.967	-0.121	-0.330
-290.632	-200.000	0.041	0.243
-289.618	642.446	-0.112	-0.288
-288.603	62.996	-0.211	-0.213
-287.589	120.818	0.047	-0.059
-286.574	-78.831	0.238	0.082
-285.559	800.000	-0.128	-0.493
-284.545	-59.177	0.130	-0.056
-283.530	800.000	0.097	0.410
-282.516	-200.000	-0.032	0.222
-281.501	-69.627	-0.059	-0.023
-280.486	-200.000	-0.018	0.096
-279.472	62.978	0.073	0.074
-278.457	614.061	0.125	-0.315
-277.443	800.000	-0.080	0.260
-276.428	-149.985	-0.127	0.010
-275.413	265.067	0.100	0.176
-274.399	800.000	-0.056	-0.205
-273.384	-129.507	0.147	0.020
-272.370	-146.657	0.080	0.007
-271.355	46.272	-0.310	0.290
-270.340	90.095	0.343	0.386
-269.326	217.560	-0.098	0.157
-268.311	-23.929	-0.122	0.074
-267.297	147.046	-0.185	-0.250
-266.282	-26.178	-0.220	-0.130
-265.267	-87.226	-0.061	-0.019
-264.253	89.140	0.104	-0.117
-263.238	-200.000	0.025	-0.202
-262.224	-67.636	-0.112	0.044
-261.209	-2.659	-0.145	-0.102
-260.195	-104.421	0.115	-0.027
-259.180	-58.908	0.254	-0.111
-258.165	-37.951	0.132	0.071
-257.151	800.000	0.082	0.344
-256.136	36.252	-0.209	-0.185
-255.122	-200.000	-0.033	-0.258
-254.107	-106.365	0.150	0.034
-253.092	232.091	-0.128	0.211
-252.078	181.110	0.163	0.242
-251.063	85.296	-0.178	-0.197
-250.049	-21.419	-0.020	0.012
-249.034	143.947	-0.127	0.171
-248.019	800.000	-0.026	-0.093
-247.005	25.602	0.193	0.161
-245.990	238.156	0.097	0.162
-244.976	-200.000	0.026	0.231
-243.961	-96.481	-0.202	-0.054
-242.946	800.000	0.058	0.189
-241.932	800.000	0.020	0.061
-240.917	-52.066	-0.248	0.116
-239.903	-99.865	-0.172	-0.043
-238.888	59.257	0.127	-0.126
-237.873	800.000	-0.056	-0.198
-236.859	-200.000	-0.007	0.078
-235.844	674.757	0.048	0.125
-234.830	-159.779	0.201	0.011
-233.815	-200.000	0.038	-0.342
-232.800	-123.178	0.267	-0.043
-231.786	197.179	0.082	0.126
-230.771	116.908	-0.107	-0.133
-229.757	-82.565	-0.202	-0.066
-228.742	-157.152	0.254	-0.016
-227.727	-200.000	0.011	-0.170
-226.713	-2.241	0.093	0.066
-225.698	52.072	-0.044	-0.042
-224.684	165.957	0.125	-0.178
-223.669	83.635	0.062	-0.068
-222.655	28.381	0.047	0.040
-221.640	656.219	0.051	0.132
-220.625	64.285	-0.088	-0.089
-219.611	-108.234	0.300	-0.065
-218.596	-184.749	-0.285	-0.005
-217.582	800.000	-0.107	0.327
-216.567	-39.881	-0.053	0.028
-215.552	21.828	0.426	0.349
-214.538	193.624	0.101	0.154
-213.523	355.907	0.146	-0.292
-212.509	-134.961	0.049	-0.006
-211.494	183.197	-0.203	0.302
-210.479	-200.000	-0.062	0.403
-209.465	-63.519	0.319	-0.132
-208.450	-200.000	-0.015	-0.161
-207.436	779.445	0.108	0.298
-206.421	11.945	0.195	0.150
-205.406	269.033	0.131	-0.231
-204.392	37.711	0.082	-0.073
-203.377	357.285	-0.090	-0.180
-202.363	-37.627	0.202	0.108
-201.348	-200.000	0.013	0.165
-200.333	800.000	0.069	-0.230
-199.319	220.707	-0.114	-0.184
-198.304	-96.756	0.150	0.040
-197.290	86.075	0.281	0.311
-196.275	800.000	-0.053	0.160
-195.260	777.270	-0.096	-0.264
-194.246	6.969	-0.019	-0.014
-193.231	85.793	-0.124	-0.137
-192.217	-77.113	-0.121	-0.042
-191.202	-200.000	0.018	-0.112
-190.187	-135.900	-0.210	0.025
-189.173	350.086	0.076	0.151
-188.158	215.725	0.146	0.232
-187.144	-4.532	-0.196	0.136
-186.129	-117.855	0.127	-0.023
-185.114	48.520	0.086	-0.081
-184.100	-200.000	0.003	0.222
-183.085	800.000	-0.035	0.099
-182.071	-92.795	-0.225	0.063
-181.056	181.742	-0.087	-0.128
-180.042	-200.000	-0.028	-0.215
-179.027	585.425	-0.065	-0.160
-178.012	-65.838	-0.243	0.098
-176.998	800.000	-0.018	-0.056
-175.983	167.101	-0.174	0.248
-174.969	-147.941	-0.280	-0.023
-173.954	188.393	-0.136	0.204
-172.939	326.755	-0.092	0.177
-171.925	-92.077	0.224	0.064
-170.910	-192.665	-0.262	0.002
-169.896	-173.034	-0.024	0.001
-168.881	-200.000	-0.043	-0.259
-167.866	-139.068	0.188	-0.020
-166.852	-200.000	-0.000	0.109
-165.837	145.680	-0.208	-0.280
-164.823	117.397	-0.118	-0.145
-163.808	181.673	-0.125	0.184
-162.793	800.000	0.162	0.478
-161.779	-200.000	-0.010	-0.044
-160.764	101.540	-0.111	-0.130
-159.750	-126.359	0.283	0.042
-158.735	447.516	0.080	0.177
-157.720	-37.869	-0.081	0.043
-156.706	-5.140	0.289	-0.199
-155.691	-181.197	-0.379	-0.008
-154.677	111.718	-0.145	-0.175
-153.662	-3.563	0.241	-0.168
-152.647	69.091	-0.156	-0.161
-151.633	113.270	-0.213	-0.259
-150.618	-128.490	-0.465	-0.066
-149.604	97.663	0.098	-0.113
-148.589	-104.930	-0.194	0.045
-147.574	-113.958	-0.021	-0.004
-146.560	-84.986	0.217	-0.068
-145.545	-78.935	0.343	0.117
-144.531	-38.076	0.061	-0.032
-143.516	310.750	0.101	-0.190
-142.502	-162.451	0.198	0.010
-141.487	137.775	0.120	0.158
-140.472	1.516	-0.118	0.085
-139.458	-71.268	0.213	0.080
-138.443	-101.729	0.188	0.046
-137.429	800.000	0.064	0.182
-136.414	32.955	-0.129	-0.112
-135.399	94.331	0.073	-0.083
-134.385	-200.000	-0.014	0.089
-133.370	83.842	0.116	0.127
-132.356	-150.672	0.226	-0.017
-131.341	263.206	-0.174	-0.303
-130.326	-71.268	0.158	0.059
-129.312	-91.348	0.169	0.048
-128.297	-118.188	-0.178	-0.032
-127.283	800.000	-0.115	0.333
-126.268	-200.000	0.017	0.121
-125.253	-94.841	-0.015	0.004
-124.239	-10.392	-0.200	0.133
-123.224	-120.474	0.161	0.027
-122.210	14.445	0.086	-0.067
-121.195	-18.414	0.332	0.208
-120.180	754.867	0.100	-0.271
-119.166	678.297	0.018	-0.046
-118.151	-117.550	-0.196	-0.036
-117.137	-136.214	0.301	-0.035
-116.122	800.000	0.049	-0.151
-115.107	-71.110	0.323	-0.121
-114.093	-7.771	-0.056	0.038
-113.078	-200.000	0.139	0.000
-112.064	247.021	0.149	-0.251
-111.049	101.924	0.146	0.171
-110.034	-133.260	-0.158	0.020
-109.020	235.421	0.111	-0.184
-108.005	800.000	-0.136	-0.397
-106.991	800.000	-0.033	-0.138
-105.976	-187.552	-0.297	-0.004
-104.962	323.993	-0.095	-0.181
-103.947	-131.130	-0.153	-0.020
-102.932	800.000	0.066	-0.262
-101.918	-49.199	0.226	-0.108
-100.903	-26.084	-0.278	0.163
-99.889	738.111	-0.059	-0.158
-98.874	273.154	0.157	0.277
-97.859	-200.000	-0.125	0.000
-96.845	-95.904	-0.143	0.038
-95.830	-88.691	-0.228	0.068
-94.816	130.753	-0.256	0.328
-93.801	800.000	0.036	-0.129
-92.786	291.429	0.147	0.268
-91.772	800.000	0.047	0.157
-90.757	-200.000	0.039	-0.322
-89.743	-106.192	0.177	-0.040
-88.728	325.800	0.102	0.196
-87.713	-135.660	-0.134	-0.016
-86.699	31.925	-0.143	-0.123
-85.684	-200.000	0.029	-0.150
-84.670	-17.860	0.095	0.059
-83.655	-200.000	-0.001	-0.129
-82.640	-26.007	0.228	-0.134
-81.626	16.717	-0.147	-0.116
-80.611	800.000	-0.023	-0.101
-79.597	268.562	-0.112	0.197
-78.582	475.777	0.038	0.085
-77.567	98.297	-0.076	0.088
-76.553	19.027	-0.161	-0.129
-75.538	566.876	-0.054	0.132
-74.524	-200.000	-0.057	0.324
-73.509	-200.000	0.018	-0.083
-72.494	-143.770	-0.064	-0.006
-71.480	377.478	0.128	0.261
-70.465	-82.731	-0.274	-0.089
-69.451	-2.877	-0.234	0.164
-68.436	-200.000	0.106	-0.493
-67.422	800.000	-0.082	-0.281
-66.407	12.803	-0.318	-0.246
-65.392	-33.183	0.242	0.134
-64.378	271.460	-0.036	-0.063
-63.363	-200.000	-0.005	-0.240
-62.349	-92.632	0.537	-0.151
-61.334	-4.430	-0.891	-0.615
-60.319	800.000	-0.127	0.423
-59.305	-200.000	0.174	-0.799
-58.290	-39.824	0.624	0.326
-57.276	280.402	0.717	1.280
-56.261	-200.000	70.200	527.975
-55.246	588.730	1267.874	3121.240
-54.232	138.319	2534.472	3322.130
-53.217	112.917	2369.890	2869.320
-52.203	54.032	1987.569	1909.380
-51.188	47.648	1773.815	1653.304
-50.173	44.611	1726.252	1585.299
-49.159	58.005	1755.454	1717.151
-48.144	65.064	1774.568	1790.924
-47.130	47.553	1739.554	1620.371
-46.115	44.197	1725.765	1581.375
-45.100	44.090	1721.116	1576.216
-44.086	44.009	1718.823	1573.430
-43.071	43.978	1715.665	1570.233
-42.057	43.980	1713.288	1568.016
-41.042	44.041	1711.067	1566.390
-40.027	44.003	1709.253	1564.372
-39.013	44.031	1706.917	1562.386
-37.998	44.093	1705.611	1561.607
-36.984	44.139	1704.039	1560.459
-35.969	44.209	1702.614	1559.630
-34.954	44.178	1701.265	1558.096
-33.940	44.186	1699.180	1556.183
-32.925	44.195	1697.016	1554.214
-31.911	44.166	1695.047	1552.122
-30.896	44.267	1693.308	1551.245
-29.881	44.159	1691.545	1548.738
-28.867	44.051	1690.138	1546.569
-27.852	44.076	1689.239	1545.878
-26.838	44.238	1686.984	1544.982
-25.823	44.252	1685.173	1543.368
-24.809	44.203	1684.227	1542.069
-23.794	44.311	1682.410	1541.161
-22.779	44.287	1681.047	1539.671
-21.765	44.334	1679.127	1538.209
-20.750	44.177	1677.590	1535.554
-19.736	44.265	1676.305	1534.980
-18.721	44.244	1674.527	1533.131
-17.706	44.233	1672.907	1531.508
-16.692	44.208	1671.226	1529.719
-15.677	44.214	1669.369	1528.006
-14.663	44.202	1668.412	1526.976
-13.648	44.126	1667.088	1525.134
-12.633	44.170	1665.825	1524.249
-11.619	44.247	1663.507	1522.641
-10.604	44.145	1662.577	1520.965
-9.590	44.247	1660.972	1520.199
-8.575	44.236	1659.613	1518.813
-7.560	44.167	1658.652	1517.360
-6.546	44.171	1657.785	1516.536
-5.531	44.204	1656.184	1515.260
-4.517	44.103	1655.210	1513.556
-3.502	44.182	1653.654	1512.656
-2.487	44.244	1652.123	1511.659
-1.473	44.261	1641.833	1502.313
-0.458	42.073	1621.246	1467.407
0.556	34.863	1617.307	1423.102
1.571	31.069	1638.706	1413.127
2.586	29.427	1651.774	1411.721
3.600	25.719	1599.024	1338.989
4.615	16.120	1483.258	1175.362
5.629	7.606	1410.450	1060.920
6.644	5.872	1399.585	1041.155
7.659	5.629	1398.210	1038.429
8.673	5.748	1396.556	1037.897
9.688	5.552	1394.962	1035.329
10.702	5.208	1393.209	1031.660
11.717	8.873	1400.029	1060.916
12.731	16.593	1414.754	1123.427
13.746	19.364	1417.348	1143.794
14.761	17.497	1412.800	1127.670
15.775	16.160	1409.292	1115.934
16.790	15.015	1407.056	1106.493
17.804	14.163	1404.297	1098.600
18.819	13.653	1403.496	1094.515
19.834	13.314	1401.461	1090.595
20.848	13.076	1400.575	1088.239
21.863	12.940	1398.969	1086.000
22.877	12.807	1397.641	1084.001
23.892	12.677	1396.814	1082.409
24.907	12.685	1396.480	1082.107
25.921	12.742	1395.170	1081.364
26.936	12.782	1393.864	1080.523
27.950	12.734	1393.374	1079.733
28.965	12.925	1391.840	1079.698
29.980	12.917	1391.025	1078.916
30.994	12.995	1389.131	1077.861
32.009	13.095	1388.253	1077.741
33.023	13.073	1387.299	1076.759
34.038	12.955	1385.888	1074.799
35.053	12.926	1384.441	1073.395
36.067	12.868	1383.145	1071.921
37.082	12.880	1382.681	1071.543
38.096	12.984	1381.369	1071.105
39.111	12.961	1380.736	1070.367
40.126	12.864	1379.933	1069.023
41.140	12.778	1378.827	1067.516
42.155	12.706	1378.223	1066.488
43.169	12.632	1378.344	1066.005
44.184	12.675	1377.778	1065.753
45.199	12.736	1377.332	1065.707
46.213	12.745	1376.424	1064.968
47.228	12.796	1376.103	1064.959
48.242	12.859	1374.397	1063.951
49.257	12.847	1373.190	1062.842
50.271	12.827	1371.477	1061.291
51.286	12.795	1370.448	1060.197
52.301	12.821	1368.897	1059.071
53.315	12.631	1368.413	1057.385
54.330	12.652	1367.214	1056.497
55.344	12.704	1365.419	1055.351
56.359	12.732	1364.778	1054.942
57.374	12.776	1363.445	1054.096
58.388	12.621	1362.805	1052.519
59.403	12.811	1361.973	1052.997
60.417	12.663	1361.724	1051.768
61.432	12.569	1361.034	1050.541
62.447	12.522	1359.719	1049.134
63.461	12.477	1358.923	1048.141
64.476	12.602	1357.307	1047.597
65.490	12.562	1356.252	1046.432
66.505	12.554	1354.677	1045.079
67.520	12.598	1353.305	1044.203
68.534	12.700	1352.006	1043.758
69.549	12.632	1351.530	1042.863
70.563	12.582	1350.448	1041.623
71.578	12.587	1348.729	1040.234
72.593	12.483	1347.936	1038.876
73.607	12.481	1347.531	1038.461
74.622	12.406	1346.864	1037.379
75.636	12.450	1346.032	1036.924
76.651	12.547	1344.874	1036.554
77.666	12.495	1344.693	1035.991
78.680	12.490	1344.328	1035.587
79.695	12.484	1343.156	1034.553
80.709	12.544	1342.037	1033.977
81.724	12.579	1341.301	1033.539
82.739	12.669	1340.746	1033.584
83.753	12.747	1339.851	1033.296
84.768	12.786	1338.800	1032.636
85.782	12.924	1337.895	1032.714
86.797	12.921	1336.290	1031.365
87.812	12.773	1335.393	1029.656
88.826	12.781	1334.333	1028.793
89.841	12.757	1333.264	1027.733
90.855	12.786	1332.284	1027.067
91.870	12.848	1331.223	1026.541
92.884	12.883	1330.353	1025.997
93.899	12.931	1329.715	1025.714
94.914	13.000	1328.657	1025.237
95.928	13.002	1327.788	1024.487
96.943	12.880	1326.721	1022.814
97.957	12.832	1326.523	1022.277
98.972	12.846	1324.942	1021.056
99.987	12.792	1324.129	1020.002
101.001	12.949	1322.525	1019.650
102.016	12.796	1322.092	1018.280
103.030	12.836	1320.968	1017.571
104.045	12.972	1319.921	1017.514
105.060	12.903	1318.517	1015.916
106.074	12.717	1317.543	1013.928
107.089	12.696	1316.075	1012.582
108.103	12.593	1315.104	1011.108
109.118	12.627	1313.410	1009.929
110.133	12.712	1312.063	1009.322
111.147	12.656	1310.656	1007.807
112.162	12.618	1309.777	1006.809
113.176	12.674	1308.581	1006.148
114.191	12.783	1307.530	1005.911
115.206	12.692	1306.509	1004.485
116.220	12.596	1305.096	1002.722
117.235	12.751	1303.595	1002.424
118.249	12.742	1302.772	1001.649
119.264	12.683	1301.994	1000.602
120.279	12.681	1301.073	999.797
121.293	12.681	1299.812	998.737
122.308	12.584	1298.490	997.047
123.322	12.559	1297.779	996.260
124.337	12.486	1296.911	995.061
125.352	12.664	1294.968	994.560
126.366	12.672	1293.974	993.759
127.381	12.595	1293.296	992.685
128.395	12.602	1292.422	991.970
129.410	12.582	1291.662	991.178
130.424	12.621	1290.233	990.224
131.439	12.685	1289.412	989.896
132.454	12.753	1288.622	989.605
133.468	12.860	1287.507	989.307
134.483	12.787	1287.095	988.464
135.497	12.872	1286.097	988.122
136.512	12.798	1284.453	986.324
137.527	12.795	1283.053	985.145
138.541	12.723	1282.001	983.821
139.556	12.823	1280.746	983.368
140.570	12.954	1279.621	983.200
141.585	12.983	1278.086	982.107
142.600	12.992	1277.132	981.340
143.614	13.048	1276.162	980.841
144.629	13.063	1275.516	980.343
145.643	13.020	1274.044	978.872
146.658	12.981	1272.535	977.396
147.673	13.021	1271.073	976.423
148.687	12.895	1269.893	974.683
149.702	12.837	1268.917	973.508
150.716	12.757	1267.267	971.682
151.731	12.812	1266.450	971.296
152.746	12.842	1265.067	970.327
153.760	12.913	1263.668	969.585
154.775	12.936	1263.006	969.126
155.789	12.990	1261.620	968.292
156.804	13.003	1260.925	967.750
157.819	13.081	1259.599	967.100
158.833	12.995	1258.792	965.891
159.848	13.115	1257.556	965.561
160.862	12.996	1256.764	964.175
161.877	12.941	1255.545	962.833
162.892	12.933	1254.382	961.806
163.906	12.963	1253.439	961.171
164.921	12.916	1252.749	960.284
165.935	12.921	1251.847	959.537
166.950	12.979	1250.925	959.083
167.964	13.100	1250.165	959.122
168.979	12.985	1249.795	958.085
169.994	13.057	1248.465	957.393
171.008	12.944	1248.012	956.306
172.023	13.059	1246.954	956.081
173.037	13.110	1246.366	955.841
174.052	13.171	1245.181	955.198
175.067	12.964	1244.243	953.200
176.081	12.983	1243.489	952.646
177.096	12.957	1242.598	951.728
178.110	12.991	1241.521	951.020
179.125	12.965	1240.038	949.647
180.140	13.080	1238.596	949.122
181.154	13.193	1237.608	948.930
182.169	13.120	1236.227	947.369
183.183	13.228	1235.280	947.173
184.198	13.232	1234.160	946.255
185.213	13.288	1233.021	945.619
186.227	13.179	1232.168	944.258
187.242	13.317	1231.029	944.087
188.256	13.337	1230.126	943.426
189.271	13.334	1229.022	942.481
190.286	13.186	1227.937	940.722
191.300	13.073	1227.200	939.433
192.315	13.058	1226.286	938.563
193.329	12.929	1225.839	937.407
194.344	13.083	1224.849	937.441
195.359	13.099	1224.682	937.322
196.373	13.107	1224.152	936.879
197.388	13.308	1223.500	937.436
198.402	13.404	1223.060	937.558
199.417	13.345	1222.618	936.805
200.432	13.527	1221.531	936.917
201.446	13.441	1220.682	935.699
202.461	13.503	1220.077	935.500
203.475	13.510	1218.986	934.622
204.490	13.517	1217.624	933.534
205.504	13.465	1215.893	931.833
206.519	13.394	1215.177	930.800
207.534	13.401	1214.117	929.944
208.548	13.367	1213.150	928.932
209.563	13.383	1212.600	928.517
210.577	13.498	1211.109	927.938
211.592	13.539	1210.220	927.405
212.607	13.587	1209.906	927.349
213.621	13.659	1208.800	926.823
214.636	13.640	1207.536	925.667
215.650	13.626	1206.524	924.733
216.665	13.670	1205.733	924.288
217.680	13.714	1205.073	923.947
218.694	13.690	1204.308	923.145
219.709	13.652	1203.520	922.245
220.723	13.615	1203.010	921.566
221.738	13.692	1201.998	921.141
222.753	13.682	1201.231	920.415
223.767	13.695	1200.795	920.069
224.782	13.818	1199.855	919.949
225.796	13.889	1199.348	919.873
226.811	13.823	1198.425	918.722
227.826	13.811	1197.572	917.917
228.840	13.838	1196.972	917.525
229.855	13.795	1196.142	916.570
230.869	13.691	1195.254	915.236
231.884	13.824	1194.232	915.107
232.899	13.820	1193.306	914.291
233.913	13.776	1192.899	913.656
234.928	13.721	1192.259	912.784
235.942	13.698	1191.229	911.785
236.957	13.696	1190.169	910.887
237.972	13.742	1189.598	910.623
238.986	13.687	1189.330	910.034
240.001	13.689	1188.546	909.361
241.015	13.816	1187.436	909.131
242.030	13.809	1186.627	908.391
243.045	13.804	1185.847	907.687
244.059	13.928	1185.090	907.702
245.074	13.839	1184.150	906.416
246.088	13.976	1183.264	906.405
247.103	13.917	1182.766	905.621
248.117	14.026	1181.993	905.543
249.132	14.074	1181.285	905.186
250.147	14.223	1180.848	905.581
251.161	14.248	1180.027	905.004
252.176	14.289	1178.939	904.313
253.190	14.335	1178.342	904.025
254.205	14.360	1177.642	903.548
255.220	14.380	1177.425	903.406
256.234	14.370	1176.706	902.721
257.249	14.503	1175.804	902.670
258.263	14.329	1175.707	901.572
259.278	14.282	1174.918	900.634
260.293	14.388	1174.285	900.644
261.307	14.358	1173.432	899.749
262.322	14.415	1172.821	899.506
263.336	14.540	1172.120	899.562
264.351	14.392	1171.962	898.561
265.366	14.568	1171.083	898.757
266.380	14.544	1170.114	897.806
267.395	14.514	1169.252	896.904
268.409	14.372	1168.730	895.659
269.424	14.376	1167.813	894.898
270.439	14.368	1167.614	894.627
271.453	14.494	1166.543	894.403
272.468	14.469	1165.455	893.354
273.482	14.413	1164.919	892.567
274.497	14.429	1164.446	892.206
275.512	14.517	1163.892	892.178
276.526	14.414	1162.932	890.810
277.541	14.440	1161.772	889.983
278.555	14.495	1161.527	890.011
279.570	14.535	1160.808	889.593
280.585	14.788	1159.681	889.999
281.599	14.622	1158.987	888.503
282.614	14.703	1157.736	887.895
283.628	14.591	1156.471	886.251
284.643	14.557	1155.742	885.434
285.657	14.653	1155.086	885.362
286.672	14.742	1154.021	884.940
287.687	14.771	1153.029	884.254
288.701	14.758	1152.396	883.624
289.716	14.606	1151.780	882.269
290.730	14.724	1151.351	882.485
291.745	14.701	1150.544	881.666
292.760	14.709	1149.419	880.767
293.774	14.816	1148.660	880.674
294.789	14.832	1148.551	880.594
295.803	14.858	1147.936	880.183
296.818	14.765	1146.940	878.853
297.833	14.794	1145.990	878.198
298.847	14.849	1144.907	877.579
299.862	14.814	1144.068	876.679
300.876	14.792	1143.817	876.289
301.891	14.924	1142.988	876.273
302.906	14.836	1142.322	875.224
303.920	14.949	1141.596	875.178
304.935	15.022	1140.759	874.844
305.949	15.042	1140.123	874.379
306.964	14.954	1139.852	873.638
307.979	14.940	1138.950	872.796
308.993	15.063	1138.200	872.786
310.008	15.081	1137.280	872.095
311.022	15.106	1136.454	871.517
312.037	15.105	1135.747	870.890
313.052	15.132	1134.604	870.078
314.066	14.983	1134.003	868.765
315.081	14.985	1133.082	867.995
316.095	15.025	1132.007	867.302
317.110	14.928	1131.224	866.119
318.125	15.015	1130.475	865.919
319.139	15.118	1129.754	865.826
320.154	15.048	1129.139	864.913
321.168	14.929	1128.927	864.062
322.183	15.087	1127.998	864.089
323.197	15.121	1127.535	863.833
324.212	15.205	1126.629	863.495
325.227	15.212	1125.852	862.858
326.241	15.133	1125.561	862.152
327.256	15.077	1124.886	861.272
328.270	15.173	1123.572	860.683
329.285	15.143	1122.683	859.772
330.300	15.193	1121.857	859.320
331.314	15.074	1121.220	858.145
332.329	15.154	1120.029	857.570
333.343	15.131	1119.182	856.727
334.358	15.165	1118.410	856.233
335.373	15.235	1117.652	855.936
336.387	15.363	1116.903	855.938
337.402	15.318	1116.239	855.126
338.416	15.336	1115.725	854.747
339.431	15.408	1114.967	854.455
340.446	15.391	1114.254	853.749
341.460	15.563	1113.519	853.986
342.475	15.551	1112.572	853.124
343.489	15.572	1111.707	852.490
344.504	15.496	1111.103	851.566
345.519	15.585	1109.680	850.853
346.533	15.587	1109.125	850.360
347.548	15.578	1108.804	849.991
348.562	15.663	1108.104	849.812
349.577	15.611	1106.727	848.419
350.592	15.570	1105.914	847.513
351.606	15.575	1105.263	846.964
352.621	15.427	1104.566	845.608
353.635	15.447	1104.342	845.464
354.650	15.550	1102.926	844.820
355.665	15.514	1102.385	844.154
356.679	15.544	1101.806	843.786
357.694	15.635	1101.140	843.658
358.708	15.550	1100.420	842.607
359.723	15.619	1099.693	842.318
360.738	15.738	1098.807	842.163
361.752	15.675	1098.858	841.809
362.767	15.646	1098.230	841.111
363.781	15.710	1097.730	840.970
364.796	15.679	1097.037	840.215
365.810	15.802	1096.583	840.405
366.825	15.846	1095.805	839.954
367.840	15.879	1095.391	839.727
368.854	16.010	1094.765	839.825
369.869	15.965	1093.928	838.887
370.883	16.052	1093.064	838.580
371.898	15.888	1092.108	836.960
372.913	15.875	1091.675	836.491
373.927	15.920	1091.310	836.355
374.942	15.974	1090.827	836.180
375.956	16.000	1090.228	835.778
376.971	15.941	1089.474	834.834
377.986	16.049	1088.938	834.886
379.000	16.013	1088.459	834.265
380.015	16.282	1087.568	834.837
381.029	16.135	1087.038	833.630
382.044	16.252	1086.119	833.428
383.059	16.214	1085.387	832.609
384.073	16.179	1084.911	831.996
385.088	16.118	1083.960	830.891
386.102	16.236	1082.544	830.311
387.117	16.049	1081.816	828.762
388.132	16.141	1080.969	828.493
389.146	16.060	1080.456	827.626
390.161	16.023	1079.820	826.885
391.175	16.154	1078.860	826.719
392.190	16.219	1078.081	826.367
393.205	16.226	1077.355	825.773
394.219	16.231	1076.312	824.927
395.234	16.316	1075.496	824.640
396.248	16.150	1074.744	823.180
397.263	16.154	1073.568	822.229
398.278	16.163	1073.512	822.153
399.292	16.080	1072.451	820.864
400.307	16.021	1071.937	820.114
401.321	16.213	1071.041	820.290
402.336	16.228	1070.511	819.881
403.350	16.255	1069.714	819.332
404.365	16.286	1068.950	818.824
405.380	16.199	1068.567	818.038
406.394	16.282	1067.359	817.441
407.409	16.338	1066.555	817.022
408.423	16.495	1065.799	817.129
409.438	16.508	1064.844	816.392
410.453	16.526	1064.486	816.127
411.467	16.482	1064.007	815.479
412.482	16.560	1063.122	815.104
413.496	16.616	1062.513	814.837
414.511	16.660	1062.091	814.649
415.526	16.592	1061.597	813.870
416.540	16.668	1061.306	813.944
417.555	16.705	1060.460	813.400
418.569	16.721	1059.934	813.002
419.584	16.736	1059.427	812.611
420.599	16.792	1058.957	812.448
421.613	70.639	1270.192	1273.987
422.628	65.076	1300.987	1274.150
