DTS Sentinel unit serial number:	SN413079Multiplexer serial number:	ORYXHardware model number:	OX4-SRSoftware version number:	ORYX F/W v4.00 Oryx Data Collector v3.7.2.0data status	okinstallation	princeton_trtdifferential loss correction	single-endedforward channel	channel 2reverse channel	N/Adate	2019/09/12time	16:33:11forward acquisition time	60.00reverse acquisition time	0.00gamma	496.2192k internal	0.2321k external	0.2321temperature offset calibration	1.0113default loss term (dB/km)	0.3790temperature slope calibration	1.0000multiplexer offset coefficient	1.0000multiplexer slope coefficient	1.0000fibre end	0.00T internal ref (°C)	37.12T ext. ref 1 (°C)	2.60T ext. ref 2 (°C)	29.73length (m)	temperature (°C)	Stokes	anti-Stokes-747.200	800.000	-0.076	0.308
-746.185	-133.994	0.169	0.021
-745.171	-57.855	0.410	-0.181
-744.156	363.055	0.190	0.385
-743.142	-121.498	-0.379	-0.064
-742.127	1.859	-0.152	0.111
-741.112	-7.936	-0.216	-0.147
-740.098	407.204	0.112	-0.239
-739.083	576.604	0.046	-0.114
-738.069	37.775	-0.390	0.350
-737.054	-200.000	0.048	0.251
-736.039	-101.863	-0.368	0.090
-735.025	89.065	-0.046	-0.052
-734.010	-200.000	0.000	0.086
-732.996	-62.367	-0.073	0.031
-731.981	186.537	-0.101	0.152
-730.966	-200.000	0.031	-0.159
-729.952	233.737	0.190	-0.315
-728.937	-151.721	-0.290	0.022
-727.923	438.577	-0.041	-0.090
-726.908	-148.846	-0.273	0.022
-725.894	285.789	-0.180	-0.329
-724.879	-200.000	0.000	0.140
-723.864	-54.118	0.414	0.190
-722.850	-200.000	0.001	-0.187
-721.835	-121.802	-0.251	0.042
-720.821	-200.000	0.033	-0.333
-719.806	73.413	0.146	-0.154
-718.791	-200.000	0.022	0.160
-717.777	-38.913	-0.279	-0.148
-716.762	-100.059	0.159	0.040
-715.748	-168.153	-0.411	-0.016
-714.733	8.589	-0.274	0.208
-713.718	119.726	0.041	-0.052
-712.704	177.892	-0.051	-0.075
-711.689	-198.364	0.221	-0.001
-710.675	72.194	-0.080	0.084
-709.660	18.241	0.167	0.134
-708.645	-135.291	-0.239	-0.029
-707.631	18.949	-0.376	0.304
-706.616	-200.000	-0.003	0.409
-705.602	-149.652	0.173	-0.014
-704.587	757.583	-0.094	0.256
-703.572	800.000	-0.081	-0.263
-702.558	-200.000	0.007	-0.146
-701.543	201.686	0.198	-0.308
-700.529	800.000	0.091	-0.329
-699.514	145.563	-0.171	-0.232
-698.499	800.000	-0.079	0.270
-697.485	-166.881	-0.256	-0.011
-696.470	-110.172	-0.272	0.057
-695.456	-200.000	-0.006	0.130
-694.441	4.639	-0.136	0.101
-693.426	-156.650	0.329	-0.021
-692.412	-82.027	-0.334	-0.110
-691.397	134.447	0.015	-0.020
-690.383	-166.216	0.081	0.003
-689.368	-40.997	-0.306	-0.160
-688.354	-138.022	0.315	-0.035
-687.339	-97.738	-0.234	0.061
-686.324	-200.000	0.029	0.214
-685.310	800.000	-0.037	-0.112
-684.295	-70.752	-0.119	0.045
-683.281	135.165	0.159	0.208
-682.266	44.246	-0.144	0.133
-681.251	198.631	-0.152	0.234
-680.237	-20.569	0.149	0.092
-679.222	-200.000	-0.164	-0.000
-678.208	-200.000	0.063	-0.465
-677.193	-152.871	-0.349	-0.025
-676.178	116.298	0.066	0.081
-675.164	800.000	-0.018	0.072
-674.149	-52.399	-0.318	-0.148
-673.135	-107.249	-0.170	0.038
-672.120	363.941	-0.175	0.355
-671.105	-70.857	-0.304	0.115
-670.091	10.075	-0.264	0.202
-669.076	-174.187	-0.236	-0.007
-668.062	13.796	-0.220	-0.172
-667.047	-146.930	-0.070	-0.006
-666.032	-10.100	0.201	-0.134
-665.018	159.392	-0.148	-0.208
-664.003	218.524	0.143	-0.231
-662.989	-31.668	-0.080	0.045
-661.974	800.000	-0.145	-0.408
-660.959	138.675	0.072	-0.095
-659.945	-150.192	-0.349	-0.027
-658.930	172.628	0.122	-0.177
-657.916	800.000	0.079	0.263
-656.901	-137.298	-0.327	0.037
-655.886	-43.289	0.492	-0.251
-654.872	-200.000	-0.006	0.175
-653.857	615.417	-0.118	0.299
-652.843	31.752	0.198	-0.172
-651.828	-50.014	-0.267	0.127
-650.814	69.371	0.182	0.188
-649.799	-200.000	-0.064	-0.345
-648.784	-200.000	-0.030	-0.298
-647.770	-148.338	0.501	-0.041
-646.755	133.536	0.033	0.043
-645.741	-2.751	0.049	-0.035
-644.726	800.000	0.031	0.135
-643.711	107.272	-0.218	-0.261
-642.697	-200.000	0.023	0.232
-641.682	-165.746	-0.286	-0.012
-640.668	238.961	-0.043	-0.072
-639.653	-127.373	-0.408	0.060
-638.638	145.055	-0.100	-0.134
-637.624	-200.000	-0.006	0.166
-636.609	110.372	0.192	-0.232
-635.595	-91.654	0.277	-0.079
-634.580	115.634	-0.122	0.150
-633.565	-131.743	0.077	-0.010
-632.551	-51.639	-0.181	0.085
-631.536	-43.081	0.164	0.084
-630.522	476.914	-0.040	-0.092
-629.507	17.755	-0.343	-0.275
-628.492	800.000	0.062	-0.179
-627.478	-48.545	0.207	0.100
-626.463	-82.994	-0.062	-0.020
-625.449	-42.620	-0.333	0.170
-624.434	-200.000	-0.007	-0.075
-623.419	-161.605	-0.197	0.010
-622.405	326.546	0.027	0.051
-621.390	-36.950	-0.080	-0.043
-620.376	150.248	-0.145	0.198
-619.361	-100.384	-0.311	0.077
-618.346	72.173	-0.148	-0.155
-617.332	254.140	-0.087	-0.149
-616.317	283.605	0.042	0.075
-615.303	180.974	-0.102	0.150
-614.288	-184.755	0.357	-0.006
-613.273	68.465	0.155	-0.160
-612.259	-200.000	0.021	-0.165
-611.244	36.164	0.162	-0.143
-610.230	-158.324	-0.372	-0.022
-609.215	86.067	0.131	-0.145
-608.201	111.483	0.080	-0.097
-607.186	-122.835	-0.044	-0.007
-606.171	-200.000	-0.030	0.257
-605.157	-99.560	0.272	-0.069
-604.142	221.597	0.074	0.120
-603.128	159.546	0.108	0.151
-602.113	181.395	0.137	-0.202
-601.098	-11.900	0.412	0.271
-600.084	-78.513	0.287	0.099
-599.069	-153.988	0.250	0.017
-598.055	-68.276	0.489	0.191
-597.040	-91.829	0.149	-0.042
-596.025	-70.039	-0.445	-0.170
-595.011	-36.552	0.087	0.047
-593.996	430.931	0.047	0.103
-592.982	-171.069	-0.260	-0.009
-591.967	-69.576	-0.239	-0.092
-590.952	-125.994	-0.349	-0.053
-589.938	-143.983	0.381	-0.036
-588.923	800.000	-0.069	-0.209
-587.909	-171.187	-0.124	0.004
-586.894	86.835	0.090	-0.100
-585.879	-141.251	0.148	0.015
-584.865	275.199	-0.157	-0.279
-583.850	-134.717	0.285	0.035
-582.836	-174.704	-0.227	-0.006
-581.821	-99.909	0.181	0.045
-580.806	-200.000	0.066	0.326
-579.792	-200.000	-0.351	-0.001
-578.777	191.061	0.080	0.122
-577.763	112.172	-0.159	0.193
-576.748	-116.013	-0.176	-0.033
-575.733	-43.537	0.108	0.055
-574.719	104.404	-0.187	0.221
-573.704	-166.203	0.261	-0.011
-572.690	800.000	-0.078	0.270
-571.675	385.345	-0.061	-0.126
-570.661	186.034	0.110	-0.165
-569.646	82.468	0.118	0.129
-568.631	-37.194	-0.193	-0.104
-567.617	-200.000	0.023	0.359
-566.602	-85.474	-0.193	-0.060
-565.588	-50.735	0.195	-0.092
-564.573	434.401	0.013	-0.029
-563.558	147.848	-0.156	-0.211
-562.544	800.000	0.080	0.228
-561.529	103.097	0.063	-0.074
-560.515	-74.801	-0.183	-0.066
-559.500	-57.385	0.080	-0.035
-558.485	269.240	0.097	0.171
-557.471	411.110	0.014	0.029
-556.456	-100.758	-0.243	0.060
-555.442	107.343	0.147	0.176
-554.427	-200.000	0.007	0.151
-553.412	-69.102	0.189	-0.073
-552.398	-83.289	-0.413	0.133
-551.383	367.333	-0.189	0.382
-550.369	-14.665	0.185	-0.119
-549.354	-200.000	-0.007	0.052
-548.339	5.262	0.298	-0.220
-547.325	-200.000	-0.012	-0.259
-546.310	-171.379	0.184	-0.006
-545.296	-26.576	-0.142	0.083
-544.281	101.479	0.231	0.269
-543.266	-114.856	-0.132	-0.025
-542.252	-163.000	0.121	-0.006
-541.237	246.135	0.090	-0.153
-540.223	-132.691	-0.153	0.020
-539.208	800.000	-0.060	0.192
-538.193	800.000	-0.106	0.363
-537.179	800.000	0.082	-0.319
-536.164	800.000	-0.044	0.147
-535.150	694.925	-0.103	-0.270
-534.135	77.361	0.242	-0.258
-533.121	-200.000	-0.042	-0.321
-532.106	-66.131	-0.222	-0.089
-531.091	-37.018	-0.208	-0.112
-530.077	182.564	-0.098	0.145
-529.062	-21.884	0.197	-0.120
-528.048	-196.285	-0.100	-0.001
-527.033	533.333	-0.059	0.139
-526.018	-200.000	-0.025	0.190
-525.004	315.360	0.113	-0.213
-523.989	33.958	0.141	-0.123
-522.975	-20.014	-0.108	0.067
-521.960	-188.327	0.254	-0.003
-520.945	-56.000	-0.376	-0.168
-519.931	210.209	0.156	-0.245
-518.916	-25.968	0.277	-0.163
-517.902	10.958	-0.196	0.150
-516.887	121.525	-0.134	-0.167
-515.872	136.237	0.216	0.282
-514.858	73.982	0.084	-0.089
-513.843	-124.103	-0.256	-0.040
-512.829	-184.728	-0.441	-0.007
-511.814	800.000	-0.036	-0.105
-510.799	20.985	0.051	0.041
-509.785	-200.000	0.012	0.308
-508.770	33.285	-0.257	-0.223
-507.756	-7.710	0.086	-0.058
-506.741	29.465	0.054	-0.046
-505.726	-131.515	0.366	-0.048
-504.712	128.665	-0.103	-0.132
-503.697	566.000	0.118	0.285
-502.683	146.932	-0.168	0.226
-501.668	-139.305	0.265	-0.029
-500.653	-88.828	-0.087	0.026
-499.639	-124.321	0.257	0.040
-498.624	-137.440	0.337	0.038
-497.610	796.247	-0.050	0.139
-496.595	71.468	-0.264	0.274
-495.581	-2.774	-0.148	0.104
-494.566	-200.000	0.020	-0.089
-493.551	-166.207	-0.131	0.006
-492.537	-31.635	-0.308	0.173
-491.522	100.328	0.108	0.125
-490.508	8.629	0.254	-0.192
-489.493	104.034	0.209	-0.245
-488.478	-140.061	-0.067	0.007
-487.464	-63.859	-0.234	0.096
-486.449	238.817	-0.131	0.219
-485.435	-84.786	-0.084	-0.027
-484.420	155.969	-0.016	-0.022
-483.405	460.062	-0.100	0.223
-482.391	567.213	0.130	-0.315
-481.376	208.283	0.122	-0.191
-480.362	-178.196	0.147	0.003
-479.347	-6.013	0.217	-0.149
-478.332	286.004	0.080	0.144
-477.318	-157.617	0.285	-0.017
-476.303	800.000	-0.092	0.254
-475.289	349.930	0.171	0.338
-474.274	800.000	-0.064	-0.226
-473.259	124.666	-0.360	0.453
-472.245	-200.000	0.035	-0.233
-471.230	-28.513	-0.326	0.188
-470.216	-58.099	0.106	-0.046
-469.201	359.008	0.096	-0.191
-468.186	-185.410	-0.190	-0.003
-467.172	-200.000	-0.022	-0.174
-466.157	-114.027	0.340	-0.066
-465.143	-80.828	-0.376	0.125
-464.128	159.345	-0.058	-0.081
-463.113	147.940	-0.036	-0.049
-462.099	237.024	-0.092	0.153
-461.084	354.180	-0.179	-0.356
-460.070	150.459	-0.022	0.030
-459.055	-200.000	0.002	-0.049
-458.040	-47.820	-0.229	0.111
-457.026	-81.051	-0.211	0.070
-456.011	112.224	-0.218	0.263
-454.997	-4.407	0.198	-0.137
-453.982	800.000	-0.142	0.429
-452.968	-200.000	-0.012	-0.140
-451.953	-194.166	-0.211	-0.002
-450.938	38.622	0.090	0.080
-449.924	253.667	-0.065	-0.112
-448.909	264.165	-0.055	-0.096
-447.895	77.994	-0.098	-0.105
-446.880	-110.080	0.246	-0.051
-445.865	343.954	0.018	0.036
-444.851	-136.909	-0.169	0.019
-443.836	-107.780	0.058	-0.013
-442.822	-67.798	0.335	0.131
-441.807	-103.699	-0.207	0.049
-440.792	590.459	-0.120	0.295
-439.778	357.343	0.077	0.154
-438.763	417.490	0.052	-0.112
-437.749	306.225	0.292	0.544
-436.734	135.372	-0.046	0.060
-435.719	292.560	-0.243	-0.443
-434.705	30.185	0.278	0.237
-433.690	301.925	-0.066	0.122
-432.676	-200.000	-0.015	-0.141
-431.661	84.032	-0.043	0.046
-430.646	744.186	0.088	0.237
-429.632	-84.851	-0.414	-0.130
-428.617	-6.679	0.125	0.085
-427.603	-62.425	0.366	0.152
-426.588	63.546	-0.214	-0.214
-425.573	407.805	0.054	-0.114
-424.559	-200.000	0.035	0.358
-423.544	-110.898	0.175	0.036
-422.530	12.838	0.287	-0.221
-421.515	-200.000	0.003	-0.319
-420.500	-145.742	0.163	-0.014
-419.486	-26.645	-0.141	0.083
-418.471	22.823	0.197	-0.161
-417.457	-139.880	0.113	-0.012
-416.442	671.524	-0.084	-0.217
-415.428	800.000	0.109	-0.319
-414.413	113.289	-0.206	-0.250
-413.398	118.292	-0.162	-0.199
-412.384	-51.370	-0.194	-0.091
-411.369	420.005	0.035	0.074
-410.355	800.000	-0.053	-0.178
-409.340	-146.694	-0.222	0.019
-408.325	332.566	-0.063	0.122
-407.311	-68.204	-0.297	0.115
-406.296	-76.019	-0.118	0.042
-405.282	-51.461	-0.192	-0.090
-404.267	-77.777	0.220	0.076
-403.252	-200.000	0.005	0.185
-402.238	800.000	-0.081	-0.262
-401.223	800.000	-0.047	0.190
-400.209	-111.196	-0.203	0.041
-399.194	-171.731	0.329	-0.011
-398.179	-89.093	0.130	0.038
-397.165	118.313	-0.039	-0.048
-396.150	545.819	-0.170	-0.406
-395.136	800.000	0.092	-0.278
-394.121	668.533	-0.084	0.216
-393.106	800.000	0.051	-0.222
-392.092	300.995	-0.249	-0.458
-391.077	438.327	0.094	0.205
-390.063	125.170	-0.096	0.120
-389.048	800.000	0.045	0.177
-388.033	198.197	0.116	0.177
-387.019	-200.000	-0.018	0.130
-386.004	-43.093	-0.127	0.064
-384.990	-94.397	-0.099	0.027
-383.975	-31.022	-0.145	0.081
-382.960	78.473	0.132	0.140
-381.946	-111.967	0.395	-0.079
-380.931	325.624	-0.081	-0.154
-379.917	-127.345	0.304	0.044
-378.902	618.888	-0.068	0.170
-377.888	-86.357	-0.099	-0.030
-376.873	-102.993	-0.193	0.046
-375.858	-106.499	0.167	0.037
-374.844	-172.596	-0.083	-0.003
-373.829	-111.645	-0.027	0.006
-372.815	-97.814	-0.310	-0.080
-371.800	713.477	0.110	-0.291
-370.785	-76.265	0.187	-0.066
-369.771	-131.636	-0.346	0.045
-368.756	337.386	0.060	-0.116
-367.742	-19.919	-0.189	-0.116
-366.727	161.085	0.089	0.124
-365.712	-160.793	-0.278	-0.015
-364.698	-24.247	-0.119	-0.071
-363.683	-20.726	-0.258	0.157
-362.669	-90.725	0.175	0.050
-361.654	-94.696	0.201	0.054
-360.639	800.000	0.062	-0.262
-359.625	-41.949	0.323	-0.165
-358.610	-33.249	-0.237	-0.130
-357.596	246.399	0.053	-0.088
-356.581	11.394	-0.075	-0.057
-355.566	800.000	-0.067	0.208
-354.552	208.691	0.175	0.272
-353.537	-88.585	-0.280	0.083
-352.523	-69.127	0.205	-0.078
-351.508	785.621	-0.052	-0.143
-350.493	-80.570	-0.208	-0.069
-349.479	-150.601	-0.303	0.023
-348.464	57.655	-0.323	-0.314
-347.450	800.000	0.069	0.219
-346.435	-38.085	0.254	-0.134
-345.420	-200.000	-0.001	0.110
-344.406	-71.723	0.358	-0.133
-343.391	-88.938	-0.176	-0.052
-342.377	-119.431	-0.229	0.040
-341.362	-74.910	-0.083	0.030
-340.348	800.000	0.094	0.375
-339.333	-87.358	0.213	0.064
-338.318	-44.077	-0.129	0.064
-337.304	105.298	0.083	-0.097
-336.289	70.814	0.201	0.207
-335.275	382.359	-0.096	0.196
-334.260	289.293	0.078	-0.140
-333.245	-117.944	-0.179	-0.032
-332.231	-64.694	0.115	0.046
-331.216	800.000	-0.132	-0.397
-330.202	-86.132	0.326	0.100
-329.187	-59.153	0.196	-0.084
-328.172	369.518	0.047	-0.095
-327.158	-75.150	0.231	-0.082
-326.143	-144.235	0.147	-0.014
-325.129	-157.783	0.066	0.004
-324.114	-24.431	-0.190	-0.113
-323.099	-200.000	-0.057	-0.000
-322.085	631.613	-0.139	-0.350
-321.070	-113.557	0.136	0.026
-320.056	-42.814	0.094	-0.047
-319.041	-107.570	0.289	-0.063
-318.026	800.000	0.102	0.379
-317.012	-43.749	-0.090	0.045
-315.997	-137.856	0.214	0.024
-314.983	-200.000	-0.008	0.189
-313.968	-129.524	-0.164	-0.022
-312.953	800.000	-0.042	-0.182
-311.939	489.269	0.102	-0.232
-310.924	35.495	-0.145	-0.127
-309.910	109.707	-0.049	0.058
-308.895	-106.084	0.151	-0.034
-307.880	53.563	0.159	-0.152
-306.866	98.126	0.027	0.031
-305.851	9.782	-0.268	-0.202
-304.837	70.361	-0.099	-0.102
-303.822	334.982	-0.085	-0.164
-302.807	-82.861	0.148	-0.047
-301.793	-200.000	-0.005	0.431
-300.778	197.197	0.005	0.007
-299.764	-200.000	0.041	-0.240
-298.749	556.253	0.084	0.201
-297.735	-200.000	0.048	0.365
-296.720	345.290	0.079	0.154
-295.705	800.000	-0.074	-0.204
-294.691	-200.000	0.007	0.154
-293.676	248.589	0.141	-0.238
-292.662	-200.000	0.002	0.425
-291.647	192.093	-0.234	0.350
-290.632	800.000	0.025	-0.092
-289.618	206.059	-0.127	0.196
-288.603	444.795	0.037	-0.081
-287.589	-97.115	-0.232	-0.060
-286.574	800.000	-0.071	0.217
-285.559	-129.123	-0.309	0.043
-284.545	153.089	-0.156	0.212
-283.530	-27.678	0.257	-0.148
-282.516	382.643	0.231	0.471
-281.501	103.322	-0.061	0.072
-280.486	80.676	-0.163	-0.174
-279.472	-105.991	-0.219	0.049
-278.457	-92.171	-0.220	0.062
-277.443	174.456	0.284	-0.407
-276.428	-16.087	-0.094	-0.059
-275.413	800.000	0.050	0.143
-274.399	-200.000	-0.059	-0.368
-273.384	50.490	-0.197	-0.185
-272.370	800.000	0.088	-0.303
-271.355	-74.454	-0.231	0.083
-270.340	733.317	-0.018	-0.049
-269.326	500.839	-0.128	0.293
-268.311	451.380	0.063	-0.138
-267.297	-25.137	0.126	0.074
-266.282	703.054	-0.028	0.072
-265.267	739.407	0.046	-0.124
-264.253	-166.259	0.325	-0.014
-263.238	-38.888	0.229	0.120
-262.224	291.763	-0.194	-0.350
-261.209	471.653	0.025	0.056
-260.195	-149.051	0.254	-0.020
-259.180	225.594	0.091	0.147
-258.165	297.308	0.099	0.180
-257.151	486.176	0.022	-0.051
-256.136	800.000	0.103	0.325
-255.122	27.390	0.332	-0.276
-254.107	-135.761	0.179	-0.021
-253.092	-109.211	-0.398	-0.084
-252.078	20.213	0.197	-0.157
-251.063	195.944	0.273	-0.412
-250.049	-200.000	0.035	0.257
-249.034	800.000	0.063	0.193
-248.019	72.085	0.228	0.235
-247.005	-58.603	-0.133	-0.057
-245.990	-58.231	-0.036	-0.016
-244.976	-200.000	0.005	0.051
-243.961	18.049	-0.030	-0.024
-242.946	-45.283	0.244	0.120
-241.932	-11.674	0.071	0.046
-240.917	-10.529	-0.206	0.135
-239.903	-101.813	0.185	-0.044
-238.888	44.450	0.196	0.178
-237.873	32.013	0.099	0.084
-236.859	38.962	0.266	0.236
-235.844	16.219	-0.302	0.236
-234.830	-200.000	-0.005	0.078
-233.815	87.088	0.126	-0.137
-232.800	-200.000	-0.027	0.201
-231.786	-23.503	0.200	0.119
-230.771	5.629	-0.146	0.107
-229.757	227.587	0.036	0.058
-228.742	-90.888	0.126	0.036
-227.727	-200.000	-0.067	-0.350
-226.713	247.236	-0.103	0.172
-225.698	-27.475	0.342	0.197
-224.684	-25.349	0.096	-0.056
-223.669	800.000	-0.025	-0.103
-222.655	800.000	-0.031	0.100
-221.640	-110.939	0.195	-0.040
-220.625	-200.000	0.002	0.253
-219.611	63.880	0.179	-0.178
-218.596	735.295	-0.126	-0.335
-217.582	-200.000	-0.031	-0.159
-216.567	800.000	0.113	0.330
-215.552	-135.211	-0.039	0.005
-214.538	112.317	0.155	0.185
-213.523	441.158	-0.108	-0.235
-212.509	800.000	-0.088	-0.283
-211.494	-64.344	-0.074	0.030
-210.479	412.730	0.096	-0.202
-209.465	236.065	-0.108	-0.176
-208.450	94.061	0.102	0.115
-207.436	14.934	0.084	0.065
-206.421	-84.775	0.183	-0.057
-205.406	151.443	-0.161	-0.217
-204.392	524.725	-0.102	-0.238
-203.377	-200.000	-0.093	-0.446
-202.363	-98.247	-0.248	-0.063
-201.348	-72.104	-0.116	0.043
-200.333	-45.612	0.133	-0.065
-199.319	-200.000	-0.013	-0.481
-198.304	395.717	0.021	0.042
-197.290	-194.430	-0.231	0.002
-196.275	-69.269	0.410	0.156
-195.260	129.778	0.108	0.137
-194.246	38.672	0.191	-0.169
-193.231	342.058	-0.048	-0.092
-192.217	-200.000	-0.001	-0.199
-191.202	-127.247	0.120	-0.017
-190.187	800.000	0.028	-0.088
-189.173	322.946	-0.026	0.049
-188.158	18.801	-0.033	-0.026
-187.144	265.770	-0.208	0.359
-186.129	155.196	-0.235	0.320
-185.114	248.942	0.075	0.126
-184.100	-63.876	0.183	0.074
-183.085	396.709	-0.061	-0.126
-182.071	88.207	0.088	-0.097
-181.056	800.000	0.085	0.333
-180.042	132.286	-0.137	-0.175
-179.027	800.000	0.128	-0.446
-178.012	15.248	0.203	-0.158
-176.998	-137.796	-0.137	0.015
-175.983	413.920	0.028	-0.058
-174.969	163.372	-0.205	-0.284
-173.954	800.000	0.099	0.306
-172.939	800.000	0.069	0.271
-171.925	-200.000	0.030	-0.149
-170.910	97.741	-0.094	0.107
-169.896	85.671	-0.225	0.245
-168.881	115.451	0.028	0.034
-167.866	-200.000	0.007	0.106
-166.852	66.780	0.086	-0.087
-165.837	78.378	-0.108	-0.114
-164.823	101.838	-0.081	-0.094
-163.808	-91.249	0.138	0.039
-162.793	-90.129	-0.084	0.024
-161.779	-200.000	-0.016	0.132
-160.764	-144.160	-0.274	-0.025
-159.750	48.618	0.330	0.305
-158.735	-159.258	0.351	0.019
-157.720	-200.000	0.047	-0.248
-156.706	-200.000	-0.011	-0.138
-155.691	-15.030	-0.333	0.211
-154.677	-200.000	-0.227	0.001
-153.662	-200.000	0.053	0.242
-152.647	800.000	-0.104	0.416
-151.633	-143.392	-0.013	0.001
-150.618	-122.317	0.188	-0.030
-149.604	-200.000	-0.020	-0.170
-148.589	-200.000	-0.052	0.404
-147.574	-30.357	0.249	0.139
-146.560	703.628	-0.003	-0.008
-145.545	800.000	0.111	-0.406
-144.531	800.000	0.085	-0.275
-143.516	-128.992	-0.124	0.017
-142.502	473.604	0.050	0.112
-141.487	248.803	0.072	0.121
-140.472	120.291	0.072	0.089
-139.458	-101.023	0.373	0.090
-138.443	-153.641	0.129	0.009
-137.429	-132.142	0.242	0.031
-136.414	-74.095	0.118	0.042
-135.399	137.602	-0.344	-0.444
-134.385	-42.130	0.248	-0.125
-133.370	173.687	-0.230	-0.328
-132.356	-200.000	-0.045	-0.203
-131.341	214.459	0.068	0.106
-130.326	-100.408	-0.165	0.040
-129.312	-52.835	-0.262	-0.119
-128.297	-26.400	0.306	0.177
-127.283	-200.000	0.006	0.080
-126.268	-110.174	0.247	0.051
-125.253	135.067	0.147	0.189
-124.239	-200.000	-0.013	0.212
-123.224	521.001	-0.021	0.049
-122.210	-163.015	-0.448	0.021
-121.195	363.162	0.122	0.243
-120.180	-10.319	0.062	0.040
-119.166	251.987	0.179	0.301
-118.151	-200.000	-0.071	0.436
-117.137	-76.364	0.162	-0.056
-116.122	-58.077	0.143	-0.062
-115.107	800.000	0.099	-0.293
-114.093	-200.000	0.033	0.251
-113.078	121.708	-0.176	-0.216
-112.064	-200.000	0.008	-0.084
-111.049	800.000	-0.069	0.211
-110.034	219.739	-0.142	0.224
-109.020	119.982	-0.155	-0.190
-108.005	-35.290	0.302	-0.162
-106.991	145.094	0.271	0.357
-105.976	800.000	0.073	0.209
-104.962	-49.989	0.089	0.042
-103.947	-200.000	0.027	0.248
-102.932	690.732	-0.049	-0.126
-101.918	800.000	-0.054	0.163
-100.903	68.169	0.155	0.156
-99.889	-22.316	-0.090	-0.054
-98.874	111.560	0.064	-0.076
-97.859	-145.218	0.170	0.015
-96.845	176.987	-0.237	-0.340
-95.830	9.154	-0.137	0.102
-94.816	18.306	0.041	0.032
-93.801	154.133	0.118	-0.159
-92.786	-200.000	0.003	0.079
-91.772	15.517	0.015	0.012
-90.757	280.319	-0.181	-0.319
-89.743	-200.000	0.006	0.122
-88.728	381.217	0.119	0.241
-87.713	-200.000	0.018	-0.397
-86.699	134.702	-0.115	-0.147
-85.684	437.501	-0.097	0.207
-84.670	324.677	0.183	-0.345
-83.655	-116.853	-0.167	-0.030
-82.640	171.838	0.046	-0.065
-81.626	491.811	-0.035	-0.080
-80.611	800.000	-0.037	-0.109
-79.597	800.000	-0.079	-0.278
-78.582	699.706	0.115	0.298
-77.567	-141.166	0.243	0.024
-76.553	74.393	0.153	-0.158
-75.538	-200.000	0.013	0.105
-74.524	-35.475	-0.333	0.178
-73.509	180.214	-0.155	0.223
-72.494	21.104	0.216	-0.173
-71.480	-127.115	-0.147	-0.021
-70.465	440.571	-0.026	-0.057
-69.451	-200.000	-0.005	-0.124
-68.436	800.000	-0.165	-0.505
-67.422	14.985	-0.153	-0.118
-66.407	106.840	0.092	0.108
-65.392	-160.257	-0.040	0.002
-64.378	155.262	-0.077	0.104
-63.363	366.962	-0.119	-0.237
-62.349	-57.652	0.266	0.115
-61.334	117.992	-0.550	-0.667
-60.319	-38.104	0.414	0.216
-59.305	143.852	-0.198	-0.260
-58.290	99.631	0.771	0.878
-57.276	800.000	0.527	1.723
-56.261	-200.000	90.774	525.794
-55.246	513.284	1372.958	3149.533
-54.232	153.052	2582.102	3474.822
-53.217	110.911	2301.458	2725.609
-52.203	46.751	1922.082	1756.607
-51.188	40.459	1713.505	1517.944
-50.173	37.593	1669.556	1457.525
-49.159	53.836	1715.702	1621.399
-48.144	57.375	1733.645	1665.127
-47.130	40.209	1690.990	1495.874
-46.115	37.174	1676.381	1460.098
-45.100	36.950	1671.528	1454.131
-44.086	37.023	1668.458	1451.955
-43.071	37.038	1665.916	1449.794
-42.057	36.910	1663.658	1446.815
-41.042	37.025	1661.381	1445.636
-40.027	36.992	1659.949	1444.087
-39.013	36.916	1658.068	1441.831
-37.998	36.953	1656.285	1440.494
-36.984	36.966	1655.189	1439.580
-35.969	37.074	1653.453	1438.813
-34.954	37.164	1651.735	1437.927
-33.940	37.110	1649.798	1435.788
-32.925	37.178	1648.121	1434.771
-31.911	37.185	1646.352	1433.228
-30.896	37.088	1644.878	1431.173
-29.881	37.063	1643.180	1429.453
-28.867	37.111	1641.546	1428.326
-27.852	37.078	1639.702	1426.425
-26.838	37.107	1638.542	1425.570
-25.823	37.137	1636.710	1424.146
-24.809	37.134	1635.559	1423.060
-23.794	37.130	1634.307	1421.886
-22.779	37.216	1632.561	1420.939
-21.765	37.215	1630.832	1419.374
-20.750	37.138	1629.478	1417.577
-19.736	37.117	1628.558	1416.564
-18.721	37.171	1627.312	1415.821
-17.706	37.192	1625.351	1414.209
-16.692	37.108	1623.703	1412.109
-15.677	37.175	1622.618	1411.596
-14.663	37.164	1621.277	1410.295
-13.648	37.289	1619.704	1409.775
-12.633	37.160	1618.543	1407.775
-11.619	37.107	1617.283	1406.236
-10.604	37.149	1615.530	1404.966
-9.590	37.176	1614.007	1403.775
-8.575	37.172	1612.695	1402.551
-7.560	37.183	1611.537	1401.569
-6.546	37.175	1610.425	1400.485
-5.531	37.219	1608.841	1399.374
-4.517	37.207	1608.090	1398.577
-3.502	37.181	1606.979	1397.368
-2.487	37.220	1604.974	1395.850
-1.473	36.651	1593.788	1382.001
-0.458	33.075	1571.684	1337.532
0.556	29.243	1569.712	1296.008
1.571	26.150	1592.661	1292.727
2.586	25.102	1605.124	1295.159
3.600	22.017	1550.941	1229.755
4.615	12.688	1438.286	1079.452
5.629	4.270	1369.479	974.983
6.644	2.728	1361.225	959.377
7.659	2.562	1359.690	957.176
8.673	2.504	1359.289	956.446
9.688	2.587	1357.176	955.390
10.702	2.351	1354.587	952.018
11.717	5.613	1360.990	976.805
12.731	15.536	1379.751	1052.659
13.746	24.389	1394.895	1119.960
14.761	27.184	1398.705	1140.484
15.775	27.477	1399.067	1142.514
16.790	27.676	1398.211	1142.962
17.804	27.647	1397.805	1142.350
18.819	27.784	1397.542	1142.892
19.834	28.011	1396.706	1143.525
20.848	28.020	1395.879	1142.803
21.863	28.046	1395.435	1142.501
22.877	28.013	1394.528	1141.453
23.892	27.971	1393.602	1140.329
24.907	27.865	1393.040	1139.108
25.921	27.979	1391.626	1138.561
26.936	27.985	1390.634	1137.685
27.950	27.986	1389.736	1136.859
28.965	28.022	1388.311	1135.816
29.980	27.961	1387.115	1134.358
30.994	28.020	1385.979	1133.694
32.009	28.067	1385.042	1133.119
33.023	28.029	1384.278	1132.160
34.038	28.012	1382.834	1130.768
35.053	27.996	1382.275	1130.114
36.067	28.056	1380.443	1128.890
37.082	28.040	1379.853	1128.204
38.096	28.021	1378.838	1127.161
39.111	27.953	1377.952	1125.919
40.126	27.941	1377.681	1125.522
41.140	27.979	1376.883	1125.005
42.155	28.014	1376.904	1125.136
43.169	28.066	1376.228	1124.808
44.184	27.967	1376.131	1124.020
45.199	27.987	1376.006	1123.941
46.213	27.963	1375.672	1123.420
47.228	27.929	1374.731	1122.343
48.242	28.044	1373.466	1121.913
49.257	28.077	1371.708	1120.581
50.271	27.899	1370.672	1118.547
51.286	27.867	1369.408	1117.221
52.301	28.011	1367.593	1116.521
53.315	27.984	1367.131	1115.879
54.330	28.068	1365.753	1115.170
55.344	27.959	1364.751	1113.589
56.359	27.947	1364.019	1112.817
57.374	27.958	1363.042	1111.989
58.388	27.937	1362.849	1111.609
59.403	27.999	1362.145	1111.310
60.417	27.979	1361.806	1110.815
61.432	27.935	1360.738	1109.581
62.447	27.873	1359.915	1108.436
63.461	27.879	1358.816	1107.475
64.476	27.990	1357.681	1107.124
65.490	28.015	1356.789	1106.448
66.505	27.954	1355.010	1104.534
67.520	27.935	1353.798	1103.330
68.534	27.985	1352.943	1102.842
69.549	28.027	1352.177	1102.371
70.563	27.934	1351.497	1101.159
71.578	28.030	1350.007	1100.427
72.593	28.040	1349.154	1099.696
73.607	27.937	1348.952	1098.812
74.622	28.066	1347.816	1098.563
75.636	27.985	1347.293	1097.552
76.651	27.926	1346.787	1096.689
77.666	27.996	1346.046	1096.411
78.680	28.048	1345.675	1096.325
79.695	27.971	1344.749	1095.007
80.709	28.045	1344.089	1094.821
81.724	28.107	1342.554	1093.846
82.739	28.100	1341.972	1093.230
83.753	27.944	1341.992	1092.215
84.768	27.968	1339.982	1090.627
85.782	27.993	1339.264	1090.093
86.797	28.050	1337.955	1089.276
87.812	28.006	1336.800	1087.975
88.826	28.000	1335.968	1087.163
89.841	28.040	1334.871	1086.414
90.855	27.971	1333.729	1084.981
91.870	28.043	1332.932	1084.664
92.884	28.024	1332.420	1084.035
93.899	28.122	1331.417	1083.708
94.914	28.052	1330.517	1082.461
95.928	28.107	1329.935	1082.217
96.943	28.120	1329.337	1081.715
97.957	28.085	1328.410	1080.656
98.972	28.062	1327.843	1079.966
99.987	28.064	1326.418	1078.719
101.001	28.039	1326.060	1078.189
102.016	28.074	1324.947	1077.390
103.030	28.085	1323.800	1076.432
104.045	28.012	1323.242	1075.449
105.060	28.073	1322.188	1074.856
106.074	28.060	1321.271	1073.942
107.089	28.081	1320.299	1073.177
108.103	28.049	1319.388	1072.157
109.118	28.107	1318.208	1071.439
110.133	28.087	1317.319	1070.509
111.147	28.139	1315.979	1069.626
112.162	28.100	1314.946	1068.467
113.176	28.194	1314.025	1068.173
114.191	28.096	1313.136	1066.783
115.206	28.176	1312.096	1066.308
116.220	28.184	1310.919	1065.305
117.235	28.207	1310.051	1064.637
118.249	28.088	1309.208	1063.166
119.264	28.125	1308.699	1062.874
120.279	28.210	1307.511	1062.312
121.293	28.136	1306.838	1061.240
122.308	28.126	1306.292	1060.647
123.322	28.191	1305.468	1060.260
124.337	28.103	1304.945	1059.228
125.352	28.160	1303.493	1058.288
126.366	28.105	1302.770	1057.289
127.381	28.217	1302.009	1057.228
128.395	28.109	1301.791	1056.329
129.410	28.161	1300.335	1055.358
130.424	28.137	1300.137	1054.966
131.439	28.132	1299.062	1053.970
132.454	28.068	1298.443	1053.007
133.468	28.156	1297.596	1052.734
134.483	28.241	1296.934	1052.588
135.497	28.200	1295.940	1051.452
136.512	28.166	1295.255	1050.612
137.527	28.191	1293.961	1049.615
138.541	28.195	1292.612	1048.447
139.556	28.167	1291.552	1047.336
140.570	28.125	1291.068	1046.609
141.585	28.152	1290.255	1046.011
142.600	28.081	1289.005	1044.500
143.614	28.214	1287.747	1044.148
144.629	28.240	1286.644	1043.309
145.643	28.103	1285.792	1041.748
146.658	28.032	1285.279	1040.832
147.673	28.107	1284.360	1040.422
148.687	28.066	1283.224	1039.180
149.702	28.052	1281.983	1037.999
150.716	28.043	1281.220	1037.241
151.731	28.000	1279.939	1035.867
152.746	28.052	1279.254	1035.520
153.760	28.180	1278.017	1035.148
154.775	28.275	1276.940	1034.721
155.789	28.123	1275.788	1032.836
156.804	28.078	1275.445	1032.213
157.819	28.227	1274.254	1031.999
158.833	28.088	1273.914	1030.851
159.848	28.281	1272.685	1030.852
160.862	28.168	1272.363	1029.862
161.877	28.173	1271.082	1028.762
162.892	28.185	1270.680	1028.414
163.906	28.257	1270.058	1028.225
164.921	28.250	1269.203	1027.404
165.935	28.224	1268.347	1026.474
166.950	28.178	1267.677	1025.579
167.964	28.201	1267.397	1025.395
168.979	28.238	1266.932	1025.130
169.994	28.348	1265.855	1024.788
171.008	28.250	1265.610	1023.951
172.023	28.296	1264.691	1023.372
173.037	28.340	1264.013	1022.980
174.052	28.280	1263.438	1022.089
175.067	28.393	1262.439	1021.819
176.081	28.335	1261.198	1020.403
177.096	28.231	1260.911	1019.500
178.110	28.302	1259.861	1018.953
179.125	28.239	1258.878	1017.721
180.140	28.426	1257.755	1017.761
181.154	28.332	1256.316	1015.986
182.169	28.367	1255.804	1015.673
183.183	28.276	1254.898	1014.350
184.198	28.315	1253.451	1013.307
185.213	28.320	1252.816	1012.731
186.227	28.403	1252.031	1012.466
187.242	28.508	1250.653	1011.837
188.256	28.446	1249.896	1010.794
189.271	28.429	1249.205	1010.056
190.286	28.389	1248.901	1009.501
191.300	28.360	1248.607	1009.012
192.315	28.237	1248.003	1007.758
193.329	28.434	1247.332	1008.210
194.344	28.456	1247.113	1008.066
195.359	28.360	1246.555	1006.995
196.373	28.336	1246.365	1006.620
197.388	28.213	1245.878	1005.466
198.402	28.331	1245.331	1005.583
199.417	28.513	1244.534	1005.847
200.432	28.431	1243.984	1004.863
201.446	28.462	1243.614	1004.646
202.461	28.432	1242.736	1003.683
203.475	28.341	1242.129	1002.609
204.490	28.336	1241.528	1002.006
205.504	28.319	1240.553	1001.035
206.519	28.416	1239.498	1000.629
207.534	28.516	1237.842	999.745
208.548	28.474	1237.239	998.943
209.563	28.401	1236.753	998.062
210.577	28.553	1235.435	997.738
211.592	28.509	1234.946	997.017
212.607	28.474	1234.308	996.224
213.621	28.568	1233.626	996.094
214.636	28.502	1232.867	995.034
215.650	28.511	1231.902	994.216
216.665	28.484	1230.670	992.990
217.680	28.433	1230.134	992.195
218.694	28.465	1228.974	991.341
219.709	28.525	1228.136	990.901
220.723	28.465	1228.157	990.507
221.738	28.520	1227.159	989.914
222.753	28.457	1226.311	988.804
223.767	28.453	1226.112	988.530
224.782	28.574	1225.474	988.583
225.796	28.589	1225.013	988.203
226.811	28.624	1224.136	987.596
227.826	28.647	1223.484	987.107
228.840	28.579	1223.097	986.343
229.855	28.671	1222.113	985.956
230.869	28.599	1221.476	984.968
231.884	28.532	1221.035	984.163
232.899	28.545	1220.378	983.620
233.913	28.606	1219.749	983.351
234.928	28.625	1219.567	983.220
235.942	28.668	1218.392	982.416
236.957	28.597	1218.234	981.821
237.972	28.598	1216.925	980.685
238.986	28.704	1216.226	980.599
240.001	28.553	1216.261	979.734
241.015	28.658	1215.425	979.535
242.030	28.652	1214.584	978.740
243.045	28.779	1213.553	978.497
244.059	28.870	1212.409	977.974
245.074	28.759	1212.082	977.030
246.088	28.767	1210.956	976.081
247.103	28.813	1210.669	976.010
248.117	28.753	1209.516	974.674
249.132	28.809	1208.749	974.266
250.147	28.794	1208.627	974.002
251.161	28.899	1207.184	973.309
252.176	28.805	1207.015	972.590
253.190	28.923	1205.753	972.110
254.205	28.852	1205.370	971.338
255.220	28.778	1204.997	970.563
256.234	28.853	1204.762	970.681
257.249	28.834	1203.804	969.723
258.263	28.870	1203.049	969.221
259.278	28.885	1202.668	968.910
260.293	28.968	1202.078	968.783
261.307	28.863	1201.836	967.948
262.322	28.882	1201.116	967.384
263.336	28.898	1200.176	966.624
264.351	28.905	1199.961	966.401
265.366	28.821	1199.198	965.264
266.380	28.903	1198.480	965.032
267.395	28.856	1197.725	964.091
268.409	28.878	1197.315	963.791
269.424	28.922	1196.723	963.460
270.439	28.828	1196.526	962.720
271.453	28.954	1195.700	962.633
272.468	28.860	1194.399	961.008
273.482	28.908	1194.075	960.915
274.497	28.935	1193.835	960.778
275.512	28.968	1193.262	960.401
276.526	28.997	1192.424	959.792
277.541	28.914	1191.650	958.653
278.555	28.994	1190.902	958.384
279.570	29.009	1190.508	958.061
280.585	28.990	1189.622	957.161
281.599	29.049	1188.785	956.713
282.614	28.989	1187.877	955.584
283.628	29.194	1186.604	955.537
284.643	29.070	1186.028	954.347
285.657	29.055	1185.201	953.519
286.672	28.986	1184.501	952.516
287.687	29.167	1183.757	952.770
288.701	29.090	1183.412	952.007
289.716	29.258	1182.335	951.925
290.730	29.189	1181.802	951.058
291.745	29.088	1181.325	950.067
292.760	29.128	1180.855	949.814
293.774	29.333	1179.889	950.004
294.789	29.219	1179.596	949.101
295.803	29.214	1178.794	948.342
296.818	29.206	1178.271	947.801
297.833	29.286	1177.599	947.584
298.847	29.250	1176.895	946.749
299.862	29.213	1176.060	945.805
300.876	29.335	1175.307	945.740
301.891	29.306	1174.898	945.180
302.906	29.340	1174.574	945.007
303.920	29.352	1173.659	944.254
304.935	29.273	1173.185	943.385
305.949	29.298	1172.501	942.877
306.964	29.276	1171.840	942.151
307.979	29.346	1171.153	941.872
308.993	29.305	1170.430	940.998
310.008	29.339	1170.053	940.785
311.022	29.299	1169.125	939.752
312.037	29.323	1168.300	939.126
313.052	29.362	1167.115	938.287
314.066	29.425	1166.250	937.830
315.081	29.350	1165.676	936.908
316.095	29.399	1165.175	936.669
317.110	29.380	1164.599	936.026
318.125	29.393	1163.860	935.418
319.139	29.374	1163.276	934.767
320.154	29.272	1163.285	934.174
321.168	29.460	1162.056	934.057
322.183	29.386	1161.649	933.272
323.197	29.470	1160.717	932.869
324.212	29.428	1160.329	932.257
325.227	29.370	1160.516	932.035
326.241	29.464	1159.770	931.827
327.256	29.524	1158.508	931.034
328.270	29.543	1157.798	930.476
329.285	29.541	1156.712	929.511
330.300	29.605	1155.890	929.089
331.314	29.611	1155.234	928.510
332.329	29.546	1154.733	927.701
333.343	29.600	1154.094	927.376
334.358	29.643	1153.032	926.658
335.373	29.748	1152.256	926.477
336.387	29.704	1151.737	925.758
337.402	29.691	1150.862	924.908
338.416	29.688	1150.416	924.450
339.431	29.662	1149.953	923.866
340.446	29.623	1149.651	923.347
341.460	29.666	1149.152	923.082
342.475	29.769	1148.117	922.681
343.489	29.662	1147.195	921.324
344.504	29.721	1145.906	920.503
345.519	29.763	1145.316	920.154
346.533	29.766	1144.399	919.353
347.548	29.803	1143.698	918.893
348.562	29.798	1143.314	918.475
349.577	29.684	1142.470	917.151
350.592	29.644	1141.547	916.134
351.606	29.761	1140.945	916.148
352.621	29.874	1140.718	916.444
353.635	29.879	1139.875	915.711
354.650	29.835	1139.443	915.064
355.665	29.850	1138.607	914.386
356.679	29.808	1138.340	913.881
357.694	29.946	1137.408	913.737
358.708	29.873	1136.693	912.719
359.723	29.899	1135.733	911.996
360.738	29.782	1135.497	911.148
361.752	29.919	1134.929	911.285
362.767	29.929	1134.296	910.750
363.781	29.794	1134.202	909.929
364.796	30.006	1133.151	910.046
365.810	30.050	1132.659	909.786
366.825	29.969	1132.001	908.780
367.840	30.089	1131.673	909.023
368.854	30.002	1131.460	908.346
369.869	30.080	1130.154	907.600
370.883	30.048	1129.622	906.935
371.898	29.996	1129.160	906.228
372.913	30.106	1128.237	905.948
373.927	29.933	1128.315	905.083
374.942	30.127	1127.239	905.090
375.956	30.022	1126.880	904.206
376.971	29.995	1126.580	903.756
377.986	30.199	1125.419	903.738
379.000	30.229	1124.937	903.417
380.015	30.148	1124.819	902.848
381.029	30.212	1123.709	902.186
382.044	30.143	1123.379	901.509
383.059	30.160	1122.910	901.136
384.073	30.256	1121.723	900.566
385.088	30.291	1120.768	899.892
386.102	30.215	1120.070	898.883
387.117	30.313	1118.913	898.346
388.132	30.129	1118.506	897.051
389.146	30.190	1117.960	896.830
390.161	30.224	1117.491	896.538
391.175	30.243	1116.999	896.158
392.190	30.203	1116.166	895.214
393.205	30.226	1115.934	895.063
394.219	30.246	1114.867	894.221
395.234	30.410	1113.992	894.232
396.248	30.291	1113.151	892.903
397.263	30.340	1112.424	892.479
398.278	30.464	1111.599	892.334
399.292	30.384	1111.184	891.535
400.307	30.433	1110.622	891.243
401.321	30.252	1110.306	890.042
402.336	30.335	1109.507	889.720
403.350	30.390	1108.782	889.323
404.365	30.442	1108.053	888.910
405.380	30.457	1107.163	888.188
406.394	30.468	1106.642	887.746
407.409	30.439	1106.036	887.040
408.423	30.532	1105.170	886.714
409.438	30.526	1104.666	886.202
410.453	30.520	1103.905	885.482
411.467	30.554	1102.695	884.598
412.482	30.622	1102.384	884.591
413.496	30.478	1102.034	883.548
414.511	30.616	1101.261	883.504
415.526	30.712	1101.020	883.690
416.540	30.570	1100.889	882.834
417.555	30.618	1099.517	881.883
418.569	30.632	1099.201	881.614
419.584	30.711	1098.990	881.743
420.599	30.702	1098.564	881.279
421.613	99.426	1316.085	1426.789
422.628	92.932	1347.777	1426.900
