DTS Sentinel unit serial number:	SN413079Multiplexer serial number:	ORYXHardware model number:	OX4-SRSoftware version number:	ORYX F/W v4.00 Oryx Data Collector v3.7.2.0data status	okinstallation	princeton_trtdifferential loss correction	single-endedforward channel	channel 2reverse channel	N/Adate	2019/09/14time	03:43:34forward acquisition time	60.00reverse acquisition time	0.00gamma	496.2192k internal	0.2337k external	0.2337temperature offset calibration	1.0127default loss term (dB/km)	0.3790temperature slope calibration	1.0000multiplexer offset coefficient	1.0000multiplexer slope coefficient	1.0000fibre end	0.00T internal ref (°C)	26.64T ext. ref 1 (°C)	3.28T ext. ref 2 (°C)	21.67length (m)	temperature (°C)	Stokes	anti-Stokes-747.200	391.572	0.149	-0.310
-746.185	-99.654	0.524	0.132
-745.171	297.736	-0.104	0.191
-744.156	-140.922	-0.275	-0.028
-743.142	-200.000	0.012	-0.207
-742.127	-200.000	0.005	0.063
-741.112	224.629	-0.115	0.186
-740.098	-72.601	-0.326	-0.121
-739.083	-71.435	-0.338	0.127
-738.069	-200.000	0.092	0.511
-737.054	-10.704	-0.114	0.075
-736.039	-19.559	-0.267	-0.166
-735.025	-31.901	0.257	0.144
-734.010	-47.620	-0.155	0.076
-732.996	119.187	-0.092	-0.115
-731.981	-29.954	0.175	-0.100
-730.966	-122.905	0.394	0.064
-729.952	-103.029	-0.385	0.092
-728.937	-200.000	0.033	0.233
-727.923	-200.000	0.004	-0.263
-726.908	-85.568	-0.444	0.138
-725.894	-97.236	0.345	-0.090
-724.879	7.972	0.092	-0.069
-723.864	-200.000	-0.069	-0.413
-722.850	-141.019	-0.276	-0.028
-721.835	191.864	-0.148	-0.224
-720.821	-65.367	-0.020	-0.008
-719.806	-22.909	-0.465	-0.282
-718.791	105.256	0.212	-0.251
-717.777	-47.769	-0.182	-0.088
-716.762	228.269	0.070	0.114
-715.748	70.457	-0.131	0.136
-714.733	18.172	0.090	0.072
-713.718	-200.000	-0.008	0.218
-712.704	-200.000	-0.065	-0.339
-711.689	139.326	0.043	0.057
-710.675	-171.762	-0.255	0.008
-709.660	47.186	0.092	-0.086
-708.645	-47.004	0.202	0.099
-707.631	-24.909	0.240	-0.143
-706.616	526.898	0.084	0.198
-705.602	-200.000	-0.018	-0.194
-704.587	-16.388	0.144	0.091
-703.572	-200.000	-0.016	-0.104
-702.558	-116.739	0.173	-0.032
-701.543	-116.775	0.240	-0.044
-700.529	-200.000	-0.010	-0.050
-699.514	367.115	0.119	-0.241
-698.499	292.491	-0.100	0.182
-697.485	-200.000	-0.039	-0.187
-696.470	381.298	-0.161	-0.331
-695.456	-200.000	-0.027	-0.141
-694.441	-27.097	0.164	-0.096
-693.426	-200.000	0.020	-0.101
-692.412	178.416	-0.196	-0.287
-691.397	719.172	0.121	0.322
-690.383	-119.180	0.073	0.013
-689.368	-200.000	-0.037	0.235
-688.354	64.582	-0.136	-0.137
-687.339	-98.846	-0.229	-0.058
-686.324	61.857	-0.131	-0.131
-685.310	-39.372	-0.221	-0.116
-684.295	-65.099	-0.122	0.049
-683.281	98.709	0.206	-0.239
-682.266	99.216	-0.121	0.140
-681.251	800.000	-0.091	-0.266
-680.237	-162.400	-0.240	-0.012
-679.222	51.292	-0.191	0.181
-678.208	800.000	-0.148	-0.577
-677.193	146.075	0.148	0.198
-676.178	-200.000	-0.068	0.410
-675.164	-200.000	-0.013	-0.095
-674.149	-200.000	-0.026	0.132
-673.135	337.314	0.078	0.152
-672.120	-60.173	-0.280	0.119
-671.105	339.898	-0.164	-0.320
-670.091	-128.290	-0.115	-0.016
-669.076	-166.053	-0.245	-0.010
-668.062	294.246	-0.030	0.055
-667.047	-38.091	-0.164	-0.087
-666.032	-200.000	-0.000	-0.207
-665.018	13.363	-0.281	-0.218
-664.003	77.888	0.075	0.080
-662.989	304.532	-0.127	-0.235
-661.974	-138.173	-0.191	-0.021
-660.959	26.909	0.119	-0.100
-659.945	-91.742	-0.110	0.031
-658.930	109.668	-0.036	-0.043
-657.916	712.512	-0.052	0.138
-656.901	105.987	0.118	-0.140
-655.886	-67.611	0.211	0.083
-654.872	563.875	-0.148	-0.358
-653.857	661.738	-0.016	0.043
-652.843	-39.677	-0.200	-0.105
-651.828	96.470	-0.202	-0.231
-650.814	-200.000	0.083	-0.386
-649.799	800.000	0.102	-0.286
-648.784	-49.789	-0.096	-0.046
-647.770	-200.000	-0.037	-0.214
-646.755	-135.127	-0.107	0.013
-645.741	800.000	-0.062	-0.226
-644.726	345.018	-0.141	-0.276
-643.711	225.943	0.094	-0.152
-642.697	132.748	-0.093	-0.120
-641.682	-200.000	-0.022	0.147
-640.668	725.867	-0.070	-0.185
-639.653	74.401	-0.098	0.103
-638.638	-42.512	-0.117	0.059
-637.624	38.890	0.181	-0.162
-636.609	52.971	-0.091	-0.087
-635.595	103.141	-0.137	0.160
-634.580	43.479	-0.199	-0.182
-633.565	-34.049	-0.303	-0.167
-632.551	800.000	-0.015	0.054
-631.536	15.047	0.144	-0.113
-630.522	-200.000	0.015	-0.083
-629.507	-200.000	-0.069	0.337
-628.492	-81.852	-0.441	0.144
-627.478	-69.259	-0.384	0.147
-626.463	77.861	-0.133	0.142
-625.449	109.475	-0.115	-0.138
-624.434	-5.237	-0.218	-0.150
-623.419	800.000	0.050	0.170
-622.405	-200.000	0.046	0.245
-621.390	800.000	0.055	-0.162
-620.376	-58.311	-0.266	-0.115
-619.361	-137.576	0.176	-0.020
-618.346	-101.915	-0.176	0.042
-617.332	-200.000	-0.016	0.525
-616.317	-121.420	0.068	-0.011
-615.303	351.237	0.032	0.063
-614.288	-67.744	-0.041	-0.016
-613.273	-107.072	-0.221	0.049
-612.259	-58.597	0.246	0.107
-611.244	319.044	0.113	-0.214
-610.230	-131.366	0.282	0.037
-609.215	-200.000	-0.008	-0.048
-608.201	800.000	-0.023	0.076
-607.186	-140.032	-0.437	-0.046
-606.171	-200.000	0.058	-0.722
-605.157	89.329	0.164	-0.182
-604.142	800.000	-0.034	-0.130
-603.128	168.117	0.122	-0.173
-602.113	149.348	0.109	-0.148
-601.098	37.585	-0.330	0.292
-600.084	800.000	0.073	0.300
-599.069	-200.000	-0.043	-0.218
-598.055	172.450	-0.042	0.060
-597.040	-75.927	-0.249	-0.088
-596.025	-200.000	-0.066	-0.396
-595.011	-49.896	-0.166	0.079
-593.996	160.225	0.104	0.145
-592.982	264.216	0.152	0.263
-591.967	200.585	0.074	-0.114
-590.952	39.840	-0.149	0.133
-589.938	-165.187	0.304	-0.013
-588.923	-200.000	0.014	0.145
-587.909	800.000	0.027	-0.081
-586.894	-8.499	-0.112	0.075
-585.879	-4.643	-0.115	-0.079
-584.865	89.705	-0.212	-0.236
-583.850	-24.696	-0.227	-0.135
-582.836	-160.527	0.279	-0.015
-581.821	-56.685	0.235	-0.104
-580.806	-87.141	0.196	-0.060
-579.792	-101.165	-0.276	-0.067
-578.777	-92.897	-0.121	0.034
-577.763	517.143	0.089	-0.207
-576.748	-150.262	-0.205	0.016
-575.733	182.669	0.155	-0.228
-574.719	65.830	0.170	-0.171
-573.704	69.277	0.112	0.115
-572.690	562.752	0.070	0.169
-571.675	-200.000	0.032	0.426
-570.661	800.000	-0.050	0.178
-569.646	-99.952	0.210	0.052
-568.631	-200.000	-0.034	0.235
-567.617	-164.809	-0.472	-0.021
-566.602	319.377	-0.069	0.130
-565.588	302.839	0.132	0.244
-564.573	-167.545	-0.076	-0.003
-563.558	0.046	-0.196	-0.139
-562.544	800.000	-0.084	-0.278
-561.529	-29.561	0.186	0.106
-560.515	95.824	0.147	-0.167
-559.500	337.170	-0.034	-0.066
-558.485	112.316	0.076	-0.092
-557.471	-68.611	-0.221	0.085
-556.456	-46.599	0.048	0.024
-555.442	-200.000	-0.034	-0.242
-554.427	148.130	-0.269	-0.362
-553.412	-121.471	0.176	0.029
-552.398	-122.305	-0.202	-0.033
-551.383	800.000	-0.112	-0.412
-550.369	26.307	-0.281	0.234
-549.354	425.430	-0.038	-0.082
-548.339	379.308	-0.121	-0.246
-547.325	-200.000	-0.064	0.310
-546.310	-119.894	0.325	-0.056
-545.296	-200.000	0.007	-0.161
-544.281	98.701	0.195	-0.224
-543.266	-200.000	-0.007	0.166
-542.252	-200.000	0.009	0.079
-541.237	-128.817	0.309	-0.043
-540.223	-200.000	-0.017	-0.238
-539.208	319.463	-0.035	0.067
-538.193	6.686	0.202	0.150
-537.179	-200.000	-0.042	-0.254
-536.164	94.964	0.029	0.033
-535.150	69.184	0.282	0.289
-534.135	214.199	-0.165	0.261
-533.121	-3.165	0.187	0.130
-532.106	221.586	0.045	-0.071
-531.091	800.000	0.082	-0.285
-530.077	133.227	-0.017	-0.021
-529.062	-35.124	0.243	0.132
-528.048	38.757	0.303	0.269
-527.033	401.717	0.073	-0.152
-526.018	800.000	-0.037	-0.129
-525.004	169.547	-0.190	-0.270
-523.989	-105.571	0.161	0.036
-522.975	435.085	0.130	0.281
-521.960	132.619	0.053	-0.068
-520.945	-43.330	-0.156	0.079
-519.931	-18.355	0.319	0.198
-518.916	-121.457	-0.237	0.039
-517.902	-16.891	0.138	-0.087
-516.887	800.000	0.094	-0.272
-515.872	-86.003	0.178	-0.055
-514.858	-99.821	-0.181	-0.045
-513.843	-50.659	-0.149	0.070
-512.829	-200.000	0.044	-0.299
-511.814	-200.000	0.014	-0.135
-510.799	73.201	-0.079	-0.082
-509.785	-132.483	0.210	0.027
-508.770	-200.000	0.035	-0.163
-507.756	-138.641	-0.138	-0.015
-506.741	-92.652	0.168	-0.047
-505.726	133.217	0.086	-0.110
-504.712	-35.567	-0.108	0.058
-503.697	-110.513	-0.116	0.024
-502.683	-200.000	0.004	0.215
-501.668	-200.000	-0.013	0.340
-500.653	-23.367	0.232	0.138
-499.639	-34.117	0.170	-0.093
-498.624	504.424	-0.057	-0.132
-497.610	-177.037	-0.164	0.004
-496.595	256.188	0.147	-0.251
-495.581	-3.703	-0.118	0.082
-494.566	19.663	0.259	0.207
-493.551	800.000	-0.019	0.068
-492.537	53.380	-0.093	0.089
-491.522	-32.911	-0.253	-0.139
-490.508	38.891	0.281	0.250
-489.493	31.581	0.207	-0.177
-488.478	-88.814	-0.121	-0.036
-487.464	125.782	0.262	-0.329
-486.449	69.995	-0.102	0.104
-485.435	49.493	0.111	0.103
-484.420	-7.890	-0.228	0.153
-483.405	-88.413	-0.218	0.065
-482.391	-12.075	0.070	0.045
-481.376	70.728	0.088	0.090
-480.362	-35.437	-0.076	0.041
-479.347	-5.316	-0.082	0.056
-478.332	32.608	0.220	0.189
-477.318	-25.029	-0.146	0.086
-476.303	-200.000	0.009	-0.322
-475.289	-84.807	0.110	0.034
-474.274	800.000	-0.007	0.021
-473.259	-17.438	0.156	0.097
-472.245	-102.995	0.278	-0.066
-471.230	471.663	0.025	0.055
-470.216	15.914	0.257	0.201
-469.201	130.848	0.395	-0.503
-468.186	150.919	-0.137	0.185
-467.172	-40.204	-0.088	0.045
-466.157	-200.000	-0.072	-0.460
-465.143	-144.670	0.398	0.036
-464.128	93.977	0.068	-0.076
-463.113	40.591	0.064	0.057
-462.099	-28.711	0.143	0.082
-461.084	-4.585	0.149	-0.102
-460.070	-200.000	0.010	0.058
-459.055	-53.610	-0.192	-0.087
-458.040	238.623	-0.252	-0.416
-457.026	82.773	-0.097	0.104
-456.011	249.258	0.015	0.025
-454.997	800.000	-0.089	-0.276
-453.982	800.000	0.107	0.305
-452.968	67.321	0.100	-0.101
-451.953	-200.000	-0.038	-0.175
-450.938	-75.556	-0.267	-0.094
-449.924	115.748	-0.183	0.223
-448.909	16.969	0.269	-0.212
-447.895	-39.772	-0.309	0.161
-446.880	16.582	-0.150	0.118
-445.865	53.893	0.011	-0.011
-444.851	800.000	-0.045	-0.132
-443.836	587.290	-0.077	-0.189
-442.822	800.000	-0.082	-0.313
-441.807	-200.000	0.025	0.244
-440.792	343.526	0.072	-0.141
-439.778	-90.075	0.392	-0.113
-438.763	-97.499	-0.424	-0.109
-437.749	149.909	0.103	-0.139
-436.734	-46.897	0.290	-0.141
-435.719	800.000	0.072	0.295
-434.705	-200.000	-0.002	-0.014
-433.690	-200.000	-0.049	-0.271
-432.676	-90.623	-0.509	-0.146
-431.661	-200.000	0.024	-0.135
-430.646	-200.000	0.027	0.297
-429.632	-62.144	0.099	0.041
-428.617	800.000	-0.101	0.344
-427.603	710.351	-0.073	0.191
-426.588	127.167	0.240	0.302
-425.573	538.873	0.074	0.173
-424.559	800.000	-0.054	-0.189
-423.544	-53.206	0.196	0.089
-422.530	7.375	-0.393	-0.291
-421.515	-128.480	0.374	0.053
-420.500	-153.137	-0.362	0.025
-419.486	57.605	0.183	0.178
-418.471	69.083	0.059	-0.060
-417.457	800.000	-0.055	0.161
-416.442	800.000	0.083	0.266
-415.428	92.638	0.118	-0.132
-414.413	800.000	-0.010	0.028
-413.398	800.000	-0.081	0.336
-412.384	-132.133	-0.162	0.021
-411.369	-200.000	-0.051	0.244
-410.355	10.184	-0.224	0.169
-409.340	54.963	0.470	-0.449
-408.325	26.498	0.240	-0.199
-407.311	66.036	-0.042	0.042
-406.296	-38.309	-0.210	0.110
-405.282	-200.000	0.049	-0.329
-404.267	-101.030	-0.055	0.013
-403.252	-76.236	0.281	-0.098
-402.238	-45.779	0.086	-0.042
-401.223	-129.118	-0.128	-0.018
-400.209	-200.000	-0.003	-0.296
-399.194	57.047	0.050	0.048
-398.179	289.561	0.135	-0.243
-397.165	-200.000	0.028	-0.238
-396.150	-112.633	-0.090	-0.018
-395.136	-200.000	-0.023	0.257
-394.121	-32.495	-0.463	-0.256
-393.106	-200.000	0.041	-0.184
-392.092	-129.481	0.147	0.020
-391.077	-116.997	-0.237	0.043
-390.063	-200.000	0.026	-0.131
-389.048	1.120	-0.268	0.190
-388.033	-106.833	0.400	-0.088
-387.019	-200.000	-0.006	0.034
-386.004	-16.212	0.289	-0.182
-384.990	-93.231	0.170	0.047
-383.975	-48.693	0.040	-0.019
-382.960	-200.000	-0.002	0.176
-381.946	-57.313	0.133	-0.058
-380.931	-200.000	-0.014	-0.090
-379.917	-54.544	0.181	0.081
-378.902	-64.041	0.083	0.033
-377.888	709.847	-0.088	-0.231
-376.873	-71.559	-0.405	-0.150
-375.858	-88.798	0.325	-0.096
-374.844	-124.585	0.197	-0.030
-373.829	-139.525	-0.084	0.009
-372.815	-200.000	-0.034	0.217
-371.800	-200.000	0.006	0.103
-370.785	91.634	-0.204	-0.227
-369.771	-76.935	0.121	0.042
-368.756	483.762	-0.074	0.167
-367.742	196.269	-0.202	0.304
-366.727	-81.774	-0.057	-0.019
-365.712	-178.131	-0.391	0.009
-364.698	-155.459	-0.110	0.007
-363.683	84.224	0.086	0.093
-362.669	-0.377	0.203	-0.143
-361.654	69.785	-0.175	-0.178
-360.639	219.008	-0.092	-0.146
-359.625	-107.223	-0.302	0.066
-358.610	156.535	0.123	0.168
-357.596	-60.688	-0.168	-0.071
-356.581	50.003	0.070	-0.065
-355.566	-42.205	-0.145	-0.073
-354.552	-3.155	-0.176	-0.121
-353.537	283.248	0.041	-0.073
-352.523	800.000	0.117	0.376
-351.508	-108.083	0.154	0.033
-350.493	-175.649	-0.108	0.003
-349.479	727.097	0.069	0.181
-348.464	-104.342	-0.351	-0.080
-347.450	800.000	0.143	-0.425
-346.435	121.261	0.021	0.026
-345.420	-52.699	0.146	0.067
-344.406	-23.623	-0.233	-0.138
-343.391	22.975	-0.274	0.222
-342.377	236.052	-0.076	-0.124
-341.362	-140.571	-0.124	0.013
-340.348	-200.000	-0.003	-0.074
-339.333	22.067	0.219	-0.177
-338.318	800.000	-0.092	0.381
-337.304	-200.000	0.009	0.166
-336.289	-93.135	-0.438	0.120
-335.275	800.000	0.070	0.282
-334.260	800.000	-0.070	-0.289
-333.245	-177.023	-0.291	0.007
-332.231	-200.000	0.298	0.001
-331.216	-176.253	0.331	0.009
-330.202	-77.370	0.122	-0.042
-329.187	-20.473	-0.323	0.196
-328.172	-200.000	-0.049	0.217
-327.158	113.078	0.152	0.181
-326.143	275.305	-0.093	0.163
-325.129	579.713	0.057	0.138
-324.114	-35.054	0.186	0.100
-323.099	77.138	-0.177	-0.186
-322.085	372.542	0.059	-0.118
-321.070	-167.272	-0.239	-0.010
-320.056	-72.756	-0.058	-0.021
-319.041	218.070	0.101	-0.160
-318.026	652.753	-0.063	0.161
-317.012	-117.885	0.267	0.047
-315.997	353.676	0.158	0.309
-314.983	130.400	-0.128	-0.162
-313.968	-23.706	-0.131	-0.077
-312.953	-29.602	-0.095	0.054
-311.939	-51.129	-0.219	0.101
-310.924	-124.714	0.440	0.067
-309.910	-131.901	0.333	0.043
-308.895	-121.589	-0.202	0.033
-307.880	28.082	-0.358	0.298
-306.866	-3.448	0.008	-0.006
-305.851	800.000	0.045	0.174
-304.837	-163.800	-0.145	-0.007
-303.822	223.142	0.102	-0.162
-302.807	327.047	0.027	0.052
-301.793	-200.000	0.029	0.240
-300.778	425.572	-0.010	0.021
-299.764	294.892	-0.157	-0.283
-298.749	-33.409	-0.199	0.108
-297.735	84.683	-0.217	-0.235
-296.720	-119.995	0.227	0.039
-295.705	-12.190	0.097	0.063
-294.691	-200.000	-0.041	0.223
-293.676	-113.817	0.200	-0.038
-292.662	-66.028	-0.146	-0.057
-291.647	199.534	-0.257	0.389
-290.632	-53.886	0.218	0.098
-289.618	-6.575	0.317	0.213
-288.603	-200.000	0.022	-0.154
-287.589	101.308	-0.204	-0.235
-286.574	-186.309	-0.173	0.002
-285.559	800.000	-0.098	0.285
-284.545	-176.396	-0.102	0.003
-283.530	-118.138	-0.059	-0.010
-282.516	21.999	-0.127	-0.102
-281.501	-66.474	0.237	-0.093
-280.486	-52.184	0.082	-0.037
-279.472	309.269	0.158	0.291
-278.457	-186.662	-0.174	-0.002
-277.443	-13.465	0.137	-0.088
-276.428	800.000	-0.043	0.137
-275.413	-37.081	-0.154	-0.081
-274.399	118.872	0.148	0.180
-273.384	800.000	-0.060	-0.204
-272.370	283.614	-0.098	-0.173
-271.355	-102.295	-0.329	0.078
-270.340	-200.000	-0.021	0.211
-269.326	75.192	-0.131	-0.136
-268.311	-147.694	-0.081	-0.007
-267.297	-140.799	-0.193	0.020
-266.282	571.814	0.080	0.193
-265.267	800.000	-0.092	0.271
-264.253	-31.491	0.129	-0.072
-263.238	149.623	-0.172	-0.230
-262.224	-104.922	0.202	-0.046
-261.209	-200.000	0.049	0.260
-260.195	48.663	0.138	0.127
-259.180	-39.629	0.086	0.044
-258.165	-105.376	-0.443	0.099
-257.151	800.000	0.039	-0.110
-256.136	-112.123	0.113	0.022
-255.122	341.174	0.077	0.148
-254.107	-126.821	0.250	0.036
-253.092	-129.448	-0.173	0.024
-252.078	-119.350	0.384	0.066
-251.063	-200.000	-0.023	-0.146
-250.049	-79.112	-0.258	-0.086
-249.034	-149.514	0.282	0.022
-248.019	-118.335	0.418	0.073
-247.005	-107.191	-0.043	-0.009
-245.990	-73.686	0.226	-0.081
-244.976	412.002	-0.061	0.128
-243.961	46.832	0.255	0.233
-242.946	-52.166	-0.235	0.107
-241.932	800.000	0.038	-0.144
-240.917	386.182	0.077	0.155
-239.903	-77.199	0.221	-0.076
-238.888	800.000	-0.028	-0.105
-237.873	-166.132	-0.406	-0.017
-236.859	-40.217	0.337	0.173
-235.844	81.218	-0.144	0.154
-234.830	-155.391	0.162	0.010
-233.815	231.969	-0.147	0.237
-232.800	60.226	-0.014	-0.014
-231.786	-126.707	0.030	0.004
-230.771	-200.000	-0.001	0.024
-229.757	-83.386	-0.070	-0.022
-228.742	-34.616	0.083	0.045
-227.727	-200.000	-0.029	0.227
-226.713	-54.070	-0.143	-0.064
-225.698	-40.093	0.091	0.047
-224.684	-200.000	0.001	-0.056
-223.669	-116.870	0.276	-0.050
-222.655	114.740	-0.068	-0.082
-221.640	-58.353	-0.133	-0.057
-220.625	-73.969	0.140	0.050
-219.611	800.000	-0.113	0.385
-218.596	-200.000	0.003	-0.269
-217.582	-132.319	-0.221	0.028
-216.567	800.000	0.015	0.052
-215.552	106.143	-0.163	-0.190
-214.538	-200.000	0.015	0.229
-213.523	-135.365	-0.421	0.049
-212.509	-1.638	0.495	-0.343
-211.494	-33.030	-0.108	-0.059
-210.479	-153.346	0.018	-0.001
-209.465	-200.000	0.016	0.227
-208.450	96.107	-0.280	-0.315
-207.436	-60.861	0.202	0.084
-206.421	224.665	0.090	-0.143
-205.406	-83.274	0.209	-0.066
-204.392	-200.000	0.001	-0.069
-203.377	-66.163	0.202	0.079
-202.363	2.006	-0.156	0.111
-201.348	-200.000	-0.001	0.196
-200.333	46.788	-0.218	-0.199
-199.319	-200.000	0.191	-0.001
-198.304	-12.232	0.229	0.147
-197.290	-10.008	-0.256	0.167
-196.275	-72.851	0.143	-0.052
-195.260	-127.085	-0.112	0.016
-194.246	800.000	0.068	-0.245
-193.231	-187.694	0.393	-0.005
-192.217	-86.474	-0.060	-0.018
-191.202	227.316	0.158	0.252
-190.187	195.012	-0.070	0.105
-189.173	193.887	-0.217	0.323
-188.158	-99.204	-0.109	0.027
-187.144	181.554	-0.237	-0.342
-186.129	-104.876	0.283	0.064
-185.114	-42.682	-0.173	-0.087
-184.100	-67.777	-0.093	-0.036
-183.085	-18.926	0.401	-0.245
-182.071	-36.336	0.262	-0.139
-181.056	800.000	-0.078	-0.256
-180.042	544.943	0.045	-0.106
-179.027	-122.362	-0.179	0.029
-178.012	800.000	-0.053	0.224
-176.998	16.533	0.031	-0.024
-175.983	-49.377	-0.230	-0.108
-174.969	-98.216	0.166	0.042
-173.954	-200.000	-0.022	-0.236
-172.939	-109.692	0.004	-0.001
-171.925	203.202	-0.174	-0.264
-170.910	214.118	-0.157	0.244
-169.896	34.878	0.209	0.179
-168.881	48.251	0.235	-0.216
-167.866	-163.293	-0.140	-0.007
-166.852	-102.213	0.283	0.067
-165.837	335.961	0.097	0.184
-164.823	-161.026	0.370	-0.019
-163.808	252.146	0.071	0.119
-162.793	523.953	0.064	-0.148
-161.779	-49.145	-0.251	0.118
-160.764	-200.000	-0.011	-0.191
-159.750	-25.821	0.395	0.229
-158.735	-105.212	-0.072	-0.016
-157.720	-82.540	0.221	0.070
-156.706	109.145	0.181	0.212
-155.691	-200.000	-0.030	0.136
-154.677	-155.301	0.171	-0.011
-153.662	-87.945	-0.153	-0.045
-152.647	498.064	0.129	0.291
-151.633	435.086	-0.110	0.234
-150.618	800.000	-0.067	-0.264
-149.604	-200.000	0.010	0.088
-148.589	312.254	-0.182	0.335
-147.574	-109.026	0.295	-0.062
-146.560	303.247	0.254	-0.462
-145.545	-57.600	0.293	0.126
-144.531	54.181	-0.121	-0.114
-143.516	800.000	0.053	0.220
-142.502	-46.489	-0.369	-0.178
-141.487	-59.138	-0.204	0.086
-140.472	-93.980	-0.071	-0.019
-139.458	299.856	0.070	0.127
-138.443	16.765	-0.108	0.084
-137.429	206.390	-0.144	0.219
-136.414	-200.000	-0.026	0.313
-135.399	-156.023	-0.135	0.008
-134.385	274.163	-0.111	0.193
-133.370	56.124	-0.103	-0.098
-132.356	-200.000	-0.012	-0.352
-131.341	-200.000	0.022	0.189
-130.326	-32.574	-0.034	0.019
-129.312	-200.000	0.079	0.359
-128.297	-73.801	0.263	-0.094
-127.283	1.050	0.296	-0.208
-126.268	-132.537	-0.022	0.003
-125.253	-101.254	0.430	0.103
-124.239	70.786	-0.135	-0.137
-123.224	496.782	-0.097	-0.218
-122.210	381.086	0.092	-0.184
-121.195	800.000	-0.028	-0.096
-120.180	201.641	0.154	0.233
-119.166	-114.434	-0.146	0.028
-118.151	-25.276	0.260	-0.151
-117.137	-200.000	0.030	-0.226
-116.122	155.223	0.243	0.328
-115.107	800.000	0.030	-0.111
-114.093	-104.448	-0.264	0.060
-113.078	-2.999	0.245	0.167
-112.064	-18.306	0.090	-0.055
-111.049	-118.746	0.257	0.044
-110.034	35.594	-0.319	-0.274
-109.020	166.092	-0.255	-0.353
-108.005	9.107	0.144	-0.106
-106.991	-200.000	0.066	-0.523
-105.976	-108.375	0.211	0.045
-104.962	-200.000	0.007	-0.297
-103.947	405.531	0.150	0.311
-102.932	311.158	-0.116	0.212
-101.918	170.797	0.042	-0.059
-100.903	169.640	-0.105	0.147
-99.889	179.285	-0.199	-0.284
-98.874	-9.530	-0.273	0.178
-97.859	16.104	-0.080	0.061
-96.845	-64.874	0.369	0.146
-95.830	124.987	0.238	0.293
-94.816	-200.000	-0.030	0.161
-93.801	-181.079	0.232	0.005
-92.786	-5.725	0.084	0.056
-91.772	-146.287	-0.179	-0.015
-90.757	800.000	-0.036	-0.106
-89.743	118.197	0.107	-0.130
-88.728	-200.000	0.017	-0.112
-87.713	-200.000	0.010	0.219
-86.699	-200.000	0.004	-0.047
-85.684	-69.043	0.214	0.081
-84.670	-134.905	0.187	0.022
-83.655	0.588	0.052	-0.036
-82.640	-200.000	0.018	0.217
-81.626	178.669	-0.042	-0.060
-80.611	-90.962	-0.022	-0.006
-79.597	-183.987	0.295	0.005
-78.582	-189.866	0.395	-0.004
-77.567	-49.870	0.093	0.043
-76.553	-37.672	-0.244	0.127
-75.538	202.423	0.056	-0.085
-74.524	-66.917	-0.230	0.089
-73.509	-50.432	-0.284	0.131
-72.494	-19.607	0.335	0.202
-71.480	-119.856	0.350	0.059
-70.465	-200.000	-0.033	-0.238
-69.451	181.518	0.095	0.137
-68.436	-93.014	-0.048	0.013
-67.422	-107.839	-0.240	-0.051
-66.407	-136.487	-0.164	0.019
-65.392	703.910	-0.063	-0.161
-64.378	100.976	-0.189	-0.215
-63.363	-200.000	0.014	0.164
-62.349	3.068	0.125	0.089
-61.334	92.377	-0.974	-1.074
-60.319	19.270	0.424	0.333
-59.305	-200.000	-0.199	-1.015
-58.290	434.587	0.623	1.323
-57.276	103.797	1.148	1.318
-56.261	-200.000	116.119	647.160
-55.246	515.601	1536.249	3506.579
-54.232	174.326	2720.415	3842.919
-53.217	100.391	2301.443	2610.274
-52.203	35.892	1906.612	1638.790
-51.188	29.852	1696.793	1412.445
-50.173	27.335	1655.140	1358.948
-49.159	48.058	1712.237	1563.816
-48.144	46.629	1726.022	1565.492
-47.130	29.317	1683.232	1396.883
-46.115	26.644	1668.877	1364.803
-45.100	26.571	1663.779	1360.030
-44.086	26.479	1661.593	1357.504
-43.071	26.539	1658.754	1355.579
-42.057	26.527	1656.287	1353.420
-41.042	26.517	1654.061	1351.470
-40.027	26.505	1652.575	1350.112
-39.013	26.515	1650.221	1348.209
-37.998	26.422	1649.116	1346.564
-36.984	26.490	1647.593	1345.769
-35.969	26.555	1646.232	1345.091
-34.954	26.614	1644.540	1344.089
-33.940	26.606	1642.698	1342.470
-32.925	26.584	1641.267	1341.086
-31.911	26.579	1639.174	1339.289
-30.896	26.608	1637.748	1338.279
-29.881	26.650	1635.679	1336.849
-28.867	26.652	1634.074	1335.495
-27.852	26.584	1633.179	1334.214
-26.838	26.552	1631.988	1332.954
-25.823	26.689	1629.453	1331.837
-24.809	26.697	1628.710	1331.234
-23.794	26.733	1627.324	1330.314
-22.779	26.691	1626.089	1328.941
-21.765	26.626	1623.970	1326.680
-20.750	26.672	1622.471	1325.740
-19.736	26.737	1620.776	1324.776
-18.721	26.734	1619.678	1323.805
-17.706	26.680	1618.343	1322.266
-16.692	26.697	1616.854	1321.124
-15.677	26.675	1615.523	1319.825
-14.663	26.734	1613.762	1318.761
-13.648	26.702	1612.718	1317.622
-12.633	26.718	1611.293	1316.524
-11.619	26.696	1609.524	1314.865
-10.604	26.664	1608.440	1313.697
-9.590	26.708	1606.743	1312.574
-8.575	26.729	1605.150	1311.371
-7.560	26.756	1604.025	1310.597
-6.546	26.688	1603.149	1309.339
-5.531	26.592	1602.168	1307.792
-4.517	26.650	1601.166	1307.345
-3.502	26.760	1599.186	1306.465
-2.487	26.796	1597.680	1305.444
-1.473	26.413	1586.539	1293.548
-0.458	23.785	1566.663	1258.702
0.556	21.116	1569.028	1227.885
1.571	18.882	1593.470	1230.918
2.586	18.486	1606.525	1238.034
3.600	16.270	1551.852	1180.322
4.615	9.693	1443.045	1054.571
5.629	4.301	1384.088	977.494
6.644	3.302	1376.848	966.028
7.659	3.276	1375.940	965.144
8.673	3.271	1374.438	963.976
9.688	3.281	1372.868	962.854
10.702	3.344	1369.958	961.116
11.717	5.823	1374.705	979.865
12.731	12.963	1388.328	1034.402
13.746	19.013	1397.662	1079.335
14.761	20.359	1398.627	1088.433
15.775	19.750	1396.489	1082.859
16.790	18.750	1394.258	1074.779
17.804	17.910	1391.884	1067.604
18.819	17.525	1390.651	1064.153
19.834	17.389	1389.224	1062.123
20.848	17.179	1388.795	1060.389
21.863	16.959	1387.496	1057.929
22.877	16.800	1386.225	1055.876
23.892	16.808	1385.448	1055.240
24.907	16.823	1384.142	1054.250
25.921	16.930	1383.069	1054.001
26.936	16.843	1382.459	1052.905
27.950	17.002	1381.271	1052.892
28.965	17.003	1380.260	1052.034
29.980	17.157	1379.044	1051.968
30.994	17.111	1378.486	1051.166
32.009	17.177	1377.093	1050.419
33.023	17.276	1375.983	1050.088
34.038	17.118	1374.808	1048.125
35.053	17.019	1373.741	1046.605
36.067	17.130	1371.776	1045.703
37.082	17.020	1371.556	1044.766
38.096	17.082	1369.997	1043.866
39.111	17.128	1369.418	1043.616
40.126	17.027	1368.225	1041.993
41.140	16.718	1367.545	1039.488
42.155	16.726	1366.698	1038.802
43.169	16.803	1366.393	1038.948
44.184	16.671	1366.429	1038.075
45.199	16.656	1365.994	1037.562
46.213	16.793	1365.440	1037.885
47.228	17.020	1364.591	1038.541
48.242	17.094	1363.003	1037.688
49.257	16.870	1361.766	1035.287
50.271	16.875	1360.810	1034.503
51.286	16.979	1358.934	1033.615
52.301	16.941	1358.465	1032.941
53.315	16.855	1357.030	1031.234
54.330	16.756	1356.016	1029.769
55.344	16.738	1354.407	1028.348
56.359	16.731	1353.765	1027.726
57.374	16.621	1352.800	1026.233
58.388	16.662	1351.815	1025.645
59.403	16.664	1351.583	1025.392
60.417	16.662	1350.611	1024.551
61.432	16.691	1349.096	1023.482
62.447	16.522	1348.098	1021.616
63.461	16.513	1346.986	1020.627
64.476	16.425	1346.064	1019.311
65.490	16.362	1345.074	1018.092
66.505	16.461	1343.750	1017.593
67.520	16.450	1342.274	1016.319
68.534	16.607	1340.868	1016.107
69.549	16.473	1340.270	1014.759
70.563	16.533	1339.027	1014.093
71.578	16.492	1337.876	1012.881
72.593	16.428	1337.076	1011.804
73.607	16.240	1336.493	1010.148
74.622	16.349	1335.458	1009.930
75.636	16.399	1335.104	1009.872
76.651	16.504	1334.017	1009.585
77.666	16.375	1333.943	1008.671
78.680	16.456	1333.289	1008.569
79.695	16.582	1332.625	1008.731
80.709	16.623	1331.919	1008.352
81.724	16.676	1331.293	1008.105
82.739	16.751	1330.249	1007.672
83.753	16.774	1329.941	1007.486
84.768	16.941	1328.425	1007.236
85.782	17.088	1327.417	1007.258
86.797	17.040	1326.252	1006.001
87.812	16.905	1324.910	1004.095
88.826	16.964	1324.316	1003.901
89.841	17.034	1322.793	1003.072
90.855	16.976	1322.387	1002.334
91.870	17.078	1321.135	1001.900
92.884	17.176	1319.829	1001.399
93.899	17.117	1319.044	1000.364
94.914	17.249	1318.767	1000.844
95.928	17.156	1317.859	999.520
96.943	17.101	1316.936	998.408
97.957	17.064	1316.064	997.441
98.972	17.054	1314.734	996.285
99.987	17.095	1313.886	995.798
101.001	17.004	1312.785	994.339
102.016	16.960	1311.931	993.348
103.030	17.030	1311.311	993.199
104.045	16.978	1310.299	992.044
105.060	16.979	1308.828	990.847
106.074	16.770	1306.918	988.090
107.089	16.692	1305.580	986.537
108.103	16.588	1304.377	984.941
109.118	16.523	1303.128	983.528
110.133	16.537	1301.847	982.560
111.147	16.598	1300.521	981.824
112.162	16.597	1299.410	980.892
113.176	16.667	1298.132	980.243
114.191	16.742	1297.158	979.856
115.206	16.799	1295.965	979.201
116.220	16.832	1294.246	978.004
117.235	16.631	1294.050	976.609
118.249	16.689	1292.882	975.977
119.264	16.620	1291.474	974.429
120.279	16.406	1290.757	972.569
121.293	16.500	1289.628	972.177
122.308	16.448	1288.521	970.953
123.322	16.482	1286.834	969.793
124.337	16.397	1286.155	968.710
125.352	16.420	1285.176	968.020
126.366	16.481	1283.761	967.212
127.381	16.550	1282.988	966.941
128.395	16.407	1282.211	965.455
129.410	16.529	1281.391	965.444
130.424	16.448	1281.014	964.615
131.439	16.583	1279.699	964.308
132.454	16.765	1278.468	964.334
133.468	16.738	1277.403	963.290
134.483	16.673	1277.129	962.628
135.497	16.692	1276.443	962.134
136.512	16.680	1274.867	960.796
137.527	16.690	1273.388	959.650
138.541	16.735	1271.841	958.653
139.556	16.804	1271.250	958.512
140.570	16.918	1269.827	958.000
141.585	16.912	1268.835	957.134
142.600	17.032	1267.586	956.783
143.614	17.051	1267.078	956.422
144.629	17.081	1265.852	955.581
145.643	17.074	1264.847	954.697
146.658	16.890	1263.487	952.553
147.673	16.839	1261.946	951.021
148.687	16.755	1260.850	949.644
149.702	16.746	1259.564	948.538
150.716	16.797	1257.993	947.557
151.731	16.741	1256.910	946.343
152.746	16.693	1256.207	945.464
153.760	16.931	1254.369	945.321
154.775	16.989	1253.489	944.898
155.789	17.024	1252.605	944.345
156.804	17.009	1251.906	943.648
157.819	16.997	1250.933	942.764
158.833	17.097	1250.013	942.542
159.848	17.245	1249.169	942.648
160.862	17.212	1247.839	941.374
161.877	17.020	1246.981	939.583
162.892	16.866	1245.724	937.698
163.906	16.823	1244.514	936.468
164.921	16.943	1243.816	936.525
165.935	16.938	1243.403	936.101
166.950	17.026	1242.518	935.836
167.964	16.968	1242.022	935.063
168.979	17.040	1240.842	934.489
169.994	16.982	1239.677	933.208
171.008	16.911	1239.642	932.710
172.023	17.189	1239.030	933.695
173.037	17.193	1238.198	933.006
174.052	17.072	1237.320	931.597
175.067	17.097	1235.825	930.525
176.081	16.901	1234.733	928.548
177.096	17.038	1233.872	928.570
178.110	16.957	1232.659	927.131
179.125	17.092	1231.323	926.780
180.140	17.014	1230.639	925.761
181.154	17.089	1229.116	924.941
182.169	17.204	1227.843	924.527
183.183	17.178	1226.959	923.639
184.198	17.245	1225.787	923.036
185.213	17.296	1224.604	922.341
186.227	17.277	1223.752	921.515
187.242	17.361	1222.897	921.246
188.256	17.434	1221.731	920.683
189.271	17.435	1220.502	919.678
190.286	17.327	1219.583	918.319
191.300	16.977	1218.857	915.803
192.315	16.864	1217.967	914.447
193.329	16.872	1217.533	914.081
194.344	17.034	1216.671	914.226
195.359	17.179	1216.124	914.516
196.373	17.181	1215.963	914.321
197.388	17.330	1215.245	914.505
198.402	17.486	1214.731	914.873
199.417	17.559	1214.002	914.635
200.432	17.669	1213.517	914.782
201.446	17.663	1212.897	914.202
202.461	17.794	1211.560	913.811
203.475	17.774	1210.939	913.157
204.490	17.495	1209.387	910.417
205.504	17.403	1208.126	908.894
206.519	17.398	1207.255	908.131
207.534	17.468	1205.380	907.013
208.548	17.528	1204.498	906.589
209.563	17.385	1204.277	905.581
210.577	17.577	1202.769	905.388
211.592	17.538	1202.486	904.886
212.607	17.686	1201.635	904.952
213.621	17.798	1200.437	904.562
214.636	17.619	1199.478	902.811
215.650	17.594	1198.655	901.980
216.665	17.739	1197.806	902.029
217.680	17.798	1197.204	901.809
218.694	17.913	1196.008	901.432
219.709	17.704	1195.839	900.123
220.723	17.803	1194.717	899.720
221.738	17.784	1194.030	899.025
222.753	17.833	1193.019	898.440
223.767	17.790	1192.485	897.733
224.782	17.875	1191.969	897.713
225.796	18.070	1191.415	898.244
226.811	18.036	1190.086	896.982
227.826	17.740	1190.202	895.436
228.840	17.777	1189.296	894.871
229.855	17.713	1188.569	893.907
230.869	17.870	1187.579	893.904
231.884	17.728	1186.696	892.419
232.899	17.750	1185.621	891.649
233.913	17.645	1185.238	890.732
234.928	17.625	1184.582	890.055
235.942	17.496	1184.331	889.115
236.957	17.539	1182.996	888.255
237.972	17.670	1181.512	887.749
238.986	17.638	1181.592	887.562
240.001	17.725	1180.534	887.141
241.015	17.754	1180.203	886.963
242.030	17.777	1178.885	886.015
243.045	17.874	1178.048	885.813
244.059	17.906	1177.584	885.551
245.074	17.845	1176.586	884.406
246.088	18.019	1175.456	884.379
247.103	18.104	1174.982	884.382
248.117	18.105	1174.743	884.130
249.132	18.162	1173.963	883.760
250.147	18.318	1173.292	883.979
251.161	18.412	1172.432	883.741
252.176	18.459	1172.031	883.599
253.190	18.499	1171.617	883.417
254.205	18.620	1170.533	883.145
255.220	18.533	1170.289	882.435
256.234	18.545	1169.897	882.122
257.249	18.578	1169.248	881.727
258.263	18.523	1168.068	880.475
259.278	18.495	1167.611	879.907
260.293	18.525	1167.133	879.625
261.307	18.569	1166.655	879.415
262.322	18.653	1165.961	879.241
263.336	18.629	1165.292	878.536
264.351	18.622	1164.640	877.931
265.366	18.799	1163.752	878.088
266.380	18.647	1163.375	876.950
267.395	18.560	1162.583	875.829
268.409	18.562	1161.396	874.868
269.424	18.537	1160.881	874.276
270.439	18.532	1160.087	873.576
271.453	18.520	1159.446	872.957
272.468	18.472	1158.559	871.967
273.482	18.384	1157.873	870.924
274.497	18.448	1157.435	870.842
275.512	18.604	1156.094	870.549
276.526	18.564	1155.609	869.907
277.541	18.559	1155.011	869.354
278.555	18.641	1154.266	869.131
279.570	18.682	1154.036	869.086
280.585	18.810	1152.920	868.816
281.599	18.776	1152.011	867.883
282.614	18.638	1150.876	866.254
283.628	18.685	1149.472	865.361
284.643	18.703	1148.606	864.722
285.657	18.793	1147.795	864.488
286.672	18.698	1147.015	863.344
287.687	18.669	1146.335	862.612
288.701	18.743	1145.532	862.302
289.716	18.728	1144.890	861.670
290.730	18.766	1143.857	861.005
291.745	18.872	1143.008	860.819
292.760	18.830	1142.795	860.375
293.774	18.812	1142.191	859.751
294.789	19.030	1141.838	860.502
295.803	18.980	1141.186	859.685
296.818	18.827	1140.346	858.213
297.833	18.827	1139.448	857.456
298.847	18.802	1138.502	856.545
299.862	18.886	1137.871	856.415
300.876	18.791	1137.315	855.449
301.891	18.882	1136.805	855.440
302.906	19.100	1135.803	855.693
303.920	19.035	1135.618	855.158
304.935	19.093	1135.068	854.957
305.949	19.259	1134.245	855.082
306.964	19.214	1133.623	854.315
307.979	19.092	1132.451	852.754
308.993	19.080	1131.774	852.108
310.008	19.221	1130.721	851.938
311.022	19.201	1130.056	851.263
312.037	19.294	1129.204	851.002
313.052	19.025	1128.420	849.012
314.066	19.041	1127.529	848.343
315.081	18.937	1126.183	846.744
316.095	18.864	1125.406	845.726
317.110	18.970	1124.676	845.624
318.125	18.967	1124.247	845.213
319.139	18.957	1123.346	844.407
320.154	19.004	1122.783	844.144
321.168	19.076	1121.882	843.744
322.183	18.977	1121.677	843.031
323.197	19.018	1121.015	842.659
324.212	19.191	1120.294	842.888
325.227	19.047	1119.855	841.780
326.241	19.093	1119.231	841.458
327.256	19.070	1118.569	840.775
328.270	18.999	1117.433	839.502
329.285	19.031	1116.424	838.825
330.300	19.142	1115.418	838.535
331.314	19.069	1114.625	837.507
332.329	19.091	1113.271	836.527
333.343	19.146	1112.882	836.424
334.358	19.207	1111.954	835.948
335.373	19.327	1111.589	836.184
336.387	19.363	1110.650	835.576
337.402	19.357	1109.876	834.891
338.416	19.308	1109.431	834.245
339.431	19.291	1109.050	833.803
340.446	19.509	1108.036	834.022
341.460	19.615	1107.127	833.773
342.475	19.617	1106.840	833.497
343.489	19.718	1105.879	833.183
344.504	19.787	1104.867	832.681
345.519	19.711	1104.215	831.748
346.533	19.791	1103.198	831.297
347.548	19.877	1102.472	831.089
348.562	19.868	1101.606	830.316
349.577	19.627	1101.038	828.660
350.592	19.506	1099.968	827.203
351.606	19.488	1099.237	826.494
352.621	19.505	1098.103	825.647
353.635	19.471	1097.863	825.232
354.650	19.524	1096.811	824.620
355.665	19.482	1096.532	824.137
356.679	19.575	1095.745	823.917
357.694	19.564	1095.607	823.690
358.708	19.626	1094.693	823.223
359.723	19.767	1093.964	823.272
360.738	19.687	1093.377	822.381
361.752	19.767	1093.001	822.403
362.767	19.674	1092.569	821.563
363.781	19.767	1091.596	821.202
364.796	19.748	1091.365	820.863
365.810	20.011	1090.763	821.585
366.825	19.888	1090.493	820.727
367.840	20.063	1089.774	820.941
368.854	20.126	1089.296	820.810
369.869	20.170	1088.482	820.331
370.883	20.100	1087.266	819.011
371.898	19.879	1086.680	817.453
372.913	19.880	1086.206	817.031
373.927	20.004	1085.437	816.963
374.942	20.140	1085.395	817.502
375.956	20.121	1084.358	816.556
376.971	20.050	1084.244	816.065
377.986	20.206	1082.895	815.713
379.000	20.286	1082.752	815.909
380.015	20.312	1082.313	815.628
381.029	20.293	1081.833	815.103
382.044	20.223	1081.307	814.308
383.059	20.338	1079.807	813.647
384.073	20.286	1079.335	812.974
385.088	20.344	1078.271	812.371
386.102	20.295	1077.503	811.494
387.117	20.223	1076.378	810.238
388.132	20.065	1075.700	808.916
389.146	20.000	1074.547	807.675
390.161	20.083	1073.877	807.487
391.175	20.048	1073.135	806.694
392.190	20.237	1072.087	806.714
393.205	20.337	1071.720	806.832
394.219	20.356	1070.863	806.204
395.234	20.262	1070.168	805.171
396.248	20.159	1069.352	804.011
397.263	20.155	1068.095	802.977
398.278	20.171	1067.494	802.526
399.292	20.027	1066.442	800.998
400.307	20.027	1066.080	800.658
401.321	20.050	1065.416	800.193
402.336	20.114	1064.777	799.936
403.350	20.061	1063.848	798.925
404.365	20.151	1063.331	798.881
405.380	20.208	1062.526	798.467
406.394	20.288	1061.841	798.248
407.409	20.413	1061.126	798.215
408.423	20.431	1060.696	797.906
409.438	20.424	1060.360	797.550
410.453	20.581	1059.545	797.587
411.467	20.629	1058.332	796.823
412.482	20.665	1057.790	796.506
413.496	20.765	1057.036	796.327
414.511	20.745	1056.618	795.851
415.526	20.835	1056.328	795.975
416.540	20.841	1055.893	795.601
417.555	20.920	1055.108	795.299
418.569	20.772	1054.778	794.307
419.584	20.772	1054.087	793.714
420.599	20.844	1053.665	793.658
421.613	155.360	1404.704	1797.150
422.628	142.572	1455.825	1797.215
