DTS Sentinel unit serial number:	SN413079Multiplexer serial number:	ORYXHardware model number:	OX4-SRSoftware version number:	ORYX F/W v4.00 Oryx Data Collector v3.7.2.0data status	okinstallation	princeton_trtdifferential loss correction	single-endedforward channel	channel 2reverse channel	N/Adate	2019/09/18time	05:15:34forward acquisition time	60.00reverse acquisition time	0.00gamma	496.2192k internal	0.2348k external	0.2348temperature offset calibration	0.9985default loss term (dB/km)	0.3790temperature slope calibration	1.0000multiplexer offset coefficient	1.0000multiplexer slope coefficient	1.0000fibre end	0.00T internal ref (°C)	23.50T ext. ref 1 (°C)	0.19T ext. ref 2 (°C)	17.37length (m)	temperature (°C)	Stokes	anti-Stokes-747.200	800.000	-0.069	0.274
-746.185	430.779	-0.217	0.469
-745.171	-190.393	0.134	0.001
-744.156	205.544	0.029	0.045
-743.142	-200.000	-0.213	-0.001
-742.127	407.854	-0.123	0.259
-741.112	123.819	-0.129	-0.162
-740.098	513.705	0.040	0.094
-739.083	93.214	0.092	-0.104
-738.069	-46.609	-0.107	-0.052
-737.054	800.000	-0.073	-0.283
-736.039	181.286	-0.074	0.108
-735.025	-200.000	-0.010	0.094
-734.010	34.744	-0.135	-0.118
-732.996	-200.000	-0.052	0.262
-731.981	-90.593	0.147	-0.042
-730.966	-200.000	0.018	0.109
-729.952	-106.766	-0.081	0.018
-728.937	167.195	0.130	-0.184
-727.923	-200.000	0.034	-0.151
-726.908	191.700	-0.074	0.112
-725.894	98.152	0.116	-0.133
-724.879	18.526	-0.072	0.057
-723.864	161.787	0.089	-0.124
-722.850	5.810	-0.257	0.190
-721.835	-15.298	-0.192	-0.123
-720.821	-129.943	-0.182	-0.025
-719.806	366.987	-0.053	0.106
-718.791	-149.519	0.220	-0.017
-717.777	329.343	0.159	-0.306
-716.762	800.000	-0.123	-0.487
-715.748	158.309	0.156	-0.216
-714.733	-10.159	-0.182	-0.120
-713.718	97.114	0.125	0.144
-712.704	22.497	-0.190	0.155
-711.689	-200.000	-0.057	-0.277
-710.675	-103.347	0.260	-0.061
-709.660	-59.440	-0.421	-0.181
-708.645	-104.062	-0.118	0.027
-707.631	-200.000	-0.019	-0.265
-706.616	99.699	-0.081	-0.094
-705.602	-185.816	0.078	-0.001
-704.587	79.270	-0.174	0.186
-703.572	800.000	0.038	-0.116
-702.558	-200.000	0.054	0.247
-701.543	-200.000	0.004	0.071
-700.529	-161.605	0.052	0.003
-699.514	249.159	-0.172	0.290
-698.499	131.688	0.111	-0.143
-697.485	-153.122	0.202	0.014
-696.470	31.649	0.124	-0.106
-695.456	-75.210	-0.188	-0.067
-694.441	-146.436	0.111	-0.010
-693.426	-117.105	-0.280	-0.051
-692.412	518.070	-0.028	-0.066
-691.397	-104.281	-0.340	-0.079
-690.383	-134.496	0.359	0.044
-689.368	114.508	0.144	-0.175
-688.354	-12.236	-0.334	-0.218
-687.339	149.005	0.049	-0.066
-686.324	-142.349	-0.135	0.013
-685.310	-75.738	-0.201	-0.071
-684.295	-83.720	0.085	-0.027
-683.281	120.631	-0.083	-0.103
-682.266	116.303	-0.194	0.237
-681.251	-117.820	0.716	0.128
-680.237	87.387	0.117	0.129
-679.222	-0.837	-0.047	-0.033
-678.208	-77.046	0.171	-0.059
-677.193	-41.703	-0.077	-0.039
-676.178	29.357	0.071	0.060
-675.164	-11.803	-0.122	0.080
-674.149	800.000	-0.033	-0.136
-673.135	59.930	0.215	-0.212
-672.120	-150.092	-0.318	-0.025
-671.105	-200.000	0.027	0.133
-670.091	800.000	-0.085	-0.242
-669.076	-200.000	-0.030	0.222
-668.062	-157.410	-0.192	0.012
-667.047	800.000	-0.020	0.063
-666.032	800.000	-0.110	-0.322
-665.018	277.966	-0.076	-0.135
-664.003	261.897	-0.190	0.329
-662.989	17.204	-0.166	0.131
-661.974	-112.305	-0.296	0.059
-660.959	-200.000	0.013	0.196
-659.945	-200.000	-0.023	0.218
-658.930	-191.054	-0.045	0.000
-657.916	751.261	0.079	0.213
-656.901	-181.414	0.290	0.006
-655.886	78.592	-0.183	-0.195
-654.872	97.291	-0.045	-0.051
-653.857	-25.308	0.071	0.042
-652.843	668.866	-0.237	-0.611
-651.828	-113.401	-0.134	0.026
-650.814	-200.000	-0.002	-0.267
-649.799	-34.853	-0.218	0.118
-648.784	800.000	-0.055	-0.190
-647.770	-98.517	-0.243	-0.062
-646.755	800.000	0.043	-0.183
-645.741	-88.421	-0.089	0.026
-644.726	68.857	0.062	-0.063
-643.711	194.338	0.144	-0.218
-642.697	800.000	-0.063	0.256
-641.682	132.308	-0.120	-0.153
-640.668	171.803	0.099	0.141
-639.653	671.640	0.118	-0.304
-638.638	-200.000	0.012	0.087
-637.624	146.842	0.128	-0.171
-636.609	-200.000	0.043	-0.280
-635.595	-117.788	0.280	-0.050
-634.580	-109.062	-0.248	0.053
-633.565	-50.411	0.374	0.176
-632.551	-68.026	-0.214	-0.083
-631.536	779.998	-0.035	0.096
-630.522	101.979	-0.059	-0.069
-629.507	-54.895	-0.438	0.196
-628.492	50.031	-0.165	0.155
-627.478	263.561	-0.043	-0.075
-626.463	800.000	-0.114	0.372
-625.449	30.285	-0.070	-0.059
-624.434	197.395	0.240	-0.365
-623.419	800.000	-0.062	-0.252
-622.405	-50.277	-0.059	-0.028
-621.390	-88.296	0.295	-0.088
-620.376	-86.138	-0.266	0.082
-619.361	-31.090	0.278	-0.156
-618.346	-97.982	0.105	0.027
-617.332	-200.000	0.043	-0.264
-616.317	-200.000	-0.012	-0.210
-615.303	-152.341	0.173	0.012
-614.288	-200.000	-0.029	-0.251
-613.273	88.419	-0.089	0.098
-612.259	800.000	0.078	-0.259
-611.244	800.000	-0.020	-0.072
-610.230	800.000	-0.011	0.043
-609.215	-69.243	0.234	0.089
-608.201	-68.456	-0.115	-0.044
-607.186	-200.000	0.060	0.359
-606.171	-166.782	-0.098	0.004
-605.157	800.000	0.055	0.172
-604.142	127.884	-0.075	-0.094
-603.128	163.025	-0.104	-0.146
-602.113	-70.492	0.084	-0.032
-601.098	546.308	0.032	0.075
-600.084	199.437	0.182	-0.277
-599.069	-108.864	0.103	-0.022
-598.055	166.615	0.122	0.172
-597.040	-114.524	-0.205	-0.039
-596.025	-200.000	0.017	-0.133
-595.011	-200.000	-0.076	-0.333
-593.996	-5.167	-0.231	-0.158
-592.982	-75.421	0.238	0.084
-591.967	182.975	-0.113	0.165
-590.952	-164.013	0.102	0.005
-589.938	-200.000	0.016	-0.071
-588.923	20.204	-0.189	-0.151
-587.909	-200.000	0.026	-0.136
-586.894	-178.316	0.250	-0.006
-585.879	46.369	-0.247	-0.227
-584.865	47.773	0.125	-0.116
-583.850	106.202	-0.161	0.190
-582.836	-108.422	-0.218	-0.047
-581.821	-128.256	-0.199	0.028
-580.806	-179.170	0.126	0.003
-579.792	469.838	-0.205	0.457
-578.777	144.336	-0.098	0.130
-577.763	277.285	0.122	0.215
-576.748	800.000	0.045	0.128
-575.733	194.762	-0.119	0.179
-574.719	309.887	-0.188	0.348
-573.704	800.000	0.040	-0.130
-572.690	133.559	0.121	-0.156
-571.675	84.932	0.156	0.170
-570.661	-67.516	-0.158	0.062
-569.646	-13.129	-0.364	0.235
-568.631	800.000	0.082	-0.252
-567.617	-74.726	-0.193	0.069
-566.602	-200.000	0.025	-0.373
-565.588	338.056	-0.089	0.172
-564.573	800.000	-0.040	-0.119
-563.558	-121.341	-0.131	0.022
-562.544	-61.544	0.189	-0.079
-561.529	346.328	0.131	0.256
-560.515	-97.339	-0.224	-0.058
-559.500	-57.918	-0.295	0.128
-558.485	30.089	0.158	-0.133
-557.471	800.000	0.063	0.236
-556.456	-116.814	-0.350	0.064
-555.442	-93.810	0.488	0.133
-554.427	27.798	-0.227	0.190
-553.412	-74.850	-0.099	-0.035
-552.398	-61.210	-0.014	-0.006
-551.383	84.308	0.275	0.298
-550.369	-200.000	0.009	-0.080
-549.354	192.782	0.199	0.298
-548.339	-80.064	-0.055	0.018
-547.325	800.000	0.051	-0.209
-546.310	-152.214	-0.188	0.013
-545.296	315.442	0.019	-0.035
-544.281	800.000	0.089	0.322
-543.266	102.976	0.108	-0.125
-542.252	-0.622	-0.128	-0.090
-541.237	189.844	-0.062	-0.093
-540.223	-162.995	-0.345	0.017
-539.208	24.953	-0.335	0.276
-538.193	-106.289	-0.218	0.048
-537.179	121.258	0.145	0.179
-536.164	-95.437	-0.249	-0.066
-535.150	-94.977	0.330	0.089
-534.135	-200.000	-0.018	-0.140
-533.121	394.105	-0.092	-0.190
-532.106	-137.874	0.007	-0.001
-531.091	-200.000	-0.001	-0.089
-530.077	-179.785	0.223	-0.005
-529.062	-32.569	-0.251	0.139
-528.048	-118.605	-0.555	0.097
-527.033	-92.684	0.061	-0.017
-526.018	-128.233	-0.090	-0.013
-525.004	-200.000	-0.017	0.230
-523.989	-22.506	-0.306	-0.184
-522.975	-110.445	0.371	0.076
-521.960	-200.000	0.041	0.224
-520.945	18.425	0.175	-0.138
-519.931	-200.000	0.003	0.153
-518.916	69.232	0.091	0.093
-517.902	-200.000	0.060	0.314
-516.887	800.000	0.082	-0.312
-515.872	328.448	-0.048	-0.091
-514.858	146.937	0.125	0.166
-513.843	-113.380	0.151	-0.029
-512.829	3.184	-0.072	-0.052
-511.814	296.612	-0.081	0.148
-510.799	800.000	0.044	0.185
-509.785	-10.796	0.289	-0.189
-508.770	304.815	-0.092	-0.169
-507.756	338.644	0.122	-0.235
-506.741	-145.667	0.232	0.020
-505.726	-153.729	0.106	0.007
-504.712	-200.000	0.026	-0.202
-503.697	-153.472	0.069	0.005
-502.683	-200.000	0.041	-0.232
-501.668	-112.572	-0.049	-0.010
-500.653	28.705	0.032	-0.027
-499.639	43.910	0.069	-0.063
-498.624	234.806	0.053	-0.087
-497.610	-23.376	-0.396	0.236
-496.595	-200.000	0.030	0.302
-495.581	19.680	-0.172	-0.137
-494.566	-200.000	0.017	0.185
-493.551	-200.000	0.033	0.318
-492.537	-147.281	-0.166	0.014
-491.522	-150.645	0.075	-0.006
-490.508	-129.118	-0.145	0.020
-489.493	-2.187	0.240	0.167
-488.478	-63.304	0.032	-0.013
-487.464	-200.000	0.040	-0.243
-486.449	-200.000	0.021	-0.149
-485.435	-90.900	-0.186	-0.053
-484.420	-102.203	-0.235	-0.056
-483.405	459.142	-0.050	0.111
-482.391	240.967	0.111	-0.183
-481.376	281.029	-0.161	0.284
-480.362	162.308	-0.164	-0.227
-479.347	800.000	0.030	0.090
-478.332	-200.000	0.048	-0.219
-477.318	-69.269	-0.261	-0.099
-476.303	-118.123	0.417	0.074
-475.289	-6.700	-0.054	-0.037
-474.274	-200.000	-0.003	0.090
-473.259	-200.000	-0.433	-0.001
-472.245	501.159	0.127	-0.290
-471.230	-117.858	-0.206	0.037
-470.216	-143.825	0.132	0.012
-469.201	33.174	-0.324	0.278
-468.186	-71.011	0.451	0.168
-467.172	6.462	-0.087	0.064
-466.157	90.629	-0.061	-0.068
-465.143	36.803	0.284	0.248
-464.128	114.388	-0.144	-0.173
-463.113	-200.000	0.049	-0.298
-462.099	-103.914	-0.026	0.006
-461.084	-150.571	-0.210	0.016
-460.070	-85.516	-0.284	0.087
-459.055	-23.687	0.113	0.067
-458.040	-100.691	0.379	-0.092
-457.026	-24.578	0.095	0.056
-456.011	186.206	0.114	-0.167
-454.997	-42.910	-0.223	-0.112
-453.982	-140.071	0.299	-0.031
-452.968	95.364	-0.154	-0.173
-451.953	112.729	-0.112	-0.134
-450.938	636.599	-0.026	0.065
-449.924	-180.501	0.137	-0.003
-448.909	2.255	0.178	0.127
-447.895	88.085	-0.151	0.166
-446.880	800.000	0.076	-0.216
-445.865	-200.000	0.048	-0.291
-444.851	-102.657	-0.173	0.041
-443.836	342.459	0.071	0.136
-442.822	162.979	0.117	-0.162
-441.807	96.551	-0.187	-0.211
-440.792	5.148	0.093	-0.068
-439.778	-200.000	-0.037	-0.282
-438.763	105.157	0.159	-0.185
-437.749	321.661	-0.054	-0.101
-436.734	-94.212	-0.412	0.111
-435.719	-200.000	0.067	0.320
-434.705	-16.273	0.346	-0.217
-433.690	-183.292	-0.345	0.006
-432.676	-200.000	0.015	-0.115
-431.661	-200.000	0.024	0.284
-430.646	394.306	0.085	0.175
-429.632	-122.837	-0.237	-0.038
-428.617	343.621	0.103	0.200
-427.603	425.635	-0.084	-0.178
-426.588	-57.944	0.162	-0.070
-425.573	-11.757	0.270	-0.175
-424.559	-13.196	-0.126	-0.081
-423.544	43.041	-0.044	-0.040
-422.530	800.000	-0.155	0.468
-421.515	10.088	-0.196	0.147
-420.500	24.626	0.043	-0.035
-419.486	133.334	-0.030	0.038
-418.471	-6.958	0.098	0.066
-417.457	652.893	0.106	0.268
-416.442	-41.139	0.289	0.147
-415.428	613.209	0.071	-0.176
-414.413	-49.008	-0.338	-0.160
-413.398	161.669	-0.074	0.102
-412.384	800.000	0.046	-0.136
-411.369	-174.229	0.294	-0.008
-410.355	57.376	-0.169	-0.163
-409.340	96.917	0.179	0.202
-408.325	-18.102	-0.262	-0.162
-407.311	-200.000	0.112	-0.000
-406.296	78.257	0.205	0.216
-405.282	-200.000	-0.024	0.228
-404.267	203.098	0.086	-0.132
-403.252	487.354	-0.132	0.298
-402.238	-200.000	0.019	0.205
-401.223	-114.193	-0.057	-0.011
-400.209	2.115	-0.433	0.308
-399.194	158.052	-0.145	-0.198
-398.179	167.159	0.258	-0.362
-397.165	-200.000	0.048	0.218
-396.150	-78.558	0.275	-0.093
-395.136	144.488	0.163	0.215
-394.121	54.954	-0.102	-0.097
-393.106	89.413	0.359	-0.394
-392.092	195.001	-0.173	-0.259
-391.077	50.002	0.445	0.414
-390.063	46.453	0.127	-0.116
-389.048	-200.000	0.001	-0.080
-388.033	318.326	0.086	-0.160
-387.019	-59.421	-0.192	0.081
-386.004	411.116	0.102	0.213
-384.990	-36.357	0.174	-0.093
-383.975	-200.000	-0.028	0.224
-382.960	21.669	0.138	-0.111
-381.946	-147.540	0.129	-0.011
-380.931	-31.114	0.138	0.077
-379.917	-200.000	0.015	-0.073
-378.902	-81.222	-0.190	-0.062
-377.888	-24.575	-0.167	0.098
-376.873	10.831	-0.240	-0.180
-375.858	-200.000	-0.007	-0.245
-374.844	53.016	0.136	-0.129
-373.829	41.992	0.142	0.127
-372.815	152.873	-0.169	0.228
-371.800	-91.201	-0.357	0.101
-370.785	-77.244	-0.169	0.058
-369.771	-200.000	-0.078	0.388
-368.756	-200.000	-0.010	0.134
-367.742	155.973	-0.072	-0.098
-366.727	-200.000	0.041	0.202
-365.712	-200.000	0.076	0.368
-364.698	119.829	-0.201	-0.246
-363.683	-186.234	0.458	-0.007
-362.669	800.000	-0.029	0.088
-361.654	-200.000	0.026	-0.132
-360.639	-29.572	-0.077	-0.044
-359.625	-109.055	0.157	-0.033
-358.610	-181.067	0.227	0.004
-357.596	800.000	-0.055	0.210
-356.581	307.397	-0.142	-0.260
-355.566	-200.000	0.007	-0.123
-354.552	-200.000	-0.019	0.102
-353.537	-177.576	0.366	-0.009
-352.523	-139.680	-0.248	-0.026
-351.508	60.900	-0.163	-0.159
-350.493	165.819	-0.153	0.214
-349.479	-140.467	0.492	0.050
-348.464	57.386	0.055	0.052
-347.450	27.230	0.150	0.124
-346.435	800.000	0.086	-0.257
-345.420	-165.003	-0.352	-0.015
-344.406	99.489	-0.126	-0.143
-343.391	197.830	-0.060	-0.089
-342.377	26.386	0.171	0.140
-341.362	800.000	0.090	-0.252
-340.348	36.232	0.164	0.142
-339.333	-20.422	0.149	0.090
-338.318	191.038	-0.039	-0.057
-337.304	115.509	0.151	-0.181
-336.289	-200.000	0.041	0.186
-335.275	-172.515	-0.266	0.008
-334.260	-58.566	0.110	-0.047
-333.245	-65.631	0.087	-0.034
-332.231	684.760	-0.059	0.152
-331.216	-111.822	0.328	-0.065
-330.202	-55.352	-0.087	0.039
-329.187	-117.845	0.134	0.024
-328.172	-3.970	-0.348	0.237
-327.158	-84.295	0.209	-0.065
-326.143	145.455	-0.124	-0.163
-325.129	109.487	-0.058	-0.069
-324.114	194.786	-0.200	-0.298
-323.099	195.468	-0.116	-0.173
-322.085	132.329	0.191	-0.242
-321.070	10.285	-0.253	0.189
-320.056	-200.000	-0.007	-0.079
-319.041	-60.040	-0.256	-0.107
-318.026	-71.669	-0.325	-0.119
-317.012	125.831	0.186	-0.231
-315.997	-200.000	0.010	-0.104
-314.983	-71.564	-0.188	0.069
-313.968	62.195	0.210	-0.206
-312.953	800.000	0.028	0.105
-311.939	-151.554	-0.173	-0.013
-310.924	800.000	0.031	-0.116
-309.910	800.000	-0.096	-0.303
-308.895	-101.703	0.228	0.054
-307.880	-200.000	-0.022	-0.129
-306.866	-59.203	0.302	0.128
-305.851	10.734	0.363	0.272
-304.837	20.386	0.223	0.177
-303.822	-142.046	-0.145	-0.014
-302.807	-61.139	0.248	0.103
-301.793	491.910	-0.077	-0.174
-300.778	-116.455	0.041	-0.007
-299.764	-77.663	0.307	-0.104
-298.749	304.696	0.060	-0.109
-297.735	-41.272	0.211	0.107
-296.720	403.203	-0.064	-0.133
-295.705	-27.892	-0.066	-0.037
-294.691	683.777	-0.103	-0.265
-293.676	170.815	-0.192	0.270
-292.662	-29.654	0.399	-0.224
-291.647	-18.087	0.248	0.153
-290.632	-64.258	-0.283	-0.113
-289.618	-200.000	-0.009	0.337
-288.603	-135.594	0.136	0.016
-287.589	-200.000	0.007	-0.053
-286.574	-26.429	0.287	0.165
-285.559	-12.775	0.266	0.170
-284.545	429.685	-0.123	0.262
-283.530	-62.580	0.239	-0.097
-282.516	-200.000	-0.016	0.248
-281.501	385.040	0.070	0.142
-280.486	155.197	0.100	-0.135
-279.472	-34.378	-0.093	0.050
-278.457	-34.471	0.153	-0.082
-277.443	29.028	0.087	-0.073
-276.428	-56.362	-0.204	0.089
-275.413	-200.000	0.020	0.353
-274.399	163.166	0.077	0.106
-273.384	629.415	0.101	-0.250
-272.370	-62.709	0.314	0.128
-271.355	-35.397	-0.199	-0.106
-270.340	-92.998	-0.312	0.085
-269.326	20.393	0.100	0.079
-268.311	-106.507	0.182	-0.040
-267.297	146.336	0.149	-0.196
-266.282	-121.218	0.199	-0.033
-265.267	-53.096	0.164	0.074
-264.253	498.768	-0.120	0.270
-263.238	-169.114	0.281	0.010
-262.224	-200.000	0.017	0.300
-261.209	-173.511	-0.321	-0.009
-260.195	-30.467	0.033	0.018
-259.180	800.000	0.046	-0.193
-258.165	204.896	-0.175	0.266
-257.151	76.533	-0.235	-0.244
-256.136	-200.000	0.002	-0.157
-255.122	800.000	-0.051	0.187
-254.107	-8.254	-0.190	-0.125
-253.092	-200.000	0.002	0.053
-252.078	21.291	0.206	-0.164
-251.063	-200.000	0.002	-0.036
-250.049	158.782	0.072	-0.097
-249.034	-200.000	0.035	0.228
-248.019	-57.270	-0.378	-0.163
-247.005	630.260	-0.131	-0.325
-245.990	-200.000	-0.010	0.173
-244.976	-25.252	-0.162	0.094
-243.961	-87.491	-0.290	0.086
-242.946	87.472	0.385	-0.417
-241.932	800.000	-0.064	-0.195
-240.917	92.580	-0.057	0.063
-239.903	-36.082	0.141	-0.074
-238.888	-200.000	0.041	-0.419
-237.873	-49.244	-0.069	-0.033
-236.859	-155.764	-0.287	0.018
-235.844	116.692	0.253	0.304
-234.830	-29.131	-0.153	-0.086
-233.815	119.082	0.137	0.166
-232.800	800.000	-0.031	0.100
-231.786	-157.387	-0.204	-0.012
-230.771	-92.905	-0.180	0.049
-229.757	-200.000	-0.050	0.284
-228.742	118.721	-0.067	-0.081
-227.727	-89.448	0.049	0.014
-226.713	46.782	-0.143	0.131
-225.698	-185.056	0.176	-0.003
-224.684	-28.470	0.454	0.256
-223.669	200.715	-0.049	0.074
-222.655	800.000	-0.071	0.249
-221.640	-129.385	-0.186	0.025
-220.625	588.746	-0.020	-0.048
-219.611	13.951	0.235	0.179
-218.596	106.095	-0.229	-0.265
-217.582	-31.683	0.261	-0.143
-216.567	288.355	-0.090	0.160
-215.552	-200.000	-0.024	-0.330
-214.538	657.074	-0.026	-0.066
-213.523	528.428	-0.116	-0.269
-212.509	774.493	-0.091	0.243
-211.494	800.000	-0.027	-0.107
-210.479	-200.000	0.002	0.069
-209.465	-18.772	0.133	0.081
-208.450	512.924	0.069	0.158
-207.436	-160.487	0.070	0.004
-206.421	-113.283	0.193	-0.037
-205.406	-59.122	-0.118	-0.050
-204.392	800.000	-0.045	0.131
-203.377	-158.098	0.135	-0.008
-202.363	800.000	0.075	-0.235
-201.348	-200.000	0.035	-0.234
-200.333	-118.866	0.200	0.034
-199.319	800.000	-0.036	0.143
-198.304	-200.000	0.012	0.090
-197.290	262.243	0.196	0.333
-196.275	-126.383	-0.296	0.043
-195.260	800.000	-0.092	0.293
-194.246	123.782	0.140	-0.172
-193.231	-122.562	-0.108	0.017
-192.217	-112.552	-0.079	-0.015
-191.202	5.560	0.306	-0.221
-190.187	185.445	0.058	0.084
-189.173	-200.000	0.018	0.235
-188.158	-120.097	-0.179	-0.030
-187.144	22.846	-0.351	-0.281
-186.129	800.000	0.025	-0.107
-185.114	188.478	-0.138	0.202
-184.100	105.489	0.045	0.053
-183.085	-200.000	-0.042	-0.220
-182.071	-18.499	-0.170	-0.104
-181.056	88.191	0.187	0.203
-180.042	146.878	-0.039	-0.052
-179.027	68.245	0.064	-0.064
-178.012	-18.895	-0.064	-0.039
-176.998	246.723	-0.147	0.242
-175.983	54.113	-0.021	-0.020
-174.969	-200.000	-0.101	-0.501
-173.954	-200.000	0.006	-0.048
-172.939	800.000	-0.139	0.413
-171.925	-86.789	-0.307	-0.092
-170.910	800.000	0.060	0.209
-169.896	-101.267	0.043	-0.010
-168.881	-5.247	0.081	-0.054
-167.866	-123.303	0.188	0.029
-166.852	-57.224	0.090	-0.039
-165.837	-101.762	0.075	0.018
-164.823	-90.160	-0.286	0.081
-163.808	179.076	0.072	0.103
-162.793	319.418	-0.134	-0.249
-161.779	-200.000	-0.004	-0.150
-160.764	480.724	0.132	-0.293
-159.750	78.249	0.099	0.104
-158.735	444.142	-0.085	0.183
-157.720	270.161	-0.035	0.060
-156.706	-178.915	0.267	0.006
-155.691	790.857	0.068	-0.181
-154.677	110.602	-0.160	0.187
-153.662	129.319	-0.078	0.097
-152.647	-53.549	-0.056	-0.025
-151.633	29.305	-0.025	0.021
-150.618	76.407	0.121	0.125
-149.604	800.000	0.054	-0.149
-148.589	85.461	0.181	0.194
-147.574	207.726	-0.133	-0.202
-146.560	-131.251	0.015	-0.002
-145.545	-200.000	-0.007	-0.070
-144.531	-146.712	0.349	0.029
-143.516	-200.000	-0.064	0.444
-142.502	800.000	0.028	0.097
-141.487	235.721	-0.153	0.247
-140.472	144.579	0.049	0.064
-139.458	520.902	-0.094	-0.216
-138.443	-200.000	-0.027	-0.128
-137.429	135.030	-0.182	0.231
-136.414	-55.766	-0.190	-0.083
-135.399	748.606	0.059	-0.156
-134.385	-200.000	0.013	-0.076
-133.370	-132.968	0.103	0.013
-132.356	-106.416	0.093	-0.020
-131.341	-153.933	-0.193	-0.013
-130.326	-200.000	-0.006	0.216
-129.312	59.402	-0.120	0.115
-128.297	182.291	-0.257	0.369
-127.283	-200.000	0.005	0.215
-126.268	-144.791	0.289	-0.026
-125.253	-10.073	0.311	-0.202
-124.239	351.577	-0.035	-0.069
-123.224	-78.205	0.313	-0.105
-122.210	659.121	0.061	-0.152
-121.195	-200.000	-0.017	0.286
-120.180	-162.560	0.249	0.012
-119.166	741.280	0.133	0.349
-118.151	-91.589	-0.335	0.093
-117.137	-175.335	0.254	-0.007
-116.122	-200.000	0.051	0.408
-115.107	-31.126	0.156	-0.086
-114.093	800.000	-0.102	0.293
-113.078	212.719	0.174	-0.267
-112.064	-118.777	0.036	0.006
-111.049	-95.070	0.178	-0.047
-110.034	800.000	-0.033	0.113
-109.020	47.649	-0.076	-0.069
-108.005	10.611	0.137	-0.102
-106.991	223.005	-0.080	-0.125
-105.976	-90.536	-0.303	0.085
-104.962	346.021	0.032	-0.062
-103.947	673.762	0.182	0.461
-102.932	-200.000	-0.083	0.397
-101.918	-30.717	-0.217	0.119
-100.903	-127.734	0.498	-0.070
-99.889	800.000	0.053	0.187
-98.874	-200.000	-0.021	0.312
-97.859	11.247	-0.320	0.239
-96.845	-42.141	-0.202	-0.101
-95.830	-3.110	-0.255	-0.173
-94.816	24.502	0.265	-0.214
-93.801	-108.735	0.185	0.039
-92.786	250.107	-0.048	-0.079
-91.772	-200.000	-0.037	0.233
-90.757	-89.851	0.253	0.072
-89.743	-125.681	0.118	0.017
-88.728	-2.710	-0.148	0.101
-87.713	23.087	0.239	0.191
-86.699	-132.552	0.142	-0.018
-85.684	-107.660	-0.199	0.042
-84.670	-34.156	0.277	-0.148
-83.655	165.133	-0.276	0.379
-82.640	-26.100	0.146	-0.084
-81.626	-26.689	0.171	-0.097
-80.611	266.492	-0.244	-0.414
-79.597	44.920	-0.077	0.069
-78.582	-34.117	0.032	-0.017
-77.567	205.021	0.162	0.246
-76.553	-200.000	-0.018	-0.141
-75.538	186.523	0.131	-0.190
-74.524	-200.000	0.010	-0.174
-73.509	-200.000	0.033	0.328
-72.494	-200.000	-0.065	0.512
-71.480	-80.506	-0.392	0.127
-70.465	261.017	-0.087	-0.147
-69.451	-78.745	-0.245	0.081
-68.436	125.502	0.165	0.203
-67.422	-200.000	-0.061	-0.366
-66.407	-200.000	-0.009	-0.185
-65.392	-200.000	-0.016	0.382
-64.378	276.683	-0.070	0.121
-63.363	-200.000	-0.063	0.327
-62.349	-75.757	0.213	0.074
-61.334	2.529	-1.450	-1.022
-60.319	84.647	0.673	0.717
-59.305	347.398	-0.533	-1.021
-58.290	373.105	0.686	1.357
-57.276	426.197	0.621	1.302
-56.261	-200.000	123.453	641.217
-55.246	418.037	1560.178	3243.526
-54.232	142.945	2731.752	3532.925
-53.217	90.301	2307.659	2510.902
-52.203	32.636	1916.485	1611.863
-51.188	26.419	1711.711	1391.906
-50.173	24.372	1672.723	1344.740
-49.159	44.935	1741.131	1559.023
-48.144	43.226	1752.339	1555.830
-47.130	26.108	1703.921	1382.967
-46.115	23.628	1688.446	1351.501
-45.100	23.449	1683.289	1345.958
-44.086	23.367	1681.451	1343.815
-43.071	23.405	1678.974	1342.068
-42.057	23.314	1676.862	1339.639
-41.042	23.369	1674.974	1338.492
-40.027	23.376	1673.018	1336.931
-39.013	23.315	1670.859	1334.688
-37.998	23.469	1668.956	1334.277
-36.984	23.435	1668.047	1333.241
-35.969	23.500	1666.619	1332.536
-34.954	23.625	1664.705	1331.890
-33.940	23.335	1663.490	1328.689
-32.925	23.457	1661.771	1328.180
-31.911	23.522	1659.684	1326.942
-30.896	23.567	1657.879	1325.787
-29.881	23.513	1656.997	1324.622
-28.867	23.451	1655.504	1322.916
-27.852	23.404	1653.891	1321.225
-26.838	23.558	1651.844	1320.683
-25.823	23.520	1651.023	1319.690
-24.809	23.545	1649.417	1318.542
-23.794	23.543	1647.887	1317.253
-22.779	23.559	1646.802	1316.452
-21.765	23.354	1645.354	1313.722
-20.750	23.446	1643.407	1312.796
-19.736	23.607	1641.735	1312.601
-18.721	23.609	1640.470	1311.550
-17.706	23.564	1638.928	1309.930
-16.692	23.475	1637.564	1308.133
-15.677	23.473	1636.209	1306.981
-14.663	23.571	1634.722	1306.468
-13.648	23.530	1633.915	1305.468
-12.633	23.507	1632.375	1304.018
-11.619	23.471	1630.947	1302.562
-10.604	23.560	1629.194	1301.761
-9.590	23.571	1627.566	1300.493
-8.575	23.597	1626.206	1299.543
-7.560	23.531	1625.420	1298.379
-6.546	23.480	1624.553	1297.258
-5.531	23.576	1623.108	1296.759
-4.517	23.498	1622.066	1295.306
-3.502	23.479	1620.792	1294.100
-2.487	23.624	1618.723	1293.452
-1.473	23.194	1606.698	1280.682
-0.458	20.238	1587.603	1244.240
0.556	15.242	1589.589	1213.508
1.571	12.927	1614.115	1215.090
2.586	12.726	1626.237	1222.611
3.600	11.869	1571.817	1175.446
4.615	6.562	1463.907	1059.078
5.629	1.197	1405.313	981.937
6.644	0.242	1397.972	970.571
7.659	0.221	1396.763	969.507
8.673	0.090	1396.550	968.434
9.688	0.217	1393.902	967.324
10.702	0.128	1390.065	964.007
11.717	2.681	1393.920	982.977
12.731	9.497	1404.020	1033.908
13.746	15.185	1412.641	1076.821
14.761	16.681	1414.697	1087.915
15.775	16.176	1412.658	1083.005
16.790	15.261	1409.709	1074.785
17.804	14.431	1408.130	1068.170
18.819	14.062	1406.394	1064.398
19.834	13.838	1405.022	1061.832
20.848	13.630	1403.985	1059.621
21.863	13.452	1402.622	1057.367
22.877	13.141	1401.795	1054.664
23.892	13.203	1400.561	1054.034
24.907	13.147	1399.954	1053.126
25.921	13.312	1398.443	1052.946
26.936	13.219	1397.878	1051.840
27.950	13.331	1396.764	1051.619
28.965	13.344	1395.812	1050.891
29.980	13.364	1395.559	1050.736
30.994	13.450	1393.889	1049.932
32.009	13.463	1393.039	1049.280
33.023	13.368	1391.849	1047.687
34.038	13.447	1390.219	1046.871
35.053	13.295	1389.754	1045.463
36.067	13.449	1388.065	1045.073
37.082	13.338	1387.636	1043.961
38.096	13.494	1386.434	1043.944
39.111	13.326	1386.006	1042.470
40.126	13.338	1384.669	1041.452
41.140	13.228	1383.897	1040.082
42.155	13.180	1383.919	1039.709
43.169	13.150	1383.378	1039.018
44.184	13.194	1383.119	1039.010
45.199	13.196	1382.613	1038.548
46.213	13.165	1382.202	1037.958
47.228	13.185	1380.888	1037.001
48.242	13.265	1379.473	1036.349
49.257	13.353	1378.226	1035.875
50.271	13.261	1376.710	1034.065
51.286	13.285	1375.305	1033.068
52.301	13.219	1374.264	1031.780
53.315	13.281	1372.828	1030.998
54.330	13.200	1372.606	1030.240
55.344	13.230	1370.595	1028.821
56.359	13.230	1369.655	1028.026
57.374	13.234	1368.866	1027.368
58.388	13.218	1368.041	1026.562
59.403	13.208	1367.444	1025.958
60.417	13.179	1366.658	1025.098
61.432	13.089	1365.997	1023.952
62.447	13.103	1364.880	1023.113
63.461	13.063	1363.411	1021.676
64.476	13.064	1362.177	1020.666
65.490	13.109	1360.959	1019.942
66.505	13.170	1359.139	1018.861
67.520	13.127	1358.457	1017.993
68.534	13.161	1356.783	1016.858
69.549	13.106	1356.410	1016.150
70.563	13.138	1355.115	1015.290
71.578	13.071	1353.563	1013.626
72.593	13.016	1352.645	1012.511
73.607	13.038	1352.057	1012.115
74.622	13.047	1351.400	1011.589
75.636	13.087	1350.302	1010.921
76.651	12.939	1350.029	1009.722
77.666	13.067	1348.769	1009.473
78.680	13.123	1348.381	1009.436
79.695	13.076	1347.643	1008.507
80.709	13.095	1346.761	1007.876
81.724	13.131	1345.981	1007.419
82.739	13.178	1344.540	1006.539
83.753	13.157	1344.155	1006.037
84.768	13.215	1342.759	1005.252
85.782	13.256	1341.816	1004.709
86.797	13.335	1339.996	1003.736
87.812	13.230	1339.160	1002.386
88.826	13.195	1338.350	1001.477
89.841	13.299	1336.573	1000.689
90.855	13.338	1335.448	999.995
91.870	13.256	1334.989	999.061
92.884	13.281	1334.344	998.646
93.899	13.368	1333.148	998.186
94.914	13.394	1332.151	997.506
95.928	13.319	1331.787	996.693
96.943	13.377	1330.383	995.904
97.957	13.334	1329.936	995.226
98.972	13.305	1328.558	993.931
99.987	13.369	1327.109	993.145
101.001	13.431	1326.538	992.999
102.016	13.273	1325.676	991.320
103.030	13.399	1324.467	991.080
104.045	13.400	1323.603	990.354
105.060	13.248	1322.842	988.787
106.074	13.292	1320.952	987.547
107.089	13.178	1320.022	986.084
108.103	13.255	1318.682	985.461
109.118	13.263	1316.952	984.126
110.133	13.159	1315.779	982.541
111.147	13.199	1314.272	981.570
112.162	13.198	1313.320	980.764
113.176	13.208	1312.216	979.912
114.191	13.280	1311.052	979.384
115.206	13.230	1310.225	978.385
116.220	13.222	1308.883	977.249
117.235	13.312	1307.532	976.684
118.249	13.290	1306.602	975.772
119.264	13.277	1305.665	974.910
120.279	13.169	1304.974	973.671
121.293	13.235	1303.423	972.815
122.308	13.275	1302.450	972.239
123.322	13.246	1301.389	971.190
124.337	13.195	1300.436	970.092
125.352	13.163	1299.601	969.196
126.366	13.179	1297.946	967.970
127.381	13.230	1296.955	967.444
128.395	13.230	1295.915	966.583
129.410	13.207	1294.627	965.403
130.424	13.209	1294.402	965.162
131.439	13.189	1293.282	964.125
132.454	13.207	1292.256	963.378
133.468	13.207	1291.454	962.698
134.483	13.205	1290.855	962.152
135.497	13.242	1289.270	961.103
136.512	13.176	1288.067	959.736
137.527	13.219	1286.809	958.961
138.541	13.270	1285.391	958.118
139.556	13.340	1284.090	957.470
140.570	13.309	1283.156	956.507
141.585	13.332	1281.663	955.446
142.600	13.465	1280.110	954.968
143.614	13.347	1279.941	954.076
144.629	13.397	1278.674	953.339
145.643	13.463	1277.743	952.941
146.658	13.542	1275.984	951.994
147.673	13.404	1274.878	950.293
148.687	13.418	1273.829	949.509
149.702	13.279	1272.848	947.899
150.716	13.327	1271.123	946.801
151.731	13.353	1270.019	946.044
152.746	13.361	1269.037	945.273
153.760	13.420	1267.150	944.123
154.775	13.442	1266.416	943.622
155.789	13.443	1265.423	942.800
156.804	13.384	1264.341	941.574
157.819	13.488	1262.924	941.029
158.833	13.549	1262.166	940.725
159.848	13.666	1260.764	940.264
160.862	13.665	1260.015	939.617
161.877	13.538	1258.937	938.008
162.892	13.480	1258.148	937.008
163.906	13.487	1257.532	936.508
164.921	13.534	1256.282	935.759
165.935	13.572	1255.616	935.397
166.950	13.569	1254.691	934.605
167.964	13.628	1253.734	934.143
168.979	13.515	1253.582	933.310
169.994	13.603	1252.635	933.019
171.008	13.622	1251.460	932.165
172.023	13.694	1250.579	931.835
173.037	13.686	1250.143	931.378
174.052	13.726	1249.237	930.850
175.067	13.525	1248.356	928.980
176.081	13.650	1246.706	928.374
177.096	13.623	1246.230	927.786
178.110	13.720	1245.166	927.452
179.125	13.807	1243.237	926.421
180.140	13.766	1242.288	925.399
181.154	13.695	1241.357	924.233
182.169	13.784	1240.497	924.002
183.183	13.736	1239.370	922.816
184.198	13.793	1237.814	921.894
185.213	13.874	1236.684	921.416
186.227	13.892	1235.604	920.631
187.242	13.888	1234.783	919.915
188.256	14.006	1233.017	919.172
189.271	13.970	1232.432	918.455
190.286	13.923	1231.500	917.419
191.300	13.789	1230.899	916.150
192.315	13.710	1230.465	915.313
193.329	13.762	1229.665	914.922
194.344	13.762	1228.570	914.028
195.359	13.839	1227.881	913.858
196.373	13.867	1227.353	913.540
197.388	13.958	1227.231	913.865
198.402	13.905	1226.748	913.133
199.417	13.989	1226.071	913.012
200.432	14.084	1224.997	912.654
201.446	14.024	1224.026	911.517
202.461	14.169	1222.858	911.366
203.475	14.179	1222.286	910.913
204.490	14.038	1220.904	909.029
205.504	14.117	1219.001	907.966
206.519	14.045	1218.809	907.345
207.534	14.114	1217.002	906.300
208.548	14.145	1216.023	905.660
209.563	14.122	1215.315	904.923
210.577	14.177	1214.401	904.460
211.592	14.184	1213.575	903.803
212.607	14.192	1212.801	903.190
213.621	14.351	1211.265	902.832
214.636	14.177	1211.109	901.692
215.650	14.348	1209.714	901.498
216.665	14.214	1209.321	900.401
217.680	14.233	1208.253	899.628
218.694	14.283	1207.528	899.280
219.709	14.315	1206.956	898.949
220.723	14.297	1205.642	897.793
221.738	14.286	1205.117	897.264
222.753	14.350	1204.110	896.779
223.767	14.360	1203.393	896.216
224.782	14.437	1202.787	896.102
225.796	14.411	1202.197	895.442
226.811	14.486	1201.357	895.140
227.826	14.321	1200.743	893.721
228.840	14.415	1200.040	893.619
229.855	14.455	1199.200	893.131
230.869	14.456	1198.515	892.547
231.884	14.420	1197.859	891.788
232.899	14.487	1196.519	891.068
233.913	14.408	1196.198	890.329
234.928	14.379	1195.428	889.520
235.942	14.435	1194.169	888.806
236.957	14.399	1193.940	888.365
237.972	14.285	1193.376	887.255
238.986	14.304	1192.622	886.720
240.001	14.476	1191.702	886.873
241.015	14.443	1190.488	885.713
242.030	14.552	1189.854	885.743
243.045	14.521	1189.050	884.902
244.059	14.477	1188.254	883.997
245.074	14.554	1187.612	883.851
246.088	14.630	1186.324	883.217
247.103	14.672	1185.432	882.697
248.117	14.789	1185.014	882.924
249.132	14.707	1184.685	882.167
250.147	14.668	1183.355	880.895
251.161	14.775	1182.750	880.930
252.176	14.771	1182.485	880.635
253.190	14.912	1181.435	880.518
254.205	14.850	1181.033	879.814
255.220	14.838	1180.604	879.352
256.234	14.928	1179.881	879.207
257.249	14.873	1178.811	878.047
258.263	14.907	1178.236	877.719
259.278	14.937	1177.387	877.167
260.293	15.002	1176.806	876.992
261.307	14.965	1176.116	876.208
262.322	15.033	1175.446	875.986
263.336	15.087	1174.807	875.719
264.351	15.003	1174.662	875.091
265.366	15.090	1173.558	874.647
266.380	15.106	1173.048	874.270
267.395	15.059	1172.006	873.175
268.409	15.082	1171.204	872.617
269.424	15.102	1170.803	872.349
270.439	15.038	1170.277	871.545
271.453	15.115	1169.322	871.158
272.468	15.001	1168.227	869.669
273.482	15.082	1167.693	869.619
274.497	15.173	1167.018	869.508
275.512	15.217	1166.205	869.055
276.526	15.094	1165.839	868.069
277.541	15.178	1164.820	867.668
278.555	15.165	1163.962	866.883
279.570	15.190	1163.073	866.276
280.585	15.188	1162.313	865.622
281.599	15.262	1161.625	865.416
282.614	15.212	1160.630	864.338
283.628	15.190	1159.470	863.288
284.643	15.279	1158.228	862.743
285.657	15.307	1157.733	862.444
286.672	15.266	1156.699	861.387
287.687	15.356	1155.674	861.010
288.701	15.441	1154.661	860.611
289.716	15.479	1153.850	860.126
290.730	15.436	1153.235	859.373
291.745	15.362	1152.861	858.639
292.760	15.471	1152.282	858.690
293.774	15.470	1151.745	858.205
294.789	15.481	1151.332	857.879
295.803	15.513	1150.495	857.345
296.818	15.491	1149.617	856.502
297.833	15.619	1148.831	856.490
298.847	15.451	1148.200	855.089
299.862	15.470	1147.105	854.294
300.876	15.502	1146.460	853.904
301.891	15.541	1146.029	853.702
302.906	15.650	1144.815	853.278
303.920	15.720	1144.468	853.300
304.935	15.600	1143.829	852.137
305.949	15.651	1143.374	851.982
306.964	15.677	1142.577	851.447
307.979	15.704	1141.596	850.774
308.993	15.698	1141.349	850.485
310.008	15.677	1140.565	849.717
311.022	15.746	1139.342	849.082
312.037	15.729	1138.655	848.408
313.052	15.700	1137.787	847.543
314.066	15.779	1136.661	847.023
315.081	15.646	1136.116	845.872
316.095	15.648	1135.314	845.214
317.110	15.607	1134.565	844.377
318.125	15.830	1133.700	844.775
319.139	15.735	1133.000	843.703
320.154	15.822	1131.842	843.201
321.168	15.842	1131.522	842.988
322.183	15.795	1131.151	842.400
323.197	15.849	1130.252	841.928
324.212	15.826	1129.659	841.295
325.227	15.768	1129.080	840.500
326.241	15.889	1128.096	840.300
327.256	15.796	1127.652	839.428
328.270	15.860	1126.542	838.846
329.285	15.827	1125.887	838.120
330.300	15.839	1125.059	837.492
331.314	15.963	1123.950	837.208
332.329	15.956	1122.886	836.304
333.343	15.916	1121.795	835.220
334.358	15.938	1121.541	835.069
335.373	15.987	1120.673	834.589
336.387	15.939	1119.945	833.737
337.402	15.971	1119.407	833.420
338.416	16.102	1118.359	833.215
339.431	16.050	1117.814	832.479
340.446	16.175	1117.034	832.438
341.460	16.225	1116.384	832.127
342.475	16.145	1115.944	831.334
343.489	16.168	1114.594	830.367
344.504	16.160	1113.695	829.583
345.519	16.203	1113.022	829.218
346.533	16.308	1112.168	829.027
347.548	16.343	1111.330	828.500
348.562	16.375	1110.173	827.721
349.577	16.272	1109.448	826.601
350.592	16.338	1108.567	826.198
351.606	16.219	1108.152	825.232
352.621	16.138	1107.574	824.332
353.635	16.339	1106.673	824.570
354.650	16.296	1105.945	823.746
355.665	16.143	1105.796	822.813
356.679	16.301	1105.054	822.959
357.694	16.303	1104.226	822.279
358.708	16.320	1103.837	822.000
359.723	16.321	1103.173	821.437
360.738	16.383	1102.493	821.161
361.752	16.466	1101.581	820.813
362.767	16.491	1100.997	820.427
363.781	16.356	1100.891	819.619
364.796	16.487	1099.712	819.301
365.810	16.551	1098.875	818.918
366.825	16.625	1098.258	818.742
367.840	16.607	1097.851	818.280
368.854	16.537	1097.573	817.661
369.869	16.689	1096.700	817.675
370.883	16.525	1096.183	816.426
371.898	16.617	1094.969	815.893
372.913	16.523	1094.872	815.294
373.927	16.651	1094.238	815.368
374.942	16.762	1093.238	815.085
375.956	16.663	1093.011	814.366
376.971	16.780	1092.268	814.301
377.986	16.800	1091.664	813.875
379.000	16.787	1090.829	813.121
380.015	16.759	1090.884	812.953
381.029	16.858	1090.110	812.778
382.044	16.867	1089.301	812.149
383.059	16.819	1088.519	811.261
384.073	16.761	1087.815	810.389
385.088	16.879	1086.485	809.889
386.102	16.883	1085.654	809.218
387.117	16.832	1085.125	808.510
388.132	16.716	1084.539	807.446
389.146	16.793	1083.052	806.636
390.161	16.912	1082.017	806.359
391.175	16.917	1081.448	805.886
392.190	16.863	1081.027	805.246
393.205	16.993	1080.350	805.289
394.219	16.980	1079.394	804.442
395.234	17.017	1078.512	803.890
396.248	16.860	1077.641	802.426
397.263	16.908	1076.522	801.750
398.278	16.893	1076.054	801.261
399.292	16.881	1075.454	800.685
400.307	16.960	1074.416	800.214
401.321	17.067	1073.692	800.109
402.336	16.968	1073.396	799.349
403.350	17.049	1072.531	799.015
404.365	17.037	1071.769	798.323
405.380	17.060	1071.194	797.930
406.394	17.002	1070.677	797.204
407.409	17.031	1069.741	796.570
408.423	17.137	1068.830	796.321
409.438	17.199	1068.467	796.269
410.453	17.247	1067.561	795.748
411.467	17.238	1066.841	795.099
412.482	17.260	1066.257	794.695
413.496	17.228	1065.324	793.783
414.511	17.307	1064.809	793.695
415.526	17.316	1064.568	793.487
416.540	17.390	1063.647	793.074
417.555	17.375	1063.198	792.600
418.569	17.379	1062.750	792.214
419.584	17.392	1062.345	791.905
420.599	17.417	1061.617	791.408
421.613	107.390	1330.984	1485.676
422.628	99.139	1370.181	1485.727
