DTS Sentinel unit serial number:	SN413079Multiplexer serial number:	ORYXHardware model number:	OX4-SRSoftware version number:	ORYX F/W v4.00 Oryx Data Collector v3.7.2.0data status	okinstallation	princeton_trtdifferential loss correction	single-endedforward channel	channel 2reverse channel	N/Adate	2019/09/13time	06:47:35forward acquisition time	60.00reverse acquisition time	0.00gamma	496.2192k internal	0.2338k external	0.2338temperature offset calibration	1.0196default loss term (dB/km)	0.3790temperature slope calibration	1.0000multiplexer offset coefficient	1.0000multiplexer slope coefficient	1.0000fibre end	0.00T internal ref (°C)	26.00T ext. ref 1 (°C)	4.11T ext. ref 2 (°C)	20.63length (m)	temperature (°C)	Stokes	anti-Stokes-747.200	131.624	0.252	0.326
-746.185	-74.119	-0.350	0.127
-745.171	87.168	-0.172	-0.191
-744.156	800.000	-0.159	0.617
-743.142	153.187	-0.170	0.233
-742.127	-153.462	-0.237	0.017
-741.112	157.940	0.076	0.105
-740.098	-120.354	-0.353	0.060
-739.083	-123.614	-0.314	-0.050
-738.069	363.115	0.097	0.196
-737.054	63.466	0.138	-0.139
-736.039	0.485	-0.141	-0.101
-735.025	-17.608	0.290	0.183
-734.010	-28.125	0.053	-0.031
-732.996	-0.280	-0.384	0.274
-731.981	800.000	0.051	-0.176
-730.966	9.339	-0.071	0.054
-729.952	-200.000	-0.017	-0.262
-728.937	-30.704	-0.221	-0.126
-727.923	-154.003	0.304	-0.021
-726.908	60.364	-0.174	-0.173
-725.894	-60.916	0.112	0.048
-724.879	-63.269	0.067	0.028
-723.864	-200.000	-0.035	-0.262
-722.850	73.638	0.137	0.144
-721.835	-90.747	0.325	0.094
-720.821	218.062	-0.066	0.105
-719.806	-60.377	-0.027	0.011
-718.791	72.165	0.081	-0.085
-717.777	169.737	-0.117	-0.168
-716.762	115.403	0.243	0.298
-715.748	297.001	-0.044	-0.081
-714.733	25.618	-0.303	0.253
-713.718	62.118	0.258	-0.258
-712.704	488.957	0.074	0.169
-711.689	-200.000	-0.007	-0.162
-710.675	362.217	-0.175	-0.351
-709.660	146.785	-0.135	-0.181
-708.645	-62.235	0.187	0.078
-707.631	800.000	0.037	-0.107
-706.616	-3.774	-0.172	0.120
-705.602	487.328	0.089	-0.204
-704.587	126.151	-0.113	-0.143
-703.572	133.841	-0.299	-0.388
-702.558	-200.000	0.093	0.441
-701.543	-200.000	0.008	0.134
-700.529	36.243	0.296	-0.261
-699.514	-77.986	-0.158	-0.055
-698.499	126.617	0.162	0.205
-697.485	31.987	-0.207	-0.179
-696.470	-200.000	-0.020	0.177
-695.456	-14.609	0.111	0.072
-694.441	-84.964	0.127	-0.040
-693.426	-57.412	-0.267	-0.117
-692.412	-103.362	0.383	0.090
-691.397	776.863	-0.076	0.207
-690.383	131.393	-0.167	0.215
-689.368	-200.000	-0.005	0.076
-688.354	-106.899	0.276	-0.061
-687.339	40.322	-0.110	-0.099
-686.324	-78.238	0.166	-0.057
-685.310	-200.000	0.025	-0.175
-684.295	800.000	0.052	0.167
-683.281	-83.498	-0.176	-0.056
-682.266	-45.362	0.209	-0.104
-681.251	-126.531	-0.256	-0.038
-680.237	800.000	0.110	0.403
-679.222	317.476	0.063	-0.120
-678.208	716.377	-0.040	0.105
-677.193	-87.031	0.006	-0.002
-676.178	-200.000	-0.014	-0.255
-675.164	-73.952	0.220	-0.080
-674.149	225.953	-0.102	-0.165
-673.135	-200.000	0.014	0.118
-672.120	800.000	-0.071	0.237
-671.105	-87.699	-0.406	-0.123
-670.091	-72.377	0.238	-0.088
-669.076	486.330	-0.137	-0.312
-668.062	-99.558	-0.197	0.050
-667.047	-85.997	0.208	-0.064
-666.032	-200.000	0.069	-0.418
-665.018	800.000	-0.022	-0.062
-664.003	284.196	-0.195	-0.351
-662.989	151.008	0.249	-0.339
-661.974	525.809	0.111	-0.260
-660.959	-91.128	0.324	-0.093
-659.945	-17.564	-0.262	-0.165
-658.930	200.778	0.136	-0.209
-657.916	-124.984	0.272	0.042
-656.901	116.266	0.088	-0.107
-655.886	403.720	-0.132	-0.279
-654.872	793.908	-0.092	-0.253
-653.857	-200.000	0.019	0.092
-652.843	95.473	0.173	-0.197
-651.828	-200.000	0.092	-0.428
-650.814	800.000	0.168	-0.508
-649.799	-97.381	0.293	-0.076
-648.784	-200.000	0.002	0.249
-647.770	-69.252	0.128	0.049
-646.755	-150.326	0.143	0.011
-645.741	109.139	0.143	0.171
-644.726	6.711	0.117	0.087
-643.711	87.814	0.192	-0.212
-642.697	83.938	-0.088	0.096
-641.682	43.279	0.065	-0.059
-640.668	-77.123	0.068	-0.024
-639.653	-129.915	0.125	0.017
-638.638	-49.942	0.240	0.114
-637.624	-123.438	-0.306	0.049
-636.609	-8.802	0.150	-0.100
-635.595	-50.306	-0.134	0.063
-634.580	-200.000	0.003	-0.130
-633.565	-50.442	-0.273	-0.129
-632.551	-75.851	-0.177	0.063
-631.536	28.185	-0.148	-0.125
-630.522	800.000	-0.072	-0.302
-629.507	-105.899	-0.327	0.074
-628.492	360.404	0.090	0.181
-627.478	-58.201	-0.189	0.082
-626.463	800.000	0.045	0.194
-625.449	255.809	-0.094	0.160
-624.434	-23.780	0.331	-0.198
-623.419	800.000	0.070	-0.214
-622.405	-158.693	0.281	-0.016
-621.390	-5.781	0.139	0.095
-620.376	-170.171	0.171	-0.006
-619.361	477.115	0.049	0.111
-618.346	17.636	-0.071	0.057
-617.332	176.700	-0.078	0.114
-616.317	-107.000	-0.216	-0.048
-615.303	216.917	0.202	-0.321
-614.288	800.000	-0.123	0.370
-613.273	-151.472	-0.271	-0.020
-612.259	-76.552	-0.111	0.039
-611.244	-200.000	-0.013	0.188
-610.230	-55.211	0.161	0.072
-609.215	191.547	-0.264	-0.397
-608.201	158.021	0.273	-0.378
-607.186	683.469	-0.095	0.248
-606.171	344.258	-0.039	0.076
-605.157	-124.796	0.102	0.016
-604.142	42.552	-0.035	-0.031
-603.128	304.622	0.233	-0.432
-602.113	-53.648	0.155	-0.071
-601.098	-79.164	0.183	-0.062
-600.084	-81.342	-0.334	-0.110
-599.069	-45.318	-0.228	0.113
-598.055	40.393	0.154	-0.138
-597.040	-158.638	0.201	0.012
-596.025	-200.000	0.013	-0.124
-595.011	-200.000	0.006	0.145
-593.996	-112.537	-0.182	-0.036
-592.982	-200.000	-0.011	-0.266
-591.967	-200.000	-0.027	-0.161
-590.952	126.161	-0.158	0.199
-589.938	-200.000	-0.010	-0.084
-588.923	219.695	-0.103	0.164
-587.909	-200.000	0.053	-0.257
-586.894	-200.000	-0.062	-0.330
-585.879	-43.435	0.271	-0.137
-584.865	-27.860	-0.303	0.175
-583.850	-100.423	-0.124	0.031
-582.836	367.920	0.086	-0.173
-581.821	70.944	-0.134	-0.138
-580.806	-200.000	-0.050	-0.299
-579.792	41.454	-0.220	0.198
-578.777	81.570	-0.207	0.223
-577.763	262.863	0.111	-0.192
-576.748	-86.335	-0.312	-0.096
-575.733	442.127	0.080	0.175
-574.719	800.000	-0.133	0.410
-573.704	-200.000	-0.007	0.051
-572.690	81.417	-0.158	0.170
-571.675	-129.372	-0.302	-0.042
-570.661	-200.000	-0.008	-0.112
-569.646	-100.713	0.160	-0.039
-568.631	-50.011	-0.303	-0.143
-567.617	291.899	0.279	0.507
-566.602	800.000	0.058	-0.234
-565.588	652.908	-0.092	-0.235
-564.573	62.799	0.078	0.078
-563.558	-15.634	0.269	-0.171
-562.544	-189.855	0.214	-0.002
-561.529	800.000	-0.096	0.295
-560.515	65.601	0.083	-0.083
-559.500	-200.000	-0.011	0.086
-558.485	86.333	-0.144	-0.158
-557.471	-52.231	-0.205	0.095
-556.456	-20.440	0.295	-0.181
-555.442	-4.555	-0.104	0.071
-554.427	800.000	0.101	-0.351
-553.412	-41.700	-0.356	0.182
-552.398	-12.170	0.211	0.137
-551.383	28.745	0.170	0.143
-550.369	-69.436	-0.141	0.054
-549.354	-200.000	0.063	-0.294
-548.339	-156.546	0.215	0.013
-547.325	43.503	0.028	-0.026
-546.310	-22.699	-0.120	0.072
-545.296	-85.892	0.172	-0.053
-544.281	-169.974	0.341	0.012
-543.266	758.102	0.045	0.122
-542.252	-178.369	0.123	-0.003
-541.237	588.313	0.066	-0.163
-540.223	-74.366	0.344	-0.123
-539.208	-86.694	-0.295	0.090
-538.193	49.203	-0.277	0.259
-537.179	-59.495	0.263	-0.112
-536.164	-113.819	0.107	0.021
-535.150	-183.712	-0.181	-0.003
-534.135	-200.000	-0.001	0.143
-533.121	374.591	-0.223	0.451
-532.106	251.440	0.141	0.238
-531.091	-21.066	-0.258	-0.157
-530.077	800.000	-0.090	0.274
-529.062	457.129	0.043	0.095
-528.048	14.057	-0.149	-0.116
-527.033	-114.229	0.327	-0.063
-526.018	-138.333	0.201	0.022
-525.004	-83.337	-0.109	0.035
-523.989	-200.000	-0.007	0.092
-522.975	-44.678	0.248	0.123
-521.960	-121.388	-0.306	0.051
-520.945	64.817	-0.223	-0.223
-519.931	23.801	-0.187	0.153
-518.916	159.520	0.191	0.264
-517.902	-200.000	0.016	-0.237
-516.887	-200.000	0.006	-0.207
-515.872	0.643	-0.196	0.140
-514.858	-99.723	-0.012	-0.003
-513.843	-127.875	0.191	0.027
-512.829	177.965	-0.291	0.422
-511.814	-200.000	0.020	0.132
-510.799	800.000	0.018	-0.062
-509.785	-200.000	0.002	0.174
-508.770	137.799	-0.150	0.196
-507.756	159.537	-0.224	0.310
-506.741	800.000	0.069	-0.201
-505.726	46.143	0.148	-0.136
-504.712	24.031	-0.119	0.098
-503.697	-135.267	0.451	-0.054
-502.683	-200.000	-0.033	-0.305
-501.668	-81.136	-0.212	-0.070
-500.653	-79.682	-0.048	0.016
-499.639	-4.182	0.395	0.271
-498.624	-102.116	-0.308	-0.074
-497.610	-91.320	-0.266	-0.076
-496.595	4.163	-0.101	0.073
-495.581	538.524	-0.015	0.035
-494.566	-200.000	0.004	0.151
-493.551	-47.786	0.099	-0.048
-492.537	-120.690	0.220	-0.037
-491.522	-200.000	0.014	-0.077
-490.508	-200.000	-0.025	0.237
-489.493	-72.476	0.230	-0.085
-488.478	-161.708	-0.302	0.015
-487.464	-200.000	-0.025	0.418
-486.449	-200.000	-0.022	0.245
-485.435	139.218	0.270	0.353
-484.420	-40.401	0.294	0.152
-483.405	39.360	-0.154	0.137
-482.391	34.830	0.083	0.072
-481.376	-200.000	-0.007	0.047
-480.362	403.409	0.082	0.172
-479.347	-127.159	-0.048	-0.007
-478.332	-59.960	-0.215	-0.091
-477.318	800.000	-0.035	0.111
-476.303	-200.000	0.033	-0.148
-475.289	190.437	0.059	-0.089
-474.274	-136.569	-0.049	-0.006
-473.259	-68.981	-0.333	0.127
-472.245	162.163	-0.091	0.126
-471.230	345.575	-0.118	-0.231
-470.216	-88.179	-0.656	0.195
-469.201	-170.022	-0.278	-0.010
-468.186	358.658	0.144	-0.286
-467.172	-139.178	-0.308	0.033
-466.157	110.984	0.054	0.064
-465.143	167.748	0.166	-0.234
-464.128	-68.342	-0.309	-0.119
-463.113	-200.000	-0.011	0.074
-462.099	-6.264	0.108	0.073
-461.084	800.000	-0.099	-0.346
-460.070	-200.000	0.070	0.356
-459.055	-39.768	-0.095	0.049
-458.040	-200.000	-0.050	-0.433
-457.026	408.921	0.042	-0.088
-456.011	-178.629	0.151	0.003
-454.997	553.922	-0.076	0.182
-453.982	-200.000	0.019	-0.111
-452.968	-114.849	0.101	0.019
-451.953	537.575	0.018	0.042
-450.938	-200.000	-0.033	-0.279
-449.924	67.647	0.101	-0.102
-448.909	219.208	-0.048	0.076
-447.895	-165.721	0.359	-0.015
-446.880	-200.000	0.038	-0.366
-445.865	59.931	0.159	-0.156
-444.851	672.300	-0.199	-0.511
-443.836	-29.278	0.036	-0.020
-442.822	-61.158	0.048	0.020
-441.807	-119.214	-0.182	-0.031
-440.792	-0.658	0.108	-0.076
-439.778	800.000	-0.041	-0.133
-438.763	86.378	-0.176	-0.192
-437.749	707.999	-0.044	-0.116
-436.734	800.000	-0.154	0.527
-435.719	-200.000	-0.015	0.203
-434.705	-123.436	-0.413	-0.065
-433.690	56.931	-0.084	-0.082
-432.676	-113.650	0.086	-0.017
-431.661	-200.000	-0.006	-0.027
-430.646	111.440	0.044	0.053
-429.632	37.291	0.224	-0.196
-428.617	72.244	0.089	0.091
-427.603	26.357	0.136	0.113
-426.588	-109.057	0.097	0.020
-425.573	525.856	0.038	-0.088
-424.559	645.977	0.151	-0.381
-423.544	-149.028	-0.146	0.012
-422.530	-23.604	-0.145	-0.086
-421.515	800.000	0.074	0.320
-420.500	-182.851	0.364	0.006
-419.486	-68.929	0.456	-0.174
-418.471	-200.000	-0.016	0.101
-417.457	-89.915	0.360	0.104
-416.442	-81.898	-0.212	-0.069
-415.428	-16.002	-0.154	0.097
-414.413	-200.000	-0.126	-0.000
-413.398	-50.366	-0.301	0.141
-412.384	-34.725	-0.102	-0.055
-411.369	-200.000	-0.057	-0.426
-410.355	-200.000	-0.008	-0.124
-409.340	-17.975	0.361	0.224
-408.325	-15.794	0.214	-0.135
-407.311	77.576	0.156	-0.165
-406.296	-200.000	0.070	0.337
-405.282	-131.806	-0.067	-0.009
-404.267	-1.137	-0.138	-0.097
-403.252	800.000	0.051	0.175
-402.238	-162.379	-0.114	0.006
-401.223	-200.000	-0.008	-0.273
-400.209	376.723	-0.058	-0.118
-399.194	-111.675	0.106	0.021
-398.179	10.774	0.214	-0.162
-397.165	543.721	0.043	0.102
-396.150	100.238	0.330	0.379
-395.136	-74.790	-0.314	-0.112
-394.121	-129.187	0.069	0.010
-393.106	-200.000	-0.063	-0.297
-392.092	-40.977	-0.130	-0.066
-391.077	-16.106	-0.191	0.120
-390.063	-51.002	-0.244	0.113
-389.048	28.085	-0.171	-0.143
-388.033	99.573	0.240	0.274
-387.019	253.113	-0.116	-0.197
-386.004	-200.000	0.077	-0.416
-384.990	-59.959	0.215	-0.091
-383.975	-96.507	-0.285	-0.074
-382.960	-200.000	-0.003	-0.192
-381.946	299.616	-0.154	0.280
-380.931	-200.000	0.071	0.468
-379.917	599.021	0.097	0.238
-378.902	-51.507	-0.141	0.065
-377.888	251.079	0.158	0.265
-376.873	-119.046	0.286	0.050
-375.858	151.763	0.010	-0.014
-374.844	292.891	0.155	-0.280
-373.829	800.000	-0.071	-0.284
-372.815	275.454	-0.068	-0.120
-371.800	800.000	0.029	-0.104
-370.785	10.181	0.246	0.185
-369.771	-49.671	0.247	-0.116
-368.756	-116.275	0.064	-0.012
-367.742	33.250	0.231	-0.198
-366.727	-3.971	0.255	0.175
-365.712	36.725	-0.172	0.150
-364.698	-1.368	-0.199	-0.139
-363.683	-156.994	-0.123	-0.007
-362.669	89.065	-0.327	-0.360
-361.654	630.017	0.078	0.195
-360.639	-58.043	-0.147	0.064
-359.625	-72.747	-0.154	0.056
-358.610	14.364	-0.295	-0.227
-357.596	800.000	0.020	-0.060
-356.581	-200.000	0.039	-0.289
-355.566	165.540	-0.256	0.357
-354.552	800.000	-0.015	0.052
-353.537	-62.594	-0.177	0.073
-352.523	16.817	0.185	0.145
-351.508	-77.168	0.317	-0.109
-350.493	-30.073	-0.148	-0.083
-349.479	4.833	-0.098	0.071
-348.464	-60.608	0.374	0.157
-347.450	-118.434	0.189	0.033
-346.435	211.297	0.138	0.214
-345.420	-200.000	0.048	0.314
-344.406	-40.868	-0.183	0.094
-343.391	-81.295	0.411	-0.134
-342.377	-200.000	-0.000	0.167
-341.362	-87.546	-0.028	0.008
-340.348	77.677	-0.241	0.253
-339.333	-82.895	-0.148	-0.047
-338.318	577.052	0.177	-0.428
-337.304	-85.821	-0.128	-0.039
-336.289	-200.000	-0.016	0.257
-335.275	-75.471	0.326	0.114
-334.260	-85.008	-0.227	0.070
-333.245	-13.336	-0.118	0.075
-332.231	-101.519	0.202	-0.048
-331.216	-4.234	-0.356	-0.243
-330.202	384.600	-0.136	-0.277
-329.187	-146.943	-0.111	-0.009
-328.172	-95.273	0.159	0.042
-327.158	-28.570	-0.105	-0.060
-326.143	28.557	0.181	0.151
-325.129	-200.000	0.021	-0.131
-324.114	-200.000	-0.008	0.242
-323.099	-162.188	-0.194	0.010
-322.085	800.000	-0.034	-0.105
-321.070	-118.590	0.066	0.012
-320.056	-200.000	-0.044	0.359
-319.041	118.723	-0.041	-0.049
-318.026	-67.719	0.168	0.065
-317.012	93.575	-0.233	0.260
-315.997	-200.000	-0.042	0.353
-314.983	187.428	0.102	-0.150
-313.968	72.843	0.116	0.119
-312.953	-88.953	0.467	0.137
-311.939	82.198	-0.202	0.217
-310.924	614.018	0.175	-0.432
-309.910	202.662	-0.118	0.180
-308.895	800.000	0.072	0.232
-307.880	-78.307	-0.187	0.063
-306.866	800.000	-0.059	0.174
-305.851	-125.467	-0.304	0.046
-304.837	-200.000	-0.025	0.170
-303.822	22.989	-0.147	0.119
-302.807	116.102	0.128	0.155
-301.793	26.558	-0.044	-0.036
-300.778	13.187	0.097	-0.074
-299.764	800.000	0.011	0.043
-298.749	179.697	0.209	0.302
-297.735	-200.000	-0.011	0.124
-296.720	800.000	-0.010	0.029
-295.705	34.523	0.290	0.249
-294.691	365.725	-0.063	-0.124
-293.676	113.557	0.173	0.207
-292.662	800.000	-0.071	-0.240
-291.647	800.000	0.063	-0.189
-290.632	-160.255	0.388	-0.021
-289.618	0.741	-0.220	0.155
-288.603	434.648	0.182	-0.390
-287.589	-195.573	0.170	0.001
-286.574	-200.000	0.021	-0.207
-285.559	381.985	-0.105	-0.213
-284.545	16.098	0.192	0.149
-283.530	86.172	0.176	-0.191
-282.516	12.042	0.108	-0.082
-281.501	-140.358	0.230	-0.024
-280.486	-106.799	0.414	0.091
-279.472	-200.000	0.041	0.287
-278.457	-10.232	0.062	-0.040
-277.443	87.689	0.171	-0.186
-276.428	61.639	-0.311	-0.305
-275.413	549.263	-0.070	-0.165
-274.399	507.100	-0.031	0.071
-273.384	-200.000	-0.015	0.119
-272.370	-78.787	-0.027	-0.009
-271.355	-7.468	0.251	-0.168
-270.340	202.859	0.110	0.168
-269.326	221.671	-0.160	0.253
-268.311	-35.925	-0.138	-0.074
-267.297	-200.000	0.036	0.179
-266.282	197.411	-0.078	-0.117
-265.267	-142.800	-0.046	-0.004
-264.253	-65.500	-0.515	0.204
-263.238	-38.701	0.525	0.273
-262.224	-41.729	-0.208	-0.105
-261.209	-17.731	-0.209	-0.129
-260.195	-45.247	0.159	-0.078
-259.180	-200.000	-0.015	-0.097
-258.165	800.000	0.073	-0.267
-257.151	10.369	0.232	-0.174
-256.136	-95.881	0.139	-0.037
-255.122	800.000	-0.096	-0.388
-254.107	493.847	-0.012	-0.028
-253.092	229.234	-0.075	-0.120
-252.078	-200.000	0.089	0.000
-251.063	-33.988	-0.315	-0.171
-250.049	-92.685	0.036	-0.010
-249.034	203.946	0.138	-0.210
-248.019	-82.866	-0.373	-0.118
-247.005	-163.285	-0.350	0.017
-245.990	800.000	-0.080	0.308
-244.976	-200.000	-0.200	-0.001
-243.961	-200.000	0.032	0.241
-242.946	204.527	0.062	0.095
-241.932	-103.325	-0.069	-0.016
-240.917	367.359	-0.083	-0.164
-239.903	-200.000	-0.009	-0.327
-238.888	-51.399	-0.175	0.080
-237.873	-13.998	0.117	0.075
-236.859	120.887	-0.201	0.245
-235.844	-22.492	-0.185	0.110
-234.830	232.195	0.230	-0.371
-233.815	800.000	-0.080	-0.245
-232.800	3.569	-0.059	0.042
-231.786	-71.708	-0.205	-0.075
-230.771	-200.000	0.042	-0.265
-229.757	800.000	0.065	0.212
-228.742	-118.572	-0.225	-0.039
-227.727	-17.348	0.364	0.225
-226.713	384.465	0.135	-0.273
-225.698	-180.431	-0.172	0.004
-224.684	-200.000	-0.002	0.397
-223.669	800.000	-0.111	-0.368
-222.655	68.841	0.127	-0.128
-221.640	800.000	-0.037	0.147
-220.625	-80.899	-0.181	-0.059
-219.611	-5.919	-0.145	0.097
-218.596	724.308	0.022	-0.057
-217.582	104.167	0.275	0.318
-216.567	-48.398	-0.258	0.122
-215.552	-92.764	-0.140	-0.039
-214.538	-83.543	0.461	0.145
-213.523	-168.708	-0.220	-0.008
-212.509	-200.000	-0.032	0.358
-211.494	-170.618	0.029	0.001
-210.479	-200.000	-0.093	-0.440
-209.465	-79.080	0.564	-0.188
-208.450	-29.291	-0.074	-0.041
-207.436	288.869	0.040	-0.072
-206.421	116.399	-0.093	0.112
-205.406	344.101	-0.097	0.188
-204.392	-200.000	-0.023	-0.190
-203.377	66.647	-0.142	0.142
-202.363	256.781	-0.239	-0.403
-201.348	-131.816	0.399	0.051
-200.333	-200.000	0.050	0.389
-199.319	-13.091	-0.119	0.076
-198.304	-10.096	0.032	-0.021
-197.290	20.042	0.183	0.145
-196.275	800.000	0.074	0.289
-195.260	59.699	0.082	-0.079
-194.246	799.492	-0.108	-0.294
-193.231	150.958	-0.105	-0.140
-192.217	800.000	-0.082	-0.243
-191.202	-111.426	-0.039	-0.008
-190.187	-142.784	-0.314	-0.030
-189.173	-176.043	0.207	-0.005
-188.158	-93.388	0.203	-0.055
-187.144	113.880	0.277	0.331
-186.129	-106.865	0.332	0.072
-185.114	-40.818	-0.147	-0.075
-184.100	-132.296	0.069	-0.009
-183.085	5.632	-0.142	0.103
-182.071	-52.217	-0.217	-0.099
-181.056	-142.207	-0.124	-0.012
-180.042	-80.636	-0.066	-0.022
-179.027	14.892	0.032	0.024
-178.012	800.000	0.098	-0.391
-176.998	-86.595	-0.145	0.044
-175.983	247.631	-0.121	0.200
-174.969	81.207	0.187	0.198
-173.954	83.598	0.148	0.158
-172.939	340.535	-0.029	-0.056
-171.925	57.454	-0.303	-0.291
-170.910	-14.739	0.416	-0.262
-169.896	-37.180	0.295	0.155
-168.881	41.285	0.211	-0.187
-167.866	-118.897	0.264	-0.045
-166.852	-43.798	0.023	-0.011
-165.837	59.799	-0.191	0.185
-164.823	44.617	-0.529	-0.477
-163.808	92.516	0.201	-0.222
-162.793	-15.535	0.385	0.241
-161.779	-200.000	-0.038	-0.184
-160.764	-74.510	0.255	-0.090
-159.750	497.204	-0.080	0.180
-158.735	-73.514	-0.236	-0.084
-157.720	-200.000	-0.021	-0.175
-156.706	800.000	0.039	0.111
-155.691	-115.575	0.396	0.073
-154.677	-83.536	-0.202	0.063
-153.662	-144.981	-0.188	0.017
-152.647	221.979	0.023	-0.037
-151.633	4.398	-0.252	0.181
-150.618	274.711	-0.147	0.255
-149.604	-200.000	0.045	0.196
-148.589	-79.253	0.164	-0.054
-147.574	29.082	0.352	0.292
-146.560	800.000	-0.041	-0.133
-145.545	-200.000	-0.011	0.079
-144.531	68.786	0.079	0.080
-143.516	-200.000	-0.034	-0.512
-142.502	398.060	-0.090	-0.184
-141.487	537.456	-0.033	0.077
-140.472	-11.927	-0.116	-0.075
-139.458	30.688	0.128	-0.107
-138.443	-95.972	0.206	0.054
-137.429	394.266	0.035	0.072
-136.414	-37.349	0.282	0.148
-135.399	-142.039	-0.278	-0.027
-134.385	-68.152	0.450	0.172
-133.370	800.000	-0.086	-0.359
-132.356	10.767	-0.195	-0.146
-131.341	275.377	-0.122	-0.212
-130.326	134.121	0.201	-0.255
-129.312	537.567	0.043	0.101
-128.297	-51.625	0.118	-0.054
-127.283	-200.000	-0.068	0.329
-126.268	800.000	-0.085	0.258
-125.253	800.000	0.028	-0.080
-124.239	-48.843	-0.254	0.119
-123.224	141.250	0.145	-0.188
-122.210	800.000	0.084	-0.313
-121.195	118.860	0.042	-0.051
-120.180	-200.000	0.058	-0.326
-119.166	-92.063	-0.319	0.088
-118.151	419.228	-0.113	-0.237
-117.137	83.356	0.189	0.201
-116.122	-40.878	0.151	-0.076
-115.107	800.000	-0.086	-0.358
-114.093	50.206	-0.170	0.157
-113.078	-146.033	0.176	-0.015
-112.064	52.855	-0.134	0.125
-111.049	-41.315	0.167	0.084
-110.034	-200.000	-0.006	0.052
-109.020	495.449	-0.063	0.142
-108.005	181.465	0.163	-0.234
-106.991	129.051	-0.128	-0.160
-105.976	800.000	0.041	0.155
-104.962	450.177	-0.167	-0.361
-103.947	800.000	0.030	0.121
-102.932	587.551	0.043	-0.102
-101.918	-129.057	0.185	0.025
-100.903	-11.314	-0.105	0.068
-99.889	57.856	0.107	0.102
-98.874	-10.390	-0.200	0.130
-97.859	-82.474	-0.096	-0.030
-96.845	129.744	0.167	-0.209
-95.830	-166.256	0.407	-0.017
-94.816	-200.000	0.008	0.355
-93.801	-8.250	0.048	-0.031
-92.786	-65.007	0.361	-0.143
-91.772	280.822	-0.068	0.119
-90.757	-200.000	0.040	-0.213
-89.743	-56.284	0.300	-0.130
-88.728	29.545	0.211	0.175
-87.713	-200.000	0.045	-0.224
-86.699	-200.000	0.013	0.489
-85.684	800.000	0.057	0.192
-84.670	146.143	0.085	-0.111
-83.655	60.645	0.013	0.013
-82.640	-200.000	-0.019	0.189
-81.626	79.208	-0.057	0.059
-80.611	563.634	-0.094	0.223
-79.597	-37.736	0.094	0.049
-78.582	159.564	0.131	-0.179
-77.567	177.538	0.100	0.142
-76.553	-200.000	0.050	0.214
-75.538	-64.809	0.369	-0.146
-74.524	37.942	-0.237	0.206
-73.509	643.706	0.068	0.169
-72.494	800.000	0.123	-0.352
-71.480	-37.904	0.222	-0.115
-70.465	784.736	0.067	-0.180
-69.451	330.822	-0.053	0.101
-68.436	-127.380	0.109	0.015
-67.422	24.294	0.202	0.163
-66.407	9.323	0.098	0.072
-65.392	238.350	-0.037	0.061
-64.378	-34.380	0.053	-0.029
-63.363	57.522	0.098	-0.094
-62.349	716.481	0.073	0.189
-61.334	59.691	-0.962	-0.927
-60.319	136.804	0.432	0.551
-59.305	551.245	-0.412	-0.967
-58.290	85.974	0.975	1.048
-57.276	800.000	0.373	1.382
-56.261	-200.000	118.837	640.804
-55.246	474.283	1559.992	3436.562
-54.232	172.407	2735.425	3842.915
-53.217	97.879	2296.693	2579.679
-52.203	35.061	1902.821	1627.281
-51.188	29.128	1696.897	1405.978
-50.173	26.702	1656.539	1354.377
-49.159	46.535	1715.531	1554.195
-48.144	45.375	1728.495	1557.055
-47.130	28.640	1684.906	1392.121
-46.115	26.072	1670.572	1360.884
-45.100	25.864	1665.595	1355.208
-44.086	25.959	1662.819	1353.612
-43.071	25.843	1660.690	1350.954
-42.057	25.789	1658.204	1348.474
-41.042	25.843	1656.402	1347.359
-40.027	25.876	1654.021	1345.615
-39.013	25.808	1652.217	1343.587
-37.998	25.753	1651.188	1342.282
-36.984	25.906	1649.198	1341.752
-35.969	25.909	1648.647	1341.274
-34.954	26.020	1646.398	1340.219
-33.940	25.927	1645.434	1338.687
-32.925	25.898	1643.562	1336.896
-31.911	25.960	1641.543	1335.661
-30.896	25.968	1639.405	1333.926
-29.881	25.965	1638.228	1332.893
-28.867	26.049	1636.241	1331.847
-27.852	26.043	1634.697	1330.492
-26.838	26.024	1634.097	1329.812
-25.823	25.999	1632.307	1328.114
-24.809	26.066	1630.812	1327.344
-23.794	26.004	1629.456	1325.730
-22.779	26.126	1627.625	1325.080
-21.765	26.008	1626.360	1323.133
-20.750	26.007	1625.056	1322.016
-19.736	25.983	1623.561	1320.565
-18.721	26.110	1622.071	1320.233
-17.706	26.036	1620.366	1318.256
-16.692	26.077	1618.831	1317.250
-15.677	26.158	1617.443	1316.663
-14.663	26.070	1616.168	1314.931
-13.648	26.087	1614.592	1313.716
-12.633	26.108	1613.108	1312.607
-11.619	26.002	1611.700	1310.639
-10.604	26.027	1610.007	1309.396
-9.590	25.998	1608.871	1308.212
-8.575	26.112	1607.190	1307.617
-7.560	26.028	1606.400	1306.311
-6.546	25.992	1605.275	1305.087
-5.531	26.021	1604.186	1304.359
-4.517	25.990	1602.839	1302.988
-3.502	25.988	1602.246	1302.441
-2.487	26.112	1600.148	1301.577
-1.473	25.734	1588.382	1289.246
-0.458	22.864	1568.965	1253.106
0.556	21.422	1570.473	1221.916
1.571	19.023	1594.177	1223.212
2.586	18.581	1607.094	1229.842
3.600	16.945	1551.811	1176.097
4.615	10.745	1445.229	1055.063
5.629	5.136	1386.167	976.829
6.644	4.083	1378.897	965.061
7.659	4.053	1378.100	964.234
8.673	4.209	1376.904	964.283
9.688	4.115	1375.518	962.638
10.702	4.148	1372.210	960.442
11.717	6.868	1376.520	980.267
12.731	14.130	1390.140	1035.228
13.746	20.748	1401.392	1084.905
14.761	22.575	1403.421	1097.772
15.775	22.133	1401.736	1093.608
16.790	21.123	1399.369	1085.381
17.804	20.430	1397.275	1079.362
18.819	20.129	1396.201	1076.564
19.834	19.997	1395.207	1074.885
20.848	20.018	1394.037	1074.019
21.863	19.908	1392.703	1072.212
22.877	19.747	1391.846	1070.465
23.892	19.732	1390.783	1069.454
24.907	19.715	1389.997	1068.652
25.921	19.652	1389.115	1067.491
26.936	19.697	1387.892	1066.732
27.950	19.729	1386.888	1066.066
28.965	19.859	1386.179	1066.225
29.980	19.823	1385.635	1065.491
30.994	19.985	1384.474	1065.502
32.009	20.061	1383.547	1065.164
33.023	20.030	1382.076	1063.747
34.038	19.988	1380.630	1062.279
35.053	19.805	1379.888	1060.493
36.067	19.875	1378.360	1059.654
37.082	19.901	1377.558	1059.103
38.096	19.929	1376.768	1058.572
39.111	20.032	1375.731	1058.315
40.126	19.825	1374.911	1056.323
41.140	19.551	1373.660	1053.595
42.155	19.330	1373.168	1051.779
43.169	19.411	1372.716	1051.832
44.184	19.380	1372.026	1051.024
45.199	19.478	1371.977	1051.488
46.213	19.588	1371.629	1051.801
47.228	19.754	1371.335	1052.489
48.242	19.765	1370.368	1051.723
49.257	19.790	1368.191	1050.110
50.271	19.742	1367.243	1048.999
51.286	19.703	1366.228	1047.890
52.301	19.701	1364.960	1046.814
53.315	19.617	1363.825	1045.344
54.330	19.453	1362.358	1043.136
55.344	19.399	1361.120	1041.767
56.359	19.374	1359.977	1040.648
57.374	19.360	1359.297	1039.953
58.388	19.237	1358.259	1038.327
59.403	19.259	1358.023	1038.183
60.417	19.308	1357.119	1037.695
61.432	19.133	1356.522	1036.096
62.447	19.083	1355.007	1034.548
63.461	19.069	1353.944	1033.559
64.476	19.105	1352.784	1032.796
65.490	19.106	1351.408	1031.661
66.505	18.983	1350.049	1029.796
67.520	19.044	1349.023	1029.290
68.534	19.121	1347.915	1028.812
69.549	19.135	1346.992	1028.101
70.563	18.949	1345.908	1026.074
71.578	18.863	1344.658	1024.514
72.593	18.739	1343.911	1023.116
73.607	18.840	1343.082	1022.995
74.622	18.849	1342.611	1022.601
75.636	18.800	1342.140	1021.863
76.651	18.903	1341.327	1021.766
77.666	18.942	1340.906	1021.585
78.680	19.090	1340.445	1022.023
79.695	19.197	1339.155	1021.583
80.709	19.178	1338.974	1021.238
81.724	19.351	1338.427	1021.758
82.739	19.483	1337.312	1021.600
83.753	19.630	1336.767	1021.961
84.768	19.768	1335.881	1022.008
85.782	19.856	1335.306	1022.000
86.797	20.027	1333.306	1021.389
87.812	19.724	1332.561	1018.940
88.826	19.724	1331.473	1018.018
89.841	19.797	1330.759	1017.813
90.855	20.023	1329.404	1018.013
91.870	19.941	1329.205	1017.291
92.884	20.086	1327.483	1016.734
93.899	20.044	1327.628	1016.510
94.914	20.054	1326.948	1015.954
95.928	20.065	1325.707	1014.979
96.943	20.103	1324.324	1014.056
97.957	19.985	1323.226	1012.429
98.972	19.878	1323.078	1011.607
99.987	19.921	1321.546	1010.598
101.001	19.868	1321.199	1009.930
102.016	19.975	1319.960	1009.520
103.030	19.931	1318.905	1008.365
104.045	19.886	1317.960	1007.290
105.060	19.735	1316.877	1005.494
106.074	19.456	1315.224	1002.527
107.089	19.169	1313.146	999.185
108.103	18.987	1312.255	997.367
109.118	18.995	1311.251	996.559
110.133	19.106	1309.121	995.498
111.147	19.138	1307.961	994.708
112.162	19.194	1307.145	994.325
113.176	19.333	1305.900	994.089
114.191	19.283	1304.894	992.949
115.206	19.367	1303.304	992.133
116.220	19.264	1302.721	991.010
117.235	19.232	1301.491	989.803
118.249	19.154	1300.614	988.603
119.264	19.072	1299.177	986.951
120.279	19.060	1298.109	985.982
121.293	18.984	1297.155	984.737
122.308	18.928	1295.901	983.380
123.322	18.694	1295.098	981.344
124.337	18.759	1293.741	980.597
125.352	18.823	1292.746	980.123
126.366	18.885	1291.197	979.218
127.381	18.846	1290.462	978.350
128.395	18.843	1289.452	977.480
129.410	18.778	1288.808	976.539
130.424	18.960	1288.084	976.937
131.439	19.092	1287.095	976.850
132.454	19.255	1286.006	976.858
133.468	19.214	1285.446	976.115
134.483	19.255	1284.640	975.651
135.497	19.175	1284.036	974.653
136.512	19.251	1282.554	973.871
137.527	19.241	1281.731	973.104
138.541	19.299	1280.531	972.433
139.556	19.372	1278.930	971.543
140.570	19.565	1278.187	971.977
141.585	19.674	1277.281	971.816
142.600	19.759	1275.883	971.145
143.614	19.802	1275.604	971.087
144.629	19.829	1274.421	970.252
145.643	19.814	1273.291	969.220
146.658	19.642	1271.896	967.110
147.673	19.569	1269.991	965.171
148.687	19.370	1268.849	963.107
149.702	19.292	1267.691	961.707
150.716	19.301	1266.187	960.529
151.731	19.269	1265.200	959.520
152.746	19.343	1263.769	958.761
153.760	19.418	1262.397	958.049
154.775	19.492	1261.774	957.904
155.789	19.609	1261.168	958.006
156.804	19.645	1259.922	957.176
157.819	19.659	1259.201	956.620
158.833	19.826	1258.664	957.052
159.848	19.842	1257.925	956.495
160.862	19.897	1256.443	955.589
161.877	19.486	1255.255	952.331
162.892	19.305	1253.771	950.121
163.906	19.208	1253.000	948.918
164.921	19.311	1251.745	948.452
165.935	19.373	1251.366	948.422
166.950	19.638	1250.264	948.958
167.964	19.515	1249.960	947.972
168.979	19.435	1249.250	946.908
169.994	19.416	1248.538	946.180
171.008	19.477	1247.408	945.572
172.023	19.620	1246.948	945.923
173.037	19.716	1246.375	945.933
174.052	19.759	1245.321	945.281
175.067	19.530	1243.944	942.904
176.081	19.336	1242.976	941.028
177.096	19.314	1242.032	940.109
178.110	19.417	1240.571	939.481
179.125	19.527	1239.555	939.226
180.140	19.448	1238.829	938.167
181.154	19.695	1237.713	938.580
182.169	19.800	1236.182	937.904
183.183	19.760	1235.473	937.069
184.198	19.935	1234.505	937.199
185.213	19.884	1233.053	935.735
186.227	19.839	1232.249	934.800
187.242	20.000	1231.245	934.825
188.256	20.076	1230.048	934.244
189.271	20.116	1229.348	933.843
190.286	19.829	1228.509	931.580
191.300	19.521	1226.932	928.645
192.315	19.268	1226.322	926.739
193.329	19.347	1225.628	926.560
194.344	19.394	1224.963	926.226
195.359	19.542	1224.448	926.550
196.373	19.659	1223.859	926.646
197.388	19.766	1223.999	927.245
198.402	19.949	1223.707	927.925
199.417	20.032	1223.543	928.165
200.432	20.280	1222.665	928.742
201.446	20.457	1221.922	929.041
202.461	20.517	1220.708	928.354
203.475	20.375	1220.758	927.552
204.490	20.165	1218.606	924.717
205.504	19.889	1217.594	922.395
206.519	19.890	1216.077	921.173
207.534	19.890	1214.355	919.785
208.548	19.859	1213.636	918.996
209.563	19.869	1213.148	918.597
210.577	19.831	1212.041	917.476
211.592	19.889	1211.638	917.398
212.607	20.226	1210.934	918.569
213.621	20.268	1209.514	917.632
214.636	20.144	1208.783	916.341
215.650	20.221	1208.030	916.093
216.665	20.302	1207.521	916.057
217.680	20.317	1207.169	915.788
218.694	20.519	1205.806	915.735
219.709	20.387	1205.070	914.399
220.723	20.368	1203.961	913.380
221.738	20.412	1203.313	913.038
222.753	20.299	1202.674	911.879
223.767	20.378	1201.774	911.532
224.782	20.427	1201.579	911.558
225.796	20.607	1201.162	912.104
226.811	20.534	1200.153	910.877
227.826	20.391	1199.274	909.378
228.840	20.248	1198.454	907.930
229.855	20.216	1197.479	906.945
230.869	20.155	1197.176	906.312
231.884	20.111	1196.114	905.200
232.899	20.009	1194.981	903.733
233.913	19.960	1194.403	902.956
234.928	20.013	1193.430	902.416
235.942	19.933	1192.348	901.104
236.957	19.933	1191.784	900.598
237.972	19.942	1191.088	900.041
238.986	20.050	1190.663	900.202
240.001	19.986	1189.530	898.932
241.015	20.078	1188.581	898.614
242.030	20.098	1188.213	898.359
243.045	20.288	1187.561	898.771
244.059	20.230	1186.879	897.872
245.074	20.329	1185.918	897.576
246.088	20.333	1185.494	897.202
247.103	20.586	1184.391	897.594
248.117	20.638	1184.022	897.502
249.132	20.702	1183.868	897.636
250.147	21.039	1183.100	898.711
251.161	21.192	1182.710	899.123
252.176	21.241	1181.765	898.575
253.190	21.232	1181.601	898.325
254.205	21.280	1181.172	898.167
255.220	21.373	1180.265	897.875
256.234	21.354	1179.480	897.101
257.249	21.387	1178.621	896.536
258.263	21.368	1177.753	895.703
259.278	21.219	1177.584	894.729
260.293	21.268	1177.136	894.560
261.307	21.409	1176.324	894.586
262.322	21.574	1175.835	894.979
263.336	21.418	1175.039	893.498
264.351	21.351	1174.938	892.999
265.366	21.562	1173.997	893.280
266.380	21.415	1173.355	891.966
267.395	21.396	1172.322	891.001
268.409	21.185	1171.238	889.024
269.424	21.154	1170.823	888.472
270.439	21.052	1170.391	887.548
271.453	21.039	1169.415	886.662
272.468	20.959	1168.292	885.326
273.482	20.885	1167.673	884.405
274.497	20.760	1167.314	883.419
275.512	20.977	1166.068	883.498
276.526	20.969	1165.342	882.832
277.541	21.021	1164.165	882.124
278.555	21.079	1163.982	882.201
279.570	21.304	1163.494	882.890
280.585	21.417	1162.964	882.978
281.599	21.516	1161.723	882.460
282.614	21.196	1160.647	879.949
283.628	21.028	1159.390	878.076
284.643	21.021	1158.461	877.259
285.657	21.074	1157.674	876.852
286.672	21.140	1157.054	876.635
287.687	21.156	1155.821	875.704
288.701	21.176	1154.975	875.087
289.716	21.189	1153.985	874.325
290.730	21.133	1153.470	873.576
291.745	21.222	1153.229	873.760
292.760	21.220	1152.709	873.277
293.774	21.298	1152.306	873.287
294.789	21.454	1151.620	873.467
295.803	21.447	1150.825	872.752
296.818	21.325	1149.841	871.320
297.833	21.324	1148.938	870.555
298.847	21.153	1148.493	869.290
299.862	21.293	1146.994	868.774
300.876	21.338	1146.762	868.748
301.891	21.420	1146.260	868.693
302.906	21.508	1145.946	868.815
303.920	21.578	1145.534	868.774
304.935	21.876	1144.298	869.239
305.949	21.870	1144.192	869.050
306.964	21.847	1143.311	868.189
307.979	21.629	1142.908	866.732
308.993	21.538	1141.830	865.386
310.008	21.661	1140.965	865.263
311.022	21.747	1140.675	865.387
312.037	21.710	1139.415	864.175
313.052	21.538	1138.343	862.437
314.066	21.441	1137.128	860.964
315.081	21.119	1136.375	858.735
316.095	21.117	1135.812	858.221
317.110	21.197	1135.080	857.985
318.125	21.210	1133.751	856.967
319.139	21.181	1133.425	856.502
320.154	21.222	1132.646	856.039
321.168	21.319	1131.965	855.925
322.183	21.302	1131.484	855.403
323.197	21.344	1131.170	855.293
324.212	21.318	1130.521	854.603
325.227	21.464	1129.939	854.799
326.241	21.424	1129.206	853.976
327.256	21.465	1128.147	853.296
328.270	21.277	1127.136	851.540
329.285	21.423	1126.173	851.449
330.300	21.323	1125.628	850.473
331.314	21.326	1124.649	849.676
332.329	21.425	1123.344	849.095
333.343	21.403	1122.810	848.508
334.358	21.678	1121.735	848.955
335.373	21.630	1121.479	848.452
336.387	21.706	1120.965	848.355
337.402	21.732	1120.295	847.899
338.416	21.807	1119.608	847.666
339.431	21.894	1119.204	847.709
340.446	21.965	1118.368	847.344
341.460	22.074	1118.022	847.533
342.475	22.314	1116.978	847.823
343.489	22.231	1116.247	846.790
344.504	22.342	1115.328	846.554
345.519	22.413	1114.757	846.387
346.533	22.384	1114.038	845.628
347.548	22.575	1113.110	845.763
348.562	22.382	1112.286	844.139
349.577	22.076	1111.210	841.780
350.592	21.833	1110.471	839.983
351.606	21.848	1109.262	839.065
352.621	21.688	1108.574	837.706
353.635	21.717	1107.868	837.238
354.650	21.720	1107.150	836.636
355.665	21.764	1106.847	836.542
356.679	21.739	1106.291	835.926
357.694	21.807	1106.037	835.984
358.708	22.114	1104.962	836.562
359.723	22.014	1104.312	835.517
360.738	22.084	1103.799	835.391
361.752	21.892	1103.005	833.803
362.767	22.043	1102.323	833.930
363.781	22.107	1101.721	833.707
364.796	22.250	1101.459	834.114
365.810	22.360	1101.481	834.578
366.825	22.507	1100.999	834.835
367.840	22.704	1100.308	835.168
368.854	22.814	1099.729	835.175
369.869	22.658	1099.209	833.971
370.883	22.629	1097.689	832.604
371.898	22.459	1097.000	831.208
372.913	22.459	1096.344	830.639
373.927	22.488	1095.937	830.393
374.942	22.697	1094.993	830.586
375.956	22.649	1094.779	830.126
376.971	22.491	1094.114	828.805
377.986	22.624	1094.043	829.304
379.000	22.759	1093.363	829.348
380.015	22.789	1092.624	828.856
381.029	22.899	1092.173	828.956
382.044	22.800	1091.568	827.961
383.059	22.860	1090.341	827.236
384.073	22.729	1089.849	826.175
385.088	22.761	1089.320	825.850
386.102	22.894	1088.008	825.404
387.117	22.727	1086.359	823.304
388.132	22.453	1085.366	821.197
389.146	22.339	1084.849	820.205
390.161	22.460	1083.755	819.868
391.175	22.453	1083.347	819.455
392.190	22.539	1082.725	819.312
393.205	22.744	1081.909	819.572
394.219	22.704	1081.483	818.992
395.234	22.595	1080.089	817.360
396.248	22.484	1079.198	816.100
397.263	22.462	1078.377	815.301
398.278	22.401	1077.380	814.197
399.292	22.194	1076.867	812.779
400.307	22.156	1075.915	811.812
401.321	22.169	1075.128	811.205
402.336	22.153	1074.771	810.793
403.350	22.197	1073.694	810.110
404.365	22.305	1073.745	810.576
405.380	22.380	1073.013	810.295
406.394	22.512	1072.093	810.137
407.409	22.611	1071.532	810.098
408.423	22.783	1071.058	810.456
409.438	22.982	1069.919	810.434
410.453	23.012	1069.557	810.229
411.467	23.006	1069.115	809.792
412.482	23.095	1068.180	809.421
413.496	23.108	1067.685	809.032
414.511	23.229	1067.187	809.136
415.526	23.352	1066.909	809.415
416.540	23.411	1066.580	809.364
417.555	23.241	1065.858	807.971
418.569	23.217	1065.239	807.321
419.584	23.154	1064.751	806.588
420.599	23.251	1064.291	806.612
421.613	158.089	1405.323	1797.550
422.628	145.502	1454.990	1797.632
