DTS Sentinel unit serial number:	SN413079Multiplexer serial number:	ORYXHardware model number:	OX4-SRSoftware version number:	ORYX F/W v4.00 Oryx Data Collector v3.7.2.0data status	okinstallation	princeton_trtdifferential loss correction	single-endedforward channel	channel 2reverse channel	N/Adate	2019/09/18time	21:19:35forward acquisition time	60.00reverse acquisition time	0.00gamma	496.2192k internal	0.2344k external	0.2344temperature offset calibration	1.0023default loss term (dB/km)	0.3790temperature slope calibration	1.0000multiplexer offset coefficient	1.0000multiplexer slope coefficient	1.0000fibre end	0.00T internal ref (°C)	25.67T ext. ref 1 (°C)	0.84T ext. ref 2 (°C)	18.04length (m)	temperature (°C)	Stokes	anti-Stokes-747.200	-117.156	-0.280	-0.051
-746.185	-182.409	0.121	-0.002
-745.171	37.798	-0.104	-0.093
-744.156	-74.868	0.269	-0.097
-743.142	800.000	-0.111	-0.311
-742.127	344.406	-0.065	-0.127
-741.112	678.145	-0.133	0.345
-740.098	-200.000	0.000	0.678
-739.083	409.372	-0.061	0.130
-738.069	236.624	0.203	0.336
-737.054	220.166	0.088	0.142
-736.039	-66.112	0.081	0.032
-735.025	185.295	0.098	-0.146
-734.010	-200.000	0.083	-0.535
-732.996	-34.944	-0.210	0.115
-731.981	-21.985	0.193	0.117
-730.966	293.860	0.116	0.212
-729.952	-39.788	0.118	-0.062
-728.937	-52.101	0.078	0.036
-727.923	-42.543	-0.240	-0.122
-726.908	800.000	0.049	-0.193
-725.894	-200.000	-0.051	-0.292
-724.879	318.325	0.099	-0.187
-723.864	-200.000	-0.008	-0.136
-722.850	-24.408	0.251	0.150
-721.835	-151.185	0.037	0.003
-720.821	13.892	-0.232	-0.181
-719.806	-118.943	0.144	0.025
-718.791	-130.757	0.077	-0.010
-717.777	10.143	-0.199	0.151
-716.762	-54.208	0.398	-0.181
-715.748	251.571	-0.116	-0.198
-714.733	-27.894	0.156	0.090
-713.718	-83.962	-0.215	-0.068
-712.704	-8.449	-0.299	-0.201
-711.689	800.000	0.050	0.184
-710.675	14.105	-0.146	0.114
-709.660	800.000	-0.125	-0.445
-708.645	-47.471	0.213	0.103
-707.631	-200.000	0.007	0.209
-706.616	206.207	-0.145	-0.225
-705.602	-200.000	0.011	0.108
-704.587	-163.161	-0.220	0.011
-703.572	376.766	0.070	-0.142
-702.558	88.103	0.090	0.100
-701.543	-200.000	-0.038	0.227
-700.529	-200.000	0.080	-0.000
-699.514	-123.012	0.150	-0.024
-698.499	-50.665	-0.163	-0.077
-697.485	-15.559	-0.066	0.042
-696.470	304.203	-0.061	0.114
-695.456	212.997	0.148	-0.233
-694.441	-22.643	0.124	-0.075
-693.426	256.418	0.023	-0.039
-692.412	410.122	-0.121	-0.255
-691.397	631.825	0.071	-0.179
-690.383	-130.715	-0.196	-0.026
-689.368	367.925	0.131	-0.264
-688.354	191.532	0.300	0.451
-687.339	270.184	0.093	-0.163
-686.324	-61.712	-0.203	-0.085
-685.310	-26.648	-0.158	-0.092
-684.295	23.176	0.184	0.151
-683.281	730.625	-0.052	-0.139
-682.266	-173.415	0.434	0.013
-681.251	-121.083	0.108	0.018
-680.237	-26.027	-0.452	0.265
-679.222	217.872	-0.085	0.135
-678.208	359.903	-0.099	-0.198
-677.193	-172.737	-0.205	-0.006
-676.178	-134.710	-0.091	0.011
-675.164	223.840	0.103	0.166
-674.149	-127.107	0.067	0.010
-673.135	168.084	-0.015	0.021
-672.120	-70.059	0.363	-0.138
-671.105	416.219	0.071	0.151
-670.091	800.000	0.163	0.488
-669.076	519.253	0.061	0.142
-668.062	-111.737	-0.193	0.039
-667.047	485.591	-0.020	-0.045
-666.032	-77.741	-0.207	-0.071
-665.018	-200.000	0.040	0.405
-664.003	-11.520	0.138	0.091
-662.989	34.735	-0.028	0.024
-661.974	-153.856	-0.166	0.011
-660.959	306.673	0.080	0.149
-659.945	-200.000	0.002	-0.268
-658.930	-82.318	-0.200	0.065
-657.916	171.819	0.032	0.045
-656.901	36.823	-0.159	-0.140
-655.886	-200.000	-0.025	-0.137
-654.872	145.812	0.109	-0.145
-653.857	-61.833	0.053	-0.022
-652.843	703.624	0.020	-0.051
-651.828	-200.000	0.032	-0.288
-650.814	800.000	-0.032	-0.126
-649.799	-22.987	-0.099	-0.060
-648.784	-119.537	-0.211	0.036
-647.770	58.482	-0.166	-0.163
-646.755	-200.000	-0.030	0.152
-645.741	117.545	0.299	0.367
-644.726	-200.000	-0.027	-0.157
-643.711	13.580	-0.371	-0.287
-642.697	-111.596	-0.270	-0.055
-641.682	800.000	-0.003	-0.009
-640.668	-200.000	-0.017	0.129
-639.653	116.195	-0.104	0.127
-638.638	-200.000	0.001	0.161
-637.624	315.275	-0.029	0.054
-636.609	-83.576	0.361	0.115
-635.595	144.612	-0.157	-0.210
-634.580	-166.971	0.069	0.003
-633.565	0.907	0.256	-0.183
-632.551	-144.130	-0.115	-0.011
-631.536	141.308	0.120	0.159
-630.522	79.320	-0.316	0.338
-629.507	800.000	-0.075	-0.258
-628.492	274.844	0.191	-0.338
-627.478	-133.376	-0.262	-0.033
-626.463	-95.686	0.291	0.078
-625.449	65.065	-0.246	-0.248
-624.434	-153.546	0.207	-0.014
-623.419	15.705	-0.192	0.150
-622.405	396.692	0.051	-0.107
-621.390	-200.000	-0.005	0.218
-620.376	800.000	-0.031	-0.098
-619.361	-59.581	0.090	-0.039
-618.346	723.540	0.135	-0.357
-617.332	-200.000	0.044	-0.272
-616.317	-159.317	0.385	0.021
-615.303	-91.437	-0.266	0.076
-614.288	-44.684	-0.142	0.070
-613.273	147.226	0.190	0.254
-612.259	800.000	-0.035	0.118
-611.244	11.500	-0.107	0.081
-610.230	800.000	0.020	-0.081
-609.215	-143.966	-0.172	-0.016
-608.201	-110.592	-0.193	-0.040
-607.186	148.515	-0.178	-0.240
-606.171	-73.497	0.106	0.039
-605.157	303.549	0.111	-0.206
-604.142	-85.503	0.286	-0.089
-603.128	-200.000	-0.016	-0.137
-602.113	-99.660	0.064	0.016
-601.098	-56.637	-0.260	0.115
-600.084	-39.843	0.174	0.091
-599.069	-200.000	-0.036	-0.315
-598.055	-27.881	0.257	-0.148
-597.040	-114.964	-0.181	-0.034
-596.025	800.000	0.060	-0.169
-595.011	-80.756	0.166	-0.055
-593.996	-200.000	-0.013	-0.128
-592.982	75.419	-0.092	0.096
-591.967	88.955	-0.213	-0.236
-590.952	-135.587	0.230	0.027
-589.938	68.586	-0.095	-0.097
-588.923	-200.000	-0.069	-0.507
-587.909	445.913	0.079	-0.172
-586.894	-80.536	-0.304	-0.101
-585.879	-58.871	0.344	0.148
-584.865	-139.292	0.145	0.015
-583.850	-70.691	-0.125	0.047
-582.836	800.000	-0.142	0.448
-581.821	-200.000	0.047	0.214
-580.806	634.993	0.040	0.101
-579.792	-180.629	-0.466	-0.010
-578.777	-200.000	0.020	0.302
-577.763	437.449	-0.096	0.209
-576.748	728.076	-0.048	-0.127
-575.733	30.182	0.120	0.102
-574.719	-106.640	-0.287	-0.064
-573.704	-109.834	0.297	-0.062
-572.690	-70.611	-0.161	0.061
-571.675	232.315	0.166	-0.271
-570.661	-3.325	0.080	-0.055
-569.646	-65.827	0.032	-0.013
-568.631	-43.223	0.103	-0.052
-567.617	66.265	-0.153	0.155
-566.602	66.943	-0.166	0.168
-565.588	800.000	0.112	0.358
-564.573	800.000	0.101	-0.296
-563.558	81.133	-0.261	0.280
-562.544	-200.000	0.015	-0.122
-561.529	-69.550	-0.155	0.059
-560.515	-13.067	0.170	-0.110
-559.500	-200.000	-0.019	-0.181
-558.485	-156.090	0.242	-0.015
-557.471	-50.543	0.398	-0.187
-556.456	-200.000	0.005	-0.292
-555.442	-167.647	0.353	0.014
-554.427	25.016	-0.378	-0.312
-553.412	-112.533	0.190	0.038
-552.398	-91.538	-0.177	-0.050
-551.383	55.432	-0.177	0.171
-550.369	-189.742	-0.320	-0.004
-549.354	345.774	-0.116	0.226
-548.339	800.000	0.049	-0.180
-547.325	-10.057	0.020	-0.013
-546.310	20.488	0.119	0.096
-545.296	51.646	-0.126	0.119
-544.281	800.000	0.077	-0.268
-543.266	87.964	0.196	-0.216
-542.252	-90.731	0.133	0.038
-541.237	402.306	-0.041	0.085
-540.223	-200.000	-0.018	0.213
-539.208	198.088	-0.110	0.168
-538.193	213.175	-0.159	-0.249
-537.179	212.730	0.047	-0.073
-536.164	-200.000	0.010	0.203
-535.150	487.589	0.029	-0.066
-534.135	-48.422	0.222	0.106
-533.121	95.158	0.213	-0.241
-532.106	-200.000	-0.007	-0.149
-531.091	515.621	0.099	0.229
-530.077	101.071	-0.102	-0.118
-529.062	800.000	-0.047	0.145
-528.048	-200.000	0.044	-0.220
-527.033	-79.604	0.326	-0.109
-526.018	-132.578	0.195	-0.025
-525.004	45.159	-0.152	0.139
-523.989	56.018	0.168	0.162
-522.975	-60.699	-0.222	0.093
-521.960	223.228	-0.157	-0.251
-520.945	25.090	0.017	0.014
-519.931	-87.734	-0.107	0.032
-518.916	-96.442	0.301	-0.079
-517.902	800.000	-0.029	0.096
-516.887	-23.325	-0.305	-0.182
-515.872	124.100	0.152	0.190
-514.858	-108.199	-0.137	0.029
-513.843	-200.000	0.023	-0.110
-512.829	50.634	-0.147	-0.138
-511.814	-83.758	-0.543	-0.172
-510.799	-8.732	0.170	0.113
-509.785	590.252	0.091	-0.223
-508.770	-36.039	-0.269	0.144
-507.756	-25.456	-0.146	0.085
-506.741	744.288	0.052	0.140
-505.726	-70.956	-0.122	-0.046
-504.712	36.771	-0.089	0.078
-503.697	-119.052	-0.245	0.042
-502.683	-122.827	-0.200	-0.032
-501.668	-133.003	-0.262	-0.033
-500.653	-2.567	-0.258	0.179
-499.639	-25.264	-0.474	-0.278
-498.624	-200.000	0.072	-0.347
-497.610	33.887	-0.281	0.243
-496.595	-200.000	0.011	0.183
-495.581	-200.000	0.011	-0.245
-494.566	-45.998	-0.206	0.101
-493.551	800.000	0.046	-0.127
-492.537	800.000	0.067	0.230
-491.522	427.690	0.026	-0.056
-490.508	-135.951	-0.281	-0.033
-489.493	107.690	0.141	-0.166
-488.478	-165.792	0.104	0.004
-487.464	423.757	0.028	-0.060
-486.449	606.973	0.107	0.265
-485.435	-200.000	-0.057	0.401
-484.420	-5.954	0.078	0.053
-483.405	-72.832	-0.269	0.098
-482.391	-150.207	-0.218	0.017
-481.376	-185.532	0.428	0.006
-480.362	800.000	-0.083	-0.266
-479.347	-123.419	-0.209	-0.033
-478.332	-200.000	-0.040	-0.309
-477.318	314.859	-0.022	-0.041
-476.303	-52.699	-0.153	-0.070
-475.289	-43.979	0.333	0.166
-474.274	-54.894	-0.043	-0.019
-473.259	-41.180	-0.265	0.136
-472.245	148.452	-0.127	0.170
-471.230	87.617	0.157	0.172
-470.216	-200.000	0.003	0.035
-469.201	800.000	0.027	-0.082
-468.186	247.277	0.030	-0.050
-467.172	-30.167	0.090	-0.051
-466.157	38.334	-0.077	-0.067
-465.143	-90.682	0.047	0.013
-464.128	-200.000	0.022	-0.155
-463.113	-34.875	-0.187	0.101
-462.099	-63.515	0.131	-0.053
-461.084	281.068	0.161	-0.286
-460.070	-181.890	0.024	-0.000
-459.055	-152.678	0.192	-0.014
-458.040	-200.000	0.000	-0.128
-457.026	-79.449	0.224	-0.075
-456.011	-132.134	0.069	0.009
-454.997	138.556	-0.081	-0.105
-453.982	146.416	0.142	-0.188
-452.968	178.942	0.167	-0.241
-451.953	7.966	0.121	-0.090
-450.938	-200.000	-0.006	-0.040
-449.924	-200.000	-0.018	0.192
-448.909	-200.000	0.004	-0.058
-447.895	-72.321	-0.157	-0.058
-446.880	601.865	0.193	-0.475
-445.865	-133.315	0.302	0.038
-444.851	-94.998	0.118	-0.032
-443.836	620.408	0.061	0.153
-442.822	1.428	-0.204	0.145
-441.807	800.000	-0.141	0.558
-440.792	354.486	-0.176	-0.346
-439.778	-113.830	-0.271	-0.052
-438.763	164.622	-0.128	-0.178
-437.749	-200.000	-0.051	0.313
-436.734	-29.849	0.131	0.074
-435.719	50.573	0.097	-0.090
-434.705	-110.151	0.116	0.024
-433.690	-200.000	0.003	0.120
-432.676	-200.000	0.060	0.303
-431.661	258.158	0.229	0.389
-430.646	-107.673	0.178	0.038
-429.632	-200.000	0.007	0.193
-428.617	-200.000	0.047	0.481
-427.603	-68.283	-0.360	0.138
-426.588	250.179	0.103	0.172
-425.573	109.835	0.145	-0.172
-424.559	800.000	0.067	-0.231
-423.544	-145.692	0.336	-0.030
-422.530	-54.800	-0.324	-0.145
-421.515	55.068	0.182	0.173
-420.500	-200.000	-0.015	-0.144
-419.486	7.940	-0.189	0.140
-418.471	176.643	-0.157	-0.225
-417.457	530.059	0.052	-0.122
-416.442	163.961	0.055	0.076
-415.428	-27.810	-0.312	-0.179
-414.413	-83.674	-0.017	-0.005
-413.398	132.283	0.117	-0.149
-412.384	232.689	0.117	-0.190
-411.369	767.307	0.069	0.186
-410.355	-200.000	-0.071	0.426
-409.340	-23.867	-0.064	0.038
-408.325	-87.273	-0.201	-0.060
-407.311	-119.119	0.295	-0.051
-406.296	-97.836	-0.178	-0.045
-405.282	-97.250	0.161	0.042
-404.267	710.975	-0.071	-0.186
-403.252	-82.517	-0.060	-0.019
-402.238	1.364	0.155	0.110
-401.223	-200.000	-0.026	-0.157
-400.209	-177.232	0.330	-0.008
-399.194	187.420	0.163	-0.241
-398.179	-200.000	-0.033	-0.192
-397.165	-90.939	-0.158	-0.045
-396.150	281.974	0.067	0.118
-395.136	-14.768	-0.165	0.105
-394.121	242.110	0.035	-0.058
-393.106	218.889	0.051	-0.080
-392.092	-8.314	0.175	0.116
-391.077	800.000	-0.066	0.207
-390.063	219.255	0.140	0.222
-389.048	-200.000	-0.035	-0.412
-388.033	-200.000	-0.021	-0.107
-387.019	-89.881	-0.071	0.020
-386.004	397.664	-0.073	0.150
-384.990	107.368	-0.137	-0.160
-383.975	211.238	-0.130	-0.203
-382.960	16.066	-0.276	0.214
-381.946	69.345	0.105	0.107
-380.931	-22.433	-0.218	-0.131
-379.917	-113.458	-0.282	0.054
-378.902	151.726	0.141	0.190
-377.888	75.332	-0.177	0.185
-376.873	-200.000	-0.054	-0.360
-375.858	30.047	-0.297	-0.250
-374.844	-127.296	-0.323	-0.046
-373.829	47.776	0.297	-0.273
-372.815	143.737	-0.070	0.092
-371.800	13.494	-0.169	0.129
-370.785	800.000	0.112	-0.318
-369.771	1.189	0.292	0.207
-368.756	-119.220	0.217	0.037
-367.742	-104.882	-0.245	-0.055
-366.727	432.652	-0.160	-0.341
-365.712	-37.325	0.188	-0.099
-364.698	-200.000	0.002	-0.121
-363.683	-80.791	-0.145	-0.048
-362.669	-70.427	-0.116	-0.043
-361.654	-180.237	-0.175	0.004
-360.639	-200.000	0.002	0.054
-359.625	-200.000	0.071	0.321
-358.610	390.598	0.111	-0.227
-357.596	-20.400	0.255	-0.155
-356.581	-21.272	0.104	0.063
-355.566	18.724	0.174	-0.138
-354.552	330.214	-0.092	0.174
-353.537	278.454	-0.006	0.011
-352.523	800.000	0.024	-0.105
-351.508	800.000	-0.053	0.177
-350.493	106.734	-0.084	0.098
-349.479	97.137	0.025	0.028
-348.464	800.000	-0.069	-0.211
-347.450	-143.479	-0.133	-0.013
-346.435	630.139	0.072	-0.180
-345.420	-181.514	0.537	-0.010
-344.406	541.487	-0.035	-0.081
-343.391	-200.000	0.009	-0.085
-342.377	-60.576	-0.399	-0.167
-341.362	-50.546	0.209	0.097
-340.348	535.439	-0.100	0.234
-339.333	59.906	-0.231	0.225
-338.318	-14.492	-0.245	0.155
-337.304	-77.875	-0.227	0.077
-336.289	-6.092	0.183	-0.123
-335.275	-151.576	0.168	-0.012
-334.260	148.558	-0.154	0.205
-333.245	-77.420	0.290	0.099
-332.231	-20.549	-0.168	-0.102
-331.216	274.379	-0.074	-0.129
-330.202	-200.000	-0.030	-0.258
-329.187	-96.627	0.321	-0.083
-328.172	-200.000	-0.012	0.177
-327.158	-200.000	0.027	0.223
-326.143	-200.000	0.016	0.243
-325.129	56.562	-0.113	0.108
-324.114	-39.185	0.182	0.094
-323.099	-7.966	0.046	-0.031
-322.085	57.878	0.150	-0.145
-321.070	-200.000	-0.069	-0.348
-320.056	-200.000	-0.023	-0.171
-319.041	-26.432	0.236	0.136
-318.026	144.000	-0.119	0.156
-317.012	13.455	0.200	0.153
-315.997	-74.077	-0.418	-0.149
-314.983	19.244	0.279	-0.221
-313.968	-200.000	-0.003	-0.228
-312.953	107.720	0.176	0.206
-311.939	800.000	-0.037	0.155
-310.924	51.563	0.218	0.204
-309.910	800.000	-0.063	0.257
-308.895	93.906	0.176	-0.196
-307.880	800.000	-0.068	-0.248
-306.866	-5.852	0.190	-0.128
-305.851	186.140	-0.124	-0.181
-304.837	47.178	-0.136	-0.124
-303.822	-58.243	0.210	-0.090
-302.807	-95.266	-0.088	0.023
-301.793	-22.006	0.260	0.156
-300.778	-200.000	-0.007	0.458
-299.764	228.034	-0.173	-0.278
-298.749	-109.777	0.239	-0.049
-297.735	800.000	0.052	0.177
-296.720	-200.000	-0.003	0.158
-295.705	311.548	0.252	0.464
-294.691	-64.333	-0.333	-0.133
-293.676	217.386	0.096	0.150
-292.662	-80.756	0.242	0.079
-291.647	448.318	-0.147	0.319
-290.632	20.911	0.165	-0.132
-289.618	800.000	-0.053	0.200
-288.603	-115.753	0.196	-0.036
-287.589	-134.277	-0.509	-0.062
-286.574	122.001	-0.191	-0.235
-285.559	3.475	0.265	-0.190
-284.545	90.012	-0.135	-0.149
-283.530	-67.974	0.211	-0.081
-282.516	422.518	0.111	0.233
-281.501	-114.457	-0.148	0.028
-280.486	8.546	-0.145	-0.107
-279.472	43.740	0.201	-0.181
-278.457	99.332	0.104	-0.119
-277.443	-200.000	0.005	-0.063
-276.428	475.212	0.090	0.199
-275.413	144.055	0.103	-0.135
-274.399	274.371	0.102	-0.177
-273.384	-92.460	0.212	-0.059
-272.370	-98.684	-0.104	0.026
-271.355	-200.000	0.044	0.259
-270.340	52.940	-0.067	-0.063
-269.326	-200.000	0.042	0.202
-268.311	50.051	0.161	0.149
-267.297	-22.630	0.231	-0.137
-266.282	-27.509	-0.178	0.102
-265.267	800.000	0.019	-0.057
-264.253	10.087	-0.145	-0.108
-263.238	790.439	0.050	-0.136
-262.224	-200.000	-0.022	0.143
-261.209	800.000	-0.046	-0.156
-260.195	-49.276	0.258	0.121
-259.180	-48.072	-0.223	0.106
-258.165	-23.572	0.080	0.047
-257.151	-200.000	-0.021	0.172
-256.136	402.808	0.106	0.219
-255.122	328.097	-0.253	0.477
-254.107	-160.206	-0.191	-0.010
-253.092	183.413	0.247	-0.358
-252.078	-200.000	-0.028	0.154
-251.063	-53.474	-0.122	0.055
-250.049	-200.000	-0.007	0.035
-249.034	-200.000	0.006	-0.158
-248.019	312.628	0.129	-0.237
-247.005	800.000	-0.049	-0.205
-245.990	-178.924	-0.351	0.008
-244.976	137.903	0.142	0.183
-243.961	800.000	0.047	0.136
-242.946	197.368	-0.046	0.070
-241.932	-200.000	0.009	-0.207
-240.917	-173.557	-0.106	-0.003
-239.903	-200.000	-0.012	-0.087
-238.888	800.000	-0.098	-0.322
-237.873	-39.582	0.325	-0.167
-236.859	-200.000	-0.015	0.167
-235.844	-200.000	0.080	0.434
-234.830	-200.000	-0.005	-0.314
-233.815	-188.320	-0.221	0.003
-232.800	-96.446	0.321	0.083
-231.786	-200.000	-0.028	0.139
-230.771	-117.247	-0.284	0.051
-229.757	-56.545	-0.146	0.064
-228.742	45.926	0.130	0.118
-227.727	-200.000	0.049	-0.255
-226.713	205.364	0.144	-0.220
-225.698	-86.838	-0.221	0.066
-224.684	-7.500	0.378	0.251
-223.669	-56.741	-0.353	0.153
-222.655	88.208	0.085	0.093
-221.640	-29.461	0.541	-0.303
-220.625	76.258	-0.051	-0.053
-219.611	-200.000	-0.025	-0.378
-218.596	-200.000	0.001	-0.370
-217.582	-109.735	0.105	0.022
-216.567	-87.897	-0.142	0.042
-215.552	178.311	0.154	0.220
-214.538	130.700	-0.120	0.151
-213.523	-137.499	0.272	-0.030
-212.509	-200.000	-0.044	0.302
-211.494	274.563	-0.187	0.325
-210.479	-200.000	-0.000	0.037
-209.465	722.135	0.095	0.248
-208.450	-65.373	0.297	0.117
-207.436	751.500	0.092	-0.244
-206.421	-173.761	-0.330	0.010
-205.406	22.334	-0.240	0.192
-204.392	191.679	0.058	0.085
-203.377	-200.000	0.012	-0.078
-202.363	297.727	-0.039	0.071
-201.348	-116.431	-0.249	0.045
-200.333	354.391	0.090	-0.174
-199.319	-25.124	-0.147	0.086
-198.304	-53.531	-0.113	-0.051
-197.290	59.302	0.106	-0.102
-196.275	-185.517	0.260	-0.004
-195.260	275.947	-0.192	0.334
-194.246	24.602	-0.029	-0.023
-193.231	12.030	-0.235	-0.177
-192.217	-56.809	0.353	-0.153
-191.202	11.233	0.049	0.036
-190.187	-60.147	0.120	-0.050
-189.173	-197.396	0.182	-0.001
-188.158	-200.000	0.030	0.166
-187.144	67.477	-0.042	0.042
-186.129	800.000	-0.179	-0.652
-185.114	94.294	0.121	0.134
-184.100	410.447	0.068	-0.142
-183.085	-135.868	0.123	0.014
-182.071	506.071	-0.084	-0.191
-181.056	-200.000	-0.037	0.348
-180.042	-73.321	-0.037	0.013
-179.027	-19.169	0.125	0.076
-178.012	86.740	-0.090	-0.098
-176.998	55.375	0.298	0.282
-175.983	71.128	0.009	0.009
-174.969	27.328	-0.155	-0.128
-173.954	-45.291	0.291	0.142
-172.939	800.000	-0.060	0.204
-171.925	97.388	-0.153	0.172
-170.910	549.094	0.135	0.318
-169.896	-117.777	0.030	0.005
-168.881	-200.000	0.005	0.396
-167.866	55.761	-0.191	0.181
-166.852	-160.940	0.169	-0.009
-165.837	587.299	-0.053	-0.129
-164.823	272.293	-0.067	0.116
-163.808	-59.279	-0.331	-0.140
-162.793	-18.712	0.406	-0.247
-161.779	800.000	0.107	-0.314
-160.764	-64.028	0.257	0.103
-159.750	271.874	-0.049	0.085
-158.735	590.649	0.046	-0.112
-157.720	13.217	0.359	0.272
-156.706	231.398	-0.300	0.481
-155.691	633.263	0.036	0.090
-154.677	-16.632	0.054	0.033
-153.662	-4.423	0.066	0.044
-152.647	567.813	-0.144	0.342
-151.633	800.000	-0.038	0.140
-150.618	-63.416	0.436	-0.176
-149.604	-120.896	0.284	-0.047
-148.589	-200.000	-0.032	0.174
-147.574	-118.241	0.321	0.056
-146.560	800.000	0.059	0.242
-145.545	-76.023	0.235	0.081
-144.531	92.897	-0.145	-0.160
-143.516	-200.000	-0.055	-0.318
-142.502	382.673	-0.210	0.422
-141.487	-21.561	0.279	0.166
-140.472	-200.000	-0.044	-0.387
-139.458	218.485	0.139	-0.216
-138.443	122.114	0.095	0.116
-137.429	-200.000	-0.004	0.136
-136.414	74.703	0.099	0.102
-135.399	248.040	0.176	0.292
-134.385	-200.000	-0.025	-0.214
-133.370	69.869	0.148	0.149
-132.356	-81.900	0.153	-0.049
-131.341	258.668	-0.161	-0.271
-130.326	715.653	-0.102	0.265
-129.312	-37.993	0.054	0.028
-128.297	800.000	0.044	0.162
-127.283	-76.466	-0.285	-0.098
-126.268	-31.089	0.130	-0.072
-125.253	-200.000	0.001	0.116
-124.239	49.618	-0.132	0.121
-123.224	-36.686	0.358	0.188
-122.210	-1.671	0.142	0.098
-121.195	783.501	-0.203	-0.544
-120.180	-200.000	0.020	-0.239
-119.166	-122.429	0.012	0.002
-118.151	-133.613	-0.246	-0.030
-117.137	-5.161	0.272	-0.183
-116.122	-150.796	0.349	0.026
-115.107	520.140	-0.095	0.217
-114.093	363.768	-0.164	0.322
-113.078	126.401	0.059	-0.073
-112.064	-200.000	0.011	0.184
-111.049	-51.757	-0.291	-0.132
-110.034	-67.354	0.098	0.038
-109.020	-109.842	-0.009	0.002
-108.005	-200.000	-0.016	0.286
-106.991	46.158	-0.279	-0.252
-105.976	79.542	0.175	0.183
-104.962	419.909	-0.039	0.082
-103.947	-200.000	-0.020	-0.107
-102.932	-2.998	0.146	0.099
-101.918	-5.539	-0.239	-0.160
-100.903	207.896	-0.163	0.248
-99.889	800.000	0.082	0.222
-98.874	-28.398	0.048	0.027
-97.859	10.029	-0.201	0.149
-96.845	-165.988	-0.196	-0.008
-95.830	284.235	0.239	0.420
-94.816	221.562	-0.018	0.029
-93.801	800.000	-0.040	0.152
-92.786	90.048	0.118	0.128
-91.772	800.000	0.109	0.401
-90.757	103.351	-0.207	-0.236
-89.743	19.898	-0.266	0.209
-88.728	-200.000	-0.005	-0.259
-87.713	41.658	0.179	0.158
-86.699	-200.000	0.068	-0.330
-85.684	219.697	-0.080	0.124
-84.670	66.744	0.145	0.144
-83.655	-200.000	-0.021	0.181
-82.640	800.000	0.064	0.206
-81.626	89.286	0.085	0.093
-80.611	386.459	0.086	-0.172
-79.597	-197.688	0.336	0.002
-78.582	-200.000	-0.006	-0.124
-77.567	11.625	-0.309	-0.231
-76.553	8.320	-0.110	-0.081
-75.538	800.000	-0.060	0.185
-74.524	95.065	0.168	-0.187
-73.509	800.000	-0.119	0.365
-72.494	-57.638	0.035	-0.015
-71.480	107.300	-0.100	0.115
-70.465	-14.157	-0.175	-0.110
-69.451	-200.000	0.042	0.186
-68.436	204.808	-0.094	0.142
-67.422	-113.595	0.387	0.074
-66.407	-5.477	0.371	0.248
-65.392	-45.013	0.337	-0.164
-64.378	16.051	0.059	-0.045
-63.363	-8.485	0.336	-0.220
-62.349	185.056	-0.066	0.096
-61.334	176.792	-1.061	-1.504
-60.319	73.533	0.606	0.619
-59.305	746.981	-0.496	-1.303
-58.290	156.398	0.982	1.321
-57.276	505.453	0.612	1.381
-56.261	-200.000	119.097	627.547
-55.246	414.112	1536.077	3185.645
-54.232	147.382	2694.924	3535.292
-53.217	92.339	2266.263	2488.829
-52.203	34.199	1880.595	1597.435
-51.188	28.781	1676.959	1383.734
-50.173	26.414	1637.126	1333.382
-49.159	45.071	1702.110	1527.638
-48.144	43.867	1714.897	1529.964
-47.130	28.219	1667.665	1371.632
-46.115	25.637	1652.939	1340.259
-45.100	25.487	1647.939	1335.037
-44.086	25.488	1645.139	1332.727
-43.071	25.547	1642.776	1331.197
-42.057	25.522	1640.344	1328.990
-41.042	25.513	1638.683	1327.525
-40.027	25.598	1636.581	1326.394
-39.013	25.527	1634.657	1324.258
-37.998	25.455	1633.265	1322.552
-36.984	25.579	1631.694	1322.135
-35.969	25.622	1630.408	1321.356
-34.954	25.582	1629.132	1319.976
-33.940	25.654	1627.114	1318.818
-32.925	25.658	1626.257	1318.098
-31.911	25.663	1624.316	1316.511
-30.896	25.649	1622.697	1315.042
-29.881	25.660	1621.342	1313.977
-28.867	25.710	1619.157	1312.514
-27.852	25.649	1618.022	1311.099
-26.838	25.721	1616.542	1310.374
-25.823	25.683	1615.527	1309.220
-24.809	25.752	1613.566	1308.078
-23.794	25.692	1612.691	1306.884
-22.779	25.720	1611.271	1305.888
-21.765	25.643	1609.409	1303.768
-20.750	25.632	1607.543	1302.126
-19.736	25.671	1606.529	1301.531
-18.721	25.742	1605.286	1300.986
-17.706	25.770	1603.856	1299.977
-16.692	25.674	1602.469	1298.112
-15.677	25.760	1600.938	1297.440
-14.663	25.699	1599.522	1295.802
-13.648	25.695	1598.278	1294.712
-12.633	25.749	1596.688	1293.758
-11.619	25.758	1595.323	1292.669
-10.604	25.736	1593.406	1290.909
-9.590	25.653	1592.796	1289.763
-8.575	25.771	1591.046	1289.144
-7.560	25.760	1589.559	1287.809
-6.546	25.660	1588.959	1286.555
-5.531	25.726	1587.185	1285.540
-4.517	25.722	1586.551	1284.946
-3.502	25.707	1585.506	1283.945
-2.487	25.780	1583.700	1282.945
-1.473	25.113	1571.583	1268.366
-0.458	21.671	1550.591	1227.304
0.556	16.601	1551.113	1191.173
1.571	13.855	1573.998	1188.996
2.586	13.414	1585.680	1194.529
3.600	12.630	1532.120	1148.612
4.615	7.492	1428.642	1037.428
5.629	1.944	1370.073	959.965
6.644	0.877	1362.649	947.993
7.659	0.825	1362.576	947.534
8.673	0.848	1361.110	946.574
9.688	0.800	1359.037	944.748
10.702	0.707	1355.189	941.412
11.717	3.379	1358.869	960.558
12.731	10.084	1368.573	1009.309
13.746	15.838	1377.182	1051.620
14.761	17.405	1378.764	1062.530
15.775	16.798	1377.049	1057.321
16.790	15.839	1374.113	1048.999
17.804	15.106	1372.168	1042.859
18.819	14.663	1371.242	1039.305
19.834	14.352	1369.942	1036.293
20.848	14.236	1368.050	1034.050
21.863	13.901	1367.162	1031.210
22.877	13.705	1365.952	1028.991
23.892	13.813	1365.055	1028.890
24.907	13.832	1363.644	1027.854
25.921	13.692	1363.324	1026.659
26.936	13.720	1362.580	1026.180
27.950	13.832	1361.230	1025.762
28.965	13.837	1360.439	1025.110
29.980	13.977	1359.283	1025.008
30.994	13.936	1358.642	1024.182
32.009	13.928	1357.643	1023.291
33.023	13.891	1356.915	1022.424
34.038	13.909	1355.509	1021.384
35.053	13.934	1354.451	1020.652
36.067	13.854	1353.690	1019.491
37.082	13.890	1352.202	1018.506
38.096	13.943	1351.646	1018.322
39.111	13.952	1350.436	1017.375
40.126	13.738	1350.109	1015.727
41.140	13.839	1349.049	1015.458
42.155	13.731	1348.782	1014.507
43.169	13.728	1348.799	1014.411
44.184	13.664	1348.778	1013.913
45.199	13.763	1347.571	1013.523
46.213	13.872	1346.927	1013.610
47.228	13.799	1346.175	1012.511
48.242	13.889	1345.061	1012.132
49.257	13.747	1343.615	1010.089
50.271	13.786	1342.124	1009.115
51.286	13.938	1340.475	1008.712
52.301	13.875	1339.774	1007.711
53.315	13.775	1338.816	1006.296
54.330	13.773	1337.532	1005.229
55.344	13.778	1336.514	1004.406
56.359	13.847	1335.140	1003.702
57.374	13.753	1334.636	1002.664
58.388	13.747	1333.744	1001.874
59.403	13.744	1333.045	1001.237
60.417	13.619	1332.525	1000.007
61.432	13.802	1331.633	1000.349
62.447	13.669	1330.429	998.555
63.461	13.639	1329.387	997.509
64.476	13.633	1328.213	996.500
65.490	13.702	1326.875	995.822
66.505	13.724	1325.650	994.947
67.520	13.658	1324.700	993.749
68.534	13.686	1323.783	993.142
69.549	13.702	1322.285	992.028
70.563	13.617	1321.270	990.668
71.578	13.734	1320.017	990.341
72.593	13.643	1319.447	989.286
73.607	13.632	1318.876	988.702
74.622	13.617	1317.859	987.765
75.636	13.681	1316.958	987.379
76.651	13.631	1316.302	986.505
77.666	13.697	1315.767	986.409
78.680	13.688	1314.667	985.445
79.695	13.657	1314.212	984.831
80.709	13.649	1313.417	984.102
81.724	13.768	1312.673	984.163
82.739	13.736	1311.228	982.801
83.753	13.892	1310.553	983.132
84.768	13.832	1309.681	982.038
85.782	13.817	1308.901	981.274
86.797	13.860	1306.817	979.878
87.812	13.831	1305.734	978.810
88.826	13.792	1304.401	977.496
89.841	13.743	1304.008	976.824
90.855	13.930	1302.546	976.745
91.870	13.831	1301.975	975.650
92.884	13.862	1301.218	975.174
93.899	13.884	1300.479	974.668
94.914	13.950	1299.142	973.963
95.928	13.952	1298.487	973.401
96.943	13.910	1298.040	972.729
97.957	13.787	1297.174	971.276
98.972	13.833	1296.088	970.648
99.987	13.870	1294.567	969.636
101.001	13.857	1293.242	968.481
102.016	13.864	1292.852	968.148
103.030	13.836	1291.955	967.227
104.045	13.843	1291.047	966.502
105.060	13.835	1289.642	965.318
106.074	13.773	1288.705	964.170
107.089	13.773	1287.111	962.890
108.103	13.647	1286.033	961.269
109.118	13.710	1284.260	960.223
110.133	13.770	1283.421	959.860
111.147	13.741	1282.038	958.575
112.162	13.781	1280.579	957.626
113.176	13.839	1279.660	957.188
114.191	13.791	1278.682	956.098
115.206	13.773	1277.710	955.183
116.220	13.810	1276.491	954.398
117.235	13.785	1275.573	953.486
118.249	13.846	1274.134	952.678
119.264	13.945	1272.881	952.224
120.279	13.798	1272.220	950.803
121.293	13.668	1271.493	949.427
122.308	13.770	1270.208	948.972
123.322	13.740	1269.102	947.886
124.337	13.766	1268.178	947.261
125.352	13.812	1266.835	946.438
126.366	13.828	1265.621	945.538
127.381	13.871	1264.019	944.500
128.395	13.793	1263.400	943.514
129.410	13.743	1262.836	942.723
130.424	13.697	1262.180	941.889
131.439	13.853	1260.924	941.752
132.454	13.813	1259.891	940.671
133.468	13.868	1259.174	940.365
134.483	13.810	1258.283	939.286
135.497	13.906	1256.799	938.642
136.512	13.846	1255.854	937.512
137.527	13.861	1254.093	936.199
138.541	13.769	1253.089	934.850
139.556	13.883	1251.806	934.450
140.570	13.739	1251.358	933.222
141.585	13.836	1249.734	932.471
142.600	13.903	1248.330	931.721
143.614	14.021	1247.082	931.369
144.629	13.954	1246.645	930.582
145.643	14.028	1245.143	929.797
146.658	14.040	1243.767	928.753
147.673	13.848	1242.928	926.973
148.687	13.947	1241.503	926.378
149.702	13.920	1240.442	925.352
150.716	13.863	1239.376	924.159
151.731	13.841	1238.180	923.066
152.746	14.009	1236.641	922.765
153.760	13.989	1235.820	921.963
154.775	13.892	1234.833	920.608
155.789	14.024	1233.798	920.486
156.804	13.976	1232.451	919.135
157.819	14.019	1231.712	918.739
158.833	14.168	1230.800	918.798
159.848	14.187	1229.495	917.846
160.862	14.112	1228.470	916.590
161.877	14.089	1227.485	915.647
162.892	14.065	1226.128	914.423
163.906	14.156	1225.316	914.232
164.921	14.020	1224.949	913.134
165.935	14.065	1223.759	912.415
166.950	14.135	1223.543	912.556
167.964	14.046	1222.451	911.173
168.979	14.146	1221.445	910.886
169.994	14.158	1221.092	910.610
171.008	14.194	1219.767	909.741
172.023	14.233	1218.764	909.125
173.037	14.291	1218.169	908.916
174.052	14.242	1217.339	907.948
175.067	14.262	1216.238	907.155
176.081	14.207	1215.701	906.375
177.096	14.297	1214.577	905.945
178.110	14.304	1213.102	904.807
179.125	14.250	1212.442	903.939
180.140	14.214	1211.254	902.776
181.154	14.237	1209.769	901.714
182.169	14.228	1209.172	901.141
183.183	14.373	1207.158	900.344
184.198	14.467	1205.884	899.822
185.213	14.367	1205.450	898.881
186.227	14.426	1204.503	898.415
187.242	14.434	1203.214	897.415
188.256	14.447	1202.248	896.686
189.271	14.396	1201.528	895.796
190.286	14.379	1200.372	894.763
191.300	14.216	1199.697	893.303
192.315	14.326	1199.248	893.480
193.329	14.214	1199.054	892.658
194.344	14.202	1198.364	891.998
195.359	14.357	1197.313	891.969
196.373	14.394	1196.561	891.526
197.388	14.422	1196.447	891.516
198.402	14.535	1195.726	891.500
199.417	14.580	1194.918	891.060
200.432	14.494	1194.268	890.037
201.446	14.625	1193.454	890.050
202.461	14.625	1192.406	889.192
203.475	14.563	1191.490	888.101
204.490	14.638	1189.689	887.075
205.504	14.628	1188.729	886.230
206.519	14.669	1187.605	885.530
207.534	14.661	1186.274	884.418
208.548	14.607	1185.781	883.687
209.563	14.790	1184.782	883.831
210.577	14.704	1183.992	882.707
211.592	14.674	1183.039	881.763
212.607	14.774	1182.252	881.625
213.621	14.848	1181.136	881.106
214.636	14.803	1180.222	880.107
215.650	14.748	1179.678	879.335
216.665	14.742	1178.899	878.646
217.680	14.815	1178.070	878.332
218.694	14.831	1177.155	877.659
219.709	14.853	1175.966	876.810
220.723	14.904	1175.565	876.699
221.738	14.810	1175.228	875.878
222.753	14.870	1174.410	875.505
223.767	14.945	1173.309	874.998
224.782	14.897	1172.867	874.343
225.796	14.987	1172.303	874.311
226.811	15.025	1171.547	873.873
227.826	14.994	1170.688	872.991
228.840	14.966	1170.335	872.503
229.855	14.930	1169.206	871.400
230.869	15.022	1168.238	871.081
231.884	14.922	1167.174	869.687
232.899	15.011	1166.696	869.716
233.913	14.937	1166.319	868.973
234.928	14.944	1165.411	868.256
235.942	14.986	1164.274	867.549
236.957	15.000	1163.585	867.033
237.972	15.051	1162.787	866.626
238.986	14.985	1162.600	866.067
240.001	15.017	1161.732	865.509
241.015	15.022	1160.924	864.857
242.030	15.120	1159.720	864.389
243.045	15.072	1159.262	863.726
244.059	15.067	1158.465	863.032
245.074	15.048	1157.884	862.424
246.088	15.143	1156.745	861.984
247.103	15.260	1156.023	861.974
248.117	15.171	1155.314	860.910
249.132	15.344	1154.368	861.017
250.147	15.200	1154.323	860.168
251.161	15.358	1152.841	859.800
252.176	15.320	1152.435	859.225
253.190	15.394	1151.765	859.028
254.205	15.406	1150.859	858.339
255.220	15.358	1150.516	857.761
256.234	15.384	1150.059	857.479
257.249	15.559	1149.030	857.527
258.263	15.525	1148.569	856.932
259.278	15.470	1148.177	856.286
260.293	15.485	1147.709	855.937
261.307	15.495	1146.868	855.286
262.322	15.553	1146.425	855.177
263.336	15.564	1145.492	854.457
264.351	15.584	1145.258	854.312
265.366	15.617	1144.299	853.686
266.380	15.638	1143.468	853.096
267.395	15.644	1142.407	852.261
268.409	15.499	1142.327	851.394
269.424	15.573	1141.586	851.139
270.439	15.675	1140.774	850.973
271.453	15.633	1140.112	850.194
272.468	15.642	1139.262	849.530
273.482	15.711	1138.272	849.064
274.497	15.710	1138.051	848.822
275.512	15.682	1137.400	848.118
276.526	15.719	1136.971	847.906
277.541	15.619	1135.920	846.546
278.555	15.707	1135.410	846.532
279.570	15.759	1134.306	845.899
280.585	15.774	1133.552	845.335
281.599	15.723	1133.000	844.593
282.614	15.862	1131.614	844.181
283.628	15.930	1130.187	843.382
284.643	15.831	1129.460	842.272
285.657	15.804	1128.742	841.529
286.672	15.748	1127.883	840.533
287.687	15.859	1127.150	840.467
288.701	15.963	1126.244	840.235
289.716	15.923	1125.525	839.423
290.730	15.920	1125.121	839.036
291.745	15.937	1124.257	838.400
292.760	15.918	1123.531	837.691
293.774	16.009	1122.559	837.345
294.789	16.087	1122.416	837.550
295.803	16.127	1121.702	837.141
296.818	16.178	1120.469	836.400
297.833	16.047	1120.310	835.559
298.847	16.035	1119.507	834.825
299.862	16.119	1118.563	834.466
300.876	16.127	1118.190	834.153
301.891	15.992	1117.712	833.056
302.906	16.100	1116.676	832.739
303.920	16.253	1115.690	832.688
304.935	16.208	1115.721	832.414
305.949	16.205	1114.612	831.500
306.964	16.159	1113.905	830.672
307.979	16.292	1113.054	830.618
308.993	16.332	1112.201	830.104
310.008	16.308	1111.710	829.546
311.022	16.345	1110.952	829.089
312.037	16.290	1110.177	828.167
313.052	16.272	1109.175	827.257
314.066	16.390	1107.983	826.872
315.081	16.285	1107.570	825.980
316.095	16.259	1106.801	825.207
317.110	16.369	1106.072	825.125
318.125	16.261	1105.278	823.931
319.139	16.339	1104.684	823.799
320.154	16.240	1104.240	822.909
321.168	16.374	1103.177	822.698
322.183	16.398	1102.749	822.423
323.197	16.316	1102.170	821.518
324.212	16.459	1101.718	821.805
325.227	16.569	1100.960	821.701
326.241	16.358	1100.632	820.361
327.256	16.212	1099.610	818.817
328.270	16.450	1098.284	818.912
329.285	16.473	1097.593	818.434
330.300	16.503	1096.609	817.773
331.314	16.415	1095.931	816.768
332.329	16.437	1094.883	816.023
333.343	16.481	1093.906	815.434
334.358	16.447	1093.731	815.067
335.373	16.573	1092.700	814.837
336.387	16.477	1092.015	813.791
337.402	16.587	1091.376	813.769
338.416	16.571	1090.855	813.232
339.431	16.532	1090.385	812.623
340.446	16.718	1089.128	812.510
341.460	16.729	1088.290	811.865
342.475	16.724	1087.638	811.281
343.489	16.695	1087.096	810.666
344.504	16.869	1086.027	810.627
345.519	16.784	1085.206	809.539
346.533	16.862	1084.353	809.202
347.548	16.794	1083.931	808.490
348.562	16.762	1083.147	807.684
349.577	16.886	1081.885	807.262
350.592	16.844	1081.197	806.478
351.606	16.818	1080.712	805.920
352.621	16.800	1079.988	805.224
353.635	16.779	1079.449	804.648
354.650	16.920	1078.689	804.683
355.665	16.953	1077.674	804.008
356.679	16.965	1077.166	803.619
357.694	16.921	1076.620	802.929
358.708	16.998	1076.236	802.937
359.723	16.977	1075.831	802.464
360.738	16.968	1074.905	801.662
361.752	16.966	1074.523	801.295
362.767	16.974	1073.955	800.840
363.781	17.047	1073.108	800.482
364.796	17.116	1072.446	800.242
365.810	17.090	1071.569	799.394
366.825	17.093	1071.166	799.035
367.840	17.098	1070.969	798.841
368.854	17.248	1070.260	798.946
369.869	17.106	1069.726	797.811
370.883	17.171	1068.790	797.346
371.898	17.180	1068.049	796.766
372.913	17.155	1067.427	796.115
373.927	17.119	1066.829	795.431
374.942	17.293	1066.336	795.803
375.956	17.261	1065.861	795.232
376.971	17.225	1065.150	794.461
377.986	17.269	1064.872	794.389
379.000	17.331	1064.069	794.010
380.015	17.252	1063.706	793.301
381.029	17.372	1062.815	793.125
382.044	17.487	1061.947	792.941
383.059	17.412	1061.255	792.009
384.073	17.444	1060.555	791.564
385.088	17.466	1059.513	790.816
386.102	17.479	1058.646	790.162
387.117	17.393	1057.767	789.038
388.132	17.527	1056.758	788.833
389.146	17.389	1056.374	787.839
390.161	17.447	1055.693	787.529
391.175	17.345	1055.022	786.487
392.190	17.406	1054.470	786.288
393.205	17.598	1053.282	786.221
394.219	17.560	1052.780	785.600
395.234	17.540	1051.885	784.770
396.248	17.492	1050.873	783.725
397.263	17.646	1049.603	783.418
398.278	17.562	1049.381	782.797
399.292	17.449	1048.532	781.573
400.307	17.534	1047.672	781.254
401.321	17.625	1047.351	781.363
402.336	17.438	1046.740	779.981
403.350	17.592	1046.188	780.207
404.365	17.589	1045.372	779.516
405.380	17.523	1044.579	778.550
406.394	17.779	1043.638	778.951
407.409	17.671	1043.115	778.000
408.423	17.857	1042.093	778.015
409.438	17.780	1041.734	777.328
410.453	17.697	1041.380	776.615
411.467	17.731	1040.489	776.037
412.482	17.659	1039.871	775.182
413.496	17.944	1038.945	775.719
414.511	17.859	1038.399	774.855
415.526	18.002	1037.993	775.134
416.540	17.925	1037.597	774.417
417.555	17.992	1036.763	774.032
418.569	17.981	1036.394	773.639
419.584	17.990	1035.811	773.175
420.599	17.993	1035.421	772.830
421.613	109.268	1327.528	1488.139
422.628	100.239	1370.031	1488.207
