DTS Sentinel unit serial number:	SN413079Multiplexer serial number:	ORYXHardware model number:	OX4-SRSoftware version number:	ORYX F/W v4.00 Oryx Data Collector v3.7.2.0data status	okinstallation	princeton_trtdifferential loss correction	single-endedforward channel	channel 2reverse channel	N/Adate	2019/09/17time	11:47:34forward acquisition time	60.00reverse acquisition time	0.00gamma	496.2192k internal	0.2323k external	0.2323temperature offset calibration	0.9987default loss term (dB/km)	0.3790temperature slope calibration	1.0000multiplexer offset coefficient	1.0000multiplexer slope coefficient	1.0000fibre end	0.00T internal ref (°C)	30.92T ext. ref 1 (°C)	0.39T ext. ref 2 (°C)	26.70length (m)	temperature (°C)	Stokes	anti-Stokes-747.200	221.276	0.116	-0.188
-746.185	-99.162	-0.053	0.014
-745.171	-200.000	-0.040	0.306
-744.156	-48.938	-0.268	0.129
-743.142	382.741	-0.094	-0.195
-742.127	800.000	0.119	0.469
-741.112	-48.599	0.103	-0.050
-740.098	110.190	-0.301	0.365
-739.083	-125.159	-0.069	0.011
-738.069	-2.636	-0.183	0.129
-737.054	800.000	-0.132	-0.412
-736.039	88.609	-0.302	-0.339
-735.025	-43.362	0.213	-0.109
-734.010	324.760	0.030	0.058
-732.996	314.310	-0.076	0.145
-731.981	800.000	-0.042	-0.150
-730.966	800.000	-0.083	0.290
-729.952	142.910	0.124	0.167
-728.937	66.799	-0.215	-0.221
-727.923	-128.153	-0.192	0.028
-726.908	-200.000	-0.063	0.000
-725.894	-200.000	0.063	-0.315
-724.879	31.723	-0.171	-0.148
-723.864	292.801	0.074	0.137
-722.850	800.000	-0.035	-0.098
-721.835	-146.439	-0.273	-0.024
-720.821	-200.000	0.043	-0.288
-719.806	-124.446	-0.347	0.054
-718.791	800.000	0.009	0.034
-717.777	-51.147	0.100	-0.047
-716.762	-56.127	-0.223	-0.100
-715.748	-174.741	-0.109	-0.003
-714.733	-12.323	0.151	-0.100
-713.718	-111.672	-0.339	-0.069
-712.704	19.870	0.280	-0.228
-711.689	-81.672	0.042	0.014
-710.675	249.373	-0.064	0.110
-709.660	-58.956	-0.102	-0.045
-708.645	-92.728	0.583	0.165
-707.631	-200.000	-0.004	0.204
-706.616	212.689	0.031	0.050
-705.602	-200.000	-0.008	-0.089
-704.587	326.142	-0.144	-0.277
-703.572	-200.000	0.038	-0.368
-702.558	-1.709	0.067	0.047
-701.543	40.196	0.084	0.077
-700.529	325.166	0.042	-0.082
-699.514	-63.466	-0.334	-0.138
-698.499	-12.015	0.121	-0.080
-697.485	32.165	0.150	0.131
-696.470	-200.000	0.012	-0.402
-695.456	228.407	0.061	0.100
-694.441	-56.201	0.390	-0.175
-693.426	-102.925	0.315	-0.075
-692.412	131.649	-0.269	0.348
-691.397	800.000	0.016	0.050
-690.383	277.862	-0.068	0.122
-689.368	-82.271	-0.133	0.044
-688.354	-54.685	-0.208	0.095
-687.339	108.275	0.066	-0.079
-686.324	-26.014	-0.262	-0.155
-685.310	5.142	0.134	0.100
-684.295	56.388	0.029	-0.028
-683.281	-28.486	-0.215	-0.125
-682.266	-133.087	0.536	-0.068
-681.251	-141.298	-0.174	-0.018
-680.237	299.625	0.178	-0.330
-679.222	-65.373	-0.088	-0.036
-678.208	-40.156	0.350	0.183
-677.193	-184.588	0.275	0.004
-676.178	50.997	-0.028	-0.027
-675.164	800.000	-0.011	0.038
-674.149	-200.000	0.035	0.512
-673.135	-27.937	0.137	-0.080
-672.120	127.595	0.119	-0.152
-671.105	-88.405	0.133	0.040
-670.091	-98.051	-0.513	0.133
-669.076	77.638	-0.077	-0.082
-668.062	208.042	-0.093	0.147
-667.047	-200.000	0.052	0.238
-666.032	168.822	0.215	0.308
-665.018	-101.223	-0.246	0.061
-664.003	-200.000	0.000	-0.050
-662.989	139.717	0.190	-0.252
-661.974	200.975	0.087	-0.135
-660.959	63.615	0.363	-0.367
-659.945	-113.949	0.306	-0.060
-658.930	-186.680	0.155	-0.002
-657.916	204.082	0.075	0.116
-656.901	800.000	0.104	0.387
-655.886	397.569	0.030	-0.064
-654.872	82.255	-0.151	-0.165
-653.857	242.515	-0.112	0.188
-652.843	-15.546	-0.226	-0.145
-651.828	733.038	0.095	-0.256
-650.814	800.000	-0.011	-0.031
-649.799	-200.000	0.025	0.321
-648.784	-5.373	0.163	-0.113
-647.770	64.331	0.199	0.202
-646.755	97.649	-0.225	-0.261
-645.741	800.000	-0.135	-0.378
-644.726	-141.115	-0.309	-0.032
-643.711	-200.000	-0.024	0.225
-642.697	192.382	-0.133	-0.202
-641.682	-58.114	0.169	0.074
-640.668	-84.416	-0.214	-0.068
-639.653	131.112	-0.158	-0.204
-638.638	-200.000	0.023	0.219
-637.624	23.802	-0.214	0.177
-636.609	322.317	0.145	0.278
-635.595	-182.172	-0.097	0.002
-634.580	-200.000	0.060	-0.310
-633.565	-54.638	0.036	0.017
-632.551	-97.104	0.127	-0.033
-631.536	365.759	-0.113	0.229
-630.522	-158.078	0.108	0.006
-629.507	-200.000	0.029	0.177
-628.492	-12.086	-0.287	0.189
-627.478	711.952	0.083	-0.221
-626.463	96.652	-0.228	-0.262
-625.449	-120.130	0.074	0.013
-624.434	146.796	0.040	-0.054
-623.419	-98.124	0.191	-0.049
-622.405	-17.972	0.203	-0.128
-621.390	764.780	0.085	-0.233
-620.376	180.038	0.044	0.064
-619.361	-20.290	-0.128	0.079
-618.346	-200.000	0.252	0.000
-617.332	-30.332	-0.286	-0.163
-616.317	260.127	-0.117	0.203
-615.303	-77.206	0.196	-0.069
-614.288	647.659	0.128	0.329
-613.273	-200.000	0.010	-0.066
-612.259	800.000	-0.068	0.262
-611.244	-91.973	0.259	-0.074
-610.230	267.999	-0.160	0.281
-609.215	-63.170	-0.196	-0.081
-608.201	447.462	0.090	-0.198
-607.186	-93.166	-0.295	-0.082
-606.171	-200.000	0.002	-0.226
-605.157	73.497	-0.089	0.094
-604.142	370.447	0.148	-0.301
-603.128	255.428	0.068	0.116
-602.113	-139.327	0.177	-0.019
-601.098	15.617	-0.281	-0.222
-600.084	135.138	-0.168	-0.220
-599.069	-167.176	0.351	0.014
-598.055	268.924	-0.103	-0.181
-597.040	-128.395	0.167	-0.024
-596.025	347.453	0.095	0.189
-595.011	255.411	-0.097	0.166
-593.996	-94.955	-0.252	-0.068
-592.982	23.378	0.084	0.070
-591.967	339.208	-0.098	0.192
-590.952	-75.899	-0.495	0.176
-589.938	-107.025	-0.446	0.099
-588.923	-163.013	0.419	0.020
-587.909	-89.240	-0.191	0.057
-586.894	-97.446	0.291	0.076
-585.879	-52.653	-0.146	0.068
-584.865	-200.000	-0.017	0.125
-583.850	173.685	-0.108	-0.156
-582.836	800.000	-0.076	-0.260
-581.821	-5.079	-0.104	-0.072
-580.806	-79.184	0.086	-0.029
-579.792	315.139	0.051	0.097
-578.777	57.480	-0.108	-0.106
-577.763	-44.681	0.115	-0.058
-576.748	800.000	-0.132	-0.400
-575.733	501.120	-0.080	-0.186
-574.719	59.556	-0.230	0.228
-573.704	750.927	-0.161	0.437
-572.690	-60.149	-0.425	-0.182
-571.675	-11.102	-0.226	-0.149
-570.661	36.025	0.166	0.147
-569.646	15.220	-0.263	-0.207
-568.631	273.079	-0.137	-0.242
-567.617	-85.127	0.255	-0.080
-566.602	400.292	0.067	-0.140
-565.588	256.848	0.042	0.072
-564.573	-200.000	0.019	-0.098
-563.558	194.229	0.111	0.169
-562.544	74.311	0.169	0.178
-561.529	800.000	-0.008	-0.031
-560.515	-46.901	0.144	-0.070
-559.500	-142.879	-0.388	-0.038
-558.485	320.317	0.124	-0.236
-557.471	-82.219	-0.148	0.048
-556.456	62.949	-0.285	-0.286
-555.442	-117.115	-0.024	-0.004
-554.427	306.857	-0.135	-0.253
-553.412	-41.190	0.252	0.130
-552.398	800.000	0.064	0.229
-551.383	403.214	0.047	-0.099
-550.369	-156.538	-0.120	0.007
-549.354	187.678	-0.173	0.259
-548.339	93.247	-0.124	-0.141
-547.325	-49.861	-0.292	0.139
-546.310	-94.326	0.183	0.050
-545.296	-165.429	0.220	0.010
-544.281	-122.262	-0.021	0.003
-543.266	-110.516	-0.349	0.072
-542.252	-154.336	0.104	0.007
-541.237	307.377	-0.067	-0.126
-540.223	-127.095	-0.296	0.043
-539.208	-200.000	-0.014	-0.087
-538.193	-185.628	-0.252	-0.004
-537.179	-200.000	-0.067	0.307
-536.164	800.000	-0.065	-0.240
-535.150	153.335	-0.130	0.178
-534.135	-48.218	0.280	0.135
-533.121	455.818	0.145	-0.322
-532.106	-99.369	0.128	0.032
-531.091	109.984	0.158	-0.190
-530.077	-110.867	0.157	-0.032
-529.062	592.396	-0.097	-0.240
-528.048	-9.376	-0.247	-0.165
-527.033	84.934	0.066	-0.073
-526.018	-49.686	-0.124	-0.059
-525.004	93.169	-0.337	-0.382
-523.989	208.142	0.284	-0.444
-522.975	-148.410	0.275	0.023
-521.960	-40.671	-0.040	-0.021
-520.945	800.000	0.027	-0.095
-519.931	252.978	0.199	-0.340
-518.916	-40.343	-0.189	-0.099
-517.902	-200.000	-0.040	-0.186
-516.887	-104.624	-0.290	-0.067
-515.872	-200.000	0.002	0.220
-514.858	-200.000	0.001	-0.321
-513.843	-157.438	-0.062	0.004
-512.829	-94.086	-0.331	0.091
-511.814	452.961	-0.008	-0.019
-510.799	-186.093	-0.161	-0.002
-509.785	-65.744	-0.429	-0.172
-508.770	-37.633	-0.149	0.080
-507.756	-91.265	-0.323	0.092
-506.741	-200.000	-0.006	0.173
-505.726	39.426	0.358	-0.321
-504.712	-200.000	0.028	0.363
-503.697	557.038	-0.105	0.254
-502.683	179.356	0.093	-0.136
-501.668	-78.237	-0.152	0.052
-500.653	-200.000	-0.025	-0.391
-499.639	-200.000	0.017	0.123
-498.624	202.349	-0.065	-0.100
-497.610	571.787	0.091	0.222
-496.595	37.426	-0.302	0.267
-495.581	-67.342	-0.120	0.047
-494.566	472.762	0.103	0.232
-493.551	-72.785	0.195	0.072
-492.537	800.000	-0.068	0.223
-491.522	-67.647	-0.216	-0.085
-490.508	595.648	-0.067	0.165
-489.493	-200.000	-0.016	-0.080
-488.478	-99.550	0.418	0.105
-487.464	663.687	0.043	-0.110
-486.449	107.338	-0.166	0.198
-485.435	-121.929	0.348	-0.057
-484.420	-200.000	0.023	-0.160
-483.405	800.000	0.066	-0.289
-482.391	-108.390	0.278	-0.060
-481.376	-59.159	0.148	0.064
-480.362	-0.668	0.030	0.021
-479.347	-200.000	0.003	-0.139
-478.332	800.000	0.083	-0.279
-477.318	-150.452	0.169	0.013
-476.303	85.398	0.070	0.077
-475.289	-111.955	-0.313	0.063
-474.274	131.023	-0.077	-0.098
-473.259	-200.000	-0.012	-0.257
-472.245	800.000	-0.084	0.306
-471.230	786.542	0.044	0.121
-470.216	160.077	0.074	-0.103
-469.201	26.951	0.180	-0.151
-468.186	800.000	0.013	0.057
-467.172	800.000	-0.049	0.181
-466.157	800.000	-0.142	0.475
-465.143	-82.257	0.059	-0.019
-464.128	-200.000	-0.014	0.311
-463.113	-17.391	-0.441	-0.277
-462.099	-0.517	0.204	-0.144
-461.084	-55.129	0.335	0.151
-460.070	37.814	0.112	-0.100
-459.055	-200.000	0.006	-0.120
-458.040	310.987	0.101	-0.189
-457.026	-131.909	0.290	-0.038
-456.011	-58.389	-0.129	0.056
-454.997	154.271	0.148	-0.203
-453.982	-7.164	0.216	-0.146
-452.968	514.835	-0.122	-0.285
-451.953	295.214	0.140	-0.256
-450.938	570.566	0.092	0.224
-449.924	198.555	0.165	0.252
-448.909	724.975	-0.077	0.205
-447.895	-84.322	0.050	-0.016
-446.880	-200.000	0.013	0.416
-445.865	-78.421	0.195	-0.067
-444.851	487.009	0.133	-0.303
-443.836	49.955	-0.123	0.116
-442.822	-39.907	-0.214	0.111
-441.807	-200.000	0.025	-0.220
-440.792	-200.000	0.009	-0.072
-439.778	43.906	-0.027	0.024
-438.763	708.020	-0.065	0.173
-437.749	55.628	0.095	-0.092
-436.734	105.871	-0.201	0.238
-435.719	-200.000	0.088	-0.496
-434.705	119.150	-0.259	0.319
-433.690	-169.584	0.143	-0.005
-432.676	242.371	0.021	0.035
-431.661	-84.962	0.033	-0.010
-430.646	321.790	-0.164	0.312
-429.632	-114.125	-0.142	0.027
-428.617	465.840	-0.086	0.193
-427.603	-98.166	-0.330	-0.085
-426.588	-86.425	-0.276	-0.084
-425.573	20.415	0.288	0.232
-424.559	4.099	0.035	0.025
-423.544	712.838	-0.054	-0.142
-422.530	147.048	0.050	-0.068
-421.515	179.607	0.143	0.208
-420.500	-200.000	0.027	0.394
-419.486	-200.000	0.010	0.218
-418.471	-200.000	0.035	-0.179
-417.457	439.393	-0.020	0.043
-416.442	800.000	0.078	-0.254
-415.428	578.559	-0.050	0.122
-414.413	-21.989	0.233	0.141
-413.398	-200.000	0.011	0.232
-412.384	289.929	0.122	-0.220
-411.369	143.662	0.173	0.229
-410.355	-68.457	-0.194	-0.075
-409.340	-162.247	0.128	0.006
-408.325	-200.000	-0.004	-0.085
-407.311	-19.599	-0.387	0.239
-406.296	-40.285	-0.143	0.074
-405.282	800.000	0.007	0.021
-404.267	-84.029	0.239	0.076
-403.252	-200.000	0.111	-0.502
-402.238	-64.588	0.260	-0.105
-401.223	527.054	-0.057	0.133
-400.209	89.286	0.219	-0.243
-399.194	333.128	0.144	0.278
-398.179	-1.538	-0.225	0.158
-397.165	-200.000	0.020	-0.377
-396.150	140.313	-0.149	0.195
-395.136	196.148	-0.180	-0.272
-394.121	65.626	0.271	-0.274
-393.106	800.000	0.023	-0.079
-392.092	181.219	-0.095	0.139
-391.077	-129.026	-0.091	-0.013
-390.063	800.000	0.051	0.153
-389.048	-2.299	0.113	-0.079
-388.033	107.024	-0.034	-0.041
-387.019	-200.000	0.023	0.146
-386.004	800.000	-0.087	0.369
-384.990	717.206	-0.094	-0.248
-383.975	186.954	-0.173	0.257
-382.960	-39.683	0.284	-0.148
-381.946	800.000	-0.078	-0.280
-380.931	146.144	0.216	-0.289
-379.917	164.146	-0.153	-0.214
-378.902	-136.433	-0.181	0.021
-377.888	0.601	-0.149	0.106
-376.873	-39.328	-0.117	-0.061
-375.858	-200.000	-0.011	0.097
-374.844	-88.703	-0.139	-0.041
-373.829	-200.000	-0.011	0.205
-372.815	763.727	0.060	-0.162
-371.800	-115.602	-0.212	-0.040
-370.785	41.543	-0.150	0.136
-369.771	98.628	-0.088	0.101
-368.756	-148.045	-0.165	-0.014
-367.742	-200.000	-0.029	-0.253
-366.727	32.445	-0.257	-0.221
-365.712	-200.000	-0.003	0.242
-364.698	-185.289	0.134	-0.002
-363.683	66.407	0.312	-0.315
-362.669	45.692	0.181	-0.166
-361.654	-200.000	-0.022	0.193
-360.639	-63.647	-0.408	0.167
-359.625	-44.240	0.138	-0.069
-358.610	-165.084	0.403	-0.018
-357.596	-124.648	0.204	0.031
-356.581	-42.131	-0.456	-0.232
-355.566	367.323	0.078	-0.156
-354.552	-200.000	0.000	-0.275
-353.537	-100.520	0.091	-0.022
-352.523	-130.386	0.282	-0.038
-351.508	-56.620	0.167	0.074
-350.493	800.000	-0.062	0.180
-349.479	364.434	-0.070	-0.140
-348.464	-0.450	-0.141	0.099
-347.450	237.299	0.120	-0.198
-346.435	251.952	-0.048	-0.081
-345.420	190.086	0.064	0.096
-344.406	-26.684	0.119	0.069
-343.391	-200.000	-0.003	-0.050
-342.377	142.671	0.026	-0.035
-341.362	349.842	-0.197	0.387
-340.348	-29.960	-0.362	0.205
-339.333	569.841	-0.075	-0.181
-338.318	-114.048	0.153	0.030
-337.304	-200.000	-0.006	0.176
-336.289	230.754	0.068	0.111
-335.275	33.018	-0.199	-0.171
-334.260	337.787	-0.051	0.098
-333.245	-200.000	0.025	0.135
-332.231	-200.000	0.039	-0.218
-331.216	-19.533	-0.354	0.218
-330.202	800.000	0.078	0.262
-329.187	-128.271	-0.093	0.013
-328.172	29.563	-0.186	-0.157
-327.158	-99.072	0.364	-0.092
-326.143	98.720	0.068	-0.077
-325.129	-151.861	-0.284	0.021
-324.114	542.565	0.099	-0.235
-323.099	97.693	0.287	-0.327
-322.085	-16.438	0.288	-0.181
-321.070	-84.059	0.099	0.031
-320.056	159.455	0.076	-0.104
-319.041	800.000	0.083	0.244
-318.026	422.023	-0.070	0.149
-317.012	21.352	0.337	0.272
-315.997	-200.000	-0.036	0.181
-314.983	253.383	-0.099	0.169
-313.968	298.020	0.066	-0.120
-312.953	-200.000	0.028	-0.169
-311.939	-200.000	-0.044	-0.328
-310.924	-53.561	-0.063	-0.028
-309.910	-200.000	-0.034	0.238
-308.895	-40.824	-0.156	-0.080
-307.880	13.494	0.127	-0.098
-306.866	-200.000	0.047	-0.287
-305.851	513.658	-0.067	0.155
-304.837	800.000	-0.102	0.285
-303.822	75.891	-0.064	0.068
-302.807	-99.654	0.320	0.080
-301.793	-19.456	0.288	0.177
-300.778	-200.000	-0.003	0.155
-299.764	-9.336	0.250	0.166
-298.749	11.909	-0.187	0.143
-297.735	207.238	-0.078	0.121
-296.720	800.000	0.093	0.397
-295.705	119.063	-0.148	-0.181
-294.691	-127.891	0.385	0.055
-293.676	-200.000	-0.022	0.200
-292.662	-35.035	-0.156	-0.084
-291.647	-43.224	-0.274	-0.138
-290.632	64.876	0.165	0.165
-289.618	74.547	0.106	0.110
-288.603	177.579	0.045	-0.064
-287.589	-91.797	0.245	-0.069
-286.574	-132.967	-0.174	-0.022
-285.559	800.000	0.049	0.151
-284.545	324.055	0.072	-0.136
-283.530	337.365	0.022	0.042
-282.516	25.251	0.204	0.168
-281.501	-26.975	0.378	0.219
-280.486	-84.348	-0.169	-0.053
-279.472	494.262	-0.105	-0.238
-278.457	-138.129	0.172	-0.019
-277.443	-200.000	-0.032	-0.209
-276.428	-200.000	-0.005	0.249
-275.413	-11.181	0.129	0.084
-274.399	-200.000	0.047	0.345
-273.384	-56.310	-0.117	0.051
-272.370	788.420	-0.077	-0.209
-271.355	-67.316	-0.327	0.128
-270.340	206.979	-0.312	-0.482
-269.326	-102.357	-0.346	-0.082
-268.311	36.328	-0.077	-0.067
-267.297	721.283	0.099	0.261
-266.282	-79.068	0.192	-0.065
-265.267	-39.872	0.131	0.068
-264.253	-117.246	0.216	0.039
-263.238	800.000	0.154	-0.483
-262.224	-200.000	0.021	-0.293
-261.209	-64.175	-0.187	0.076
-260.195	327.206	0.158	0.301
-259.180	-92.615	-0.231	-0.064
-258.165	700.351	-0.077	-0.202
-257.151	-100.608	-0.369	0.090
-256.136	366.544	-0.155	-0.310
-255.122	343.503	-0.086	0.167
-254.107	-93.032	0.122	-0.034
-253.092	-107.013	0.054	0.012
-252.078	789.571	0.112	-0.306
-251.063	178.082	-0.219	-0.316
-250.049	94.882	0.190	0.214
-249.034	800.000	0.080	-0.304
-248.019	169.716	-0.102	-0.144
-247.005	-99.355	0.105	0.026
-245.990	-155.589	-0.026	0.002
-244.976	401.604	-0.082	0.170
-243.961	670.876	-0.101	-0.259
-242.946	70.985	0.152	-0.156
-241.932	151.318	0.151	-0.204
-240.917	154.442	0.170	-0.231
-239.903	-144.194	0.199	0.018
-238.888	-76.825	0.413	0.143
-237.873	800.000	-0.104	-0.313
-236.859	-127.555	0.223	0.032
-235.844	387.304	-0.107	-0.219
-234.830	39.836	0.310	-0.276
-233.815	-99.403	-0.257	-0.064
-232.800	83.784	0.159	-0.171
-231.786	65.644	0.157	0.157
-230.771	-200.000	0.018	0.479
-229.757	-29.441	0.431	-0.244
-228.742	291.381	0.041	0.074
-227.727	-44.634	-0.285	-0.141
-226.713	-71.162	0.089	0.033
-225.698	-19.988	0.149	-0.091
-224.684	-51.050	0.083	0.039
-223.669	-56.205	-0.314	0.138
-222.655	-114.210	0.052	0.010
-221.640	-11.469	0.188	-0.122
-220.625	-100.180	0.488	0.120
-219.611	299.097	-0.138	-0.252
-218.596	-200.000	0.006	0.082
-217.582	775.667	0.101	0.273
-216.567	-200.000	0.035	0.298
-215.552	800.000	-0.045	0.170
-214.538	-12.935	0.159	-0.102
-213.523	376.656	-0.048	-0.097
-212.509	370.252	-0.023	-0.046
-211.494	-80.213	0.520	-0.172
-210.479	86.419	0.029	0.032
-209.465	44.557	0.189	-0.171
-208.450	-15.592	0.078	0.049
-207.436	-135.219	0.279	0.033
-206.421	-2.643	-0.252	-0.174
-205.406	-98.711	-0.146	-0.037
-204.392	211.520	0.161	-0.250
-203.377	-4.940	0.092	-0.062
-202.363	372.448	-0.068	0.137
-201.348	118.723	-0.288	0.352
-200.333	-5.405	-0.205	0.139
-199.319	-91.131	0.054	-0.015
-198.304	-200.000	-0.019	0.265
-197.290	-200.000	0.003	0.104
-196.275	-83.157	0.089	-0.028
-195.260	168.473	0.184	0.259
-194.246	110.995	-0.112	0.133
-193.231	-10.479	-0.197	0.129
-192.217	-26.414	0.254	0.147
-191.202	-200.000	0.012	-0.160
-190.187	96.513	0.030	0.034
-189.173	535.969	0.090	0.212
-188.158	131.061	-0.107	0.136
-187.144	154.270	-0.079	0.107
-186.129	-89.896	-0.064	-0.019
-185.114	152.719	-0.235	0.318
-184.100	-99.901	-0.225	-0.055
-183.085	31.022	-0.246	0.208
-182.071	-175.480	0.286	-0.008
-181.056	-112.427	-0.333	0.066
-180.042	-200.000	0.038	-0.279
-179.027	-200.000	-0.002	0.149
-178.012	-81.119	-0.097	0.032
-176.998	800.000	-0.061	-0.204
-175.983	78.258	0.144	0.152
-174.969	114.140	-0.197	0.237
-173.954	99.954	0.144	0.164
-172.939	800.000	0.048	0.159
-171.925	314.809	-0.018	-0.034
-170.910	161.469	0.205	-0.283
-169.896	-82.410	0.500	-0.160
-168.881	-142.011	-0.153	-0.015
-167.866	77.489	-0.289	0.303
-166.852	335.147	0.199	0.380
-165.837	-134.929	0.169	0.020
-164.823	-52.982	0.193	-0.088
-163.808	408.675	-0.008	-0.016
-162.793	-200.000	0.021	0.415
-161.779	-83.723	0.124	0.039
-160.764	121.849	-0.071	0.088
-159.750	-200.000	-0.042	-0.248
-158.735	-137.390	-0.120	-0.013
-157.720	-6.135	0.208	0.140
-156.706	87.963	0.100	0.109
-155.691	25.866	0.141	0.116
-154.677	226.294	-0.132	0.212
-153.662	-91.444	0.169	0.047
-152.647	256.343	0.114	0.194
-151.633	241.640	-0.168	0.276
-150.618	164.269	0.160	-0.222
-149.604	250.840	0.083	-0.139
-148.589	-143.503	-0.326	-0.031
-147.574	453.544	0.080	0.174
-146.560	260.924	0.068	0.116
-145.545	-200.000	-0.014	-0.232
-144.531	-200.000	-0.053	-0.238
-143.516	78.583	-0.329	-0.347
-142.502	-13.109	0.115	0.074
-141.487	8.249	-0.137	0.101
-140.472	133.517	-0.039	0.050
-139.458	800.000	0.036	0.117
-138.443	-111.538	0.167	0.033
-137.429	-141.081	0.144	-0.015
-136.414	-93.936	0.547	0.148
-135.399	-93.999	-0.193	-0.052
-134.385	-200.000	0.002	-0.178
-133.370	-113.178	-0.171	-0.033
-132.356	-40.049	0.084	0.043
-131.341	170.030	0.127	-0.179
-130.326	-32.404	0.230	-0.126
-129.312	465.078	0.199	0.439
-128.297	168.773	-0.010	0.014
-127.283	-19.738	0.239	-0.146
-126.268	-6.992	0.356	0.239
-125.253	-102.305	-0.323	0.076
-124.239	299.321	-0.062	-0.113
-123.224	45.820	0.160	-0.145
-122.210	21.713	-0.166	-0.133
-121.195	98.642	-0.109	-0.124
-120.180	148.534	0.195	0.259
-119.166	800.000	-0.016	-0.053
-118.151	-71.016	0.345	-0.128
-117.137	389.794	-0.086	-0.176
-116.122	-96.111	0.118	0.031
-115.107	-122.584	-0.098	0.016
-114.093	163.214	0.053	0.073
-113.078	279.574	-0.168	-0.296
-112.064	-13.566	0.037	0.024
-111.049	-200.000	0.048	0.224
-110.034	11.249	-0.106	-0.080
-109.020	-97.340	0.158	0.041
-108.005	31.940	-0.212	0.180
-106.991	-155.217	0.434	0.028
-105.976	-73.601	0.218	0.078
-104.962	-200.000	0.009	0.223
-103.947	-124.951	0.435	-0.066
-102.932	-200.000	-0.033	0.202
-101.918	-95.850	0.188	0.049
-100.903	-64.091	-0.180	0.072
-99.889	-99.060	0.109	0.027
-98.874	94.393	0.165	-0.184
-97.859	4.867	-0.015	0.011
-96.845	106.714	0.164	0.191
-95.830	367.875	-0.091	-0.182
-94.816	-200.000	0.002	0.234
-93.801	66.707	-0.138	-0.138
-92.786	296.666	0.250	0.451
-91.772	114.887	0.207	0.248
-90.757	306.688	-0.154	0.283
-89.743	-71.164	-0.171	0.063
-88.728	207.635	-0.018	-0.028
-87.713	212.766	0.199	-0.309
-86.699	130.420	0.023	-0.029
-85.684	-3.134	0.135	-0.092
-84.670	-100.193	-0.294	-0.072
-83.655	-76.252	0.293	0.102
-82.640	-85.896	0.313	0.095
-81.626	-6.148	0.033	-0.022
-80.611	-82.490	0.378	0.121
-79.597	800.000	-0.066	0.273
-78.582	-21.040	0.127	-0.077
-77.567	17.092	0.320	0.250
-76.553	-200.000	0.030	0.167
-75.538	800.000	-0.004	-0.012
-74.524	-125.847	0.143	0.021
-73.509	499.273	-0.111	-0.251
-72.494	-200.000	-0.015	0.119
-71.480	800.000	0.134	-0.425
-70.465	-93.004	-0.237	0.065
-69.451	138.108	0.141	-0.182
-68.436	101.716	0.070	0.081
-67.422	-200.000	-0.041	0.272
-66.407	800.000	-0.142	0.554
-65.392	-122.465	0.256	0.041
-64.378	29.858	-0.322	0.270
-63.363	-107.513	-0.159	0.034
-62.349	-189.741	-0.147	0.002
-61.334	102.721	-0.822	-0.946
-60.319	-77.533	0.823	0.280
-59.305	417.467	-0.491	-1.031
-58.290	192.274	0.708	1.050
-57.276	327.007	0.985	1.856
-56.261	-200.000	99.641	589.013
-55.246	503.184	1424.182	3236.736
-54.232	152.416	2616.970	3511.725
-53.217	103.843	2299.613	2655.301
-52.203	40.208	1916.142	1693.494
-51.188	34.236	1702.960	1459.420
-50.173	31.545	1659.819	1402.258
-49.159	49.330	1707.913	1578.420
-48.144	50.543	1724.035	1602.474
-47.130	33.777	1685.066	1440.374
-46.115	31.080	1670.549	1407.588
-45.100	30.969	1665.172	1402.170
-44.086	30.907	1662.501	1399.399
-43.071	30.975	1659.851	1397.625
-42.057	30.811	1657.579	1394.423
-41.042	30.870	1655.429	1393.007
-40.027	30.854	1653.628	1391.313
-39.013	30.737	1652.283	1389.252
-37.998	30.794	1650.170	1387.846
-36.984	30.826	1649.123	1387.149
-35.969	30.946	1647.663	1386.758
-34.954	31.002	1645.677	1385.445
-33.940	30.921	1643.990	1383.372
-32.925	30.930	1642.616	1382.226
-31.911	30.916	1640.866	1380.599
-30.896	30.919	1639.227	1379.185
-29.881	30.886	1637.678	1377.586
-28.867	30.923	1636.024	1376.411
-27.852	30.882	1634.250	1374.564
-26.838	30.907	1632.557	1373.266
-25.823	30.971	1631.310	1372.632
-24.809	31.091	1629.848	1372.233
-23.794	30.920	1628.808	1370.049
-22.779	31.004	1627.074	1369.147
-21.765	30.922	1625.490	1367.161
-20.750	30.830	1624.287	1365.421
-19.736	30.958	1622.534	1364.830
-18.721	30.998	1621.187	1363.935
-17.706	30.974	1619.183	1362.019
-16.692	30.976	1617.717	1360.750
-15.677	30.863	1616.627	1358.953
-14.663	31.011	1615.126	1358.712
-13.648	30.916	1614.200	1357.192
-12.633	30.987	1612.072	1355.862
-11.619	31.011	1610.658	1354.796
-10.604	30.908	1609.265	1352.824
-9.590	30.987	1608.027	1352.302
-8.575	30.880	1606.776	1350.418
-7.560	30.974	1605.653	1350.105
-6.546	30.918	1604.577	1348.738
-5.531	30.893	1603.457	1347.561
-4.517	30.945	1601.940	1346.611
-3.502	31.000	1600.996	1346.163
-2.487	30.956	1599.442	1344.483
-1.473	30.806	1587.956	1333.697
-0.458	28.263	1568.850	1299.574
0.556	23.217	1569.369	1267.651
1.571	20.830	1592.538	1268.886
2.586	20.387	1606.022	1276.264
3.600	18.746	1554.202	1223.292
4.615	10.652	1442.547	1081.575
5.629	2.220	1375.746	977.630
6.644	0.571	1366.948	960.804
7.659	0.339	1365.903	958.513
8.673	0.338	1364.124	957.171
9.688	0.303	1362.775	955.920
10.702	0.104	1359.939	952.585
11.717	4.123	1366.020	982.281
12.731	12.868	1380.090	1048.116
13.746	17.692	1386.280	1083.459
14.761	17.477	1383.982	1080.206
15.775	16.531	1382.093	1072.637
16.790	15.416	1379.434	1063.419
17.804	14.809	1376.384	1057.134
18.819	14.386	1375.346	1053.565
19.834	14.061	1374.213	1050.554
20.848	13.832	1372.874	1047.991
21.863	13.460	1371.654	1044.617
22.877	13.308	1370.373	1042.592
23.892	13.321	1369.322	1041.783
24.907	13.294	1368.670	1041.023
25.921	13.306	1368.053	1040.537
26.936	13.304	1367.162	1039.759
27.950	13.428	1365.634	1039.282
28.965	13.532	1364.456	1038.942
29.980	13.532	1364.027	1038.526
30.994	13.529	1363.437	1037.964
32.009	13.670	1361.947	1037.623
33.023	13.587	1361.365	1036.569
34.038	13.654	1359.902	1035.780
35.053	13.467	1358.593	1033.523
36.067	13.461	1357.757	1032.762
37.082	13.496	1356.861	1032.206
38.096	13.630	1355.609	1031.994
39.111	13.479	1355.252	1030.692
40.126	13.423	1354.167	1029.432
41.140	13.397	1353.431	1028.617
42.155	13.347	1353.084	1027.953
43.169	13.362	1352.582	1027.573
44.184	13.263	1352.688	1026.945
45.199	13.317	1351.879	1026.578
46.213	13.409	1351.610	1026.854
47.228	13.447	1350.301	1026.006
48.242	13.535	1349.028	1025.489
49.257	13.489	1347.581	1024.013
50.271	13.421	1346.305	1022.537
51.286	13.505	1345.039	1022.003
52.301	13.431	1343.943	1020.620
53.315	13.413	1342.758	1019.518
54.330	13.363	1342.153	1018.662
55.344	13.481	1340.624	1018.136
56.359	13.417	1339.504	1016.806
57.374	13.320	1339.029	1015.759
58.388	13.317	1338.289	1015.089
59.403	13.274	1337.859	1014.411
60.417	13.219	1337.280	1013.539
61.432	13.331	1335.577	1012.849
62.447	13.241	1334.984	1011.755
63.461	13.216	1333.548	1010.430
64.476	13.241	1332.577	1009.753
65.490	13.206	1331.416	1008.569
66.505	13.293	1329.800	1007.789
67.520	13.300	1328.622	1006.852
68.534	13.294	1327.543	1005.909
69.549	13.288	1326.711	1005.152
70.563	13.409	1325.254	1004.692
71.578	13.184	1324.635	1002.766
72.593	13.279	1323.239	1002.198
73.607	13.171	1322.997	1001.270
74.622	13.137	1322.053	1000.264
75.636	13.243	1320.991	1000.015
76.651	13.160	1320.706	999.209
77.666	13.171	1319.653	998.388
78.680	13.320	1319.098	998.781
79.695	13.378	1318.371	998.489
80.709	13.211	1317.797	996.958
81.724	13.329	1316.955	996.948
82.739	13.424	1315.475	996.313
83.753	13.358	1314.708	995.243
84.768	13.405	1313.793	994.747
85.782	13.548	1312.293	994.378
86.797	13.461	1311.628	993.268
87.812	13.483	1310.044	992.114
88.826	13.506	1308.905	991.300
89.841	13.418	1308.104	990.081
90.855	13.534	1306.860	989.743
91.870	13.554	1305.657	988.863
92.884	13.448	1305.325	987.889
93.899	13.470	1304.889	987.605
94.914	13.610	1303.682	987.437
95.928	13.587	1302.963	986.667
96.943	13.523	1301.974	985.454
97.957	13.500	1301.300	984.717
98.972	13.541	1300.090	983.959
99.987	13.497	1299.256	982.981
101.001	13.508	1298.007	982.013
102.016	13.489	1297.137	981.155
103.030	13.547	1296.074	980.609
104.045	13.534	1294.960	979.601
105.060	13.471	1293.952	978.381
106.074	13.496	1292.187	977.108
107.089	13.341	1291.525	975.606
108.103	13.301	1290.141	974.236
109.118	13.369	1288.831	973.560
110.133	13.366	1287.468	972.429
111.147	13.324	1286.429	971.314
112.162	13.334	1285.090	970.274
113.176	13.469	1283.940	970.108
114.191	13.464	1283.179	969.421
115.206	13.568	1281.925	968.993
116.220	13.427	1281.056	967.427
117.235	13.438	1279.978	966.596
118.249	13.459	1278.943	965.847
119.264	13.415	1278.095	964.867
120.279	13.396	1276.922	963.787
121.293	13.436	1275.621	962.950
122.308	13.293	1275.228	961.738
123.322	13.352	1273.742	960.874
124.337	13.394	1272.837	960.347
125.352	13.388	1271.566	959.273
126.366	13.409	1270.134	958.226
127.381	13.434	1269.305	957.660
128.395	13.403	1268.262	956.614
129.410	13.336	1267.400	955.486
130.424	13.448	1266.093	955.064
131.439	13.349	1265.715	954.127
132.454	13.472	1264.483	953.823
133.468	13.556	1263.682	953.617
134.483	13.515	1262.766	952.604
135.497	13.429	1261.772	951.277
136.512	13.528	1260.263	950.622
137.527	13.428	1259.210	949.171
138.541	13.435	1257.876	948.120
139.556	13.525	1256.207	947.292
140.570	13.589	1255.489	947.033
141.585	13.649	1254.068	946.221
142.600	13.588	1253.020	944.996
143.614	13.553	1252.056	943.991
144.629	13.749	1250.217	943.636
145.643	13.717	1249.344	942.707
146.658	13.606	1248.219	941.145
147.673	13.586	1246.952	939.992
148.687	13.433	1246.017	938.339
149.702	13.494	1244.855	937.726
150.716	13.608	1242.972	936.873
151.731	13.545	1241.690	935.465
152.746	13.614	1240.695	935.021
153.760	13.514	1239.883	933.765
154.775	13.631	1238.816	933.536
155.789	13.671	1237.612	932.772
156.804	13.693	1236.727	932.145
157.819	13.751	1235.582	931.525
158.833	13.770	1234.566	930.783
159.848	13.794	1234.089	930.476
160.862	13.752	1232.587	929.026
161.877	13.677	1231.922	928.024
162.892	13.764	1230.094	927.054
163.906	13.614	1229.750	925.871
164.921	13.643	1228.953	925.349
165.935	13.792	1227.883	925.296
166.950	13.750	1227.165	924.439
167.964	13.797	1226.076	923.796
168.979	13.808	1225.764	923.544
169.994	13.670	1225.286	922.332
171.008	13.688	1224.788	921.975
172.023	13.754	1223.257	921.106
173.037	13.825	1222.726	921.022
174.052	13.896	1221.669	920.534
175.067	13.859	1220.288	919.208
176.081	13.692	1220.076	918.047
177.096	13.656	1219.249	917.141
178.110	13.881	1217.457	916.956
179.125	13.806	1216.815	915.977
180.140	13.797	1215.713	915.015
181.154	13.852	1213.990	913.944
182.169	13.980	1212.672	913.571
183.183	13.935	1211.932	912.685
184.198	14.015	1210.370	911.871
185.213	14.018	1209.821	911.392
186.227	13.855	1208.880	909.707
187.242	14.114	1207.641	910.114
188.256	14.229	1206.302	909.650
189.271	14.095	1205.813	908.472
190.286	13.920	1204.755	906.636
191.300	13.799	1203.927	905.273
192.315	13.737	1203.236	904.337
193.329	13.903	1202.192	904.376
194.344	13.775	1201.752	903.271
195.359	14.012	1201.129	904.011
196.373	13.880	1200.850	902.999
197.388	14.059	1200.134	903.354
198.402	14.074	1199.725	903.053
199.417	14.214	1198.869	903.083
200.432	14.289	1198.166	902.883
201.446	14.223	1197.465	901.919
202.461	14.270	1195.982	900.976
203.475	14.385	1195.208	900.933
204.490	14.288	1193.974	899.401
205.504	14.169	1192.461	897.539
206.519	14.187	1191.943	897.166
207.534	14.233	1190.107	895.952
208.548	14.170	1189.753	895.265
209.563	14.241	1188.554	894.669
210.577	14.221	1187.866	893.965
211.592	14.326	1187.200	893.945
212.607	14.378	1186.440	893.575
213.621	14.419	1185.578	893.066
214.636	14.303	1184.616	891.644
215.650	14.367	1183.288	890.905
216.665	14.425	1182.133	890.267
217.680	14.477	1181.522	890.004
218.694	14.502	1180.895	889.590
219.709	14.469	1179.969	888.638
220.723	14.366	1179.328	887.524
221.738	14.484	1178.686	887.589
222.753	14.380	1178.194	886.592
223.767	14.547	1177.333	886.751
224.782	14.623	1176.102	886.148
225.796	14.471	1176.130	885.284
226.811	14.556	1175.310	885.041
227.826	14.604	1174.346	884.488
228.840	14.590	1173.659	883.821
229.855	14.626	1173.036	883.465
230.869	14.656	1172.254	882.957
231.884	14.590	1170.984	881.572
232.899	14.563	1170.872	881.266
233.913	14.555	1170.044	880.523
234.928	14.608	1169.324	880.183
235.942	14.515	1168.346	878.878
236.957	14.427	1167.974	878.056
237.972	14.484	1167.464	877.897
238.986	14.669	1166.574	878.124
240.001	14.670	1165.691	877.388
241.015	14.688	1164.491	876.497
242.030	14.648	1164.118	875.929
243.045	14.692	1163.306	875.472
244.059	14.705	1162.563	874.906
245.074	14.749	1161.592	874.327
246.088	14.724	1160.971	873.651
247.103	14.830	1159.955	873.366
248.117	14.800	1159.525	872.808
249.132	14.869	1158.742	872.498
250.147	14.842	1158.291	871.943
251.161	14.873	1157.291	871.275
252.176	14.980	1156.480	871.144
253.190	15.010	1155.964	870.832
254.205	14.987	1155.785	870.502
255.220	15.054	1155.204	870.337
256.234	15.042	1154.399	869.590
257.249	15.000	1153.865	868.895
258.263	14.995	1153.153	868.253
259.278	15.165	1152.145	868.298
260.293	14.987	1151.951	867.151
261.307	15.110	1151.079	867.056
262.322	15.195	1150.219	866.772
263.336	15.216	1149.593	866.334
264.351	15.269	1148.956	866.051
265.366	15.247	1147.987	865.130
266.380	15.303	1147.544	865.007
267.395	15.299	1146.580	864.185
268.409	15.178	1145.867	862.944
269.424	15.204	1145.455	862.692
270.439	15.281	1144.839	862.552
271.453	15.193	1144.373	861.672
272.468	15.245	1142.962	860.798
273.482	15.222	1142.626	860.350
274.497	15.259	1142.106	860.072
275.512	15.376	1140.830	859.637
276.526	15.244	1140.685	858.776
277.541	15.327	1139.701	858.382
278.555	15.242	1139.185	857.482
279.570	15.439	1137.903	857.450
280.585	15.480	1137.266	857.100
281.599	15.404	1136.843	856.319
282.614	15.493	1135.500	855.684
283.628	15.357	1135.003	854.543
284.643	15.430	1133.481	853.695
285.657	15.397	1132.838	852.966
286.672	15.328	1132.303	852.134
287.687	15.502	1130.772	851.790
288.701	15.577	1130.124	851.607
289.716	15.584	1129.239	850.901
290.730	15.493	1129.005	850.187
291.745	15.582	1128.162	849.930
292.760	15.608	1127.452	849.450
293.774	15.658	1127.052	849.325
294.789	15.553	1126.673	848.436
295.803	15.674	1125.607	848.168
296.818	15.731	1124.563	847.595
297.833	15.607	1124.202	846.623
298.847	15.610	1123.229	845.830
299.862	15.713	1122.442	845.679
300.876	15.712	1122.243	845.448
301.891	15.727	1121.499	844.890
302.906	15.708	1121.100	844.418
303.920	15.810	1119.723	843.817
304.935	15.822	1119.508	843.641
305.949	15.914	1118.528	843.289
306.964	15.920	1118.043	842.878
307.979	15.874	1117.037	841.816
308.993	15.907	1116.291	841.344
310.008	15.779	1115.848	840.298
311.022	15.972	1114.948	840.510
312.037	15.906	1114.396	839.687
313.052	15.903	1112.778	838.382
314.066	15.905	1111.844	837.614
315.081	15.885	1111.573	837.236
316.095	15.804	1110.744	836.134
317.110	15.972	1109.582	836.016
318.125	15.942	1109.121	835.449
319.139	15.894	1108.425	834.610
320.154	15.874	1107.838	833.999
321.168	15.842	1107.409	833.440
322.183	15.777	1107.166	832.864
323.197	15.972	1105.900	832.801
324.212	15.938	1105.273	832.088
325.227	15.983	1104.756	831.847
326.241	15.951	1104.434	831.371
327.256	16.066	1103.147	830.897
328.270	15.990	1102.395	829.884
329.285	15.924	1101.413	828.744
330.300	16.029	1100.630	828.602
331.314	16.093	1099.709	828.149
332.329	15.983	1098.811	826.857
333.343	16.110	1097.698	826.570
334.358	16.018	1097.407	825.826
335.373	15.980	1096.928	825.205
336.387	16.109	1095.961	825.039
337.402	16.219	1095.111	824.863
338.416	16.122	1094.150	823.592
339.431	16.221	1093.822	823.755
340.446	16.338	1093.046	823.669
341.460	16.296	1092.655	823.099
342.475	16.374	1091.754	822.725
343.489	16.292	1091.315	821.922
344.504	16.346	1089.892	821.043
345.519	16.442	1088.920	820.703
346.533	16.508	1087.982	820.243
347.548	16.457	1087.361	819.455
348.562	16.416	1086.541	818.564
349.577	16.469	1085.960	818.312
350.592	16.320	1085.394	817.091
351.606	16.298	1084.875	816.521
352.621	16.260	1084.331	815.855
353.635	16.308	1083.253	815.207
354.650	16.288	1082.760	814.665
355.665	16.381	1081.934	814.420
356.679	16.399	1081.431	814.058
357.694	16.477	1080.371	813.563
358.708	16.511	1079.950	813.339
359.723	16.434	1079.677	812.691
360.738	16.539	1078.788	812.452
361.752	16.519	1078.285	811.905
362.767	16.463	1077.914	811.286
363.781	16.568	1077.199	811.179
364.796	16.510	1077.010	810.687
365.810	16.676	1076.193	810.795
366.825	16.781	1075.321	810.567
367.840	16.743	1074.886	809.989
368.854	16.608	1074.324	808.847
369.869	16.877	1072.943	809.019
370.883	16.754	1072.517	808.040
371.898	16.806	1071.607	807.531
372.913	16.790	1071.129	807.025
373.927	16.756	1070.674	806.445
374.942	16.826	1070.121	806.291
375.956	16.835	1069.930	806.120
376.971	16.835	1069.317	805.589
377.986	17.027	1068.235	805.613
379.000	17.014	1067.758	805.119
380.015	16.996	1067.481	804.756
381.029	16.859	1066.949	803.631
382.044	17.002	1066.178	803.659
383.059	17.070	1065.002	803.020
384.073	17.044	1064.420	802.389
385.088	17.095	1063.221	801.657
386.102	16.952	1063.067	800.792
387.117	17.009	1061.900	800.111
388.132	17.035	1060.495	799.107
389.146	17.083	1059.969	798.863
390.161	16.980	1059.472	797.933
391.175	17.063	1058.642	797.627
392.190	17.148	1057.784	797.311
393.205	17.143	1057.105	796.705
394.219	17.301	1056.191	796.688
395.234	17.066	1055.827	795.241
396.248	17.033	1054.834	794.267
397.263	17.053	1053.848	793.550
398.278	16.960	1052.894	792.325
399.292	17.118	1052.207	792.478
400.307	17.116	1051.403	791.791
401.321	17.120	1051.076	791.491
402.336	17.110	1050.274	790.774
403.350	17.083	1049.803	790.221
404.365	17.105	1049.035	789.677
405.380	17.207	1048.400	789.605
406.394	17.154	1047.549	788.646
407.409	17.309	1046.752	788.696
408.423	17.278	1046.134	788.017
409.438	17.398	1045.113	787.732
410.453	17.350	1044.695	787.124
411.467	17.365	1043.855	786.493
412.482	17.465	1043.039	786.269
413.496	17.545	1042.222	785.954
414.511	17.504	1041.891	785.443
415.526	17.457	1041.733	785.041
416.540	17.608	1040.938	785.066
417.555	17.503	1040.729	784.357
418.569	17.529	1040.252	784.047
419.584	17.500	1039.963	783.629
420.599	17.528	1039.280	783.171
421.613	102.535	1320.137	1463.728
422.628	94.103	1361.008	1463.837
