DTS Sentinel unit serial number:	SN413079Multiplexer serial number:	ORYXHardware model number:	OX4-SRSoftware version number:	ORYX F/W v4.00 Oryx Data Collector v3.7.2.0data status	okinstallation	princeton_trtdifferential loss correction	single-endedforward channel	channel 2reverse channel	N/Adate	2019/09/12time	07:05:11forward acquisition time	60.00reverse acquisition time	0.00gamma	496.2192k internal	0.2324k external	0.2324temperature offset calibration	1.0061default loss term (dB/km)	0.3790temperature slope calibration	1.0000multiplexer offset coefficient	1.0000multiplexer slope coefficient	1.0000fibre end	0.00T internal ref (°C)	32.17T ext. ref 1 (°C)	1.59T ext. ref 2 (°C)	27.48length (m)	temperature (°C)	Stokes	anti-Stokes-747.200	26.089	0.151	0.127
-746.185	800.000	0.117	0.422
-745.171	385.228	0.110	0.230
-744.156	-200.000	0.041	-0.441
-743.142	800.000	0.096	-0.318
-742.127	239.461	-0.057	0.097
-741.112	42.691	0.053	-0.049
-740.098	-200.000	0.014	0.428
-739.083	230.948	-0.289	0.477
-738.069	-200.000	0.002	0.336
-737.054	-102.543	0.039	-0.009
-736.039	-71.593	-0.201	0.076
-735.025	119.989	0.206	0.257
-734.010	16.441	-0.070	0.056
-732.996	-200.000	-0.014	-0.333
-731.981	-95.876	-0.203	-0.055
-730.966	2.741	0.073	0.054
-729.952	800.000	-0.021	-0.077
-728.937	355.194	0.091	-0.183
-727.923	-200.000	-0.002	0.101
-726.908	41.598	-0.069	-0.063
-725.894	76.596	-0.239	-0.256
-724.879	-107.275	-0.425	0.094
-723.864	191.685	-0.074	-0.112
-722.850	342.757	-0.162	0.320
-721.835	-110.743	-0.099	-0.021
-720.821	-200.000	-0.016	-0.155
-719.806	-200.000	-0.001	-0.098
-718.791	-101.943	-0.176	0.043
-717.777	13.851	-0.195	0.153
-716.762	-74.334	-0.176	-0.064
-715.748	-200.000	-0.003	0.115
-714.733	21.913	0.160	-0.131
-713.718	-81.058	-0.319	0.106
-712.704	-200.000	0.021	-0.138
-711.689	-90.684	-0.306	-0.089
-710.675	-166.651	-0.105	-0.004
-709.660	-21.096	0.064	0.040
-708.645	-200.000	0.027	-0.255
-707.631	-112.397	0.197	-0.040
-706.616	-200.000	0.009	-0.233
-705.602	258.190	0.119	0.206
-704.587	-121.956	-0.122	-0.020
-703.572	-12.066	0.372	0.246
-702.558	-159.897	0.342	0.019
-701.543	-200.000	-0.048	0.624
-700.529	-121.383	0.128	-0.021
-699.514	-104.567	-0.225	0.052
-698.499	-200.000	0.029	0.186
-697.485	-104.637	0.511	-0.119
-696.470	508.592	0.017	-0.040
-695.456	172.356	-0.045	-0.065
-694.441	-59.905	-0.191	0.082
-693.426	-49.459	-0.106	0.051
-692.412	556.498	-0.054	-0.132
-691.397	-25.531	-0.207	-0.123
-690.383	-147.410	-0.296	0.025
-689.368	-37.658	0.224	-0.120
-688.354	-2.075	0.089	-0.063
-687.339	-105.467	0.088	-0.020
-686.324	-122.789	-0.471	-0.077
-685.310	-200.000	0.014	-0.347
-684.295	-94.744	-0.148	-0.041
-683.281	-88.073	-0.297	0.090
-682.266	255.758	-0.037	-0.064
-681.251	-149.014	0.336	-0.027
-680.237	106.450	0.152	-0.182
-679.222	800.000	-0.037	0.122
-678.208	-200.000	0.021	0.129
-677.193	-12.529	0.285	0.187
-676.178	23.776	-0.061	-0.051
-675.164	25.506	0.257	-0.215
-674.149	-91.433	0.270	-0.078
-673.135	-59.998	0.311	-0.134
-672.120	-143.887	-0.173	-0.016
-671.105	-200.000	-0.033	0.314
-670.091	279.485	-0.100	-0.179
-669.076	800.000	0.045	0.194
-668.062	58.306	-0.267	0.264
-667.047	800.000	-0.039	0.124
-666.032	-102.135	-0.093	-0.022
-665.018	47.572	-0.099	-0.093
-664.003	-107.635	-0.291	0.064
-662.989	-143.562	0.120	0.011
-661.974	16.069	-0.058	0.046
-660.959	-110.677	0.157	0.033
-659.945	-200.000	0.022	0.288
-658.930	-12.050	-0.133	0.088
-657.916	-200.000	-0.009	-0.043
-656.901	800.000	-0.022	0.066
-655.886	-200.000	0.019	0.106
-654.872	-200.000	0.000	0.004
-653.857	-24.937	-0.204	-0.122
-652.843	171.475	0.167	0.242
-651.828	-200.000	-0.035	-0.355
-650.814	800.000	0.094	-0.282
-649.799	-200.000	0.009	-0.259
-648.784	235.463	0.102	0.169
-647.770	-200.000	-0.042	-0.188
-646.755	165.699	-0.031	0.044
-645.741	-200.000	0.037	0.184
-644.726	-187.074	-0.148	-0.002
-643.711	-145.443	-0.289	0.026
-642.697	713.496	0.125	0.332
-641.682	560.990	0.126	-0.305
-640.668	29.584	0.275	-0.235
-639.653	-36.413	0.062	0.034
-638.638	213.188	0.100	-0.159
-637.624	800.000	0.074	-0.247
-636.609	-69.600	-0.067	-0.026
-635.595	367.091	0.062	-0.126
-634.580	800.000	0.062	0.203
-633.565	-69.845	-0.106	-0.041
-632.551	-200.000	0.017	-0.294
-631.536	332.213	-0.143	0.278
-630.522	98.069	-0.102	-0.118
-629.507	534.368	-0.096	-0.229
-628.492	49.934	0.063	0.059
-627.478	-13.571	0.368	-0.239
-626.463	-102.437	-0.425	-0.102
-625.449	-160.915	-0.100	-0.005
-624.434	800.000	0.044	-0.140
-623.419	66.804	-0.226	-0.231
-622.405	-139.608	-0.308	0.033
-621.390	-10.724	0.268	-0.178
-620.376	-119.560	0.062	-0.011
-619.361	800.000	0.042	-0.184
-618.346	-121.631	-0.438	-0.073
-617.332	800.000	0.011	0.045
-616.317	-129.297	-0.172	0.024
-615.303	141.839	-0.080	-0.106
-614.288	491.079	-0.096	-0.222
-613.273	-146.818	-0.263	-0.023
-612.259	-200.000	-0.062	0.279
-611.244	56.301	-0.328	0.320
-610.230	-200.000	0.036	0.344
-609.215	-200.000	0.005	-0.365
-608.201	-72.838	0.010	0.004
-607.186	203.319	0.091	-0.142
-606.171	800.000	0.112	-0.358
-605.157	131.406	-0.073	-0.094
-604.142	-111.517	0.245	-0.050
-603.128	53.380	-0.155	-0.149
-602.113	126.925	-0.044	0.056
-601.098	-200.000	0.026	-0.216
-600.084	-101.518	-0.073	-0.018
-599.069	111.565	0.109	-0.132
-598.055	233.520	-0.055	0.090
-597.040	142.515	0.022	0.029
-596.025	-200.000	0.150	0.000
-595.011	-82.194	0.210	-0.069
-593.996	-151.351	-0.073	-0.005
-592.982	173.399	-0.108	0.156
-591.967	129.205	0.114	-0.146
-590.952	-0.589	-0.249	-0.177
-589.938	800.000	0.089	0.315
-588.923	-200.000	-0.016	-0.091
-587.909	-111.166	-0.156	0.032
-586.894	-69.124	-0.280	0.108
-585.879	18.579	0.095	0.076
-584.865	800.000	-0.110	-0.308
-583.850	563.859	0.091	-0.222
-582.836	800.000	-0.078	0.333
-581.821	-115.492	0.245	-0.046
-580.806	125.298	-0.123	0.156
-579.792	-34.487	0.171	-0.094
-578.777	2.768	0.117	-0.085
-577.763	-189.584	0.144	0.002
-576.748	-24.091	0.066	0.039
-575.733	-90.779	-0.117	-0.034
-574.719	-91.059	-0.199	0.057
-573.704	47.938	0.050	-0.047
-572.690	-117.999	-0.186	0.033
-571.675	-200.000	-0.025	0.122
-570.661	-107.832	-0.448	0.098
-569.646	-200.000	0.079	0.377
-568.631	-200.000	0.023	-0.102
-567.617	-32.657	0.204	-0.114
-566.602	151.436	0.119	-0.162
-565.588	16.201	-0.356	-0.281
-564.573	666.224	0.043	-0.112
-563.558	800.000	-0.029	-0.094
-562.544	482.115	0.028	-0.065
-561.529	-104.047	0.137	-0.032
-560.515	4.308	-0.278	0.204
-559.500	-132.905	-0.152	-0.019
-558.485	96.697	-0.058	-0.066
-557.471	-4.682	-0.255	0.177
-556.456	-129.382	0.413	-0.057
-555.442	-119.306	0.198	-0.035
-554.427	218.846	-0.108	0.173
-553.412	-53.939	0.080	-0.036
-552.398	-133.443	-0.162	0.020
-551.383	-73.881	0.145	0.053
-550.369	-151.522	0.083	0.006
-549.354	185.744	0.067	0.100
-548.339	174.532	0.025	-0.036
-547.325	-4.987	0.129	0.089
-546.310	-65.136	0.098	0.040
-545.296	-72.869	0.080	-0.030
-544.281	109.415	-0.187	-0.224
-543.266	800.000	-0.067	-0.193
-542.252	-139.983	0.224	0.024
-541.237	83.835	-0.120	-0.131
-540.223	151.944	-0.144	-0.196
-539.208	800.000	-0.116	-0.400
-538.193	152.201	0.079	0.108
-537.179	-110.109	0.103	-0.021
-536.164	-9.981	0.181	-0.120
-535.150	-105.524	0.165	-0.037
-534.135	-54.162	0.421	-0.192
-533.121	54.904	-0.070	-0.068
-532.106	246.016	-0.163	-0.274
-531.091	-53.521	-0.208	-0.095
-530.077	422.091	-0.123	-0.265
-529.062	-15.997	-0.051	-0.033
-528.048	-18.939	0.220	0.137
-527.033	-60.034	-0.198	0.085
-526.018	-74.918	0.150	-0.054
-525.004	-77.335	0.262	-0.091
-523.989	251.441	-0.081	-0.138
-522.975	561.337	-0.053	-0.129
-521.960	-25.439	-0.111	0.065
-520.945	-13.280	-0.265	0.172
-519.931	86.111	0.266	0.294
-518.916	197.280	0.102	-0.155
-517.902	-200.000	0.030	0.331
-516.887	800.000	-0.028	-0.122
-515.872	-84.310	0.142	-0.045
-514.858	124.852	0.179	0.225
-513.843	9.948	0.165	-0.125
-512.829	274.711	0.143	0.254
-511.814	-76.544	0.161	0.056
-510.799	800.000	0.069	-0.273
-509.785	-147.040	0.091	0.008
-508.770	800.000	0.023	-0.066
-507.756	382.639	-0.083	-0.170
-506.741	359.787	0.041	-0.081
-505.726	-200.000	-0.002	0.152
-504.712	-200.000	0.173	-0.000
-503.697	-16.340	0.104	-0.066
-502.683	-200.000	-0.005	-0.154
-501.668	66.623	-0.141	0.144
-500.653	188.864	-0.055	-0.083
-499.639	13.956	-0.127	-0.098
-498.624	-200.000	-0.018	0.291
-497.610	-140.443	-0.300	-0.031
-496.595	227.834	-0.152	-0.248
-495.581	-30.068	-0.309	0.176
-494.566	-35.511	0.254	-0.138
-493.551	-200.000	-0.036	-0.176
-492.537	53.667	-0.025	-0.024
-491.522	-110.418	-0.108	0.022
-490.508	-100.698	0.296	0.073
-489.493	-8.508	-0.089	0.060
-488.478	154.923	0.105	-0.145
-487.464	-13.679	0.111	0.072
-486.449	-150.224	-0.130	-0.010
-485.435	-156.938	-0.173	0.011
-484.420	4.336	-0.098	0.072
-483.405	72.542	0.182	0.190
-482.391	171.097	-0.187	0.267
-481.376	-200.000	-0.040	0.175
-480.362	57.386	-0.060	-0.059
-479.347	-200.000	0.013	-0.281
-478.332	-53.390	0.113	0.052
-477.318	446.868	0.044	0.097
-476.303	28.836	-0.149	0.126
-475.289	-69.028	-0.359	-0.138
-474.274	-124.434	-0.317	-0.049
-473.259	112.130	0.115	-0.139
-472.245	-87.680	-0.077	0.023
-471.230	85.944	0.245	-0.269
-470.216	-200.000	-0.038	0.220
-469.201	-200.000	-0.008	-0.157
-468.186	-91.219	0.376	0.108
-467.172	-115.599	0.213	-0.040
-466.157	-85.156	-0.264	0.082
-465.143	-200.000	0.007	-0.167
-464.128	800.000	0.035	-0.122
-463.113	-200.000	0.055	0.265
-462.099	800.000	-0.209	0.631
-461.084	54.714	-0.295	0.284
-460.070	16.922	-0.194	-0.153
-459.055	-159.440	0.153	0.009
-458.040	-200.000	0.025	-0.197
-457.026	300.135	-0.199	0.366
-456.011	-77.430	-0.180	0.062
-454.997	-200.000	-0.093	-0.444
-453.982	54.820	0.265	0.256
-452.968	-27.155	-0.262	0.152
-451.953	800.000	-0.066	-0.262
-450.938	731.419	-0.062	-0.167
-449.924	-147.791	-0.176	0.015
-448.909	419.098	-0.098	0.209
-447.895	-134.801	-0.120	-0.014
-446.880	-60.702	0.079	0.033
-445.865	-111.622	-0.120	-0.024
-444.851	-24.039	-0.050	-0.030
-443.836	135.174	-0.045	-0.058
-442.822	-55.857	0.128	-0.057
-441.807	800.000	0.093	-0.261
-440.792	-8.939	0.212	0.142
-439.778	-52.631	-0.280	0.129
-438.763	800.000	-0.019	-0.066
-437.749	-71.779	0.259	0.096
-436.734	-34.392	-0.151	-0.082
-435.719	-200.000	0.038	-0.190
-434.705	102.151	-0.163	-0.190
-433.690	522.909	0.039	-0.090
-432.676	-200.000	0.011	0.281
-431.661	-200.000	0.026	0.221
-430.646	-12.544	-0.082	0.053
-429.632	-168.612	-0.144	-0.005
-428.617	-200.000	0.018	0.182
-427.603	121.603	0.212	0.263
-426.588	59.233	0.355	-0.349
-425.573	455.854	-0.030	0.066
-424.559	-98.314	-0.257	0.066
-423.544	-200.000	0.040	-0.273
-422.530	-144.554	0.217	-0.020
-421.515	-26.726	-0.375	0.219
-420.500	-16.696	0.108	0.068
-419.486	29.183	0.080	0.068
-418.471	-126.438	-0.151	0.022
-417.457	1.286	-0.106	0.076
-416.442	3.620	-0.213	-0.155
-415.428	-129.076	-0.259	0.036
-414.413	209.118	0.108	0.169
-413.398	76.039	0.126	0.133
-412.384	100.201	-0.252	0.291
-411.369	54.380	0.191	0.183
-410.355	477.741	0.020	-0.045
-409.340	347.537	0.031	-0.061
-408.325	72.344	0.197	0.204
-407.311	213.748	-0.148	-0.234
-406.296	-160.677	0.133	0.007
-405.282	-97.133	-0.388	-0.101
-404.267	-75.127	-0.563	0.201
-403.252	-5.099	0.182	-0.125
-402.238	-200.000	-0.001	0.284
-401.223	-147.675	0.420	-0.035
-400.209	-150.805	0.352	0.027
-399.194	380.451	-0.154	0.315
-398.179	-200.000	0.004	-0.237
-397.165	800.000	-0.120	-0.512
-396.150	-80.913	0.138	0.045
-395.136	-200.000	-0.063	0.407
-394.121	-90.787	-0.207	-0.060
-393.106	800.000	0.005	-0.020
-392.092	33.239	0.250	0.216
-391.077	-64.545	0.284	-0.115
-390.063	-150.922	-0.156	0.012
-389.048	-139.951	0.069	0.007
-388.033	-200.000	0.013	-0.351
-387.019	-57.259	-0.316	-0.138
-386.004	111.936	0.293	-0.353
-384.990	-200.000	0.002	-0.194
-383.975	-145.111	-0.046	0.004
-382.960	800.000	0.057	-0.247
-381.946	-200.000	0.008	-0.143
-380.931	-164.042	-0.136	0.006
-379.917	44.316	0.042	0.038
-378.902	621.627	0.093	0.233
-377.888	-76.164	-0.036	0.013
-376.873	-40.568	-0.478	0.247
-375.858	-112.733	-0.072	0.014
-374.844	50.070	0.055	-0.051
-373.829	-183.486	-0.126	-0.002
-372.815	-5.137	0.078	0.054
-371.800	-63.686	-0.294	-0.120
-370.785	39.060	0.088	-0.078
-369.771	531.876	-0.100	0.235
-368.756	735.702	-0.026	0.068
-367.742	-87.350	-0.270	0.081
-366.727	-200.000	0.028	0.179
-365.712	181.299	0.106	-0.156
-364.698	257.286	-0.152	-0.260
-363.683	107.466	-0.067	0.080
-362.669	800.000	0.095	-0.282
-361.654	281.267	-0.061	0.109
-360.639	-107.302	-0.112	0.025
-359.625	-121.946	-0.238	-0.039
-358.610	341.677	-0.067	-0.131
-357.596	204.587	0.107	0.165
-356.581	-40.500	-0.283	0.146
-355.566	531.517	0.101	0.238
-354.552	56.298	0.172	-0.166
-353.537	-119.002	0.152	0.026
-352.523	-200.000	0.016	0.104
-351.508	405.647	0.100	-0.209
-350.493	192.232	0.055	0.082
-349.479	561.856	-0.076	0.182
-348.464	141.040	0.033	-0.044
-347.450	-9.646	0.248	-0.164
-346.435	423.617	0.123	-0.263
-345.420	-84.516	0.138	0.043
-344.406	-63.716	0.115	-0.047
-343.391	-120.501	-0.071	0.012
-342.377	156.597	-0.158	0.217
-341.362	-121.908	-0.363	0.059
-340.348	-200.000	0.002	-0.162
-339.333	-200.000	-0.000	0.238
-338.318	-104.342	0.209	-0.048
-337.304	82.375	-0.063	0.068
-336.289	-111.881	-0.158	0.032
-335.275	69.331	-0.216	0.221
-334.260	-107.001	-0.229	0.050
-333.245	-125.368	0.153	0.023
-332.231	404.264	-0.070	-0.146
-331.216	-118.921	0.301	-0.052
-330.202	-26.635	0.189	0.110
-329.187	-3.618	0.109	-0.075
-328.172	41.491	0.147	0.132
-327.158	-112.558	0.165	0.033
-326.143	66.708	-0.251	0.254
-325.129	800.000	-0.108	0.324
-324.114	-200.000	0.000	0.244
-323.099	-200.000	0.252	-0.000
-322.085	-98.445	-0.176	-0.045
-321.070	232.992	-0.097	0.158
-320.056	-197.012	-0.295	-0.002
-319.041	-16.645	-0.265	0.166
-318.026	-47.942	0.165	-0.079
-317.012	65.359	0.126	0.127
-315.997	800.000	0.037	-0.111
-314.983	759.770	0.069	-0.185
-313.968	393.930	0.111	-0.230
-312.953	-200.000	0.042	0.000
-311.939	-92.241	0.342	0.096
-310.924	-53.896	0.069	0.031
-309.910	-134.131	-0.233	-0.029
-308.895	174.844	0.213	-0.306
-307.880	357.945	0.201	0.398
-306.866	286.606	0.081	0.144
-305.851	161.303	0.205	-0.284
-304.837	-130.915	-0.213	-0.028
-303.822	800.000	0.032	0.123
-302.807	64.989	0.038	0.038
-301.793	124.808	0.114	-0.142
-300.778	-28.664	0.115	0.065
-299.764	57.861	-0.050	-0.049
-298.749	304.018	-0.114	-0.210
-297.735	-85.458	-0.244	-0.075
-296.720	399.545	-0.080	-0.166
-295.705	-113.079	0.431	-0.084
-294.691	251.997	-0.064	0.108
-293.676	-158.534	0.168	-0.010
-292.662	-200.000	-0.002	0.191
-291.647	-50.051	0.044	-0.021
-290.632	154.100	0.075	0.102
-289.618	2.757	0.307	-0.221
-288.603	-197.365	0.127	0.001
-287.589	7.490	-0.095	0.070
-286.574	-185.950	-0.502	-0.007
-285.559	-95.937	0.403	0.107
-284.545	147.859	0.057	0.076
-283.530	-132.103	0.116	-0.015
-282.516	68.513	0.185	0.188
-281.501	800.000	-0.047	0.198
-280.486	57.683	0.179	-0.173
-279.472	171.885	0.055	-0.078
-278.457	339.082	-0.071	0.137
-277.443	-200.000	-0.011	-0.064
-276.428	-100.831	0.105	0.026
-275.413	-86.738	0.068	0.021
-274.399	800.000	0.118	0.502
-273.384	-200.000	-0.002	-0.076
-272.370	-7.356	0.167	0.112
-271.355	527.115	0.078	-0.183
-270.340	19.435	0.039	-0.031
-269.326	147.980	0.104	-0.139
-268.311	6.314	0.121	0.089
-267.297	67.042	0.086	-0.086
-266.282	51.024	0.245	0.230
-265.267	127.298	0.117	-0.148
-264.253	800.000	0.087	-0.357
-263.238	43.081	0.044	-0.040
-262.224	0.826	0.091	0.064
-261.209	92.633	0.141	0.158
-260.195	-141.968	0.310	0.031
-259.180	16.920	0.244	0.191
-258.165	782.360	-0.109	0.296
-257.151	-200.000	0.019	0.436
-256.136	-45.573	-0.540	-0.265
-255.122	65.210	-0.075	0.075
-254.107	83.731	0.238	0.257
-253.092	-200.000	0.031	-0.196
-252.078	-78.718	-0.104	-0.035
-251.063	295.363	-0.074	0.135
-250.049	13.292	0.269	0.206
-249.034	98.121	-0.150	0.171
-248.019	-9.886	-0.237	-0.156
-247.005	104.599	0.202	0.235
-245.990	-104.338	0.409	-0.094
-244.976	800.000	-0.030	0.097
-243.961	45.542	-0.103	0.094
-242.946	-200.000	-0.001	0.006
-241.932	-200.000	0.007	-0.123
-240.917	25.484	0.105	0.086
-239.903	-82.480	-0.427	0.137
-238.888	-159.066	0.112	0.006
-237.873	-108.873	-0.071	0.015
-236.859	-42.594	0.175	0.088
-235.844	-200.000	0.007	-0.234
-234.830	161.123	-0.043	0.059
-233.815	-200.000	0.028	-0.355
-232.800	54.560	-0.129	0.123
-231.786	21.323	0.019	0.015
-230.771	-200.000	0.006	0.111
-229.757	532.230	-0.085	0.199
-228.742	-200.000	0.019	0.111
-227.727	800.000	-0.164	0.459
-226.713	197.057	-0.108	-0.162
-225.698	85.640	-0.225	0.245
-224.684	72.916	-0.101	0.104
-223.669	-200.000	0.002	-0.103
-222.655	34.210	-0.088	0.076
-221.640	-142.439	-0.178	-0.017
-220.625	-200.000	-0.016	-0.140
-219.611	-49.093	-0.179	-0.084
-218.596	-200.000	-0.026	0.203
-217.582	325.708	0.046	0.086
-216.567	562.289	-0.008	0.020
-215.552	-61.053	0.091	-0.038
-214.538	673.958	0.044	0.113
-213.523	176.033	-0.123	-0.176
-212.509	404.334	0.053	-0.109
-211.494	401.497	0.110	-0.227
-210.479	-69.899	0.208	-0.079
-209.465	349.079	0.143	0.279
-208.450	800.000	0.060	-0.255
-207.436	-63.561	0.301	0.122
-206.421	800.000	-0.052	-0.214
-205.406	800.000	-0.105	0.335
-204.392	106.442	-0.138	0.162
-203.377	-33.285	-0.021	0.012
-202.363	-50.187	-0.067	-0.031
-201.348	-122.787	0.243	-0.039
-200.333	-118.527	0.010	-0.002
-199.319	-39.590	0.303	-0.157
-198.304	323.927	0.135	-0.254
-197.290	74.075	0.123	0.127
-196.275	196.253	-0.098	0.148
-195.260	-97.481	0.254	0.065
-194.246	203.694	0.071	-0.108
-193.231	-178.040	0.131	-0.003
-192.217	92.962	-0.135	0.151
-191.202	114.875	-0.089	-0.108
-190.187	421.574	-0.119	-0.253
-189.173	-82.070	-0.164	0.053
-188.158	41.569	-0.230	-0.206
-187.144	-107.018	0.271	0.059
-186.129	-17.826	0.058	0.036
-185.114	2.792	-0.150	0.107
-184.100	-24.320	0.049	-0.029
-183.085	800.000	-0.036	-0.138
-182.071	482.581	0.021	-0.048
-181.056	800.000	0.048	0.199
-180.042	-200.000	-0.010	-0.364
-179.027	-200.000	-0.006	-0.107
-178.012	-200.000	0.241	0.000
-176.998	376.203	-0.157	-0.316
-175.983	4.278	0.189	0.137
-174.969	179.088	0.190	-0.274
-173.954	-200.000	-0.041	0.215
-172.939	361.438	0.051	0.101
-171.925	-131.347	-0.350	0.046
-170.910	53.188	0.139	-0.131
-169.896	-200.000	-0.063	-0.453
-168.881	7.926	-0.085	0.063
-167.866	12.497	0.271	0.206
-166.852	-119.681	0.320	-0.055
-165.837	-62.462	-0.126	-0.052
-164.823	205.268	-0.133	0.204
-163.808	-59.972	-0.126	0.053
-162.793	405.558	-0.131	-0.272
-161.779	304.521	-0.035	-0.064
-160.764	-118.775	0.113	-0.020
-159.750	794.143	-0.084	0.229
-158.735	281.468	0.073	-0.129
-157.720	-200.000	-0.010	0.541
-156.706	-54.904	0.432	0.192
-155.691	206.559	-0.124	0.190
-154.677	-29.957	-0.051	0.029
-153.662	-111.283	-0.325	0.066
-152.647	-53.320	-0.092	0.042
-151.633	-160.293	0.097	-0.005
-150.618	84.961	-0.064	0.070
-149.604	389.071	0.152	0.311
-148.589	460.264	0.131	-0.287
-147.574	-103.393	0.120	0.028
-146.560	29.007	0.068	0.057
-145.545	-32.289	-0.179	-0.098
-144.531	-98.199	-0.050	-0.013
-143.516	-200.000	-0.039	0.170
-142.502	-200.000	-0.018	-0.105
-141.487	-154.457	-0.363	-0.024
-140.472	-87.414	-0.161	-0.048
-139.458	-200.000	0.007	0.085
-138.443	-200.000	0.056	-0.364
-137.429	-76.560	-0.136	0.047
-136.414	-36.143	-0.316	-0.168
-135.399	-9.765	-0.364	-0.239
-134.385	-21.240	0.283	0.171
-133.370	97.708	0.183	0.207
-132.356	800.000	-0.048	-0.163
-131.341	-177.159	-0.168	-0.004
-130.326	-200.000	-0.058	-0.318
-129.312	-66.192	-0.234	-0.092
-128.297	800.000	0.065	-0.270
-127.283	187.251	-0.221	-0.325
-126.268	-200.000	-0.045	-0.276
-125.253	-200.000	-0.009	0.126
-124.239	-200.000	-0.007	-0.103
-123.224	12.382	0.092	0.070
-122.210	-200.000	-0.030	0.237
-121.195	238.638	-0.054	0.089
-120.180	-200.000	0.035	-0.308
-119.166	74.246	-0.134	-0.138
-118.151	-105.636	0.080	-0.018
-117.137	-200.000	-0.048	-0.322
-116.122	183.510	-0.195	-0.283
-115.107	97.341	-0.041	0.047
-114.093	56.799	0.102	-0.098
-113.078	-14.447	0.138	0.088
-112.064	311.089	-0.076	-0.141
-111.049	800.000	-0.108	0.385
-110.034	-50.958	0.182	0.084
-109.020	-200.000	0.020	-0.128
-108.005	-200.000	-0.021	0.143
-106.991	329.624	0.107	-0.203
-105.976	-74.926	0.283	0.100
-104.962	26.222	-0.183	-0.151
-103.947	-62.692	0.051	0.021
-102.932	800.000	-0.045	0.171
-101.918	-54.998	-0.258	0.114
-100.903	-69.345	0.278	0.105
-99.889	-61.204	0.078	0.032
-98.874	406.040	0.049	0.103
-97.859	-200.000	0.004	0.044
-96.845	505.881	-0.101	0.231
-95.830	271.523	0.033	0.057
-94.816	249.208	-0.211	-0.352
-93.801	-15.022	0.405	-0.255
-92.786	800.000	0.035	-0.126
-91.772	623.730	-0.101	0.249
-90.757	-76.020	0.257	0.089
-89.743	-33.619	-0.271	-0.147
-88.728	800.000	0.098	-0.276
-87.713	280.958	0.102	0.180
-86.699	-70.898	-0.099	0.037
-85.684	-200.000	0.011	-0.137
-84.670	-76.816	0.202	0.069
-83.655	-200.000	-0.023	-0.229
-82.640	-200.000	0.095	-0.442
-81.626	800.000	0.062	-0.184
-80.611	-200.000	-0.018	-0.082
-79.597	-200.000	0.023	-0.339
-78.582	-200.000	-0.007	0.282
-77.567	8.902	0.184	-0.137
-76.553	-25.075	-0.178	-0.104
-75.538	-32.753	0.172	0.094
-74.524	-200.000	-0.043	0.245
-73.509	517.244	0.071	0.164
-72.494	26.603	-0.203	-0.167
-71.480	158.393	0.131	-0.179
-70.465	-200.000	-0.020	0.206
-69.451	-78.166	0.327	0.111
-68.436	-17.022	0.245	-0.152
-67.422	163.733	-0.129	-0.178
-66.407	800.000	-0.022	-0.065
-65.392	-2.738	0.411	0.283
-64.378	785.720	0.067	-0.181
-63.363	-38.626	0.415	-0.215
-62.349	-112.020	0.301	-0.060
-61.334	209.562	-0.697	-1.074
-60.319	-1.176	0.570	0.396
-59.305	-200.000	-0.246	-1.315
-58.290	102.071	0.681	0.782
-57.276	800.000	0.513	1.423
-56.261	-200.000	96.108	595.224
-55.246	568.639	1374.158	3280.944
-54.232	160.120	2561.525	3508.001
-53.217	106.828	2271.846	2649.499
-52.203	41.624	1897.622	1688.477
-51.188	35.438	1687.333	1454.602
-50.173	32.769	1643.259	1396.816
-49.159	50.279	1689.747	1568.105
-48.144	52.006	1705.543	1595.653
-47.130	35.084	1666.695	1433.932
-46.115	32.304	1652.398	1400.895
-45.100	32.203	1647.126	1395.618
-44.086	32.067	1644.647	1392.453
-43.071	32.023	1642.251	1390.044
-42.057	32.034	1639.876	1388.060
-41.042	32.090	1637.571	1386.473
-40.027	32.043	1636.056	1384.784
-39.013	32.073	1634.210	1383.389
-37.998	31.935	1633.114	1381.393
-36.984	32.009	1631.272	1380.325
-35.969	32.150	1630.200	1380.392
-34.954	32.159	1628.408	1378.889
-33.940	32.172	1626.112	1376.985
-32.925	32.084	1624.891	1375.250
-31.911	32.153	1623.041	1374.136
-30.896	32.143	1620.939	1372.229
-29.881	32.161	1619.325	1370.938
-28.867	32.184	1617.783	1369.747
-27.852	32.224	1616.112	1368.570
-26.838	32.073	1614.753	1366.269
-25.823	32.151	1613.034	1365.327
-24.809	32.189	1612.279	1364.905
-23.794	32.215	1610.513	1363.551
-22.779	32.181	1609.031	1361.990
-21.765	32.189	1607.629	1360.808
-20.750	32.198	1605.808	1359.276
-19.736	32.272	1604.631	1358.762
-18.721	32.262	1603.445	1357.630
-17.706	32.294	1601.542	1356.200
-16.692	32.248	1599.951	1354.464
-15.677	32.154	1598.618	1352.608
-14.663	32.254	1597.230	1352.100
-13.648	32.298	1595.887	1351.226
-12.633	32.138	1594.970	1349.243
-11.619	32.165	1593.208	1347.895
-10.604	32.245	1591.298	1346.796
-9.590	32.197	1590.573	1345.788
-8.575	32.174	1588.970	1344.211
-7.560	32.183	1587.834	1343.267
-6.546	32.285	1586.214	1342.570
-5.531	32.280	1585.354	1341.754
-4.517	32.177	1584.123	1339.925
-3.502	32.236	1582.615	1339.014
-2.487	32.179	1581.486	1337.600
-1.473	31.970	1570.167	1326.493
-0.458	29.366	1550.857	1291.921
0.556	25.863	1551.396	1261.998
1.571	23.588	1575.326	1265.150
2.586	23.170	1588.544	1272.648
3.600	20.207	1534.374	1208.529
4.615	10.950	1422.306	1060.095
5.629	2.904	1358.188	961.974
6.644	1.731	1349.491	948.424
7.659	1.550	1348.704	946.663
8.673	1.493	1347.524	945.395
9.688	1.576	1344.901	943.989
10.702	1.220	1342.378	939.925
11.717	4.559	1349.307	965.460
12.731	14.733	1368.302	1042.783
13.746	23.408	1383.227	1108.575
14.761	25.870	1386.253	1126.311
15.775	26.103	1386.682	1128.015
16.790	26.309	1385.780	1128.467
17.804	26.395	1385.274	1128.493
18.819	26.646	1385.097	1129.815
19.834	26.709	1384.500	1129.620
20.848	26.751	1383.578	1129.031
21.863	26.684	1383.269	1128.260
22.877	26.762	1381.909	1127.535
23.892	26.697	1381.277	1126.517
24.907	26.755	1380.017	1125.749
25.921	26.739	1379.330	1124.993
26.936	26.734	1378.560	1124.230
27.950	26.782	1377.196	1123.317
28.965	26.744	1375.925	1121.949
29.980	26.750	1374.602	1120.805
30.994	26.726	1373.384	1119.568
32.009	26.713	1372.416	1118.598
33.023	26.834	1371.624	1118.599
34.038	26.714	1370.520	1116.858
35.053	26.706	1370.004	1116.290
36.067	26.641	1368.928	1114.916
37.082	26.751	1367.724	1114.510
38.096	26.714	1366.990	1113.589
39.111	26.711	1366.119	1112.762
40.126	26.688	1365.541	1112.054
41.140	26.660	1364.828	1111.200
42.155	26.768	1364.636	1111.607
43.169	26.708	1364.536	1111.059
44.184	26.712	1364.263	1110.765
45.199	26.687	1364.135	1110.409
46.213	26.719	1363.468	1109.964
47.228	26.728	1362.314	1108.978
48.242	26.732	1360.920	1107.772
49.257	26.782	1359.589	1106.898
50.271	26.702	1358.429	1105.368
51.286	26.770	1356.823	1104.373
52.301	26.770	1355.669	1103.335
53.315	26.729	1354.991	1102.440
54.330	26.769	1353.814	1101.630
55.344	26.716	1352.660	1100.271
56.359	26.719	1351.820	1099.506
57.374	26.767	1350.956	1098.996
58.388	26.709	1350.618	1098.275
59.403	26.690	1350.489	1097.958
60.417	26.776	1349.048	1097.209
61.432	26.764	1348.430	1096.538
62.447	26.652	1347.954	1095.376
63.461	26.690	1346.452	1094.290
64.476	26.836	1345.563	1094.350
65.490	26.730	1344.817	1093.004
66.505	26.705	1343.535	1091.716
67.520	26.700	1342.110	1090.430
68.534	26.769	1340.705	1089.612
69.549	26.742	1339.969	1088.750
70.563	26.737	1339.033	1087.866
71.578	26.818	1337.981	1087.399
72.593	26.767	1337.475	1086.587
73.607	26.790	1336.678	1085.980
74.622	26.726	1335.967	1084.926
75.636	26.817	1335.266	1084.804
76.651	26.905	1334.042	1084.240
77.666	26.792	1333.944	1083.391
78.680	26.686	1333.994	1082.700
79.695	26.750	1333.021	1082.199
80.709	26.712	1332.116	1081.137
81.724	26.762	1330.833	1080.298
82.739	26.818	1329.730	1079.640
83.753	26.652	1329.824	1078.633
84.768	26.677	1328.293	1077.448
85.782	26.814	1326.679	1076.856
86.797	26.763	1325.928	1075.851
87.812	26.763	1324.946	1074.954
88.826	26.784	1324.000	1074.217
89.841	26.831	1322.907	1073.511
90.855	26.900	1321.757	1072.892
91.870	26.792	1320.816	1071.395
92.884	26.900	1320.124	1071.377
93.899	26.756	1319.564	1069.977
94.914	26.832	1319.088	1069.945
95.928	26.922	1317.756	1069.302
96.943	26.796	1317.527	1068.282
97.957	26.889	1316.128	1067.597
98.972	26.881	1315.698	1067.111
99.987	26.838	1314.686	1065.938
101.001	26.842	1313.950	1065.270
102.016	26.760	1312.642	1063.636
103.030	26.889	1311.918	1063.709
104.045	26.789	1311.273	1062.509
105.060	26.920	1310.035	1062.181
106.074	26.971	1309.400	1061.870
107.089	26.880	1307.897	1060.021
108.103	26.805	1307.468	1059.141
109.118	26.890	1306.223	1058.539
110.133	26.969	1304.910	1057.840
111.147	26.875	1304.224	1056.645
112.162	26.956	1302.846	1055.905
113.176	26.869	1302.376	1054.925
114.191	26.896	1300.999	1053.872
115.206	26.896	1300.171	1053.111
116.220	26.863	1299.288	1052.110
117.235	26.813	1298.825	1051.352
118.249	26.834	1297.711	1050.480
119.264	26.895	1296.554	1049.803
120.279	26.918	1296.141	1049.510
121.293	26.964	1295.375	1049.058
122.308	26.910	1294.565	1048.002
123.322	26.906	1293.871	1047.320
124.337	26.918	1292.669	1046.322
125.352	26.997	1291.921	1046.083
126.366	26.936	1291.098	1044.970
127.381	26.972	1290.350	1044.479
128.395	26.970	1289.077	1043.349
129.410	26.932	1288.438	1042.517
130.424	26.807	1288.199	1041.513
131.439	26.873	1286.745	1040.626
132.454	26.985	1286.079	1040.637
133.468	26.936	1285.065	1039.443
134.483	26.891	1285.136	1039.154
135.497	26.945	1283.981	1038.434
136.512	26.967	1283.013	1037.688
137.527	26.951	1281.764	1036.492
138.541	26.889	1280.859	1035.315
139.556	26.849	1279.324	1033.757
140.570	26.960	1278.602	1033.713
141.585	26.843	1277.735	1032.255
142.600	27.064	1276.170	1032.154
143.614	26.965	1275.650	1031.079
144.629	26.807	1274.837	1029.433
145.643	26.897	1273.838	1029.046
146.658	26.786	1272.787	1027.477
147.673	26.881	1271.702	1027.048
148.687	26.804	1270.977	1025.936
149.702	26.756	1269.844	1024.660
150.716	26.895	1268.511	1024.278
151.731	26.814	1267.819	1023.173
152.746	26.862	1267.161	1022.825
153.760	26.996	1265.444	1022.099
154.775	26.955	1264.650	1021.138
155.789	26.934	1263.675	1020.140
156.804	26.895	1263.072	1019.347
157.819	26.929	1262.439	1018.933
158.833	26.918	1261.310	1017.871
159.848	26.905	1261.086	1017.530
160.862	26.979	1259.813	1016.826
161.877	26.928	1259.290	1016.032
162.892	27.030	1258.455	1015.835
163.906	27.019	1257.800	1015.156
164.921	27.095	1256.953	1014.809
165.935	27.012	1256.427	1013.830
166.950	27.092	1255.574	1013.498
167.964	27.009	1255.092	1012.558
168.979	27.028	1254.684	1012.246
169.994	27.068	1254.052	1011.865
171.008	27.004	1253.247	1010.768
172.023	27.130	1252.139	1010.486
173.037	27.042	1252.073	1009.860
174.052	27.044	1251.285	1009.143
175.067	27.052	1250.457	1008.430
176.081	27.047	1249.253	1007.344
177.096	26.905	1248.641	1005.973
178.110	27.015	1247.930	1005.920
179.125	27.010	1247.179	1005.196
180.140	27.056	1245.855	1004.296
181.154	27.033	1244.835	1003.260
182.169	27.114	1243.675	1002.679
183.183	27.029	1242.780	1001.404
184.198	26.995	1241.969	1000.473
185.213	27.082	1240.668	999.815
186.227	27.118	1239.838	999.254
187.242	27.179	1238.960	998.797
188.256	27.103	1238.124	997.618
189.271	27.055	1237.595	996.836
190.286	27.177	1236.787	996.769
191.300	27.196	1235.751	995.948
192.315	27.039	1235.604	994.884
193.329	27.151	1235.032	994.944
194.344	27.161	1235.021	994.903
195.359	27.221	1234.366	994.619
196.373	27.220	1233.320	993.679
197.388	27.074	1233.312	992.787
198.402	27.140	1233.068	992.867
199.417	27.133	1232.493	992.279
200.432	27.057	1232.072	991.433
201.446	27.171	1231.357	991.396
202.461	27.118	1230.796	990.565
203.475	27.151	1230.116	990.107
204.490	27.138	1228.631	988.756
205.504	27.077	1227.906	987.755
206.519	27.168	1227.110	987.522
207.534	27.156	1226.013	986.486
208.548	27.386	1224.657	986.552
209.563	27.187	1224.237	985.049
210.577	27.244	1223.512	984.686
211.592	27.240	1222.525	983.782
212.607	27.270	1221.766	983.249
213.621	27.293	1221.112	982.758
214.636	27.258	1220.586	982.060
215.650	27.377	1219.752	981.947
216.665	27.375	1218.363	980.727
217.680	27.258	1218.011	979.729
218.694	27.302	1217.092	979.136
219.709	27.345	1216.158	978.535
220.723	27.335	1215.369	977.755
221.738	27.363	1214.983	977.509
222.753	27.251	1213.970	976.010
223.767	27.253	1213.803	975.797
224.782	27.317	1213.097	975.485
225.796	27.329	1212.440	974.939
226.811	27.315	1212.412	974.754
227.826	27.332	1211.621	974.120
228.840	27.405	1211.245	974.125
229.855	27.367	1210.126	972.937
230.869	27.340	1209.407	972.127
231.884	27.340	1208.898	971.630
232.899	27.287	1207.935	970.488
233.913	27.402	1207.478	970.648
234.928	27.396	1207.431	970.495
235.942	27.474	1206.370	969.970
236.957	27.415	1205.585	968.940
237.972	27.390	1205.438	968.603
238.986	27.422	1204.554	967.979
240.001	27.413	1204.129	967.502
241.015	27.479	1203.068	966.915
242.030	27.559	1202.250	966.597
243.045	27.441	1201.502	965.284
244.059	27.552	1200.584	965.045
245.074	27.583	1199.729	964.439
246.088	27.532	1199.483	963.884
247.103	27.549	1198.569	963.157
248.117	27.442	1197.472	961.626
249.132	27.584	1196.510	961.516
250.147	27.595	1196.116	961.169
251.161	27.674	1195.330	960.871
252.176	27.565	1194.586	959.613
253.190	27.643	1194.453	959.833
254.205	27.536	1193.751	958.624
255.220	27.559	1193.164	958.186
256.234	27.648	1192.641	958.150
257.249	27.582	1191.918	957.137
258.263	27.625	1191.106	956.627
259.278	27.606	1190.777	956.178
260.293	27.545	1190.530	955.575
261.307	27.627	1189.933	955.443
262.322	27.738	1188.938	955.137
263.336	27.646	1188.180	953.964
264.351	27.695	1187.706	953.752
265.366	27.660	1186.993	952.916
266.380	27.642	1186.585	952.411
267.395	27.707	1185.964	952.165
268.409	27.660	1184.996	951.061
269.424	27.681	1184.732	950.871
270.439	27.688	1184.350	950.518
271.453	27.773	1183.473	950.170
272.468	27.664	1182.744	948.936
273.482	27.693	1181.939	948.355
274.497	27.806	1181.389	948.420
275.512	27.815	1180.895	947.984
276.526	27.854	1180.425	947.727
277.541	27.730	1179.905	946.584
278.555	27.851	1179.275	946.620
279.570	27.865	1178.252	945.786
280.585	27.823	1177.488	944.872
281.599	27.774	1176.583	943.810
282.614	27.653	1176.270	942.850
283.628	27.782	1175.421	942.750
284.643	27.902	1174.023	942.167
285.657	27.832	1173.736	941.491
286.672	27.907	1172.343	940.677
287.687	28.009	1171.165	940.173
288.701	28.025	1170.938	939.990
289.716	27.946	1170.355	939.035
290.730	27.918	1169.707	938.287
291.745	28.014	1168.968	938.106
292.760	27.938	1168.748	937.452
293.774	27.829	1168.607	936.697
294.789	28.008	1167.489	936.635
295.803	27.978	1166.836	935.877
296.818	27.996	1166.421	935.552
297.833	27.919	1165.898	934.659
298.847	28.071	1165.098	934.709
299.862	28.013	1164.317	933.703
300.876	28.055	1163.417	933.115
301.891	28.145	1162.779	932.978
302.906	28.100	1162.345	932.322
303.920	28.157	1161.301	931.690
304.935	28.132	1161.031	931.264
305.949	28.036	1160.700	930.424
306.964	28.049	1159.708	929.614
307.979	28.057	1159.182	929.152
308.993	28.195	1158.693	929.378
310.008	28.100	1157.916	928.190
311.022	28.118	1157.267	927.681
312.037	28.083	1156.799	927.045
313.052	28.086	1155.489	925.928
314.066	28.069	1154.851	925.251
315.081	28.221	1153.797	925.092
316.095	28.078	1153.841	924.322
317.110	28.161	1153.006	923.988
318.125	28.229	1152.100	923.527
319.139	28.140	1151.615	922.607
320.154	28.157	1150.976	922.101
321.168	28.158	1150.547	921.677
322.183	28.117	1149.859	920.838
323.197	28.132	1149.293	920.380
324.212	28.218	1148.692	920.249
325.227	28.276	1148.217	920.078
326.241	28.172	1148.127	919.403
327.256	28.125	1147.439	918.537
328.270	28.320	1146.414	918.611
329.285	28.247	1145.443	917.386
330.300	28.334	1144.629	917.089
331.314	28.395	1143.633	916.514
332.329	28.376	1143.163	915.960
333.343	28.320	1142.343	914.944
334.358	28.320	1141.671	914.326
335.373	28.238	1141.275	913.517
336.387	28.384	1140.119	913.240
337.402	28.415	1139.559	912.864
338.416	28.484	1139.038	912.710
339.431	28.339	1138.537	911.508
340.446	28.400	1137.814	911.151
341.460	28.501	1137.121	911.017
342.475	28.508	1136.177	910.215
343.489	28.533	1135.603	909.797
344.504	28.464	1134.773	908.708
345.519	28.527	1133.667	908.054
346.533	28.548	1132.964	907.518
347.548	28.431	1132.518	906.499
348.562	28.528	1131.796	906.323
349.577	28.451	1131.317	905.479
350.592	28.407	1130.503	904.526
351.606	28.412	1129.905	903.995
352.621	28.405	1129.489	903.545
353.635	28.588	1128.541	903.609
354.650	28.610	1127.699	902.965
355.665	28.660	1126.955	902.535
356.679	28.607	1126.546	901.869
357.694	28.767	1125.703	901.896
358.708	28.535	1125.651	900.637
359.723	28.578	1124.541	899.878
360.738	28.498	1124.398	899.292
361.752	28.535	1123.946	899.035
362.767	28.570	1123.227	898.552
363.781	28.679	1122.900	898.742
364.796	28.635	1122.261	897.939
365.810	28.726	1121.213	897.464
366.825	28.628	1120.852	896.618
367.840	28.710	1120.436	896.607
368.854	28.744	1119.787	896.173
369.869	28.835	1119.012	895.917
370.883	28.874	1117.932	895.162
371.898	28.851	1117.368	894.522
372.913	28.767	1116.741	893.531
373.927	28.836	1116.551	893.635
374.942	28.843	1115.684	892.895
375.956	28.895	1115.547	892.957
376.971	28.909	1114.799	892.350
377.986	28.943	1114.336	892.067
379.000	28.879	1113.960	891.374
380.015	28.952	1112.737	890.669
381.029	28.903	1112.580	890.227
382.044	28.952	1111.900	889.841
383.059	29.062	1111.075	889.635
384.073	29.000	1110.635	888.905
385.088	28.913	1109.875	887.798
386.102	28.954	1109.168	887.353
387.117	28.860	1108.125	885.988
388.132	28.951	1107.149	885.567
389.146	28.941	1106.978	885.303
390.161	28.976	1106.004	884.615
391.175	28.910	1105.411	883.742
392.190	28.943	1104.931	883.438
393.205	29.030	1103.939	882.989
394.219	29.029	1103.663	882.684
395.234	29.019	1102.843	881.902
396.248	28.971	1101.803	880.760
397.263	29.050	1100.914	880.352
398.278	29.110	1100.536	880.258
399.292	29.130	1100.160	879.974
400.307	29.163	1099.075	879.186
401.321	29.096	1098.886	878.636
402.336	29.074	1097.927	877.689
403.350	29.047	1097.477	877.122
404.365	29.181	1096.805	877.148
405.380	29.099	1096.614	876.525
406.394	29.164	1095.508	875.870
407.409	29.296	1094.554	875.661
408.423	29.362	1093.585	875.120
409.438	29.349	1093.089	874.582
410.453	29.433	1092.644	874.546
411.467	29.397	1091.915	873.719
412.482	29.365	1091.045	872.791
413.496	29.376	1090.395	872.246
414.511	29.355	1089.737	871.544
415.526	29.386	1089.541	871.457
416.540	29.342	1089.557	871.182
417.555	29.260	1088.654	870.000
418.569	29.410	1088.354	870.387
419.584	29.355	1087.978	869.751
420.599	29.464	1087.093	869.482
421.613	103.375	1323.105	1459.960
422.628	96.237	1357.468	1460.084
