DTS Sentinel unit serial number:	SN413079Multiplexer serial number:	ORYXHardware model number:	OX4-SRSoftware version number:	ORYX F/W v4.00 Oryx Data Collector v3.7.2.0data status	okinstallation	princeton_trtdifferential loss correction	single-endedforward channel	channel 2reverse channel	N/Adate	2019/09/16time	16:11:35forward acquisition time	60.00reverse acquisition time	0.00gamma	496.2192k internal	0.2300k external	0.2300temperature offset calibration	0.9944default loss term (dB/km)	0.3790temperature slope calibration	1.0000multiplexer offset coefficient	1.0000multiplexer slope coefficient	1.0000fibre end	0.00T internal ref (°C)	40.75T ext. ref 1 (°C)	14.95T ext. ref 2 (°C)	34.95length (m)	temperature (°C)	Stokes	anti-Stokes-747.200	-178.159	0.381	0.009
-746.185	-52.046	-0.120	-0.057
-745.171	-14.682	0.126	0.082
-744.156	-70.015	-0.149	-0.058
-743.142	141.584	-0.093	0.126
-742.127	514.473	-0.020	0.048
-741.112	-200.000	0.343	-0.000
-740.098	439.122	0.168	0.374
-739.083	800.000	0.053	0.151
-738.069	166.266	-0.163	0.236
-737.054	800.000	-0.025	0.108
-736.039	80.559	0.103	-0.113
-735.025	-137.679	-0.259	-0.030
-734.010	-200.000	0.054	0.274
-732.996	-96.513	0.211	0.057
-731.981	342.546	0.055	-0.110
-730.966	121.293	-0.206	0.261
-729.952	-200.000	-0.099	0.719
-728.937	9.043	0.403	0.310
-727.923	-121.563	0.087	0.015
-726.908	55.670	-0.014	-0.014
-725.894	88.452	-0.114	-0.129
-724.879	-24.078	0.210	0.128
-723.864	12.955	-0.036	0.028
-722.850	-106.608	0.078	0.018
-721.835	525.804	-0.088	-0.211
-720.821	-150.101	0.214	-0.017
-719.806	800.000	-0.020	0.089
-718.791	139.441	0.184	-0.247
-717.777	-167.897	-0.078	0.003
-716.762	5.284	-0.215	0.162
-715.748	-135.318	-0.079	-0.010
-714.733	-49.616	-0.280	-0.136
-713.718	-9.870	-0.200	-0.135
-712.704	-101.364	-0.215	0.053
-711.689	632.283	-0.085	0.220
-710.675	-16.355	-0.324	0.210
-709.660	-187.122	-0.095	-0.001
-708.645	-157.361	-0.196	-0.012
-707.631	-145.610	-0.337	-0.031
-706.616	278.326	-0.054	0.097
-705.602	-126.830	-0.448	0.067
-704.587	-190.499	-0.178	-0.002
-703.572	-200.000	-0.009	-0.120
-702.558	45.393	-0.165	-0.155
-701.543	-122.911	0.119	-0.020
-700.529	-86.132	-0.250	-0.079
-699.514	59.563	0.121	0.121
-698.499	124.259	-0.165	-0.211
-697.485	205.574	0.065	-0.103
-696.470	-14.110	0.039	0.026
-695.456	306.098	0.033	-0.063
-694.441	-48.110	-0.268	0.132
-693.426	-73.203	-0.098	-0.037
-692.412	-77.723	-0.228	-0.080
-691.397	440.748	-0.069	0.153
-690.383	800.000	0.034	-0.148
-689.368	-200.000	0.069	-0.470
-688.354	-200.000	-0.001	-0.193
-687.339	-200.000	0.036	0.231
-686.324	-181.386	0.120	-0.002
-685.310	-41.792	-0.131	0.068
-684.295	226.767	0.127	0.211
-683.281	-49.480	-0.135	-0.065
-682.266	-47.607	-0.206	0.102
-681.251	-64.910	-0.086	0.035
-680.237	-200.000	0.020	-0.094
-679.222	80.855	-0.102	-0.112
-678.208	800.000	-0.036	0.112
-677.193	-200.000	-0.041	-0.358
-676.178	800.000	-0.037	-0.118
-675.164	36.941	-0.202	-0.181
-674.149	-0.100	-0.309	0.224
-673.135	337.345	0.128	-0.253
-672.120	800.000	-0.141	-0.441
-671.105	117.976	-0.080	-0.100
-670.091	344.538	-0.032	0.065
-669.076	800.000	-0.035	0.106
-668.062	-138.561	-0.260	0.029
-667.047	-120.926	-0.153	-0.026
-666.032	179.102	-0.144	-0.215
-665.018	-109.060	-0.089	0.019
-664.003	-169.857	0.239	0.009
-662.989	223.797	0.162	0.265
-661.974	-101.602	-0.141	-0.035
-660.959	21.971	-0.141	0.117
-659.945	127.356	0.309	-0.398
-658.930	237.960	0.154	-0.260
-657.916	-187.298	0.401	-0.006
-656.901	-200.000	0.020	-0.229
-655.886	248.976	-0.188	-0.324
-654.872	-149.348	0.163	-0.013
-653.857	-45.595	0.433	0.218
-652.843	-200.000	-0.022	0.310
-651.828	84.353	-0.261	-0.290
-650.814	23.135	0.290	0.242
-649.799	734.411	-0.058	0.157
-648.784	-200.000	-0.055	0.314
-647.770	-8.615	-0.117	0.080
-646.755	-99.643	-0.128	0.033
-645.741	-108.414	0.403	-0.088
-644.726	-200.000	0.008	-0.075
-643.711	-121.853	-0.273	-0.046
-642.697	111.936	-0.091	0.112
-641.682	-74.059	0.204	0.075
-640.668	730.846	0.054	-0.147
-639.653	-200.000	0.034	0.198
-638.638	-200.000	-0.018	0.163
-637.624	280.807	0.068	-0.124
-636.609	169.936	-0.148	0.215
-635.595	7.485	-0.172	-0.131
-634.580	226.943	0.011	0.019
-633.565	38.326	-0.009	0.008
-632.551	36.340	0.156	0.139
-631.536	800.000	0.024	0.098
-630.522	-54.535	-0.257	-0.118
-629.507	24.699	0.176	0.148
-628.492	-85.824	0.225	-0.071
-627.478	66.106	0.232	-0.239
-626.463	-44.086	-0.239	-0.122
-625.449	-184.325	-0.221	0.004
-624.434	800.000	-0.063	0.181
-623.419	800.000	0.007	-0.022
-622.405	-69.358	-0.091	0.036
-621.390	-141.077	-0.329	-0.034
-620.376	-63.302	0.175	-0.073
-619.361	160.263	-0.105	0.148
-618.346	-33.529	-0.264	-0.148
-617.332	-200.000	-0.005	-0.244
-616.317	-200.000	0.015	-0.219
-615.303	320.987	-0.091	-0.176
-614.288	-38.034	-0.051	-0.027
-613.273	-85.928	-0.210	-0.066
-612.259	70.373	0.178	0.186
-611.244	-17.953	0.287	0.183
-610.230	-79.446	0.084	0.029
-609.215	388.600	-0.059	0.125
-608.201	289.827	-0.086	-0.157
-607.186	-23.541	0.131	-0.080
-606.171	51.362	0.202	-0.195
-605.157	-200.000	0.026	-0.359
-604.142	-200.000	0.009	-0.234
-603.128	-177.457	0.490	-0.012
-602.113	-150.393	-0.150	-0.012
-601.098	395.915	-0.103	0.218
-600.084	800.000	-0.054	-0.189
-599.069	61.330	-0.070	-0.071
-598.055	-114.581	0.267	0.052
-597.040	800.000	0.102	-0.313
-596.025	-54.684	-0.129	-0.059
-595.011	7.633	-0.042	0.032
-593.996	-129.046	-0.155	0.022
-592.982	-82.619	-0.041	0.013
-591.967	462.032	-0.049	0.110
-590.952	60.732	0.076	-0.076
-589.938	-85.323	-0.153	-0.049
-588.923	65.673	-0.203	-0.208
-587.909	-200.000	-0.054	-0.334
-586.894	61.707	-0.061	-0.062
-585.879	800.000	-0.091	-0.263
-584.865	-161.900	-0.174	-0.009
-583.850	106.689	0.207	0.249
-582.836	800.000	0.028	-0.093
-581.821	-200.000	0.028	-0.217
-580.806	-121.079	-0.066	-0.011
-579.792	159.244	0.072	-0.101
-578.777	-23.281	-0.075	-0.045
-577.763	800.000	-0.055	0.166
-576.748	800.000	0.109	0.331
-575.733	-47.380	0.335	0.165
-574.719	800.000	0.096	-0.332
-573.704	-66.749	-0.115	0.046
-572.690	110.461	-0.112	0.137
-571.675	800.000	-0.056	-0.193
-570.661	281.044	-0.094	0.171
-569.646	602.070	0.148	-0.373
-568.631	-49.383	-0.306	-0.148
-567.617	58.381	-0.117	0.116
-566.602	-78.464	-0.081	-0.028
-565.588	-36.499	-0.210	-0.114
-564.573	-200.000	-0.040	0.406
-563.558	128.238	0.092	0.118
-562.544	-146.664	-0.389	0.034
-561.529	336.803	0.102	0.200
-560.515	789.021	0.051	-0.143
-559.500	800.000	0.089	0.361
-558.485	-200.000	0.002	-0.118
-557.471	95.391	-0.227	-0.262
-556.456	-75.114	-0.119	0.043
-555.442	-153.366	0.133	-0.009
-554.427	233.258	-0.012	-0.020
-553.412	430.612	0.147	-0.323
-552.398	39.218	-0.412	0.374
-551.383	-200.000	-0.010	-0.216
-550.369	572.165	0.074	-0.181
-549.354	-200.000	0.049	0.345
-548.339	-61.598	0.103	0.044
-547.325	536.511	0.102	0.246
-546.310	-3.965	-0.105	0.074
-545.296	-72.740	0.476	-0.177
-544.281	-105.555	0.413	-0.095
-543.266	-109.136	-0.055	0.012
-542.252	-82.374	0.149	-0.049
-541.237	84.944	-0.211	0.234
-540.223	-200.000	-0.009	0.104
-539.208	122.695	0.053	0.067
-538.193	8.099	0.033	0.025
-537.179	-200.000	-0.013	-0.174
-536.164	361.720	0.034	0.069
-535.150	223.659	-0.099	-0.162
-534.135	70.535	0.162	-0.170
-533.121	-142.438	-0.194	0.019
-532.106	84.478	-0.095	0.105
-531.091	-200.000	-0.022	-0.167
-530.077	446.687	-0.084	-0.186
-529.062	500.955	0.134	-0.312
-528.048	-116.916	-0.484	0.089
-527.033	75.810	0.146	-0.157
-526.018	800.000	0.014	-0.060
-525.004	81.921	0.193	0.212
-523.989	-120.979	-0.096	-0.016
-522.975	113.746	-0.185	-0.228
-521.960	-200.000	0.044	-0.241
-520.945	-111.671	-0.208	-0.043
-519.931	-157.668	0.205	-0.012
-518.916	-170.679	-0.471	-0.016
-517.902	800.000	0.028	-0.095
-516.887	-56.898	0.431	0.192
-515.872	730.101	0.044	-0.119
-514.858	266.969	0.117	0.206
-513.843	235.012	-0.189	0.316
-512.829	-53.894	0.096	-0.044
-511.814	-107.073	-0.079	0.018
-510.799	695.894	-0.116	0.308
-509.785	-54.832	-0.365	0.167
-508.770	310.305	-0.237	-0.447
-507.756	-166.991	0.256	-0.011
-506.741	-119.935	0.233	0.041
-505.726	-200.000	-0.059	-0.526
-504.712	332.703	-0.127	0.248
-503.697	-17.196	0.270	0.172
-502.683	-8.302	-0.162	-0.110
-501.668	-105.483	-0.179	-0.041
-500.653	-142.418	-0.386	-0.038
-499.639	-41.358	0.411	0.214
-498.624	800.000	0.078	-0.312
-497.610	20.672	-0.360	-0.294
-496.595	121.691	0.215	0.270
-495.581	159.464	0.100	0.141
-494.566	800.000	0.102	-0.351
-493.551	-200.000	0.040	-0.249
-492.537	36.930	0.377	-0.336
-491.522	-36.297	-0.315	-0.171
-490.508	800.000	0.104	0.380
-489.493	341.055	0.083	0.164
-488.478	-50.578	0.138	0.066
-487.464	782.563	-0.012	0.034
-486.449	64.928	0.124	0.126
-485.435	172.945	0.078	-0.113
-484.420	21.501	-0.043	0.035
-483.405	361.923	0.041	-0.083
-482.391	148.017	0.159	-0.217
-481.376	-31.799	0.205	-0.116
-480.362	112.707	0.073	-0.090
-479.347	800.000	0.104	-0.299
-478.332	-59.329	-0.214	0.093
-477.318	-161.454	-0.234	-0.012
-476.303	-200.000	-0.015	0.155
-475.289	-119.113	0.309	0.055
-474.274	277.239	0.024	-0.043
-473.259	-23.526	0.217	-0.131
-472.245	-144.422	-0.241	0.023
-471.230	-200.000	0.000	0.119
-470.216	-60.530	-0.187	-0.080
-469.201	-165.934	0.185	0.008
-468.186	-50.675	0.241	0.115
-467.172	800.000	0.103	0.305
-466.157	83.119	-0.298	0.328
-465.143	-58.447	-0.158	-0.069
-464.128	800.000	0.067	-0.198
-463.113	697.530	0.097	-0.257
-462.099	800.000	0.052	0.211
-461.084	-200.000	0.003	0.048
-460.070	-105.576	0.231	-0.053
-459.055	800.000	-0.075	-0.278
-458.040	-200.000	0.021	0.192
-457.026	-190.297	0.091	0.001
-456.011	-155.149	0.110	-0.007
-454.997	-133.553	0.122	-0.015
-453.982	800.000	0.074	-0.297
-452.968	-94.221	-0.108	-0.030
-451.953	99.847	0.280	-0.327
-450.938	227.177	0.051	-0.083
-449.924	148.139	0.070	-0.095
-448.909	441.114	0.094	-0.207
-447.895	-45.395	-0.276	0.138
-446.880	-200.000	0.021	0.135
-445.865	-150.913	-0.197	0.015
-444.851	-52.066	-0.256	-0.120
-443.836	-94.443	-0.096	0.026
-442.822	-128.408	0.179	-0.026
-441.807	-123.158	-0.313	-0.051
-440.792	46.649	-0.087	0.081
-439.778	-200.000	-0.019	0.419
-438.763	800.000	0.051	0.161
-437.749	-28.871	-0.375	0.217
-436.734	800.000	0.030	-0.105
-435.719	-200.000	0.015	-0.206
-434.705	365.221	-0.133	-0.270
-433.690	-118.213	-0.101	-0.018
-432.676	800.000	0.131	0.476
-431.661	-200.000	-0.011	-0.072
-430.646	-200.000	-0.004	0.079
-429.632	-71.766	-0.331	0.124
-428.617	800.000	-0.081	0.298
-427.603	-200.000	-0.017	0.145
-426.588	-12.721	-0.036	0.024
-425.573	71.005	-0.030	-0.031
-424.559	-7.777	-0.035	0.024
-423.544	-44.530	-0.223	0.112
-422.530	-200.000	-0.032	-0.262
-421.515	-31.276	0.192	-0.109
-420.500	117.313	-0.190	-0.235
-419.486	212.151	0.252	0.399
-418.471	612.225	-0.053	0.133
-417.457	54.046	0.192	-0.186
-416.442	-78.068	-0.274	0.095
-415.428	-185.868	-0.167	-0.003
-414.413	-200.000	-0.026	0.204
-413.398	72.871	-0.138	0.145
-412.384	-95.164	0.187	0.051
-411.369	650.684	0.060	0.155
-410.355	295.325	-0.228	0.421
-409.340	-78.928	0.287	0.098
-408.325	351.129	0.170	-0.339
-407.311	-0.123	-0.181	-0.130
-406.296	800.000	-0.059	0.230
-405.282	-142.744	0.151	0.015
-404.267	52.404	-0.117	-0.113
-403.252	-200.000	-0.006	-0.052
-402.238	-14.583	0.065	0.042
-401.223	371.489	-0.037	-0.076
-400.209	-58.964	-0.140	0.061
-399.194	349.266	0.120	-0.238
-398.179	-47.718	-0.374	0.183
-397.165	-200.000	-0.036	-0.177
-396.150	800.000	0.026	0.112
-395.136	-200.000	-0.003	0.152
-394.121	-152.695	-0.255	-0.018
-393.106	186.786	-0.074	0.111
-392.092	67.854	-0.025	-0.026
-391.077	-96.460	0.100	0.027
-390.063	92.160	-0.119	0.134
-389.048	21.146	0.295	0.241
-388.033	47.089	-0.137	-0.128
-387.019	800.000	0.018	-0.060
-386.004	159.814	0.027	0.038
-384.990	101.028	-0.277	-0.325
-383.975	188.996	0.199	0.300
-382.960	-200.000	-0.063	0.466
-381.946	-21.471	-0.117	0.072
-380.931	49.523	0.063	0.060
-379.917	-18.630	0.102	0.064
-378.902	26.120	-0.085	-0.072
-377.888	228.164	-0.164	0.269
-376.873	28.032	0.243	-0.206
-375.858	165.994	-0.166	0.237
-374.844	165.454	0.252	0.358
-373.829	-200.000	0.047	0.364
-372.815	67.791	-0.047	-0.048
-371.800	104.939	0.036	-0.043
-370.785	26.551	0.139	-0.117
-369.771	107.996	0.099	-0.119
-368.756	40.844	-0.176	-0.159
-367.742	-200.000	-0.058	-0.374
-366.727	9.040	0.109	0.083
-365.712	62.191	-0.101	-0.101
-364.698	144.112	-0.041	-0.055
-363.683	-6.425	-0.275	-0.188
-362.669	-200.000	0.006	0.239
-361.654	233.672	-0.115	0.189
-360.639	800.000	-0.060	-0.213
-359.625	-120.057	0.110	-0.019
-358.610	-200.000	-0.006	0.035
-357.596	-137.289	0.227	0.026
-356.581	35.576	0.088	-0.078
-355.566	82.897	0.054	-0.059
-354.552	800.000	0.119	0.333
-353.537	72.326	-0.155	-0.163
-352.523	-63.110	0.337	-0.140
-351.508	-97.462	0.222	0.058
-350.493	-37.834	0.288	-0.154
-349.479	68.340	0.302	0.311
-348.464	-121.418	0.315	-0.053
-347.450	-152.781	-0.166	0.012
-346.435	-49.489	0.092	0.044
-345.420	-96.918	0.081	-0.021
-344.406	-200.000	0.009	-0.102
-343.391	-147.330	-0.298	-0.025
-342.377	57.227	0.291	0.285
-341.362	-200.000	0.065	0.340
-340.348	59.046	-0.243	0.240
-339.333	51.651	-0.175	0.167
-338.318	-200.000	-0.032	0.148
-337.304	-45.047	0.297	0.149
-336.289	169.351	0.208	0.298
-335.275	65.743	0.193	0.196
-334.260	231.019	0.074	-0.122
-333.245	505.704	-0.091	-0.212
-332.231	800.000	-0.018	0.054
-331.216	746.090	-0.020	-0.054
-330.202	228.140	0.188	-0.307
-329.187	800.000	-0.018	0.064
-328.172	126.352	-0.202	0.256
-327.158	-200.000	0.026	0.156
-326.143	800.000	0.080	0.284
-325.129	718.901	-0.054	0.143
-324.114	12.787	-0.230	-0.178
-323.099	264.623	0.073	-0.127
-322.085	800.000	0.089	0.305
-321.070	25.168	0.068	-0.057
-320.056	335.017	0.095	-0.184
-319.041	-130.314	0.324	-0.044
-318.026	404.520	0.201	-0.424
-317.012	71.193	0.263	0.273
-315.997	-72.249	-0.496	0.184
-314.983	761.771	-0.097	-0.265
-313.968	-74.758	0.162	0.059
-312.953	-200.000	0.059	-0.383
-311.939	251.298	-0.265	0.452
-310.924	39.238	0.250	0.224
-309.910	800.000	-0.042	-0.151
-308.895	-200.000	-0.044	0.206
-307.880	206.125	-0.027	0.042
-306.866	-200.000	-0.014	0.096
-305.851	-200.000	-0.000	-0.030
-304.837	18.379	-0.194	-0.155
-303.822	36.936	0.183	0.162
-302.807	-77.515	-0.128	0.045
-301.793	57.968	-0.202	-0.198
-300.778	17.410	-0.036	-0.029
-299.764	32.770	0.185	-0.160
-298.749	352.718	0.216	-0.429
-297.735	-127.482	0.130	0.019
-296.720	170.511	-0.158	-0.226
-295.705	-37.611	-0.172	0.092
-294.691	-74.084	0.279	-0.101
-293.676	-17.577	-0.049	-0.031
-292.662	-0.386	0.081	-0.058
-291.647	-200.000	0.019	0.087
-290.632	181.412	-0.086	0.127
-289.618	-200.000	-0.001	0.355
-288.603	92.924	0.095	0.107
-287.589	36.224	0.095	0.084
-286.574	-200.000	-0.122	-0.000
-285.559	57.348	0.262	0.256
-284.545	-200.000	-0.009	-0.098
-283.530	-122.967	0.165	0.027
-282.516	554.592	-0.060	-0.144
-281.501	-200.000	0.009	-0.180
-280.486	33.532	0.046	-0.040
-279.472	-88.616	0.160	0.048
-278.457	92.861	0.245	0.277
-277.443	-26.362	-0.105	0.062
-276.428	59.559	-0.388	0.383
-275.413	-200.000	-0.040	-0.424
-274.399	-200.000	0.058	-0.455
-273.384	-49.118	0.261	-0.125
-272.370	274.980	0.136	-0.242
-271.355	-200.000	0.023	-0.213
-270.340	-200.000	-0.047	-0.365
-269.326	321.477	0.077	-0.147
-268.311	58.959	0.152	0.149
-267.297	67.609	-0.078	0.080
-266.282	4.942	0.327	-0.241
-265.267	82.251	-0.148	-0.161
-264.253	-182.340	-0.134	0.002
-263.238	97.733	0.123	0.142
-262.224	23.221	-0.061	0.050
-261.209	121.908	-0.081	0.101
-260.195	251.430	0.143	0.243
-259.180	-200.000	-0.044	-0.280
-258.165	-200.000	-0.005	-0.383
-257.151	85.464	0.261	-0.287
-256.136	196.311	-0.052	0.079
-255.122	-76.790	0.296	0.104
-254.107	141.321	-0.233	0.308
-253.092	151.331	-0.241	0.328
-252.078	-0.188	0.075	-0.053
-251.063	800.000	-0.083	0.254
-250.049	216.719	-0.125	-0.198
-249.034	-34.814	-0.138	-0.076
-248.019	216.348	0.228	0.362
-247.005	800.000	-0.052	-0.210
-245.990	265.207	-0.064	-0.112
-244.976	120.541	0.175	0.218
-243.961	-65.644	0.256	0.103
-242.946	-8.388	-0.112	-0.075
-241.932	27.854	-0.167	-0.141
-240.917	-63.298	0.060	-0.025
-239.903	-200.000	-0.004	0.050
-238.888	-127.453	-0.287	-0.042
-237.873	78.420	-0.079	0.085
-236.859	-200.000	-0.031	-0.248
-235.844	800.000	-0.041	-0.134
-234.830	228.508	-0.074	-0.121
-233.815	76.724	0.060	-0.064
-232.800	-75.909	-0.037	-0.013
-231.786	188.077	-0.137	0.204
-230.771	800.000	0.133	-0.438
-229.757	-127.018	0.154	-0.023
-228.742	-5.728	0.121	0.083
-227.727	-65.819	0.122	0.049
-226.713	-200.000	0.059	0.262
-225.698	800.000	0.091	0.259
-224.684	800.000	0.086	-0.289
-223.669	-164.086	-0.070	0.003
-222.655	-200.000	-0.032	0.394
-221.640	173.196	0.192	0.277
-220.625	342.205	-0.057	0.111
-219.611	800.000	0.074	0.239
-218.596	-89.529	0.185	0.054
-217.582	226.026	-0.140	-0.226
-216.567	183.411	0.074	0.109
-215.552	39.283	0.207	-0.185
-214.538	-134.077	-0.485	0.060
-213.523	-50.853	0.220	0.103
-212.509	226.890	0.012	-0.019
-211.494	-27.253	-0.152	0.088
-210.479	405.134	0.128	-0.269
-209.465	-200.000	0.014	-0.087
-208.450	-200.000	0.041	0.361
-207.436	67.271	0.224	0.228
-206.421	-94.401	0.202	-0.055
-205.406	-34.922	0.445	0.242
-204.392	800.000	-0.149	-0.519
-203.377	-111.444	-0.286	0.058
-202.363	297.919	-0.094	-0.172
-201.348	-49.315	-0.207	-0.099
-200.333	-200.000	0.035	-0.169
-199.319	-200.000	0.052	0.270
-198.304	204.918	-0.130	-0.201
-197.290	549.089	0.154	-0.369
-196.275	-153.000	-0.116	0.008
-195.260	88.921	-0.336	-0.373
-194.246	233.459	0.171	0.281
-193.231	5.886	-0.071	-0.053
-192.217	-69.919	-0.258	-0.098
-191.202	-43.412	0.304	0.153
-190.187	-200.000	-0.035	-0.167
-189.173	-90.082	0.237	-0.069
-188.158	-200.000	-0.017	-0.263
-187.144	-200.000	0.078	-0.376
-186.129	-19.834	-0.356	0.219
-185.114	-191.148	0.041	0.000
-184.100	-67.539	-0.171	0.067
-183.085	-191.246	0.119	-0.001
-182.071	-145.007	0.021	-0.002
-181.056	74.864	-0.113	0.119
-180.042	-200.000	-0.050	0.226
-179.027	-51.762	0.290	0.135
-178.012	38.634	-0.442	0.393
-176.998	-131.692	-0.514	0.067
-175.983	41.275	-0.233	0.210
-174.969	-200.000	-0.009	0.260
-173.954	513.667	-0.124	0.288
-172.939	155.339	-0.070	0.096
-171.925	-43.741	-0.049	-0.025
-170.910	36.615	-0.069	0.061
-169.896	-200.000	-0.032	-0.333
-168.881	494.409	0.088	-0.202
-167.866	-60.520	-0.162	-0.068
-166.852	-44.781	0.530	-0.264
-165.837	-41.972	0.290	-0.148
-164.823	558.779	-0.173	-0.416
-163.808	569.670	0.046	0.112
-162.793	-130.702	-0.070	0.009
-161.779	179.655	-0.029	-0.043
-160.764	-139.851	-0.357	-0.038
-159.750	-84.340	0.090	0.028
-158.735	69.520	-0.086	0.089
-157.720	155.420	-0.073	0.101
-156.706	-81.357	0.219	0.072
-155.691	-69.044	-0.141	-0.054
-154.677	377.253	-0.037	0.075
-153.662	-55.376	-0.106	-0.047
-152.647	-200.000	-0.015	0.179
-151.633	-193.836	0.246	-0.002
-150.618	-146.034	-0.277	-0.024
-149.604	-35.423	0.160	0.087
-148.589	40.075	-0.244	0.218
-147.574	-166.204	0.133	-0.006
-146.560	-81.041	0.213	-0.070
-145.545	416.645	-0.101	-0.214
-144.531	9.436	-0.119	0.090
-143.516	81.497	0.208	0.224
-142.502	-200.000	0.005	-0.045
-141.487	-0.382	-0.243	0.172
-140.472	-173.372	0.171	0.005
-139.458	-100.233	0.354	0.088
-138.443	361.823	0.069	-0.137
-137.429	138.787	0.121	0.159
-136.414	-26.676	0.235	0.137
-135.399	800.000	0.034	-0.139
-134.385	-75.206	0.309	0.110
-133.370	-143.186	-0.313	0.030
-132.356	800.000	-0.006	0.021
-131.341	75.057	0.257	0.269
-130.326	-115.900	0.252	-0.047
-129.312	-200.000	0.037	0.352
-128.297	-134.159	-0.220	0.027
-127.283	-99.136	-0.271	0.068
-126.268	-176.997	0.090	-0.002
-125.253	-200.000	0.007	0.167
-124.239	-3.640	0.224	-0.155
-123.224	123.657	0.135	-0.168
-122.210	257.486	-0.052	-0.089
-121.195	-88.628	0.263	0.078
-120.180	-131.050	-0.223	-0.030
-119.166	271.832	-0.166	-0.291
-118.151	-94.151	0.201	0.055
-117.137	-51.191	0.057	-0.027
-116.122	800.000	-0.062	0.249
-115.107	-106.519	-0.084	0.019
-114.093	-200.000	-0.028	0.241
-113.078	-200.000	-0.022	-0.221
-112.064	49.582	-0.175	-0.164
-111.049	16.416	-0.211	-0.166
-110.034	-200.000	-0.067	0.305
-109.020	-200.000	0.060	0.593
-108.005	-197.587	-0.189	0.001
-106.991	-29.705	-0.077	-0.044
-105.976	25.886	0.179	0.148
-104.962	201.595	0.020	0.030
-103.947	78.311	0.058	0.061
-102.932	356.166	0.114	0.225
-101.918	-200.000	-0.017	0.442
-100.903	-58.162	-0.373	-0.162
-99.889	-178.448	0.130	-0.003
-98.874	-200.000	0.021	0.266
-97.859	62.767	0.219	0.218
-96.845	-200.000	0.026	0.304
-95.830	800.000	-0.066	-0.236
-94.816	800.000	-0.078	0.302
-93.801	-33.456	0.094	0.052
-92.786	-114.640	-0.421	0.080
-91.772	-54.111	-0.257	-0.116
-90.757	800.000	0.018	0.071
-89.743	30.378	0.105	-0.089
-88.728	-41.716	0.300	-0.153
-87.713	800.000	-0.040	0.156
-86.699	-76.049	-0.124	0.044
-85.684	-190.597	0.317	0.003
-84.670	-112.545	-0.315	0.062
-83.655	632.115	-0.058	-0.145
-82.640	172.116	0.078	-0.111
-81.626	800.000	0.031	0.106
-80.611	800.000	-0.085	0.356
-79.597	-148.437	0.418	-0.034
-78.582	-18.408	0.303	-0.188
-77.567	-15.033	-0.310	-0.197
-76.553	-182.575	0.195	-0.004
-75.538	452.339	0.124	-0.272
-74.524	485.434	-0.133	-0.302
-73.509	-9.140	-0.222	0.147
-72.494	-200.000	-0.004	0.544
-71.480	27.048	-0.128	0.107
-70.465	189.430	0.110	0.164
-69.451	326.617	0.129	-0.245
-68.436	135.931	-0.174	0.225
-67.422	-36.661	0.289	0.154
-66.407	76.777	0.424	0.447
-65.392	-45.387	-0.088	0.043
-64.378	800.000	-0.120	-0.378
-63.363	28.679	0.280	0.236
-62.349	487.168	0.135	0.306
-61.334	56.396	-0.626	-0.604
-60.319	800.000	0.045	-0.163
-59.305	-200.000	-0.163	-0.709
-58.290	800.000	0.274	0.765
-57.276	800.000	0.493	1.497
-56.261	-200.000	76.677	523.389
-55.246	547.379	1305.012	3100.911
-54.232	151.362	2534.634	3425.784
-53.217	111.018	2342.274	2799.973
-52.203	49.907	1961.564	1836.479
-51.188	43.970	1750.217	1592.095
-50.173	41.200	1704.367	1529.094
-49.159	55.562	1740.089	1672.549
-48.144	60.675	1758.701	1729.910
-47.130	44.041	1722.462	1567.150
-46.115	40.814	1707.925	1529.079
-45.100	40.615	1703.506	1523.532
-44.086	40.581	1701.444	1521.367
-43.071	40.571	1698.886	1518.941
-42.057	40.536	1696.205	1516.216
-41.042	40.680	1693.902	1515.193
-40.027	40.630	1691.929	1512.990
-39.013	40.540	1690.694	1511.141
-37.998	40.572	1689.235	1510.017
-36.984	40.677	1687.460	1509.170
-35.969	40.793	1685.916	1508.613
-34.954	40.875	1683.955	1507.418
-33.940	40.783	1682.277	1505.163
-32.925	40.788	1680.565	1503.611
-31.911	40.787	1679.050	1502.185
-30.896	40.748	1677.026	1500.021
-29.881	40.754	1674.915	1498.114
-28.867	40.764	1673.363	1496.747
-27.852	40.719	1672.670	1495.727
-26.838	40.760	1671.238	1494.694
-25.823	40.758	1669.547	1493.112
-24.809	40.808	1668.270	1492.285
-23.794	40.782	1667.018	1490.912
-22.779	40.794	1665.154	1489.276
-21.765	40.723	1663.678	1487.360
-20.750	40.780	1661.740	1485.999
-19.736	40.796	1660.359	1484.826
-18.721	40.752	1659.159	1483.359
-17.706	40.810	1657.297	1482.073
-16.692	40.696	1655.939	1479.944
-15.677	40.705	1654.541	1478.710
-14.663	40.794	1652.752	1477.713
-13.648	40.747	1651.762	1476.418
-12.633	40.831	1649.894	1475.314
-11.619	40.770	1648.816	1473.840
-10.604	40.824	1646.636	1472.230
-9.590	40.816	1645.505	1471.100
-8.575	40.757	1644.302	1469.534
-7.560	40.653	1643.540	1468.024
-6.546	40.803	1641.753	1467.479
-5.531	40.804	1640.598	1466.392
-4.517	40.733	1639.717	1465.022
-3.502	40.777	1638.290	1464.012
-2.487	40.822	1636.847	1462.998
-1.473	40.476	1625.136	1449.944
-0.458	37.434	1603.686	1408.748
0.556	30.546	1601.105	1366.158
1.571	27.544	1624.638	1363.687
2.586	26.347	1638.795	1366.407
3.600	24.746	1589.680	1313.589
4.615	20.388	1485.895	1197.733
5.629	16.104	1422.678	1118.320
6.644	15.086	1413.724	1104.470
7.659	14.990	1412.385	1102.696
8.673	14.945	1411.183	1101.359
9.688	14.799	1409.439	1098.946
10.702	14.839	1406.675	1096.952
11.717	16.662	1410.140	1111.542
12.731	20.090	1415.628	1138.327
13.746	20.115	1413.836	1136.950
14.761	17.654	1408.450	1116.417
15.775	16.307	1404.915	1104.710
16.790	15.205	1401.842	1094.999
17.804	14.283	1399.721	1087.226
18.819	13.856	1397.744	1082.807
19.834	13.534	1396.306	1079.499
20.848	13.233	1394.994	1076.429
21.863	13.047	1393.847	1074.238
22.877	12.874	1392.552	1072.020
23.892	12.783	1391.814	1070.769
24.907	12.742	1391.320	1070.024
25.921	12.809	1390.107	1069.432
26.936	12.811	1389.353	1068.771
27.950	12.852	1388.321	1068.151
28.965	12.961	1386.977	1067.724
29.980	12.939	1385.744	1066.540
30.994	13.097	1384.682	1066.652
32.009	13.082	1383.667	1065.674
33.023	13.176	1381.662	1064.641
34.038	13.067	1380.852	1063.223
35.053	13.025	1379.517	1061.832
36.067	12.949	1378.411	1060.397
37.082	12.956	1377.544	1059.678
38.096	13.043	1376.624	1059.439
39.111	13.054	1375.503	1058.554
40.126	12.915	1374.661	1056.918
41.140	12.795	1373.754	1055.357
42.155	12.802	1373.059	1054.776
43.169	12.772	1373.218	1054.615
44.184	12.732	1372.679	1053.853
45.199	12.791	1372.324	1053.865
46.213	12.756	1372.095	1053.367
47.228	12.890	1370.723	1053.081
48.242	12.886	1369.843	1052.285
49.257	13.008	1367.857	1051.440
50.271	12.928	1366.723	1049.970
51.286	12.890	1365.035	1048.339
52.301	12.962	1363.785	1047.744
53.315	12.852	1362.689	1046.109
54.330	12.797	1362.120	1045.233
55.344	12.772	1360.431	1043.687
56.359	12.779	1359.596	1042.993
57.374	12.870	1358.255	1042.453
58.388	12.763	1358.000	1041.485
59.403	12.688	1357.551	1040.578
60.417	12.778	1356.447	1040.204
61.432	12.754	1355.633	1039.341
62.447	12.693	1354.863	1038.270
63.461	12.666	1353.746	1037.152
64.476	12.567	1352.731	1035.659
65.490	12.691	1351.276	1035.236
66.505	12.687	1349.463	1033.728
67.520	12.642	1348.769	1032.826
68.534	12.825	1347.126	1032.621
69.549	12.708	1346.450	1031.275
70.563	12.816	1345.357	1031.023
71.578	12.629	1344.665	1029.236
72.593	12.650	1343.227	1028.172
73.607	12.668	1342.327	1027.506
74.622	12.602	1341.376	1026.276
75.636	12.649	1341.168	1026.319
76.651	12.516	1340.638	1024.995
77.666	12.570	1339.823	1024.617
78.680	12.620	1339.309	1024.442
79.695	12.558	1338.752	1023.542
80.709	12.623	1338.092	1023.350
81.724	12.663	1337.456	1023.022
82.739	12.750	1335.933	1022.308
83.753	12.741	1335.459	1021.799
84.768	12.811	1334.068	1021.076
85.782	12.881	1332.988	1020.590
86.797	12.968	1331.154	1019.634
87.812	12.863	1330.253	1018.208
88.826	12.841	1328.806	1016.873
89.841	12.744	1328.672	1016.083
90.855	12.918	1326.935	1015.738
91.870	12.875	1326.085	1014.732
92.884	12.960	1325.552	1014.755
93.899	12.983	1324.901	1014.308
94.914	13.028	1324.116	1013.896
95.928	12.960	1323.117	1012.621
96.943	12.968	1322.020	1011.745
97.957	12.948	1321.079	1010.814
98.972	12.932	1319.823	1009.663
99.987	12.879	1319.280	1008.833
101.001	12.965	1317.327	1007.774
102.016	12.848	1316.755	1006.538
103.030	13.081	1315.447	1006.870
104.045	12.953	1314.943	1005.614
105.060	12.971	1313.894	1004.828
106.074	12.827	1312.220	1002.587
107.089	12.764	1310.865	1001.082
108.103	12.722	1309.820	999.938
109.118	12.737	1308.219	998.716
110.133	12.890	1306.487	998.236
111.147	12.761	1305.461	996.583
112.162	12.807	1304.437	995.991
113.176	12.855	1303.112	995.178
114.191	12.886	1302.254	994.623
115.206	12.877	1300.698	993.290
116.220	12.867	1299.819	992.476
117.235	12.823	1298.633	991.216
118.249	12.779	1297.651	990.115
119.264	12.763	1297.042	989.465
120.279	12.876	1294.946	988.456
121.293	12.764	1294.078	987.033
122.308	12.792	1293.052	986.336
123.322	12.712	1291.982	984.950
124.337	12.708	1291.316	984.334
125.352	12.734	1289.774	983.227
126.366	12.755	1288.891	982.589
127.381	12.688	1288.100	981.502
128.395	12.721	1286.592	980.458
129.410	12.786	1285.583	979.993
130.424	12.799	1284.752	979.349
131.439	12.851	1283.889	978.914
132.454	12.848	1282.661	977.871
133.468	12.923	1281.804	977.578
134.483	12.914	1281.138	976.929
135.497	12.889	1280.057	975.869
136.512	12.869	1278.934	974.812
137.527	12.920	1277.269	973.758
138.541	12.908	1275.790	972.474
139.556	12.844	1274.621	971.116
140.570	12.969	1273.752	971.106
141.585	13.072	1272.091	970.360
142.600	13.102	1270.524	969.256
143.614	13.056	1270.056	968.539
144.629	13.078	1269.340	968.039
145.643	13.065	1268.128	966.954
146.658	13.011	1267.397	965.995
147.673	12.949	1265.355	963.986
148.687	12.965	1264.138	963.070
149.702	12.930	1262.271	961.356
150.716	12.938	1260.909	960.283
151.731	12.893	1260.007	959.246
152.746	12.963	1258.954	958.771
153.760	12.941	1257.762	957.647
154.775	13.002	1256.603	957.035
155.789	13.037	1255.808	956.549
156.804	13.039	1254.564	955.529
157.819	13.048	1253.426	954.626
158.833	13.032	1252.613	953.831
159.848	13.139	1251.675	953.650
160.862	13.179	1250.539	952.934
161.877	13.097	1249.288	951.425
162.892	13.080	1248.486	950.630
163.906	13.057	1247.113	949.367
164.921	12.960	1246.839	948.516
165.935	13.033	1245.697	947.987
166.950	13.074	1244.839	947.481
167.964	13.150	1243.898	947.119
168.979	12.980	1243.688	945.897
169.994	13.129	1242.634	945.867
171.008	13.152	1241.650	945.166
172.023	13.156	1240.925	944.554
173.037	13.217	1239.921	944.053
174.052	13.261	1239.050	943.560
175.067	13.159	1237.888	942.007
176.081	13.105	1236.999	940.944
177.096	13.150	1236.192	940.500
178.110	13.165	1234.810	939.454
179.125	13.083	1234.028	938.308
180.140	13.204	1232.641	937.857
181.154	13.173	1231.369	936.630
182.169	13.294	1229.638	935.916
183.183	13.314	1228.992	935.456
184.198	13.315	1227.753	934.435
185.213	13.357	1226.735	933.812
186.227	13.388	1225.548	933.005
187.242	13.383	1224.737	932.275
188.256	13.451	1223.514	931.646
189.271	13.439	1222.910	931.032
190.286	13.233	1221.986	929.089
191.300	13.153	1221.238	927.988
192.315	13.098	1220.265	926.861
193.329	13.112	1219.443	926.230
194.344	13.099	1219.175	925.875
195.359	13.334	1218.394	926.516
196.373	13.214	1217.802	925.313
197.388	13.457	1217.074	926.038
198.402	13.500	1216.552	925.795
199.417	13.530	1215.884	925.375
200.432	13.517	1214.991	924.537
201.446	13.639	1213.992	924.378
202.461	13.613	1213.214	923.560
203.475	13.665	1212.048	922.879
204.490	13.632	1211.047	921.850
205.504	13.563	1209.830	920.460
206.519	13.639	1208.049	919.445
207.534	13.568	1207.401	918.476
208.548	13.497	1206.477	917.301
209.563	13.643	1205.590	917.354
210.577	13.666	1204.355	916.460
211.592	13.683	1203.720	915.991
212.607	13.647	1203.279	915.374
213.621	13.722	1201.830	914.603
214.636	13.698	1201.173	913.893
215.650	13.705	1200.208	913.117
216.665	13.789	1199.178	912.711
217.680	13.810	1198.483	912.217
218.694	13.782	1197.493	911.231
219.709	13.778	1197.068	910.806
220.723	13.780	1196.172	910.052
221.738	13.844	1195.498	909.808
222.753	13.773	1194.921	908.900
223.767	13.866	1194.264	908.827
224.782	13.909	1193.238	908.204
225.796	13.831	1192.773	907.344
226.811	13.878	1191.956	906.897
227.826	14.012	1191.130	906.922
228.840	13.924	1190.486	905.871
229.855	13.986	1189.183	905.135
230.869	13.896	1188.649	904.162
231.884	13.854	1188.175	903.491
232.899	13.894	1187.075	902.791
233.913	13.798	1186.845	902.014
234.928	13.760	1186.215	901.253
235.942	13.847	1185.067	900.770
236.957	13.882	1183.962	900.042
237.972	13.834	1183.538	899.379
238.986	13.919	1182.372	898.871
240.001	13.886	1182.228	898.506
241.015	13.896	1181.163	897.671
242.030	13.932	1180.063	896.951
243.045	14.050	1179.559	897.125
244.059	13.924	1178.661	895.682
245.074	13.982	1177.986	895.402
246.088	14.233	1176.943	895.882
247.103	14.081	1176.228	894.441
248.117	14.168	1175.206	894.051
249.132	14.193	1174.377	893.476
250.147	14.331	1173.935	893.799
251.161	14.252	1173.398	892.892
252.176	14.299	1172.691	892.523
253.190	14.364	1171.792	892.108
254.205	14.413	1171.146	891.799
255.220	14.419	1170.800	891.492
256.234	14.349	1170.434	890.761
257.249	14.533	1168.971	890.548
258.263	14.415	1169.056	889.906
259.278	14.433	1168.344	889.382
260.293	14.442	1167.503	888.712
261.307	14.547	1166.460	888.396
262.322	14.551	1165.848	887.872
263.336	14.531	1165.397	887.346
264.351	14.574	1164.977	887.176
265.366	14.551	1163.940	886.186
266.380	14.716	1163.249	886.455
267.395	14.608	1162.469	885.209
268.409	14.548	1161.884	884.371
269.424	14.558	1161.054	883.711
270.439	14.556	1160.236	883.002
271.453	14.649	1159.726	883.026
272.468	14.565	1158.753	881.762
273.482	14.523	1158.022	880.909
274.497	14.573	1157.594	880.765
275.512	14.531	1157.251	880.207
276.526	14.601	1156.129	879.644
277.541	14.630	1155.125	878.958
278.555	14.609	1154.755	878.485
279.570	14.693	1153.946	878.232
280.585	14.768	1153.158	877.951
281.599	14.862	1152.151	877.600
282.614	14.812	1150.928	876.330
283.628	14.744	1149.899	875.112
284.643	14.726	1149.332	874.509
285.657	14.751	1148.266	873.752
286.672	14.775	1147.072	872.891
287.687	14.703	1146.762	872.201
288.701	14.811	1145.627	871.825
289.716	14.833	1144.704	871.161
290.730	14.803	1144.279	870.604
291.745	14.937	1143.007	870.256
292.760	14.819	1142.830	869.429
293.774	14.976	1142.250	869.725
294.789	15.024	1141.837	869.587
295.803	14.970	1141.236	868.769
296.818	14.849	1140.433	867.454
297.833	14.972	1139.271	867.129
298.847	14.925	1138.837	866.481
299.862	14.949	1137.869	865.792
300.876	14.967	1137.215	865.311
301.891	15.000	1136.679	864.995
302.906	15.135	1135.507	864.725
303.920	15.108	1134.971	864.103
304.935	15.033	1134.673	863.410
305.949	15.089	1133.712	862.891
306.964	15.121	1133.064	862.489
307.979	15.170	1132.199	862.002
308.993	15.199	1131.449	861.508
310.008	15.214	1130.533	860.807
311.022	15.223	1129.629	860.094
312.037	15.272	1129.097	859.859
313.052	15.207	1127.974	858.599
314.066	15.144	1127.464	857.813
315.081	15.124	1126.635	857.002
316.095	15.207	1125.782	856.699
317.110	15.161	1125.035	855.820
318.125	15.233	1123.910	855.259
319.139	15.154	1123.450	854.428
320.154	15.214	1122.821	854.181
321.168	15.168	1122.231	853.422
322.183	15.235	1121.795	853.356
323.197	15.180	1120.929	852.340
324.212	15.204	1120.431	852.012
325.227	15.131	1119.865	851.135
326.241	15.301	1118.747	851.072
327.256	15.195	1118.540	850.301
328.270	15.274	1117.512	849.845
329.285	15.217	1116.549	848.747
330.300	15.234	1115.617	848.052
331.314	15.262	1114.299	847.113
332.329	15.300	1113.604	846.706
333.343	15.313	1112.603	845.934
334.358	15.354	1111.998	845.606
335.373	15.367	1111.078	844.894
336.387	15.382	1110.410	844.390
337.402	15.436	1109.648	844.004
338.416	15.463	1109.105	843.653
339.431	15.414	1108.693	843.022
340.446	15.571	1108.024	843.224
341.460	15.483	1107.321	842.173
342.475	15.608	1106.460	842.070
343.489	15.609	1105.592	841.341
344.504	15.713	1104.322	840.819
345.519	15.749	1103.247	840.109
346.533	15.813	1102.135	839.506
347.548	15.774	1101.882	839.043
348.562	15.661	1101.831	838.367
349.577	15.711	1100.543	837.562
350.592	15.637	1099.788	836.547
351.606	15.673	1098.768	835.874
352.621	15.605	1098.372	835.159
353.635	15.609	1097.757	834.642
354.650	15.651	1096.392	833.736
355.665	15.685	1096.027	833.553
356.679	15.709	1095.590	833.266
357.694	15.782	1094.899	833.029
358.708	15.769	1094.256	832.400
359.723	15.917	1093.139	832.211
360.738	15.840	1092.730	831.443
361.752	15.748	1092.354	830.629
362.767	15.926	1091.424	830.728
363.781	15.959	1091.354	830.763
364.796	15.853	1090.859	829.789
365.810	15.991	1090.305	829.977
366.825	16.043	1089.653	829.660
367.840	16.033	1088.977	829.026
368.854	16.135	1088.039	828.736
369.869	16.167	1087.458	828.380
370.883	16.036	1086.792	827.156
371.898	16.021	1086.111	826.493
372.913	16.112	1085.099	826.094
373.927	16.062	1084.921	825.641
374.942	16.190	1084.366	825.768
375.956	16.260	1083.583	825.444
376.971	16.043	1083.139	823.971
377.986	16.103	1082.544	823.739
379.000	16.223	1082.109	823.922
380.015	16.347	1081.376	823.894
381.029	16.405	1080.544	823.472
382.044	16.299	1080.164	822.591
383.059	16.320	1079.397	822.037
384.073	16.315	1078.415	821.194
385.088	16.291	1077.678	820.444
386.102	16.309	1076.459	819.527
387.117	16.281	1075.475	818.570
388.132	16.269	1074.766	817.901
389.146	16.300	1074.172	817.526
390.161	16.287	1073.518	816.892
391.175	16.312	1072.662	816.291
392.190	16.373	1071.815	815.869
393.205	16.372	1071.013	815.184
394.219	16.341	1070.651	814.683
395.234	16.410	1069.344	813.952
396.248	16.435	1068.440	813.312
397.263	16.373	1067.575	812.281
398.278	16.277	1067.005	811.314
399.292	16.366	1066.062	810.955
400.307	16.295	1065.086	809.797
401.321	16.353	1064.712	809.720
402.336	16.436	1063.673	809.258
403.350	16.385	1062.822	808.294
404.365	16.408	1062.478	808.069
405.380	16.504	1061.895	808.016
406.394	16.545	1060.943	807.414
407.409	16.431	1060.702	806.616
408.423	16.621	1059.480	806.519
409.438	16.582	1059.058	805.942
410.453	16.696	1058.646	806.100
411.467	16.611	1057.645	804.864
412.482	16.693	1056.702	804.462
413.496	16.807	1056.104	804.480
414.511	16.694	1055.650	803.523
415.526	16.800	1055.046	803.497
416.540	16.838	1054.716	803.354
417.555	16.872	1054.022	802.916
418.569	16.869	1053.622	802.524
419.584	16.807	1053.156	801.805
420.599	16.793	1052.820	801.414
421.613	86.741	1297.887	1377.721
422.628	79.839	1333.595	1377.847
