DTS Sentinel unit serial number:	SN413079Multiplexer serial number:	ORYXHardware model number:	OX4-SRSoftware version number:	ORYX F/W v4.00 Oryx Data Collector v3.7.2.0data status	okinstallation	princeton_trtdifferential loss correction	single-endedforward channel	channel 2reverse channel	N/Adate	2019/09/15time	22:07:35forward acquisition time	60.00reverse acquisition time	0.00gamma	496.2192k internal	0.2335k external	0.2335temperature offset calibration	0.9945default loss term (dB/km)	0.3790temperature slope calibration	1.0000multiplexer offset coefficient	1.0000multiplexer slope coefficient	1.0000fibre end	0.00T internal ref (°C)	29.67T ext. ref 1 (°C)	8.59T ext. ref 2 (°C)	22.92length (m)	temperature (°C)	Stokes	anti-Stokes-747.200	-45.463	0.144	0.072
-746.185	-60.324	-0.160	-0.069
-745.171	57.649	0.103	-0.101
-744.156	-115.923	-0.431	0.081
-743.142	-90.205	-0.152	0.044
-742.127	-52.854	-0.388	0.179
-741.112	800.000	0.050	0.144
-740.098	-103.027	0.234	0.056
-739.083	430.410	0.128	-0.277
-738.069	-200.000	-0.042	0.542
-737.054	176.787	0.036	-0.052
-736.039	-169.993	-0.303	-0.011
-735.025	19.613	0.384	-0.310
-734.010	71.344	-0.147	-0.153
-732.996	58.884	0.073	-0.073
-731.981	-116.224	-0.124	-0.023
-730.966	-161.112	-0.261	0.014
-729.952	496.161	-0.086	0.198
-728.937	800.000	-0.011	0.042
-727.923	251.304	-0.119	0.204
-726.908	-63.841	-0.237	0.097
-725.894	-121.260	-0.342	0.057
-724.879	-200.000	0.047	-0.307
-723.864	-200.000	0.040	-0.213
-722.850	800.000	0.028	-0.113
-721.835	-74.631	-0.284	-0.103
-720.821	162.531	-0.238	0.335
-719.806	-91.425	-0.125	-0.036
-718.791	-200.000	0.021	-0.108
-717.777	-54.150	0.067	-0.030
-716.762	-133.302	-0.222	-0.028
-715.748	80.649	0.044	0.048
-714.733	-200.000	-0.047	0.516
-713.718	253.769	0.041	0.070
-712.704	0.890	0.113	0.081
-711.689	-85.004	-0.135	-0.042
-710.675	-94.944	0.233	0.063
-709.660	98.457	-0.148	-0.171
-708.645	-154.550	0.178	0.012
-707.631	82.338	-0.246	0.268
-706.616	-126.111	-0.204	0.031
-705.602	612.287	-0.136	0.341
-704.587	73.333	-0.151	0.158
-703.572	-161.849	0.274	0.014
-702.558	141.143	-0.057	0.076
-701.543	800.000	0.044	-0.139
-700.529	-127.775	-0.185	0.027
-699.514	654.535	-0.078	-0.201
-698.499	50.683	0.203	-0.192
-697.485	-139.384	0.309	-0.033
-696.470	-103.286	-0.248	0.059
-695.456	-182.013	0.289	0.005
-694.441	-26.584	-0.074	-0.043
-693.426	601.526	-0.044	-0.110
-692.412	-134.653	0.277	-0.034
-691.397	-32.939	0.087	0.048
-690.383	150.731	0.200	0.272
-689.368	-155.498	0.170	0.011
-688.354	0.222	-0.155	0.111
-687.339	113.393	0.083	-0.100
-686.324	-200.000	0.046	-0.205
-685.310	-67.196	0.217	-0.085
-684.295	-25.139	0.039	0.023
-683.281	-34.757	0.221	0.121
-682.266	365.572	0.220	-0.443
-681.251	336.114	0.097	-0.188
-680.237	-35.582	-0.114	-0.062
-679.222	11.461	0.202	-0.155
-678.208	180.072	-0.169	-0.248
-677.193	221.559	-0.153	-0.246
-676.178	-44.552	-0.365	0.183
-675.164	12.163	-0.109	0.084
-674.149	-200.000	-0.035	0.276
-673.135	-14.363	-0.345	-0.222
-672.120	-181.653	0.131	0.003
-671.105	800.000	-0.023	-0.093
-670.091	-63.659	-0.173	0.071
-669.076	-176.013	-0.235	0.006
-668.062	459.547	-0.079	-0.176
-667.047	-139.452	0.073	0.008
-666.032	11.338	-0.079	-0.061
-665.018	-48.741	0.203	-0.097
-664.003	-200.000	-0.016	-0.128
-662.989	800.000	-0.079	-0.252
-661.974	74.678	-0.272	-0.286
-660.959	-102.201	-0.027	0.007
-659.945	86.517	-0.224	0.248
-658.930	124.984	-0.091	0.115
-657.916	-200.000	-0.012	-0.318
-656.901	-80.015	-0.181	-0.061
-655.886	255.204	-0.176	-0.302
-654.872	337.567	0.086	-0.167
-653.857	491.916	0.070	0.161
-652.843	-46.977	0.253	0.123
-651.828	-63.425	-0.234	-0.096
-650.814	800.000	-0.025	-0.090
-649.799	1.038	-0.070	0.050
-648.784	-75.499	-0.115	0.041
-647.770	800.000	0.051	-0.150
-646.755	-167.234	0.099	-0.004
-645.741	278.967	-0.156	-0.278
-644.726	270.378	-0.220	-0.387
-643.711	-200.000	-0.031	0.154
-642.697	800.000	-0.050	-0.140
-641.682	20.777	-0.315	0.255
-640.668	243.971	-0.132	-0.221
-639.653	800.000	-0.072	-0.309
-638.638	-60.358	-0.265	-0.113
-637.624	89.612	-0.112	-0.126
-636.609	-24.698	-0.149	0.089
-635.595	-38.654	0.119	0.063
-634.580	-129.897	-0.380	-0.052
-633.565	-12.051	0.333	0.218
-632.551	739.661	-0.022	-0.060
-631.536	-174.421	-0.231	-0.007
-630.522	118.413	0.026	-0.033
-629.507	-87.653	0.223	-0.067
-628.492	-144.796	0.113	-0.010
-627.478	182.125	0.174	0.256
-626.463	-200.000	-0.021	0.185
-625.449	-54.548	-0.415	0.188
-624.434	-200.000	0.002	0.068
-623.419	454.990	0.114	0.252
-622.405	-32.262	0.279	-0.156
-621.390	-115.125	-0.301	-0.057
-620.376	107.364	-0.123	-0.146
-619.361	-200.000	-0.033	-0.313
-618.346	417.541	0.144	-0.307
-617.332	274.162	-0.191	-0.338
-616.317	-169.241	0.128	0.005
-615.303	-200.000	0.001	-0.351
-614.288	-200.000	0.009	-0.155
-613.273	-158.261	0.415	0.024
-612.259	-97.193	0.429	0.112
-611.244	800.000	-0.071	-0.209
-610.230	225.107	-0.128	-0.207
-609.215	800.000	-0.072	0.274
-608.201	8.702	0.041	0.031
-607.186	318.294	-0.096	-0.181
-606.171	-118.647	0.348	-0.061
-605.157	-200.000	-0.008	-0.085
-604.142	609.345	-0.077	-0.193
-603.128	172.870	-0.091	0.132
-602.113	-147.836	0.212	-0.018
-601.098	44.025	0.101	-0.092
-600.084	-91.841	0.121	-0.034
-599.069	800.000	0.072	0.249
-598.055	-52.273	-0.203	-0.094
-597.040	800.000	-0.097	-0.295
-596.025	-53.538	0.251	0.115
-595.011	234.273	0.073	0.120
-593.996	-200.000	-0.085	0.523
-592.982	-83.318	0.339	0.109
-591.967	208.841	-0.309	-0.482
-590.952	-30.626	0.046	0.026
-589.938	800.000	-0.090	-0.290
-588.923	-32.271	-0.281	0.157
-587.909	-200.000	0.039	-0.206
-586.894	73.793	0.107	-0.112
-585.879	-101.380	0.365	0.089
-584.865	219.333	-0.234	0.374
-583.850	10.596	-0.108	0.083
-582.836	-100.947	0.327	-0.080
-581.821	288.366	-0.110	-0.199
-580.806	-30.360	0.199	-0.113
-579.792	-62.756	0.277	0.115
-578.777	507.164	0.055	-0.128
-577.763	422.694	0.179	-0.384
-576.748	582.514	0.029	0.070
-575.733	60.459	-0.219	0.216
-574.719	83.201	0.126	-0.137
-573.704	800.000	0.061	0.239
-572.690	800.000	0.049	0.195
-571.675	122.866	-0.189	0.236
-570.661	-87.841	-0.048	-0.015
-569.646	-200.000	-0.005	0.115
-568.631	-52.639	-0.329	0.152
-567.617	-99.957	0.131	-0.033
-566.602	648.759	0.089	0.227
-565.588	-126.368	-0.206	-0.031
-564.573	225.513	0.147	-0.237
-563.558	-37.543	0.234	-0.124
-562.544	93.234	0.345	0.389
-561.529	91.329	0.058	-0.064
-560.515	5.113	0.114	0.083
-559.500	-137.290	0.090	-0.010
-558.485	628.784	-0.010	-0.025
-557.471	-174.862	-0.232	0.007
-556.456	-144.551	-0.324	0.030
-555.442	800.000	0.020	-0.078
-554.427	183.176	-0.122	-0.179
-553.412	-200.000	0.018	-0.160
-552.398	119.449	-0.272	-0.336
-551.383	-45.317	0.124	0.062
-550.369	-2.359	0.339	-0.237
-549.354	39.436	-0.155	0.138
-548.339	-200.000	0.016	-0.318
-547.325	30.120	0.191	-0.163
-546.310	800.000	-0.058	0.232
-545.296	-187.955	-0.356	0.005
-544.281	-77.040	0.265	-0.092
-543.266	-67.748	-0.257	-0.100
-542.252	800.000	0.050	-0.186
-541.237	197.312	0.079	0.120
-540.223	20.032	0.086	0.069
-539.208	800.000	-0.096	0.265
-538.193	181.320	-0.085	-0.124
-537.179	-123.332	0.546	0.087
-536.164	170.661	-0.067	0.096
-535.150	-49.239	0.199	-0.095
-534.135	-200.000	-0.036	0.418
-533.121	-200.000	-0.449	0.000
-532.106	-62.428	0.108	0.045
-531.091	-83.005	-0.090	-0.029
-530.077	30.785	0.185	-0.158
-529.062	-75.460	-0.150	-0.053
-528.048	800.000	0.048	0.177
-527.033	-129.101	0.053	0.007
-526.018	-200.000	0.008	0.108
-525.004	800.000	-0.037	0.146
-523.989	-67.561	-0.151	-0.059
-522.975	-33.380	-0.131	-0.072
-521.960	41.784	0.144	-0.130
-520.945	239.402	-0.243	-0.403
-519.931	26.131	-0.286	-0.238
-518.916	78.818	0.289	-0.308
-517.902	107.600	-0.193	0.228
-516.887	-200.000	-0.064	0.352
-515.872	-200.000	0.001	-0.099
-514.858	800.000	0.049	0.214
-513.843	137.421	0.086	0.112
-512.829	-62.363	0.156	-0.065
-511.814	-71.304	0.103	0.038
-510.799	-112.767	-0.396	0.078
-509.785	-154.262	-0.190	0.013
-508.770	-200.000	0.011	-0.127
-507.756	-104.961	0.323	0.074
-506.741	800.000	-0.065	-0.193
-505.726	45.700	-0.172	-0.158
-504.712	110.982	-0.044	-0.053
-503.697	131.311	0.075	0.095
-502.683	-200.000	-0.001	-0.203
-501.668	-52.466	0.096	-0.044
-500.653	330.784	0.032	0.062
-499.639	800.000	-0.136	-0.516
-498.624	214.918	-0.101	-0.160
-497.610	797.481	-0.166	0.454
-496.595	800.000	0.152	0.457
-495.581	348.462	0.155	-0.304
-494.566	439.230	-0.006	0.013
-493.551	364.781	0.103	0.207
-492.537	264.180	0.132	0.229
-491.522	345.273	-0.156	-0.305
-490.508	265.051	-0.042	0.072
-489.493	800.000	0.019	-0.055
-488.478	800.000	-0.104	0.355
-487.464	-170.188	0.144	0.005
-486.449	-200.000	-0.110	0.000
-485.435	462.669	-0.165	-0.367
-484.420	47.777	0.130	0.120
-483.405	800.000	-0.039	0.162
-482.391	-71.326	-0.065	-0.024
-481.376	800.000	-0.007	0.022
-480.362	354.016	-0.177	-0.349
-479.347	192.285	-0.317	-0.475
-478.332	-54.820	0.459	0.206
-477.318	800.000	0.090	0.310
-476.303	86.408	0.075	0.082
-475.289	18.704	0.103	-0.082
-474.274	376.544	-0.132	-0.268
-473.259	364.541	-0.172	-0.344
-472.245	800.000	-0.077	-0.267
-471.230	462.881	-0.097	0.216
-470.216	-140.295	0.203	-0.021
-469.201	-87.656	-0.170	-0.051
-468.186	10.770	-0.281	-0.213
-467.172	-200.000	-0.024	0.202
-466.157	-87.956	0.136	-0.041
-465.143	101.654	0.152	0.176
-464.128	-200.000	0.034	0.186
-463.113	35.760	-0.231	-0.202
-462.099	22.778	-0.061	0.050
-461.084	-98.024	-0.474	0.121
-460.070	-200.000	-0.044	0.247
-459.055	-45.873	0.050	-0.025
-458.040	468.480	0.058	0.128
-457.026	165.529	0.073	-0.102
-456.011	-97.985	-0.356	-0.091
-454.997	-149.516	-0.090	-0.007
-453.982	16.033	-0.245	-0.192
-452.968	232.027	0.248	0.404
-451.953	-200.000	-0.045	0.306
-450.938	-100.057	0.191	-0.047
-449.924	48.796	0.101	0.094
-448.909	800.000	0.045	-0.132
-447.895	-35.052	0.473	-0.256
-446.880	-94.201	0.136	-0.037
-445.865	421.032	0.083	-0.177
-444.851	-200.000	-0.020	0.239
-443.836	-200.000	0.007	0.182
-442.822	30.308	-0.085	0.072
-441.807	800.000	0.086	0.328
-440.792	620.704	-0.062	0.155
-439.778	78.830	-0.037	0.039
-438.763	-99.215	0.183	0.046
-437.749	491.400	0.096	0.219
-436.734	-27.161	-0.212	-0.122
-435.719	75.949	0.031	0.033
-434.705	800.000	0.025	-0.068
-433.690	21.082	-0.151	0.122
-432.676	52.737	-0.129	0.122
-431.661	-200.000	0.015	-0.188
-430.646	-173.620	0.325	0.010
-429.632	57.857	-0.167	0.162
-428.617	-200.000	-0.009	0.161
-427.603	-124.727	-0.249	-0.038
-426.588	-200.000	0.019	0.270
-425.573	-200.000	-0.006	-0.085
-424.559	-200.000	-0.005	0.152
-423.544	27.824	-0.059	0.050
-422.530	-115.794	-0.481	0.089
-421.515	-200.000	0.002	0.191
-420.500	-200.000	-0.036	0.335
-419.486	248.672	0.142	0.238
-418.471	551.418	0.037	0.089
-417.457	-129.293	-0.225	0.031
-416.442	270.071	0.148	0.257
-415.428	297.825	0.148	0.270
-414.413	-200.000	-0.083	0.410
-413.398	670.942	0.116	0.297
-412.384	-200.000	-0.012	-0.265
-411.369	35.133	0.190	0.165
-410.355	800.000	-0.071	-0.249
-409.340	800.000	0.084	-0.230
-408.325	-200.000	0.050	-0.403
-407.311	-84.428	0.185	0.058
-406.296	-130.552	0.335	0.045
-405.282	-74.943	0.320	0.114
-404.267	491.430	-0.104	-0.235
-403.252	-18.052	0.343	-0.213
-402.238	-200.000	0.020	-0.345
-401.223	800.000	0.046	-0.166
-400.209	161.049	0.147	-0.204
-399.194	800.000	0.066	0.185
-398.179	-200.000	-0.019	0.086
-397.165	15.710	0.322	-0.251
-396.150	-200.000	0.010	-0.150
-395.136	-117.674	-0.406	-0.072
-394.121	800.000	0.062	0.189
-393.106	-200.000	-0.040	-0.478
-392.092	-53.141	-0.294	0.134
-391.077	363.425	-0.134	0.267
-390.063	-136.398	0.311	-0.036
-389.048	-200.000	-0.043	0.204
-388.033	93.156	0.091	-0.102
-387.019	-81.550	-0.211	0.069
-386.004	-91.636	0.036	-0.010
-384.990	-38.876	-0.350	-0.183
-383.975	-76.742	0.530	0.184
-382.960	182.704	0.216	-0.315
-381.946	-138.420	-0.224	-0.024
-380.931	-200.000	-0.081	0.453
-379.917	134.358	-0.173	-0.223
-378.902	800.000	0.017	-0.067
-377.888	-200.000	0.014	0.258
-376.873	23.282	-0.239	-0.195
-375.858	-46.306	-0.113	-0.055
-374.844	-200.000	0.040	-0.216
-373.829	25.859	-0.262	0.216
-372.815	800.000	0.050	-0.186
-371.800	-47.998	0.212	-0.101
-370.785	-1.317	0.191	0.133
-369.771	800.000	-0.056	-0.220
-368.756	107.255	-0.150	-0.176
-367.742	-121.855	0.357	0.058
-366.727	416.727	0.070	-0.148
-365.712	-13.235	-0.124	-0.080
-364.698	-75.358	-0.424	-0.150
-363.683	-1.543	0.089	0.062
-362.669	-47.700	0.094	-0.045
-361.654	374.310	0.135	0.272
-360.639	351.917	-0.068	0.133
-359.625	1.280	-0.176	0.125
-358.610	-73.017	0.276	0.100
-357.596	-5.674	-0.303	0.206
-356.581	-200.000	0.001	0.234
-355.566	190.164	0.138	-0.206
-354.552	398.915	0.025	-0.052
-353.537	-200.000	-0.002	0.228
-352.523	-137.454	-0.273	-0.031
-351.508	-160.140	-0.514	0.028
-350.493	-89.560	0.363	-0.105
-349.479	18.442	-0.145	-0.115
-348.464	-200.000	-0.007	-0.103
-347.450	44.473	0.017	-0.015
-346.435	-96.324	-0.048	0.012
-345.420	48.951	-0.278	-0.258
-344.406	-135.630	0.193	-0.023
-343.391	226.423	-0.092	-0.147
-342.377	135.998	0.097	0.126
-341.362	-2.666	-0.135	-0.094
-340.348	-44.879	0.141	0.070
-339.333	18.852	-0.128	0.102
-338.318	800.000	0.142	0.391
-337.304	-7.745	-0.109	0.073
-336.289	800.000	0.099	0.296
-335.275	176.744	0.087	0.126
-334.260	-82.148	-0.423	0.137
-333.245	149.303	-0.086	-0.115
-332.231	162.255	-0.133	-0.185
-331.216	172.452	0.254	0.362
-330.202	320.228	0.142	-0.267
-329.187	296.648	-0.054	-0.097
-328.172	800.000	-0.042	0.136
-327.158	-200.000	-0.011	0.535
-326.143	-200.000	0.002	-0.080
-325.129	145.264	-0.069	0.091
-324.114	-105.957	0.239	-0.053
-323.099	-151.529	-0.158	-0.012
-322.085	-27.758	-0.069	-0.039
-321.070	-200.000	0.058	-0.256
-320.056	313.160	-0.038	-0.071
-319.041	-67.398	0.156	-0.060
-318.026	-111.352	0.071	-0.014
-317.012	-116.663	0.161	0.029
-315.997	-46.090	-0.159	0.078
-314.983	800.000	-0.073	-0.282
-313.968	800.000	0.038	0.106
-312.953	38.128	-0.165	0.145
-311.939	646.938	-0.104	0.262
-310.924	-200.000	-0.045	0.383
-309.910	-200.000	-0.012	-0.135
-308.895	148.781	-0.037	0.049
-307.880	-175.162	0.337	-0.009
-306.866	178.131	-0.053	0.076
-305.851	-15.842	-0.335	-0.210
-304.837	540.471	0.169	-0.397
-303.822	800.000	0.017	0.050
-302.807	-200.000	0.034	-0.166
-301.793	-80.929	-0.184	-0.060
-300.778	-47.937	-0.084	-0.040
-299.764	-200.000	0.024	-0.127
-298.749	194.482	-0.065	-0.097
-297.735	-167.514	-0.289	0.011
-296.720	-88.833	0.359	-0.105
-295.705	-200.000	0.022	-0.140
-294.691	-47.244	0.184	-0.089
-293.676	-29.099	0.337	-0.191
-292.662	-50.079	-0.194	0.091
-291.647	-200.000	0.052	0.396
-290.632	192.930	0.105	0.157
-289.618	1.424	-0.095	0.068
-288.603	-99.325	0.273	-0.068
-287.589	144.192	-0.161	0.213
-286.574	35.283	0.098	0.085
-285.559	800.000	-0.017	-0.054
-284.545	561.833	-0.080	-0.192
-283.530	-17.852	0.247	-0.153
-282.516	-11.090	-0.040	-0.026
-281.501	-34.940	0.198	0.107
-280.486	297.570	0.093	0.169
-279.472	-42.706	-0.107	-0.054
-278.457	-200.000	-0.072	-0.371
-277.443	-18.488	-0.152	-0.093
-276.428	-200.000	-0.063	-0.290
-275.413	-140.063	0.239	0.025
-274.399	-60.684	-0.161	-0.068
-273.384	186.123	-0.176	-0.258
-272.370	-58.005	-0.332	-0.143
-271.355	-200.000	0.001	-0.212
-270.340	42.526	0.194	-0.174
-269.326	76.026	0.104	0.109
-268.311	-200.000	-0.003	0.122
-267.297	-200.000	-0.012	-0.212
-266.282	51.776	0.183	-0.172
-265.267	94.206	-0.147	-0.164
-264.253	-81.521	0.232	-0.075
-263.238	-67.846	-0.421	-0.162
-262.224	225.122	-0.182	0.291
-261.209	-23.425	0.391	0.231
-260.195	-200.000	0.053	0.301
-259.180	-110.876	-0.042	0.009
-258.165	-200.000	-0.047	0.251
-257.151	186.970	0.149	-0.219
-256.136	-200.000	0.009	0.203
-255.122	-172.560	0.315	-0.010
-254.107	18.301	-0.105	0.083
-253.092	-200.000	-0.019	-0.190
-252.078	-47.119	0.316	-0.152
-251.063	-82.384	0.272	0.087
-250.049	241.737	0.105	0.173
-249.034	397.693	-0.037	-0.076
-248.019	-129.937	-0.319	-0.043
-247.005	800.000	0.043	0.136
-245.990	-101.358	0.255	0.061
-244.976	714.511	-0.043	0.113
-243.961	-76.241	-0.616	-0.214
-242.946	96.257	-0.112	0.126
-241.932	-144.014	-0.157	-0.015
-240.917	186.542	-0.150	0.219
-239.903	54.160	0.202	0.191
-238.888	63.921	-0.114	0.113
-237.873	-97.368	0.105	-0.027
-236.859	800.000	0.047	0.160
-235.844	-10.912	-0.311	0.203
-234.830	-200.000	-0.034	0.180
-233.815	311.343	0.218	-0.403
-232.800	-200.000	0.006	0.123
-231.786	-182.339	0.375	0.007
-230.771	-18.177	-0.145	-0.089
-229.757	-200.000	-0.030	0.141
-228.742	-45.758	-0.086	0.042
-227.727	-155.949	0.242	0.015
-226.713	-200.000	0.004	-0.217
-225.698	800.000	0.078	-0.284
-224.684	800.000	-0.137	0.448
-223.669	-179.652	0.159	-0.003
-222.655	645.062	-0.028	-0.071
-221.640	271.476	0.007	-0.012
-220.625	-7.740	0.250	-0.166
-219.611	515.654	-0.063	0.146
-218.596	68.479	-0.173	0.174
-217.582	86.592	0.112	-0.122
-216.567	-118.996	0.153	-0.026
-215.552	299.960	0.095	-0.172
-214.538	356.107	-0.059	0.115
-213.523	-200.000	0.063	-0.356
-212.509	-41.320	0.014	0.007
-211.494	426.493	-0.125	-0.266
-210.479	130.378	-0.178	-0.224
-209.465	373.411	0.107	0.215
-208.450	-96.790	-0.203	-0.052
-207.436	207.355	-0.073	0.111
-206.421	-69.980	-0.341	0.128
-205.406	605.373	-0.150	0.366
-204.392	800.000	0.083	0.304
-203.377	800.000	0.050	0.197
-202.363	149.624	0.209	0.278
-201.348	64.648	0.061	-0.060
-200.333	-126.807	-0.380	-0.055
-199.319	134.433	-0.140	0.178
-198.304	30.947	-0.051	0.043
-197.290	232.608	0.235	0.380
-196.275	9.372	0.106	-0.079
-195.260	800.000	-0.054	-0.194
-194.246	-74.255	0.230	-0.082
-193.231	-54.646	-0.178	0.079
-192.217	-66.143	0.311	-0.122
-191.202	-200.000	-0.028	0.375
-190.187	10.358	0.237	0.178
-189.173	102.491	0.122	0.140
-188.158	-200.000	0.014	-0.266
-187.144	575.103	0.119	-0.286
-186.129	-200.000	-0.008	0.250
-185.114	27.600	-0.240	0.199
-184.100	-183.219	0.145	0.003
-183.085	281.184	0.188	-0.330
-182.071	-40.981	-0.247	-0.126
-181.056	395.933	0.083	-0.170
-180.042	-200.000	0.006	-0.109
-179.027	-169.815	0.131	0.005
-178.012	230.086	-0.046	-0.074
-176.998	155.419	0.066	-0.090
-175.983	-7.201	-0.098	-0.065
-174.969	301.141	0.179	-0.326
-173.954	-200.000	-0.014	0.205
-172.939	289.170	0.037	-0.066
-171.925	-200.000	-0.013	0.402
-170.910	92.592	0.390	0.433
-169.896	800.000	0.054	0.159
-168.881	46.075	-0.269	-0.244
-167.866	-78.584	0.140	0.047
-166.852	-145.727	-0.092	0.008
-165.837	-73.561	0.206	0.074
-164.823	-200.000	-0.002	0.163
-163.808	-8.016	0.447	-0.296
-162.793	-92.453	0.087	-0.024
-161.779	-145.097	-0.198	-0.018
-160.764	-90.752	0.257	0.073
-159.750	800.000	-0.032	0.101
-158.735	-130.414	-0.316	-0.042
-157.720	-200.000	0.017	0.150
-156.706	-200.000	-0.008	0.062
-155.691	98.607	-0.238	0.270
-154.677	-83.893	-0.181	-0.057
-153.662	276.325	0.216	-0.376
-152.647	64.285	-0.076	-0.075
-151.633	-123.402	-0.304	-0.048
-150.618	187.233	-0.157	-0.229
-149.604	124.598	0.172	0.212
-148.589	212.136	0.110	-0.169
-147.574	-95.133	0.106	0.028
-146.560	68.772	0.399	0.402
-145.545	-143.220	-0.385	0.036
-144.531	27.260	-0.185	-0.152
-143.516	-200.000	-0.017	0.146
-142.502	715.016	0.111	0.288
-141.487	620.746	0.052	0.129
-140.472	-81.851	-0.104	0.033
-139.458	341.042	-0.259	0.497
-138.443	-200.000	-0.052	-0.223
-137.429	-200.000	-0.044	-0.223
-136.414	117.370	-0.055	-0.066
-135.399	-6.235	-0.230	-0.154
-134.385	-41.575	-0.234	0.118
-133.370	-76.325	0.423	0.146
-132.356	-111.849	-0.176	-0.035
-131.341	26.370	-0.148	0.121
-130.326	-200.000	0.014	-0.076
-129.312	-4.418	-0.053	-0.036
-128.297	4.160	0.183	0.131
-127.283	323.486	0.038	-0.071
-126.268	45.525	0.110	-0.100
-125.253	-79.994	-0.134	-0.044
-124.239	800.000	-0.087	-0.251
-123.224	-88.401	0.282	0.083
-122.210	-106.585	-0.033	-0.007
-121.195	-31.589	0.235	0.129
-120.180	800.000	-0.057	0.157
-119.166	-8.765	-0.163	0.107
-118.151	-200.000	-0.012	-0.058
-117.137	24.899	-0.085	-0.069
-116.122	-183.765	-0.384	0.006
-115.107	261.539	-0.052	-0.088
-114.093	-107.475	-0.449	0.096
-113.078	227.473	0.061	-0.098
-112.064	335.627	-0.128	0.243
-111.049	800.000	0.019	0.054
-110.034	55.560	0.126	-0.120
-109.020	-36.022	0.106	-0.056
-108.005	333.313	0.058	0.110
-106.991	-79.343	-0.499	0.165
-105.976	-8.604	0.096	0.063
-104.962	-143.134	-0.187	-0.018
-103.947	-26.999	0.125	-0.071
-102.932	-200.000	0.025	-0.318
-101.918	-200.000	0.016	0.081
-100.903	557.281	-0.104	0.246
-99.889	523.007	0.044	0.100
-98.874	800.000	0.026	0.078
-97.859	-151.122	0.117	0.009
-96.845	-200.000	0.007	0.245
-95.830	-18.380	0.037	0.023
-94.816	800.000	0.024	0.065
-93.801	-200.000	-0.008	0.308
-92.786	-13.727	-0.135	0.086
-91.772	281.738	-0.227	-0.399
-90.757	235.438	-0.135	0.218
-89.743	-105.468	-0.265	-0.059
-88.728	169.210	0.267	-0.373
-87.713	-200.000	-0.038	0.180
-86.699	-132.422	0.153	-0.019
-85.684	728.222	0.069	-0.180
-84.670	-124.106	0.161	0.025
-83.655	-44.671	-0.110	0.054
-82.640	-200.000	-0.051	0.270
-81.626	-200.000	-0.035	-0.155
-80.611	152.280	0.339	-0.453
-79.597	674.932	0.165	-0.420
-78.582	800.000	0.089	0.249
-77.567	-72.389	-0.309	-0.112
-76.553	-200.000	-0.017	0.330
-75.538	-150.189	-0.166	-0.013
-74.524	-157.331	-0.078	0.005
-73.509	-111.223	-0.165	0.033
-72.494	275.323	0.080	-0.139
-71.480	-200.000	0.012	0.242
-70.465	-93.300	0.375	0.102
-69.451	286.920	0.046	-0.082
-68.436	397.757	0.109	-0.224
-67.422	81.734	-0.263	0.278
-66.407	-87.938	0.522	-0.153
-65.392	-200.000	-0.004	0.147
-64.378	-42.170	-0.232	0.116
-63.363	24.821	0.485	0.393
-62.349	-60.358	-0.188	0.078
-61.334	91.538	-0.960	-1.055
-60.319	-41.309	0.666	0.336
-59.305	-200.000	-0.184	-1.251
-58.290	304.159	0.539	0.978
-57.276	800.000	0.723	1.975
-56.261	-200.000	108.527	607.351
-55.246	463.902	1482.169	3239.190
-54.232	148.305	2666.498	3519.775
-53.217	100.946	2271.245	2582.774
-52.203	38.711	1886.507	1646.281
-51.188	32.916	1678.105	1420.900
-50.173	30.292	1635.530	1365.513
-49.159	50.424	1689.444	1561.535
-48.144	50.761	1704.518	1577.919
-47.130	32.522	1662.669	1404.665
-46.115	29.826	1648.199	1372.416
-45.100	29.638	1643.497	1367.061
-44.086	29.554	1640.758	1364.106
-43.071	29.493	1638.662	1361.860
-42.057	29.508	1636.072	1359.760
-41.042	29.568	1633.526	1358.034
-40.027	29.532	1631.975	1356.422
-39.013	29.520	1630.003	1354.647
-37.998	29.587	1628.355	1353.712
-36.984	29.563	1627.555	1352.820
-35.969	29.642	1626.029	1352.075
-34.954	29.671	1624.190	1350.706
-33.940	29.676	1622.550	1349.321
-32.925	29.679	1620.819	1347.850
-31.911	29.726	1618.925	1346.567
-30.896	29.674	1617.156	1344.660
-29.881	29.801	1615.294	1343.983
-28.867	29.630	1614.205	1341.783
-27.852	29.642	1612.756	1340.612
-26.838	29.660	1611.433	1339.591
-25.823	29.685	1609.893	1338.439
-24.809	29.629	1608.770	1337.046
-23.794	29.734	1607.025	1336.303
-22.779	29.653	1605.490	1334.389
-21.765	29.653	1604.120	1333.197
-20.750	29.625	1602.458	1331.560
-19.736	29.684	1601.538	1331.162
-18.721	29.771	1599.915	1330.392
-17.706	29.616	1598.549	1328.087
-16.692	29.769	1597.000	1327.845
-15.677	29.725	1595.213	1325.994
-14.663	29.712	1594.039	1324.871
-13.648	29.753	1592.460	1323.797
-12.633	29.664	1591.133	1322.009
-11.619	29.715	1589.634	1321.072
-10.604	29.631	1588.895	1319.809
-9.590	29.766	1587.184	1319.293
-8.575	29.740	1585.668	1317.798
-7.560	29.684	1584.802	1316.628
-6.546	29.712	1583.703	1315.863
-5.531	29.684	1582.543	1314.647
-4.517	29.707	1581.037	1313.509
-3.502	29.712	1580.112	1312.718
-2.487	29.752	1578.175	1311.347
-1.473	29.251	1567.068	1298.534
-0.458	26.080	1546.997	1259.753
0.556	19.881	1547.697	1225.495
1.571	17.533	1570.237	1226.339
2.586	17.174	1581.608	1232.512
3.600	16.194	1531.863	1186.747
4.615	12.843	1433.173	1088.105
5.629	9.362	1377.408	1023.557
6.644	8.648	1370.115	1013.530
7.659	8.573	1368.809	1011.999
8.673	8.566	1367.500	1010.898
9.688	8.552	1365.007	1008.878
10.702	8.345	1362.922	1005.942
11.717	9.995	1365.288	1018.004
12.731	13.962	1371.909	1047.921
13.746	16.727	1376.394	1068.724
14.761	17.052	1375.410	1069.918
15.775	16.168	1372.752	1062.187
16.790	15.046	1370.254	1053.111
17.804	14.280	1367.747	1046.278
18.819	13.885	1366.524	1042.767
19.834	13.600	1365.268	1039.930
20.848	13.396	1363.804	1037.442
21.863	13.081	1362.957	1034.735
22.877	13.032	1361.316	1033.090
23.892	12.952	1360.581	1031.941
24.907	12.941	1359.646	1031.072
25.921	12.994	1359.138	1030.924
26.936	12.960	1358.344	1030.019
27.950	12.972	1357.279	1029.197
28.965	13.088	1355.842	1028.738
29.980	13.134	1354.817	1028.153
30.994	13.252	1353.494	1027.794
32.009	13.174	1352.804	1026.693
33.023	13.191	1351.299	1025.564
34.038	13.176	1349.989	1024.388
35.053	13.215	1348.483	1023.396
36.067	13.117	1347.349	1021.838
37.082	13.101	1346.884	1021.295
38.096	13.227	1345.490	1020.930
39.111	13.124	1345.516	1020.221
40.126	13.067	1343.944	1018.585
41.140	13.033	1343.054	1017.613
42.155	12.979	1342.722	1016.936
43.169	12.883	1342.601	1016.163
44.184	12.863	1342.323	1015.744
45.199	12.905	1341.729	1015.463
46.213	12.950	1341.517	1015.485
47.228	13.082	1340.132	1015.160
48.242	13.136	1338.949	1014.506
49.257	12.952	1338.001	1012.569
50.271	13.001	1336.291	1011.487
51.286	13.071	1334.876	1010.752
52.301	13.042	1333.130	1009.169
53.315	13.021	1332.645	1008.581
54.330	13.082	1331.167	1007.747
55.344	12.902	1330.533	1006.081
56.359	12.887	1329.206	1004.895
57.374	12.929	1328.378	1004.436
58.388	12.781	1327.779	1002.993
59.403	12.856	1327.131	1002.870
60.417	12.913	1326.075	1002.329
61.432	12.884	1325.720	1001.799
62.447	12.848	1324.512	1000.575
63.461	12.716	1323.410	998.858
64.476	12.702	1322.705	998.149
65.490	12.793	1320.974	997.304
66.505	12.762	1319.909	996.229
67.520	12.833	1318.285	995.338
68.534	12.834	1317.561	994.710
69.549	12.828	1316.551	993.827
70.563	12.748	1315.539	992.492
71.578	12.739	1314.063	991.236
72.593	12.680	1313.331	990.244
73.607	12.607	1312.840	989.347
74.622	12.710	1311.956	989.207
75.636	12.704	1311.162	988.486
76.651	12.780	1310.273	988.184
77.666	12.696	1310.357	987.659
78.680	12.764	1309.821	987.575
79.695	12.821	1308.444	986.792
80.709	12.933	1307.520	986.678
81.724	12.869	1307.140	985.919
82.739	12.915	1305.812	985.105
83.753	12.945	1305.380	984.871
84.768	13.117	1304.236	984.949
85.782	13.182	1303.027	984.334
86.797	13.008	1302.103	982.511
87.812	12.963	1300.563	981.000
88.826	12.958	1299.619	980.170
89.841	13.036	1298.576	979.759
90.855	13.113	1297.785	979.531
91.870	13.067	1296.777	978.412
92.884	13.055	1295.925	977.607
93.899	13.127	1295.174	977.383
94.914	13.178	1294.240	976.895
95.928	13.197	1293.810	976.598
96.943	13.091	1292.744	975.080
97.957	13.147	1290.979	973.991
98.972	13.119	1290.551	973.418
99.987	13.061	1289.589	972.263
101.001	13.129	1288.101	971.454
102.016	13.181	1287.065	970.895
103.030	13.042	1286.299	969.411
104.045	13.150	1285.480	969.347
105.060	13.001	1284.459	967.617
106.074	12.973	1282.903	966.195
107.089	12.958	1281.234	964.761
108.103	12.773	1280.348	962.931
109.118	12.905	1278.713	962.385
110.133	12.797	1277.871	961.036
111.147	12.880	1276.341	960.287
112.162	12.916	1274.977	959.382
113.176	12.905	1274.136	958.604
114.191	12.977	1273.398	958.381
115.206	12.970	1272.081	957.264
116.220	12.931	1270.637	955.866
117.235	12.975	1269.772	955.385
118.249	13.014	1268.317	954.431
119.264	12.926	1267.269	953.048
120.279	12.927	1265.764	951.837
121.293	12.803	1265.368	950.743
122.308	12.838	1264.063	949.879
123.322	12.833	1262.813	948.828
124.337	12.886	1262.083	948.500
125.352	12.778	1261.215	947.143
126.366	12.855	1259.746	946.398
127.381	12.775	1258.967	945.268
128.395	12.776	1258.349	944.725
129.410	12.901	1257.004	944.348
130.424	12.867	1256.675	943.826
131.439	12.896	1255.491	943.016
132.454	12.962	1254.661	942.686
133.468	12.958	1253.670	941.836
134.483	12.855	1253.524	941.058
135.497	12.905	1252.131	940.214
136.512	12.993	1250.338	939.285
137.527	12.968	1249.519	938.441
138.541	12.893	1247.972	936.771
139.556	13.017	1246.904	936.589
140.570	13.002	1245.990	935.737
141.585	13.185	1244.324	935.439
142.600	13.168	1243.198	934.411
143.614	13.213	1242.337	933.937
144.629	13.262	1241.770	933.704
145.643	13.263	1240.107	932.381
146.658	13.212	1238.849	931.065
147.673	13.127	1237.753	929.677
148.687	12.972	1236.911	928.093
149.702	13.083	1235.480	927.559
150.716	12.997	1233.967	925.860
151.731	12.961	1233.210	925.005
152.746	13.120	1231.532	924.557
153.760	13.107	1230.485	923.614
154.775	13.146	1229.388	922.930
155.789	13.048	1228.669	921.759
156.804	13.110	1227.643	921.253
157.819	13.299	1225.957	920.963
158.833	13.311	1224.993	920.220
159.848	13.358	1224.587	920.097
160.862	13.474	1223.491	919.839
161.877	13.225	1222.291	917.472
162.892	13.068	1221.233	915.727
163.906	13.144	1220.399	915.442
164.921	13.177	1219.508	914.875
165.935	13.221	1218.385	914.196
166.950	13.185	1218.235	913.799
167.964	13.173	1217.159	912.849
168.979	13.197	1216.706	912.560
169.994	13.192	1215.925	911.863
171.008	13.234	1215.355	911.586
172.023	13.308	1214.429	911.223
173.037	13.347	1213.743	910.841
174.052	13.419	1212.588	910.287
175.067	13.365	1211.451	909.058
176.081	13.275	1210.883	908.055
177.096	13.292	1209.561	907.078
178.110	13.149	1208.794	905.637
179.125	13.262	1207.714	905.372
180.140	13.364	1206.227	904.732
181.154	13.347	1204.949	903.602
182.169	13.498	1203.676	903.389
183.183	13.426	1202.940	902.364
184.198	13.530	1201.550	901.809
185.213	13.546	1200.380	900.936
186.227	13.555	1199.355	900.138
187.242	13.553	1198.520	899.423
188.256	13.502	1197.808	898.529
189.271	13.552	1196.676	897.872
190.286	13.528	1195.925	897.101
191.300	13.321	1194.823	895.074
192.315	13.251	1193.996	893.996
193.329	13.259	1193.505	893.595
194.344	13.411	1192.844	893.839
195.359	13.479	1191.948	893.454
196.373	13.494	1191.979	893.480
197.388	13.554	1191.438	893.318
198.402	13.640	1190.837	893.256
199.417	13.769	1190.194	893.386
200.432	13.847	1189.113	892.916
201.446	13.705	1188.934	891.941
202.461	13.820	1187.514	891.414
203.475	13.868	1186.587	890.896
204.490	13.758	1185.244	889.220
205.504	13.659	1184.429	887.998
206.519	13.671	1183.305	887.143
207.534	13.712	1182.104	886.382
208.548	13.738	1181.074	885.671
209.563	13.740	1180.055	884.839
210.577	13.811	1179.080	884.409
211.592	13.792	1178.310	883.651
212.607	13.915	1177.655	883.734
213.621	13.953	1176.655	883.108
214.636	13.912	1176.046	882.358
215.650	13.895	1175.111	881.487
216.665	13.868	1173.867	880.334
217.680	13.950	1173.516	880.423
218.694	14.086	1171.915	879.867
219.709	13.992	1171.859	879.250
220.723	13.909	1171.097	878.161
221.738	13.928	1170.256	877.552
222.753	13.989	1169.798	877.454
223.767	14.004	1168.795	876.702
224.782	14.125	1167.758	876.487
225.796	14.119	1167.261	876.003
226.811	14.104	1166.965	875.624
227.826	14.011	1166.330	874.580
228.840	14.176	1164.995	874.367
229.855	14.041	1164.715	873.372
230.869	14.096	1163.734	872.846
231.884	14.078	1162.845	872.010
232.899	13.993	1162.431	871.178
233.913	13.875	1161.498	869.783
234.928	13.995	1160.810	869.817
235.942	13.931	1159.862	868.696
236.957	13.988	1159.132	868.371
237.972	13.925	1158.571	867.545
238.986	14.071	1157.566	867.477
240.001	14.078	1157.310	867.243
241.015	14.023	1155.963	865.871
242.030	14.168	1155.049	865.867
243.045	14.123	1154.779	865.351
244.059	14.089	1154.062	864.562
245.074	14.248	1152.910	864.451
246.088	14.268	1152.382	864.078
247.103	14.259	1151.379	863.206
248.117	14.316	1150.743	862.948
249.132	14.375	1150.435	862.947
250.147	14.493	1149.558	862.823
251.161	14.578	1148.598	862.462
252.176	14.608	1147.866	861.992
253.190	14.595	1147.674	861.705
254.205	14.681	1146.934	861.517
255.220	14.691	1146.391	861.084
256.234	14.675	1145.677	860.387
257.249	14.662	1144.753	859.553
258.263	14.664	1144.193	859.067
259.278	14.614	1143.925	858.534
260.293	14.733	1143.368	858.650
261.307	14.763	1142.471	858.054
262.322	14.769	1142.150	857.767
263.336	14.824	1141.144	857.218
264.351	14.835	1140.801	856.944
265.366	14.909	1140.060	856.689
266.380	14.904	1139.519	856.179
267.395	14.754	1138.745	854.753
268.409	14.868	1137.796	854.552
269.424	14.736	1137.210	853.358
270.439	14.765	1136.845	853.157
271.453	14.697	1135.996	852.098
272.468	14.660	1134.892	851.008
273.482	14.693	1134.361	850.699
274.497	14.729	1133.552	850.201
275.512	14.845	1132.798	850.153
276.526	14.805	1132.503	849.650
277.541	14.741	1131.536	848.525
278.555	14.806	1130.763	848.201
279.570	14.930	1129.949	848.147
280.585	14.995	1129.298	847.909
281.599	14.981	1128.673	847.295
282.614	14.876	1127.673	845.936
283.628	14.934	1126.223	845.070
284.643	14.972	1125.257	844.462
285.657	15.011	1124.584	844.077
286.672	15.012	1123.641	843.301
287.687	14.966	1122.693	842.281
288.701	14.966	1122.581	842.124
289.716	15.000	1121.643	841.515
290.730	15.160	1120.422	841.331
291.745	15.108	1119.906	840.606
292.760	15.131	1119.296	840.190
293.774	15.188	1118.848	840.067
294.789	15.215	1117.943	839.449
295.803	15.095	1117.591	838.510
296.818	15.147	1116.756	838.065
297.833	15.069	1116.008	837.043
298.847	15.175	1115.148	836.853
299.862	15.121	1114.822	836.262
300.876	15.159	1113.822	835.628
301.891	15.267	1113.017	835.488
302.906	15.240	1112.644	835.001
303.920	15.289	1111.859	834.584
304.935	15.302	1111.421	834.246
305.949	15.476	1110.081	834.032
306.964	15.437	1109.438	833.277
307.979	15.480	1108.806	832.944
308.993	15.317	1108.502	831.831
310.008	15.312	1107.550	831.023
311.022	15.449	1106.915	831.149
312.037	15.481	1105.705	830.323
313.052	15.398	1105.161	829.433
314.066	15.295	1104.181	828.117
315.081	15.332	1103.262	827.537
316.095	15.351	1102.929	827.307
317.110	15.411	1101.936	826.783
318.125	15.341	1100.934	825.612
319.139	15.309	1100.803	825.283
320.154	15.314	1100.129	824.733
321.168	15.415	1099.163	824.428
322.183	15.291	1098.680	823.387
323.197	15.245	1098.187	822.717
324.212	15.441	1097.244	822.899
325.227	15.444	1097.082	822.723
326.241	15.405	1096.192	821.787
327.256	15.391	1095.396	821.050
328.270	15.491	1094.516	820.806
329.285	15.473	1093.444	819.844
330.300	15.497	1092.443	819.138
331.314	15.399	1091.695	818.025
332.329	15.339	1091.024	817.161
333.343	15.439	1090.235	816.985
334.358	15.528	1089.031	816.440
335.373	15.637	1088.405	816.431
336.387	15.651	1087.497	815.745
337.402	15.599	1087.121	815.139
338.416	15.574	1086.409	814.408
339.431	15.765	1085.658	814.701
340.446	15.930	1084.801	814.782
341.460	15.799	1084.494	813.849
342.475	15.875	1083.268	813.223
343.489	15.877	1082.841	812.840
344.504	15.873	1081.890	812.032
345.519	15.844	1081.171	811.283
346.533	16.001	1079.999	811.090
347.548	15.914	1079.350	810.109
348.562	15.938	1078.741	809.694
349.577	15.789	1078.547	808.763
350.592	15.829	1077.145	807.832
351.606	15.896	1076.458	807.564
352.621	15.800	1075.788	806.533
353.635	15.926	1075.172	806.602
354.650	15.926	1074.031	805.676
355.665	15.753	1074.026	804.771
356.679	15.884	1073.142	804.666
357.694	15.973	1072.523	804.555
358.708	15.997	1071.602	803.908
359.723	16.095	1070.996	803.851
360.738	16.127	1070.367	803.458
361.752	15.988	1070.063	802.497
362.767	15.915	1069.885	801.944
363.781	15.887	1068.982	801.066
364.796	16.019	1068.362	801.157
365.810	16.224	1067.620	801.501
366.825	16.201	1067.101	800.931
367.840	16.365	1066.520	801.202
368.854	16.352	1066.197	800.829
369.869	16.197	1065.439	799.454
370.883	16.329	1064.385	799.219
371.898	16.251	1063.874	798.395
372.913	16.180	1063.229	797.505
373.927	16.252	1062.681	797.364
374.942	16.333	1062.104	797.241
375.956	16.411	1061.620	797.175
376.971	16.297	1061.121	796.190
377.986	16.445	1060.149	796.089
379.000	16.335	1060.227	795.561
380.015	16.483	1059.170	795.393
381.029	16.575	1058.499	795.251
382.044	16.481	1057.828	794.235
383.059	16.417	1057.620	793.708
384.073	16.389	1056.840	792.921
385.088	16.501	1055.574	792.424
386.102	16.579	1054.635	792.014
387.117	16.489	1053.751	790.861
388.132	16.442	1052.575	789.690
389.146	16.360	1052.396	789.099
390.161	16.346	1051.642	788.400
391.175	16.390	1050.844	787.937
392.190	16.441	1050.411	787.781
393.205	16.447	1049.732	787.229
394.219	16.570	1048.556	786.853
395.234	16.556	1047.771	786.127
396.248	16.566	1046.676	785.283
397.263	16.382	1046.085	783.914
398.278	16.457	1045.301	783.605
399.292	16.414	1044.643	782.846
400.307	16.561	1043.619	782.689
401.321	16.548	1042.832	781.969
402.336	16.588	1042.529	781.856
403.350	16.575	1041.421	780.895
404.365	16.492	1041.034	780.154
405.380	16.507	1040.505	779.760
406.394	16.715	1039.794	780.116
407.409	16.703	1039.124	779.490
408.423	16.719	1038.286	778.864
409.438	16.830	1037.618	778.803
410.453	16.833	1036.847	778.172
411.467	16.907	1036.488	778.174
412.482	16.813	1035.647	777.042
413.496	17.031	1034.326	776.980
414.511	16.918	1034.373	776.427
415.526	17.219	1033.485	777.069
416.540	17.094	1033.014	776.075
417.555	16.995	1033.189	775.685
418.569	17.015	1032.639	775.297
419.584	17.051	1032.017	774.922
420.599	16.990	1031.466	774.164
421.613	103.696	1323.264	1471.917
422.628	94.906	1365.743	1472.008
