DTS Sentinel unit serial number:	SN413079Multiplexer serial number:	ORYXHardware model number:	OX4-SRSoftware version number:	ORYX F/W v4.00 Oryx Data Collector v3.7.2.0data status	okinstallation	princeton_trtdifferential loss correction	single-endedforward channel	channel 2reverse channel	N/Adate	2019/09/19time	12:19:35forward acquisition time	60.00reverse acquisition time	0.00gamma	496.2192k internal	0.2336k external	0.2336temperature offset calibration	1.0012default loss term (dB/km)	0.3790temperature slope calibration	1.0000multiplexer offset coefficient	1.0000multiplexer slope coefficient	1.0000fibre end	0.00T internal ref (°C)	26.61T ext. ref 1 (°C)	0.86T ext. ref 2 (°C)	23.70length (m)	temperature (°C)	Stokes	anti-Stokes-747.200	371.424	0.191	-0.388
-746.185	-200.000	0.046	0.206
-745.171	-200.000	0.016	0.152
-744.156	-52.086	-0.051	0.024
-743.142	-172.998	0.135	-0.004
-742.127	-22.520	-0.247	0.150
-741.112	-200.000	-0.032	-0.233
-740.098	108.985	0.168	0.202
-739.083	-31.758	-0.063	0.035
-738.069	-40.054	-0.105	-0.055
-737.054	-200.000	-0.029	-0.263
-736.039	-41.273	-0.229	-0.118
-735.025	-71.676	0.223	0.084
-734.010	-41.338	-0.105	-0.054
-732.996	-145.323	0.136	-0.012
-731.981	234.464	0.023	0.038
-730.966	161.106	-0.148	-0.207
-729.952	-20.115	0.191	-0.118
-728.937	21.422	0.149	0.122
-727.923	109.567	0.351	-0.422
-726.908	-200.000	0.008	0.119
-725.894	-123.598	-0.048	-0.008
-724.879	-200.000	0.196	-0.000
-723.864	201.171	-0.035	0.054
-722.850	206.824	0.006	-0.010
-721.835	95.632	0.211	0.242
-720.821	38.887	-0.156	-0.139
-719.806	-165.540	-0.076	0.003
-718.791	-39.637	0.158	0.083
-717.777	-163.664	0.187	-0.009
-716.762	27.571	-0.157	-0.132
-715.748	274.474	0.102	-0.181
-714.733	-200.000	0.023	0.118
-713.718	-200.000	0.021	0.205
-712.704	355.138	-0.158	0.315
-711.689	800.000	0.020	0.063
-710.675	-200.000	-0.014	0.350
-709.660	-200.000	-0.048	-0.233
-708.645	800.000	0.047	0.152
-707.631	446.417	-0.063	0.138
-706.616	327.053	0.145	-0.279
-705.602	-4.478	-0.139	-0.096
-704.587	-132.412	0.220	0.028
-703.572	225.436	-0.048	-0.078
-702.558	-77.290	0.255	-0.089
-701.543	-200.000	0.008	0.146
-700.529	-106.034	-0.021	-0.005
-699.514	191.198	0.264	-0.398
-698.499	742.822	-0.110	-0.297
-697.485	-33.731	0.187	-0.103
-696.470	-84.769	-0.065	0.020
-695.456	6.623	-0.187	0.139
-694.441	92.138	0.246	-0.278
-693.426	-200.000	-0.024	0.154
-692.412	122.193	0.238	0.298
-691.397	-90.501	0.195	0.057
-690.383	334.452	0.023	0.045
-689.368	-200.000	0.014	-0.271
-688.354	-7.189	-0.102	-0.069
-687.339	-109.484	0.080	-0.017
-686.324	321.613	0.096	0.182
-685.310	-37.821	-0.140	-0.075
-684.295	-132.802	0.402	-0.051
-683.281	-132.570	0.121	0.016
-682.266	-45.984	-0.143	0.071
-681.251	36.566	-0.086	-0.076
-680.237	-200.000	0.022	0.466
-679.222	19.973	0.102	-0.083
-678.208	-75.678	-0.128	-0.045
-677.193	-200.000	-0.032	0.158
-676.178	-150.314	-0.270	0.021
-675.164	-56.498	0.219	-0.098
-674.149	-126.956	-0.042	-0.006
-673.135	-157.778	0.103	0.006
-672.120	240.676	-0.205	0.343
-671.105	-200.000	0.004	0.184
-670.091	341.674	0.052	-0.103
-669.076	586.876	-0.023	-0.057
-668.062	-184.533	-0.413	-0.007
-667.047	185.597	-0.070	0.103
-666.032	48.940	-0.181	0.170
-665.018	-83.780	0.012	-0.004
-664.003	-200.000	-0.031	-0.447
-662.989	111.451	-0.304	-0.367
-661.974	-51.319	0.420	-0.197
-660.959	-31.189	0.145	-0.082
-659.945	-200.000	0.023	0.149
-658.930	-31.098	-0.178	-0.101
-657.916	371.466	0.176	-0.358
-656.901	-33.542	-0.173	-0.096
-655.886	272.782	-0.085	0.151
-654.872	423.560	-0.076	-0.164
-653.857	-94.055	-0.207	0.057
-652.843	96.415	0.037	-0.043
-651.828	241.070	-0.014	-0.023
-650.814	44.779	0.168	0.154
-649.799	-200.000	0.016	-0.236
-648.784	-160.178	-0.089	-0.005
-647.770	-200.000	-0.022	0.168
-646.755	656.415	-0.067	0.171
-645.741	800.000	0.044	-0.144
-644.726	162.953	0.159	-0.224
-643.711	195.678	0.180	0.274
-642.697	-92.948	0.309	-0.086
-641.682	-200.000	-0.007	0.146
-640.668	-17.030	0.065	0.041
-639.653	609.246	-0.067	-0.167
-638.638	-157.096	-0.179	-0.011
-637.624	-98.005	0.071	0.018
-636.609	-103.071	0.104	0.025
-635.595	-9.255	-0.221	-0.148
-634.580	-81.723	0.055	0.018
-633.565	-88.989	0.125	-0.037
-632.551	744.759	0.139	-0.374
-631.536	-106.683	-0.397	0.088
-630.522	-2.794	-0.211	-0.147
-629.507	-172.511	-0.233	0.007
-628.492	128.848	0.157	-0.200
-627.478	330.610	-0.147	-0.283
-626.463	-200.000	0.038	-0.560
-625.449	-200.000	0.004	0.241
-624.434	108.597	-0.185	0.221
-623.419	-14.755	0.297	0.191
-622.405	-141.646	-0.097	-0.010
-621.390	-195.097	0.258	-0.002
-620.376	-70.755	-0.194	0.073
-619.361	254.688	-0.100	0.171
-618.346	171.172	-0.182	-0.261
-617.332	225.858	0.110	0.179
-616.317	236.682	-0.255	0.423
-615.303	-200.000	-0.034	-0.224
-614.288	800.000	-0.038	-0.153
-613.273	662.779	-0.102	-0.264
-612.259	-127.281	0.147	0.021
-611.244	800.000	-0.085	0.281
-610.230	-200.000	-0.047	-0.309
-609.215	800.000	0.061	0.265
-608.201	69.406	0.238	-0.245
-607.186	-35.176	-0.169	-0.092
-606.171	-47.957	0.250	0.121
-605.157	-162.398	-0.324	-0.016
-604.142	-68.802	0.089	0.034
-603.128	115.743	0.026	-0.031
-602.113	536.531	-0.089	-0.210
-601.098	-200.000	0.006	0.237
-600.084	-200.000	0.001	0.044
-599.069	-102.026	0.146	-0.035
-598.055	66.578	-0.129	0.131
-597.040	-45.070	0.566	-0.281
-596.025	800.000	-0.024	0.081
-595.011	74.346	-0.163	0.170
-593.996	15.473	0.153	0.120
-592.982	64.526	0.132	0.133
-591.967	800.000	-0.092	0.315
-590.952	-200.000	0.006	-0.070
-589.938	57.841	-0.073	0.072
-588.923	-60.121	0.169	-0.072
-587.909	-100.368	-0.227	0.056
-586.894	202.556	0.092	-0.142
-585.879	181.988	-0.148	0.218
-584.865	-200.000	-0.006	0.046
-583.850	3.001	0.231	0.167
-582.836	-40.679	0.554	-0.286
-581.821	-59.228	0.325	0.140
-580.806	223.614	-0.076	-0.123
-579.792	-200.000	0.002	-0.061
-578.777	-200.000	0.031	-0.313
-577.763	-27.693	0.176	-0.102
-576.748	-114.813	0.177	0.034
-575.733	49.644	-0.107	-0.100
-574.719	800.000	-0.083	-0.298
-573.704	-200.000	-0.006	0.084
-572.690	-26.327	-0.356	-0.209
-571.675	261.303	0.191	-0.329
-570.661	-62.649	0.185	-0.076
-569.646	-85.649	-0.074	-0.023
-568.631	238.192	0.064	-0.106
-567.617	-168.990	0.281	-0.010
-566.602	61.360	0.171	-0.169
-565.588	-37.988	-0.280	-0.148
-564.573	497.050	0.056	0.129
-563.558	477.447	-0.214	0.483
-562.544	55.950	-0.014	0.014
-561.529	-200.000	-0.037	0.180
-560.515	-106.576	0.499	-0.111
-559.500	-151.633	-0.349	0.026
-558.485	216.078	-0.131	0.207
-557.471	115.574	0.079	0.096
-556.456	-44.676	0.194	-0.096
-555.442	132.950	-0.231	-0.298
-554.427	125.714	-0.031	0.039
-553.412	-145.838	-0.262	0.023
-552.398	202.293	-0.056	0.086
-551.383	-97.381	-0.243	-0.063
-550.369	-96.441	0.220	-0.058
-549.354	459.922	0.025	0.056
-548.339	199.729	0.188	-0.288
-547.325	-200.000	0.062	-0.327
-546.310	3.410	0.105	-0.077
-545.296	800.000	0.120	0.354
-544.281	451.294	0.108	-0.239
-543.266	8.329	0.347	-0.260
-542.252	319.673	-0.097	-0.183
-541.237	755.033	-0.019	-0.052
-540.223	800.000	0.048	-0.143
-539.208	800.000	-0.133	-0.379
-538.193	-59.151	-0.367	0.157
-537.179	-97.850	0.132	0.034
-536.164	-88.176	0.075	0.022
-535.150	-148.530	-0.289	0.023
-534.135	13.340	-0.241	-0.186
-533.121	89.378	0.213	0.236
-532.106	7.124	-0.084	0.062
-531.091	-200.000	-0.012	0.090
-530.077	40.834	-0.168	0.151
-529.062	28.724	0.225	0.190
-528.048	-123.978	0.133	0.021
-527.033	102.674	0.043	-0.051
-526.018	-73.892	-0.359	-0.130
-525.004	-111.512	-0.130	0.026
-523.989	-77.962	0.229	0.079
-522.975	-200.000	0.070	0.452
-521.960	58.447	-0.174	0.170
-520.945	-126.789	0.408	0.060
-519.931	-36.954	-0.204	0.109
-518.916	-104.860	-0.187	-0.043
-517.902	-200.000	0.037	0.410
-516.887	229.993	-0.126	-0.205
-515.872	237.038	0.188	-0.309
-514.858	-178.021	-0.336	-0.008
-513.843	-135.274	-0.171	0.020
-512.829	-101.684	-0.019	-0.005
-511.814	96.406	0.228	-0.259
-510.799	-200.000	-0.053	-0.360
-509.785	-12.596	-0.109	-0.070
-508.770	203.234	-0.062	0.095
-507.756	-200.000	0.008	-0.199
-506.741	206.241	-0.076	-0.117
-505.726	-200.000	0.020	0.154
-504.712	-154.135	0.080	0.005
-503.697	311.149	-0.088	-0.165
-502.683	3.501	-0.099	-0.072
-501.668	14.805	0.199	0.155
-500.653	-200.000	0.036	-0.187
-499.639	34.030	-0.061	-0.053
-498.624	-200.000	-0.036	0.173
-497.610	-54.115	-0.099	0.045
-496.595	-200.000	-0.085	-0.404
-495.581	-133.223	-0.084	-0.011
-494.566	105.088	-0.098	-0.115
-493.551	-13.232	0.189	-0.122
-492.537	170.041	-0.032	-0.045
-491.522	-110.613	0.365	0.075
-490.508	-7.868	0.081	-0.055
-489.493	800.000	0.047	0.160
-488.478	179.026	-0.179	0.260
-487.464	92.244	0.301	0.338
-486.449	-78.467	0.117	0.040
-485.435	376.006	0.123	0.250
-484.420	-30.005	0.313	0.177
-483.405	33.422	0.153	-0.132
-482.391	517.935	-0.040	0.094
-481.376	-140.003	0.286	-0.030
-480.362	800.000	-0.089	-0.249
-479.347	41.424	-0.150	-0.135
-478.332	117.748	-0.189	-0.232
-477.318	-81.477	0.062	0.020
-476.303	-112.118	-0.159	0.032
-475.289	-180.256	0.133	0.003
-474.274	113.677	-0.238	0.287
-473.259	-23.844	-0.195	0.116
-472.245	800.000	0.027	0.086
-471.230	-86.273	-0.158	-0.048
-470.216	1.313	0.059	0.042
-469.201	-5.873	0.046	-0.031
-468.186	608.620	-0.096	-0.239
-467.172	-200.000	-0.308	0.001
-466.157	5.209	-0.291	-0.213
-465.143	-200.000	-0.013	-0.376
-464.128	800.000	0.048	-0.185
-463.113	800.000	-0.041	-0.141
-462.099	113.152	0.058	-0.069
-461.084	129.437	-0.345	0.437
-460.070	19.093	-0.129	-0.103
-459.055	-200.000	0.019	0.263
-458.040	246.572	-0.205	-0.343
-457.026	-137.065	0.129	0.015
-456.011	-92.968	-0.115	0.032
-454.997	-200.000	-0.076	-0.347
-453.982	106.469	0.295	-0.347
-452.968	-79.220	-0.164	0.055
-451.953	-51.347	0.163	-0.076
-450.938	-200.000	0.015	0.150
-449.924	-166.189	0.255	0.011
-448.909	-59.713	-0.156	-0.066
-447.895	-38.471	-0.051	-0.027
-446.880	800.000	-0.110	0.360
-445.865	327.860	0.093	0.178
-444.851	-92.108	-0.205	0.058
-443.836	-63.254	-0.222	0.091
-442.822	-54.809	-0.136	-0.061
-441.807	-136.991	-0.083	0.009
-440.792	-1.605	-0.344	-0.240
-439.778	-45.492	-0.186	-0.091
-438.763	84.418	0.016	-0.017
-437.749	77.389	0.150	0.158
-436.734	-26.957	0.272	0.158
-435.719	322.130	0.119	-0.224
-434.705	132.307	-0.051	0.065
-433.690	481.422	-0.056	-0.126
-432.676	494.592	0.069	-0.158
-431.661	-133.342	-0.277	0.035
-430.646	-12.610	0.273	-0.177
-429.632	769.382	-0.019	-0.051
-428.617	420.835	-0.171	0.364
-427.603	22.784	-0.109	-0.088
-426.588	-182.184	-0.169	-0.003
-425.573	13.224	0.093	-0.071
-424.559	557.604	0.112	-0.268
-423.544	-36.320	0.243	0.130
-422.530	-200.000	0.003	0.537
-421.515	194.943	-0.113	0.170
-420.500	179.022	0.111	0.161
-419.486	-103.822	-0.122	-0.028
-418.471	-200.000	-0.058	-0.520
-417.457	105.681	0.066	0.077
-416.442	226.382	0.134	-0.216
-415.428	-142.077	-0.302	-0.030
-414.413	47.583	0.083	0.077
-413.398	212.925	0.052	-0.081
-412.384	800.000	0.088	0.292
-411.369	-127.009	0.099	-0.014
-410.355	-85.912	0.252	-0.077
-409.340	348.144	0.132	-0.258
-408.325	52.379	-0.187	0.176
-407.311	-49.650	0.128	-0.060
-406.296	-134.385	0.442	-0.054
-405.282	-79.880	-0.257	0.085
-404.267	-157.379	0.256	-0.015
-403.252	74.644	0.064	0.066
-402.238	-7.085	0.127	0.085
-401.223	-200.000	0.169	-0.001
-400.209	-96.476	-0.312	-0.082
-399.194	-136.801	0.258	-0.029
-398.179	139.376	-0.306	0.399
-397.165	-52.316	0.146	-0.067
-396.150	-96.479	0.155	-0.041
-395.136	-89.617	0.272	0.079
-394.121	-136.789	-0.207	-0.024
-393.106	800.000	0.065	0.276
-392.092	62.075	-0.099	0.098
-391.077	-127.002	-0.089	-0.013
-390.063	-78.362	0.210	0.071
-389.048	800.000	0.027	-0.102
-388.033	-200.000	0.009	-0.120
-387.019	-200.000	0.014	-0.122
-386.004	800.000	-0.050	0.143
-384.990	67.947	0.039	-0.040
-383.975	81.218	-0.158	-0.169
-382.960	-200.000	-0.008	-0.291
-381.946	17.083	0.044	0.035
-380.931	-134.821	-0.264	-0.032
-379.917	-131.128	0.250	-0.033
-378.902	77.161	0.026	0.028
-377.888	21.504	0.060	0.048
-376.873	14.457	0.134	-0.104
-375.858	-117.462	0.136	-0.024
-374.844	-200.000	0.055	0.350
-373.829	-200.000	-0.006	0.154
-372.815	-39.901	0.322	0.166
-371.800	219.361	-0.138	0.219
-370.785	293.435	-0.112	0.202
-369.771	234.219	0.140	0.228
-368.756	239.531	0.099	0.163
-367.742	-4.928	-0.241	-0.164
-366.727	100.733	0.402	0.463
-365.712	-200.000	0.019	0.086
-364.698	-160.792	-0.344	-0.018
-363.683	317.972	-0.268	0.502
-362.669	-102.222	-0.406	-0.097
-361.654	-62.000	0.128	-0.053
-360.639	374.670	-0.171	0.345
-359.625	331.443	-0.118	-0.226
-358.610	585.339	0.155	0.376
-357.596	800.000	0.115	-0.337
-356.581	-45.789	-0.585	-0.286
-355.566	125.732	-0.278	0.347
-354.552	80.257	0.082	-0.087
-353.537	-130.979	-0.337	0.045
-352.523	-200.000	-0.001	0.167
-351.508	42.290	0.125	0.112
-350.493	-91.039	0.081	-0.023
-349.479	-9.472	0.168	0.111
-348.464	242.072	0.018	0.029
-347.450	505.836	-0.128	0.294
-346.435	800.000	-0.094	0.330
-345.420	-25.332	0.332	-0.194
-344.406	-200.000	0.015	0.147
-343.391	-143.833	0.084	0.008
-342.377	655.510	0.042	0.107
-341.362	554.200	-0.015	-0.035
-340.348	-200.000	-0.024	0.443
-339.333	-200.000	0.040	-0.222
-338.318	800.000	-0.082	-0.275
-337.304	-64.198	0.117	0.047
-336.289	241.033	0.147	0.242
-335.275	24.371	-0.304	-0.248
-334.260	613.395	0.101	0.251
-333.245	-92.284	0.197	0.055
-332.231	-107.353	-0.237	-0.052
-331.216	587.422	0.084	-0.203
-330.202	38.879	0.240	0.212
-329.187	-200.000	-0.023	0.155
-328.172	485.994	0.217	-0.488
-327.158	-92.079	0.339	-0.095
-326.143	-52.379	-0.372	0.170
-325.129	69.299	-0.116	0.117
-324.114	102.392	0.177	0.205
-323.099	-155.710	0.107	0.007
-322.085	800.000	-0.058	0.242
-321.070	-44.632	0.166	0.082
-320.056	-21.560	-0.248	0.149
-319.041	-1.528	-0.306	0.213
-318.026	-102.888	0.147	0.034
-317.012	608.602	-0.047	0.116
-315.997	800.000	0.081	-0.279
-314.983	-200.000	0.002	-0.061
-313.968	93.629	0.233	0.261
-312.953	-185.366	0.198	-0.003
-311.939	-115.282	-0.483	0.090
-310.924	-2.817	-0.077	-0.053
-309.910	800.000	-0.044	-0.191
-308.895	-22.716	0.274	0.163
-307.880	224.414	0.151	0.241
-306.866	317.719	-0.119	-0.222
-305.851	-50.967	-0.446	0.207
-304.837	-16.884	0.157	0.098
-303.822	275.344	-0.059	0.103
-302.807	-156.520	-0.223	-0.014
-301.793	-200.000	0.023	-0.141
-300.778	-173.210	-0.286	-0.009
-299.764	131.988	0.164	-0.208
-298.749	8.233	-0.038	-0.028
-297.735	-200.000	0.045	-0.248
-296.720	-200.000	0.004	-0.269
-295.705	-40.768	-0.142	-0.073
-294.691	-81.192	-0.150	-0.049
-293.676	123.450	-0.064	-0.079
-292.662	282.805	-0.126	-0.223
-291.647	274.420	0.032	-0.056
-290.632	-34.470	-0.284	0.153
-289.618	-82.657	0.055	-0.018
-288.603	800.000	0.030	-0.098
-287.589	47.745	-0.066	0.061
-286.574	-200.000	-0.001	-0.106
-285.559	160.416	0.187	-0.257
-284.545	-200.000	-0.030	-0.143
-283.530	657.156	0.162	-0.411
-282.516	356.132	0.166	-0.326
-281.501	298.715	0.128	-0.232
-280.486	-138.755	-0.125	0.013
-279.472	-22.462	0.211	0.126
-278.457	36.122	-0.044	0.038
-277.443	-200.000	0.002	-0.076
-276.428	-102.881	0.050	-0.012
-275.413	-8.318	0.263	0.175
-274.399	800.000	-0.111	0.362
-273.384	65.247	-0.111	-0.111
-272.370	47.465	0.082	-0.076
-271.355	544.588	-0.088	0.207
-270.340	35.129	0.147	-0.127
-269.326	4.059	-0.171	-0.124
-268.311	-200.000	-0.019	0.105
-267.297	-41.704	-0.228	0.115
-266.282	-185.104	0.248	0.004
-265.267	-200.000	0.009	-0.076
-264.253	-200.000	-0.044	0.433
-263.238	73.524	-0.247	0.255
-262.224	-68.887	0.136	0.052
-261.209	-40.534	-0.244	0.125
-260.195	-137.292	0.152	0.017
-259.180	-60.031	0.078	0.033
-258.165	23.401	0.133	0.108
-257.151	62.233	0.023	-0.022
-256.136	-200.000	0.001	-0.010
-255.122	-25.778	0.197	0.114
-254.107	-56.096	-0.185	-0.081
-253.092	-145.836	0.153	0.013
-252.078	-43.627	-0.175	0.087
-251.063	800.000	-0.029	0.118
-250.049	8.650	0.135	0.100
-249.034	1.871	-0.095	0.068
-248.019	393.646	0.171	0.352
-247.005	-71.053	-0.164	0.061
-245.990	-82.463	-0.178	0.057
-244.976	60.612	-0.271	-0.265
-243.961	-200.000	0.050	-0.453
-242.946	-72.728	-0.176	-0.064
-241.932	-200.000	-0.022	-0.126
-240.917	-200.000	0.001	0.034
-239.903	104.231	0.422	0.488
-238.888	123.500	-0.193	0.238
-237.873	0.198	0.142	0.099
-236.859	200.536	-0.090	0.136
-235.844	-32.237	0.081	-0.044
-234.830	95.790	0.172	-0.193
-233.815	-72.433	0.262	-0.095
-232.800	25.722	0.187	-0.153
-231.786	-182.669	-0.097	0.002
-230.771	217.039	0.155	0.242
-229.757	427.084	-0.154	0.326
-228.742	155.691	0.031	-0.042
-227.727	-60.719	-0.093	0.039
-226.713	541.409	-0.081	0.189
-225.698	-83.204	-0.211	0.067
-224.684	-68.332	0.182	0.070
-223.669	-200.000	0.007	0.133
-222.655	-16.271	-0.084	0.053
-221.640	19.521	0.103	0.082
-220.625	-70.047	0.127	-0.047
-219.611	-20.140	-0.105	0.064
-218.596	57.032	0.162	-0.155
-217.582	92.230	-0.367	0.407
-216.567	-200.000	-0.064	-0.293
-215.552	800.000	-0.011	0.041
-214.538	65.795	-0.214	-0.213
-213.523	-159.781	-0.440	0.024
-212.509	-200.000	0.030	-0.277
-211.494	8.954	0.202	-0.150
-210.479	24.621	-0.106	-0.086
-209.465	-162.868	-0.207	0.010
-208.450	362.364	0.113	0.223
-207.436	-137.107	-0.157	-0.018
-206.421	-19.597	0.239	0.146
-205.406	-147.101	-0.164	-0.014
-204.392	-99.354	0.340	-0.084
-203.377	-22.459	-0.093	0.055
-202.363	-200.000	-0.003	-0.588
-201.348	-200.000	-0.019	-0.278
-200.333	-5.330	-0.048	0.032
-199.319	-112.756	-0.290	0.057
-198.304	-101.376	-0.173	0.042
-197.290	-200.000	-0.005	-0.127
-196.275	219.673	0.233	0.366
-195.260	800.000	-0.056	-0.229
-194.246	372.538	0.047	0.093
-193.231	85.215	0.288	-0.310
-192.217	-62.330	0.115	0.047
-191.202	-138.122	-0.239	0.026
-190.187	-19.499	-0.069	0.042
-189.173	45.874	-0.163	-0.148
-188.158	-200.000	0.012	0.279
-187.144	-118.336	-0.329	0.058
-186.129	-160.949	0.397	0.021
-185.114	-100.560	-0.125	-0.030
-184.100	-53.733	0.287	0.129
-183.085	302.266	0.116	-0.211
-182.071	97.482	-0.136	-0.153
-181.056	95.163	-0.135	-0.151
-180.042	48.174	0.142	-0.130
-179.027	-60.738	0.168	-0.070
-178.012	-152.618	-0.268	-0.019
-176.998	321.681	0.050	-0.093
-175.983	17.443	0.132	-0.103
-174.969	150.390	0.066	-0.088
-173.954	-200.000	-0.005	-0.042
-172.939	-83.035	-0.135	-0.043
-171.925	-128.494	0.284	0.040
-170.910	5.046	-0.201	0.146
-169.896	24.632	-0.233	0.189
-168.881	5.420	0.300	-0.218
-167.866	10.919	0.121	0.091
-166.852	-200.000	-0.009	-0.193
-165.837	-94.907	-0.028	0.007
-164.823	800.000	0.116	0.383
-163.808	29.981	0.206	0.173
-162.793	-42.986	0.063	-0.032
-161.779	-200.000	0.034	0.189
-160.764	-57.171	0.161	-0.069
-159.750	-121.771	0.625	-0.101
-158.735	294.609	0.043	-0.076
-157.720	-200.000	-0.038	0.334
-156.706	-200.000	-0.032	-0.171
-155.691	42.564	-0.141	-0.126
-154.677	-13.425	-0.146	0.093
-153.662	-200.000	-0.064	-0.455
-152.647	336.470	-0.039	-0.073
-151.633	-6.762	0.085	-0.057
-150.618	116.789	0.170	0.205
-149.604	-151.646	0.186	-0.013
-148.589	394.888	0.046	-0.094
-147.574	-200.000	-0.082	0.498
-146.560	112.747	0.199	0.236
-145.545	-35.971	-0.200	-0.106
-144.531	-24.869	0.135	0.079
-143.516	-28.392	0.418	0.237
-142.502	-99.214	-0.212	0.052
-141.487	56.537	0.070	0.067
-140.472	800.000	0.050	-0.163
-139.458	38.197	0.176	0.154
-138.443	188.956	-0.038	0.056
-137.429	-14.181	-0.151	0.096
-136.414	-90.793	0.162	-0.046
-135.399	52.308	0.158	-0.147
-134.385	-104.161	-0.134	0.031
-133.370	-7.000	-0.199	-0.133
-132.356	-65.733	-0.103	0.040
-131.341	-70.556	0.298	0.111
-130.326	166.830	0.119	0.166
-129.312	-46.069	-0.073	-0.035
-128.297	-92.094	0.450	0.125
-127.283	-137.758	0.313	0.034
-126.268	800.000	0.059	0.248
-125.253	322.735	0.158	-0.295
-124.239	161.746	0.167	-0.229
-123.224	12.839	-0.113	0.085
-122.210	307.539	-0.115	0.211
-121.195	800.000	0.034	-0.135
-120.180	-45.346	0.328	-0.160
-119.166	-126.097	-0.209	-0.031
-118.151	800.000	-0.043	0.143
-117.137	-200.000	0.012	-0.125
-116.122	-48.240	-0.331	0.156
-115.107	-149.987	-0.076	0.006
-114.093	328.007	-0.058	-0.109
-113.078	163.507	-0.147	-0.203
-112.064	29.601	0.377	0.314
-111.049	-95.042	0.318	0.084
-110.034	263.058	0.089	0.152
-109.020	45.420	0.233	0.211
-108.005	-200.000	-0.010	-0.055
-106.991	180.481	0.124	-0.178
-105.976	-180.682	0.164	-0.003
-104.962	198.085	0.104	0.156
-103.947	510.696	-0.100	0.228
-102.932	-39.627	0.269	0.138
-101.918	-200.000	-0.044	-0.274
-100.903	-75.026	0.197	0.069
-99.889	-86.111	0.062	0.019
-98.874	-182.094	0.375	-0.007
-97.859	-154.255	0.224	0.015
-96.845	297.085	-0.115	-0.207
-95.830	-40.108	-0.338	0.172
-94.816	-200.000	0.054	0.256
-93.801	-200.000	0.064	-0.425
-92.786	-53.600	0.336	0.150
-91.772	-200.000	-0.004	0.042
-90.757	37.503	0.034	-0.030
-89.743	437.694	0.112	0.240
-88.728	-200.000	0.021	-0.217
-87.713	73.423	0.200	-0.205
-86.699	20.167	0.216	-0.170
-85.684	371.841	0.148	-0.295
-84.670	40.176	0.238	0.210
-83.655	577.871	-0.061	-0.146
-82.640	290.888	0.339	-0.603
-81.626	20.546	-0.069	-0.054
-80.611	800.000	0.114	0.446
-79.597	-200.000	-0.015	0.288
-78.582	9.140	0.052	-0.038
-77.567	93.894	0.138	0.153
-76.553	800.000	0.027	0.073
-75.538	-18.667	0.205	-0.125
-74.524	313.122	0.022	-0.040
-73.509	-180.291	0.226	-0.005
-72.494	-24.705	0.181	-0.105
-71.480	-200.000	-0.023	-0.219
-70.465	100.789	0.127	-0.145
-69.451	-200.000	0.075	0.487
-68.436	-77.607	0.217	0.074
-67.422	-144.851	-0.230	-0.021
-66.407	-117.810	-0.202	0.036
-65.392	-153.299	0.322	-0.022
-64.378	-80.544	0.398	0.130
-63.363	-98.055	-0.221	0.056
-62.349	49.922	-0.117	-0.108
-61.334	173.066	-0.873	-1.230
-60.319	86.106	0.500	0.539
-59.305	800.000	-0.449	-1.218
-58.290	580.827	0.570	1.365
-57.276	508.919	0.724	1.645
-56.261	-200.000	113.720	620.426
-55.246	439.579	1523.834	3253.800
-54.232	141.658	2724.787	3528.617
-53.217	94.536	2329.873	2588.248
-52.203	35.956	1930.682	1660.691
-51.188	29.632	1718.271	1429.197
-50.173	27.268	1675.493	1375.706
-49.159	48.533	1731.260	1585.431
-48.144	46.922	1745.241	1585.814
-47.130	29.361	1703.612	1414.701
-46.115	26.632	1689.258	1381.932
-45.100	26.517	1683.957	1376.668
-44.086	26.460	1681.607	1374.262
-43.071	26.403	1678.741	1371.426
-42.057	26.439	1676.582	1369.887
-41.042	26.498	1674.499	1368.573
-40.027	26.454	1672.380	1366.453
-39.013	26.493	1670.104	1364.839
-37.998	26.356	1668.984	1362.831
-36.984	26.452	1667.104	1361.969
-35.969	26.497	1666.209	1361.523
-34.954	26.629	1664.027	1360.672
-33.940	26.497	1662.945	1358.743
-32.925	26.621	1660.380	1357.528
-31.911	26.557	1658.889	1355.774
-30.896	26.587	1657.158	1354.529
-29.881	26.613	1655.684	1353.466
-28.867	26.619	1654.050	1352.120
-27.852	26.689	1652.252	1351.121
-26.838	26.657	1651.004	1349.805
-25.823	26.650	1649.537	1348.505
-24.809	26.550	1648.911	1347.195
-23.794	26.654	1646.889	1346.258
-22.779	26.660	1645.946	1345.482
-21.765	26.668	1643.447	1343.440
-20.750	26.632	1641.890	1341.854
-19.736	26.634	1640.668	1340.812
-18.721	26.770	1639.117	1340.495
-17.706	26.580	1637.866	1338.017
-16.692	26.732	1635.827	1337.423
-15.677	26.723	1634.389	1336.128
-14.663	26.736	1633.277	1335.259
-13.648	26.642	1631.875	1333.369
-12.633	26.616	1630.519	1332.014
-11.619	26.536	1629.221	1330.315
-10.604	26.629	1627.198	1329.293
-9.590	26.584	1626.096	1328.008
-8.575	26.745	1624.183	1327.573
-7.560	26.589	1623.735	1326.016
-6.546	26.699	1622.030	1325.369
-5.531	26.667	1620.900	1324.162
-4.517	26.601	1620.327	1323.164
-3.502	26.640	1618.701	1322.066
-2.487	26.730	1616.971	1321.251
-1.473	26.629	1605.576	1311.162
-0.458	24.448	1587.006	1280.318
0.556	20.022	1589.284	1250.673
1.571	17.700	1613.813	1252.819
2.586	17.168	1625.830	1258.097
3.600	15.441	1570.892	1203.108
4.615	8.686	1459.969	1072.919
5.629	2.153	1397.706	985.039
6.644	1.009	1390.158	972.296
7.659	0.823	1389.124	970.294
8.673	0.862	1388.062	969.716
9.688	0.735	1385.836	967.261
10.702	0.498	1383.270	963.868
11.717	3.609	1387.095	986.354
12.731	10.789	1397.676	1039.885
13.746	15.963	1404.798	1078.290
14.761	17.142	1406.097	1086.741
15.775	16.685	1403.951	1082.067
16.790	15.637	1401.351	1073.278
17.804	14.879	1399.565	1066.979
18.819	14.567	1397.561	1063.367
19.834	14.245	1396.751	1060.604
20.848	14.026	1395.582	1058.230
21.863	13.801	1393.896	1055.425
22.877	13.527	1393.078	1052.971
23.892	13.509	1391.411	1051.505
24.907	13.482	1391.056	1050.974
25.921	13.580	1389.998	1050.700
26.936	13.596	1388.700	1049.729
27.950	13.648	1388.066	1049.488
28.965	13.650	1386.948	1048.562
29.980	13.686	1386.145	1048.090
30.994	13.742	1385.009	1047.492
32.009	13.790	1384.364	1047.216
33.023	13.727	1382.686	1045.452
34.038	13.736	1381.737	1044.700
35.053	13.757	1380.449	1043.768
36.067	13.747	1379.073	1042.571
37.082	13.763	1378.331	1042.022
38.096	13.661	1377.601	1040.733
39.111	13.653	1376.778	1039.972
40.126	13.602	1375.822	1038.835
41.140	13.548	1374.979	1037.771
42.155	13.525	1375.096	1037.625
43.169	13.511	1375.277	1037.578
44.184	13.515	1374.562	1036.974
45.199	13.575	1373.901	1036.757
46.213	13.464	1373.625	1035.765
47.228	13.666	1372.121	1035.798
48.242	13.614	1371.329	1034.785
49.257	13.527	1370.295	1033.373
50.271	13.633	1368.380	1032.498
51.286	13.704	1367.229	1031.980
52.301	13.643	1365.420	1030.142
53.315	13.701	1364.650	1029.827
54.330	13.586	1364.444	1028.869
55.344	13.729	1362.516	1028.211
56.359	13.626	1361.349	1026.602
57.374	13.672	1360.751	1026.344
58.388	13.558	1359.703	1024.761
59.403	13.533	1359.800	1024.588
60.417	13.498	1358.657	1023.417
61.432	13.579	1357.515	1022.965
62.447	13.507	1356.427	1021.612
63.461	13.499	1355.432	1020.723
64.476	13.489	1354.525	1019.889
65.490	13.549	1353.197	1019.167
66.505	13.428	1351.929	1017.376
67.520	13.555	1350.647	1017.106
68.534	13.480	1349.170	1015.439
69.549	13.460	1348.375	1014.633
70.563	13.475	1347.427	1013.919
71.578	13.541	1345.789	1013.004
72.593	13.437	1345.216	1011.846
73.607	13.432	1344.540	1011.217
74.622	13.436	1343.672	1010.501
75.636	13.426	1342.668	1009.591
76.651	13.565	1341.880	1009.756
77.666	13.508	1341.428	1008.982
78.680	13.487	1340.623	1008.161
79.695	13.360	1339.730	1006.628
80.709	13.476	1339.256	1006.887
81.724	13.596	1338.547	1006.990
82.739	13.527	1337.141	1005.427
83.753	13.559	1336.241	1004.853
84.768	13.640	1335.180	1004.459
85.782	13.605	1334.125	1003.367
86.797	13.529	1333.408	1002.279
87.812	13.570	1331.737	1001.179
88.826	13.621	1330.648	1000.581
89.841	13.539	1329.559	999.179
90.855	13.714	1328.349	999.238
91.870	13.666	1327.561	998.266
92.884	13.683	1327.308	998.088
93.899	13.658	1326.356	997.133
94.914	13.737	1325.226	996.673
95.928	13.723	1324.674	996.084
96.943	13.772	1323.583	995.467
97.957	13.671	1322.402	993.886
98.972	13.639	1321.864	993.204
99.987	13.638	1320.610	992.169
101.001	13.676	1319.588	991.537
102.016	13.708	1318.210	990.608
103.030	13.738	1317.315	990.029
104.045	13.638	1316.585	988.794
105.060	13.624	1315.052	987.470
106.074	13.638	1313.817	986.539
107.089	13.556	1312.750	985.163
108.103	13.525	1311.981	984.313
109.118	13.586	1310.234	983.281
110.133	13.644	1308.780	982.444
111.147	13.668	1307.691	981.685
112.162	13.588	1306.263	980.052
113.176	13.630	1305.359	979.532
114.191	13.719	1303.919	978.895
115.206	13.722	1302.640	977.866
116.220	13.653	1301.433	976.466
117.235	13.742	1299.930	975.775
118.249	13.645	1299.717	974.955
119.264	13.580	1298.355	973.469
120.279	13.756	1296.964	973.369
121.293	13.640	1296.374	972.165
122.308	13.614	1295.268	971.096
123.322	13.602	1294.236	970.166
124.337	13.560	1293.254	969.094
125.352	13.597	1292.133	968.389
126.366	13.493	1291.338	967.096
127.381	13.671	1289.352	966.566
128.395	13.639	1288.642	965.757
129.410	13.561	1287.414	964.299
130.424	13.655	1286.409	964.010
131.439	13.683	1285.557	963.444
132.454	13.654	1284.568	962.449
133.468	13.661	1283.932	961.931
134.483	13.657	1283.041	961.152
135.497	13.738	1281.938	960.712
136.512	13.719	1280.432	959.392
137.527	13.730	1279.269	958.495
138.541	13.711	1277.846	957.238
139.556	13.698	1276.824	956.312
140.570	13.715	1275.785	955.545
141.585	13.688	1274.682	954.480
142.600	13.743	1273.125	953.547
143.614	13.775	1272.188	952.942
144.629	13.850	1270.956	952.364
145.643	13.934	1269.470	951.651
146.658	13.792	1268.824	950.270
147.673	13.774	1267.406	949.021
148.687	13.727	1266.125	947.709
149.702	13.746	1265.103	946.966
150.716	13.659	1263.904	945.492
151.731	13.773	1262.235	944.806
152.746	13.698	1261.548	943.784
153.760	13.989	1259.812	944.054
154.775	13.949	1258.658	942.877
155.789	13.891	1257.896	941.895
156.804	13.868	1256.419	940.575
157.819	13.913	1255.397	939.981
158.833	13.960	1254.657	939.612
159.848	14.030	1253.921	939.372
160.862	14.040	1252.746	938.464
161.877	13.811	1251.896	936.451
162.892	13.991	1250.434	936.292
163.906	13.819	1249.855	934.807
164.921	13.892	1248.930	934.444
165.935	13.851	1248.031	933.459
166.950	13.958	1247.178	933.336
167.964	13.949	1246.515	932.706
168.979	13.931	1245.924	932.083
169.994	13.975	1245.085	931.620
171.008	13.982	1244.379	931.050
172.023	14.045	1243.050	930.326
173.037	14.128	1242.512	930.303
174.052	14.073	1241.639	929.261
175.067	13.941	1240.708	927.741
176.081	13.989	1239.830	927.274
177.096	14.022	1238.636	926.482
178.110	14.089	1237.221	925.716
179.125	14.145	1236.403	925.330
180.140	14.057	1235.090	923.777
181.154	14.036	1234.048	922.798
182.169	14.065	1232.757	921.914
183.183	14.152	1231.533	921.398
184.198	14.136	1230.381	920.368
185.213	14.205	1228.954	919.599
186.227	14.234	1228.077	919.021
187.242	14.319	1226.910	918.534
188.256	14.300	1225.932	917.620
189.271	14.293	1225.124	916.896
190.286	14.173	1224.476	915.666
191.300	14.113	1223.361	914.421
192.315	14.141	1222.441	913.809
193.329	14.102	1221.867	913.083
194.344	14.208	1221.591	913.376
195.359	14.249	1220.664	912.826
196.373	14.183	1220.216	912.051
197.388	14.307	1219.816	912.353
198.402	14.253	1219.336	911.617
199.417	14.390	1218.162	911.408
200.432	14.548	1217.052	911.358
201.446	14.487	1216.742	910.712
202.461	14.468	1215.703	909.749
203.475	14.463	1214.493	908.736
204.490	14.544	1213.014	907.993
205.504	14.459	1211.955	906.657
206.519	14.517	1211.028	906.198
207.534	14.509	1209.331	904.805
208.548	14.486	1208.731	904.152
209.563	14.530	1207.998	903.760
210.577	14.513	1206.692	902.614
211.592	14.573	1206.044	902.373
212.607	14.520	1205.429	901.546
213.621	14.597	1204.277	901.019
214.636	14.535	1203.509	900.032
215.650	14.606	1202.711	899.736
216.665	14.564	1201.548	898.562
217.680	14.647	1200.518	898.157
218.694	14.698	1199.825	897.833
219.709	14.690	1199.260	897.290
220.723	14.602	1198.581	896.231
221.738	14.685	1197.467	895.766
222.753	14.624	1197.009	895.012
223.767	14.728	1195.975	894.719
224.782	14.798	1195.370	894.559
225.796	14.798	1195.032	894.231
226.811	14.885	1193.968	893.820
227.826	14.760	1193.345	892.603
228.840	14.777	1192.226	891.779
229.855	14.911	1191.515	891.884
230.869	14.854	1190.758	890.936
231.884	14.763	1190.186	889.942
232.899	14.796	1189.503	889.531
233.913	14.769	1188.755	888.747
234.928	14.791	1187.813	888.080
235.942	14.822	1186.928	887.506
236.957	14.770	1186.748	887.015
237.972	14.943	1185.529	886.943
238.986	14.806	1185.541	886.149
240.001	14.748	1184.512	884.996
241.015	14.949	1183.068	884.903
242.030	15.009	1182.382	884.626
243.045	14.787	1182.196	883.233
244.059	14.937	1181.027	883.076
245.074	15.071	1179.876	882.843
246.088	15.055	1179.330	882.273
247.103	15.047	1178.403	881.462
248.117	15.026	1177.922	880.909
249.132	15.006	1177.218	880.203
250.147	15.052	1176.500	879.830
251.161	15.221	1175.506	879.897
252.176	15.244	1174.996	879.558
253.190	15.154	1174.277	878.467
254.205	15.264	1173.732	878.557
255.220	15.246	1173.434	878.164
256.234	15.235	1172.746	877.515
257.249	15.310	1171.909	877.203
258.263	15.374	1171.110	876.858
259.278	15.399	1170.060	876.130
260.293	15.253	1170.080	875.303
261.307	15.384	1169.368	875.377
262.322	15.409	1168.406	874.709
263.336	15.387	1167.989	874.207
264.351	15.436	1167.189	873.785
265.366	15.440	1166.667	873.336
266.380	15.393	1165.925	872.458
267.395	15.416	1164.909	871.742
268.409	15.466	1164.345	871.500
269.424	15.394	1163.919	870.734
270.439	15.503	1162.992	870.526
271.453	15.484	1162.767	870.181
272.468	15.462	1161.640	869.151
273.482	15.571	1160.418	868.722
274.497	15.446	1160.249	867.872
275.512	15.515	1159.617	867.680
276.526	15.535	1158.738	867.044
277.541	15.607	1157.853	866.682
278.555	15.599	1157.348	866.183
279.570	15.628	1156.324	865.492
280.585	15.703	1155.780	865.390
281.599	15.684	1154.744	864.441
282.614	15.679	1153.632	863.506
283.628	15.764	1151.981	862.630
284.643	15.618	1151.626	861.541
285.657	15.641	1151.048	861.148
286.672	15.802	1149.574	860.797
287.687	15.695	1148.912	859.675
288.701	15.717	1148.216	859.194
289.716	15.818	1147.445	859.054
290.730	15.853	1146.683	858.587
291.745	15.849	1146.059	858.022
292.760	15.824	1145.250	857.212
293.774	15.795	1145.089	856.871
294.789	15.887	1144.352	856.711
295.803	15.742	1143.698	855.406
296.818	15.845	1142.973	855.315
297.833	15.789	1142.261	854.423
298.847	15.890	1141.456	854.256
299.862	15.877	1140.358	853.292
300.876	15.865	1140.036	852.917
301.891	15.969	1138.750	852.404
302.906	16.085	1138.119	852.441
303.920	16.058	1137.550	851.802
304.935	16.004	1137.036	851.073
305.949	16.098	1136.383	850.982
306.964	16.081	1135.800	850.385
307.979	16.043	1135.149	849.628
308.993	16.127	1133.931	849.064
310.008	16.187	1133.176	848.725
311.022	16.176	1132.566	848.141
312.037	16.048	1131.913	846.934
313.052	16.152	1130.549	846.358
314.066	16.115	1129.794	845.531
315.081	16.095	1129.016	844.776
316.095	16.127	1128.755	844.665
317.110	16.175	1127.508	843.896
318.125	16.100	1126.853	842.959
319.139	16.185	1126.169	842.799
320.154	16.161	1125.572	842.156
321.168	16.292	1124.759	842.128
322.183	16.158	1124.616	841.276
323.197	16.183	1123.708	840.649
324.212	16.225	1122.741	840.058
325.227	16.264	1122.619	840.088
326.241	16.234	1121.998	839.397
327.256	16.296	1120.771	838.717
328.270	16.188	1119.791	837.371
329.285	16.242	1118.953	836.939
330.300	16.325	1118.259	836.757
331.314	16.332	1117.110	835.858
332.329	16.240	1117.002	835.248
333.343	16.296	1115.574	834.382
334.358	16.487	1114.945	834.780
335.373	16.442	1113.874	833.682
336.387	16.451	1113.083	833.063
337.402	16.390	1112.517	832.264
338.416	16.506	1111.491	831.996
339.431	16.372	1111.505	831.271
340.446	16.487	1110.730	831.182
341.460	16.438	1110.017	830.336
342.475	16.516	1109.338	830.140
343.489	16.613	1108.021	829.556
344.504	16.681	1106.621	828.767
345.519	16.641	1106.064	828.080
346.533	16.589	1105.773	827.535
347.548	16.701	1104.839	827.307
348.562	16.705	1104.195	826.775
349.577	16.639	1103.263	825.680
350.592	16.576	1102.494	824.726
351.606	16.539	1102.320	824.341
352.621	16.638	1101.301	823.987
353.635	16.699	1100.495	823.609
354.650	16.757	1099.682	823.210
355.665	16.684	1099.304	822.499
356.679	16.744	1098.511	822.126
357.694	16.719	1097.957	821.517
358.708	16.824	1097.524	821.626
359.723	16.816	1096.873	821.028
360.738	16.706	1095.801	819.621
361.752	16.845	1095.194	819.770
362.767	16.710	1094.886	818.813
363.781	16.833	1094.193	818.816
364.796	16.746	1093.738	817.980
365.810	17.014	1092.511	818.284
366.825	16.940	1092.387	817.761
367.840	16.965	1091.729	817.319
368.854	16.992	1091.246	817.014
369.869	16.967	1090.299	816.111
370.883	16.975	1089.458	815.448
371.898	17.008	1088.701	814.969
372.913	17.093	1088.214	814.942
373.927	17.063	1087.879	814.472
374.942	16.979	1087.410	813.648
375.956	17.069	1086.853	813.589
376.971	17.114	1085.902	813.022
377.986	17.140	1085.378	812.683
379.000	17.142	1084.961	812.307
380.015	17.254	1084.172	812.179
381.029	17.299	1083.057	811.489
382.044	17.303	1082.676	811.151
383.059	17.317	1081.750	810.451
384.073	17.320	1081.299	810.055
385.088	17.340	1080.244	809.288
386.102	17.355	1079.118	808.445
387.117	17.242	1078.559	807.418
388.132	17.193	1077.657	806.436
389.146	17.325	1076.959	806.472
390.161	17.290	1075.952	805.480
391.175	17.287	1075.430	805.003
392.190	17.343	1074.741	804.683
393.205	17.314	1074.024	803.938
394.219	17.427	1073.057	803.677
395.234	17.379	1072.117	802.671
396.248	17.508	1070.950	802.335
397.263	17.424	1070.051	801.195
398.278	17.334	1069.520	800.305
399.292	17.299	1069.254	799.871
400.307	17.307	1068.605	799.352
401.321	17.420	1067.878	799.269
402.336	17.378	1067.183	798.480
403.350	17.445	1066.209	797.993
404.365	17.455	1065.636	797.541
405.380	17.450	1065.082	797.033
406.394	17.391	1064.253	796.068
407.409	17.480	1063.605	795.926
408.423	17.566	1062.529	795.455
409.438	17.552	1061.980	794.908
410.453	17.594	1061.566	794.724
411.467	17.607	1060.661	794.037
412.482	17.653	1059.867	793.586
413.496	17.710	1058.699	792.907
414.511	17.722	1058.462	792.711
415.526	17.805	1058.100	792.759
416.540	17.797	1057.656	792.318
417.555	17.842	1056.732	791.764
418.569	17.826	1056.581	791.506
419.584	17.710	1056.555	790.881
420.599	17.763	1055.628	790.359
421.613	106.322	1328.489	1480.864
422.628	97.999	1368.227	1480.957
