DTS Sentinel unit serial number:	SN413079Multiplexer serial number:	ORYXHardware model number:	OX4-SRSoftware version number:	ORYX F/W v4.00 Oryx Data Collector v3.7.2.0data status	okinstallation	princeton_trtdifferential loss correction	single-endedforward channel	channel 2reverse channel	N/Adate	2019/09/18time	10:31:34forward acquisition time	60.00reverse acquisition time	0.00gamma	496.2192k internal	0.2332k external	0.2332temperature offset calibration	0.9979default loss term (dB/km)	0.3790temperature slope calibration	1.0000multiplexer offset coefficient	1.0000multiplexer slope coefficient	1.0000fibre end	0.00T internal ref (°C)	28.42T ext. ref 1 (°C)	0.35T ext. ref 2 (°C)	25.09length (m)	temperature (°C)	Stokes	anti-Stokes-747.200	-175.522	-0.046	0.001
-746.185	800.000	-0.028	0.081
-745.171	-97.952	-0.349	-0.091
-744.156	800.000	0.094	0.302
-743.142	-94.563	0.087	-0.024
-742.127	-31.902	-0.319	0.180
-741.112	776.607	0.088	0.243
-740.098	18.096	0.180	0.144
-739.083	-59.319	0.264	0.114
-738.069	-145.647	0.285	0.026
-737.054	429.184	-0.117	-0.254
-736.039	-200.000	0.031	0.296
-735.025	-200.000	0.011	-0.213
-734.010	60.768	-0.127	-0.127
-732.996	800.000	0.066	0.232
-731.981	178.905	-0.080	0.118
-730.966	-45.318	-0.503	-0.251
-729.952	-165.365	-0.165	0.007
-728.937	-27.540	-0.269	-0.157
-727.923	-90.399	-0.246	0.072
-726.908	301.724	-0.090	-0.167
-725.894	-97.717	-0.096	0.025
-724.879	-153.861	-0.208	0.014
-723.864	195.141	0.166	0.254
-722.850	800.000	0.047	-0.175
-721.835	-14.034	-0.277	-0.180
-720.821	-133.533	0.157	0.020
-719.806	-200.000	-0.038	-0.256
-718.791	545.705	-0.092	-0.221
-717.777	-36.345	-0.209	-0.113
-716.762	0.937	-0.171	-0.123
-715.748	-45.763	0.286	-0.142
-714.733	411.628	0.050	0.106
-713.718	242.745	-0.057	-0.097
-712.704	603.277	0.130	-0.325
-711.689	-155.347	-0.334	0.022
-710.675	-7.847	-0.098	0.066
-709.660	-15.956	0.255	-0.163
-708.645	-116.653	0.138	-0.026
-707.631	-81.798	0.234	0.077
-706.616	-195.434	0.151	-0.001
-705.602	-196.737	0.088	-0.001
-704.587	-200.000	0.040	0.213
-703.572	-137.805	-0.174	-0.020
-702.558	-5.758	-0.370	-0.254
-701.543	239.851	0.162	0.271
-700.529	800.000	-0.046	0.156
-699.514	-101.442	-0.195	0.048
-698.499	-169.173	0.129	0.005
-697.485	-28.498	-0.362	-0.210
-696.470	-98.779	-0.311	-0.079
-695.456	-200.000	-0.017	0.209
-694.441	257.933	0.042	-0.072
-693.426	38.947	0.085	0.076
-692.412	-57.965	-0.266	-0.117
-691.397	407.645	-0.166	-0.352
-690.383	488.569	0.130	-0.298
-689.368	-58.525	-0.082	0.036
-688.354	465.907	0.105	-0.236
-687.339	173.819	0.156	-0.225
-686.324	133.383	-0.117	-0.151
-685.310	9.801	-0.161	0.122
-684.295	270.708	-0.038	-0.067
-683.281	-132.077	0.308	0.040
-682.266	-50.837	0.195	-0.092
-681.251	24.230	0.227	-0.188
-680.237	131.610	-0.073	0.094
-679.222	7.995	0.144	-0.108
-678.208	-68.594	-0.322	0.125
-677.193	-200.000	0.020	-0.237
-676.178	-43.104	0.172	0.087
-675.164	-200.000	-0.017	-0.413
-674.149	-30.129	-0.171	-0.098
-673.135	-35.274	-0.298	-0.163
-672.120	294.136	-0.148	-0.272
-671.105	-200.000	-0.054	-0.243
-670.091	-200.000	-0.028	-0.165
-669.076	97.706	-0.202	-0.233
-668.062	-200.000	-0.008	-0.189
-667.047	800.000	-0.103	-0.322
-666.032	23.054	-0.227	-0.187
-665.018	-40.550	0.135	0.070
-664.003	-90.038	-0.411	0.120
-662.989	800.000	-0.026	-0.089
-661.974	800.000	-0.028	0.116
-660.959	-200.000	0.087	-0.585
-659.945	-200.000	0.003	-0.313
-658.930	-2.232	-0.213	-0.150
-657.916	-200.000	-0.036	-0.282
-656.901	193.329	-0.084	-0.127
-655.886	800.000	-0.052	-0.218
-654.872	-200.000	-0.037	-0.249
-653.857	800.000	-0.128	-0.416
-652.843	287.182	0.182	-0.331
-651.828	28.778	-0.127	0.107
-650.814	-168.328	0.123	0.005
-649.799	800.000	0.074	0.313
-648.784	-109.929	-0.387	-0.081
-647.770	-119.884	0.045	-0.008
-646.755	-24.551	0.293	-0.175
-645.741	-200.000	-0.044	0.280
-644.726	-25.360	-0.369	-0.219
-643.711	800.000	-0.089	-0.278
-642.697	106.423	-0.117	0.139
-641.682	-84.640	0.241	0.076
-640.668	-105.743	0.072	0.016
-639.653	800.000	0.055	-0.207
-638.638	159.611	-0.152	-0.212
-637.624	-28.308	-0.237	-0.137
-636.609	800.000	-0.096	0.310
-635.595	800.000	-0.052	0.223
-634.580	-164.720	0.259	-0.012
-633.565	34.238	-0.190	0.166
-632.551	-8.197	-0.164	0.110
-631.536	-39.396	-0.330	-0.173
-630.522	208.782	-0.219	0.344
-629.507	-91.925	0.153	0.043
-628.492	101.766	0.082	-0.096
-627.478	-200.000	-0.006	-0.190
-626.463	-130.687	0.085	0.011
-625.449	-17.077	-0.240	-0.152
-624.434	-200.000	-0.007	-0.260
-623.419	143.957	-0.080	-0.107
-622.405	-89.872	-0.151	-0.044
-621.390	-124.228	0.351	0.055
-620.376	106.493	-0.145	0.173
-619.361	-200.000	0.066	-0.301
-618.346	11.755	0.226	-0.173
-617.332	48.306	0.029	-0.027
-616.317	-151.011	-0.116	0.009
-615.303	170.454	0.063	-0.090
-614.288	800.000	0.120	-0.445
-613.273	36.843	0.200	-0.177
-612.259	-200.000	0.027	0.173
-611.244	84.709	-0.386	0.423
-610.230	17.544	-0.079	-0.063
-609.215	5.246	0.337	0.249
-608.201	-200.000	-0.010	-0.150
-607.186	-59.687	0.067	0.029
-606.171	-200.000	-0.010	0.165
-605.157	205.267	-0.052	-0.080
-604.142	79.079	-0.080	0.086
-603.128	-52.749	-0.023	-0.011
-602.113	-200.000	-0.013	-0.129
-601.098	800.000	0.071	0.284
-600.084	-200.000	0.004	0.043
-599.069	800.000	-0.032	-0.110
-598.055	-162.961	0.058	-0.003
-597.040	96.220	-0.086	-0.098
-596.025	178.224	0.109	-0.160
-595.011	26.976	0.302	-0.254
-593.996	154.061	0.075	0.103
-592.982	42.863	-0.157	-0.143
-591.967	-200.000	0.003	0.020
-590.952	53.306	-0.117	0.112
-589.938	800.000	-0.088	-0.325
-588.923	-97.349	0.066	0.017
-587.909	-200.000	0.008	-0.279
-586.894	-53.027	-0.315	0.145
-585.879	800.000	-0.085	-0.372
-584.865	800.000	0.025	-0.087
-583.850	-200.000	-0.009	0.208
-582.836	615.964	-0.268	0.672
-581.821	-25.885	-0.319	0.188
-580.806	-90.994	-0.086	0.025
-579.792	23.380	0.133	0.109
-578.777	205.519	-0.057	-0.088
-577.763	-117.190	-0.322	0.059
-576.748	-159.901	0.153	-0.008
-575.733	-200.000	-0.028	0.207
-574.719	-200.000	0.003	0.196
-573.704	800.000	0.062	-0.188
-572.690	-200.000	-0.019	-0.168
-571.675	744.949	-0.064	-0.171
-570.661	139.375	-0.092	-0.120
-569.646	-55.182	0.244	0.110
-568.631	13.883	0.181	-0.140
-567.617	-112.650	0.252	0.050
-566.602	-36.996	0.359	0.192
-565.588	128.215	0.063	-0.080
-564.573	40.166	-0.188	0.169
-563.558	-120.291	0.114	-0.019
-562.544	-111.718	0.149	0.030
-561.529	157.147	0.102	0.141
-560.515	235.408	-0.099	-0.164
-559.500	245.914	-0.151	-0.254
-558.485	-155.114	0.239	-0.016
-557.471	34.175	0.308	-0.269
-556.456	-138.252	-0.187	0.021
-555.442	109.490	0.030	0.036
-554.427	151.909	0.009	-0.012
-553.412	-115.136	-0.284	0.054
-552.398	-20.572	-0.256	0.157
-551.383	-74.656	-0.116	0.042
-550.369	-200.000	-0.056	-0.271
-549.354	-127.219	0.107	0.016
-548.339	-17.190	-0.234	0.148
-547.325	-200.000	-0.010	0.113
-546.310	-120.504	-0.317	-0.054
-545.296	-24.900	-0.120	-0.071
-544.281	242.582	0.103	0.172
-543.266	-102.282	0.176	-0.042
-542.252	-1.839	-0.031	-0.022
-541.237	-123.544	-0.102	0.016
-540.223	104.568	0.150	-0.176
-539.208	-34.797	-0.143	-0.078
-538.193	12.426	-0.301	-0.231
-537.179	-189.470	0.280	-0.003
-536.164	-200.000	-0.000	-0.011
-535.150	220.181	-0.101	-0.161
-534.135	-39.817	-0.117	0.061
-533.121	-58.635	-0.065	-0.028
-532.106	288.070	0.147	0.266
-531.091	146.785	0.332	-0.445
-530.077	75.857	-0.139	0.146
-529.062	-182.378	-0.193	0.004
-528.048	254.437	0.144	0.245
-527.033	800.000	0.119	0.391
-526.018	-114.422	0.101	0.019
-525.004	-200.000	0.013	0.173
-523.989	2.668	0.339	0.245
-522.975	465.995	0.067	0.149
-521.960	-19.905	0.325	0.200
-520.945	-40.958	0.064	0.033
-519.931	348.575	-0.108	0.213
-518.916	-115.223	-0.244	-0.046
-517.902	-200.000	-0.030	0.139
-516.887	800.000	0.045	0.153
-515.872	-142.397	-0.124	0.012
-514.858	72.898	-0.109	-0.114
-513.843	148.515	-0.205	-0.277
-512.829	-93.019	-0.299	-0.083
-511.814	540.570	0.043	-0.101
-510.799	-118.869	0.264	-0.046
-509.785	-200.000	-0.014	-0.127
-508.770	-69.013	0.185	0.071
-507.756	-59.221	0.124	-0.053
-506.741	-98.656	0.211	-0.054
-505.726	-42.005	0.071	0.036
-504.712	206.486	0.282	0.437
-503.697	46.570	-0.231	-0.213
-502.683	-120.059	0.168	-0.029
-501.668	-32.308	0.347	0.193
-500.653	-54.490	-0.202	-0.091
-499.639	-134.718	-0.154	0.019
-498.624	9.362	0.404	-0.305
-497.610	177.768	0.040	-0.058
-496.595	624.055	-0.058	-0.147
-495.581	65.510	0.114	-0.115
-494.566	93.082	-0.163	-0.183
-493.551	-200.000	-0.058	0.274
-492.537	-200.000	-0.003	0.182
-491.522	539.919	0.053	-0.125
-490.508	-101.158	0.255	-0.062
-489.493	166.830	0.241	0.340
-488.478	200.872	0.173	0.264
-487.464	-149.413	-0.541	0.043
-486.449	-59.824	0.095	-0.041
-485.435	-43.070	0.078	-0.039
-484.420	-34.704	-0.267	-0.145
-483.405	462.080	0.171	0.381
-482.391	82.357	-0.168	-0.182
-481.376	-90.688	0.229	0.066
-480.362	-112.098	0.236	0.047
-479.347	281.520	0.128	0.229
-478.332	145.028	0.020	-0.027
-477.318	800.000	0.139	-0.464
-476.303	-102.127	0.197	-0.047
-475.289	800.000	0.118	-0.414
-474.274	-86.086	0.583	-0.179
-473.259	396.017	0.132	-0.275
-472.245	-200.000	-0.028	0.184
-471.230	22.737	0.066	-0.054
-470.216	-73.399	-0.341	0.124
-469.201	-59.493	-0.281	0.120
-468.186	-200.000	-0.039	-0.278
-467.172	-66.675	-0.205	0.081
-466.157	-47.967	0.122	0.059
-465.143	3.092	-0.173	0.125
-464.128	167.818	0.111	-0.157
-463.113	-169.284	-0.225	-0.008
-462.099	-200.000	0.001	-0.100
-461.084	800.000	0.069	-0.242
-460.070	487.289	-0.041	0.094
-459.055	-9.483	-0.082	-0.054
-458.040	335.507	0.173	-0.333
-457.026	-7.205	-0.145	-0.098
-456.011	2.111	-0.052	-0.038
-454.997	99.943	0.305	-0.352
-453.982	-98.722	-0.406	0.103
-452.968	272.072	-0.090	-0.158
-451.953	-200.000	0.019	-0.126
-450.938	-90.237	-0.134	-0.039
-449.924	-65.082	-0.326	0.131
-448.909	800.000	0.081	0.306
-447.895	-82.674	-0.181	-0.058
-446.880	-200.000	-0.021	0.230
-445.865	-200.000	-0.008	0.074
-444.851	22.952	-0.112	0.092
-443.836	69.520	0.144	0.148
-442.822	-175.027	-0.147	0.004
-441.807	800.000	0.040	-0.124
-440.792	-129.618	-0.165	-0.023
-439.778	-15.576	0.353	0.224
-438.763	84.737	-0.191	-0.208
-437.749	-131.473	-0.269	-0.035
-436.734	-200.000	0.032	0.376
-435.719	354.931	-0.011	0.022
-434.705	800.000	0.080	0.281
-433.690	103.894	0.101	0.118
-432.676	28.546	-0.053	0.044
-431.661	-200.000	0.009	-0.062
-430.646	-23.913	0.048	0.029
-429.632	-122.872	-0.364	-0.058
-428.617	348.400	0.053	0.104
-427.603	11.001	0.332	-0.252
-426.588	800.000	0.058	0.185
-425.573	206.042	-0.056	0.087
-424.559	4.273	-0.186	0.135
-423.544	275.135	0.055	0.098
-422.530	123.244	-0.069	-0.086
-421.515	800.000	0.050	-0.197
-420.500	-69.377	0.206	0.078
-419.486	-102.092	-0.185	0.044
-418.471	-68.120	-0.062	-0.024
-417.457	-154.624	0.155	0.010
-416.442	-31.721	0.317	-0.177
-415.428	85.465	0.012	0.013
-414.413	-92.057	-0.046	-0.013
-413.398	-200.000	0.024	0.133
-412.384	8.704	0.288	0.215
-411.369	-200.000	-0.018	-0.172
-410.355	309.075	0.026	0.048
-409.340	-1.538	0.175	0.123
-408.325	800.000	0.074	-0.296
-407.311	230.070	-0.111	-0.181
-406.296	24.961	0.124	-0.102
-405.282	561.580	0.128	-0.308
-404.267	-200.000	0.023	0.243
-403.252	-200.000	0.013	0.063
-402.238	-165.273	-0.144	0.006
-401.223	-35.881	-0.031	0.017
-400.209	-98.350	-0.088	0.022
-399.194	61.523	0.091	-0.090
-398.179	-112.053	0.407	-0.081
-397.165	-17.280	-0.159	-0.100
-396.150	157.625	0.084	-0.116
-395.136	-97.039	-0.353	0.092
-394.121	-38.777	-0.566	-0.296
-393.106	37.722	0.101	-0.089
-392.092	-200.000	0.045	0.219
-391.077	23.080	-0.124	-0.101
-390.063	738.999	-0.049	0.130
-389.048	537.232	-0.166	0.391
-388.033	-5.047	0.060	-0.041
-387.019	-39.256	0.107	0.056
-386.004	-13.029	0.347	-0.224
-384.990	269.660	-0.149	0.259
-383.975	-47.932	-0.127	-0.061
-382.960	16.462	-0.083	-0.065
-381.946	279.626	-0.086	-0.152
-380.931	-74.445	0.126	0.045
-379.917	392.437	0.030	-0.063
-378.902	301.810	-0.053	-0.098
-377.888	-68.093	-0.128	0.049
-376.873	427.416	-0.045	0.096
-375.858	455.791	-0.091	0.199
-374.844	-200.000	-0.007	0.061
-373.829	157.863	-0.165	-0.227
-372.815	-144.005	0.333	-0.031
-371.800	131.225	-0.111	-0.141
-370.785	-19.183	-0.072	0.044
-369.771	-200.000	-0.002	-0.023
-368.756	-200.000	-0.006	-0.048
-367.742	646.376	0.078	0.198
-366.727	-200.000	-0.064	0.353
-365.712	-123.673	-0.278	-0.044
-364.698	671.648	0.153	0.394
-363.683	-200.000	-0.008	-0.222
-362.669	-126.070	0.423	0.063
-361.654	-200.000	-0.016	0.153
-360.639	800.000	0.041	0.162
-359.625	217.719	-0.038	-0.060
-358.610	-49.942	0.141	0.066
-357.596	117.583	-0.069	-0.084
-356.581	88.063	0.180	-0.198
-355.566	-122.195	-0.276	0.045
-354.552	68.758	0.228	0.232
-353.537	-14.871	0.319	-0.203
-352.523	51.365	0.266	-0.250
-351.508	31.002	0.083	0.071
-350.493	226.368	-0.080	-0.128
-349.479	-107.815	0.224	-0.048
-348.464	-200.000	0.008	0.264
-347.450	685.911	0.059	-0.153
-346.435	34.827	0.110	-0.095
-345.420	-156.741	0.326	0.020
-344.406	8.915	0.125	-0.093
-343.391	-200.000	-0.021	-0.271
-342.377	-138.695	0.078	0.008
-341.362	800.000	-0.040	-0.120
-340.348	8.751	-0.322	0.241
-339.333	97.430	-0.197	-0.224
-338.318	-24.082	-0.121	-0.071
-337.304	-200.000	-0.025	0.166
-336.289	193.169	-0.207	0.310
-335.275	191.090	-0.237	-0.353
-334.260	-54.601	-0.310	-0.139
-333.245	-200.000	-0.020	0.210
-332.231	-160.614	0.186	0.010
-331.216	609.309	0.143	-0.353
-330.202	-175.372	-0.355	-0.010
-329.187	-113.410	0.192	0.037
-328.172	47.561	-0.262	-0.241
-327.158	-126.728	0.176	-0.026
-326.143	60.684	0.169	0.165
-325.129	56.217	-0.179	0.172
-324.114	343.141	0.056	-0.109
-323.099	800.000	-0.113	-0.372
-322.085	-153.185	-0.364	-0.025
-321.070	-111.035	0.219	0.045
-320.056	-79.547	-0.101	0.034
-319.041	-6.656	0.138	0.093
-318.026	49.380	0.390	0.363
-317.012	153.463	0.077	0.104
-315.997	-138.437	-0.046	0.005
-314.983	-200.000	-0.038	-0.215
-313.968	-94.202	-0.212	-0.058
-312.953	147.991	-0.042	0.056
-311.939	800.000	-0.008	0.028
-310.924	-106.634	0.458	0.101
-309.910	350.220	-0.076	-0.148
-308.895	800.000	-0.068	-0.228
-307.880	-80.606	-0.264	0.087
-306.866	-92.548	0.244	-0.068
-305.851	-18.083	-0.177	-0.109
-304.837	87.774	-0.106	-0.116
-303.822	406.264	-0.104	0.217
-302.807	-60.511	0.139	0.058
-301.793	-42.645	-0.324	0.163
-300.778	172.058	0.146	0.208
-299.764	152.602	0.094	-0.128
-298.749	-95.968	-0.450	0.119
-297.735	-200.000	-0.008	0.074
-296.720	5.443	0.079	0.057
-295.705	584.866	0.146	-0.354
-294.691	77.314	-0.018	0.019
-293.676	52.632	0.117	-0.110
-292.662	-169.370	-0.149	-0.005
-291.647	28.793	-0.036	-0.030
-290.632	-71.555	-0.319	-0.118
-289.618	322.057	0.146	0.274
-288.603	-46.357	0.040	-0.020
-287.589	57.847	0.378	-0.365
-286.574	93.899	-0.101	0.114
-285.559	198.546	0.067	0.102
-284.545	-200.000	0.017	-0.140
-283.530	66.264	-0.188	-0.189
-282.516	800.000	0.069	-0.263
-281.501	43.437	-0.243	-0.219
-280.486	28.496	0.214	-0.179
-279.472	8.181	0.102	-0.076
-278.457	11.118	0.333	-0.252
-277.443	18.968	-0.134	-0.106
-276.428	-46.976	0.075	-0.036
-275.413	-200.000	-0.035	0.260
-274.399	-200.000	-0.007	0.129
-273.384	490.208	0.138	-0.311
-272.370	-179.638	0.203	0.004
-271.355	-200.000	-0.017	0.108
-270.340	-134.946	0.321	-0.038
-269.326	-180.399	0.181	0.004
-268.311	59.711	-0.231	0.225
-267.297	-18.120	0.135	0.083
-266.282	40.414	0.194	-0.173
-265.267	-200.000	-0.003	-0.103
-264.253	565.042	0.220	-0.526
-263.238	-200.000	0.000	-0.405
-262.224	-31.683	-0.292	-0.162
-261.209	-99.770	0.389	-0.096
-260.195	769.000	0.068	-0.184
-259.180	370.750	-0.112	0.224
-258.165	-124.663	-0.229	-0.035
-257.151	-96.669	-0.382	0.099
-256.136	-91.967	-0.116	0.032
-255.122	-97.482	-0.183	-0.047
-254.107	-200.000	0.041	0.352
-253.092	53.147	-0.139	-0.132
-252.078	71.026	0.419	0.428
-251.063	304.738	0.138	-0.253
-250.049	-200.000	0.051	0.284
-249.034	77.773	0.174	0.183
-248.019	-149.495	0.522	0.041
-247.005	316.296	0.077	0.144
-245.990	800.000	0.013	0.040
-244.976	-200.000	0.003	0.269
-243.961	-29.492	-0.053	-0.030
-242.946	183.982	-0.101	-0.147
-241.932	-200.000	0.025	0.152
-240.917	-132.000	0.158	-0.020
-239.903	-49.129	-0.174	0.082
-238.888	-24.794	0.233	0.136
-237.873	51.096	0.091	0.085
-236.859	149.032	-0.290	0.386
-235.844	-24.058	-0.154	0.091
-234.830	-83.212	0.087	-0.028
-233.815	800.000	0.016	0.046
-232.800	175.794	0.050	-0.072
-231.786	3.673	-0.105	0.075
-230.771	476.478	0.102	-0.228
-229.757	71.699	-0.170	-0.174
-228.742	97.182	0.255	-0.289
-227.727	-61.750	-0.218	-0.090
-226.713	147.713	-0.093	0.123
-225.698	-75.253	0.015	-0.005
-224.684	-41.485	-0.270	-0.137
-223.669	800.000	0.060	0.179
-222.655	180.807	0.145	0.210
-221.640	459.831	-0.096	-0.211
-220.625	-112.221	0.066	-0.013
-219.611	88.170	-0.075	0.082
-218.596	-93.605	-0.366	-0.100
-217.582	-16.297	0.029	-0.018
-216.567	800.000	0.037	0.125
-215.552	-103.303	0.210	-0.049
-214.538	44.401	-0.091	-0.083
-213.523	240.893	-0.081	0.134
-212.509	17.160	0.161	0.126
-211.494	-200.000	0.034	0.169
-210.479	11.310	0.167	0.126
-209.465	244.407	-0.135	0.223
-208.450	13.299	0.150	0.115
-207.436	-37.227	0.052	0.027
-206.421	263.360	0.150	0.258
-205.406	-87.815	0.421	0.125
-204.392	-66.255	-0.319	0.125
-203.377	25.416	0.195	-0.159
-202.363	800.000	-0.030	-0.093
-201.348	-150.352	-0.226	0.017
-200.333	-35.076	-0.269	0.144
-199.319	-24.318	-0.079	0.046
-198.304	511.622	0.061	0.139
-197.290	248.145	-0.129	0.216
-196.275	-17.174	-0.269	0.167
-195.260	236.772	0.045	-0.073
-194.246	-124.742	-0.232	0.035
-193.231	43.879	-0.246	-0.222
-192.217	571.602	0.095	-0.227
-191.202	-35.375	-0.439	-0.235
-190.187	800.000	-0.051	0.158
-189.173	800.000	-0.129	0.504
-188.158	-86.080	0.266	-0.081
-187.144	-125.619	-0.259	0.039
-186.129	138.268	0.072	-0.094
-185.114	41.172	-0.158	0.141
-184.100	-18.285	-0.294	0.181
-183.085	69.334	0.191	0.193
-182.071	25.154	-0.182	0.149
-181.056	-130.395	0.405	0.054
-180.042	-122.744	0.289	0.046
-179.027	-200.000	0.043	0.290
-178.012	800.000	-0.023	0.086
-176.998	41.265	-0.096	0.086
-175.983	58.172	0.119	-0.115
-174.969	800.000	-0.112	-0.358
-173.954	105.944	-0.228	0.265
-172.939	-54.565	-0.135	0.060
-171.925	137.282	-0.245	-0.316
-170.910	-200.000	0.022	-0.102
-169.896	11.395	-0.160	0.121
-168.881	-109.962	-0.491	0.101
-167.866	80.183	0.192	0.203
-166.852	46.393	-0.256	-0.234
-165.837	-16.430	0.098	-0.061
-164.823	525.632	0.108	-0.251
-163.808	336.405	0.049	0.094
-162.793	800.000	-0.022	-0.069
-161.779	800.000	0.043	0.124
-160.764	-135.939	0.326	-0.038
-159.750	498.409	-0.058	0.132
-158.735	-200.000	-0.000	0.059
-157.720	-135.294	0.193	-0.023
-156.706	-5.238	0.269	-0.182
-155.691	230.089	0.044	-0.071
-154.677	-31.058	0.222	-0.123
-153.662	800.000	-0.031	-0.085
-152.647	374.618	-0.071	0.143
-151.633	196.319	0.093	0.139
-150.618	201.707	-0.151	0.229
-149.604	-74.308	0.232	0.082
-148.589	-161.307	0.286	0.015
-147.574	132.922	-0.183	-0.232
-146.560	66.873	-0.082	-0.082
-145.545	-131.364	0.142	-0.019
-144.531	3.830	0.206	-0.148
-143.516	-180.541	-0.198	0.004
-142.502	50.599	-0.014	-0.013
-141.487	-200.000	0.032	-0.262
-140.472	-56.269	-0.349	-0.153
-139.458	-60.629	-0.329	0.137
-138.443	310.732	0.122	-0.225
-137.429	-62.043	0.145	-0.059
-136.414	-109.948	-0.275	0.057
-135.399	-163.976	-0.276	0.013
-134.385	-106.948	-0.225	0.049
-133.370	-82.136	0.320	0.102
-132.356	205.744	-0.178	0.272
-131.341	449.041	0.074	-0.161
-130.326	74.248	0.078	-0.080
-129.312	-92.270	-0.379	-0.105
-128.297	113.838	0.228	-0.272
-127.283	-128.425	-0.174	0.024
-126.268	-92.110	-0.042	0.012
-125.253	-13.289	0.431	-0.275
-124.239	-200.000	-0.075	-0.339
-123.224	-144.457	-0.222	0.020
-122.210	466.794	0.014	0.030
-121.195	4.602	-0.272	0.196
-120.180	-60.656	0.253	-0.105
-119.166	-149.685	0.144	-0.011
-118.151	20.931	0.295	0.235
-117.137	367.405	-0.057	0.114
-116.122	79.157	-0.202	-0.212
-115.107	-147.381	0.103	-0.009
-114.093	-200.000	0.020	-0.177
-113.078	800.000	0.187	0.572
-112.064	-23.004	-0.456	-0.270
-111.049	105.989	-0.041	-0.047
-110.034	-169.248	0.321	-0.012
-109.020	134.090	-0.141	0.180
-108.005	116.226	-0.130	0.156
-106.991	-61.894	0.143	0.059
-105.976	-98.624	-0.401	0.100
-104.962	82.791	0.110	-0.117
-103.947	-200.000	0.004	0.037
-102.932	-5.321	-0.394	-0.266
-101.918	-200.000	0.003	-0.054
-100.903	-150.302	0.114	0.009
-99.889	406.900	0.040	0.083
-98.874	712.187	-0.094	-0.244
-97.859	332.039	-0.169	-0.320
-96.845	64.526	0.101	0.100
-95.830	424.209	0.116	-0.244
-94.816	-83.482	-0.402	-0.126
-93.801	-103.622	0.197	0.045
-92.786	17.432	0.168	0.131
-91.772	19.154	-0.090	-0.071
-90.757	-183.653	0.336	0.006
-89.743	446.381	-0.023	0.050
-88.728	-200.000	-0.002	-0.039
-87.713	262.458	0.010	0.016
-86.699	37.112	0.114	-0.099
-85.684	-22.493	-0.169	-0.100
-84.670	6.762	-0.188	-0.137
-83.655	-200.000	-0.013	0.074
-82.640	800.000	0.057	0.182
-81.626	800.000	-0.011	-0.038
-80.611	248.740	0.156	0.259
-79.597	119.714	-0.244	-0.297
-78.582	260.861	-0.030	-0.051
-77.567	208.673	0.151	-0.231
-76.553	800.000	-0.070	0.201
-75.538	-72.053	-0.147	-0.053
-74.524	4.876	-0.272	-0.196
-73.509	436.784	0.023	0.048
-72.494	327.917	-0.083	0.156
-71.480	-48.789	0.189	-0.089
-70.465	-200.000	-0.020	0.262
-69.451	-94.747	0.075	-0.020
-68.436	77.867	0.145	-0.151
-67.422	692.590	0.045	0.115
-66.407	39.072	0.070	-0.062
-65.392	-154.878	0.205	0.013
-64.378	44.767	0.097	-0.088
-63.363	-145.753	-0.306	0.027
-62.349	38.669	0.234	0.205
-61.334	166.611	-0.860	-1.194
-60.319	29.559	0.625	0.521
-59.305	800.000	-0.409	-1.223
-58.290	111.633	0.949	1.122
-57.276	221.023	0.775	1.218
-56.261	-200.000	108.808	579.543
-55.246	412.257	1526.534	3176.179
-54.232	139.651	2731.457	3523.213
-53.217	95.853	2328.952	2604.493
-52.203	37.378	1930.269	1675.666
-51.188	31.574	1715.948	1444.899
-50.173	29.000	1673.361	1389.571
-49.159	47.706	1727.989	1579.056
-48.144	47.910	1742.511	1593.832
-47.130	31.164	1699.843	1427.978
-46.115	28.469	1685.483	1395.375
-45.100	28.283	1680.365	1389.675
-44.086	28.318	1677.635	1387.623
-43.071	28.258	1675.056	1384.986
-42.057	28.230	1672.856	1382.903
-41.042	28.305	1670.983	1381.858
-40.027	28.276	1668.553	1379.578
-39.013	28.269	1666.933	1378.133
-37.998	28.280	1665.078	1376.626
-36.984	28.271	1663.656	1375.331
-35.969	28.447	1661.871	1375.118
-34.954	28.325	1660.868	1373.323
-33.940	28.442	1658.804	1372.432
-32.925	28.422	1657.440	1371.102
-31.911	28.451	1655.523	1369.677
-30.896	28.380	1653.528	1367.444
-29.881	28.392	1652.292	1366.455
-28.867	28.403	1650.335	1364.866
-27.852	28.326	1649.269	1363.357
-26.838	28.348	1647.895	1362.330
-25.823	28.441	1646.203	1361.569
-24.809	28.408	1645.056	1360.320
-23.794	28.508	1643.328	1359.583
-22.779	28.487	1641.934	1358.218
-21.765	28.446	1640.433	1356.615
-20.750	28.484	1638.457	1355.209
-19.736	28.464	1637.405	1354.139
-18.721	28.513	1636.148	1353.407
-17.706	28.451	1634.823	1351.802
-16.692	28.479	1633.002	1350.448
-15.677	28.426	1631.873	1349.072
-14.663	28.557	1630.175	1348.574
-13.648	28.558	1628.449	1347.098
-12.633	28.456	1627.363	1345.399
-11.619	28.375	1625.974	1343.607
-10.604	28.362	1624.458	1342.202
-9.590	28.418	1623.040	1341.387
-8.575	28.499	1622.120	1341.171
-7.560	28.454	1620.656	1339.579
-6.546	28.547	1619.239	1339.027
-5.531	28.494	1618.367	1337.867
-4.517	28.427	1617.610	1336.700
-3.502	28.409	1616.024	1335.207
-2.487	28.512	1614.242	1334.430
-1.473	28.453	1603.201	1324.826
-0.458	26.069	1584.429	1292.209
0.556	21.216	1586.369	1263.398
1.571	19.034	1611.104	1266.936
2.586	18.498	1624.049	1273.025
3.600	16.911	1570.054	1219.184
4.615	9.367	1458.022	1081.538
5.629	1.961	1393.230	985.658
6.644	0.419	1385.632	970.285
7.659	0.374	1384.586	969.177
8.673	0.380	1383.298	968.227
9.688	0.236	1381.832	966.194
10.702	0.059	1377.826	962.170
11.717	3.601	1383.166	988.532
12.731	11.611	1396.304	1049.450
13.746	16.511	1402.467	1085.518
14.761	16.897	1402.229	1087.712
15.775	16.213	1399.919	1081.444
16.790	15.337	1397.276	1073.701
17.804	14.466	1394.834	1066.164
18.819	14.100	1394.163	1063.217
19.834	13.914	1392.366	1060.566
20.848	13.582	1391.267	1057.515
21.863	13.380	1389.800	1055.020
22.877	13.112	1388.924	1052.550
23.892	13.141	1387.431	1051.508
24.907	13.116	1387.044	1050.965
25.921	13.221	1385.619	1050.462
26.936	13.246	1384.699	1049.830
27.950	13.190	1383.979	1048.832
28.965	13.301	1382.826	1048.573
29.980	13.317	1381.677	1047.711
30.994	13.352	1381.050	1047.365
32.009	13.416	1380.465	1047.228
33.023	13.434	1379.099	1046.216
34.038	13.359	1377.894	1044.734
35.053	13.314	1376.594	1043.371
36.067	13.368	1375.204	1042.567
37.082	13.404	1374.658	1042.290
38.096	13.359	1373.821	1041.280
39.111	13.375	1372.956	1040.634
40.126	13.301	1372.101	1039.428
41.140	13.140	1371.596	1037.937
42.155	13.118	1371.227	1037.434
43.169	13.178	1371.025	1037.563
44.184	13.214	1370.344	1037.181
45.199	13.190	1370.106	1036.759
46.213	13.198	1369.565	1036.310
47.228	13.307	1368.465	1036.066
48.242	13.297	1367.012	1034.812
49.257	13.327	1365.638	1033.867
50.271	13.275	1364.509	1032.596
51.286	13.268	1363.322	1031.564
52.301	13.189	1362.105	1030.057
53.315	13.204	1360.815	1029.086
54.330	13.107	1360.057	1027.819
55.344	13.174	1358.295	1026.810
56.359	13.114	1357.789	1025.964
57.374	13.182	1356.725	1025.496
58.388	13.126	1356.003	1024.513
59.403	13.160	1354.992	1023.869
60.417	13.131	1354.527	1023.245
61.432	13.030	1353.685	1021.890
62.447	13.041	1352.474	1020.954
63.461	13.087	1351.314	1020.273
64.476	13.120	1350.209	1019.554
65.490	13.106	1348.827	1018.335
66.505	13.091	1347.566	1017.200
67.520	13.072	1346.512	1016.197
68.534	13.132	1345.207	1015.491
69.549	13.169	1343.934	1014.664
70.563	13.136	1342.993	1013.666
71.578	13.047	1341.526	1011.922
72.593	13.112	1340.655	1011.575
73.607	13.086	1340.063	1010.879
74.622	13.050	1339.265	1009.969
75.636	12.997	1338.488	1008.968
76.651	13.081	1337.799	1008.872
77.666	13.034	1336.832	1007.764
78.680	12.979	1336.575	1007.148
79.695	13.052	1335.772	1006.897
80.709	13.072	1334.804	1006.202
81.724	13.076	1334.133	1005.633
82.739	13.152	1333.080	1005.211
83.753	13.197	1332.358	1004.854
84.768	13.307	1330.896	1004.326
85.782	13.331	1329.584	1003.395
86.797	13.307	1328.301	1002.190
87.812	13.124	1327.327	1000.262
88.826	13.173	1326.104	999.547
89.841	13.208	1324.619	998.553
90.855	13.175	1323.834	997.672
91.870	13.322	1322.537	997.491
92.884	13.324	1321.971	996.989
93.899	13.244	1321.584	996.130
94.914	13.304	1320.342	995.466
95.928	13.370	1319.367	995.040
96.943	13.334	1318.452	994.043
97.957	13.334	1317.823	993.478
98.972	13.422	1316.411	992.855
99.987	13.348	1315.289	991.482
101.001	13.317	1314.921	990.926
102.016	13.278	1313.731	989.712
103.030	13.281	1312.990	989.082
104.045	13.343	1311.979	988.604
105.060	13.340	1310.399	987.310
106.074	13.342	1309.124	986.269
107.089	13.263	1307.798	984.713
108.103	13.138	1306.482	982.895
109.118	13.170	1305.696	982.404
110.133	13.179	1303.874	981.003
111.147	13.203	1302.466	979.997
112.162	13.210	1301.218	979.010
113.176	13.196	1300.253	978.115
114.191	13.230	1299.382	977.576
115.206	13.220	1297.738	976.196
116.220	13.260	1296.960	975.758
117.235	13.237	1295.918	974.756
118.249	13.233	1294.944	973.909
119.264	13.222	1293.772	972.876
120.279	13.219	1292.104	971.518
121.293	13.171	1291.277	970.531
122.308	13.254	1289.854	969.862
123.322	13.174	1289.259	968.862
124.337	13.099	1287.820	967.255
125.352	13.110	1287.542	967.025
126.366	13.173	1285.859	966.041
127.381	13.294	1284.543	965.674
128.395	13.156	1284.042	964.404
129.410	13.189	1283.122	963.822
130.424	13.224	1282.256	963.292
131.439	13.260	1281.132	962.569
132.454	13.330	1279.955	962.009
133.468	13.262	1278.989	960.805
134.483	13.261	1278.234	960.145
135.497	13.204	1277.433	959.127
136.512	13.322	1275.741	958.456
137.527	13.357	1273.934	957.219
138.541	13.231	1273.244	955.887
139.556	13.316	1271.989	955.350
140.570	13.317	1270.942	954.486
141.585	13.343	1269.471	953.446
142.600	13.315	1268.588	952.537
143.614	13.373	1267.256	951.784
144.629	13.418	1266.419	951.329
145.643	13.465	1264.593	950.143
146.658	13.424	1263.418	948.943
147.673	13.218	1262.795	947.212
148.687	13.259	1261.341	946.272
149.702	13.334	1259.830	945.481
150.716	13.251	1258.586	943.992
151.731	13.345	1257.318	943.493
152.746	13.364	1256.089	942.593
153.760	13.506	1254.309	941.983
154.775	13.531	1253.596	941.506
155.789	13.508	1252.468	940.448
156.804	13.406	1252.089	939.500
157.819	13.540	1250.949	939.319
158.833	13.590	1249.811	938.666
159.848	13.619	1248.699	937.914
160.862	13.570	1247.934	936.977
161.877	13.537	1246.971	935.986
162.892	13.434	1245.694	934.360
163.906	13.577	1244.992	934.558
164.921	13.571	1243.637	933.424
165.935	13.542	1242.835	932.576
166.950	13.662	1242.303	932.773
167.964	13.540	1241.219	931.192
168.979	13.610	1240.566	931.008
169.994	13.594	1239.945	930.370
171.008	13.602	1239.226	929.793
172.023	13.626	1238.268	929.131
173.037	13.697	1237.425	928.814
174.052	13.743	1236.345	928.174
175.067	13.602	1235.471	926.649
176.081	13.544	1234.736	925.695
177.096	13.573	1233.545	924.879
178.110	13.682	1232.482	924.606
179.125	13.673	1231.220	923.531
180.140	13.666	1229.801	922.343
181.154	13.702	1228.742	921.667
182.169	13.749	1227.311	920.774
183.183	13.865	1225.972	920.333
184.198	13.768	1225.057	919.026
185.213	13.766	1223.896	918.062
186.227	13.838	1222.633	917.432
187.242	13.894	1221.510	916.818
188.256	13.870	1220.990	916.212
189.271	13.856	1219.667	915.062
190.286	13.801	1218.573	913.859
191.300	13.700	1218.023	912.811
192.315	13.652	1217.623	912.162
193.329	13.696	1216.834	911.734
194.344	13.711	1216.298	911.336
195.359	13.849	1215.332	911.288
196.373	13.833	1214.845	910.753
197.388	13.904	1214.371	910.708
198.402	14.035	1213.907	910.996
199.417	14.016	1212.958	910.101
200.432	14.052	1212.293	909.719
201.446	14.089	1211.525	909.262
202.461	14.064	1210.596	908.350
203.475	14.036	1209.453	907.257
204.490	14.067	1207.998	906.255
205.504	14.079	1206.633	905.216
206.519	14.015	1205.658	904.058
207.534	14.062	1204.443	903.320
208.548	14.133	1203.156	902.664
209.563	13.951	1203.082	901.537
210.577	14.078	1201.876	901.247
211.592	14.073	1201.086	900.544
212.607	14.179	1200.298	900.448
213.621	14.200	1199.392	899.804
214.636	14.195	1198.247	898.838
215.650	14.176	1197.614	898.182
216.665	14.198	1196.692	897.527
217.680	14.280	1195.636	897.099
218.694	14.355	1194.726	896.738
219.709	14.256	1194.074	895.636
220.723	14.340	1193.022	895.223
221.738	14.295	1192.903	894.812
222.753	14.339	1191.775	894.120
223.767	14.360	1191.229	893.748
224.782	14.415	1190.498	893.416
225.796	14.331	1189.825	892.377
226.811	14.524	1188.928	892.662
227.826	14.421	1188.525	891.730
228.840	14.357	1187.811	890.772
229.855	14.461	1186.387	890.180
230.869	14.389	1186.097	889.497
231.884	14.459	1185.539	889.372
232.899	14.317	1185.002	888.134
233.913	14.254	1184.088	887.036
234.928	14.366	1183.191	886.883
235.942	14.430	1182.502	886.630
236.957	14.345	1181.758	885.541
237.972	14.414	1180.906	885.187
238.986	14.394	1180.076	884.381
240.001	14.460	1179.457	884.191
241.015	14.352	1178.685	882.962
242.030	14.449	1177.595	882.580
243.045	14.645	1176.623	882.811
244.059	14.630	1175.943	882.141
245.074	14.511	1175.647	881.213
246.088	14.572	1174.720	880.763
247.103	14.550	1174.142	880.134
248.117	14.558	1173.292	879.463
249.132	14.710	1172.144	879.323
250.147	14.717	1171.618	878.887
251.161	14.831	1170.572	878.629
252.176	14.966	1169.256	878.269
253.190	14.902	1169.143	877.772
254.205	14.856	1169.109	877.427
255.220	14.904	1168.463	877.114
256.234	14.921	1167.401	876.329
257.249	14.862	1166.789	875.486
258.263	14.894	1166.275	875.187
259.278	14.965	1165.289	874.742
260.293	14.951	1164.719	874.167
261.307	14.959	1164.452	873.928
262.322	15.124	1163.277	873.832
263.336	15.025	1163.315	873.265
264.351	15.067	1162.471	872.775
265.366	15.158	1161.471	872.418
266.380	15.184	1160.731	871.922
267.395	15.020	1160.600	870.895
268.409	15.099	1159.734	870.579
269.424	14.963	1158.958	869.211
270.439	15.045	1158.483	869.200
271.453	15.082	1157.709	868.740
272.468	15.024	1156.727	867.625
273.482	15.081	1155.663	867.043
274.497	15.114	1155.239	866.817
275.512	15.174	1154.228	866.294
276.526	15.090	1153.881	865.520
277.541	15.091	1153.494	865.163
278.555	15.306	1152.115	865.161
279.570	15.246	1151.627	864.406
280.585	15.304	1150.615	863.871
281.599	15.225	1150.172	863.053
282.614	15.218	1148.886	861.975
283.628	15.295	1147.703	861.408
284.643	15.270	1147.000	860.678
285.657	15.365	1146.207	860.490
286.672	15.302	1145.299	859.413
287.687	15.283	1144.661	858.757
288.701	15.409	1143.763	858.657
289.716	15.313	1142.865	857.416
290.730	15.273	1142.390	856.778
291.745	15.400	1141.672	856.812
292.760	15.411	1140.813	856.148
293.774	15.380	1140.280	855.511
294.789	15.485	1139.998	855.762
295.803	15.462	1138.875	854.724
296.818	15.461	1138.013	853.995
297.833	15.562	1136.978	853.661
298.847	15.542	1136.806	853.354
299.862	15.447	1136.045	852.226
300.876	15.600	1135.026	852.158
301.891	15.552	1134.666	851.571
302.906	15.598	1133.536	850.883
303.920	15.656	1133.208	850.852
304.935	15.734	1132.234	850.439
305.949	15.784	1131.343	849.946
306.964	15.721	1130.768	849.125
307.979	15.599	1130.197	848.006
308.993	15.684	1129.449	847.796
310.008	15.696	1128.362	846.966
311.022	15.837	1127.850	847.214
312.037	15.732	1127.145	846.085
313.052	15.674	1126.360	845.126
314.066	15.724	1125.146	844.394
315.081	15.724	1124.579	843.890
316.095	15.770	1123.516	843.251
317.110	15.791	1123.006	842.899
318.125	15.689	1122.501	841.937
319.139	15.718	1121.604	841.334
320.154	15.786	1121.167	841.268
321.168	15.829	1120.225	840.701
322.183	15.798	1119.889	840.221
323.197	15.808	1119.008	839.535
324.212	15.879	1118.785	839.649
325.227	15.810	1118.098	838.717
326.241	15.913	1117.336	838.583
327.256	15.978	1116.183	837.965
328.270	15.841	1115.453	836.664
329.285	15.891	1114.252	835.936
330.300	15.911	1113.607	835.476
331.314	15.863	1112.561	834.381
332.329	15.863	1111.592	833.581
333.343	16.002	1110.601	833.451
334.358	15.874	1109.995	832.292
335.373	15.888	1109.317	831.777
336.387	15.902	1108.844	831.417
337.402	15.962	1108.243	831.189
338.416	16.063	1107.379	830.965
339.431	16.076	1106.574	830.352
340.446	16.100	1106.352	830.231
341.460	16.167	1105.121	829.562
342.475	16.306	1104.130	829.431
343.489	16.200	1103.565	828.409
344.504	16.269	1102.426	827.822
345.519	16.304	1101.575	827.279
346.533	16.179	1101.374	826.442
347.548	16.210	1100.202	825.642
348.562	16.349	1099.547	825.756
349.577	16.366	1098.614	825.067
350.592	16.142	1098.391	823.733
351.606	16.317	1096.892	823.389
352.621	16.282	1096.727	823.023
353.635	16.242	1096.129	822.303
354.650	16.276	1095.346	821.813
355.665	16.247	1094.636	821.065
356.679	16.303	1094.130	820.885
357.694	16.352	1093.592	820.644
358.708	16.273	1092.736	819.546
359.723	16.319	1092.424	819.466
360.738	16.364	1091.270	818.742
361.752	16.491	1090.841	818.967
362.767	16.389	1090.346	818.027
363.781	16.386	1089.738	817.482
364.796	16.544	1089.218	817.783
365.810	16.482	1088.262	816.696
366.825	16.395	1088.335	816.260
367.840	16.593	1087.450	816.479
368.854	16.659	1086.844	816.267
369.869	16.683	1085.505	815.308
370.883	16.554	1085.349	814.497
371.898	16.601	1084.509	814.019
372.913	16.653	1084.013	813.828
373.927	16.745	1082.817	813.297
374.942	16.703	1082.702	812.938
375.956	16.591	1082.475	812.156
376.971	16.582	1081.992	811.681
377.986	16.815	1080.920	811.922
379.000	16.863	1080.425	811.708
380.015	16.862	1079.849	811.199
381.029	16.737	1079.609	810.346
382.044	16.786	1078.872	809.956
383.059	16.841	1077.913	809.429
384.073	16.845	1076.753	808.505
385.088	16.858	1076.088	807.993
386.102	16.938	1075.169	807.614
387.117	16.861	1074.345	806.558
388.132	16.915	1073.261	805.930
389.146	16.866	1072.841	805.311
390.161	16.912	1072.075	804.881
391.175	16.860	1071.495	804.129
392.190	16.960	1070.436	803.735
393.205	17.036	1069.607	803.402
394.219	17.001	1068.729	802.507
395.234	16.994	1068.159	801.975
396.248	16.957	1067.144	800.967
397.263	16.901	1066.241	799.955
398.278	16.996	1065.657	799.893
399.292	16.892	1065.058	798.885
400.307	17.006	1063.793	798.398
401.321	17.010	1063.492	798.124
402.336	17.061	1062.546	797.582
403.350	16.959	1061.824	796.491
404.365	17.033	1061.600	796.597
405.380	17.062	1060.813	796.075
406.394	17.091	1059.900	795.453
407.409	17.123	1059.280	795.067
408.423	17.238	1058.575	795.006
409.438	17.189	1057.531	793.922
410.453	17.147	1057.442	793.588
411.467	17.146	1056.544	792.843
412.482	17.218	1055.927	792.645
413.496	17.310	1055.182	792.443
414.511	17.369	1054.611	792.217
415.526	17.403	1054.297	792.073
416.540	17.278	1053.868	791.095
417.555	17.424	1053.026	791.072
418.569	17.416	1052.418	790.512
419.584	17.477	1051.942	790.364
420.599	17.363	1051.262	789.254
421.613	104.265	1326.290	1475.412
422.628	95.959	1366.326	1475.507
