DTS Sentinel unit serial number:	SN413079Multiplexer serial number:	ORYXHardware model number:	OX4-SRSoftware version number:	ORYX F/W v4.00 Oryx Data Collector v3.7.2.0data status	okinstallation	princeton_trtdifferential loss correction	single-endedforward channel	channel 2reverse channel	N/Adate	2019/09/11time	15:49:11forward acquisition time	60.00reverse acquisition time	0.00gamma	496.2192k internal	0.2288k external	0.2288temperature offset calibration	1.0016default loss term (dB/km)	0.3790temperature slope calibration	1.0000multiplexer offset coefficient	1.0000multiplexer slope coefficient	1.0000fibre end	0.00T internal ref (°C)	42.89T ext. ref 1 (°C)	1.01T ext. ref 2 (°C)	38.62length (m)	temperature (°C)	Stokes	anti-Stokes-747.200	-189.943	0.057	-0.001
-746.185	-147.674	-0.120	0.010
-745.171	-75.746	-0.009	0.003
-744.156	-200.000	-0.041	0.270
-743.142	-110.729	0.290	0.061
-742.127	-200.000	0.060	0.414
-741.112	88.487	-0.163	-0.186
-740.098	-37.710	-0.046	0.025
-739.083	-200.000	0.008	0.219
-738.069	-142.442	0.286	-0.029
-737.054	-82.140	-0.277	0.093
-736.039	280.263	0.158	-0.290
-735.025	-24.862	0.268	0.163
-734.010	18.316	-0.216	0.176
-732.996	-154.226	-0.380	0.026
-731.981	-200.000	0.057	0.271
-730.966	-30.112	0.050	-0.029
-729.952	568.971	-0.104	0.258
-728.937	-128.645	-0.070	0.010
-727.923	-24.306	-0.229	-0.140
-726.908	-18.638	0.196	0.125
-725.894	-81.894	-0.301	-0.101
-724.879	-62.034	0.117	0.050
-723.864	23.386	0.267	-0.225
-722.850	488.195	-0.025	0.059
-721.835	-129.591	-0.218	-0.031
-720.821	-75.725	-0.327	0.119
-719.806	-4.869	0.214	-0.151
-718.791	800.000	-0.072	-0.254
-717.777	-200.000	0.018	-0.232
-716.762	581.306	-0.087	-0.219
-715.748	386.842	-0.102	-0.215
-714.733	-77.019	-0.215	-0.077
-713.718	476.952	0.189	0.437
-712.704	412.473	-0.058	-0.127
-711.689	166.177	-0.187	-0.271
-710.675	65.864	-0.149	0.155
-709.660	58.922	-0.108	0.109
-708.645	41.183	0.130	-0.120
-707.631	-85.066	0.200	-0.064
-706.616	241.438	-0.040	-0.068
-705.602	115.570	0.048	0.061
-704.587	-200.000	-0.311	0.000
-703.572	-200.000	-0.009	0.162
-702.558	-95.114	-0.264	0.073
-701.543	-200.000	-0.005	-0.144
-700.529	-108.605	-0.353	0.077
-699.514	342.009	0.051	-0.102
-698.499	-177.052	0.136	0.003
-697.485	725.489	-0.033	0.090
-696.470	-7.237	-0.209	-0.145
-695.456	16.513	0.281	-0.227
-694.441	-84.518	-0.170	0.055
-693.426	-86.289	-0.318	0.100
-692.412	3.090	0.051	-0.038
-691.397	68.913	-0.110	-0.116
-690.383	800.000	0.092	0.267
-689.368	201.992	-0.315	0.498
-688.354	140.156	-0.085	0.115
-687.339	-174.715	0.120	-0.003
-686.324	354.010	-0.195	-0.397
-685.310	800.000	0.087	0.281
-684.295	-200.000	0.010	0.166
-683.281	186.289	-0.069	0.105
-682.266	313.036	0.071	0.136
-681.251	-31.928	0.352	-0.201
-680.237	146.661	0.182	0.250
-679.222	-152.423	-0.540	0.040
-678.208	159.059	-0.055	-0.078
-677.193	64.744	-0.374	0.385
-676.178	49.403	-0.249	0.240
-675.164	800.000	0.080	-0.295
-674.149	562.906	0.117	0.290
-673.135	-200.000	0.060	-0.416
-672.120	-200.000	-0.023	-0.203
-671.105	-110.400	-0.206	0.044
-670.091	-32.138	-0.132	0.076
-669.076	-59.706	-0.260	0.114
-668.062	-129.518	0.236	0.033
-667.047	800.000	-0.096	-0.355
-666.032	-52.457	-0.233	-0.110
-665.018	211.825	0.130	0.209
-664.003	-89.432	0.111	0.033
-662.989	-1.634	0.082	0.059
-661.974	-121.381	0.387	0.066
-660.959	-26.386	0.142	0.085
-659.945	-200.000	0.021	-0.321
-658.930	-189.978	-0.032	-0.000
-657.916	436.826	-0.066	-0.148
-656.901	-200.000	0.024	0.109
-655.886	-59.227	-0.165	0.073
-654.872	214.341	0.102	-0.165
-653.857	67.253	0.119	0.124
-652.843	-36.928	0.333	-0.182
-651.828	108.712	0.116	-0.142
-650.814	-134.928	-0.302	-0.037
-649.799	-33.005	0.102	-0.058
-648.784	-200.000	-0.067	-0.470
-647.770	698.459	-0.105	-0.283
-646.755	800.000	-0.015	0.056
-645.741	-89.211	-0.470	-0.142
-644.726	-200.000	-0.009	-0.079
-643.711	-32.894	0.327	-0.186
-642.697	-82.997	-0.217	-0.071
-641.682	12.404	0.138	-0.109
-640.668	360.823	0.041	0.084
-639.653	800.000	-0.051	-0.189
-638.638	-27.889	-0.247	0.146
-637.624	-200.000	-0.025	0.207
-636.609	800.000	-0.029	-0.085
-635.595	191.995	-0.255	-0.392
-634.580	800.000	-0.044	0.156
-633.565	186.055	0.166	0.253
-632.551	-26.784	-0.173	-0.103
-631.536	139.635	0.097	0.130
-630.522	144.626	0.078	0.106
-629.507	-100.110	0.066	0.017
-628.492	236.984	-0.071	-0.120
-627.478	-28.409	0.131	0.077
-626.463	-127.826	-0.159	-0.023
-625.449	-129.685	0.134	-0.019
-624.434	91.094	-0.188	0.215
-623.419	-9.841	-0.004	-0.002
-622.405	68.100	0.153	-0.160
-621.390	-200.000	0.008	-0.215
-620.376	109.449	0.134	-0.163
-619.361	-97.672	-0.051	0.014
-618.346	-127.309	-0.180	-0.027
-617.332	94.982	-0.188	-0.218
-616.317	555.694	0.162	-0.399
-615.303	-125.181	-0.242	0.038
-614.288	168.552	0.177	-0.258
-613.273	-200.000	0.005	0.198
-612.259	-26.531	-0.116	-0.070
-611.244	-200.000	-0.003	-0.073
-610.230	-72.928	0.301	0.113
-609.215	-75.891	-0.354	-0.128
-608.201	-6.922	0.125	-0.087
-607.186	-179.911	-0.194	0.004
-606.171	-53.850	-0.107	-0.050
-605.157	158.517	0.047	0.066
-604.142	659.281	-0.030	-0.080
-603.128	800.000	-0.079	0.227
-602.113	178.326	-0.011	0.016
-601.098	680.537	-0.091	0.242
-600.084	61.364	-0.077	0.078
-599.069	635.350	0.086	0.223
-598.055	170.387	0.166	-0.243
-597.040	-124.870	0.482	0.076
-596.025	-200.000	-0.042	0.228
-595.011	800.000	-0.063	-0.265
-593.996	43.620	0.101	-0.094
-592.982	-77.007	-0.194	0.069
-591.967	31.104	-0.098	-0.086
-590.952	-80.367	0.018	-0.006
-589.938	-200.000	0.044	-0.290
-588.923	5.938	0.203	0.153
-587.909	281.977	0.120	-0.219
-586.894	-153.469	0.194	0.014
-585.879	-110.280	-0.234	-0.050
-584.865	143.855	0.098	-0.132
-583.850	239.625	0.048	0.081
-582.836	-179.512	-0.270	0.006
-581.821	103.708	-0.173	0.207
-580.806	-74.131	0.188	0.069
-579.792	-158.930	0.101	0.006
-578.777	92.056	-0.120	0.138
-577.763	-54.235	0.211	0.098
-576.748	-101.395	-0.352	-0.087
-575.733	-38.214	0.109	-0.059
-574.719	-200.000	0.019	0.236
-573.704	-13.295	-0.140	-0.093
-572.690	-200.000	0.008	-0.212
-571.675	194.434	0.151	-0.233
-570.661	-113.230	-0.552	-0.111
-569.646	-76.102	-0.075	-0.027
-568.631	92.243	0.100	0.115
-567.617	800.000	-0.028	-0.086
-566.602	800.000	0.089	-0.304
-565.588	-200.000	-0.000	-0.096
-564.573	-200.000	0.038	-0.358
-563.558	13.520	-0.308	-0.243
-562.544	-1.564	0.151	0.109
-561.529	40.997	0.093	-0.086
-560.515	-2.359	-0.192	-0.137
-559.500	347.471	-0.098	-0.197
-558.485	143.503	0.107	-0.146
-557.471	-87.689	-0.189	-0.058
-556.456	169.852	-0.084	-0.122
-555.442	-30.249	-0.078	-0.045
-554.427	-76.358	-0.255	0.091
-553.412	800.000	-0.062	-0.267
-552.398	-154.787	0.181	-0.012
-551.383	-200.000	-0.004	-0.113
-550.369	-130.797	0.126	-0.017
-549.354	-200.000	-0.025	-0.186
-548.339	-200.000	0.029	0.237
-547.325	-60.483	0.319	0.138
-546.310	-66.156	0.144	-0.058
-545.296	-113.404	-0.218	-0.044
-544.281	800.000	0.129	0.449
-543.266	-56.166	0.123	-0.056
-542.252	210.461	0.047	-0.075
-541.237	-149.199	0.138	0.011
-540.223	204.710	-0.058	0.091
-539.208	19.947	0.098	-0.080
-538.193	-94.087	0.154	-0.043
-537.179	138.937	0.043	0.058
-536.164	186.698	-0.022	0.034
-535.150	-200.000	0.022	-0.112
-534.135	-52.931	0.211	-0.099
-533.121	-169.401	0.022	0.001
-532.106	84.881	0.166	-0.185
-531.091	654.986	-0.083	-0.218
-530.077	800.000	-0.068	-0.207
-529.062	-163.262	0.230	0.011
-528.048	-63.494	0.131	-0.055
-527.033	-200.000	-0.009	-0.067
-526.018	-200.000	0.002	0.187
-525.004	124.936	-0.068	0.087
-523.989	633.186	-0.089	-0.230
-522.975	87.099	-0.204	0.229
-521.960	193.474	-0.242	0.373
-520.945	-176.751	-0.266	-0.007
-519.931	-200.000	-0.002	-0.216
-518.916	-200.000	-0.024	0.152
-517.902	-58.110	0.525	0.232
-516.887	-200.000	0.061	0.602
-515.872	-71.871	0.121	0.046
-514.858	53.706	0.030	0.029
-513.843	77.119	-0.140	-0.151
-512.829	216.017	-0.150	-0.242
-511.814	-200.000	0.044	0.243
-510.799	-95.651	-0.274	0.074
-509.785	224.586	-0.189	-0.310
-508.770	-78.541	0.205	0.071
-507.756	444.670	-0.062	0.138
-506.741	-200.000	-0.041	0.344
-505.726	-69.112	-0.359	-0.140
-504.712	200.301	0.252	0.394
-503.697	-20.436	-0.043	0.027
-502.683	430.453	-0.018	-0.040
-501.668	-58.282	0.209	0.092
-500.653	-88.712	-0.242	0.073
-499.639	190.103	-0.137	-0.208
-498.624	-136.773	-0.183	0.021
-497.610	255.887	-0.081	0.142
-496.595	-103.771	-0.124	0.030
-495.581	-82.290	0.279	0.092
-494.566	800.000	-0.020	-0.087
-493.551	-200.000	0.024	-0.155
-492.537	-52.896	0.060	0.028
-491.522	-170.507	-0.253	-0.009
-490.508	720.697	-0.015	0.040
-489.493	23.238	-0.189	-0.158
-488.478	435.701	-0.138	0.305
-487.464	-200.000	-0.034	-0.350
-486.449	24.127	-0.189	-0.159
-485.435	800.000	-0.110	-0.388
-484.420	35.087	-0.024	0.021
-483.405	-195.068	-0.220	-0.002
-482.391	322.204	-0.034	-0.066
-481.376	-47.440	-0.058	0.029
-480.362	-90.935	-0.168	0.049
-479.347	223.515	-0.100	0.163
-478.332	49.631	0.207	0.198
-477.318	-77.140	-0.079	0.028
-476.303	147.056	-0.069	0.095
-475.289	621.489	-0.089	-0.228
-474.274	551.679	0.113	0.276
-473.259	-200.000	0.017	0.142
-472.245	97.987	-0.026	-0.031
-471.230	-52.377	0.083	-0.039
-470.216	-106.362	-0.308	0.070
-469.201	-200.000	-0.007	-0.151
-468.186	800.000	0.079	0.345
-467.172	-86.595	-0.264	-0.082
-466.157	-62.571	-0.122	0.051
-465.143	800.000	0.076	0.295
-464.128	800.000	-0.006	0.022
-463.113	121.651	-0.121	-0.153
-462.099	217.436	-0.188	0.304
-461.084	800.000	-0.037	0.104
-460.070	90.772	0.052	-0.059
-459.055	-104.794	0.211	-0.049
-458.040	-150.330	0.346	0.027
-457.026	87.091	-0.067	-0.075
-456.011	7.143	0.098	0.074
-454.997	141.095	-0.110	-0.147
-453.982	-95.987	-0.163	-0.044
-452.968	16.199	0.209	0.167
-451.953	-200.000	-0.016	0.071
-450.938	224.281	-0.044	-0.072
-449.924	-200.000	-0.031	0.197
-448.909	-125.858	0.197	-0.030
-447.895	-179.452	0.523	-0.012
-446.880	259.132	-0.187	0.326
-445.865	-104.675	0.279	0.065
-444.851	-149.962	-0.275	-0.022
-443.836	206.007	-0.013	-0.020
-442.822	800.000	-0.035	-0.122
-441.807	-47.077	0.071	0.035
-440.792	29.384	-0.172	0.149
-439.778	-200.000	-0.056	-0.280
-438.763	-137.085	-0.149	-0.017
-437.749	-157.135	-0.107	-0.007
-436.734	800.000	0.071	0.208
-435.719	98.527	-0.098	0.114
-434.705	-3.900	0.059	-0.041
-433.690	-161.027	-0.314	-0.017
-432.676	-96.106	0.320	-0.086
-431.661	-49.042	0.246	0.119
-430.646	37.634	0.178	-0.160
-429.632	800.000	-0.086	-0.334
-428.617	26.501	0.101	0.086
-427.603	-11.579	0.201	0.134
-426.588	-34.965	-0.118	-0.065
-425.573	-200.000	-0.041	0.244
-424.559	57.143	-0.332	0.328
-423.544	-38.988	-0.367	-0.196
-422.530	800.000	0.110	0.319
-421.515	413.098	-0.147	0.317
-420.500	-21.815	-0.200	-0.123
-419.486	-56.370	-0.272	0.122
-418.471	800.000	0.022	0.075
-417.457	800.000	-0.064	0.199
-416.442	-149.270	-0.144	-0.012
-415.428	-200.000	-0.003	0.024
-414.413	-200.000	0.025	0.156
-413.398	-200.000	-0.001	0.442
-412.384	-77.750	-0.150	0.053
-411.369	800.000	-0.053	-0.164
-410.355	-164.518	0.085	-0.004
-409.340	112.941	-0.204	-0.251
-408.325	-200.000	0.013	-0.312
-407.311	-33.079	-0.123	0.069
-406.296	-30.436	0.066	0.038
-405.282	76.595	-0.042	-0.046
-404.267	464.961	-0.064	0.145
-403.252	182.852	-0.202	0.302
-402.238	78.380	-0.050	0.054
-401.223	-95.915	0.149	0.040
-400.209	-200.000	-0.055	-0.252
-399.194	-51.291	0.121	0.057
-398.179	-120.551	-0.129	-0.022
-397.165	-179.300	0.176	0.004
-396.150	-120.840	-0.185	-0.032
-395.136	438.751	-0.170	0.375
-394.121	-10.848	-0.221	0.147
-393.106	-54.801	0.143	-0.065
-392.092	-200.000	-0.043	-0.246
-391.077	-160.972	-0.065	-0.003
-390.063	-171.349	0.072	0.002
-389.048	-91.937	0.346	0.099
-388.033	468.620	-0.052	0.118
-387.019	-24.137	-0.110	-0.067
-386.004	258.973	0.134	-0.234
-384.990	193.434	-0.006	-0.009
-383.975	-56.559	-0.055	-0.025
-382.960	-19.823	-0.149	0.093
-381.946	-92.056	0.515	0.147
-380.931	21.111	0.354	0.290
-379.917	-19.239	-0.063	0.039
-378.902	-53.005	0.421	-0.196
-377.888	164.924	0.067	0.096
-376.873	25.802	-0.348	-0.293
-375.858	-17.129	0.136	-0.087
-374.844	-200.000	0.015	-0.159
-373.829	800.000	-0.019	0.073
-372.815	648.359	0.077	-0.200
-371.800	0.846	-0.180	-0.130
-370.785	-31.874	0.331	0.188
-369.771	-39.526	0.393	0.208
-368.756	539.805	0.037	0.088
-367.742	-93.860	0.294	-0.082
-366.727	130.710	-0.144	-0.186
-365.712	-200.000	0.046	0.215
-364.698	800.000	-0.128	0.393
-363.683	-200.000	-0.001	0.024
-362.669	614.107	-0.065	0.164
-361.654	-200.000	-0.037	-0.240
-360.639	33.796	0.121	-0.106
-359.625	-74.369	-0.348	0.127
-358.610	-11.228	-0.066	0.044
-357.596	183.712	0.301	0.450
-356.581	418.263	0.121	0.261
-355.566	5.315	0.288	0.215
-354.552	-81.422	-0.061	0.020
-353.537	-64.852	0.152	-0.062
-352.523	86.910	-0.171	-0.191
-351.508	80.444	-0.235	-0.255
-350.493	55.128	-0.086	-0.084
-349.479	-200.000	0.018	0.318
-348.464	-200.000	-0.006	-0.087
-347.450	-94.415	0.073	-0.020
-346.435	-200.000	-0.009	-0.434
-345.420	103.018	0.126	-0.150
-344.406	-51.424	0.133	-0.063
-343.391	366.824	0.068	-0.139
-342.377	111.391	0.095	0.116
-341.362	752.100	0.025	0.067
-340.348	-200.000	-0.058	0.398
-339.333	516.639	0.042	-0.099
-338.318	-200.000	-0.038	0.177
-337.304	550.297	0.085	0.207
-336.289	800.000	0.088	0.252
-335.275	-160.976	0.345	-0.018
-334.260	-200.000	0.012	0.107
-333.245	-111.938	0.174	0.035
-332.231	158.119	0.184	-0.258
-331.216	6.893	0.217	0.163
-330.202	8.157	0.098	0.075
-329.187	98.149	0.290	0.337
-328.172	-129.000	-0.423	-0.060
-327.158	-5.050	0.373	0.259
-326.143	-54.009	0.486	-0.223
-325.129	43.142	-0.322	0.297
-324.114	141.295	0.219	0.293
-323.099	-54.211	-0.059	-0.027
-322.085	-176.319	0.251	-0.007
-321.070	107.853	0.272	-0.327
-320.056	208.841	0.232	-0.366
-319.041	-23.987	-0.253	0.153
-318.026	227.330	-0.050	-0.081
-317.012	740.672	0.034	0.092
-315.997	78.077	0.143	-0.154
-314.983	25.931	-0.024	0.020
-313.968	800.000	0.049	-0.207
-312.953	130.245	0.087	0.112
-311.939	800.000	-0.071	0.241
-310.924	-175.643	-0.079	0.002
-309.910	-75.116	-0.246	0.089
-308.895	566.781	0.119	0.290
-307.880	46.702	0.223	-0.208
-306.866	-190.874	0.579	-0.006
-305.851	-200.000	-0.052	-0.254
-304.837	267.191	0.138	-0.243
-303.822	-153.858	-0.154	-0.011
-302.807	101.870	-0.025	-0.029
-301.793	441.330	-0.040	0.088
-300.778	-3.132	0.190	-0.133
-299.764	-108.979	-0.081	-0.017
-298.749	-72.623	-0.193	-0.072
-297.735	443.450	-0.071	0.157
-296.720	25.745	0.207	0.174
-295.705	800.000	0.076	-0.297
-294.691	-94.530	0.136	0.037
-293.676	106.598	0.171	-0.205
-292.662	-36.278	0.172	-0.093
-291.647	24.083	-0.026	-0.021
-290.632	155.679	-0.155	-0.216
-289.618	749.608	-0.103	-0.281
-288.603	-65.371	-0.115	-0.047
-287.589	-38.121	-0.323	-0.172
-286.574	-15.056	-0.236	-0.152
-285.559	-200.000	0.033	-0.200
-284.545	-85.513	-0.149	-0.047
-283.530	78.600	-0.101	-0.108
-282.516	-55.124	0.074	-0.034
-281.501	-63.931	-0.128	0.053
-280.486	-131.801	-0.041	0.005
-279.472	800.000	0.042	-0.155
-278.457	157.706	-0.245	0.341
-277.443	568.783	0.138	-0.338
-276.428	-114.917	-0.510	-0.098
-275.413	162.787	-0.343	0.484
-274.399	-200.000	0.013	-0.099
-273.384	-70.342	-0.234	0.089
-272.370	189.055	0.197	-0.297
-271.355	-116.279	0.185	-0.034
-270.340	353.099	-0.182	-0.364
-269.326	-145.414	-0.182	0.017
-268.311	-96.748	-0.154	0.041
-267.297	-89.460	-0.390	-0.115
-266.282	800.000	-0.070	0.225
-265.267	354.827	0.128	-0.256
-264.253	-88.644	-0.115	0.034
-263.238	-126.556	0.117	-0.017
-262.224	99.531	0.181	-0.211
-261.209	555.266	-0.014	-0.034
-260.195	-149.473	-0.120	0.010
-259.180	-32.928	-0.122	0.068
-258.165	615.312	-0.034	-0.085
-257.151	-126.172	0.164	0.025
-256.136	292.503	-0.183	-0.336
-255.122	222.140	-0.053	0.087
-254.107	-74.007	-0.182	0.066
-253.092	643.165	-0.132	0.338
-252.078	-64.982	0.191	-0.077
-251.063	-118.540	0.266	-0.047
-250.049	-39.560	-0.197	-0.104
-249.034	-46.373	-0.058	-0.029
-248.019	-44.553	0.140	-0.070
-247.005	132.027	-0.053	0.069
-245.990	-200.000	0.014	-0.229
-244.976	153.053	0.134	0.185
-243.961	-117.564	0.402	-0.073
-242.946	270.738	-0.085	-0.151
-241.932	103.993	0.037	0.044
-240.917	127.945	0.127	0.162
-239.903	228.690	0.140	0.229
-238.888	124.033	-0.261	-0.330
-237.873	381.095	0.073	-0.150
-236.859	485.292	0.099	-0.226
-235.844	95.596	0.218	-0.250
-234.830	-2.863	0.185	-0.130
-233.815	-46.640	-0.169	0.083
-232.800	800.000	-0.022	0.078
-231.786	-200.000	0.021	0.228
-230.771	-84.329	0.090	0.029
-229.757	-42.288	0.203	-0.104
-228.742	32.282	0.249	0.216
-227.727	11.642	-0.126	-0.097
-226.713	59.547	0.255	-0.253
-225.698	13.578	-0.273	-0.213
-224.684	38.562	-0.133	0.119
-223.669	-200.000	-0.011	0.135
-222.655	-152.400	-0.202	-0.015
-221.640	-148.552	0.222	0.018
-220.625	627.381	-0.006	-0.016
-219.611	800.000	-0.099	0.335
-218.596	173.690	0.233	0.338
-217.582	800.000	-0.172	0.499
-216.567	67.807	-0.044	0.045
-215.552	-200.000	0.004	0.220
-214.538	119.389	-0.112	-0.139
-213.523	95.320	0.242	0.277
-212.509	-103.567	-0.303	0.071
-211.494	-125.071	-0.115	0.018
-210.479	-55.026	-0.161	-0.073
-209.465	261.684	0.124	-0.216
-208.450	-85.596	0.303	0.095
-207.436	-13.999	-0.102	0.066
-206.421	178.767	0.048	-0.071
-205.406	-196.018	-0.200	0.001
-204.392	-31.452	0.172	0.097
-203.377	-143.678	-0.096	0.009
-202.363	9.802	0.296	-0.225
-201.348	269.452	0.133	-0.234
-200.333	86.945	-0.136	-0.151
-199.319	-129.426	-0.470	-0.065
-198.304	800.000	-0.033	-0.144
-197.290	-200.000	-0.027	0.142
-196.275	222.194	-0.160	0.259
-195.260	13.569	0.328	0.256
-194.246	-200.000	-0.021	0.198
-193.231	1.107	-0.214	-0.154
-192.217	-112.265	-0.151	0.030
-191.202	240.882	-0.066	-0.110
-190.187	78.463	0.124	0.133
-189.173	15.914	-0.136	-0.107
-188.158	39.315	-0.085	-0.076
-187.144	-27.330	0.257	0.150
-186.129	770.290	0.121	-0.331
-185.114	-200.000	-0.047	-0.326
-184.100	800.000	-0.037	0.150
-183.085	-69.614	0.456	-0.175
-182.071	-54.699	0.045	-0.021
-181.056	336.078	0.143	0.279
-180.042	-102.381	-0.133	0.032
-179.027	-200.000	-0.070	-0.333
-178.012	-45.419	-0.201	0.100
-176.998	800.000	0.033	0.113
-175.983	799.203	0.127	-0.350
-174.969	65.180	-0.090	-0.091
-173.954	-83.428	0.233	0.075
-172.939	-75.309	-0.224	0.080
-171.925	-154.595	-0.203	0.014
-170.910	800.000	-0.078	0.282
-169.896	-128.299	0.354	0.051
-168.881	-73.097	0.146	-0.054
-167.866	-102.694	-0.107	-0.026
-166.852	-200.000	-0.023	0.227
-165.837	102.896	0.271	-0.318
-164.823	-115.406	-0.213	-0.040
-163.808	-200.000	0.007	-0.063
-162.793	-200.000	0.008	0.167
-161.779	800.000	0.088	0.278
-160.764	-137.541	-0.081	0.009
-159.750	-38.114	0.315	0.167
-158.735	124.676	-0.105	0.132
-157.720	82.365	0.236	0.257
-156.706	286.917	0.065	-0.118
-155.691	-26.320	0.093	0.055
-154.677	-200.000	0.046	0.305
-153.662	450.819	0.059	0.131
-152.647	5.890	0.164	-0.122
-151.633	-94.240	0.295	0.081
-150.618	-19.126	-0.221	-0.138
-149.604	135.919	0.094	-0.123
-148.589	309.869	0.166	0.311
-147.574	3.181	-0.140	-0.102
-146.560	87.793	-0.150	-0.167
-145.545	65.381	0.091	0.092
-144.531	-82.074	0.125	0.041
-143.516	-49.788	-0.394	0.188
-142.502	-200.000	0.003	0.062
-141.487	-109.776	0.168	0.035
-140.472	-35.702	-0.195	0.106
-139.458	-57.231	-0.129	0.057
-138.443	-200.000	-0.006	0.212
-137.429	-200.000	0.021	0.284
-136.414	800.000	0.106	0.442
-135.399	-20.717	0.096	0.059
-134.385	156.380	-0.086	0.118
-133.370	-200.000	0.012	0.058
-132.356	250.114	0.145	0.247
-131.341	79.798	0.107	0.115
-130.326	-36.899	-0.221	-0.118
-129.312	80.011	-0.246	0.264
-128.297	-200.000	-0.038	-0.284
-127.283	-200.000	0.007	0.045
-126.268	-36.734	-0.370	-0.199
-125.253	-33.941	-0.053	0.029
-124.239	-23.505	-0.176	-0.106
-123.224	24.376	0.064	0.053
-122.210	-200.000	0.011	0.172
-121.195	-15.727	-0.123	0.078
-120.180	48.966	-0.146	0.137
-119.166	64.606	0.051	-0.051
-118.151	241.727	-0.022	0.037
-117.137	-22.485	-0.182	-0.110
-116.122	48.884	-0.220	0.207
-115.107	-200.000	0.003	-0.270
-114.093	3.510	0.289	0.211
-113.078	559.375	-0.067	0.162
-112.064	-151.733	-0.442	0.033
-111.049	-200.000	0.031	0.146
-110.034	-121.310	-0.229	0.038
-109.020	-200.000	0.015	-0.185
-108.005	-57.850	0.062	0.027
-106.991	-54.778	0.246	-0.111
-105.976	-16.383	-0.139	-0.088
-104.962	127.923	-0.183	-0.233
-103.947	-53.838	0.177	-0.081
-102.932	-200.000	0.001	-0.091
-101.918	420.929	-0.214	-0.459
-100.903	800.000	0.093	-0.406
-99.889	-63.551	-0.318	0.131
-98.874	698.230	-0.075	0.196
-97.859	-200.000	0.003	0.204
-96.845	225.829	0.021	0.034
-95.830	-143.096	-0.142	0.014
-94.816	-141.474	0.252	0.025
-93.801	152.399	-0.153	0.208
-92.786	18.050	-0.028	-0.022
-91.772	-113.317	0.401	0.079
-90.757	-200.000	-0.035	-0.242
-89.743	-27.472	0.106	-0.062
-88.728	-58.565	0.089	-0.038
-87.713	-49.305	-0.357	-0.170
-86.699	-163.465	0.167	0.008
-85.684	14.150	0.175	0.136
-84.670	131.557	0.082	0.106
-83.655	-200.000	0.103	0.501
-82.640	432.699	0.143	-0.310
-81.626	-77.890	-0.264	-0.091
-80.611	-141.215	0.130	0.013
-79.597	99.844	-0.065	-0.076
-78.582	-37.930	-0.188	-0.100
-77.567	-32.507	-0.140	0.078
-76.553	-158.510	-0.045	-0.003
-75.538	-26.555	0.343	0.201
-74.524	-72.693	0.608	0.224
-73.509	-91.007	0.068	0.020
-72.494	96.939	0.112	-0.128
-71.480	-85.693	-0.174	-0.054
-70.465	496.564	-0.113	0.260
-69.451	-200.000	-0.004	-0.093
-68.436	36.234	-0.185	0.163
-67.422	-111.651	0.287	0.058
-66.407	-24.363	-0.311	0.185
-65.392	482.939	0.005	-0.012
-64.378	-97.062	0.241	-0.063
-63.363	-200.000	-0.016	-0.086
-62.349	-77.753	0.135	0.046
-61.334	23.215	-0.960	-0.787
-60.319	11.397	-0.217	0.166
-59.305	408.673	0.316	-0.668
-58.290	215.004	0.459	0.727
-57.276	349.880	0.945	1.864
-56.261	-200.000	74.464	539.094
-55.246	579.643	1298.768	3174.042
-54.232	146.147	2526.006	3382.481
-53.217	114.768	2342.785	2850.626
-52.203	52.786	1958.323	1868.230
-51.188	46.514	1746.021	1616.607
-50.173	43.437	1698.553	1549.049
-49.159	57.300	1731.128	1685.991
-48.144	63.587	1749.372	1752.136
-47.130	46.240	1713.717	1584.337
-46.115	42.909	1700.014	1546.077
-45.100	42.697	1695.492	1540.286
-44.086	42.770	1692.850	1538.379
-43.071	42.772	1690.098	1535.833
-42.057	42.687	1687.700	1532.945
-41.042	42.680	1686.043	1531.326
-40.027	42.684	1684.038	1529.476
-39.013	42.733	1681.956	1527.899
-37.998	42.637	1680.335	1525.636
-36.984	42.735	1679.116	1525.212
-35.969	42.879	1677.496	1524.772
-34.954	43.019	1675.462	1523.920
-33.940	42.876	1674.314	1521.736
-32.925	42.961	1671.832	1520.061
-31.911	42.834	1670.710	1518.021
-30.896	42.895	1668.224	1516.164
-29.881	42.855	1667.073	1514.753
-28.867	42.906	1665.309	1513.474
-27.852	42.789	1663.920	1511.269
-26.838	42.877	1662.160	1510.274
-25.823	42.942	1660.585	1509.269
-24.809	42.993	1659.575	1508.673
-23.794	42.935	1658.257	1506.984
-22.779	42.906	1656.650	1505.245
-21.765	42.939	1654.844	1503.793
-20.750	42.901	1653.040	1501.809
-19.736	43.024	1650.854	1500.677
-18.721	42.907	1650.147	1499.106
-17.706	42.943	1648.563	1497.877
-16.692	42.904	1646.975	1496.082
-15.677	42.894	1645.675	1494.772
-14.663	42.930	1644.300	1493.726
-13.648	42.901	1642.491	1491.811
-12.633	42.910	1640.699	1490.190
-11.619	42.944	1639.617	1489.399
-10.604	42.966	1637.597	1487.669
-9.590	42.880	1636.735	1486.190
-8.575	42.865	1635.832	1485.202
-7.560	42.944	1633.981	1484.043
-6.546	43.012	1632.578	1483.213
-5.531	42.911	1631.946	1481.833
-4.517	42.962	1630.827	1481.134
-3.502	42.930	1629.272	1479.425
-2.487	42.985	1628.054	1478.670
-1.473	42.958	1616.613	1468.022
-0.458	40.801	1597.012	1434.606
0.556	36.232	1595.747	1400.252
1.571	33.334	1619.194	1399.313
2.586	32.566	1633.787	1406.070
3.600	28.518	1579.960	1330.334
4.615	15.627	1457.712	1140.403
5.629	3.558	1380.601	1001.995
6.644	1.119	1370.089	978.549
7.659	1.037	1368.300	976.654
8.673	0.894	1367.899	975.359
9.688	1.001	1365.536	974.281
10.702	0.679	1363.181	970.447
11.717	4.716	1371.713	1002.483
12.731	16.108	1393.996	1092.903
13.746	24.056	1406.307	1154.208
14.761	24.679	1406.865	1158.602
15.775	24.734	1406.106	1158.231
16.790	24.801	1405.330	1157.924
17.804	24.864	1404.644	1157.664
18.819	25.125	1404.657	1159.263
19.834	25.151	1403.941	1158.736
20.848	25.069	1403.318	1157.592
21.863	25.183	1401.863	1157.021
22.877	25.092	1401.178	1155.771
23.892	25.074	1400.724	1155.178
24.907	25.160	1399.591	1154.696
25.921	25.111	1398.741	1153.572
26.936	25.123	1397.769	1152.747
27.950	25.096	1397.017	1151.855
28.965	25.156	1395.453	1150.843
29.980	25.099	1394.093	1149.254
30.994	25.106	1392.738	1148.086
32.009	25.229	1391.481	1147.732
33.023	25.106	1390.885	1146.355
34.038	25.092	1389.434	1144.965
35.053	25.031	1388.666	1143.845
36.067	25.142	1387.324	1143.343
37.082	25.114	1386.481	1142.372
38.096	25.233	1385.150	1141.928
39.111	25.019	1384.935	1140.290
40.126	25.028	1384.333	1139.752
41.140	25.062	1383.576	1139.240
42.155	25.079	1383.272	1139.000
43.169	25.047	1383.328	1138.739
44.184	25.131	1382.529	1138.513
45.199	25.036	1382.756	1138.002
46.213	25.152	1381.910	1137.939
47.228	25.046	1381.122	1136.518
48.242	25.075	1380.265	1135.891
49.257	25.142	1377.997	1134.348
50.271	25.097	1376.644	1132.852
51.286	25.056	1375.820	1131.814
52.301	25.091	1374.565	1130.903
53.315	25.070	1373.309	1129.637
54.330	24.997	1373.281	1129.052
55.344	25.065	1371.500	1127.921
56.359	25.069	1370.219	1126.788
57.374	25.065	1369.872	1126.382
58.388	25.141	1369.053	1126.086
59.403	25.031	1368.874	1125.145
60.417	25.075	1367.895	1124.516
61.432	25.000	1367.257	1123.423
62.447	25.110	1366.019	1122.999
63.461	25.136	1364.944	1122.178
64.476	25.122	1363.922	1121.148
65.490	25.163	1362.553	1120.180
66.505	25.178	1361.117	1118.992
67.520	25.161	1360.325	1118.140
68.534	25.110	1359.254	1116.840
69.549	25.187	1358.040	1116.227
70.563	25.076	1357.496	1114.988
71.578	25.168	1356.361	1114.531
72.593	25.037	1355.664	1113.044
73.607	25.160	1354.781	1112.983
74.622	25.122	1354.346	1112.294
75.636	25.100	1353.447	1111.316
76.651	25.152	1352.326	1110.619
77.666	25.104	1352.139	1110.073
78.680	25.110	1351.351	1109.364
79.695	25.184	1350.468	1108.999
80.709	25.098	1349.545	1107.613
81.724	25.100	1349.059	1107.131
82.739	25.143	1347.901	1106.347
83.753	25.127	1346.816	1105.257
84.768	25.037	1345.956	1103.902
85.782	25.165	1344.925	1103.746
86.797	25.133	1343.715	1102.459
87.812	25.153	1342.518	1101.498
88.826	25.108	1341.361	1100.179
89.841	25.256	1340.201	1100.034
90.855	25.195	1339.673	1099.133
91.870	25.189	1338.766	1098.251
92.884	25.174	1337.875	1097.330
93.899	25.075	1337.543	1096.360
94.914	25.139	1336.207	1095.557
95.928	25.115	1335.713	1094.906
96.943	25.048	1335.266	1094.035
97.957	25.176	1334.302	1093.929
98.972	25.129	1333.340	1092.758
99.987	25.152	1332.231	1091.893
101.001	25.095	1331.191	1090.600
102.016	25.016	1330.762	1089.669
103.030	25.160	1329.674	1089.554
104.045	25.045	1329.122	1088.312
105.060	25.251	1327.637	1088.246
106.074	25.231	1326.929	1087.449
107.089	25.139	1326.044	1086.068
108.103	25.237	1324.512	1085.315
109.118	25.281	1323.811	1084.910
110.133	25.194	1322.785	1083.447
111.147	25.232	1321.204	1082.285
112.162	25.199	1319.586	1080.661
113.176	25.293	1319.077	1080.719
114.191	25.132	1318.590	1079.253
115.206	25.154	1317.409	1078.325
116.220	25.106	1316.284	1077.017
117.235	25.287	1315.072	1077.019
118.249	25.171	1314.699	1075.919
119.264	25.250	1313.485	1075.310
120.279	25.108	1313.209	1074.134
121.293	25.309	1311.596	1073.921
122.308	25.266	1310.827	1072.941
123.322	25.267	1310.007	1072.180
124.337	25.154	1309.768	1071.215
125.352	25.185	1308.510	1070.278
126.366	25.319	1307.595	1070.232
127.381	25.314	1306.283	1069.035
128.395	25.356	1305.753	1068.756
129.410	25.206	1305.063	1067.204
130.424	25.326	1304.082	1067.022
131.439	25.361	1303.373	1066.556
132.454	25.300	1302.527	1065.404
133.468	25.285	1301.659	1064.514
134.483	25.255	1301.319	1063.960
135.497	25.420	1300.445	1064.129
136.512	25.311	1299.613	1062.711
137.527	25.363	1298.261	1061.818
138.541	25.266	1297.051	1060.160
139.556	25.283	1295.783	1059.130
140.570	25.178	1295.142	1057.896
141.585	25.231	1293.853	1057.062
142.600	25.343	1292.456	1056.486
143.614	25.328	1291.637	1055.637
144.629	25.268	1290.906	1054.592
145.643	25.155	1290.007	1053.097
146.658	25.229	1288.586	1052.280
147.673	25.194	1287.917	1051.438
148.687	25.233	1286.823	1050.680
149.702	25.178	1285.784	1049.416
150.716	25.219	1284.202	1048.273
151.731	25.199	1283.742	1047.687
152.746	25.272	1282.336	1046.869
153.760	25.215	1281.837	1046.037
154.775	25.192	1280.591	1044.798
155.789	25.226	1279.486	1043.999
156.804	25.173	1278.625	1042.897
157.819	25.307	1277.416	1042.597
158.833	25.211	1277.265	1041.825
159.848	25.296	1276.282	1041.425
160.862	25.304	1275.539	1040.773
161.877	25.351	1274.636	1040.212
162.892	25.231	1273.746	1038.699
163.906	25.391	1273.146	1039.045
164.921	25.292	1272.497	1037.853
165.935	25.390	1271.448	1037.472
166.950	25.247	1270.998	1036.183
167.964	25.355	1270.606	1036.398
168.979	25.323	1270.171	1035.765
169.994	25.386	1269.128	1035.186
171.008	25.390	1268.419	1034.542
172.023	25.380	1267.832	1033.911
173.037	25.361	1267.168	1033.168
174.052	25.389	1266.570	1032.750
175.067	25.389	1265.783	1032.019
176.081	25.464	1264.363	1031.198
177.096	25.248	1264.314	1029.831
178.110	25.294	1263.536	1029.370
179.125	25.443	1262.023	1028.898
180.140	25.493	1260.782	1028.081
181.154	25.364	1260.263	1026.829
182.169	25.503	1258.769	1026.318
183.183	25.343	1258.084	1024.754
184.198	25.313	1257.077	1023.670
185.213	25.428	1255.939	1023.307
186.227	25.465	1254.836	1022.533
187.242	25.347	1254.359	1021.377
188.256	25.443	1253.176	1020.874
189.271	25.306	1252.794	1019.690
190.286	25.473	1251.535	1019.522
191.300	25.421	1251.253	1018.911
192.315	25.418	1250.605	1018.277
193.329	25.391	1249.935	1017.488
194.344	25.536	1249.874	1018.168
195.359	25.505	1249.404	1017.520
196.373	25.491	1248.459	1016.581
197.388	25.418	1248.715	1016.284
198.402	25.319	1248.302	1015.303
199.417	25.503	1247.430	1015.544
200.432	25.637	1246.550	1015.489
201.446	25.455	1246.302	1014.174
202.461	25.383	1245.996	1013.424
203.475	25.463	1244.809	1012.823
204.490	25.437	1244.077	1011.992
205.504	25.508	1242.723	1011.202
206.519	25.510	1241.537	1010.157
207.534	25.526	1240.894	1009.631
208.548	25.487	1239.991	1008.590
209.563	25.545	1239.454	1008.388
210.577	25.532	1238.649	1007.571
211.592	25.395	1238.011	1006.195
212.607	25.600	1236.781	1006.255
213.621	25.499	1236.499	1005.372
214.636	25.573	1235.462	1004.856
215.650	25.677	1234.230	1004.344
216.665	25.579	1233.446	1003.070
217.680	25.536	1232.547	1002.013
218.694	25.600	1231.637	1001.537
219.709	25.588	1231.013	1000.874
220.723	25.520	1230.407	999.917
221.738	25.439	1229.683	998.786
222.753	25.488	1228.915	998.350
223.767	25.564	1228.186	998.089
224.782	25.688	1227.756	998.338
225.796	25.785	1227.053	998.216
226.811	25.662	1226.490	996.989
227.826	25.654	1226.016	996.474
228.840	25.620	1225.928	996.125
229.855	25.620	1225.094	995.358
230.869	25.626	1224.552	994.863
231.884	25.746	1223.305	994.423
232.899	25.653	1222.413	993.098
233.913	25.636	1222.444	992.942
234.928	25.669	1221.757	992.481
235.942	25.793	1220.732	992.240
236.957	25.746	1220.081	991.363
237.972	25.576	1219.638	989.983
238.986	25.757	1219.120	990.472
240.001	25.677	1218.621	989.536
241.015	25.804	1217.674	989.379
242.030	25.800	1216.968	988.696
243.045	25.868	1215.822	988.052
244.059	25.783	1215.133	986.938
245.074	25.876	1214.268	986.653
246.088	25.891	1213.649	986.148
247.103	25.918	1212.536	985.302
248.117	25.913	1211.903	984.676
249.132	25.885	1211.293	983.940
250.147	25.833	1210.712	983.096
251.161	25.834	1209.995	982.433
252.176	25.953	1209.025	982.206
253.190	26.006	1208.305	981.821
254.205	25.854	1208.452	981.029
255.220	25.867	1207.747	980.441
256.234	25.919	1207.109	980.118
257.249	25.890	1206.435	979.328
258.263	25.915	1205.348	978.495
259.278	25.970	1205.005	978.428
260.293	25.984	1204.413	977.936
261.307	25.977	1204.081	977.538
262.322	25.997	1203.443	977.042
263.336	25.952	1202.694	976.106
264.351	25.929	1202.159	975.459
265.366	26.001	1201.180	974.971
266.380	25.917	1200.743	974.074
267.395	25.965	1200.449	974.010
268.409	25.957	1199.654	973.235
269.424	25.991	1198.891	972.715
270.439	25.994	1198.461	972.293
271.453	26.061	1198.129	972.299
272.468	26.012	1196.770	970.845
273.482	26.027	1196.012	970.225
274.497	25.990	1196.096	970.008
275.512	25.993	1195.649	969.577
276.526	26.065	1194.789	969.183
277.541	25.985	1194.271	968.245
278.555	26.101	1193.505	968.165
279.570	26.032	1192.616	966.983
280.585	26.120	1191.703	966.631
281.599	26.181	1190.773	966.118
282.614	26.190	1189.875	965.350
283.628	26.160	1188.683	964.140
284.643	26.087	1188.311	963.365
285.657	26.099	1187.367	962.577
286.672	26.104	1186.420	961.750
287.687	26.187	1185.875	961.664
288.701	26.227	1185.140	961.195
289.716	26.268	1184.368	960.701
290.730	26.188	1183.658	959.615
291.745	26.199	1183.440	959.412
292.760	26.246	1182.308	958.660
293.774	26.161	1181.928	957.819
294.789	26.201	1181.762	957.808
295.803	26.246	1181.099	957.426
296.818	26.212	1180.192	956.425
297.833	26.329	1179.464	956.368
298.847	26.297	1178.943	955.692
299.862	26.270	1178.199	954.863
300.876	26.320	1177.192	954.225
301.891	26.352	1176.709	953.922
302.906	26.355	1176.327	953.544
303.920	26.328	1175.563	952.694
304.935	26.310	1174.800	951.897
305.949	26.372	1174.019	951.507
306.964	26.331	1173.645	950.907
307.979	26.444	1173.134	950.998
308.993	26.427	1172.388	950.221
310.008	26.381	1171.649	949.300
311.022	26.469	1170.760	948.955
312.037	26.335	1170.416	947.892
313.052	26.427	1168.928	947.080
314.066	26.390	1168.197	946.213
315.081	26.445	1167.595	945.929
316.095	26.447	1166.920	945.309
317.110	26.383	1166.386	944.460
318.125	26.439	1166.216	944.528
319.139	26.455	1165.137	943.653
320.154	26.439	1164.796	943.215
321.168	26.497	1164.182	942.933
322.183	26.474	1163.619	942.274
323.197	26.518	1162.794	941.752
324.212	26.382	1162.821	940.982
325.227	26.486	1162.162	940.907
326.241	26.704	1161.125	941.115
327.256	26.531	1160.695	939.789
328.270	26.563	1159.396	938.819
329.285	26.563	1158.841	938.288
330.300	26.584	1158.148	937.749
331.314	26.549	1157.446	936.916
332.329	26.594	1156.326	936.161
333.343	26.684	1155.482	935.861
334.358	26.705	1154.941	935.449
335.373	26.669	1154.183	934.563
336.387	26.607	1153.702	933.774
337.402	26.697	1152.836	933.453
338.416	26.689	1152.107	932.738
339.431	26.771	1151.656	932.713
340.446	26.807	1150.903	932.205
341.460	26.731	1150.307	931.248
342.475	26.761	1149.478	930.649
343.489	26.729	1148.354	929.495
344.504	26.777	1147.493	928.962
345.519	26.788	1146.682	928.280
346.533	26.919	1145.894	928.230
347.548	26.928	1145.333	927.738
348.562	26.794	1144.746	926.498
349.577	26.847	1144.091	926.157
350.592	26.672	1143.625	924.804
351.606	26.784	1142.580	924.447
352.621	26.811	1142.200	924.197
353.635	26.853	1141.476	923.742
354.650	26.830	1140.771	922.971
355.665	26.896	1139.729	922.381
356.679	26.885	1139.915	922.398
357.694	26.884	1139.095	921.647
358.708	26.932	1138.392	921.241
359.723	26.853	1137.653	920.160
360.738	26.890	1137.117	919.829
361.752	26.992	1136.058	919.409
362.767	26.969	1135.755	918.968
363.781	27.017	1135.302	918.759
364.796	27.079	1134.601	918.429
365.810	27.072	1133.888	917.734
366.825	27.008	1133.388	916.924
367.840	27.037	1133.190	916.829
368.854	27.018	1132.601	916.175
369.869	27.079	1131.738	915.706
370.883	26.991	1131.278	914.808
371.898	27.081	1130.237	914.338
372.913	26.988	1129.947	913.553
373.927	27.095	1129.134	913.353
374.942	27.149	1128.823	913.291
375.956	27.113	1128.405	912.692
376.971	27.195	1127.410	912.221
377.986	27.129	1127.054	911.519
379.000	27.153	1126.881	911.417
380.015	27.239	1125.950	911.017
381.029	27.222	1125.276	910.302
382.044	27.237	1124.485	909.661
383.059	27.294	1124.083	909.538
384.073	27.332	1123.032	908.796
385.088	27.311	1122.268	907.996
386.102	27.256	1121.348	906.893
387.117	27.335	1120.520	906.538
388.132	27.239	1119.659	905.283
389.146	27.311	1119.385	905.340
390.161	27.224	1118.682	904.261
391.175	27.331	1117.857	904.042
392.190	27.239	1117.430	903.164
393.205	27.255	1116.436	902.358
394.219	27.385	1116.073	902.627
395.234	27.454	1114.926	901.967
396.248	27.377	1114.077	900.814
397.263	27.376	1113.297	900.102
398.278	27.447	1112.848	900.008
399.292	27.453	1112.226	899.458
400.307	27.306	1111.547	898.100
401.321	27.346	1111.194	897.933
402.336	27.386	1110.365	897.384
403.350	27.462	1109.563	897.031
404.365	27.475	1109.100	896.641
405.380	27.554	1108.476	896.442
406.394	27.399	1107.757	895.021
407.409	27.450	1107.157	894.707
408.423	27.588	1106.120	894.469
409.438	27.554	1105.460	893.687
410.453	27.519	1105.243	893.261
411.467	27.580	1103.871	892.375
412.482	27.492	1103.813	891.816
413.496	27.576	1102.912	891.421
414.511	27.659	1102.107	891.097
415.526	27.597	1101.277	890.045
416.540	27.565	1101.364	889.877
417.555	27.620	1100.863	889.664
418.569	27.692	1100.123	889.338
419.584	27.625	1100.071	888.891
420.599	27.726	1099.264	888.653
421.613	81.003	1288.073	1334.388
422.628	75.781	1315.600	1334.509
