DTS Sentinel unit serial number:	SN413079Multiplexer serial number:	ORYXHardware model number:	OX4-SRSoftware version number:	ORYX F/W v4.00 Oryx Data Collector v3.7.2.0data status	okinstallation	princeton_trtdifferential loss correction	single-endedforward channel	channel 2reverse channel	N/Adate	2019/09/17time	18:23:35forward acquisition time	60.00reverse acquisition time	0.00gamma	496.2192k internal	0.2289k external	0.2289temperature offset calibration	0.9979default loss term (dB/km)	0.3790temperature slope calibration	1.0000multiplexer offset coefficient	1.0000multiplexer slope coefficient	1.0000fibre end	0.00T internal ref (°C)	43.23T ext. ref 1 (°C)	0.30T ext. ref 2 (°C)	36.44length (m)	temperature (°C)	Stokes	anti-Stokes-747.200	-52.227	0.256	-0.122
-746.185	-163.044	-0.297	-0.015
-745.171	-53.383	0.138	-0.065
-744.156	-126.631	-0.077	-0.012
-743.142	-109.345	0.144	-0.031
-742.127	239.343	0.029	0.050
-741.112	-128.501	0.289	0.042
-740.098	423.744	-0.047	0.105
-739.083	147.773	-0.103	-0.142
-738.069	15.987	-0.272	0.220
-737.054	73.196	-0.064	-0.069
-736.039	-23.053	0.055	-0.034
-735.025	-200.000	-0.037	0.177
-734.010	-173.380	-0.462	0.014
-732.996	-200.000	-0.021	0.122
-731.981	-70.225	0.195	0.076
-730.966	-114.965	-0.230	0.045
-729.952	110.712	0.063	-0.078
-728.937	-200.000	0.003	0.056
-727.923	-166.028	-0.062	-0.003
-726.908	149.595	-0.043	0.060
-725.894	-200.000	-0.016	-0.314
-724.879	800.000	0.078	-0.225
-723.864	111.807	-0.028	-0.034
-722.850	595.425	-0.093	-0.235
-721.835	800.000	-0.039	-0.139
-720.821	-18.933	-0.140	0.089
-719.806	-149.987	-0.175	-0.014
-718.791	-123.334	-0.161	0.026
-717.777	-200.000	0.003	-0.156
-716.762	63.477	0.192	-0.197
-715.748	-156.469	-0.211	0.013
-714.733	-200.000	0.012	-0.236
-713.718	-200.000	0.015	-0.116
-712.704	70.919	0.263	-0.279
-711.689	-94.132	-0.345	-0.097
-710.675	566.872	-0.061	0.151
-709.660	800.000	0.027	0.120
-708.645	451.968	0.073	-0.166
-707.631	-25.863	0.182	-0.110
-706.616	250.368	-0.147	-0.255
-705.602	132.494	0.075	0.100
-704.587	800.000	0.047	-0.147
-703.572	-200.000	0.041	0.235
-702.558	83.773	-0.199	0.222
-701.543	317.605	0.100	-0.193
-700.529	361.419	0.044	0.090
-699.514	6.921	-0.158	0.120
-698.499	-53.382	0.158	0.074
-697.485	800.000	-0.113	-0.335
-696.470	-200.000	-0.003	-0.016
-695.456	-69.095	-0.350	-0.138
-694.441	-80.437	-0.223	-0.076
-693.426	-138.275	0.166	0.019
-692.412	-20.762	0.079	-0.050
-691.397	-200.000	-0.032	-0.196
-690.383	-200.000	-0.000	-0.090
-689.368	-82.358	0.102	0.034
-688.354	508.172	0.138	-0.328
-687.339	-109.957	0.105	-0.023
-686.324	0.957	-0.198	0.145
-685.310	800.000	0.059	0.196
-684.295	-22.108	-0.233	-0.145
-683.281	800.000	0.026	0.086
-682.266	9.344	0.188	-0.146
-681.251	-24.463	-0.193	-0.118
-680.237	-124.651	0.098	0.016
-679.222	-15.028	-0.157	0.103
-678.208	234.072	0.116	0.195
-677.193	-81.597	-0.225	0.075
-676.178	-27.308	0.155	-0.092
-675.164	800.000	-0.028	0.080
-674.149	30.574	0.015	0.013
-673.135	125.287	-0.090	-0.116
-672.120	-200.000	0.008	-0.177
-671.105	-200.000	0.007	-0.182
-670.091	85.306	0.238	-0.267
-669.076	-113.095	-0.066	-0.013
-668.062	174.350	0.201	0.297
-667.047	230.820	0.088	0.147
-666.032	-71.918	-0.277	0.105
-665.018	175.410	-0.095	0.140
-664.003	140.490	-0.136	0.184
-662.989	-200.000	-0.027	0.123
-661.974	-182.951	0.225	0.004
-660.959	-200.000	-0.005	-0.231
-659.945	-139.499	-0.264	0.029
-658.930	-93.867	-0.250	-0.070
-657.916	96.291	0.192	-0.225
-656.901	800.000	-0.040	0.166
-655.886	-49.112	0.302	0.148
-654.872	-90.330	-0.202	0.060
-653.857	-200.000	-0.002	0.098
-652.843	800.000	0.030	0.135
-651.828	800.000	0.055	0.200
-650.814	9.150	-0.114	0.088
-649.799	238.148	0.130	0.221
-648.784	-75.544	-0.042	-0.015
-647.770	58.020	-0.105	-0.105
-646.755	23.353	-0.321	0.270
-645.741	-141.592	-0.107	-0.011
-644.726	42.397	-0.165	-0.153
-643.711	236.092	0.256	0.432
-642.697	-200.000	0.035	-0.342
-641.682	240.182	0.095	-0.161
-640.668	-61.508	0.397	0.170
-639.653	800.000	-0.034	-0.145
-638.638	-137.840	-0.594	0.068
-637.624	-82.861	0.324	-0.107
-636.609	61.261	-0.270	0.274
-635.595	83.802	0.150	0.167
-634.580	-200.000	-0.028	-0.201
-633.565	58.558	-0.156	-0.157
-632.551	800.000	-0.020	-0.059
-631.536	800.000	-0.021	-0.082
-630.522	40.468	-0.104	-0.096
-629.507	87.903	-0.112	0.127
-628.492	121.399	-0.038	-0.049
-627.478	286.794	-0.059	-0.108
-626.463	-80.314	-0.207	-0.071
-625.449	-200.000	0.003	-0.038
-624.434	-96.766	-0.330	0.088
-623.419	-72.919	-0.232	0.087
-622.405	-56.789	-0.188	0.085
-621.390	-200.000	0.037	0.321
-620.376	-123.684	0.024	0.004
-619.361	-200.000	-0.044	0.203
-618.346	568.418	-0.127	0.314
-617.332	-200.000	0.015	0.287
-616.317	76.628	-0.230	0.249
-615.303	-4.848	-0.117	0.082
-614.288	199.244	-0.051	-0.080
-613.273	442.418	-0.047	0.105
-612.259	-100.323	-0.383	-0.097
-611.244	-200.000	0.074	-0.413
-610.230	800.000	-0.069	-0.258
-609.215	-124.543	0.257	0.041
-608.201	-200.000	0.004	-0.106
-607.186	265.130	-0.177	-0.315
-606.171	177.612	0.194	-0.288
-605.157	85.423	0.051	-0.058
-604.142	-83.012	0.160	0.053
-603.128	417.453	-0.089	0.193
-602.113	56.835	-0.079	-0.078
-601.098	-200.000	-0.010	-0.226
-600.084	-68.603	0.336	0.133
-599.069	91.350	0.067	0.076
-598.055	408.378	0.067	0.145
-597.040	69.128	-0.099	-0.104
-596.025	-150.383	-0.049	0.004
-595.011	800.000	0.011	0.036
-593.996	800.000	0.035	0.109
-592.982	94.882	0.004	0.004
-591.967	-180.114	-0.207	-0.004
-590.952	-200.000	-0.018	-0.389
-589.938	-200.000	0.007	-0.089
-588.923	597.366	0.143	0.360
-587.909	-200.000	0.080	0.429
-586.894	9.116	0.175	-0.135
-585.879	-83.712	0.057	0.019
-584.865	706.007	-0.060	-0.161
-583.850	319.941	-0.167	0.322
-582.836	711.517	-0.081	0.217
-581.821	-200.000	0.051	0.484
-580.806	-104.655	-0.288	-0.068
-579.792	-45.275	-0.057	-0.029
-578.777	-143.177	-0.174	-0.017
-577.763	367.105	-0.144	0.295
-576.748	-93.192	0.177	0.050
-575.733	-10.419	-0.223	-0.151
-574.719	286.219	-0.053	-0.098
-573.704	-200.000	0.005	-0.287
-572.690	28.422	0.187	-0.161
-571.675	-200.000	0.002	-0.188
-570.661	-80.608	-0.079	0.027
-569.646	-189.497	0.302	-0.004
-568.631	-133.910	-0.251	-0.032
-567.617	-159.995	-0.147	-0.008
-566.602	-200.000	0.043	-0.369
-565.588	800.000	0.077	-0.287
-564.573	-200.000	-0.048	-0.280
-563.558	74.497	-0.125	0.133
-562.544	295.070	0.016	0.030
-561.529	34.032	0.107	-0.095
-560.515	-200.000	0.024	-0.374
-559.500	-129.803	-0.215	0.030
-558.485	181.814	0.120	-0.180
-557.471	800.000	-0.024	0.077
-556.456	187.091	-0.065	-0.099
-555.442	-151.044	0.137	0.011
-554.427	77.751	-0.245	-0.266
-553.412	238.151	-0.026	-0.044
-552.398	-50.904	-0.154	0.074
-551.383	146.150	0.026	-0.036
-550.369	75.639	0.256	0.275
-549.354	-200.000	0.023	-0.224
-548.339	800.000	-0.014	0.055
-547.325	-117.573	0.041	0.008
-546.310	81.332	-0.252	0.277
-545.296	-76.707	0.253	-0.090
-544.281	-105.150	-0.319	-0.074
-543.266	800.000	-0.077	-0.292
-542.252	215.791	0.123	-0.199
-541.237	-116.615	0.371	0.070
-540.223	-200.000	0.008	-0.320
-539.208	-42.060	0.149	-0.078
-538.193	78.100	-0.249	0.270
-537.179	-200.000	0.012	-0.266
-536.164	12.348	0.106	-0.083
-535.150	800.000	0.093	0.399
-534.135	-14.554	0.061	-0.040
-533.121	-200.000	-0.017	0.102
-532.106	16.659	0.387	0.311
-531.091	65.401	0.114	-0.118
-530.077	-200.000	0.005	-0.196
-529.062	75.957	0.241	-0.259
-528.048	9.246	0.313	0.241
-527.033	144.345	-0.063	0.086
-526.018	-48.260	-0.188	0.092
-525.004	687.487	-0.118	-0.314
-523.989	-200.000	-0.042	-0.217
-522.975	704.388	0.223	-0.597
-521.960	-107.463	0.267	-0.059
-520.945	47.946	0.132	-0.125
-519.931	-7.409	0.409	-0.281
-518.916	-105.860	-0.199	-0.046
-517.902	347.977	-0.160	-0.321
-516.887	-47.685	-0.048	-0.024
-515.872	88.780	-0.218	-0.246
-514.858	-151.619	-0.038	-0.003
-513.843	800.000	-0.033	-0.106
-512.829	158.368	0.224	0.316
-511.814	-34.117	0.162	-0.091
-510.799	145.124	-0.171	-0.233
-509.785	107.657	-0.127	0.154
-508.770	156.984	-0.147	0.206
-507.756	-200.000	0.025	0.144
-506.741	124.052	-0.106	-0.135
-505.726	-200.000	0.010	0.232
-504.712	525.480	-0.011	0.025
-503.697	-200.000	0.038	0.351
-502.683	-200.000	-0.116	-0.000
-501.668	-74.291	0.285	-0.105
-500.653	-25.070	-0.131	0.079
-499.639	800.000	-0.035	0.115
-498.624	50.143	0.319	-0.305
-497.610	409.164	0.113	0.243
-496.595	800.000	-0.064	-0.242
-495.581	-66.585	-0.134	-0.054
-494.566	-200.000	-0.001	0.121
-493.551	-200.000	0.015	-0.217
-492.537	-65.906	0.208	-0.085
-491.522	-83.476	0.334	-0.108
-490.508	-84.740	-0.217	0.069
-489.493	173.159	0.160	-0.234
-488.478	385.320	-0.190	0.397
-487.464	-200.000	0.065	0.300
-486.449	-155.888	0.344	0.022
-485.435	-100.978	-0.367	0.091
-484.420	417.293	-0.108	0.235
-483.405	-52.791	0.145	0.068
-482.391	-117.804	-0.116	0.021
-481.376	74.370	-0.141	-0.151
-480.362	-137.056	-0.226	0.026
-479.347	-105.687	0.102	-0.023
-478.332	-148.263	-0.027	-0.002
-477.318	-100.004	-0.082	-0.021
-476.303	-82.942	-0.140	0.046
-475.289	-11.905	-0.298	0.198
-474.274	800.000	0.148	0.471
-473.259	-153.979	0.332	0.023
-472.245	-100.265	-0.108	0.027
-471.230	-200.000	0.001	-0.143
-470.216	177.040	-0.140	-0.206
-469.201	-200.000	-0.012	0.317
-468.186	800.000	0.114	0.480
-467.172	-200.000	-0.033	0.350
-466.157	-150.618	-0.235	0.018
-465.143	-83.274	0.253	0.082
-464.128	136.679	0.107	0.142
-463.113	375.345	-0.173	-0.357
-462.099	714.953	-0.068	-0.184
-461.084	12.312	0.174	0.136
-460.070	376.119	-0.113	-0.234
-459.055	800.000	0.105	0.351
-458.040	800.000	-0.036	0.131
-457.026	800.000	-0.076	-0.322
-456.011	547.874	0.134	0.326
-454.997	-97.128	0.107	-0.028
-453.982	-79.897	0.098	0.033
-452.968	392.430	-0.091	-0.192
-451.953	-200.000	-0.014	-0.121
-450.938	-103.581	-0.380	-0.090
-449.924	-200.000	0.012	-0.243
-448.909	-99.675	0.145	0.037
-447.895	-48.832	0.190	-0.092
-446.880	-81.568	-0.152	0.051
-445.865	-22.930	0.218	-0.133
-444.851	337.894	0.027	-0.053
-443.836	-35.348	-0.055	0.030
-442.822	800.000	0.119	0.344
-441.807	360.360	-0.012	-0.025
-440.792	377.125	-0.121	-0.251
-439.778	-15.422	0.366	-0.237
-438.763	357.207	0.195	0.393
-437.749	442.743	-0.129	-0.286
-436.734	-200.000	-0.043	-0.231
-435.719	135.839	-0.132	-0.174
-434.705	-200.000	-0.039	0.292
-433.690	92.651	0.220	-0.251
-432.676	380.676	-0.193	-0.402
-431.661	-30.021	0.187	0.108
-430.646	180.678	-0.234	0.348
-429.632	-77.949	0.154	-0.054
-428.617	-38.009	0.172	-0.093
-427.603	198.530	-0.131	0.203
-426.588	-133.455	-0.282	-0.036
-425.573	-200.000	0.008	0.289
-424.559	-200.000	0.029	0.232
-423.544	-59.428	-0.266	0.116
-422.530	305.252	0.105	-0.197
-421.515	39.408	0.134	0.121
-420.500	97.614	0.129	0.150
-419.486	325.690	0.166	-0.321
-418.471	-50.493	-0.025	0.012
-417.457	-27.363	0.053	-0.031
-416.442	38.352	0.087	0.079
-415.428	800.000	0.061	0.195
-414.413	-200.000	-0.010	0.293
-413.398	-30.201	0.391	0.225
-412.384	-200.000	-0.019	-0.220
-411.369	234.855	0.054	-0.091
-410.355	-114.419	-0.125	-0.024
-409.340	224.315	0.091	-0.148
-408.325	-4.447	-0.108	-0.076
-407.311	-153.265	-0.090	0.006
-406.296	303.496	-0.072	0.135
-405.282	-200.000	-0.034	-0.171
-404.267	88.701	0.096	-0.108
-403.252	800.000	-0.079	0.317
-402.238	-140.945	-0.147	0.015
-401.223	800.000	0.008	-0.030
-400.209	-85.001	-0.231	0.073
-399.194	-148.286	0.198	-0.016
-398.179	222.567	0.109	-0.178
-397.165	-147.335	0.225	-0.019
-396.150	-71.772	0.275	-0.104
-395.136	-21.709	-0.081	-0.050
-394.121	306.380	0.135	-0.254
-393.106	55.942	0.185	-0.182
-392.092	-200.000	-0.017	0.170
-391.077	-8.766	-0.168	0.114
-390.063	-116.618	0.131	-0.024
-389.048	800.000	-0.076	-0.311
-388.033	18.583	0.037	0.030
-387.019	-86.550	0.218	0.067
-386.004	26.483	0.105	-0.089
-384.990	-200.000	-0.021	-0.283
-383.975	-200.000	-0.025	0.119
-382.960	319.292	0.130	-0.249
-381.946	-81.017	-0.281	-0.094
-380.931	48.341	-0.120	-0.114
-379.917	18.331	-0.314	0.253
-378.902	420.989	0.046	-0.100
-377.888	-60.404	0.169	-0.073
-376.873	357.133	0.039	-0.079
-375.858	4.346	-0.159	-0.118
-374.844	-37.364	-0.364	0.196
-373.829	800.000	-0.055	0.198
-372.815	681.671	0.041	0.108
-371.800	-96.123	0.380	0.102
-370.785	-200.000	0.060	0.379
-369.771	-118.173	0.147	-0.026
-368.756	-28.485	-0.179	0.104
-367.742	402.634	-0.113	0.240
-366.727	-123.951	0.021	-0.003
-365.712	295.031	0.098	-0.181
-364.698	-100.668	0.299	0.075
-363.683	96.698	-0.232	0.269
-362.669	104.526	-0.020	0.023
-361.654	232.921	-0.107	0.177
-360.639	74.344	0.208	0.221
-359.625	2.451	0.055	-0.041
-358.610	-177.728	-0.333	0.008
-357.596	-39.756	0.218	-0.115
-356.581	29.135	-0.019	0.016
-355.566	-200.000	-0.020	0.133
-354.552	-200.000	0.000	0.063
-353.537	-131.914	0.167	-0.022
-352.523	202.374	-0.099	0.154
-351.508	800.000	-0.152	-0.429
-350.493	-23.143	-0.091	0.055
-349.479	-46.244	-0.207	0.103
-348.464	71.484	-0.157	0.165
-347.450	-16.928	-0.394	-0.252
-346.435	97.212	-0.174	0.202
-345.420	800.000	0.069	-0.226
-344.406	-28.250	0.172	-0.100
-343.391	236.602	-0.043	0.071
-342.377	-200.000	0.030	-0.202
-341.362	65.691	0.123	-0.126
-340.348	-20.027	-0.355	-0.221
-339.333	86.972	0.052	0.058
-338.318	-200.000	-0.019	0.291
-337.304	35.714	-0.095	0.084
-336.289	148.977	-0.208	0.284
-335.275	393.027	-0.174	-0.365
-334.260	26.433	-0.247	0.209
-333.245	3.098	-0.093	0.068
-332.231	76.246	0.085	-0.091
-331.216	71.783	-0.293	-0.307
-330.202	-200.000	0.035	-0.250
-329.187	-42.158	-0.129	-0.066
-328.172	141.316	0.119	0.158
-327.158	556.681	-0.075	-0.182
-326.143	-111.849	-0.114	-0.023
-325.129	-104.837	0.435	-0.101
-324.114	-200.000	-0.057	-0.316
-323.099	-108.501	-0.099	0.021
-322.085	581.805	-0.043	0.106
-321.070	584.945	-0.105	0.261
-320.056	108.721	0.083	-0.100
-319.041	800.000	0.183	-0.524
-318.026	-72.370	-0.114	-0.042
-317.012	-152.926	-0.391	0.028
-315.997	-111.657	0.273	0.056
-314.983	219.255	-0.045	-0.072
-313.968	86.798	-0.157	-0.175
-312.953	-200.000	0.017	0.125
-311.939	-200.000	0.041	-0.378
-310.924	172.783	0.021	-0.031
-309.910	40.650	0.142	-0.129
-308.895	-18.470	-0.249	0.156
-307.880	-200.000	0.026	0.319
-306.866	-28.049	-0.209	-0.122
-305.851	41.352	-0.169	-0.154
-304.837	-200.000	-0.008	-0.095
-303.822	171.370	0.058	-0.083
-302.807	371.774	0.076	0.155
-301.793	13.974	-0.184	0.144
-300.778	-200.000	0.010	0.142
-299.764	128.172	-0.084	0.107
-298.749	162.241	-0.193	-0.273
-297.735	-94.168	0.247	-0.068
-296.720	223.981	0.052	0.084
-295.705	-200.000	-0.035	-0.208
-294.691	-125.259	0.368	-0.057
-293.676	331.811	-0.031	0.060
-292.662	293.325	0.137	0.252
-291.647	-110.737	-0.239	0.050
-290.632	-158.527	0.047	-0.003
-289.618	-111.735	0.457	0.093
-288.603	642.386	-0.010	0.024
-287.589	44.766	0.089	-0.082
-286.574	-200.000	-0.002	-0.265
-285.559	-9.525	-0.137	0.092
-284.545	128.891	-0.075	-0.097
-283.530	-51.145	0.080	0.038
-282.516	-18.344	-0.251	0.158
-281.501	-29.475	0.169	-0.097
-280.486	-200.000	0.008	0.176
-279.472	-200.000	-0.008	0.494
-278.457	-63.443	0.263	-0.109
-277.443	-200.000	0.003	0.021
-276.428	162.990	-0.201	0.284
-275.413	800.000	-0.051	0.194
-274.399	-200.000	-0.002	-0.332
-273.384	314.479	-0.109	-0.206
-272.370	-10.354	-0.215	0.143
-271.355	-200.000	0.085	-0.464
-270.340	-27.749	-0.236	0.138
-269.326	-200.000	0.034	-0.181
-268.311	-200.000	-0.008	0.107
-267.297	169.128	0.129	-0.185
-266.282	-200.000	0.020	0.247
-265.267	-144.291	0.236	-0.022
-264.253	595.718	0.056	0.139
-263.238	-85.023	-0.305	0.096
-262.224	-164.783	-0.245	0.011
-261.209	492.252	-0.034	0.079
-260.195	-172.771	0.402	-0.013
-259.180	-30.818	0.233	0.132
-258.165	-13.682	0.034	-0.022
-257.151	257.630	-0.174	0.301
-256.136	57.319	0.106	0.104
-255.122	-173.377	-0.176	-0.005
-254.107	534.780	-0.116	0.275
-253.092	71.551	-0.094	-0.098
-252.078	-200.000	-0.002	-0.125
-251.063	800.000	-0.071	0.253
-250.049	-26.209	0.204	0.121
-249.034	-120.899	0.351	-0.059
-248.019	-62.623	-0.191	-0.080
-247.005	-200.000	-0.052	0.265
-245.990	155.584	0.269	0.372
-244.976	396.867	0.059	-0.124
-243.961	-116.362	0.182	0.034
-242.946	66.648	0.236	0.241
-241.932	-51.776	0.061	-0.029
-240.917	-85.419	-0.262	-0.082
-239.903	-95.439	0.442	-0.119
-238.888	-68.875	-0.238	0.093
-237.873	-200.000	-0.019	-0.155
-236.859	247.426	-0.077	-0.130
-235.844	-200.000	-0.037	-0.184
-234.830	-6.083	0.117	0.080
-233.815	173.957	0.097	-0.141
-232.800	126.487	0.130	0.166
-231.786	-200.000	0.061	0.291
-230.771	-200.000	-0.020	-0.239
-229.757	-17.624	-0.245	-0.154
-228.742	-80.347	-0.244	-0.082
-227.727	-112.564	0.262	-0.052
-226.713	-42.180	0.102	0.052
-225.698	141.254	-0.228	0.303
-224.684	800.000	0.070	0.200
-223.669	800.000	0.106	0.316
-222.655	-114.361	0.213	0.041
-221.640	167.611	0.014	0.020
-220.625	-102.849	0.184	0.044
-219.611	200.551	0.114	0.176
-218.596	-200.000	0.003	-0.307
-217.582	-41.577	-0.120	-0.062
-216.567	290.964	0.033	-0.061
-215.552	-112.198	0.417	-0.084
-214.538	-95.523	0.155	-0.042
-213.523	15.846	-0.133	-0.105
-212.509	175.035	-0.156	0.227
-211.494	-200.000	0.014	-0.149
-210.479	64.273	0.148	0.150
-209.465	527.642	0.014	0.034
-208.450	20.943	-0.451	-0.367
-207.436	119.926	0.144	-0.179
-206.421	-163.930	0.327	-0.015
-205.406	16.273	0.063	0.050
-204.392	-58.871	0.547	-0.237
-203.377	52.884	0.213	-0.204
-202.363	-57.432	-0.265	0.117
-201.348	-200.000	0.037	-0.164
-200.333	-132.797	-0.154	0.020
-199.319	650.757	-0.149	-0.384
-198.304	325.179	-0.076	-0.145
-197.290	78.016	-0.187	0.200
-196.275	-200.000	-0.007	0.047
-195.260	42.965	0.086	-0.079
-194.246	458.224	-0.056	-0.125
-193.231	-23.645	0.211	0.127
-192.217	-200.000	0.042	0.247
-191.202	-102.815	-0.338	-0.081
-190.187	-115.670	0.235	0.044
-189.173	38.920	-0.411	0.368
-188.158	79.066	-0.220	-0.237
-187.144	800.000	0.050	0.168
-186.129	-50.083	-0.105	0.050
-185.114	254.332	0.075	0.129
-184.100	286.178	0.094	0.170
-183.085	800.000	-0.061	0.244
-182.071	-23.926	-0.247	-0.148
-181.056	-99.414	0.174	-0.044
-180.042	27.240	0.224	-0.189
-179.027	-6.006	0.168	0.115
-178.012	112.575	0.172	-0.209
-176.998	1.545	0.112	0.081
-175.983	-200.000	-0.001	0.005
-174.969	164.702	0.076	-0.108
-173.954	22.610	0.098	0.081
-172.939	268.370	-0.149	-0.263
-171.925	-200.000	-0.079	-0.486
-170.910	179.330	-0.070	-0.102
-169.896	64.722	0.237	0.239
-168.881	60.029	0.163	-0.161
-167.866	-163.636	0.188	0.009
-166.852	186.832	-0.226	-0.338
-165.837	-93.143	0.309	0.086
-164.823	-200.000	-0.014	0.092
-163.808	-15.248	-0.271	0.174
-162.793	800.000	-0.049	0.157
-161.779	128.757	0.153	0.196
-160.764	-153.878	0.211	-0.014
-159.750	68.015	-0.112	0.115
-158.735	-45.868	-0.092	-0.046
-157.720	37.980	0.106	-0.094
-156.706	510.461	-0.099	0.231
-155.691	94.093	0.187	0.212
-154.677	800.000	0.140	0.422
-153.662	-38.797	-0.123	0.065
-152.647	296.663	0.102	0.187
-151.633	202.109	-0.036	0.056
-150.618	-200.000	0.006	0.350
-149.604	34.905	0.093	0.081
-148.589	-200.000	-0.014	-0.302
-147.574	270.063	0.142	-0.250
-146.560	-76.162	0.365	-0.129
-145.545	615.453	0.114	-0.287
-144.531	-200.000	0.022	-0.162
-143.516	800.000	-0.035	-0.116
-142.502	-200.000	0.070	0.414
-141.487	50.773	0.175	0.166
-140.472	78.376	0.110	-0.118
-139.458	-122.583	0.304	-0.049
-138.443	-95.913	-0.355	-0.095
-137.429	76.705	-0.056	-0.059
-136.414	93.002	-0.061	-0.069
-135.399	-64.669	0.224	0.091
-134.385	-6.279	0.176	0.120
-133.370	42.511	0.177	-0.161
-132.356	-13.535	-0.191	0.124
-131.341	-137.087	-0.227	-0.026
-130.326	66.755	0.180	-0.183
-129.312	98.245	-0.084	-0.097
-128.297	24.337	-0.245	0.202
-127.283	800.000	0.054	0.160
-126.268	20.700	0.096	0.078
-125.253	-78.656	-0.201	0.069
-124.239	-104.642	0.264	0.061
-123.224	-150.716	0.292	0.022
-122.210	-200.000	-0.017	0.094
-121.195	-200.000	0.018	0.117
-120.180	444.826	0.049	-0.107
-119.166	-180.380	-0.270	0.006
-118.151	227.760	0.063	0.102
-117.137	-200.000	0.085	0.379
-116.122	-43.653	-0.263	0.133
-115.107	-82.043	0.292	-0.096
-114.093	-70.172	-0.338	-0.129
-113.078	-63.329	-0.311	-0.128
-112.064	-200.000	-0.005	-0.145
-111.049	187.191	0.059	-0.087
-110.034	800.000	-0.034	0.133
-109.020	-131.086	-0.187	0.025
-108.005	218.014	0.051	-0.081
-106.991	-70.077	0.549	0.209
-105.976	-112.805	0.427	0.085
-104.962	-200.000	-0.023	-0.168
-103.947	-93.577	0.071	0.020
-102.932	800.000	-0.088	-0.312
-101.918	800.000	0.115	0.369
-100.903	800.000	0.129	0.385
-99.889	159.932	0.347	0.483
-98.874	-57.550	0.310	0.136
-97.859	-139.527	-0.107	-0.011
-96.845	-119.021	-0.104	0.018
-95.830	-200.000	0.011	0.345
-94.816	42.061	-0.185	-0.168
-93.801	800.000	-0.057	0.173
-92.786	800.000	-0.026	-0.100
-91.772	800.000	-0.048	-0.144
-90.757	-200.000	-0.025	0.000
-89.743	-29.869	0.293	-0.167
-88.728	214.458	0.104	-0.165
-87.713	-56.727	0.155	0.069
-86.699	57.422	-0.262	0.256
-85.684	549.094	-0.026	-0.061
-84.670	-200.000	0.087	-0.502
-83.655	-35.472	-0.070	0.038
-82.640	-200.000	-0.042	-0.226
-81.626	-200.000	-0.036	0.183
-80.611	151.406	-0.087	0.119
-79.597	594.194	0.055	0.136
-78.582	-35.166	0.285	-0.155
-77.567	800.000	0.083	-0.284
-76.553	-200.000	-0.007	0.259
-75.538	-50.067	0.410	-0.194
-74.524	-88.292	0.063	0.019
-73.509	507.101	0.093	-0.215
-72.494	-134.137	-0.198	0.024
-71.480	-173.373	-0.173	-0.005
-70.465	257.088	-0.148	-0.254
-69.451	585.976	-0.044	-0.108
-68.436	571.673	-0.110	0.267
-67.422	-70.531	-0.101	-0.038
-66.407	-146.421	-0.215	-0.019
-65.392	-200.000	-0.022	0.152
-64.378	-55.022	-0.181	0.082
-63.363	-200.000	0.004	0.211
-62.349	35.573	0.260	0.228
-61.334	117.954	-0.548	-0.674
-60.319	-27.380	0.339	0.197
-59.305	800.000	-0.227	-0.816
-58.290	99.266	0.624	0.720
-57.276	800.000	0.448	1.793
-56.261	-200.000	74.676	568.286
-55.246	546.232	1334.105	3183.278
-54.232	137.087	2582.501	3368.199
-53.217	113.204	2373.822	2872.861
-52.203	53.155	1983.013	1894.636
-51.188	46.796	1770.841	1641.483
-50.173	43.760	1724.444	1574.840
-49.159	58.357	1756.902	1718.935
-48.144	64.942	1775.430	1788.384
-47.130	46.759	1739.156	1611.572
-46.115	43.371	1725.833	1572.826
-45.100	43.092	1721.580	1566.723
-44.086	43.153	1718.431	1564.268
-43.071	43.069	1716.194	1561.520
-42.057	43.052	1713.469	1558.843
-41.042	43.103	1711.198	1557.111
-40.027	43.135	1709.222	1555.499
-39.013	43.000	1707.727	1553.033
-37.998	43.014	1706.003	1551.514
-36.984	43.174	1704.422	1551.241
-35.969	43.236	1702.548	1549.954
-34.954	43.330	1701.040	1549.240
-33.940	43.242	1699.437	1547.044
-32.925	43.269	1696.963	1544.938
-31.911	43.261	1695.489	1543.470
-30.896	43.263	1693.935	1542.013
-29.881	43.295	1691.875	1540.320
-28.867	43.221	1690.103	1538.079
-27.852	43.255	1688.709	1537.012
-26.838	43.165	1687.324	1535.002
-25.823	43.274	1685.942	1534.513
-24.809	43.236	1684.627	1532.972
-23.794	43.207	1682.581	1530.826
-22.779	43.299	1681.403	1530.393
-21.765	43.252	1679.836	1528.547
-20.750	43.184	1677.918	1526.225
-19.736	43.275	1676.180	1525.272
-18.721	43.428	1674.576	1524.914
-17.706	43.289	1673.487	1522.811
-16.692	43.251	1671.864	1520.986
-15.677	43.234	1670.502	1519.559
-14.663	43.277	1668.947	1518.404
-13.648	43.345	1667.245	1517.312
-12.633	43.198	1665.883	1514.907
-11.619	43.220	1664.549	1513.800
-10.604	43.299	1662.613	1512.570
-9.590	43.252	1661.496	1511.143
-8.575	43.294	1660.206	1510.224
-7.560	43.237	1658.749	1508.413
-6.546	43.241	1657.689	1507.413
-5.531	43.218	1656.212	1505.842
-4.517	43.195	1655.182	1504.671
-3.502	43.197	1654.302	1503.828
-2.487	43.280	1652.524	1502.773
-1.473	43.057	1640.954	1490.538
-0.458	39.740	1618.355	1445.704
0.556	32.549	1612.244	1392.469
1.571	27.925	1631.635	1374.394
2.586	25.887	1643.941	1369.170
3.600	22.643	1590.967	1301.041
4.615	12.715	1473.667	1136.809
5.629	2.778	1398.610	1013.441
6.644	0.541	1388.019	991.002
7.659	0.348	1385.768	988.041
8.673	0.192	1385.368	986.645
9.688	0.110	1384.059	985.091
10.702	0.003	1381.157	982.236
11.717	3.717	1387.171	1010.762
12.731	12.590	1401.387	1079.469
13.746	17.674	1407.759	1117.701
14.761	17.299	1405.771	1113.567
15.775	16.423	1402.932	1105.495
16.790	15.355	1400.618	1096.593
17.804	14.525	1398.398	1089.336
18.819	14.161	1396.618	1085.477
19.834	13.814	1395.351	1082.139
20.848	13.508	1394.031	1079.028
21.863	13.286	1392.755	1076.493
22.877	13.252	1391.197	1074.973
23.892	13.076	1390.520	1073.211
24.907	13.103	1389.559	1072.555
25.921	13.053	1388.747	1071.507
26.936	13.146	1388.064	1071.485
27.950	13.220	1386.908	1070.976
28.965	13.279	1386.086	1070.630
29.980	13.329	1384.721	1069.809
30.994	13.381	1383.657	1069.223
32.009	13.452	1382.626	1068.794
33.023	13.351	1381.736	1067.357
34.038	13.341	1380.568	1066.297
35.053	13.165	1379.889	1064.542
36.067	13.348	1378.077	1064.232
37.082	13.256	1377.421	1063.037
38.096	13.231	1376.767	1062.280
39.111	13.284	1375.989	1061.924
40.126	13.183	1375.154	1060.539
41.140	13.208	1373.805	1059.562
42.155	13.122	1373.416	1058.618
43.169	13.144	1373.210	1058.505
44.184	13.191	1372.941	1058.508
45.199	13.016	1372.701	1057.110
46.213	13.128	1371.968	1057.169
47.228	13.205	1370.668	1056.567
48.242	13.260	1369.643	1056.034
49.257	13.233	1368.114	1054.587
50.271	13.108	1367.091	1052.909
51.286	13.213	1365.207	1052.033
52.301	13.278	1363.743	1051.222
53.315	13.186	1362.807	1049.826
54.330	13.145	1361.922	1048.789
55.344	13.194	1360.614	1048.003
56.359	13.162	1359.438	1046.797
57.374	13.077	1358.499	1045.445
58.388	13.086	1357.851	1044.915
59.403	13.006	1357.652	1044.160
60.417	13.084	1356.642	1043.785
61.432	13.092	1355.762	1043.067
62.447	12.979	1354.700	1041.442
63.461	13.028	1353.467	1040.710
64.476	12.985	1352.436	1039.556
65.490	13.078	1350.953	1038.910
66.505	13.082	1349.696	1037.873
67.520	13.004	1348.515	1036.388
68.534	13.113	1347.088	1035.882
69.549	13.151	1346.098	1035.264
70.563	13.030	1345.515	1033.970
71.578	13.045	1344.092	1032.877
72.593	12.953	1343.294	1031.599
73.607	12.904	1342.462	1030.562
74.622	13.024	1341.226	1030.271
75.636	12.875	1340.810	1028.927
76.651	12.961	1339.626	1028.463
77.666	12.924	1339.358	1027.939
78.680	12.996	1338.556	1027.680
79.695	12.975	1337.735	1026.828
80.709	13.053	1336.821	1026.524
81.724	13.216	1335.633	1026.533
82.739	13.063	1335.200	1025.156
83.753	13.135	1334.078	1024.654
84.768	13.205	1333.060	1024.214
85.782	13.301	1331.542	1023.554
86.797	13.276	1330.361	1022.396
87.812	13.202	1328.783	1020.636
88.826	13.047	1328.193	1019.138
89.841	13.145	1327.035	1018.762
90.855	13.269	1325.798	1018.487
91.870	13.290	1324.575	1017.585
92.884	13.281	1324.062	1017.047
93.899	13.282	1323.150	1016.261
94.914	13.235	1322.307	1015.237
95.928	13.221	1321.636	1014.544
96.943	13.209	1320.619	1013.603
97.957	13.257	1319.640	1013.057
98.972	13.211	1318.471	1011.787
99.987	13.268	1317.436	1011.250
101.001	13.356	1316.241	1010.780
102.016	13.320	1315.504	1009.908
103.030	13.143	1315.230	1008.525
104.045	13.277	1313.907	1008.240
105.060	13.206	1312.330	1006.506
106.074	13.183	1311.191	1005.408
107.089	13.172	1309.822	1004.199
108.103	13.095	1308.662	1002.754
109.118	13.101	1307.618	1001.902
110.133	13.121	1306.256	1000.893
111.147	13.051	1305.072	999.474
112.162	13.130	1303.575	998.715
113.176	13.214	1302.081	997.988
114.191	13.195	1301.305	997.193
115.206	13.189	1300.162	996.189
116.220	13.122	1299.078	994.871
117.235	13.201	1298.213	994.594
118.249	13.213	1296.425	993.207
119.264	13.186	1296.145	992.741
120.279	13.143	1294.995	991.516
121.293	13.130	1294.417	990.910
122.308	13.138	1292.788	989.622
123.322	13.106	1291.841	988.615
124.337	13.150	1290.673	987.897
125.352	13.075	1289.691	986.613
126.366	13.194	1288.205	986.098
127.381	13.151	1287.378	985.123
128.395	13.144	1286.112	984.021
129.410	13.129	1285.128	983.094
130.424	13.117	1284.563	982.503
131.439	13.288	1283.158	982.358
132.454	13.258	1282.774	981.798
133.468	13.244	1281.951	981.001
134.483	13.250	1281.279	980.435
135.497	13.139	1280.512	979.105
136.512	13.238	1278.391	977.981
137.527	13.287	1277.264	977.321
138.541	13.253	1275.538	975.712
139.556	13.270	1274.588	975.000
140.570	13.334	1273.415	974.394
141.585	13.314	1272.861	973.763
142.600	13.340	1271.391	972.709
143.614	13.436	1270.340	972.383
144.629	13.371	1269.077	970.947
145.643	13.318	1268.009	969.733
146.658	13.357	1266.443	968.679
147.673	13.263	1265.728	967.499
148.687	13.382	1263.880	966.694
149.702	13.398	1262.287	965.484
150.716	13.242	1260.868	963.400
151.731	13.264	1260.109	962.868
152.746	13.283	1258.722	961.833
153.760	13.320	1257.436	960.978
154.775	13.547	1255.912	961.048
155.789	13.372	1255.356	959.520
156.804	13.296	1254.316	958.200
157.819	13.347	1253.516	957.799
158.833	13.454	1252.150	957.293
159.848	13.510	1251.120	956.740
160.862	13.413	1250.010	955.246
161.877	13.390	1248.867	954.157
162.892	13.402	1248.066	953.530
163.906	13.292	1247.562	952.426
164.921	13.276	1246.485	951.432
165.935	13.403	1245.256	951.139
166.950	13.379	1244.824	950.585
167.964	13.515	1243.720	950.439
168.979	13.501	1242.845	949.603
169.994	13.483	1241.826	948.638
171.008	13.474	1241.241	948.058
172.023	13.505	1240.922	947.906
173.037	13.592	1239.820	947.479
174.052	13.564	1238.929	946.555
175.067	13.470	1238.001	945.225
176.081	13.505	1236.716	944.358
177.096	13.425	1235.971	943.254
178.110	13.431	1234.823	942.327
179.125	13.456	1233.821	941.622
180.140	13.446	1232.847	940.738
181.154	13.532	1231.290	939.955
182.169	13.561	1229.644	938.781
183.183	13.633	1228.526	938.250
184.198	13.597	1227.259	936.994
185.213	13.648	1226.480	936.605
186.227	13.680	1225.326	935.821
187.242	13.757	1223.978	935.141
188.256	13.801	1222.952	934.526
189.271	13.725	1222.342	933.546
190.286	13.719	1221.172	932.540
191.300	13.565	1220.526	931.098
192.315	13.434	1219.983	929.864
193.329	13.469	1219.085	929.293
194.344	13.620	1218.225	929.404
195.359	13.651	1217.928	929.267
196.373	13.705	1217.323	929.029
197.388	13.695	1216.791	928.485
198.402	13.758	1216.444	928.486
199.417	13.871	1215.642	928.425
200.432	13.944	1214.644	927.990
201.446	13.890	1213.892	927.031
202.461	13.964	1212.907	926.610
203.475	13.877	1211.985	925.340
204.490	13.915	1210.514	924.344
205.504	13.945	1209.518	923.669
206.519	13.930	1208.488	922.718
207.534	13.950	1206.735	921.412
208.548	13.904	1206.166	920.638
209.563	13.904	1205.453	920.011
210.577	13.970	1204.436	919.519
211.592	13.894	1203.928	918.630
212.607	14.018	1202.777	918.357
213.621	14.113	1201.802	918.054
214.636	14.017	1200.905	916.759
215.650	13.977	1200.377	916.054
216.665	14.121	1199.020	915.731
217.680	14.136	1198.239	915.138
218.694	14.172	1197.303	914.537
219.709	14.194	1196.429	913.909
220.723	14.195	1195.933	913.456
221.738	14.169	1194.916	912.456
222.753	14.113	1194.380	911.659
223.767	14.199	1193.423	911.321
224.782	14.154	1193.098	910.741
225.796	14.336	1191.830	910.688
226.811	14.222	1191.485	909.724
227.826	14.298	1190.843	909.570
228.840	14.306	1190.118	908.978
229.855	14.342	1189.097	908.311
230.869	14.282	1188.494	907.444
231.884	14.213	1187.435	906.178
232.899	14.250	1186.961	905.941
233.913	14.216	1185.882	904.849
234.928	14.110	1185.442	903.859
235.942	14.148	1184.754	903.460
236.957	14.171	1183.583	902.615
237.972	14.282	1182.708	902.466
238.986	14.293	1182.407	902.218
240.001	14.222	1181.893	901.361
241.015	14.285	1180.800	900.788
242.030	14.338	1180.071	900.438
243.045	14.275	1179.314	899.443
244.059	14.313	1178.680	899.082
245.074	14.454	1177.256	898.678
246.088	14.484	1176.700	898.335
247.103	14.476	1175.973	897.661
248.117	14.595	1175.074	897.533
249.132	14.452	1175.123	896.722
250.147	14.663	1173.650	896.651
251.161	14.634	1173.319	896.165
252.176	14.625	1172.380	895.319
253.190	14.671	1171.877	895.103
254.205	14.820	1171.059	895.197
255.220	14.790	1170.690	894.676
256.234	14.745	1170.087	893.894
257.249	14.863	1168.968	893.591
258.263	14.897	1168.218	893.119
259.278	14.772	1167.848	892.092
260.293	14.873	1167.246	892.093
261.307	14.820	1166.872	891.441
262.322	14.932	1165.994	891.290
263.336	14.972	1165.284	890.881
264.351	14.887	1165.062	890.182
265.366	14.957	1164.232	889.838
266.380	14.881	1163.538	888.829
267.395	14.972	1162.381	888.348
268.409	14.918	1161.595	887.380
269.424	14.894	1161.182	886.862
270.439	14.947	1160.532	886.564
271.453	14.913	1159.836	885.778
272.468	14.978	1158.527	885.041
273.482	14.902	1158.132	884.258
274.497	14.978	1157.645	884.210
275.512	14.989	1156.861	883.594
276.526	14.929	1156.077	882.599
277.541	14.829	1155.429	881.498
278.555	15.007	1154.892	881.947
279.570	15.027	1154.137	881.401
280.585	14.982	1153.435	880.550
281.599	15.073	1152.279	880.069
282.614	15.146	1151.135	879.500
283.628	15.130	1150.157	878.588
284.643	15.075	1149.585	877.786
285.657	15.161	1148.478	877.315
286.672	15.164	1147.655	876.622
287.687	15.160	1146.762	875.843
288.701	15.198	1146.073	875.437
289.716	15.134	1145.228	874.380
290.730	15.270	1144.384	874.368
291.745	15.260	1143.698	873.717
292.760	15.288	1143.125	873.346
293.774	15.316	1142.436	872.887
294.789	15.261	1141.869	872.090
295.803	15.373	1141.324	872.179
296.818	15.283	1140.441	870.963
297.833	15.268	1139.682	870.227
298.847	15.329	1138.821	869.809
299.862	15.389	1138.161	869.538
300.876	15.347	1137.475	868.722
301.891	15.404	1136.865	868.474
302.906	15.313	1136.015	867.276
303.920	15.407	1135.479	867.273
304.935	15.536	1134.799	867.343
305.949	15.544	1134.112	866.783
306.964	15.621	1133.282	866.469
307.979	15.479	1132.908	865.374
308.993	15.608	1131.610	864.970
310.008	15.640	1130.801	864.442
311.022	15.463	1130.527	863.247
312.037	15.638	1129.677	863.420
313.052	15.591	1128.480	862.186
314.066	15.578	1127.120	861.007
315.081	15.618	1126.720	860.828
316.095	15.427	1126.155	859.344
317.110	15.454	1125.330	858.777
318.125	15.532	1124.822	858.711
319.139	15.568	1123.900	858.117
320.154	15.636	1123.346	857.964
321.168	15.514	1122.935	856.950
322.183	15.675	1122.069	857.032
323.197	15.553	1121.428	855.849
324.212	15.585	1120.832	855.479
325.227	15.662	1120.219	855.327
326.241	15.556	1120.160	854.667
327.256	15.631	1118.979	854.073
328.270	15.619	1117.942	853.147
329.285	15.643	1116.628	852.188
330.300	15.678	1115.876	851.714
331.314	15.621	1114.821	850.547
332.329	15.663	1114.286	850.276
333.343	15.577	1113.440	849.121
334.358	15.731	1112.366	849.004
335.373	15.770	1111.833	848.719
336.387	15.831	1111.122	848.409
337.402	15.819	1110.103	847.494
338.416	15.856	1109.185	846.904
339.431	15.903	1108.695	846.693
340.446	15.987	1107.850	846.393
341.460	15.960	1107.250	845.727
342.475	15.967	1106.463	845.086
343.489	16.089	1105.431	844.835
344.504	15.974	1104.625	843.566
345.519	16.136	1103.720	843.613
346.533	16.071	1103.002	842.661
347.548	16.085	1102.391	842.191
348.562	16.176	1101.436	841.843
349.577	16.076	1100.761	840.753
350.592	16.109	1099.876	840.167
351.606	15.968	1099.473	839.083
352.621	16.063	1098.862	839.016
353.635	16.046	1097.514	837.828
354.650	16.021	1097.352	837.505
355.665	16.017	1096.751	836.951
356.679	15.982	1096.262	836.333
357.694	16.171	1095.307	836.465
358.708	16.217	1094.387	835.918
359.723	16.267	1093.524	835.432
360.738	16.222	1093.121	834.824
361.752	16.065	1093.319	834.125
362.767	16.259	1092.301	834.236
363.781	16.178	1091.650	833.265
364.796	16.373	1090.974	833.635
365.810	16.250	1090.568	832.646
366.825	16.298	1089.797	832.218
367.840	16.439	1088.782	832.067
368.854	16.555	1088.108	832.048
369.869	16.472	1087.790	831.323
370.883	16.296	1087.314	830.021
371.898	16.462	1086.128	829.856
372.913	16.488	1085.777	829.642
373.927	16.367	1085.619	828.855
374.942	16.395	1084.968	828.421
375.956	16.514	1084.127	828.291
376.971	16.448	1083.592	827.483
377.986	16.582	1083.284	827.830
379.000	16.612	1082.117	827.011
380.015	16.553	1081.975	826.543
381.029	16.532	1081.204	825.780
382.044	16.568	1080.472	825.323
383.059	16.665	1079.464	824.952
384.073	16.766	1078.756	824.827
385.088	16.705	1077.814	823.739
386.102	16.672	1077.002	822.887
387.117	16.640	1076.306	822.125
388.132	16.740	1074.965	821.514
389.146	16.679	1074.437	820.742
390.161	16.631	1073.842	819.980
391.175	16.630	1073.195	819.409
392.190	16.639	1072.642	818.960
393.205	16.694	1071.749	818.473
394.219	16.820	1070.779	818.265
395.234	16.782	1069.476	817.014
396.248	16.702	1068.836	816.070
397.263	16.762	1067.578	815.322
398.278	16.722	1067.000	814.616
399.292	16.741	1066.555	814.300
400.307	16.735	1065.636	813.494
401.321	16.737	1065.285	813.167
402.336	16.790	1064.455	812.715
403.350	16.788	1063.684	812.046
404.365	16.796	1063.149	811.600
405.380	16.819	1062.091	810.831
406.394	16.861	1061.456	810.477
407.409	17.001	1060.633	810.444
408.423	16.954	1060.170	809.796
409.438	17.052	1059.314	809.536
410.453	17.128	1058.506	809.210
411.467	17.084	1058.291	808.763
412.482	17.144	1057.297	808.220
413.496	17.041	1056.653	807.164
414.511	17.131	1055.987	807.011
415.526	17.085	1055.824	806.599
416.540	17.174	1055.510	806.709
417.555	17.197	1054.851	806.244
418.569	17.115	1054.416	805.450
419.584	17.284	1053.264	805.301
420.599	17.143	1053.291	804.584
421.613	78.560	1282.291	1320.097
422.628	72.319	1315.642	1320.228
