DTS Sentinel unit serial number:	SN413079Multiplexer serial number:	ORYXHardware model number:	OX4-SRSoftware version number:	ORYX F/W v4.00 Oryx Data Collector v3.7.2.0data status	okinstallation	princeton_trtdifferential loss correction	single-endedforward channel	channel 2reverse channel	N/Adate	2019/09/19time	09:39:35forward acquisition time	60.00reverse acquisition time	0.00gamma	496.2192k internal	0.2349k external	0.2349temperature offset calibration	1.0000default loss term (dB/km)	0.3790temperature slope calibration	1.0000multiplexer offset coefficient	1.0000multiplexer slope coefficient	1.0000fibre end	0.00T internal ref (°C)	23.11T ext. ref 1 (°C)	0.63T ext. ref 2 (°C)	19.43length (m)	temperature (°C)	Stokes	anti-Stokes-747.200	105.397	0.241	0.285
-746.185	98.846	-0.289	0.333
-745.171	267.654	0.062	0.109
-744.156	-86.423	-0.196	0.060
-743.142	-95.580	0.178	0.048
-742.127	-200.000	0.033	0.183
-741.112	79.101	-0.095	0.102
-740.098	-78.796	-0.337	0.115
-739.083	-124.342	0.095	-0.015
-738.069	-200.000	-0.000	0.370
-737.054	-65.964	0.072	0.029
-736.039	-24.311	-0.210	0.125
-735.025	-200.000	0.088	0.392
-734.010	335.797	-0.095	0.185
-732.996	179.831	0.120	-0.175
-731.981	294.298	-0.204	0.373
-730.966	6.076	-0.205	-0.152
-729.952	-91.606	-0.338	0.096
-728.937	56.115	-0.086	-0.083
-727.923	-119.323	0.257	-0.045
-726.908	492.377	0.086	-0.197
-725.894	190.727	0.094	-0.140
-724.879	-200.000	0.008	-0.088
-723.864	-72.184	0.137	0.051
-722.850	-70.098	-0.460	-0.175
-721.835	-200.000	0.004	0.031
-720.821	743.418	-0.085	0.227
-719.806	-200.000	0.036	0.246
-718.791	196.861	-0.063	-0.096
-717.777	-130.886	-0.285	-0.038
-716.762	-110.429	-0.082	0.017
-715.748	-64.209	0.220	0.089
-714.733	-68.281	0.217	0.084
-713.718	-53.216	-0.340	-0.156
-712.704	-200.000	0.033	-0.249
-711.689	-9.849	0.149	-0.099
-710.675	-200.000	0.020	0.208
-709.660	-200.000	0.034	-0.290
-708.645	161.057	0.218	-0.304
-707.631	-200.000	-0.042	-0.245
-706.616	58.633	-0.089	0.087
-705.602	800.000	-0.105	0.328
-704.587	-54.106	-0.229	-0.104
-703.572	633.788	0.049	0.125
-702.558	84.875	-0.104	-0.114
-701.543	-151.537	0.249	-0.018
-700.529	-100.964	-0.462	0.113
-699.514	-79.508	-0.243	0.082
-698.499	-200.000	-0.091	-0.527
-697.485	-200.000	0.000	-0.054
-696.470	784.232	-0.105	-0.288
-695.456	-200.000	0.009	0.111
-694.441	210.898	-0.181	0.283
-693.426	800.000	0.107	-0.305
-692.412	800.000	-0.079	-0.294
-691.397	800.000	0.048	-0.150
-690.383	-200.000	-0.012	-0.229
-689.368	131.238	0.054	0.069
-688.354	-200.000	0.022	0.278
-687.339	-153.593	0.121	0.008
-686.324	111.260	-0.095	0.114
-685.310	79.963	-0.215	0.231
-684.295	-200.000	0.011	-0.107
-683.281	-49.166	-0.091	-0.043
-682.266	202.965	0.161	-0.247
-681.251	-101.943	-0.251	0.060
-680.237	-45.723	-0.125	0.062
-679.222	-127.003	0.480	0.070
-678.208	257.701	0.157	-0.269
-677.193	800.000	0.113	0.473
-676.178	18.830	0.375	-0.299
-675.164	304.191	-0.081	0.149
-674.149	-185.847	-0.312	-0.005
-673.135	7.653	0.147	0.110
-672.120	-158.520	-0.201	0.012
-671.105	105.644	0.245	0.288
-670.091	57.206	-0.282	-0.274
-669.076	263.866	0.206	0.357
-668.062	-200.000	0.011	-0.251
-667.047	208.631	0.092	-0.143
-666.032	144.394	-0.164	-0.218
-665.018	-200.000	-0.068	-0.413
-664.003	-119.606	0.037	-0.006
-662.989	254.744	0.088	0.150
-661.974	112.426	0.033	0.039
-660.959	16.692	-0.082	-0.065
-659.945	421.500	-0.097	0.207
-658.930	-83.802	-0.197	0.062
-657.916	35.284	-0.219	-0.191
-656.901	-195.422	0.203	0.001
-655.886	-144.994	0.238	0.022
-654.872	-128.266	0.389	0.055
-653.857	578.157	-0.010	-0.023
-652.843	-78.747	-0.352	-0.120
-651.828	173.825	-0.100	-0.143
-650.814	-114.275	0.218	-0.042
-649.799	-144.825	-0.217	-0.020
-648.784	-33.930	0.090	-0.049
-647.770	-44.892	0.040	0.020
-646.755	300.356	0.061	-0.111
-645.741	686.957	0.140	-0.363
-644.726	248.149	0.027	0.046
-643.711	-200.000	-0.016	0.163
-642.697	227.637	-0.101	-0.163
-641.682	-200.000	-0.003	-0.281
-640.668	-13.516	0.056	0.036
-639.653	-113.745	0.148	0.029
-638.638	435.023	0.098	0.213
-637.624	-200.000	0.031	-0.259
-636.609	-118.023	0.204	-0.036
-635.595	-116.248	-0.242	0.045
-634.580	33.664	0.118	0.102
-633.565	34.453	-0.156	0.135
-632.551	-85.993	0.191	-0.059
-631.536	-144.412	-0.147	-0.014
-630.522	-71.825	0.351	-0.130
-629.507	800.000	-0.016	-0.059
-628.492	244.314	0.106	0.176
-627.478	-137.096	0.198	0.023
-626.463	114.292	-0.176	0.213
-625.449	-52.377	-0.199	-0.092
-624.434	603.810	0.058	-0.143
-623.419	70.092	-0.119	-0.123
-622.405	800.000	-0.104	-0.336
-621.390	189.651	-0.039	0.058
-620.376	-54.653	-0.371	0.167
-619.361	158.991	0.151	-0.208
-618.346	2.679	-0.226	0.163
-617.332	-119.595	0.394	0.068
-616.317	-196.387	-0.111	0.001
-615.303	800.000	0.116	-0.329
-614.288	-200.000	0.034	0.175
-613.273	800.000	-0.040	-0.166
-612.259	-176.304	-0.126	0.003
-611.244	30.913	0.053	0.045
-610.230	-18.089	0.086	-0.054
-609.215	-200.000	0.051	-0.283
-608.201	23.172	-0.209	0.171
-607.186	31.589	-0.344	0.294
-606.171	-200.000	-0.000	-0.332
-605.157	561.066	0.128	0.307
-604.142	-200.000	-0.008	-0.078
-603.128	-67.933	0.370	-0.144
-602.113	-200.000	0.050	0.418
-601.098	249.354	-0.151	0.254
-600.084	40.856	0.196	-0.175
-599.069	-66.367	0.392	0.155
-598.055	-44.901	-0.284	0.140
-597.040	800.000	0.051	-0.143
-596.025	-200.000	-0.039	-0.269
-595.011	704.118	0.091	-0.240
-593.996	-194.621	0.150	-0.001
-592.982	-16.972	0.337	-0.211
-591.967	800.000	0.004	-0.012
-590.952	-62.096	0.254	-0.105
-589.938	-113.972	-0.234	0.045
-588.923	234.501	0.057	-0.093
-587.909	34.066	0.291	-0.252
-586.894	-194.356	-0.263	-0.002
-585.879	126.764	0.079	-0.100
-584.865	170.821	-0.096	-0.136
-583.850	-0.234	-0.132	0.093
-582.836	-200.000	0.019	-0.353
-581.821	-40.292	-0.310	-0.160
-580.806	-179.069	0.258	0.006
-579.792	-91.526	-0.243	0.069
-578.777	92.484	0.128	0.143
-577.763	184.551	-0.235	0.345
-576.748	692.377	0.115	-0.300
-575.733	-200.000	-0.060	-0.426
-574.719	-82.085	-0.306	0.099
-573.704	800.000	-0.062	-0.219
-572.690	-147.719	0.119	0.010
-571.675	7.198	0.346	-0.256
-570.661	-159.862	0.226	0.012
-569.646	800.000	-0.061	-0.260
-568.631	399.086	-0.146	0.304
-567.617	150.414	-0.130	0.175
-566.602	-200.000	0.017	0.178
-565.588	28.813	-0.229	-0.193
-564.573	-83.373	-0.315	-0.100
-563.558	7.347	0.218	-0.161
-562.544	2.737	-0.126	-0.091
-561.529	-200.000	0.009	0.041
-560.515	-30.354	0.187	0.105
-559.500	-38.377	-0.170	-0.089
-558.485	-80.364	-0.362	-0.120
-557.471	-27.707	-0.206	0.118
-556.456	525.975	-0.120	-0.280
-555.442	800.000	0.056	-0.173
-554.427	-36.672	-0.482	0.257
-553.412	800.000	-0.084	0.357
-552.398	352.655	-0.091	-0.179
-551.383	-124.438	-0.344	-0.053
-550.369	800.000	0.035	-0.106
-549.354	93.969	0.157	0.176
-548.339	692.450	-0.122	0.317
-547.325	800.000	-0.034	0.121
-546.310	101.555	0.043	0.050
-545.296	75.038	0.070	-0.073
-544.281	108.129	-0.073	-0.086
-543.266	-158.757	-0.201	-0.011
-542.252	316.700	-0.039	0.073
-541.237	36.623	-0.224	0.196
-540.223	621.905	-0.112	0.278
-539.208	-24.506	0.107	0.063
-538.193	-4.720	0.202	-0.138
-537.179	-58.282	-0.383	-0.165
-536.164	-200.000	0.047	-0.322
-535.150	-20.740	0.213	0.130
-534.135	-37.571	0.110	-0.058
-533.121	8.462	0.285	0.212
-532.106	150.332	-0.086	0.115
-531.091	43.995	0.150	-0.136
-530.077	-200.000	-0.022	-0.218
-529.062	-187.016	0.162	-0.002
-528.048	237.035	-0.172	-0.282
-527.033	800.000	0.052	-0.153
-526.018	-139.560	-0.277	-0.029
-525.004	-200.000	0.009	0.373
-523.989	610.451	-0.140	0.346
-522.975	412.521	-0.187	-0.393
-521.960	-22.773	-0.146	-0.087
-520.945	-44.939	-0.294	-0.145
-519.931	-8.918	0.294	-0.195
-518.916	-200.000	0.022	0.107
-517.902	24.290	0.259	-0.212
-516.887	115.726	0.217	0.262
-515.872	277.617	-0.031	-0.054
-514.858	88.087	0.203	0.222
-513.843	-80.032	0.048	-0.016
-512.829	-36.459	0.384	-0.205
-511.814	431.970	-0.056	-0.120
-510.799	57.053	-0.258	-0.249
-509.785	182.529	0.172	-0.251
-508.770	-200.000	-0.079	-0.389
-507.756	127.753	0.127	0.159
-506.741	-130.748	-0.228	0.030
-505.726	389.067	0.077	-0.157
-504.712	170.988	0.114	0.161
-503.697	-97.166	0.119	0.031
-502.683	170.994	0.098	0.139
-501.668	-200.000	-0.011	-0.240
-500.653	92.940	0.208	-0.232
-499.639	-22.838	-0.086	0.051
-498.624	-96.004	0.214	-0.056
-497.610	-14.126	0.096	0.061
-496.595	-89.996	0.297	-0.086
-495.581	-200.000	0.042	-0.220
-494.566	152.504	-0.067	0.090
-493.551	-133.482	-0.061	0.008
-492.537	253.114	-0.118	0.199
-491.522	800.000	0.053	-0.150
-490.508	263.046	0.097	-0.166
-489.493	71.788	-0.109	0.112
-488.478	49.249	0.226	0.210
-487.464	-25.530	0.133	0.078
-486.449	-28.896	0.121	-0.069
-485.435	-133.947	0.285	0.035
-484.420	-200.000	0.009	0.089
-483.405	800.000	0.032	-0.119
-482.391	574.656	-0.127	-0.306
-481.376	79.536	0.167	-0.177
-480.362	-16.170	-0.167	-0.105
-479.347	51.019	-0.135	0.127
-478.332	419.868	-0.090	-0.191
-477.318	-200.000	-0.002	-0.238
-476.303	265.615	-0.062	0.106
-475.289	106.174	0.143	0.168
-474.274	-123.240	-0.065	0.010
-473.259	-139.175	-0.156	-0.017
-472.245	800.000	-0.075	-0.219
-471.230	1.655	0.085	0.061
-470.216	128.014	-0.234	0.294
-469.201	49.312	0.129	-0.120
-468.186	786.662	-0.059	-0.160
-467.172	-35.896	-0.146	0.078
-466.157	-200.000	0.008	-0.039
-465.143	-178.299	0.315	-0.007
-464.128	98.176	0.065	0.074
-463.113	194.843	0.170	0.254
-462.099	-1.337	0.059	-0.041
-461.084	256.153	-0.064	0.108
-460.070	800.000	-0.037	-0.136
-459.055	-175.094	-0.331	-0.009
-458.040	-78.207	-0.185	-0.063
-457.026	-118.905	-0.151	-0.026
-456.011	-77.615	0.262	0.090
-454.997	90.417	-0.060	0.066
-453.982	316.401	0.062	-0.115
-452.968	-15.400	0.074	0.047
-451.953	800.000	-0.059	-0.231
-450.938	-200.000	0.020	-0.387
-449.924	-200.000	-0.007	-0.292
-448.909	-109.335	0.343	-0.072
-447.895	-12.654	-0.179	0.115
-446.880	-90.040	-0.202	0.058
-445.865	42.870	0.204	0.184
-444.851	306.604	-0.135	-0.247
-443.836	10.043	-0.247	0.185
-442.822	-32.954	-0.104	0.057
-441.807	19.698	0.118	0.093
-440.792	-52.790	-0.121	0.055
-439.778	-65.016	-0.281	0.112
-438.763	-119.634	0.058	-0.010
-437.749	-66.385	-0.101	-0.040
-436.734	-57.203	0.292	-0.127
-435.719	-200.000	0.003	0.176
-434.705	-94.947	0.216	0.058
-433.690	-74.227	-0.166	-0.059
-432.676	-97.912	0.081	0.021
-431.661	213.643	-0.045	0.070
-430.646	800.000	-0.026	0.102
-429.632	163.977	0.041	-0.057
-428.617	-200.000	0.019	-0.083
-427.603	-124.497	0.037	-0.006
-426.588	12.657	0.111	0.085
-425.573	-99.106	0.334	-0.083
-424.559	-200.000	-0.000	-0.004
-423.544	36.094	0.190	-0.165
-422.530	-200.000	0.018	-0.308
-421.515	637.077	0.075	-0.189
-420.500	15.761	0.197	-0.153
-419.486	774.743	-0.040	0.108
-418.471	-200.000	0.019	-0.113
-417.457	13.081	-0.209	0.160
-416.442	93.455	0.154	0.172
-415.428	413.306	-0.083	-0.173
-414.413	-200.000	0.077	-0.477
-413.398	-124.618	0.221	0.034
-412.384	327.239	0.020	-0.037
-411.369	537.387	0.073	0.171
-410.355	-200.000	-0.011	0.190
-409.340	-200.000	-0.172	-0.000
-408.325	661.052	-0.130	0.329
-407.311	391.145	-0.042	0.087
-406.296	-126.910	0.371	-0.054
-405.282	-34.790	-0.173	-0.093
-404.267	5.243	0.075	-0.055
-403.252	800.000	-0.022	-0.084
-402.238	800.000	-0.084	0.232
-401.223	800.000	-0.054	-0.153
-400.209	-7.213	0.128	-0.086
-399.194	58.688	0.112	-0.108
-398.179	-152.244	-0.068	0.005
-397.165	-200.000	0.001	-0.073
-396.150	-41.562	0.121	0.061
-395.136	800.000	0.015	-0.063
-394.121	-200.000	0.019	0.086
-393.106	800.000	-0.033	0.114
-392.092	-85.517	0.343	-0.105
-391.077	-28.692	-0.379	0.215
-390.063	267.337	0.081	-0.139
-389.048	-108.813	-0.508	-0.107
-388.033	-85.536	0.189	0.058
-387.019	800.000	0.066	-0.204
-386.004	77.523	0.206	0.216
-384.990	-67.329	-0.409	-0.158
-383.975	533.840	0.058	-0.136
-382.960	-82.170	0.409	0.131
-381.946	-123.422	0.170	0.027
-380.931	-200.000	0.007	0.160
-379.917	-44.052	-0.186	0.092
-378.902	420.592	-0.057	-0.120
-377.888	236.963	-0.133	0.217
-376.873	147.142	0.215	-0.285
-375.858	-9.919	-0.242	-0.158
-374.844	-15.683	0.106	-0.067
-373.829	-119.808	0.277	0.047
-372.815	159.268	0.245	0.335
-371.800	800.000	0.021	0.070
-370.785	138.808	0.133	-0.173
-369.771	-16.719	-0.189	0.118
-368.756	55.661	-0.159	0.152
-367.742	102.147	0.160	-0.184
-366.727	411.243	-0.103	0.215
-365.712	800.000	-0.108	0.297
-364.698	-161.844	-0.214	-0.011
-363.683	-200.000	0.027	-0.148
-362.669	299.402	0.082	-0.148
-361.654	791.923	-0.070	-0.190
-360.639	266.535	-0.263	0.452
-359.625	18.513	-0.291	0.229
-358.610	800.000	-0.078	-0.240
-357.596	-200.000	0.015	0.155
-356.581	84.123	-0.080	0.086
-355.566	83.590	-0.198	0.212
-354.552	71.844	-0.027	0.028
-353.537	23.545	0.200	-0.162
-352.523	-142.028	-0.098	-0.010
-351.508	164.463	-0.161	0.223
-350.493	800.000	0.064	0.244
-349.479	32.318	-0.064	-0.054
-348.464	124.631	0.195	-0.242
-347.450	29.867	0.170	-0.142
-346.435	-112.936	0.297	0.058
-345.420	326.760	-0.072	-0.135
-344.406	-94.539	-0.437	0.117
-343.391	-79.775	0.389	-0.129
-342.377	-125.780	0.180	0.027
-341.362	-133.889	-0.260	-0.032
-340.348	-200.000	0.057	-0.274
-339.333	-200.000	0.021	0.142
-338.318	79.612	0.096	-0.102
-337.304	-18.753	0.304	-0.186
-336.289	-109.841	-0.372	0.077
-335.275	214.977	0.142	-0.222
-334.260	800.000	0.090	-0.269
-333.245	-200.000	-0.010	0.234
-332.231	219.106	0.134	-0.211
-331.216	738.670	-0.036	-0.095
-330.202	-18.700	0.195	-0.119
-329.187	91.396	-0.013	-0.014
-328.172	12.371	0.216	-0.163
-327.158	200.472	-0.022	-0.033
-326.143	-200.000	0.019	0.095
-325.129	-7.037	0.121	-0.081
-324.114	33.356	0.050	-0.042
-323.099	800.000	0.072	-0.245
-322.085	-44.852	-0.189	-0.092
-321.070	-200.000	0.002	0.063
-320.056	-142.023	-0.463	0.045
-319.041	182.302	-0.068	0.099
-318.026	-200.000	-0.064	0.377
-317.012	657.991	-0.030	-0.077
-315.997	428.113	-0.106	-0.224
-314.983	-50.253	-0.152	0.070
-313.968	-78.478	0.249	0.084
-312.953	-68.147	-0.287	-0.110
-311.939	191.810	0.335	0.495
-310.924	-138.981	0.094	-0.010
-309.910	800.000	0.056	-0.199
-308.895	-91.753	0.160	-0.045
-307.880	-200.000	-0.061	-0.274
-306.866	-93.055	-0.239	-0.065
-305.851	305.258	-0.040	-0.072
-304.837	-165.543	-0.204	0.009
-303.822	-200.000	0.038	-0.198
-302.807	264.596	0.177	0.303
-301.793	-155.817	0.421	-0.026
-300.778	800.000	-0.044	0.141
-299.764	30.787	-0.128	0.108
-298.749	-200.000	0.015	-0.153
-297.735	287.432	-0.038	-0.068
-296.720	-24.074	0.265	0.156
-295.705	347.281	0.203	0.392
-294.691	-115.339	-0.275	-0.051
-293.676	34.067	0.230	-0.197
-292.662	155.072	-0.159	-0.214
-291.647	34.231	-0.250	-0.214
-290.632	228.501	-0.136	-0.218
-289.618	80.629	0.207	0.219
-288.603	601.852	0.062	0.151
-287.589	232.245	0.034	-0.055
-286.574	396.501	0.087	-0.177
-285.559	588.794	-0.069	-0.166
-284.545	66.524	-0.246	0.245
-283.530	-2.416	0.361	0.248
-282.516	-51.936	-0.108	-0.049
-281.501	-33.265	-0.346	-0.188
-280.486	89.748	0.041	-0.045
-279.472	-49.484	0.255	-0.119
-278.457	-6.809	-0.219	0.146
-277.443	295.683	-0.164	-0.294
-276.428	-200.000	-0.020	0.120
-275.413	61.336	-0.123	-0.120
-274.399	-4.673	0.323	-0.219
-273.384	-132.913	-0.033	0.004
-272.370	43.907	-0.130	0.117
-271.355	6.652	0.303	0.221
-270.340	-130.775	-0.358	-0.047
-269.326	131.984	0.064	0.081
-268.311	-200.000	0.028	0.273
-267.297	-91.029	-0.049	-0.014
-266.282	55.589	-0.265	0.251
-265.267	-40.837	0.192	0.097
-264.253	-58.103	-0.161	-0.069
-263.238	-200.000	-0.024	-0.195
-262.224	-8.055	-0.214	0.141
-261.209	28.851	-0.129	0.107
-260.195	608.160	0.194	0.474
-259.180	-200.000	0.002	0.258
-258.165	-112.464	0.180	-0.035
-257.151	-200.000	-0.081	0.412
-256.136	800.000	-0.066	0.182
-255.122	27.242	0.195	-0.161
-254.107	243.225	-0.205	-0.336
-253.092	-200.000	0.059	-0.411
-252.078	-69.868	0.232	0.087
-251.063	-95.463	-0.085	-0.022
-250.049	496.290	-0.102	-0.229
-249.034	68.820	0.077	0.077
-248.019	-171.526	-0.286	0.009
-247.005	64.573	0.073	-0.072
-245.990	-200.000	-0.029	0.285
-244.976	-62.117	0.405	0.166
-243.961	800.000	-0.079	0.328
-242.946	78.296	-0.143	0.150
-241.932	800.000	-0.033	0.112
-240.917	-138.293	-0.367	0.040
-239.903	-13.483	0.145	0.092
-238.888	418.164	0.099	0.206
-237.873	3.103	0.287	0.204
-236.859	800.000	0.055	0.196
-235.844	-71.861	0.109	-0.040
-234.830	437.121	-0.020	0.043
-233.815	5.314	0.180	-0.130
-232.800	-115.361	-0.420	0.078
-231.786	413.299	0.090	-0.187
-230.771	-19.988	0.110	-0.067
-229.757	4.826	-0.158	0.114
-228.742	61.242	0.113	0.110
-227.727	4.639	-0.258	-0.185
-226.713	-85.671	-0.039	-0.012
-225.698	-35.351	0.237	0.126
-224.684	223.546	-0.059	0.094
-223.669	-200.000	-0.005	-0.029
-222.655	230.213	0.121	-0.193
-221.640	41.042	-0.244	0.216
-220.625	-125.364	-0.229	-0.034
-219.611	-48.679	-0.318	0.150
-218.596	800.000	0.030	-0.112
-217.582	117.918	-0.129	-0.156
-216.567	19.685	0.137	0.108
-215.552	210.865	-0.055	-0.084
-214.538	127.592	-0.087	0.108
-213.523	-200.000	-0.006	0.277
-212.509	16.518	0.328	0.253
-211.494	145.498	-0.060	0.079
-210.479	-82.501	0.189	0.060
-209.465	203.144	0.013	0.019
-208.450	-200.000	-0.032	-0.268
-207.436	115.068	0.182	-0.217
-206.421	800.000	0.023	0.094
-205.406	800.000	0.152	0.439
-204.392	378.250	-0.109	0.217
-203.377	287.968	-0.179	0.316
-202.363	-200.000	0.037	-0.328
-201.348	-1.651	0.125	-0.086
-200.333	-69.738	0.486	0.182
-199.319	-38.756	-0.214	0.110
-198.304	411.570	-0.117	0.242
-197.290	189.828	0.158	0.232
-196.275	224.046	-0.202	0.320
-195.260	27.708	-0.250	0.206
-194.246	-117.150	-0.181	-0.032
-193.231	-115.709	-0.168	0.031
-192.217	800.000	0.090	0.313
-191.202	83.598	0.167	0.178
-190.187	247.036	-0.176	0.290
-189.173	52.391	0.117	0.109
-188.158	463.615	-0.109	0.239
-187.144	-177.015	0.019	-0.000
-186.129	49.809	-0.024	-0.023
-185.114	470.628	-0.082	0.181
-184.100	-84.390	0.203	-0.063
-183.085	92.769	0.183	0.201
-182.071	-200.000	0.016	-0.320
-181.056	-122.006	-0.138	-0.022
-180.042	-200.000	0.006	0.462
-179.027	-27.075	-0.212	0.121
-178.012	-200.000	-0.047	-0.265
-176.998	23.662	0.164	0.132
-175.983	-58.749	-0.262	-0.111
-174.969	146.244	-0.023	0.030
-173.954	-200.000	0.012	-0.163
-172.939	-12.718	-0.189	-0.120
-171.925	-77.850	-0.112	-0.038
-170.910	689.332	-0.097	-0.248
-169.896	-46.711	0.348	-0.167
-168.881	790.046	-0.058	-0.156
-167.866	-200.000	0.008	0.140
-166.852	-95.993	-0.197	-0.051
-165.837	-11.466	0.245	0.158
-164.823	-56.801	-0.205	0.088
-163.808	-200.000	0.020	0.201
-162.793	103.822	0.045	0.052
-161.779	800.000	0.063	0.248
-160.764	-200.000	0.038	-0.174
-159.750	800.000	0.139	-0.399
-158.735	97.098	-0.137	0.153
-157.720	20.655	-0.206	0.163
-156.706	528.996	0.033	0.075
-155.691	-135.437	0.236	0.027
-154.677	-7.535	0.313	0.207
-153.662	-70.244	0.132	-0.049
-152.647	-58.495	-0.232	0.098
-151.633	487.434	-0.125	0.278
-150.618	-128.069	0.415	0.058
-149.604	77.064	0.178	0.184
-148.589	-131.072	-0.419	-0.054
-147.574	-79.037	0.393	0.130
-146.560	-200.000	0.011	-0.121
-145.545	199.079	0.143	0.214
-144.531	-108.369	-0.344	0.072
-143.516	800.000	-0.094	0.278
-142.502	-36.382	-0.123	0.064
-141.487	12.783	-0.279	0.210
-140.472	-91.148	0.061	-0.017
-139.458	159.818	-0.179	0.243
-138.443	-200.000	0.003	0.157
-137.429	71.057	0.327	0.330
-136.414	-122.957	-0.110	-0.017
-135.399	-142.729	-0.159	0.015
-134.385	800.000	0.154	-0.426
-133.370	-175.114	0.268	-0.007
-132.356	-198.459	0.101	0.001
-131.341	-163.017	-0.104	0.005
-130.326	72.480	-0.104	0.105
-129.312	35.649	-0.154	0.132
-128.297	3.500	0.133	-0.094
-127.283	-200.000	-0.025	-0.265
-126.268	-90.103	0.296	-0.084
-125.253	-73.327	0.339	0.121
-124.239	6.515	-0.321	-0.233
-123.224	800.000	-0.028	0.081
-122.210	6.301	0.071	-0.051
-121.195	-200.000	0.006	0.174
-120.180	-32.838	0.250	0.136
-119.166	2.071	0.204	-0.144
-118.151	-61.542	-0.120	0.049
-117.137	-200.000	-0.031	0.213
-116.122	389.973	-0.032	0.065
-115.107	772.248	-0.084	-0.222
-114.093	-60.442	-0.251	0.104
-113.078	-200.000	0.047	0.282
-112.064	-200.000	0.013	-0.180
-111.049	-115.285	-0.162	-0.030
-110.034	-200.000	-0.017	-0.254
-109.020	-45.944	-0.383	-0.184
-108.005	-102.886	0.346	0.080
-106.991	-82.642	-0.164	-0.052
-105.976	-17.758	0.091	0.056
-104.962	301.549	0.068	-0.123
-103.947	-200.000	-0.035	-0.184
-102.932	-63.937	-0.410	0.163
-101.918	90.226	0.291	-0.317
-100.903	800.000	-0.077	-0.214
-99.889	11.146	0.230	0.172
-98.874	195.775	0.102	0.151
-97.859	129.408	0.105	-0.131
-96.845	-128.995	-0.165	-0.023
-95.830	-42.288	0.171	0.085
-94.816	63.423	-0.268	-0.262
-93.801	90.036	0.076	-0.083
-92.786	-200.000	0.047	-0.621
-91.772	-89.683	-0.111	-0.032
-90.757	-167.384	-0.148	0.006
-89.743	-101.175	0.141	-0.034
-88.728	518.902	0.106	-0.241
-87.713	56.623	-0.168	-0.160
-86.699	-121.744	-0.113	0.018
-85.684	-179.500	-0.210	-0.004
-84.670	-15.470	-0.179	0.111
-83.655	-200.000	-0.040	-0.349
-82.640	105.585	0.266	0.306
-81.626	-135.029	0.295	-0.035
-80.611	-200.000	0.004	0.044
-79.597	61.615	-0.039	0.038
-78.582	-24.385	0.181	-0.105
-77.567	-200.000	-0.014	-0.147
-76.553	-0.885	-0.380	-0.262
-75.538	-200.000	0.062	0.302
-74.524	-158.227	-0.368	0.021
-73.509	800.000	-0.046	0.193
-72.494	28.856	0.069	-0.056
-71.480	-79.433	0.311	-0.102
-70.465	38.339	0.193	0.168
-69.451	-119.844	-0.111	0.019
-68.436	-200.000	0.049	-0.437
-67.422	800.000	-0.042	0.124
-66.407	-200.000	0.022	-0.221
-65.392	-139.280	-0.236	-0.025
-64.378	111.559	0.105	0.124
-63.363	-135.549	0.245	0.028
-62.349	144.628	-0.110	-0.143
-61.334	58.636	-1.040	-0.993
-60.319	52.285	0.713	0.661
-59.305	800.000	-0.361	-1.476
-58.290	523.101	0.767	1.751
-57.276	643.429	0.577	1.430
-56.261	-200.000	123.139	618.861
-55.246	391.640	1571.370	3173.282
-54.232	140.095	2757.239	3534.785
-53.217	88.191	2328.422	2512.021
-52.203	32.399	1931.941	1621.949
-51.188	26.123	1725.345	1399.951
-50.173	23.926	1686.411	1351.624
-49.159	44.065	1755.144	1564.024
-48.144	42.253	1766.204	1559.736
-47.130	25.633	1717.603	1389.657
-46.115	23.217	1701.768	1358.283
-45.100	23.034	1696.448	1352.577
-44.086	23.041	1694.683	1351.171
-43.071	22.938	1692.144	1348.307
-42.057	22.958	1689.676	1346.438
-41.042	23.044	1687.752	1345.512
-40.027	22.934	1686.332	1343.485
-39.013	23.009	1684.070	1342.203
-37.998	22.991	1682.600	1340.841
-36.984	23.035	1681.439	1340.192
-35.969	23.130	1679.623	1339.413
-34.954	23.155	1678.119	1338.351
-33.940	23.079	1675.983	1336.016
-32.925	23.076	1674.648	1334.877
-31.911	23.106	1672.596	1333.414
-30.896	23.086	1671.095	1332.017
-29.881	23.080	1669.983	1331.033
-28.867	23.127	1667.865	1329.647
-27.852	23.092	1666.514	1328.252
-26.838	23.116	1664.967	1327.149
-25.823	23.134	1663.853	1326.342
-24.809	23.218	1662.260	1325.644
-23.794	23.102	1661.278	1323.941
-22.779	23.147	1659.103	1322.494
-21.765	23.110	1657.291	1320.719
-20.750	23.112	1656.118	1319.751
-19.736	23.155	1654.913	1319.056
-18.721	23.200	1653.455	1318.177
-17.706	23.202	1651.434	1316.527
-16.692	23.077	1650.659	1314.932
-15.677	23.205	1648.488	1314.100
-14.663	23.151	1647.647	1312.978
-13.648	23.133	1646.411	1311.801
-12.633	23.085	1644.685	1310.020
-11.619	23.111	1642.853	1308.700
-10.604	23.083	1641.578	1307.425
-9.590	23.132	1640.442	1306.833
-8.575	23.091	1638.955	1305.295
-7.560	23.197	1637.802	1305.106
-6.546	23.059	1636.879	1303.303
-5.531	23.166	1635.606	1303.022
-4.517	23.179	1634.251	1301.990
-3.502	23.092	1633.454	1300.658
-2.487	23.237	1631.790	1300.349
-1.473	22.924	1619.622	1288.321
-0.458	20.568	1600.648	1256.177
0.556	16.133	1603.066	1227.707
1.571	14.197	1627.693	1232.136
2.586	13.824	1640.308	1238.787
3.600	12.838	1584.892	1189.715
4.615	7.263	1475.536	1069.979
5.629	1.639	1416.485	990.536
6.644	0.722	1409.140	979.369
7.659	0.653	1407.537	977.721
8.673	0.627	1407.137	977.190
9.688	0.539	1404.792	974.904
10.702	0.390	1400.946	971.194
11.717	3.029	1405.363	991.203
12.731	9.764	1415.044	1041.555
13.746	15.182	1423.286	1082.627
14.761	16.910	1425.229	1095.178
15.775	16.474	1423.248	1090.743
16.790	15.528	1421.064	1082.880
17.804	14.800	1418.413	1076.080
18.819	14.361	1417.191	1072.228
19.834	14.030	1416.014	1069.114
20.848	13.856	1414.755	1066.954
21.863	13.631	1413.037	1064.116
22.877	13.413	1412.068	1061.896
23.892	13.405	1411.339	1061.201
24.907	13.375	1410.276	1060.114
25.921	13.470	1409.231	1059.848
26.936	13.490	1408.613	1059.414
27.950	13.568	1407.063	1058.656
28.965	13.650	1406.046	1058.317
29.980	13.581	1405.269	1057.201
30.994	13.666	1404.289	1056.911
32.009	13.689	1403.158	1056.113
33.023	13.689	1402.074	1055.202
34.038	13.568	1401.078	1053.592
35.053	13.621	1399.598	1052.724
36.067	13.506	1398.767	1051.274
37.082	13.514	1398.000	1050.653
38.096	13.508	1397.287	1049.988
39.111	13.649	1395.945	1049.782
40.126	13.528	1394.958	1048.179
41.140	13.471	1394.429	1047.330
42.155	13.436	1393.998	1046.692
43.169	13.473	1394.160	1046.954
44.184	13.410	1394.344	1046.600
45.199	13.388	1393.519	1045.749
46.213	13.446	1392.281	1045.091
47.228	13.598	1391.499	1045.370
48.242	13.559	1390.153	1044.023
49.257	13.511	1388.654	1042.503
50.271	13.540	1386.963	1041.321
51.286	13.585	1386.119	1040.882
52.301	13.521	1384.807	1039.402
53.315	13.520	1383.612	1038.404
54.330	13.447	1382.492	1037.016
55.344	13.383	1381.578	1035.837
56.359	13.471	1380.543	1035.521
57.374	13.434	1379.336	1034.296
58.388	13.432	1378.785	1033.774
59.403	13.346	1378.535	1032.963
60.417	13.462	1377.432	1032.768
61.432	13.338	1376.976	1031.562
62.447	13.371	1375.176	1030.322
63.461	13.363	1374.000	1029.306
64.476	13.389	1373.147	1028.733
65.490	13.380	1371.590	1027.423
66.505	13.458	1369.556	1026.291
67.520	13.499	1368.391	1025.582
68.534	13.367	1368.222	1024.546
69.549	13.401	1367.265	1023.951
70.563	13.361	1365.727	1022.459
71.578	13.435	1364.723	1022.072
72.593	13.329	1363.763	1020.613
73.607	13.318	1363.090	1019.951
74.622	13.250	1362.150	1018.737
75.636	13.299	1361.344	1018.344
76.651	13.342	1360.435	1017.837
77.666	13.274	1359.787	1016.850
78.680	13.351	1359.430	1016.966
79.695	13.368	1358.705	1016.436
80.709	13.278	1357.892	1015.184
81.724	13.378	1356.979	1015.024
82.739	13.414	1355.770	1014.252
83.753	13.462	1354.805	1013.732
84.768	13.481	1353.955	1013.126
85.782	13.613	1352.714	1012.910
86.797	13.531	1350.791	1010.882
87.812	13.410	1349.928	1009.411
88.826	13.567	1348.811	1009.444
89.841	13.460	1347.626	1007.814
90.855	13.550	1346.777	1007.642
91.870	13.586	1345.703	1006.966
92.884	13.604	1344.702	1006.234
93.899	13.590	1344.436	1005.865
94.914	13.669	1343.119	1005.270
95.928	13.645	1342.009	1004.202
96.943	13.637	1341.135	1003.408
97.957	13.512	1340.589	1002.157
98.972	13.634	1339.245	1001.803
99.987	13.641	1338.535	1001.222
101.001	13.500	1337.541	999.539
102.016	13.588	1335.941	998.786
103.030	13.562	1335.523	998.232
104.045	13.578	1334.260	997.291
105.060	13.547	1333.585	996.512
106.074	13.559	1331.886	995.228
107.089	13.401	1330.434	993.109
108.103	13.310	1329.343	991.660
109.118	13.440	1327.789	991.192
110.133	13.373	1326.508	989.749
111.147	13.511	1324.943	989.318
112.162	13.421	1323.856	987.880
113.176	13.538	1322.636	987.577
114.191	13.488	1322.071	986.772
115.206	13.529	1320.614	985.840
116.220	13.565	1318.853	984.655
117.235	13.524	1317.941	983.641
118.249	13.475	1317.301	982.789
119.264	13.514	1315.484	981.575
120.279	13.513	1314.589	980.814
121.293	13.443	1313.641	979.608
122.308	13.570	1312.349	979.305
123.322	13.527	1311.433	978.283
124.337	13.474	1310.669	977.312
125.352	13.490	1309.062	976.126
126.366	13.454	1308.172	975.160
127.381	13.409	1306.969	973.913
128.395	13.464	1305.758	973.248
129.410	13.394	1305.167	972.311
130.424	13.416	1304.425	971.803
131.439	13.486	1302.854	970.956
132.454	13.479	1302.410	970.498
133.468	13.415	1301.331	969.230
134.483	13.559	1300.094	969.068
135.497	13.523	1299.075	968.011
136.512	13.453	1298.021	966.730
137.527	13.530	1296.949	966.299
138.541	13.626	1295.115	965.407
139.556	13.531	1293.468	963.537
140.570	13.556	1292.744	963.061
141.585	13.691	1291.495	962.828
142.600	13.709	1290.306	961.960
143.614	13.676	1289.251	960.897
144.629	13.684	1288.529	960.321
145.643	13.566	1287.681	958.922
146.658	13.623	1285.921	957.855
147.673	13.579	1285.134	956.928
148.687	13.661	1283.390	956.018
149.702	13.602	1282.303	954.783
150.716	13.531	1281.737	953.869
151.731	13.513	1280.392	952.681
152.746	13.593	1278.734	951.823
153.760	13.645	1277.673	951.248
154.775	13.653	1276.748	950.523
155.789	13.861	1275.036	950.355
156.804	13.761	1274.347	949.183
157.819	13.717	1273.164	947.968
158.833	13.738	1272.195	947.282
159.848	13.683	1271.887	946.655
160.862	13.872	1269.760	946.065
161.877	13.820	1268.922	945.063
162.892	13.788	1268.161	944.227
163.906	13.779	1267.276	943.436
164.921	13.734	1266.423	942.462
165.935	13.785	1265.228	941.776
166.950	13.837	1264.591	941.514
167.964	13.799	1264.139	940.876
168.979	13.880	1262.804	940.260
169.994	13.875	1262.087	939.614
171.008	13.856	1261.560	939.030
172.023	13.802	1260.685	937.994
173.037	13.869	1259.764	937.602
174.052	13.906	1259.000	937.161
175.067	13.821	1257.826	935.725
176.081	13.854	1256.997	935.209
177.096	13.902	1255.873	934.560
178.110	13.797	1255.098	933.314
179.125	13.926	1253.666	932.888
180.140	13.987	1251.945	931.869
181.154	13.850	1251.460	930.656
182.169	13.992	1249.625	930.004
183.183	14.035	1248.566	929.376
184.198	14.060	1247.328	928.508
185.213	14.135	1245.703	927.637
186.227	14.147	1245.011	927.105
187.242	14.117	1243.973	926.085
188.256	14.159	1243.272	925.714
189.271	14.125	1242.079	924.553
190.286	14.039	1240.800	923.045
191.300	13.908	1240.740	922.189
192.315	13.950	1240.092	921.862
193.329	13.949	1238.940	920.918
194.344	13.962	1238.289	920.424
195.359	13.954	1238.209	920.235
196.373	14.057	1237.138	919.931
197.388	14.168	1236.809	920.221
198.402	14.253	1235.644	919.741
199.417	14.257	1235.670	919.700
200.432	14.250	1234.789	918.923
201.446	14.335	1233.312	918.214
202.461	14.288	1232.576	917.325
203.475	14.301	1231.632	916.610
204.490	14.473	1229.499	915.888
205.504	14.375	1228.805	914.751
206.519	14.262	1228.043	913.487
207.534	14.260	1226.825	912.489
208.548	14.304	1225.778	911.868
209.563	14.380	1224.905	911.552
210.577	14.374	1224.152	910.881
211.592	14.328	1223.525	910.081
212.607	14.391	1222.777	909.788
213.621	14.396	1221.344	908.667
214.636	14.467	1220.351	908.234
215.650	14.483	1219.860	907.876
216.665	14.500	1218.513	906.889
217.680	14.542	1217.605	906.359
218.694	14.543	1216.815	905.698
219.709	14.592	1215.578	904.963
220.723	14.541	1215.107	904.255
221.738	14.468	1214.663	903.451
222.753	14.474	1214.193	903.054
223.767	14.502	1213.230	902.409
224.782	14.581	1212.763	902.406
225.796	14.776	1211.541	902.473
226.811	14.639	1210.993	901.242
227.826	14.610	1210.360	900.536
228.840	14.590	1209.688	899.847
229.855	14.697	1208.584	899.527
230.869	14.661	1207.754	898.633
231.884	14.608	1207.208	897.865
232.899	14.614	1206.077	896.975
233.913	14.623	1205.872	896.788
234.928	14.636	1204.816	895.998
235.942	14.697	1204.236	895.815
236.957	14.790	1203.524	895.703
237.972	14.666	1202.288	894.038
238.986	14.592	1202.001	893.352
240.001	14.691	1201.522	893.445
241.015	14.733	1200.447	892.793
242.030	14.799	1199.275	892.194
243.045	14.746	1198.951	891.590
244.059	14.813	1197.892	891.082
245.074	14.785	1197.117	890.277
246.088	14.873	1196.225	890.003
247.103	14.828	1195.541	889.174
248.117	14.916	1194.741	888.972
249.132	15.029	1193.758	888.759
250.147	15.114	1192.892	888.486
251.161	14.942	1192.528	887.228
252.176	15.076	1191.587	887.155
253.190	15.132	1190.861	886.834
254.205	15.100	1190.356	886.212
255.220	15.061	1189.826	885.530
256.234	15.146	1189.122	885.377
257.249	15.178	1188.386	884.920
258.263	15.237	1187.639	884.597
259.278	15.183	1187.295	883.977
260.293	15.145	1186.273	882.939
261.307	15.208	1186.081	883.052
262.322	15.258	1185.324	882.670
263.336	15.252	1184.213	881.737
264.351	15.367	1183.357	881.624
265.366	15.301	1183.180	881.067
266.380	15.291	1182.630	880.528
267.395	15.360	1181.243	879.776
268.409	15.239	1181.005	878.891
269.424	15.300	1180.182	878.519
270.439	15.303	1179.655	878.065
271.453	15.386	1179.088	877.997
272.468	15.268	1177.797	876.341
273.482	15.294	1177.365	876.079
274.497	15.484	1176.327	876.222
275.512	15.342	1175.902	875.087
276.526	15.416	1175.234	874.898
277.541	15.422	1174.322	874.173
278.555	15.422	1173.652	873.597
279.570	15.397	1172.809	872.760
280.585	15.516	1172.150	872.814
281.599	15.470	1171.355	871.905
282.614	15.516	1170.086	871.122
283.628	15.550	1168.932	870.360
284.643	15.498	1168.232	869.494
285.657	15.437	1167.278	868.391
286.672	15.430	1166.591	867.767
287.687	15.658	1165.094	867.756
288.701	15.514	1164.630	866.591
289.716	15.569	1163.479	865.938
290.730	15.528	1163.252	865.484
291.745	15.656	1162.559	865.551
292.760	15.717	1161.924	865.313
293.774	15.775	1160.558	864.516
294.789	15.753	1160.537	864.314
295.803	15.782	1159.711	863.769
296.818	15.763	1158.899	862.994
297.833	15.720	1158.122	862.117
298.847	15.840	1157.314	862.054
299.862	15.754	1156.440	860.886
300.876	15.814	1156.055	860.829
301.891	15.817	1155.188	860.126
302.906	15.792	1154.607	859.488
303.920	15.734	1154.043	858.697
304.935	15.872	1153.160	858.667
305.949	15.882	1152.745	858.330
306.964	16.060	1151.225	858.030
307.979	15.973	1150.542	857.005
308.993	15.963	1149.943	856.427
310.008	16.016	1149.146	856.028
311.022	16.012	1148.527	855.471
312.037	15.991	1147.689	854.667
313.052	15.914	1147.124	853.781
314.066	16.004	1145.688	853.088
315.081	15.958	1145.035	852.295
316.095	15.996	1144.436	851.966
317.110	15.886	1143.728	850.809
318.125	16.051	1142.281	850.491
319.139	15.961	1142.023	849.766
320.154	16.034	1141.251	849.486
321.168	15.984	1141.168	849.097
322.183	16.054	1139.796	848.353
323.197	16.093	1139.369	848.155
324.212	16.031	1139.127	847.592
325.227	16.053	1138.496	847.159
326.241	16.175	1137.416	846.890
327.256	16.118	1136.722	846.011
328.270	16.196	1135.722	845.586
329.285	15.998	1135.029	844.000
330.300	16.132	1134.144	843.939
331.314	16.105	1133.355	843.144
332.329	16.210	1131.513	842.220
333.343	16.286	1130.725	841.941
334.358	16.294	1130.088	841.433
335.373	16.255	1129.703	840.875
336.387	16.273	1128.899	840.293
337.402	16.181	1128.282	839.300
338.416	16.378	1127.357	839.520
339.431	16.352	1126.858	838.946
340.446	16.319	1125.983	838.055
341.460	16.352	1125.330	837.659
342.475	16.411	1124.321	837.123
343.489	16.529	1123.883	837.307
344.504	16.440	1122.324	835.634
345.519	16.539	1121.890	835.725
346.533	16.505	1121.168	834.947
347.548	16.608	1120.271	834.712
348.562	16.412	1119.445	833.058
349.577	16.517	1118.675	832.927
350.592	16.553	1117.628	832.248
351.606	16.442	1117.598	831.607
352.621	16.383	1116.945	830.757
353.635	16.424	1115.884	830.099
354.650	16.509	1115.165	829.904
355.665	16.605	1114.211	829.596
356.679	16.554	1113.945	829.070
357.694	16.579	1113.653	828.904
358.708	16.541	1112.772	827.989
359.723	16.570	1111.994	827.477
360.738	16.624	1111.353	827.194
361.752	16.567	1110.931	826.525
362.767	16.686	1110.466	826.691
363.781	16.614	1109.777	825.751
364.796	16.671	1108.649	825.115
365.810	16.659	1108.171	824.628
366.825	16.693	1107.494	824.219
367.840	16.835	1107.136	824.572
368.854	16.805	1106.448	823.838
369.869	16.919	1105.954	823.954
370.883	16.949	1104.741	823.119
371.898	16.801	1104.148	821.888
372.913	16.912	1103.280	821.709
373.927	16.970	1102.879	821.617
374.942	16.937	1102.354	820.993
375.956	16.966	1101.271	820.257
376.971	17.009	1101.164	820.309
377.986	16.938	1100.718	819.563
379.000	16.898	1100.227	818.933
380.015	17.015	1099.366	818.781
381.029	17.061	1098.727	818.455
382.044	17.149	1097.710	818.049
383.059	17.121	1097.245	817.494
384.073	17.130	1096.598	816.982
385.088	17.019	1095.465	815.537
386.102	17.033	1094.624	814.903
387.117	17.145	1093.634	814.633
388.132	17.145	1092.663	813.836
389.146	17.178	1091.952	813.391
390.161	17.182	1091.048	812.668
391.175	16.984	1090.880	811.520
392.190	17.157	1089.876	811.532
393.205	17.300	1088.807	811.346
394.219	17.304	1088.501	811.063
395.234	17.176	1087.536	809.666
396.248	17.193	1086.719	809.065
397.263	17.176	1085.863	808.277
398.278	17.152	1084.976	807.431
399.292	17.214	1084.096	806.998
400.307	17.208	1083.226	806.248
401.321	17.231	1083.104	806.198
402.336	17.294	1082.255	805.790
403.350	17.317	1081.142	805.001
404.365	17.253	1080.531	804.174
405.380	17.378	1079.564	803.973
406.394	17.353	1079.431	803.682
407.409	17.228	1078.764	802.525
408.423	17.479	1077.599	802.774
409.438	17.454	1077.062	802.182
410.453	17.454	1076.576	801.749
411.467	17.486	1075.462	801.000
412.482	17.560	1074.576	800.616
413.496	17.581	1073.866	800.116
414.511	17.519	1073.577	799.539
415.526	17.620	1073.205	799.665
416.540	17.671	1072.796	799.531
417.555	17.705	1071.632	798.752
418.569	17.636	1071.600	798.331
419.584	17.745	1070.902	798.252
420.599	17.628	1070.374	797.240
421.613	108.202	1331.808	1487.584
422.628	100.167	1369.844	1487.683
