DTS Sentinel unit serial number:	SN413079Multiplexer serial number:	ORYXHardware model number:	OX4-SRSoftware version number:	ORYX F/W v4.00 Oryx Data Collector v3.7.2.0data status	okinstallation	princeton_trtdifferential loss correction	single-endedforward channel	channel 2reverse channel	N/Adate	2019/09/12time	09:29:11forward acquisition time	60.00reverse acquisition time	0.00gamma	496.2192k internal	0.2315k external	0.2315temperature offset calibration	1.0060default loss term (dB/km)	0.3790temperature slope calibration	1.0000multiplexer offset coefficient	1.0000multiplexer slope coefficient	1.0000fibre end	0.00T internal ref (°C)	35.44T ext. ref 1 (°C)	1.81T ext. ref 2 (°C)	33.07length (m)	temperature (°C)	Stokes	anti-Stokes-747.200	-4.023	0.126	0.088
-746.185	203.512	0.272	0.426
-745.171	-200.000	0.043	0.276
-744.156	-50.856	-0.340	0.162
-743.142	37.121	0.337	0.302
-742.127	-200.000	0.025	0.222
-741.112	-32.001	0.212	0.120
-740.098	-184.046	-0.238	-0.004
-739.083	52.266	0.205	0.198
-738.069	-9.096	0.218	0.148
-737.054	129.287	-0.176	-0.227
-736.039	-97.269	-0.379	0.100
-735.025	-200.000	-0.033	0.278
-734.010	-98.189	0.051	0.013
-732.996	800.000	-0.019	-0.075
-731.981	116.283	-0.189	-0.234
-730.966	-95.468	-0.050	-0.014
-729.952	464.717	-0.146	0.331
-728.937	347.298	-0.101	-0.202
-727.923	159.615	-0.155	-0.219
-726.908	32.360	-0.206	0.180
-725.894	120.923	0.027	0.034
-724.879	800.000	0.059	-0.230
-723.864	-121.295	0.083	0.014
-722.850	-127.254	0.049	-0.007
-721.835	-200.000	-0.002	-0.083
-720.821	56.654	0.042	-0.041
-719.806	-200.000	-0.021	0.230
-718.791	154.254	-0.062	0.086
-717.777	-200.000	0.038	0.319
-716.762	-163.115	0.258	0.013
-715.748	-55.524	-0.380	-0.172
-714.733	-17.482	0.141	-0.090
-713.718	-200.000	0.006	-0.339
-712.704	30.772	0.174	0.151
-711.689	50.586	-0.140	0.134
-710.675	194.843	-0.194	-0.299
-709.660	147.859	0.059	0.081
-708.645	9.812	-0.133	-0.102
-707.631	-27.224	-0.155	-0.092
-706.616	-200.000	-0.011	-0.172
-705.602	-14.955	-0.247	0.160
-704.587	-154.651	-0.180	0.012
-703.572	-51.400	0.247	-0.117
-702.558	-200.000	-0.038	-0.405
-701.543	165.697	-0.252	-0.360
-700.529	30.374	-0.356	-0.307
-699.514	-101.367	-0.137	-0.034
-698.499	800.000	-0.082	-0.238
-697.485	-19.410	-0.134	0.084
-696.470	-119.270	0.236	-0.042
-695.456	242.883	0.096	0.162
-694.441	260.316	-0.139	-0.243
-693.426	183.418	0.062	0.093
-692.412	164.136	0.067	0.095
-691.397	698.125	0.060	0.159
-690.383	-200.000	0.014	-0.260
-689.368	355.955	-0.144	0.289
-688.354	63.599	-0.119	0.121
-687.339	71.239	-0.195	-0.205
-686.324	-161.796	0.119	-0.006
-685.310	-200.000	0.238	-0.001
-684.295	158.295	-0.103	-0.144
-683.281	-200.000	0.007	0.154
-682.266	122.078	0.234	-0.295
-681.251	-49.163	-0.072	0.035
-680.237	-122.956	0.253	0.041
-679.222	132.663	-0.169	0.220
-678.208	440.935	-0.116	-0.257
-677.193	516.446	-0.100	-0.237
-676.178	484.606	0.052	-0.119
-675.164	197.832	-0.198	-0.306
-674.149	-32.775	0.144	-0.081
-673.135	422.095	0.040	-0.086
-672.120	-132.844	0.077	0.010
-671.105	-200.000	-0.397	0.001
-670.091	-200.000	-0.055	-0.353
-669.076	81.384	0.071	-0.078
-668.062	-96.799	-0.315	-0.084
-667.047	311.351	-0.058	-0.111
-666.032	-92.130	-0.180	-0.051
-665.018	800.000	0.054	0.212
-664.003	332.724	-0.154	0.301
-662.989	-47.645	0.141	-0.069
-661.974	-72.282	-0.174	0.065
-660.959	-166.076	-0.260	-0.011
-659.945	92.752	-0.112	0.128
-658.930	-138.445	-0.076	0.008
-657.916	-18.970	-0.462	-0.290
-656.901	-200.000	-0.007	-0.287
-655.886	93.583	-0.132	-0.151
-654.872	62.491	0.148	0.149
-653.857	-200.000	0.020	0.143
-652.843	364.531	0.205	-0.417
-651.828	16.119	0.345	-0.275
-650.814	-58.567	0.183	0.080
-649.799	-200.000	-0.003	0.187
-648.784	14.754	0.373	-0.295
-647.770	-200.000	-0.030	-0.141
-646.755	800.000	0.017	0.061
-645.741	-147.041	0.197	0.017
-644.726	-200.000	0.051	-0.245
-643.711	-108.386	-0.188	-0.041
-642.697	200.484	0.019	-0.030
-641.682	-105.080	-0.195	-0.045
-640.668	122.023	-0.064	-0.081
-639.653	13.053	0.142	-0.111
-638.638	141.227	-0.179	-0.240
-637.624	160.555	0.105	0.148
-636.609	-161.702	-0.135	0.007
-635.595	-27.881	-0.086	0.050
-634.580	244.945	-0.110	0.187
-633.565	-77.384	0.085	0.030
-632.551	181.100	-0.089	-0.131
-631.536	183.460	-0.152	-0.227
-630.522	-7.014	0.141	0.097
-629.507	-163.207	-0.119	0.006
-628.492	-91.325	-0.325	-0.094
-627.478	-200.000	-0.032	0.179
-626.463	4.988	0.118	-0.088
-625.449	-103.323	-0.093	-0.022
-624.434	-75.116	0.153	-0.055
-623.419	456.764	-0.064	0.142
-622.405	117.449	-0.022	0.027
-621.390	-200.000	-0.015	0.207
-620.376	-104.802	0.205	-0.048
-619.361	314.733	-0.070	0.134
-618.346	198.571	0.082	0.126
-617.332	800.000	0.068	-0.271
-616.317	573.962	-0.059	0.145
-615.303	67.759	-0.217	-0.224
-614.288	-92.413	-0.408	0.116
-613.273	-140.539	-0.419	-0.044
-612.259	800.000	-0.110	0.351
-611.244	800.000	-0.091	-0.256
-610.230	180.959	-0.065	-0.096
-609.215	94.834	-0.148	0.169
-608.201	-47.165	-0.378	-0.186
-607.186	176.281	0.204	0.299
-606.171	-22.928	-0.190	0.115
-605.157	-200.000	0.011	0.200
-604.142	-66.847	0.379	-0.151
-603.128	660.830	0.092	-0.238
-602.113	95.283	-0.047	0.054
-601.098	-200.000	-0.006	0.129
-600.084	-91.952	0.086	-0.025
-599.069	-120.096	-0.355	-0.061
-598.055	-200.000	0.004	-0.074
-597.040	-48.560	-0.136	0.066
-596.025	193.626	-0.061	-0.094
-595.011	-200.000	0.064	-0.376
-593.996	800.000	-0.100	0.293
-592.982	28.757	0.067	0.058
-591.967	336.867	-0.148	0.290
-590.952	162.039	-0.210	-0.296
-589.938	86.682	-0.215	-0.239
-588.923	-122.690	0.141	0.023
-587.909	226.838	-0.029	-0.048
-586.894	-142.051	0.119	-0.012
-585.879	-138.090	0.277	0.031
-584.865	-200.000	-0.007	-0.045
-583.850	-200.000	-0.026	0.151
-582.836	-83.772	0.253	0.081
-581.821	119.521	0.161	-0.201
-580.806	182.736	0.179	-0.266
-579.792	-47.944	-0.160	-0.078
-578.777	-200.000	0.005	-0.106
-577.763	800.000	0.023	0.068
-576.748	800.000	-0.088	0.333
-575.733	350.191	-0.045	0.090
-574.719	-3.655	0.120	0.084
-573.704	21.212	0.435	0.355
-572.690	-200.000	-0.029	0.135
-571.675	56.756	-0.095	-0.093
-570.661	800.000	0.046	-0.130
-569.646	-81.326	0.088	0.029
-568.631	-43.610	0.167	-0.085
-567.617	-42.771	0.068	0.035
-566.602	800.000	0.034	0.145
-565.588	-24.282	-0.311	-0.187
-564.573	800.000	0.070	-0.198
-563.558	399.126	0.126	-0.265
-562.544	-76.435	-0.361	-0.128
-561.529	-104.784	-0.597	0.138
-560.515	312.378	-0.071	0.135
-559.500	-200.000	-0.016	0.274
-558.485	-200.000	0.018	-0.441
-557.471	-200.000	0.042	-0.344
-556.456	-3.494	-0.257	-0.180
-555.442	-41.901	-0.073	-0.038
-554.427	800.000	-0.084	0.325
-553.412	83.103	-0.076	-0.083
-552.398	-132.205	0.184	-0.024
-551.383	-200.000	-0.015	-0.294
-550.369	21.620	-0.140	-0.115
-549.354	-97.583	0.104	-0.027
-548.339	-200.000	0.031	-0.177
-547.325	-77.000	0.252	0.089
-546.310	-176.469	-0.110	-0.003
-545.296	-200.000	0.040	-0.251
-544.281	800.000	0.075	0.259
-543.266	113.834	0.150	0.184
-542.252	38.417	-0.104	0.093
-541.237	-45.303	-0.100	0.050
-540.223	800.000	0.107	0.348
-539.208	126.664	0.089	-0.113
-538.193	44.629	0.094	-0.087
-537.179	-19.349	0.254	0.158
-536.164	-66.233	-0.244	0.098
-535.150	158.878	0.130	-0.181
-534.135	29.711	-0.118	0.101
-533.121	-200.000	-0.008	-0.151
-532.106	-62.131	-0.107	-0.045
-531.091	239.788	-0.099	-0.165
-530.077	22.839	-0.293	-0.241
-529.062	-29.024	0.309	0.178
-528.048	800.000	-0.055	0.241
-527.033	-200.000	-0.028	-0.184
-526.018	-157.989	0.122	0.007
-525.004	68.841	0.172	0.178
-523.989	150.392	0.116	-0.158
-522.975	215.586	-0.175	-0.279
-521.960	-17.155	0.211	-0.133
-520.945	238.747	0.088	0.146
-519.931	-134.098	-0.248	0.031
-518.916	25.096	-0.152	0.127
-517.902	-200.000	0.015	-0.073
-516.887	800.000	-0.024	-0.107
-515.872	318.463	-0.101	0.192
-514.858	-166.022	-0.170	-0.007
-513.843	-42.576	0.071	0.036
-512.829	-87.033	0.183	-0.056
-511.814	-73.879	-0.111	-0.040
-510.799	-70.912	-0.212	0.080
-509.785	-200.000	-0.042	0.201
-508.770	231.340	0.069	0.113
-507.756	223.418	0.041	0.066
-506.741	-132.066	0.387	0.051
-505.726	-200.000	-0.024	0.248
-504.712	29.730	0.170	0.145
-503.697	142.964	-0.194	0.259
-502.683	-200.000	-0.011	0.205
-501.668	176.211	-0.113	0.165
-500.653	46.141	0.118	-0.110
-499.639	124.864	0.139	-0.176
-498.624	800.000	-0.060	0.203
-497.610	-9.872	-0.161	-0.107
-496.595	-82.680	0.274	0.089
-495.581	-72.676	0.352	0.130
-494.566	-19.008	0.162	0.101
-493.551	44.458	-0.364	0.336
-492.537	-59.404	0.124	0.053
-491.522	33.876	-0.040	0.035
-490.508	-74.134	-0.222	-0.081
-489.493	-74.831	0.055	-0.020
-488.478	84.673	0.261	-0.287
-487.464	-200.000	0.001	0.008
-486.449	800.000	0.090	0.334
-485.435	-32.497	-0.083	-0.046
-484.420	261.911	0.143	-0.249
-483.405	-145.785	0.432	0.039
-482.391	-92.275	0.503	-0.142
-481.376	-165.967	0.082	0.004
-480.362	514.204	0.046	0.107
-479.347	669.070	0.045	0.116
-478.332	-137.701	0.417	-0.047
-477.318	765.332	-0.106	0.288
-476.303	-200.000	-0.007	0.053
-475.289	3.172	-0.103	-0.075
-474.274	185.753	0.086	0.128
-473.259	-56.791	0.309	0.137
-472.245	-31.587	-0.192	-0.108
-471.230	-200.000	-0.045	-0.258
-470.216	-6.874	-0.264	-0.180
-469.201	-200.000	0.010	0.050
-468.186	-104.955	0.096	-0.022
-467.172	-28.618	0.311	0.180
-466.157	-21.131	0.070	0.043
-465.143	-200.000	-0.028	0.130
-464.128	35.271	-0.395	-0.348
-463.113	-139.025	0.229	-0.025
-462.099	-125.720	0.244	-0.037
-461.084	159.063	0.105	-0.147
-460.070	800.000	-0.142	-0.431
-459.055	90.166	0.030	0.034
-458.040	239.157	0.109	-0.182
-457.026	-86.165	0.182	-0.056
-456.011	-200.000	-0.069	-0.378
-454.997	800.000	-0.122	-0.472
-453.982	247.538	-0.062	-0.105
-452.968	-53.897	0.256	-0.117
-451.953	-136.386	-0.390	-0.045
-450.938	-78.053	0.142	-0.049
-449.924	-200.000	0.017	0.384
-448.909	-55.364	-0.141	-0.064
-447.895	76.270	0.158	0.168
-446.880	264.635	0.099	0.173
-445.865	-9.152	-0.161	0.108
-444.851	51.718	-0.113	0.107
-443.836	175.544	0.133	0.193
-442.822	-18.843	0.301	-0.187
-441.807	-200.000	0.021	-0.091
-440.792	-21.227	0.254	-0.155
-439.778	209.096	-0.104	0.164
-438.763	-100.085	-0.293	-0.073
-437.749	-39.390	-0.114	0.060
-436.734	4.345	0.215	-0.158
-435.719	-200.000	-0.000	-0.136
-434.705	-200.000	0.071	-0.332
-433.690	-200.000	-0.026	-0.144
-432.676	-7.353	-0.176	-0.119
-431.661	-46.832	-0.088	0.043
-430.646	-200.000	0.010	-0.091
-429.632	-185.484	0.186	-0.003
-428.617	-99.239	-0.262	0.066
-427.603	215.713	0.211	-0.336
-426.588	-105.919	-0.218	-0.049
-425.573	11.275	-0.218	-0.167
-424.559	-68.566	0.003	-0.001
-423.544	67.678	0.113	-0.116
-422.530	-148.021	0.176	0.015
-421.515	197.686	0.161	0.246
-420.500	-117.045	0.197	0.036
-419.486	175.373	-0.102	-0.148
-418.471	3.473	-0.224	0.163
-417.457	204.134	-0.104	0.161
-416.442	800.000	0.146	-0.436
-415.428	-200.000	0.015	0.237
-414.413	433.368	0.048	0.105
-413.398	-128.954	-0.482	-0.068
-412.384	73.269	0.137	-0.144
-411.369	-99.817	0.086	-0.021
-410.355	389.752	0.096	-0.200
-409.340	75.015	-0.212	0.224
-408.325	-31.048	-0.214	0.121
-407.311	66.483	0.069	0.071
-406.296	15.028	-0.190	-0.149
-405.282	-200.000	0.023	-0.198
-404.267	-200.000	-0.015	-0.185
-403.252	20.318	0.180	0.145
-402.238	225.931	0.196	-0.318
-401.223	281.539	-0.197	-0.353
-400.209	345.661	-0.121	-0.238
-399.194	-29.466	-0.294	0.168
-398.179	-200.000	-0.026	0.361
-397.165	-59.767	-0.121	-0.052
-396.150	187.464	-0.090	0.135
-395.136	-8.734	0.144	0.096
-394.121	-34.657	0.158	0.087
-393.106	-142.483	-0.475	-0.047
-392.092	63.725	0.086	0.086
-391.077	-114.973	0.222	0.042
-390.063	-157.926	0.204	-0.012
-389.048	-21.123	0.099	-0.060
-388.033	-186.669	-0.144	0.002
-387.019	31.447	0.062	0.053
-386.004	193.132	-0.054	0.081
-384.990	46.191	-0.237	-0.220
-383.975	-193.064	-0.178	0.002
-382.960	-60.878	0.200	0.085
-381.946	-39.073	0.326	0.171
-380.931	125.907	-0.108	-0.136
-379.917	52.219	0.100	-0.096
-378.902	-129.848	-0.139	0.019
-377.888	-200.000	-0.050	-0.223
-376.873	-200.000	0.003	-0.019
-375.858	62.360	-0.158	0.158
-374.844	-55.448	0.270	0.121
-373.829	-145.907	0.286	0.025
-372.815	135.011	0.174	0.225
-371.800	97.622	-0.136	0.156
-370.785	158.792	0.131	-0.181
-369.771	-23.102	0.252	0.152
-368.756	181.990	-0.199	-0.293
-367.742	-200.000	0.018	0.297
-366.727	-55.987	-0.291	0.129
-365.712	-45.680	0.082	-0.040
-364.698	-10.148	0.214	0.142
-363.683	-144.034	-0.297	0.028
-362.669	72.265	0.116	-0.120
-361.654	282.464	0.094	-0.168
-360.639	-24.900	-0.314	-0.186
-359.625	757.527	-0.061	-0.165
-358.610	-155.994	0.222	0.014
-357.596	-7.312	0.262	0.177
-356.581	-200.000	-0.068	0.340
-355.566	54.303	0.076	-0.073
-354.552	-85.056	0.186	0.058
-353.537	800.000	0.070	0.277
-352.523	-66.498	-0.304	-0.121
-351.508	-81.428	-0.393	0.129
-350.493	620.470	0.033	-0.083
-349.479	-36.301	0.133	-0.072
-348.464	-160.952	0.179	-0.009
-347.450	-17.349	-0.187	0.118
-346.435	-47.917	-0.322	0.156
-345.420	-93.106	-0.131	-0.036
-344.406	367.266	-0.104	0.209
-343.391	374.323	-0.129	-0.262
-342.377	800.000	-0.103	-0.335
-341.362	557.495	0.115	-0.277
-340.348	800.000	0.022	-0.066
-339.333	-187.134	0.040	0.001
-338.318	-200.000	0.028	0.276
-337.304	300.523	0.171	0.315
-336.289	-49.763	0.162	-0.077
-335.275	427.139	0.106	-0.229
-334.260	39.575	0.062	0.055
-333.245	122.434	0.050	-0.062
-332.231	800.000	0.038	0.156
-331.216	-58.977	-0.121	0.052
-330.202	800.000	0.087	0.261
-329.187	-136.968	0.072	0.008
-328.172	44.442	-0.076	0.070
-327.158	37.021	-0.265	-0.234
-326.143	62.351	0.154	-0.154
-325.129	85.042	0.052	-0.057
-324.114	75.859	-0.129	0.136
-323.099	123.559	0.199	0.249
-322.085	100.061	-0.307	0.355
-321.070	369.923	-0.138	0.279
-320.056	-200.000	-0.003	0.164
-319.041	123.402	-0.046	-0.057
-318.026	-87.618	0.255	-0.077
-317.012	324.871	0.043	-0.082
-315.997	234.310	0.087	-0.142
-314.983	-200.000	0.010	-0.093
-313.968	-200.000	-0.033	-0.233
-312.953	158.587	0.075	-0.104
-311.939	-200.000	-0.010	0.330
-310.924	48.828	-0.016	0.015
-309.910	-200.000	0.003	-0.263
-308.895	323.632	-0.025	0.047
-307.880	55.105	-0.156	0.150
-306.866	11.899	-0.317	-0.243
-305.851	-196.022	0.293	0.002
-304.837	44.364	0.111	-0.102
-303.822	89.257	0.054	0.060
-302.807	-66.926	0.292	-0.115
-301.793	31.738	0.140	-0.120
-300.778	56.223	0.146	-0.141
-299.764	189.583	0.049	0.074
-298.749	152.300	-0.133	-0.181
-297.735	7.416	0.211	0.157
-296.720	800.000	0.095	0.381
-295.705	-200.000	0.134	0.001
-294.691	-145.802	0.140	0.012
-293.676	-50.348	-0.262	0.123
-292.662	177.874	-0.103	-0.150
-291.647	-151.521	-0.274	-0.020
-290.632	-200.000	0.038	-0.201
-289.618	-156.546	0.132	0.008
-288.603	107.388	-0.068	-0.081
-287.589	-200.000	-0.023	-0.187
-286.574	27.494	-0.135	-0.113
-285.559	579.092	0.121	-0.295
-284.545	-1.372	-0.106	0.075
-283.530	-200.000	-0.031	-0.204
-282.516	335.431	0.013	0.025
-281.501	-200.000	-0.048	-0.302
-280.486	-200.000	0.002	0.127
-279.472	-200.000	-0.037	-0.343
-278.457	229.545	-0.072	0.117
-277.443	-195.993	0.271	0.002
-276.428	124.009	0.066	0.082
-275.413	-111.303	0.252	0.051
-274.399	558.344	0.073	-0.176
-273.384	800.000	-0.068	0.211
-272.370	-195.416	-0.155	0.001
-271.355	-10.415	0.106	0.070
-270.340	-53.333	0.216	-0.098
-269.326	-200.000	-0.102	0.518
-268.311	3.237	0.108	-0.078
-267.297	-200.000	-0.007	0.144
-266.282	-200.000	-0.041	0.277
-265.267	-141.057	-0.232	0.024
-264.253	160.438	0.122	-0.169
-263.238	-15.394	-0.210	-0.134
-262.224	800.000	-0.110	-0.371
-261.209	258.039	-0.189	0.323
-260.195	124.792	0.038	-0.047
-259.180	137.960	0.081	0.106
-258.165	-172.980	0.151	-0.005
-257.151	311.096	0.065	-0.121
-256.136	-200.000	-0.069	0.343
-255.122	240.143	-0.175	-0.290
-254.107	-40.604	0.243	-0.125
-253.092	206.119	-0.128	0.199
-252.078	-139.691	-0.205	-0.022
-251.063	5.086	0.166	0.122
-250.049	-137.332	-0.134	0.015
-249.034	-33.460	0.324	0.178
-248.019	-200.000	-0.004	0.067
-247.005	-109.619	-0.135	0.028
-245.990	180.670	0.188	0.275
-244.976	-200.000	0.177	0.000
-243.961	180.468	0.189	-0.276
-242.946	207.183	0.140	0.217
-241.932	-130.149	-0.080	0.011
-240.917	800.000	-0.053	0.197
-239.903	249.219	-0.142	0.240
-238.888	113.346	-0.064	-0.077
-237.873	408.659	-0.085	0.178
-236.859	201.898	0.069	-0.105
-235.844	-200.000	-0.039	-0.216
-234.830	329.894	0.121	0.232
-233.815	66.959	-0.185	-0.188
-232.800	-200.000	-0.045	-0.221
-231.786	68.560	-0.197	-0.200
-230.771	-153.005	0.238	-0.017
-229.757	-200.000	0.006	0.246
-228.742	287.408	-0.137	0.245
-227.727	-121.863	-0.260	-0.043
-226.713	800.000	0.015	0.059
-225.698	275.705	-0.135	0.238
-224.684	-84.324	0.105	0.033
-223.669	-0.350	-0.113	0.080
-222.655	-200.000	0.107	-0.510
-221.640	28.024	0.197	0.165
-220.625	245.051	0.054	-0.091
-219.611	90.025	-0.253	-0.281
-218.596	2.753	-0.020	-0.014
-217.582	686.510	-0.092	0.238
-216.567	-54.205	0.344	0.155
-215.552	13.543	-0.224	0.172
-214.538	425.239	-0.109	0.233
-213.523	292.938	-0.128	0.231
-212.509	140.454	0.138	0.181
-211.494	-200.000	0.012	0.238
-210.479	-3.140	-0.133	0.092
-209.465	420.802	-0.081	0.173
-208.450	-200.000	-0.044	-0.193
-207.436	-112.209	0.180	0.036
-206.421	105.199	-0.103	-0.121
-205.406	-61.096	-0.064	-0.027
-204.392	-82.503	0.242	0.078
-203.377	706.409	-0.139	0.364
-202.363	163.568	-0.144	-0.201
-201.348	-200.000	-0.033	0.171
-200.333	36.903	0.095	0.083
-199.319	-19.803	0.234	0.144
-198.304	-66.864	-0.150	0.059
-197.290	60.622	0.092	0.091
-196.275	-51.860	-0.237	-0.109
-195.260	114.054	0.124	0.149
-194.246	-200.000	-0.035	-0.245
-193.231	-129.211	0.290	-0.040
-192.217	-6.449	-0.177	-0.120
-191.202	-22.263	0.226	-0.136
-190.187	-80.879	0.041	0.013
-189.173	800.000	0.064	-0.193
-188.158	-112.617	-0.166	-0.033
-187.144	-150.171	-0.334	0.026
-186.129	-150.676	-0.081	-0.006
-185.114	27.452	0.076	0.063
-184.100	800.000	-0.049	-0.191
-183.085	148.463	0.119	-0.159
-182.071	-91.563	0.155	0.044
-181.056	-184.386	0.281	0.005
-180.042	-51.308	0.204	0.095
-179.027	217.855	-0.101	-0.159
-178.012	-53.921	-0.119	0.054
-176.998	-113.265	0.328	0.064
-175.983	132.579	-0.108	-0.138
-174.969	-149.340	-0.141	0.011
-173.954	395.106	-0.103	0.212
-172.939	-200.000	0.009	-0.387
-171.925	-200.000	-0.016	0.121
-170.910	405.367	-0.057	-0.118
-169.896	91.433	-0.132	-0.146
-168.881	58.493	0.264	-0.256
-167.866	6.404	0.078	0.057
-166.852	340.161	-0.117	-0.226
-165.837	88.043	0.154	0.170
-164.823	-200.000	-0.022	0.195
-163.808	-94.442	-0.163	0.044
-162.793	155.377	0.176	-0.241
-161.779	-166.456	-0.282	0.012
-160.764	160.416	0.139	0.192
-159.750	405.446	0.045	0.093
-158.735	-200.000	0.043	0.399
-157.720	-93.171	-0.184	0.051
-156.706	-146.187	0.142	-0.012
-155.691	403.808	0.084	0.174
-154.677	800.000	-0.094	0.325
-153.662	-183.926	0.079	0.001
-152.647	-30.246	-0.243	-0.137
-151.633	-178.698	-0.287	0.007
-150.618	284.924	0.177	0.316
-149.604	-1.973	0.222	0.154
-148.589	-77.577	-0.369	0.127
-147.574	-91.505	-0.161	0.045
-146.560	423.680	-0.114	0.243
-145.545	248.734	-0.125	-0.209
-144.531	-97.725	0.043	0.011
-143.516	-61.959	0.259	0.107
-142.502	89.782	0.033	0.036
-141.487	-51.232	0.229	0.106
-140.472	-89.826	-0.043	0.013
-139.458	-125.981	0.161	0.024
-138.443	-200.000	0.045	-0.233
-137.429	-59.160	0.047	0.020
-136.414	-87.808	-0.084	0.025
-135.399	-200.000	0.055	0.288
-134.385	-22.075	-0.143	0.086
-133.370	-58.653	-0.317	-0.136
-132.356	118.819	-0.100	0.122
-131.341	181.700	0.140	-0.204
-130.326	-107.629	0.248	0.054
-129.312	-200.000	0.022	0.179
-128.297	15.590	0.156	0.121
-127.283	4.797	-0.175	-0.127
-126.268	-80.111	-0.100	-0.033
-125.253	13.009	0.092	-0.070
-124.239	82.391	0.146	0.157
-123.224	-9.029	-0.167	0.111
-122.210	-25.082	0.294	-0.172
-121.195	-200.000	-0.004	-0.050
-120.180	99.947	0.167	-0.191
-119.166	-91.157	-0.203	-0.058
-118.151	17.585	0.205	0.161
-117.137	-200.000	-0.018	0.266
-116.122	800.000	-0.048	-0.195
-115.107	-115.289	0.237	0.044
-114.093	-200.000	0.004	0.016
-113.078	-24.545	-0.227	-0.133
-112.064	800.000	0.128	-0.399
-111.049	384.294	-0.156	-0.318
-110.034	-164.698	-0.262	0.012
-109.020	337.559	0.076	-0.146
-108.005	55.822	0.097	-0.093
-106.991	-200.000	-0.018	0.130
-105.976	-200.000	-0.011	-0.110
-104.962	-52.289	0.431	0.197
-103.947	-66.614	0.077	-0.030
-102.932	794.489	-0.095	-0.260
-101.918	-97.629	0.188	-0.048
-100.903	285.396	-0.133	0.237
-99.889	-18.554	-0.023	0.014
-98.874	37.773	0.247	0.216
-97.859	153.639	-0.246	-0.333
-96.845	-200.000	0.022	0.446
-95.830	-70.029	0.547	0.206
-94.816	20.375	0.233	-0.186
-93.801	-138.601	-0.181	-0.020
-92.786	800.000	-0.066	-0.229
-91.772	58.243	0.141	-0.137
-90.757	-200.000	-0.026	0.413
-89.743	800.000	-0.118	0.437
-88.728	-200.000	0.002	-0.149
-87.713	-131.400	0.385	0.050
-86.699	29.603	0.131	0.110
-85.684	518.860	-0.041	-0.095
-84.670	-200.000	0.002	0.169
-83.655	-34.770	-0.392	0.212
-82.640	179.246	-0.153	0.222
-81.626	-31.689	0.135	-0.075
-80.611	-87.181	-0.160	0.048
-79.597	133.156	-0.059	-0.075
-78.582	-90.991	0.087	-0.025
-77.567	-52.405	-0.033	0.015
-76.553	19.264	-0.149	-0.118
-75.538	-51.292	0.080	-0.037
-74.524	-105.028	0.210	-0.047
-73.509	256.898	-0.014	-0.023
-72.494	-3.282	-0.236	-0.162
-71.480	800.000	-0.108	-0.356
-70.465	410.268	-0.040	0.084
-69.451	-128.899	0.079	0.011
-68.436	-160.614	0.130	-0.007
-67.422	373.355	0.185	0.372
-66.407	185.548	-0.107	0.156
-65.392	-172.173	0.446	-0.014
-64.378	193.524	0.175	0.261
-63.363	-18.794	0.076	-0.047
-62.349	106.788	-0.096	-0.113
-61.334	40.234	-0.860	-0.763
-60.319	-109.463	0.844	0.176
-59.305	-200.000	0.039	-0.637
-58.290	159.512	0.570	0.782
-57.276	204.781	0.997	1.527
-56.261	-200.000	91.189	536.486
-55.246	512.363	1383.759	3179.843
-54.232	150.180	2603.722	3484.983
-53.217	107.255	2320.258	2720.707
-52.203	44.878	1930.229	1752.359
-51.188	38.666	1715.518	1509.700
-50.173	35.914	1670.186	1449.072
-49.159	51.825	1716.594	1611.070
-48.144	55.209	1734.437	1653.572
-47.130	38.396	1692.212	1486.905
-46.115	35.520	1677.131	1451.888
-45.100	35.370	1672.233	1446.461
-44.086	35.326	1669.567	1443.766
-43.071	35.153	1667.851	1440.926
-42.057	35.260	1664.522	1438.790
-41.042	35.371	1662.191	1437.549
-40.027	35.264	1661.384	1435.997
-39.013	35.330	1658.765	1434.165
-37.998	35.229	1657.606	1432.352
-36.984	35.157	1656.915	1431.161
-35.969	35.386	1655.364	1431.474
-34.954	35.580	1652.804	1430.650
-33.940	35.505	1651.007	1428.480
-32.925	35.406	1649.798	1426.638
-31.911	35.445	1647.737	1425.091
-30.896	35.349	1645.893	1422.731
-29.881	35.349	1644.150	1421.161
-28.867	35.466	1642.639	1420.668
-27.852	35.409	1641.357	1419.080
-26.838	35.421	1640.057	1417.987
-25.823	35.515	1638.134	1416.962
-24.809	35.565	1636.689	1416.029
-23.794	35.489	1635.903	1414.734
-22.779	35.498	1634.155	1413.233
-21.765	35.471	1632.773	1411.778
-20.750	35.408	1630.856	1409.601
-19.736	35.499	1629.613	1409.140
-18.721	35.491	1627.517	1407.217
-17.706	35.447	1626.236	1405.727
-16.692	35.460	1624.609	1404.362
-15.677	35.414	1622.939	1402.529
-14.663	35.418	1621.985	1401.677
-13.648	35.519	1620.467	1401.043
-12.633	35.400	1619.247	1399.064
-11.619	35.495	1617.154	1397.894
-10.604	35.440	1615.928	1396.376
-9.590	35.552	1614.359	1395.784
-8.575	35.547	1613.215	1394.699
-7.560	35.504	1612.135	1393.402
-6.546	35.524	1610.977	1392.488
-5.531	35.434	1609.884	1390.835
-4.517	35.447	1608.559	1389.730
-3.502	35.504	1607.292	1388.991
-2.487	35.622	1606.128	1388.789
-1.473	35.529	1594.881	1378.335
-0.458	33.349	1576.505	1346.912
0.556	29.961	1576.900	1317.142
1.571	27.562	1602.286	1320.864
2.586	27.052	1616.325	1328.589
3.600	23.568	1560.253	1257.740
4.615	12.652	1443.702	1091.674
5.629	3.492	1374.461	981.165
6.644	1.992	1365.910	965.486
7.659	1.815	1364.526	963.306
8.673	1.722	1363.777	962.104
9.688	1.712	1361.480	960.337
10.702	1.334	1358.569	955.822
11.717	5.063	1365.845	984.417
12.731	15.794	1386.611	1067.736
13.746	24.328	1401.072	1133.254
14.761	26.232	1403.075	1146.874
15.775	26.455	1403.095	1148.204
16.790	26.511	1403.016	1148.392
17.804	26.585	1402.214	1148.106
18.819	26.866	1401.765	1149.417
19.834	26.874	1401.208	1148.907
20.848	27.005	1400.094	1148.720
21.863	26.893	1399.702	1147.593
22.877	27.060	1398.361	1147.448
23.892	26.934	1398.062	1146.305
24.907	26.898	1397.235	1145.296
25.921	26.958	1395.959	1144.526
26.936	27.112	1394.425	1144.136
27.950	26.921	1393.753	1142.280
28.965	26.998	1392.931	1141.991
29.980	27.051	1390.735	1140.427
30.994	26.923	1390.247	1139.119
32.009	26.935	1389.480	1138.466
33.023	26.968	1388.033	1137.388
34.038	26.908	1387.183	1136.216
35.053	26.908	1386.027	1135.164
36.067	26.943	1385.318	1134.701
37.082	26.966	1384.028	1133.691
38.096	26.912	1383.062	1132.462
39.111	26.934	1382.365	1131.925
40.126	26.922	1381.566	1131.097
41.140	26.959	1380.840	1130.632
42.155	26.918	1380.820	1130.265
43.169	26.905	1380.836	1130.094
44.184	26.986	1380.767	1130.443
45.199	26.934	1379.970	1129.368
46.213	26.897	1379.926	1129.002
47.228	26.966	1378.630	1128.270
48.242	27.001	1377.094	1127.127
49.257	27.026	1375.715	1126.056
50.271	27.014	1373.883	1124.384
51.286	26.855	1373.469	1122.961
52.301	26.858	1372.341	1121.958
53.315	26.872	1371.509	1121.263
54.330	26.802	1370.469	1119.886
55.344	26.969	1368.944	1119.569
56.359	26.969	1368.278	1118.922
57.374	26.936	1367.447	1117.945
58.388	26.970	1366.854	1117.570
59.403	26.976	1366.085	1116.876
60.417	26.816	1366.327	1115.988
61.432	26.896	1364.981	1115.286
62.447	26.925	1364.481	1114.959
63.461	26.913	1363.401	1113.900
64.476	26.990	1362.136	1113.244
65.490	26.919	1361.081	1111.848
66.505	27.032	1359.021	1110.755
67.520	26.939	1358.159	1109.383
68.534	26.915	1357.389	1108.510
69.549	26.974	1356.255	1107.845
70.563	26.986	1355.433	1107.153
71.578	26.967	1354.122	1105.865
72.593	27.006	1353.447	1105.456
73.607	26.901	1353.084	1104.423
74.622	26.891	1352.203	1103.542
75.636	26.919	1351.714	1103.215
76.651	26.938	1350.882	1102.557
77.666	26.871	1350.458	1101.704
78.680	26.877	1349.697	1101.020
79.695	26.890	1349.049	1100.473
80.709	26.848	1348.422	1099.615
81.724	26.950	1347.083	1099.038
82.739	26.957	1346.109	1098.192
83.753	26.969	1344.967	1097.233
84.768	26.898	1344.434	1096.275
85.782	26.938	1343.370	1095.549
86.797	26.971	1342.221	1094.717
87.812	27.025	1340.822	1093.802
88.826	26.902	1339.908	1092.221
89.841	27.002	1338.849	1091.862
90.855	27.134	1337.473	1091.437
91.870	27.045	1336.966	1090.394
92.884	27.045	1335.972	1089.487
93.899	26.969	1335.420	1088.481
94.914	26.998	1334.565	1087.864
95.928	27.042	1333.566	1087.215
96.943	27.047	1333.064	1086.741
97.957	27.043	1332.356	1086.044
98.972	27.068	1331.251	1085.193
99.987	26.969	1331.043	1084.336
101.001	26.996	1329.784	1083.375
102.016	26.941	1328.899	1082.234
103.030	26.950	1328.213	1081.634
104.045	26.977	1327.293	1080.946
105.060	27.021	1326.537	1080.499
106.074	27.044	1325.181	1079.434
107.089	27.046	1324.274	1078.611
108.103	26.999	1323.129	1077.307
109.118	27.031	1322.332	1076.752
110.133	27.121	1321.047	1076.142
111.147	27.065	1320.162	1074.998
112.162	27.104	1318.809	1074.029
113.176	27.104	1317.759	1073.080
114.191	27.119	1317.363	1072.748
115.206	27.030	1316.228	1071.207
116.220	27.007	1314.816	1069.824
117.235	27.120	1313.860	1069.618
118.249	27.011	1313.653	1068.716
119.264	27.136	1312.113	1068.100
120.279	27.169	1311.673	1067.844
121.293	27.023	1311.175	1066.488
122.308	27.239	1309.669	1066.431
123.322	27.102	1309.260	1065.200
124.337	27.109	1308.259	1064.332
125.352	27.169	1307.618	1064.069
126.366	27.069	1306.838	1062.754
127.381	27.144	1305.478	1061.996
128.395	27.065	1304.949	1061.007
129.410	27.145	1304.220	1060.787
130.424	27.064	1303.558	1059.683
131.439	27.194	1302.585	1059.557
132.454	27.006	1302.208	1058.062
133.468	27.045	1301.311	1057.468
134.483	27.135	1300.593	1057.313
135.497	27.115	1299.449	1056.171
136.512	27.041	1298.684	1055.029
137.527	27.109	1297.817	1054.625
138.541	27.118	1296.392	1053.428
139.556	27.049	1295.445	1052.164
140.570	27.166	1294.412	1051.910
141.585	27.212	1292.962	1050.902
142.600	26.973	1292.272	1048.868
143.614	27.139	1291.245	1048.902
144.629	27.099	1290.448	1047.930
145.643	26.986	1289.413	1046.343
146.658	26.820	1288.678	1044.701
147.673	27.062	1286.687	1044.387
148.687	26.982	1286.414	1043.611
149.702	26.957	1285.235	1042.418
150.716	26.953	1283.932	1041.244
151.731	27.093	1282.993	1041.193
152.746	27.051	1282.002	1040.061
153.760	27.078	1281.011	1039.316
154.775	27.106	1279.751	1038.363
155.789	27.089	1279.049	1037.607
156.804	26.983	1278.344	1036.334
157.819	27.043	1277.603	1035.985
158.833	27.134	1276.641	1035.630
159.848	27.045	1276.242	1034.711
160.862	27.228	1275.169	1034.790
161.877	27.209	1274.221	1033.824
162.892	27.149	1273.377	1032.706
163.906	27.148	1273.172	1032.439
164.921	27.202	1272.250	1031.910
165.935	27.167	1271.603	1031.094
166.950	27.177	1271.004	1030.575
167.964	27.196	1270.738	1030.373
168.979	27.251	1269.793	1029.829
169.994	27.282	1269.023	1029.286
171.008	27.209	1268.321	1028.216
172.023	27.231	1267.262	1027.390
173.037	27.142	1267.231	1026.769
174.052	27.287	1266.270	1026.717
175.067	27.206	1265.527	1025.568
176.081	27.317	1264.028	1024.887
177.096	27.245	1263.581	1024.032
178.110	27.229	1263.012	1023.387
179.125	27.232	1261.961	1022.464
180.140	27.358	1260.930	1022.244
181.154	27.270	1259.795	1020.741
182.169	27.280	1258.812	1019.913
183.183	27.278	1257.800	1018.991
184.198	27.237	1256.661	1017.746
185.213	27.295	1255.417	1016.975
186.227	27.251	1254.905	1016.222
187.242	27.290	1253.967	1015.592
188.256	27.346	1252.981	1015.014
189.271	27.399	1251.708	1014.187
190.286	27.376	1251.390	1013.712
191.300	27.310	1251.140	1013.054
192.315	27.356	1250.260	1012.509
193.329	27.310	1250.144	1012.071
194.344	27.311	1249.549	1011.500
195.359	27.298	1249.363	1011.193
196.373	27.269	1248.948	1010.605
197.388	27.263	1248.303	1009.961
198.402	27.323	1247.856	1009.842
199.417	27.260	1247.372	1009.012
200.432	27.260	1246.960	1008.589
201.446	27.254	1246.496	1008.089
202.461	27.205	1245.844	1007.200
203.475	27.325	1244.718	1006.869
204.490	27.172	1244.147	1005.469
205.504	27.303	1242.808	1005.023
206.519	27.341	1242.144	1004.604
207.534	27.422	1240.891	1003.953
208.548	27.372	1239.893	1002.780
209.563	27.372	1239.282	1002.197
210.577	27.424	1238.347	1001.640
211.592	27.378	1237.590	1000.686
212.607	27.375	1237.135	1000.210
213.621	27.404	1236.077	999.426
214.636	27.517	1235.048	999.126
215.650	27.515	1233.935	998.126
216.665	27.360	1233.513	996.846
217.680	27.406	1232.441	996.144
218.694	27.455	1231.921	995.906
219.709	27.498	1231.097	995.382
220.723	27.431	1230.717	994.623
221.738	27.486	1229.829	994.117
222.753	27.388	1229.056	992.872
223.767	27.396	1228.428	992.319
224.782	27.469	1227.568	991.934
225.796	27.608	1227.095	992.220
226.811	27.580	1226.480	991.484
227.826	27.465	1226.109	990.468
228.840	27.487	1225.882	990.318
229.855	27.400	1224.990	989.039
230.869	27.536	1223.990	988.880
231.884	27.525	1223.538	988.370
232.899	27.453	1222.969	987.429
233.913	27.473	1222.464	987.046
234.928	27.497	1222.105	986.798
235.942	27.446	1221.466	985.919
236.957	27.656	1220.137	985.891
237.972	27.619	1219.902	985.416
238.986	27.565	1219.038	984.341
240.001	27.626	1218.094	983.818
241.015	27.708	1217.393	983.607
242.030	27.757	1216.622	983.164
243.045	27.750	1216.087	982.608
244.059	27.604	1215.751	981.459
245.074	27.758	1214.419	981.126
246.088	27.793	1213.709	980.656
247.103	27.655	1212.870	979.151
248.117	27.689	1212.715	979.118
249.132	27.642	1211.714	977.974
250.147	27.775	1210.750	977.821
251.161	27.856	1209.960	977.528
252.176	27.697	1209.170	975.955
253.190	27.737	1209.028	975.969
254.205	27.762	1208.445	975.544
255.220	27.766	1207.317	974.571
256.234	27.767	1207.414	974.566
257.249	27.725	1206.699	973.676
258.263	27.751	1205.895	973.080
259.278	27.854	1205.522	973.246
260.293	27.786	1204.740	972.163
261.307	27.756	1204.349	971.605
262.322	27.825	1204.159	971.730
263.336	27.988	1203.130	971.680
264.351	27.867	1202.136	970.149
265.366	27.945	1201.490	969.958
266.380	27.891	1201.157	969.314
267.395	27.869	1200.320	968.436
268.409	27.760	1200.223	967.696
269.424	27.753	1199.424	966.930
270.439	27.831	1198.970	966.893
271.453	27.863	1198.416	966.529
272.468	27.778	1197.398	965.173
273.482	27.876	1196.397	964.797
274.497	27.980	1196.155	965.067
275.512	27.913	1196.072	964.558
276.526	27.967	1195.012	963.905
277.541	27.985	1194.138	963.209
278.555	27.825	1193.974	962.146
279.570	27.844	1193.022	961.398
280.585	28.012	1191.637	961.079
281.599	28.014	1190.743	960.283
282.614	27.971	1190.468	959.748
283.628	27.938	1189.722	958.893
284.643	28.161	1188.440	958.940
285.657	27.947	1187.939	957.334
286.672	28.009	1186.861	956.701
287.687	28.141	1185.935	956.564
288.701	28.075	1185.575	955.844
289.716	28.030	1185.188	955.212
290.730	27.954	1184.615	954.264
291.745	28.027	1183.574	953.725
292.760	28.043	1182.901	953.181
293.774	28.084	1182.543	953.024
294.789	28.020	1181.989	952.157
295.803	28.045	1181.750	952.012
296.818	28.203	1180.593	951.815
297.833	28.101	1179.942	950.678
298.847	28.179	1179.378	950.543
299.862	28.112	1178.403	949.327
300.876	28.233	1177.790	949.378
301.891	28.197	1177.550	948.910
302.906	28.183	1176.763	948.120
303.920	28.242	1175.988	947.719
304.935	28.238	1174.894	946.734
305.949	28.248	1174.709	946.552
306.964	28.194	1174.444	945.973
307.979	28.285	1172.980	945.183
308.993	28.329	1172.391	944.850
310.008	28.226	1171.868	943.816
311.022	28.385	1171.151	943.975
312.037	28.235	1170.446	942.548
313.052	28.292	1169.687	942.149
314.066	28.250	1169.037	941.326
315.081	28.326	1167.747	940.595
316.095	28.286	1167.325	939.964
317.110	28.393	1166.638	939.875
318.125	28.386	1166.556	939.692
319.139	28.335	1165.606	938.579
320.154	28.351	1165.090	938.164
321.168	28.438	1164.420	937.987
322.183	28.286	1164.141	936.903
323.197	28.181	1163.795	936.006
324.212	28.250	1163.311	935.886
325.227	28.386	1162.637	935.953
326.241	28.491	1161.711	935.659
327.256	28.553	1160.898	935.242
328.270	28.459	1160.247	934.156
329.285	28.372	1159.886	933.340
330.300	28.379	1158.676	932.317
331.314	28.255	1158.079	931.124
332.329	28.476	1157.197	931.456
333.343	28.542	1156.252	930.950
334.358	28.613	1155.497	930.619
335.373	28.500	1154.864	929.454
336.387	28.463	1154.541	928.924
337.402	28.442	1154.013	928.309
338.416	28.617	1152.727	928.076
339.431	28.445	1152.488	926.933
340.446	28.560	1152.107	927.128
341.460	28.733	1151.047	927.065
342.475	28.691	1150.365	926.220
343.489	28.641	1149.542	925.226
344.504	28.639	1148.495	924.289
345.519	28.715	1147.809	924.039
346.533	28.667	1146.940	923.013
347.548	28.669	1146.023	922.208
348.562	28.706	1145.703	922.055
349.577	28.760	1144.922	921.614
350.592	28.556	1144.227	919.948
351.606	28.544	1143.717	919.395
352.621	28.765	1142.742	919.641
353.635	28.759	1142.072	918.991
354.650	28.709	1141.771	918.413
355.665	28.667	1141.087	917.573
356.679	28.710	1140.749	917.438
357.694	28.815	1139.925	917.218
358.708	28.769	1138.935	916.111
359.723	28.615	1138.709	915.076
360.738	28.741	1137.990	915.046
361.752	28.831	1137.473	914.998
362.767	28.913	1136.468	914.519
363.781	28.800	1136.319	913.755
364.796	28.849	1135.927	913.602
365.810	28.860	1135.149	912.950
366.825	28.876	1134.135	912.132
367.840	28.899	1133.903	911.979
368.854	28.958	1133.279	911.688
369.869	28.917	1132.537	910.811
370.883	28.957	1131.826	910.357
371.898	29.017	1130.836	909.775
372.913	28.857	1130.572	908.689
373.927	29.042	1129.507	908.668
374.942	29.106	1128.994	908.492
375.956	29.036	1129.352	908.351
376.971	28.912	1128.946	907.335
377.986	28.983	1127.986	906.831
379.000	29.051	1127.630	906.799
380.015	28.999	1126.833	905.823
381.029	29.040	1126.097	905.353
382.044	29.019	1125.586	904.759
383.059	29.106	1124.694	904.391
384.073	29.102	1124.268	903.947
385.088	29.052	1123.251	902.806
386.102	29.137	1122.064	902.186
387.117	29.125	1121.511	901.602
388.132	29.078	1120.649	900.599
389.146	29.169	1119.971	900.421
390.161	29.193	1119.648	900.200
391.175	29.185	1118.833	899.422
392.190	29.237	1118.201	899.089
393.205	29.282	1117.213	898.437
394.219	29.228	1116.576	897.581
395.234	29.289	1115.750	897.134
396.248	29.294	1115.119	896.576
397.263	29.301	1114.083	895.696
398.278	29.321	1113.764	895.457
399.292	29.342	1113.285	895.094
400.307	29.271	1112.854	894.324
401.321	29.347	1112.192	894.079
402.336	29.278	1111.170	892.846
403.350	29.184	1111.375	892.477
404.365	29.176	1110.520	891.670
405.380	29.393	1108.980	891.407
406.394	29.406	1108.652	891.124
407.409	29.407	1107.743	890.322
408.423	29.374	1107.241	889.681
409.438	29.511	1106.368	889.559
410.453	29.531	1105.495	888.877
411.467	29.499	1104.942	888.200
412.482	29.558	1104.273	887.864
413.496	29.483	1103.848	887.083
414.511	29.488	1103.323	886.607
415.526	29.446	1102.926	886.008
416.540	29.480	1102.562	885.802
417.555	29.500	1102.029	885.391
418.569	29.545	1101.419	885.038
419.584	29.480	1101.249	884.513
420.599	29.515	1100.915	884.333
421.613	98.898	1317.747	1436.949
422.628	92.457	1349.316	1437.072
