DTS Sentinel unit serial number:	SN413079Multiplexer serial number:	ORYXHardware model number:	OX4-SRSoftware version number:	ORYX F/W v4.00 Oryx Data Collector v3.7.2.0data status	okinstallation	princeton_trtdifferential loss correction	single-endedforward channel	channel 2reverse channel	N/Adate	2019/09/13time	04:15:34forward acquisition time	60.00reverse acquisition time	0.00gamma	496.2192k internal	0.2337k external	0.2337temperature offset calibration	1.0188default loss term (dB/km)	0.3790temperature slope calibration	1.0000multiplexer offset coefficient	1.0000multiplexer slope coefficient	1.0000fibre end	0.00T internal ref (°C)	26.87T ext. ref 1 (°C)	4.05T ext. ref 2 (°C)	21.25length (m)	temperature (°C)	Stokes	anti-Stokes-747.200	-200.000	0.009	0.076
-746.185	-200.000	0.026	0.417
-745.171	-52.414	0.171	-0.079
-744.156	-122.236	-0.114	-0.019
-743.142	-200.000	0.025	-0.183
-742.127	205.511	0.128	0.200
-741.112	-94.341	0.059	-0.016
-740.098	65.363	0.181	0.184
-739.083	-104.265	0.234	-0.054
-738.069	203.176	0.166	0.257
-737.054	800.000	-0.031	0.109
-736.039	606.662	0.181	-0.453
-735.025	-4.677	-0.042	-0.029
-734.010	-56.767	-0.180	0.080
-732.996	129.389	-0.042	0.053
-731.981	-0.615	-0.387	-0.276
-730.966	-138.652	-0.138	-0.015
-729.952	-109.718	-0.370	0.078
-728.937	-200.000	-0.065	-0.334
-727.923	115.262	0.085	-0.104
-726.908	-5.661	-0.175	0.120
-725.894	-200.000	0.027	0.151
-724.879	-150.965	0.083	-0.006
-723.864	-66.406	-0.367	0.146
-722.850	-200.000	0.005	0.048
-721.835	-113.650	-0.272	0.053
-720.821	111.187	0.076	0.092
-719.806	196.288	-0.094	-0.144
-718.791	13.643	-0.191	-0.149
-717.777	74.375	-0.154	-0.163
-716.762	621.112	0.070	0.176
-715.748	-40.604	-0.156	0.081
-714.733	-200.000	0.013	-0.081
-713.718	800.000	-0.088	-0.377
-712.704	-44.451	-0.306	-0.153
-711.689	773.232	-0.108	0.295
-710.675	-162.740	-0.207	-0.010
-709.660	565.541	0.018	0.044
-708.645	-101.008	0.452	0.111
-707.631	800.000	-0.038	0.136
-706.616	264.755	0.103	-0.180
-705.602	-200.000	-0.031	-0.229
-704.587	800.000	-0.061	-0.245
-703.572	9.358	-0.326	0.247
-702.558	-64.595	-0.098	-0.040
-701.543	800.000	0.032	-0.131
-700.529	800.000	-0.047	-0.171
-699.514	-41.762	0.388	0.199
-698.499	-57.904	-0.368	0.161
-697.485	-43.245	-0.062	-0.031
-696.470	339.512	0.069	-0.134
-695.456	800.000	0.068	-0.267
-694.441	-200.000	-0.005	0.150
-693.426	-200.000	0.036	-0.240
-692.412	101.683	-0.108	-0.127
-691.397	185.018	-0.034	0.050
-690.383	-200.000	0.010	-0.115
-689.368	158.850	0.061	0.085
-688.354	-200.000	-0.044	0.276
-687.339	-125.167	0.120	-0.018
-686.324	-51.221	0.100	-0.047
-685.310	-200.000	0.019	-0.120
-684.295	-113.163	-0.026	-0.005
-683.281	554.701	0.018	-0.044
-682.266	800.000	0.068	0.294
-681.251	-200.000	0.032	-0.358
-680.237	-9.573	-0.313	-0.209
-679.222	-142.566	-0.240	-0.024
-678.208	800.000	-0.090	-0.355
-677.193	-95.966	0.177	-0.047
-676.178	-83.978	-0.090	-0.029
-675.164	-82.117	-0.285	0.093
-674.149	-200.000	0.028	0.274
-673.135	-200.000	0.068	-0.335
-672.120	89.206	-0.152	-0.169
-671.105	-200.000	-0.051	-0.286
-670.091	-200.000	0.037	0.347
-669.076	-145.961	-0.328	0.029
-668.062	-141.435	0.324	-0.033
-667.047	268.933	-0.118	0.206
-666.032	-200.000	0.004	-0.048
-665.018	-15.668	-0.235	-0.150
-664.003	-146.787	-0.145	0.013
-662.989	284.084	-0.188	0.338
-661.974	118.063	0.178	-0.219
-660.959	-200.000	-0.003	-0.058
-659.945	40.740	0.216	-0.195
-658.930	-200.000	-0.026	-0.197
-657.916	29.901	0.085	0.073
-656.901	-129.790	0.285	0.039
-655.886	-7.968	-0.149	0.101
-654.872	-200.000	-0.001	-0.048
-653.857	-133.035	-0.223	0.028
-652.843	38.829	-0.320	0.285
-651.828	-200.000	0.030	0.161
-650.814	800.000	-0.122	0.386
-649.799	800.000	0.020	0.061
-648.784	-133.744	-0.095	-0.012
-647.770	30.184	-0.398	-0.340
-646.755	95.424	0.215	-0.246
-645.741	218.243	-0.150	0.239
-644.726	-200.000	-0.292	0.000
-643.711	800.000	-0.046	-0.184
-642.697	-20.249	-0.187	-0.115
-641.682	800.000	-0.124	-0.347
-640.668	356.609	0.327	-0.652
-639.653	127.822	0.114	-0.145
-638.638	-30.931	-0.129	0.073
-637.624	-91.022	-0.233	-0.067
-636.609	-200.000	0.050	-0.340
-635.595	119.142	0.124	0.153
-634.580	141.817	0.257	-0.341
-633.565	-200.000	-0.027	0.137
-632.551	-75.020	-0.170	0.061
-631.536	686.460	0.056	0.145
-630.522	-111.672	0.091	0.018
-629.507	-3.954	-0.293	-0.203
-628.492	-131.103	0.236	0.031
-627.478	605.099	0.070	-0.175
-626.463	124.779	-0.154	-0.194
-625.449	-13.628	0.135	-0.088
-624.434	-55.956	-0.246	0.109
-623.419	-150.960	0.229	-0.017
-622.405	-200.000	0.007	-0.255
-621.390	-110.590	0.245	0.051
-620.376	792.874	-0.056	-0.153
-619.361	-200.000	-0.036	-0.220
-618.346	-89.283	-0.194	0.057
-617.332	-200.000	-0.025	0.178
-616.317	349.299	-0.047	-0.092
-615.303	-51.449	0.150	0.070
-614.288	-200.000	0.056	0.274
-613.273	-41.293	0.113	0.058
-612.259	-200.000	0.006	-0.043
-611.244	-170.556	0.010	-0.000
-610.230	800.000	-0.109	0.343
-609.215	113.034	0.061	0.073
-608.201	-200.000	-0.020	-0.229
-607.186	-132.342	-0.233	-0.030
-606.171	-200.000	0.080	-0.465
-605.157	-93.356	0.024	0.007
-604.142	-31.619	-0.278	-0.156
-603.128	-127.204	-0.125	-0.018
-602.113	800.000	0.089	-0.311
-601.098	800.000	0.087	-0.319
-600.084	800.000	-0.051	0.166
-599.069	-53.247	-0.257	0.118
-598.055	7.284	-0.169	-0.126
-597.040	30.765	-0.242	-0.207
-596.025	-112.112	-0.313	-0.063
-595.011	800.000	-0.092	-0.263
-593.996	-50.439	0.119	-0.056
-592.982	-108.388	0.344	0.074
-591.967	255.639	0.188	0.322
-590.952	-184.024	-0.254	0.004
-589.938	-80.485	-0.196	-0.065
-588.923	655.128	0.149	-0.382
-587.909	-200.000	-0.008	-0.073
-586.894	-184.561	0.316	-0.005
-585.879	354.468	0.187	-0.370
-584.865	-85.563	0.211	-0.065
-583.850	50.028	0.181	-0.170
-582.836	-200.000	0.007	0.119
-581.821	11.625	0.053	-0.041
-580.806	-200.000	0.007	0.304
-579.792	800.000	0.029	0.080
-578.777	722.750	-0.164	-0.436
-577.763	391.828	0.046	-0.096
-576.748	-162.189	-0.165	-0.008
-575.733	-200.000	0.047	0.299
-574.719	-154.937	-0.159	-0.010
-573.704	-21.751	-0.097	-0.059
-572.690	29.472	0.324	-0.274
-571.675	800.000	-0.073	0.217
-570.661	-200.000	-0.047	-0.238
-569.646	800.000	-0.038	-0.121
-568.631	-179.734	0.052	0.001
-567.617	-41.593	0.134	-0.069
-566.602	-200.000	-0.004	0.282
-565.588	-10.717	-0.237	-0.156
-564.573	38.335	0.281	0.249
-563.558	-79.524	-0.071	-0.024
-562.544	277.100	-0.017	-0.030
-561.529	-150.613	-0.101	-0.008
-560.515	-200.000	-0.070	-0.435
-559.500	-200.000	-0.019	0.151
-558.485	140.309	-0.042	0.055
-557.471	800.000	-0.005	-0.021
-556.456	-14.311	0.397	-0.255
-555.442	-97.104	-0.104	-0.027
-554.427	54.177	0.166	-0.159
-553.412	-44.055	0.135	0.068
-552.398	-200.000	-0.025	-0.279
-551.383	248.913	-0.091	-0.154
-550.369	135.980	0.152	0.198
-549.354	-77.799	0.227	0.078
-548.339	362.395	0.211	-0.422
-547.325	761.488	-0.107	-0.290
-546.310	284.317	-0.106	-0.190
-545.296	86.014	-0.114	-0.125
-544.281	-105.566	0.292	0.066
-543.266	800.000	0.047	0.188
-542.252	13.424	0.247	-0.191
-541.237	-200.000	0.014	-0.142
-540.223	203.287	-0.198	0.306
-539.208	-83.438	0.085	-0.027
-538.193	-173.306	0.336	0.010
-537.179	-56.231	0.229	-0.102
-536.164	-62.029	0.228	0.095
-535.150	-200.000	0.002	-0.094
-534.135	-24.364	-0.277	0.164
-533.121	44.816	-0.269	-0.246
-532.106	68.161	0.122	-0.124
-531.091	-46.182	0.204	-0.100
-530.077	-200.000	-0.058	0.438
-529.062	685.985	0.090	0.233
-528.048	184.797	-0.116	0.171
-527.033	78.212	0.165	-0.176
-526.018	-120.306	-0.267	0.045
-525.004	15.008	0.119	-0.092
-523.989	-200.000	-0.025	-0.119
-522.975	-200.000	-0.046	0.256
-521.960	-200.000	0.022	-0.173
-520.945	-71.721	0.113	0.042
-519.931	-200.000	0.010	-0.137
-518.916	70.781	-0.108	-0.112
-517.902	-66.639	0.155	0.061
-516.887	-33.135	0.096	0.053
-515.872	-52.973	-0.244	-0.112
-514.858	8.712	0.154	0.116
-513.843	549.616	0.113	-0.270
-512.829	65.131	0.127	-0.128
-511.814	199.123	0.142	0.216
-510.799	-118.252	-0.047	0.008
-509.785	121.814	-0.167	-0.207
-508.770	-200.000	-0.017	-0.121
-507.756	800.000	-0.059	-0.208
-506.741	76.911	0.148	0.156
-505.726	800.000	0.102	0.338
-504.712	94.724	0.237	-0.268
-503.697	800.000	-0.041	0.127
-502.683	-17.633	-0.347	-0.217
-501.668	-51.632	0.060	0.028
-500.653	-200.000	0.030	0.184
-499.639	-11.345	-0.201	-0.132
-498.624	-200.000	-0.023	0.257
-497.610	6.696	0.066	0.049
-496.595	-125.731	-0.114	0.017
-495.581	-101.259	0.202	-0.049
-494.566	-75.490	-0.166	-0.059
-493.551	-200.000	-0.025	0.170
-492.537	-200.000	0.020	-0.300
-491.522	-200.000	-0.044	-0.229
-490.508	-91.648	-0.400	-0.113
-489.493	367.194	-0.097	-0.195
-488.478	-38.633	0.312	0.164
-487.464	63.181	-0.072	0.072
-486.449	123.927	0.229	0.286
-485.435	-200.000	0.069	0.330
-484.420	177.037	-0.133	-0.193
-483.405	-43.221	0.105	-0.053
-482.391	212.843	0.112	0.176
-481.376	42.616	-0.424	0.383
-480.362	-200.000	-0.008	0.074
-479.347	-63.493	-0.114	0.046
-478.332	-200.000	-0.027	-0.180
-477.318	800.000	-0.024	-0.084
-476.303	-200.000	-0.064	0.314
-475.289	-200.000	-0.001	0.329
-474.274	280.125	0.040	-0.071
-473.259	229.184	-0.181	0.294
-472.245	-61.441	-0.128	0.053
-471.230	-84.326	-0.341	0.107
-470.216	-200.000	-0.024	0.304
-469.201	300.591	0.108	0.199
-468.186	9.144	0.081	0.061
-467.172	750.993	0.031	0.083
-466.157	83.284	0.025	-0.027
-465.143	308.780	0.110	-0.204
-464.128	800.000	0.025	0.107
-463.113	-81.414	0.274	0.090
-462.099	-3.698	0.269	-0.186
-461.084	-200.000	0.030	-0.411
-460.070	-78.230	-0.177	-0.060
-459.055	-200.000	0.050	-0.233
-458.040	800.000	-0.070	-0.222
-457.026	253.695	-0.079	0.134
-456.011	-45.385	0.383	-0.188
-454.997	164.832	0.158	-0.222
-453.982	208.957	-0.154	0.239
-452.968	-200.000	0.001	0.415
-451.953	800.000	-0.088	0.346
-450.938	-40.724	0.066	0.034
-449.924	172.560	0.087	-0.124
-448.909	-136.403	0.097	-0.011
-447.895	-80.943	-0.208	0.069
-446.880	22.705	-0.240	-0.195
-445.865	19.756	-0.020	-0.016
-444.851	800.000	-0.110	0.348
-443.836	-200.000	-0.014	-0.183
-442.822	-117.098	0.367	-0.066
-441.807	-71.784	0.231	-0.085
-440.792	-168.822	0.105	0.004
-439.778	-73.629	-0.182	0.066
-438.763	25.413	-0.303	0.250
-437.749	-83.149	0.269	-0.086
-436.734	-22.653	-0.184	0.111
-435.719	-200.000	0.019	-0.215
-434.705	-200.000	0.015	-0.275
-433.690	42.029	-0.147	-0.132
-432.676	-57.565	-0.351	-0.153
-431.661	582.549	-0.067	0.162
-430.646	442.417	0.052	-0.113
-429.632	53.285	0.319	0.303
-428.617	800.000	-0.077	-0.222
-427.603	444.965	-0.194	-0.422
-426.588	369.726	-0.066	0.133
-425.573	138.971	-0.261	0.341
-424.559	15.995	-0.133	0.104
-423.544	-200.000	-0.009	0.378
-422.530	187.170	0.202	0.298
-421.515	-77.604	0.179	-0.062
-420.500	800.000	0.053	0.155
-419.486	-200.000	0.009	-0.215
-418.471	-200.000	-0.023	-0.233
-417.457	-111.547	-0.232	-0.047
-416.442	3.619	-0.191	-0.138
-415.428	-200.000	0.022	-0.173
-414.413	800.000	0.040	-0.168
-413.398	127.744	-0.123	0.155
-412.384	800.000	0.052	0.222
-411.369	270.417	-0.145	0.253
-410.355	61.469	0.143	0.141
-409.340	-200.000	0.002	-0.176
-408.325	199.466	0.136	0.207
-407.311	-158.695	-0.152	0.009
-406.296	-83.429	0.386	0.123
-405.282	-200.000	-0.074	0.397
-404.267	609.937	-0.016	0.040
-403.252	16.253	0.207	0.162
-402.238	234.176	0.189	0.308
-401.223	70.107	-0.264	0.270
-400.209	-89.625	0.052	0.015
-399.194	141.886	0.026	0.034
-398.179	-10.835	0.348	0.228
-397.165	622.439	-0.056	0.140
-396.150	-127.895	-0.142	-0.020
-395.136	-3.520	0.113	0.078
-394.121	-96.811	-0.335	-0.087
-393.106	-80.523	-0.138	-0.046
-392.092	-200.000	0.037	-0.274
-391.077	800.000	0.020	0.064
-390.063	208.563	0.082	0.126
-389.048	99.692	0.156	-0.179
-388.033	-200.000	-0.028	-0.144
-387.019	-47.737	0.239	-0.115
-386.004	800.000	0.046	-0.133
-384.990	-76.265	0.501	-0.175
-383.975	-93.710	-0.137	-0.037
-382.960	133.513	0.033	-0.042
-381.946	85.361	0.253	0.275
-380.931	-41.978	0.203	0.103
-379.917	800.000	0.117	0.344
-378.902	-112.197	-0.353	0.070
-377.888	568.369	-0.052	-0.125
-376.873	800.000	0.050	-0.163
-375.858	-48.218	-0.497	-0.237
-374.844	-2.054	0.170	-0.118
-373.829	-166.299	-0.119	0.005
-372.815	-62.344	0.325	-0.134
-371.800	-104.648	0.332	0.076
-370.785	-42.240	0.035	-0.018
-369.771	-200.000	0.027	0.139
-368.756	-23.627	-0.084	-0.050
-367.742	772.984	0.064	0.172
-366.727	50.333	-0.262	-0.245
-365.712	-28.355	-0.050	0.028
-364.698	-54.389	-0.280	0.126
-363.683	-72.348	-0.287	-0.105
-362.669	79.717	-0.111	0.117
-361.654	-200.000	0.045	-0.248
-360.639	-84.934	-0.041	-0.013
-359.625	-200.000	-0.248	-0.000
-358.610	26.161	0.150	0.124
-357.596	412.822	0.180	0.378
-356.581	-18.534	0.069	0.043
-355.566	800.000	-0.013	-0.048
-354.552	-200.000	-0.038	-0.377
-353.537	-108.513	-0.175	-0.037
-352.523	800.000	0.064	-0.224
-351.508	-105.734	-0.096	0.021
-350.493	-200.000	0.035	-0.180
-349.479	-132.488	0.299	0.038
-348.464	-200.000	-0.008	0.083
-347.450	32.169	0.099	-0.084
-346.435	-89.091	-0.123	0.036
-345.420	248.278	0.136	0.227
-344.406	-4.425	0.072	-0.049
-343.391	-188.300	0.231	-0.003
-342.377	-177.308	-0.255	0.006
-341.362	-87.237	-0.192	0.058
-340.348	800.000	0.029	-0.122
-339.333	622.283	-0.138	-0.342
-338.318	12.411	-0.142	0.108
-337.304	-37.807	0.119	-0.063
-336.289	58.860	0.213	-0.207
-335.275	607.086	0.119	0.294
-334.260	-64.830	-0.240	0.096
-333.245	-189.128	-0.170	0.002
-332.231	-168.381	-0.199	-0.008
-331.216	-9.721	0.157	0.103
-330.202	643.255	-0.052	0.132
-329.187	-148.848	-0.250	-0.020
-328.172	10.705	0.032	-0.024
-327.158	50.641	0.150	-0.140
-326.143	-31.219	0.392	-0.218
-325.129	55.190	-0.108	0.103
-324.114	91.799	-0.183	0.204
-323.099	-169.336	-0.247	0.009
-322.085	-0.901	0.140	-0.098
-321.070	800.000	0.028	0.084
-320.056	5.984	0.318	0.233
-319.041	-90.226	0.202	-0.058
-318.026	-74.679	-0.164	-0.058
-317.012	-133.639	-0.224	0.028
-315.997	150.102	0.077	0.103
-314.983	-76.303	-0.360	0.125
-313.968	153.768	0.164	-0.222
-312.953	800.000	-0.032	0.109
-311.939	-164.994	-0.152	0.007
-310.924	-142.777	0.104	0.010
-309.910	-121.165	0.251	-0.042
-308.895	67.162	0.144	0.145
-307.880	-77.774	-0.456	-0.156
-306.866	-165.207	0.097	-0.004
-305.851	-102.567	-0.124	0.029
-304.837	-159.693	0.279	0.015
-303.822	-143.575	-0.104	-0.010
-302.807	-8.014	-0.240	0.160
-301.793	800.000	0.023	-0.076
-300.778	44.597	0.147	-0.133
-299.764	-200.000	0.036	0.315
-298.749	355.933	-0.086	-0.168
-297.735	41.702	0.193	0.173
-296.720	-101.354	-0.355	-0.085
-295.705	33.668	-0.270	-0.231
-294.691	-144.197	-0.200	0.018
-293.676	-9.819	-0.098	-0.064
-292.662	-81.847	-0.368	-0.119
-291.647	-163.281	0.239	0.011
-290.632	-200.000	-0.028	0.202
-289.618	-55.922	-0.248	-0.109
-288.603	48.995	-0.209	0.193
-287.589	17.825	-0.512	0.402
-286.574	14.473	0.032	0.024
-285.559	-200.000	0.018	0.172
-284.545	-17.642	0.131	0.081
-283.530	-200.000	0.032	-0.147
-282.516	353.764	-0.048	-0.093
-281.501	800.000	0.059	-0.230
-280.486	800.000	0.076	-0.255
-279.472	-43.358	-0.126	0.063
-278.457	-166.859	0.178	0.007
-277.443	-32.491	0.187	-0.103
-276.428	-200.000	-0.051	0.224
-275.413	75.627	-0.044	0.046
-274.399	-66.919	-0.117	-0.046
-273.384	-153.933	-0.251	-0.017
-272.370	-36.226	0.143	-0.076
-271.355	66.568	0.193	0.194
-270.340	-168.926	0.159	0.006
-269.326	179.697	-0.126	0.182
-268.311	-70.711	0.274	-0.102
-267.297	-106.822	0.218	-0.048
-266.282	-21.933	-0.151	-0.090
-265.267	800.000	0.061	0.247
-264.253	-200.000	0.007	-0.046
-263.238	-72.327	-0.271	0.099
-262.224	734.021	-0.070	0.186
-261.209	-200.000	0.002	0.231
-260.195	-15.426	0.125	0.079
-259.180	-200.000	-0.237	0.000
-258.165	403.387	0.084	-0.175
-257.151	-200.000	-0.049	0.281
-256.136	-95.329	0.294	-0.078
-255.122	-200.000	-0.001	-0.230
-254.107	-108.670	0.134	-0.028
-253.092	339.536	-0.166	-0.319
-252.078	182.428	0.104	0.151
-251.063	636.181	-0.047	0.118
-250.049	16.940	-0.388	-0.302
-249.034	384.457	0.070	-0.141
-248.019	314.185	-0.158	-0.292
-247.005	800.000	-0.059	0.169
-245.990	-96.838	0.101	-0.026
-244.976	295.432	-0.102	-0.184
-243.961	25.084	0.137	0.112
-242.946	800.000	-0.067	-0.241
-241.932	534.528	0.075	0.174
-240.917	-200.000	-0.022	-0.104
-239.903	158.163	0.162	0.221
-238.888	148.384	0.270	0.359
-237.873	60.516	0.111	0.108
-236.859	386.392	0.109	0.221
-235.844	638.145	0.105	-0.262
-234.830	9.835	0.056	-0.042
-233.815	-115.292	-0.200	-0.037
-232.800	131.210	-0.140	0.176
-231.786	800.000	-0.021	-0.068
-230.771	15.868	0.100	-0.078
-229.757	69.965	-0.038	-0.039
-228.742	118.759	0.085	0.104
-227.727	800.000	-0.132	0.382
-226.713	-200.000	0.003	0.306
-225.698	-54.308	-0.226	0.101
-224.684	800.000	-0.015	0.056
-223.669	-200.000	-0.032	-0.368
-222.655	-147.875	-0.285	-0.023
-221.640	401.428	-0.078	0.162
-220.625	-200.000	0.092	0.471
-219.611	-200.000	-0.017	0.091
-218.596	-78.866	0.058	0.019
-217.582	231.971	-0.103	-0.167
-216.567	-200.000	0.023	-0.138
-215.552	-191.926	-0.179	0.002
-214.538	193.954	-0.259	0.386
-213.523	-6.093	-0.169	-0.114
-212.509	-0.336	-0.061	0.043
-211.494	112.131	-0.216	0.256
-210.479	-144.050	0.188	0.017
-209.465	195.649	0.133	0.199
-208.450	-10.479	0.411	0.267
-207.436	220.585	-0.173	-0.273
-206.421	8.017	0.072	0.053
-205.406	-109.695	0.074	0.015
-204.392	-200.000	-0.057	0.266
-203.377	-112.300	0.232	0.046
-202.363	-73.467	-0.221	-0.079
-201.348	163.173	0.153	-0.211
-200.333	800.000	0.057	0.183
-199.319	5.317	-0.162	0.118
-198.304	-98.328	-0.160	0.040
-197.290	-119.152	0.247	0.042
-196.275	258.097	-0.095	-0.161
-195.260	-200.000	-0.013	0.175
-194.246	-94.261	0.114	-0.031
-193.231	74.356	0.137	-0.142
-192.217	334.037	0.146	0.278
-191.202	-11.665	-0.161	0.104
-190.187	800.000	-0.060	-0.175
-189.173	59.964	0.081	-0.078
-188.158	123.480	-0.106	0.130
-187.144	29.888	0.179	0.150
-186.129	230.407	-0.085	0.137
-185.114	800.000	-0.091	-0.307
-184.100	-160.561	0.407	0.021
-183.085	-34.279	-0.285	-0.154
-182.071	-52.874	-0.104	-0.047
-181.056	-200.000	0.089	-0.397
-180.042	-17.848	0.105	0.065
-179.027	-200.000	-0.003	-0.086
-178.012	-200.000	0.001	0.060
-176.998	505.280	0.241	0.548
-175.983	800.000	0.196	0.532
-174.969	-2.696	-0.082	0.057
-173.954	257.658	-0.010	-0.017
-172.939	-135.458	-0.321	-0.038
-171.925	6.434	-0.224	-0.163
-170.910	800.000	0.062	0.183
-169.896	191.741	0.119	0.177
-168.881	-200.000	0.038	-0.178
-167.866	184.579	-0.024	-0.035
-166.852	341.422	-0.126	-0.242
-165.837	-55.311	0.281	0.124
-164.823	-46.116	-0.137	-0.066
-163.808	-131.509	0.417	0.054
-162.793	51.205	0.270	0.251
-161.779	-115.506	0.125	0.023
-160.764	-200.000	-0.006	-0.082
-159.750	174.593	-0.166	-0.236
-158.735	430.711	0.152	0.323
-157.720	-105.813	0.058	-0.013
-156.706	65.681	-0.170	0.169
-155.691	-107.056	0.450	0.097
-154.677	-40.746	0.321	0.163
-153.662	-12.822	-0.293	-0.187
-152.647	4.422	-0.129	-0.093
-151.633	-18.687	0.294	0.180
-150.618	-176.359	-0.329	0.008
-149.604	-200.000	0.010	0.390
-148.589	42.896	0.304	0.271
-147.574	312.136	-0.173	-0.319
-146.560	80.546	0.288	0.305
-145.545	-45.364	-0.121	-0.059
-144.531	450.777	0.080	0.174
-143.516	-200.000	-0.042	0.346
-142.502	639.640	-0.064	0.160
-141.487	114.642	0.077	0.092
-140.472	515.965	0.013	0.029
-139.458	-200.000	0.003	0.013
-138.443	-152.600	-0.355	-0.025
-137.429	118.967	-0.072	0.087
-136.414	91.030	-0.161	0.177
-135.399	-173.610	-0.121	-0.004
-134.385	800.000	0.160	0.559
-133.370	-55.983	0.400	0.175
-132.356	14.409	0.127	0.097
-131.341	-99.622	-0.246	-0.061
-130.326	-120.536	0.115	-0.019
-129.312	-138.769	-0.139	0.015
-128.297	800.000	0.068	-0.226
-127.283	-135.587	-0.295	-0.034
-126.268	-24.203	0.143	-0.084
-125.253	72.547	0.153	-0.156
-124.239	-2.289	-0.135	0.093
-123.224	224.477	0.061	-0.097
-122.210	-200.000	-0.008	0.118
-121.195	800.000	-0.040	-0.164
-120.180	414.896	-0.049	0.101
-119.166	658.478	0.097	0.243
-118.151	-65.543	-0.314	0.123
-117.137	117.801	-0.106	0.128
-116.122	-129.540	0.378	0.051
-115.107	330.230	-0.057	-0.107
-114.093	-60.527	0.338	-0.141
-113.078	347.392	0.089	-0.171
-112.064	274.888	-0.039	0.068
-111.049	51.567	0.355	-0.331
-110.034	800.000	-0.079	-0.247
-109.020	-200.000	0.017	-0.192
-108.005	17.064	0.119	-0.093
-106.991	-148.131	-0.113	-0.009
-105.976	529.026	0.098	0.227
-104.962	-46.278	-0.228	-0.110
-103.947	-77.955	0.198	0.067
-102.932	-142.648	0.245	0.023
-101.918	-49.865	0.197	-0.092
-100.903	-200.000	-0.063	-0.276
-99.889	-132.826	0.261	0.033
-98.874	397.724	-0.061	-0.124
-97.859	-46.455	-0.204	-0.098
-96.845	436.906	0.089	0.190
-95.830	251.337	-0.204	-0.340
-94.816	800.000	0.024	-0.086
-93.801	46.858	0.074	-0.067
-92.786	-130.759	-0.090	-0.012
-91.772	-146.793	-0.217	0.018
-90.757	-200.000	0.027	0.408
-89.743	656.350	0.135	0.338
-88.728	272.497	-0.157	-0.272
-87.713	-200.000	-0.003	0.098
-86.699	-16.848	0.363	-0.225
-85.684	-136.619	0.124	0.014
-84.670	800.000	0.030	0.114
-83.655	479.976	0.145	0.321
-82.640	565.655	-0.113	0.269
-81.626	-46.447	-0.126	-0.061
-80.611	560.552	-0.040	0.095
-79.597	114.230	0.178	-0.212
-78.582	475.852	0.029	-0.063
-77.567	800.000	-0.039	-0.148
-76.553	194.696	0.224	-0.332
-75.538	-195.220	0.130	-0.001
-74.524	-99.589	-0.481	0.118
-73.509	800.000	0.133	-0.485
-72.494	83.904	0.184	0.197
-71.480	60.822	0.152	-0.147
-70.465	297.333	0.181	0.326
-69.451	414.710	0.200	0.417
-68.436	88.942	-0.068	0.074
-67.422	800.000	-0.016	0.061
-66.407	130.113	0.112	-0.141
-65.392	393.186	-0.054	-0.109
-64.378	304.971	0.086	-0.157
-63.363	-16.911	0.438	-0.270
-62.349	-200.000	0.004	-0.141
-61.334	25.678	-1.145	-0.932
-60.319	108.881	0.562	0.657
-59.305	-200.000	-0.056	-1.332
-58.290	182.221	0.790	1.138
-57.276	328.639	0.616	1.156
-56.261	-200.000	117.347	662.452
-55.246	524.708	1538.362	3536.777
-54.232	175.166	2715.115	3843.488
-53.217	100.648	2289.783	2599.476
-52.203	36.085	1895.221	1630.667
-51.188	30.057	1686.526	1405.484
-50.173	27.578	1645.245	1352.652
-49.159	49.145	1702.072	1562.680
-48.144	47.542	1715.625	1562.989
-47.130	29.572	1673.311	1390.596
-46.115	27.008	1658.949	1359.435
-45.100	26.814	1654.054	1353.926
-44.086	26.797	1651.903	1351.982
-43.071	26.756	1648.795	1349.082
-42.057	26.715	1646.416	1346.777
-41.042	26.692	1644.747	1345.183
-40.027	26.761	1642.877	1344.118
-39.013	26.746	1640.434	1341.949
-37.998	26.723	1638.800	1340.392
-36.984	26.672	1637.768	1339.115
-35.969	26.840	1635.825	1338.713
-34.954	26.902	1634.369	1337.928
-33.940	26.943	1632.593	1336.723
-32.925	26.799	1631.028	1334.331
-31.911	26.863	1629.402	1333.417
-30.896	26.886	1627.455	1331.936
-29.881	26.829	1626.101	1330.359
-28.867	26.775	1624.796	1328.846
-27.852	26.896	1623.341	1328.490
-26.838	26.827	1621.853	1326.712
-25.823	26.931	1620.351	1326.187
-24.809	26.963	1618.981	1325.254
-23.794	26.892	1617.835	1323.744
-22.779	26.950	1616.241	1322.810
-21.765	26.883	1614.157	1320.565
-20.750	26.878	1613.053	1319.572
-19.736	26.839	1611.362	1317.848
-18.721	26.920	1610.189	1317.426
-17.706	26.944	1608.455	1316.131
-16.692	26.918	1606.909	1314.623
-15.677	27.025	1605.614	1314.286
-14.663	26.942	1604.034	1312.340
-13.648	26.912	1603.039	1311.262
-12.633	26.889	1601.494	1309.776
-11.619	26.946	1599.303	1308.346
-10.604	26.894	1598.422	1307.200
-9.590	26.909	1596.731	1305.871
-8.575	26.878	1595.839	1304.867
-7.560	26.958	1594.768	1304.511
-6.546	26.886	1593.737	1303.104
-5.531	26.939	1592.012	1302.021
-4.517	26.923	1591.134	1301.137
-3.502	26.926	1590.474	1300.568
-2.487	26.946	1588.416	1298.975
-1.473	26.542	1576.709	1286.481
-0.458	23.660	1557.029	1250.108
0.556	21.918	1558.426	1217.855
1.571	19.342	1582.001	1217.993
2.586	18.923	1593.943	1224.098
3.600	17.297	1540.823	1171.993
4.615	10.802	1435.187	1049.714
5.629	5.074	1375.909	970.708
6.644	4.042	1368.348	958.902
7.659	3.998	1368.139	958.395
8.673	4.073	1367.305	958.193
9.688	4.087	1365.105	956.656
10.702	4.082	1361.782	954.209
11.717	6.814	1367.643	975.118
12.731	14.421	1381.112	1031.896
13.746	21.020	1392.033	1081.006
14.761	22.914	1394.023	1094.203
15.775	22.334	1392.236	1089.113
16.790	21.490	1389.877	1081.952
17.804	20.837	1387.529	1075.999
18.819	20.437	1386.774	1072.849
19.834	20.386	1386.209	1072.000
20.848	20.427	1384.815	1071.080
21.863	20.265	1384.008	1069.364
22.877	20.096	1382.968	1067.422
23.892	20.119	1381.366	1066.234
24.907	20.041	1380.720	1065.161
25.921	19.990	1380.000	1064.197
26.936	20.155	1378.338	1063.834
27.950	20.009	1377.665	1062.327
28.965	20.195	1376.653	1062.593
29.980	20.328	1376.005	1062.814
30.994	20.435	1375.390	1062.900
32.009	20.583	1373.826	1062.502
33.023	20.443	1373.018	1060.924
34.038	20.343	1371.405	1058.976
35.053	20.187	1369.636	1056.563
36.067	20.259	1369.198	1056.577
37.082	20.278	1367.955	1055.635
38.096	20.344	1367.301	1055.439
39.111	20.358	1366.800	1055.044
40.126	20.166	1365.913	1053.100
41.140	19.878	1364.210	1049.950
42.155	19.618	1364.138	1048.221
43.169	19.646	1363.612	1047.897
44.184	19.639	1363.272	1047.498
45.199	19.815	1363.177	1048.398
46.213	19.978	1362.315	1048.629
47.228	20.113	1362.080	1049.174
48.242	20.198	1360.492	1048.374
49.257	20.145	1359.845	1047.458
50.271	20.123	1358.076	1045.870
51.286	20.151	1356.533	1044.763
52.301	20.146	1355.209	1043.617
53.315	19.885	1354.417	1041.345
54.330	19.897	1353.027	1040.257
55.344	19.819	1351.729	1038.697
56.359	19.777	1351.023	1037.814
57.374	19.776	1350.242	1037.116
58.388	19.623	1349.672	1035.667
59.403	19.641	1348.621	1034.876
60.417	19.601	1348.046	1034.102
61.432	19.512	1347.032	1032.701
62.447	19.437	1345.938	1031.323
63.461	19.366	1344.520	1029.721
64.476	19.381	1343.781	1029.154
65.490	19.396	1342.348	1028.057
66.505	19.459	1340.869	1027.207
67.520	19.381	1339.668	1025.730
68.534	19.407	1338.640	1025.009
69.549	19.337	1337.632	1023.728
70.563	19.298	1336.434	1022.490
71.578	19.276	1334.766	1020.993
72.593	19.209	1333.690	1019.683
73.607	19.092	1333.696	1018.904
74.622	19.073	1333.164	1018.295
75.636	19.162	1332.385	1018.141
76.651	19.191	1332.147	1018.039
77.666	19.240	1331.357	1017.631
78.680	19.361	1330.554	1017.646
79.695	19.454	1329.928	1017.623
80.709	19.552	1329.634	1017.888
81.724	19.750	1328.448	1018.054
82.739	19.876	1327.714	1018.141
83.753	19.984	1327.905	1018.836
84.768	20.114	1326.832	1018.684
85.782	20.407	1325.342	1019.174
86.797	20.299	1323.973	1017.396
87.812	20.260	1322.763	1016.145
88.826	20.141	1321.899	1014.695
89.841	20.274	1320.935	1014.648
90.855	20.263	1320.428	1014.100
91.870	20.418	1318.861	1013.713
92.884	20.491	1317.996	1013.385
93.899	20.346	1318.286	1012.670
94.914	20.538	1316.791	1012.552
95.928	20.447	1316.565	1011.758
96.943	20.407	1315.240	1010.420
97.957	20.257	1314.475	1008.869
98.972	20.395	1313.109	1008.531
99.987	20.324	1312.464	1007.536
101.001	20.256	1311.746	1006.503
102.016	20.307	1310.646	1005.866
103.030	20.319	1309.814	1005.208
104.045	20.313	1308.304	1003.924
105.060	20.059	1307.552	1001.790
106.074	19.683	1305.597	998.033
107.089	19.515	1303.789	995.592
108.103	19.367	1302.322	993.532
109.118	19.398	1300.738	992.414
110.133	19.319	1300.227	991.483
111.147	19.394	1298.711	990.670
112.162	19.548	1297.401	990.466
113.176	19.582	1296.662	990.007
114.191	19.687	1295.382	989.543
115.206	19.645	1294.206	988.319
116.220	19.576	1292.809	986.769
117.235	19.656	1291.943	986.479
118.249	19.541	1290.605	984.717
119.264	19.528	1289.276	983.540
120.279	19.296	1288.322	981.401
121.293	19.311	1287.127	980.493
122.308	19.189	1285.922	978.794
123.322	19.031	1285.209	977.266
124.337	19.109	1284.169	976.832
125.352	18.968	1283.222	975.225
126.366	19.014	1281.911	974.406
127.381	19.132	1280.755	974.105
128.395	19.074	1279.543	972.772
129.410	19.118	1278.477	972.122
130.424	19.348	1277.811	972.828
131.439	19.395	1277.463	972.744
132.454	19.379	1276.638	971.937
133.468	19.468	1275.920	971.807
134.483	19.524	1275.315	971.577
135.497	19.405	1274.706	970.353
136.512	19.515	1273.505	969.974
137.527	19.550	1272.062	968.987
138.541	19.606	1270.598	968.097
139.556	19.749	1269.779	968.188
140.570	19.851	1268.936	968.033
141.585	19.962	1267.286	967.311
142.600	20.114	1266.566	967.521
143.614	20.188	1266.201	967.569
144.629	20.244	1265.409	967.193
145.643	20.223	1263.842	965.791
146.658	20.030	1262.718	963.775
147.673	19.897	1260.573	961.311
148.687	19.676	1259.822	959.425
149.702	19.541	1258.155	957.322
150.716	19.636	1256.513	956.515
151.731	19.559	1255.696	955.382
152.746	19.589	1254.614	954.641
153.760	19.606	1253.936	954.137
154.775	19.815	1252.659	954.233
155.789	19.935	1251.478	953.909
156.804	19.853	1251.128	953.106
157.819	19.968	1250.089	952.862
158.833	20.145	1249.081	952.986
159.848	20.236	1248.354	952.846
160.862	20.242	1247.456	952.107
161.877	19.959	1245.823	949.227
162.892	19.595	1244.630	946.237
163.906	19.491	1243.993	945.104
164.921	19.581	1242.686	944.520
165.935	19.720	1241.860	944.564
166.950	19.898	1241.351	945.066
167.964	19.817	1240.767	944.100
168.979	19.679	1240.264	942.877
169.994	19.691	1238.984	941.888
171.008	19.649	1238.285	941.041
172.023	19.890	1237.568	941.725
173.037	20.089	1237.029	942.315
174.052	20.028	1236.047	941.153
175.067	19.757	1234.758	938.619
176.081	19.549	1233.842	936.709
177.096	19.575	1232.905	936.055
178.110	19.718	1231.328	935.550
179.125	19.760	1230.528	935.084
180.140	19.783	1229.876	934.633
181.154	19.913	1228.776	934.417
182.169	20.128	1227.536	934.547
183.183	20.205	1226.800	934.321
184.198	20.127	1225.743	933.012
185.213	20.087	1224.834	932.025
186.227	20.186	1223.950	931.802
187.242	20.243	1222.636	931.022
188.256	20.475	1221.812	931.556
189.271	20.520	1220.556	930.758
190.286	20.128	1219.682	927.913
191.300	19.650	1218.287	924.211
192.315	19.629	1217.267	923.242
193.329	19.571	1217.310	922.888
194.344	19.744	1216.411	923.047
195.359	19.702	1215.779	922.260
196.373	19.951	1215.150	923.031
197.388	19.985	1215.451	923.357
198.402	20.231	1214.855	924.133
199.417	20.429	1214.384	924.751
200.432	20.593	1214.242	925.430
201.446	20.677	1213.480	925.217
202.461	20.803	1212.739	925.236
203.475	20.828	1211.100	924.039
204.490	20.494	1209.758	921.166
205.504	20.250	1208.333	918.707
206.519	20.112	1207.441	917.214
207.534	20.081	1206.540	916.287
208.548	20.084	1205.361	915.323
209.563	20.082	1204.811	914.816
210.577	20.082	1204.224	914.290
211.592	20.235	1203.179	914.222
212.607	20.490	1202.452	914.933
213.621	20.504	1201.566	914.249
214.636	20.407	1200.759	913.046
215.650	20.454	1199.797	912.479
216.665	20.641	1199.202	912.928
217.680	20.771	1198.540	913.024
218.694	20.749	1197.686	912.179
219.709	20.686	1196.855	911.134
220.723	20.712	1196.005	910.540
221.738	20.606	1195.340	909.404
222.753	20.701	1194.268	909.000
223.767	20.643	1193.432	907.983
224.782	20.802	1193.198	908.555
225.796	20.855	1192.731	908.396
226.811	20.787	1192.102	907.479
227.826	20.639	1191.028	905.813
228.840	20.545	1190.383	904.749
229.855	20.531	1189.243	903.730
230.869	20.485	1188.813	903.087
231.884	20.386	1187.712	901.658
232.899	20.307	1186.777	900.456
233.913	20.169	1185.941	899.027
234.928	20.221	1184.953	898.468
235.942	20.176	1183.956	897.400
236.957	20.135	1183.280	896.595
237.972	20.131	1182.766	896.104
238.986	20.251	1181.918	896.004
240.001	20.164	1181.656	895.275
241.015	20.160	1180.748	894.487
242.030	20.301	1180.084	894.637
243.045	20.507	1179.087	894.858
244.059	20.457	1178.552	894.118
245.074	20.500	1178.009	893.846
246.088	20.665	1177.222	894.020
247.103	20.756	1176.694	894.007
248.117	20.913	1175.580	893.886
249.132	21.082	1175.350	894.499
250.147	21.455	1174.802	895.915
251.161	21.535	1174.276	895.843
252.176	21.440	1174.148	895.182
253.190	21.511	1173.237	894.767
254.205	21.661	1172.752	895.088
255.220	21.660	1172.423	894.752
256.234	21.666	1171.502	894.000
257.249	21.591	1170.753	892.969
258.263	21.502	1169.985	891.848
259.278	21.485	1169.589	891.378
260.293	21.692	1168.844	891.788
261.307	21.722	1168.271	891.425
262.322	21.729	1167.605	890.872
263.336	21.734	1167.153	890.472
264.351	21.656	1166.705	889.656
265.366	21.793	1165.463	889.327
266.380	21.822	1164.685	888.801
267.395	21.641	1163.946	887.243
268.409	21.456	1163.016	885.518
269.424	21.435	1162.467	884.917
270.439	21.496	1162.240	884.975
271.453	21.367	1161.131	883.399
272.468	21.211	1160.134	881.776
273.482	21.178	1159.109	880.752
274.497	21.259	1158.324	880.484
275.512	21.330	1157.792	880.358
276.526	21.401	1157.008	880.044
277.541	21.187	1156.609	878.585
278.555	21.335	1155.921	878.728
279.570	21.564	1155.497	879.482
280.585	21.710	1154.990	879.751
281.599	21.725	1153.841	878.874
282.614	21.512	1152.532	876.729
283.628	21.343	1151.622	875.112
284.643	21.354	1150.583	874.302
285.657	21.391	1149.453	873.550
286.672	21.421	1148.674	873.032
287.687	21.473	1147.649	872.435
288.701	21.485	1147.113	872.010
289.716	21.449	1146.604	871.365
290.730	21.475	1145.770	870.785
291.745	21.544	1144.942	870.423
292.760	21.675	1144.185	870.419
293.774	21.634	1144.113	870.082
294.789	21.828	1143.438	870.458
295.803	21.788	1142.617	869.554
296.818	21.432	1142.121	867.336
297.833	21.367	1141.192	866.230
298.847	21.553	1140.226	866.344
299.862	21.480	1139.435	865.305
300.876	21.565	1138.621	865.028
301.891	21.736	1138.275	865.537
302.906	21.792	1138.043	865.558
303.920	22.003	1137.002	865.729
304.935	22.052	1136.882	865.805
305.949	22.186	1136.007	865.720
306.964	22.186	1135.500	865.261
307.979	22.009	1134.664	863.676
308.993	21.880	1133.838	862.336
310.008	22.003	1132.971	862.204
311.022	22.102	1132.507	862.260
312.037	22.074	1131.417	861.215
313.052	21.785	1130.470	859.002
314.066	21.653	1129.433	857.494
315.081	21.573	1128.246	856.124
316.095	21.336	1127.578	854.386
317.110	21.469	1127.068	854.570
318.125	21.448	1126.232	853.761
319.139	21.342	1125.722	852.780
320.154	21.391	1124.955	852.365
321.168	21.443	1124.534	852.221
322.183	21.514	1123.865	851.985
323.197	21.525	1123.595	851.758
324.212	21.581	1122.906	851.436
325.227	21.663	1122.158	851.189
326.241	21.652	1121.381	850.473
327.256	21.531	1120.598	849.214
328.270	21.391	1119.540	847.659
329.285	21.363	1119.378	847.327
330.300	21.608	1117.401	846.941
331.314	21.559	1116.508	845.949
332.329	21.606	1115.622	845.430
333.343	21.771	1114.950	845.644
334.358	21.855	1114.545	845.666
335.373	21.939	1114.074	845.638
336.387	21.912	1113.010	844.629
337.402	21.987	1112.434	844.477
338.416	22.054	1112.173	844.526
339.431	22.090	1111.631	844.211
340.446	22.269	1111.226	844.689
341.460	22.325	1110.818	844.573
342.475	22.545	1109.789	844.769
343.489	22.545	1108.943	844.055
344.504	22.649	1108.196	843.909
345.519	22.644	1107.320	843.142
346.533	22.725	1106.504	842.832
347.548	22.746	1106.001	842.474
348.562	22.755	1105.033	841.705
349.577	22.401	1104.063	839.207
350.592	22.221	1102.828	837.335
351.606	21.872	1101.853	834.861
352.621	21.910	1101.102	834.397
353.635	21.838	1100.792	833.746
354.650	21.963	1099.578	833.346
355.665	22.017	1099.498	833.468
356.679	22.192	1099.038	833.876
357.694	22.175	1098.062	832.980
358.708	22.220	1097.702	832.850
359.723	22.232	1097.154	832.418
360.738	22.296	1096.538	832.180
361.752	22.326	1095.757	831.652
362.767	22.257	1095.424	831.000
363.781	22.383	1094.870	831.101
364.796	22.575	1094.596	831.725
365.810	22.770	1093.978	832.103
366.825	22.789	1093.483	831.742
367.840	23.081	1092.908	832.606
368.854	22.928	1092.944	831.839
369.869	23.085	1091.736	831.585
370.883	22.916	1090.373	829.678
371.898	22.652	1089.758	827.897
372.913	22.722	1089.176	827.714
373.927	22.773	1088.984	827.734
374.942	22.990	1088.451	828.271
375.956	22.935	1087.759	827.412
376.971	22.721	1087.192	825.908
377.986	22.928	1086.638	826.381
379.000	22.998	1086.101	826.225
380.015	23.265	1085.470	826.920
381.029	23.095	1085.083	825.759
382.044	23.243	1084.173	825.683
383.059	23.027	1083.766	824.296
384.073	23.044	1082.918	823.658
385.088	23.142	1081.770	823.164
386.102	23.100	1080.733	822.108
387.117	22.811	1079.612	819.840
388.132	22.684	1078.445	818.293
389.146	22.633	1077.783	817.482
390.161	22.661	1076.860	816.837
391.175	22.639	1076.453	816.357
392.190	22.794	1075.655	816.394
393.205	22.987	1075.268	816.923
394.219	23.087	1074.104	816.429
395.234	22.897	1073.527	815.040
396.248	22.718	1072.224	813.151
397.263	22.713	1071.468	812.483
398.278	22.536	1071.019	811.258
399.292	22.515	1069.812	810.176
400.307	22.550	1068.770	809.473
401.321	22.539	1068.155	808.886
402.336	22.350	1067.894	807.751
403.350	22.349	1067.179	807.133
404.365	22.635	1066.562	807.908
405.380	22.645	1066.034	807.481
406.394	22.789	1065.276	807.493
407.409	22.863	1064.461	807.145
408.423	23.111	1064.085	807.917
409.438	23.243	1063.396	807.926
410.453	23.344	1062.804	807.866
411.467	23.487	1062.132	807.937
412.482	23.402	1061.671	807.125
413.496	23.348	1061.407	806.610
414.511	23.569	1060.464	806.827
415.526	23.630	1060.327	806.929
416.540	23.735	1059.609	806.788
417.555	23.522	1059.339	805.543
418.569	23.498	1058.534	804.752
419.584	23.462	1057.917	804.047
420.599	23.533	1057.347	803.865
421.613	157.853	1404.151	1797.688
422.628	145.075	1454.637	1797.791
