DTS Sentinel unit serial number:	SN413079Multiplexer serial number:	ORYXHardware model number:	OX4-SRSoftware version number:	ORYX F/W v4.00 Oryx Data Collector v3.7.2.0data status	okinstallation	princeton_trtdifferential loss correction	single-endedforward channel	channel 2reverse channel	N/Adate	2019/09/17time	02:43:34forward acquisition time	60.00reverse acquisition time	0.00gamma	496.2192k internal	0.2327k external	0.2327temperature offset calibration	0.9970default loss term (dB/km)	0.3790temperature slope calibration	1.0000multiplexer offset coefficient	1.0000multiplexer slope coefficient	1.0000fibre end	0.00T internal ref (°C)	29.87T ext. ref 1 (°C)	0.12T ext. ref 2 (°C)	24.87length (m)	temperature (°C)	Stokes	anti-Stokes-747.200	-200.000	0.047	0.239
-746.185	-61.202	-0.230	0.098
-745.171	36.869	-0.407	0.362
-744.156	-75.281	-0.412	0.148
-743.142	800.000	0.047	-0.137
-742.127	378.900	0.040	-0.082
-741.112	-200.000	-0.008	0.228
-740.098	-200.000	0.028	0.270
-739.083	-59.192	0.169	-0.073
-738.069	-200.000	0.011	-0.061
-737.054	101.269	-0.046	-0.054
-736.039	-120.078	-0.460	0.079
-735.025	-47.779	-0.128	-0.063
-734.010	-2.022	-0.120	-0.085
-732.996	800.000	0.055	-0.196
-731.981	-96.789	-0.215	0.057
-730.966	-38.231	-0.128	-0.069
-729.952	241.756	0.042	-0.070
-728.937	-200.000	0.022	0.105
-727.923	-124.635	0.155	0.024
-726.908	-200.000	-0.002	-0.364
-725.894	-17.048	0.101	-0.064
-724.879	800.000	-0.084	-0.235
-723.864	-14.696	-0.036	-0.023
-722.850	33.820	-0.215	0.188
-721.835	-67.265	-0.138	-0.054
-720.821	345.874	-0.126	-0.249
-719.806	-200.000	0.034	0.171
-718.791	-131.529	-0.273	-0.036
-717.777	38.119	-0.112	0.101
-716.762	-113.411	-0.072	-0.014
-715.748	-6.836	-0.102	0.070
-714.733	-200.000	-0.026	0.168
-713.718	74.746	0.139	0.147
-712.704	-200.000	-0.002	0.099
-711.689	800.000	-0.047	-0.173
-710.675	77.410	0.101	0.108
-709.660	-73.904	0.334	-0.122
-708.645	-101.081	-0.271	-0.067
-707.631	2.850	0.254	0.186
-706.616	-200.000	-0.021	-0.274
-705.602	662.349	0.108	0.281
-704.587	261.000	0.131	-0.228
-703.572	800.000	-0.073	-0.320
-702.558	-200.000	0.024	-0.230
-701.543	-113.284	-0.091	0.018
-700.529	800.000	0.045	-0.137
-699.514	10.094	0.312	0.238
-698.499	174.295	0.101	-0.147
-697.485	800.000	-0.078	-0.270
-696.470	-12.901	0.027	-0.018
-695.456	-200.000	-0.067	-0.341
-694.441	-200.000	0.048	0.213
-693.426	-132.596	-0.285	-0.037
-692.412	-200.000	0.024	0.186
-691.397	-181.691	0.202	-0.004
-690.383	800.000	0.035	0.126
-689.368	-175.678	-0.249	0.007
-688.354	-104.143	0.211	0.049
-687.339	-200.000	0.009	0.098
-686.324	-143.343	-0.295	0.028
-685.310	0.653	0.083	-0.060
-684.295	-59.271	-0.205	-0.089
-683.281	-200.000	0.029	0.182
-682.266	213.288	-0.223	-0.354
-681.251	-160.255	0.424	-0.023
-680.237	800.000	-0.038	-0.106
-679.222	-57.205	0.273	-0.121
-678.208	17.988	-0.141	0.113
-677.193	586.117	0.163	-0.403
-676.178	-169.075	-0.304	0.011
-675.164	181.583	0.161	0.238
-674.149	800.000	-0.123	-0.376
-673.135	-200.000	-0.023	0.103
-672.120	61.293	-0.019	0.019
-671.105	81.967	0.155	0.168
-670.091	-153.366	-0.332	0.023
-669.076	800.000	0.017	-0.058
-668.062	-67.758	0.039	0.016
-667.047	800.000	-0.046	0.139
-666.032	800.000	-0.102	0.344
-665.018	-57.864	0.342	-0.150
-664.003	-89.847	-0.156	-0.046
-662.989	13.339	0.148	0.116
-661.974	54.060	0.127	-0.123
-660.959	-12.282	-0.236	0.155
-659.945	800.000	-0.015	-0.059
-658.930	-135.855	0.116	-0.014
-657.916	-200.000	-0.033	-0.234
-656.901	-200.000	0.143	-0.000
-655.886	-123.209	0.056	0.009
-654.872	-7.788	0.097	0.066
-653.857	-19.643	0.166	0.103
-652.843	-200.000	0.038	0.283
-651.828	-200.000	-0.024	-0.611
-650.814	-16.516	-0.211	0.134
-649.799	4.800	0.277	-0.205
-648.784	118.598	-0.162	0.201
-647.770	-118.562	-0.435	0.077
-646.755	-200.000	0.023	0.192
-645.741	-146.881	0.317	0.027
-644.726	199.996	0.023	-0.035
-643.711	96.064	0.310	0.356
-642.697	35.963	-0.164	0.145
-641.682	31.998	-0.108	-0.094
-640.668	305.935	-0.089	-0.167
-639.653	66.571	-0.141	0.144
-638.638	177.223	-0.036	-0.053
-637.624	-10.546	0.088	-0.058
-636.609	128.231	-0.180	-0.229
-635.595	-200.000	0.016	-0.080
-634.580	176.997	0.162	-0.237
-633.565	126.672	0.093	-0.118
-632.551	372.298	-0.015	-0.031
-631.536	-54.750	0.297	0.135
-630.522	800.000	-0.085	-0.366
-629.507	104.076	-0.206	-0.244
-628.492	-129.320	0.045	0.006
-627.478	-200.000	-0.018	0.093
-626.463	-139.377	-0.209	0.022
-625.449	-73.712	-0.129	0.047
-624.434	-200.000	-0.025	0.192
-623.419	-61.036	-0.079	-0.033
-622.405	108.022	-0.106	0.127
-621.390	96.590	-0.137	0.157
-620.376	310.673	0.094	-0.177
-619.361	800.000	0.080	-0.237
-618.346	89.798	-0.219	0.245
-617.332	800.000	-0.043	-0.170
-616.317	-104.564	0.319	0.074
-615.303	97.654	0.197	0.227
-614.288	-200.000	0.031	0.176
-613.273	-66.416	0.501	-0.200
-612.259	677.512	0.023	-0.060
-611.244	-43.458	0.205	0.104
-610.230	-71.730	-0.183	0.068
-609.215	-31.977	0.210	-0.118
-608.201	-200.000	-0.005	-0.103
-607.186	294.463	-0.194	0.356
-606.171	-200.000	0.044	0.268
-605.157	800.000	0.073	0.285
-604.142	342.827	-0.044	-0.087
-603.128	366.899	-0.178	-0.360
-602.113	-200.000	-0.015	0.100
-601.098	-89.753	-0.375	-0.110
-600.084	-18.255	0.174	-0.109
-599.069	67.668	0.181	0.186
-598.055	285.478	0.063	0.114
-597.040	537.220	0.098	0.233
-596.025	220.171	-0.095	-0.152
-595.011	-200.000	0.008	-0.129
-593.996	22.983	0.123	-0.102
-592.982	-200.000	-0.024	0.321
-591.967	33.335	-0.125	0.109
-590.952	195.463	-0.068	0.104
-589.938	-200.000	-0.076	-0.389
-588.923	31.651	-0.080	0.069
-587.909	-197.287	-0.083	0.001
-586.894	-172.025	-0.464	0.015
-585.879	-161.330	-0.218	-0.011
-584.865	381.766	0.085	-0.175
-583.850	-36.388	0.286	-0.154
-582.836	27.656	-0.005	0.004
-581.821	-84.086	-0.219	0.070
-580.806	131.578	-0.170	0.219
-579.792	30.282	-0.065	0.056
-578.777	-24.863	-0.091	0.054
-577.763	-3.613	-0.147	0.103
-576.748	-14.236	0.191	0.123
-575.733	-117.259	-0.358	0.065
-574.719	-50.050	0.142	0.068
-573.704	-200.000	0.075	0.339
-572.690	258.120	0.121	0.209
-571.675	-148.367	-0.055	0.005
-570.661	800.000	0.137	0.473
-569.646	800.000	0.081	0.267
-568.631	800.000	-0.053	0.164
-567.617	-200.000	0.064	-0.376
-566.602	108.418	-0.113	0.134
-565.588	-181.665	0.402	-0.008
-564.573	95.794	0.202	0.231
-563.558	231.129	-0.172	-0.283
-562.544	268.473	-0.230	-0.403
-561.529	63.890	-0.031	0.032
-560.515	248.276	-0.181	-0.306
-559.500	497.596	0.122	0.280
-558.485	-16.098	0.255	0.162
-557.471	60.452	-0.125	-0.123
-556.456	-147.653	0.308	0.026
-555.442	491.652	0.075	0.173
-554.427	800.000	0.056	-0.161
-553.412	-64.846	0.347	-0.140
-552.398	207.445	0.121	-0.189
-551.383	381.210	-0.136	0.279
-550.369	199.987	-0.080	0.124
-549.354	-200.000	0.024	0.173
-548.339	43.000	0.238	-0.217
-547.325	-200.000	0.004	-0.095
-546.310	-67.368	-0.142	-0.056
-545.296	-110.046	-0.193	0.040
-544.281	58.373	-0.051	-0.050
-543.266	-200.000	-0.012	0.067
-542.252	-200.000	-0.021	-0.120
-541.237	-111.916	0.221	0.045
-540.223	-55.949	-0.242	0.108
-539.208	180.796	-0.094	-0.138
-538.193	65.258	-0.238	0.241
-537.179	271.516	0.050	0.089
-536.164	344.617	-0.181	-0.356
-535.150	360.352	0.094	0.188
-534.135	246.571	-0.119	-0.201
-533.121	-150.218	-0.152	-0.012
-532.106	266.688	0.085	0.149
-531.091	435.518	0.042	0.091
-530.077	89.184	0.075	-0.083
-529.062	74.388	0.226	-0.237
-528.048	182.315	-0.103	0.152
-527.033	-137.262	-0.195	-0.022
-526.018	6.363	-0.237	-0.176
-525.004	800.000	0.057	0.195
-523.989	-200.000	-0.090	0.450
-522.975	-173.848	-0.073	0.002
-521.960	136.093	-0.091	-0.119
-520.945	482.002	0.144	-0.327
-519.931	72.655	0.216	-0.226
-518.916	-17.836	0.067	-0.042
-517.902	-200.000	0.004	-0.265
-516.887	-200.000	-0.006	0.069
-515.872	-200.000	0.010	-0.143
-514.858	800.000	0.051	-0.203
-513.843	125.087	-0.084	0.106
-512.829	-90.869	0.148	-0.042
-511.814	-200.000	0.003	0.095
-510.799	-114.674	-0.479	0.092
-509.785	740.558	-0.092	-0.247
-508.770	32.054	0.222	-0.191
-507.756	-10.912	0.137	0.090
-506.741	215.080	0.133	-0.210
-505.726	304.844	0.247	-0.457
-504.712	31.909	-0.050	0.043
-503.697	73.177	0.153	0.159
-502.683	90.929	-0.205	-0.229
-501.668	157.031	-0.222	-0.306
-500.653	-52.927	0.343	0.158
-499.639	-90.152	0.220	-0.064
-498.624	75.403	-0.051	0.053
-497.610	608.084	-0.122	0.303
-496.595	9.845	0.210	-0.159
-495.581	156.476	-0.038	0.053
-494.566	-200.000	-0.003	-0.367
-493.551	-134.734	0.058	-0.007
-492.537	596.709	0.106	-0.263
-491.522	-57.930	0.310	0.135
-490.508	-74.960	-0.198	0.071
-489.493	800.000	0.039	0.154
-488.478	-200.000	0.002	-0.032
-487.464	125.274	0.142	0.179
-486.449	-200.000	0.007	-0.211
-485.435	800.000	-0.017	-0.047
-484.420	-200.000	0.129	0.001
-483.405	292.506	0.110	0.200
-482.391	-66.321	0.196	-0.078
-481.376	800.000	-0.056	-0.222
-480.362	-55.503	0.331	0.148
-479.347	-147.904	-0.217	0.018
-478.332	-29.919	0.124	0.071
-477.318	-42.421	-0.282	0.143
-476.303	-200.000	-0.042	0.293
-475.289	146.639	-0.120	0.161
-474.274	-200.000	-0.015	-0.073
-473.259	-200.000	-0.059	0.265
-472.245	-200.000	-0.034	0.253
-471.230	800.000	0.054	0.216
-470.216	-200.000	0.006	0.054
-469.201	800.000	0.018	-0.076
-468.186	-190.851	0.415	-0.004
-467.172	-58.586	-0.096	-0.041
-466.157	71.279	-0.186	-0.192
-465.143	-140.901	0.066	-0.007
-464.128	283.908	-0.057	-0.101
-463.113	-200.000	0.007	0.197
-462.099	-103.488	0.110	-0.026
-461.084	-26.468	-0.170	-0.100
-460.070	-0.099	-0.345	0.245
-459.055	447.196	-0.145	0.318
-458.040	800.000	0.019	0.068
-457.026	403.808	-0.069	0.146
-456.011	94.157	0.155	-0.175
-454.997	507.818	-0.076	0.176
-453.982	-74.638	-0.274	-0.098
-452.968	203.906	-0.142	0.219
-451.953	71.108	-0.194	0.200
-450.938	800.000	0.039	0.122
-449.924	-140.346	0.130	-0.014
-448.909	-200.000	-0.021	-0.157
-447.895	15.173	-0.115	-0.090
-446.880	800.000	0.061	-0.179
-445.865	-127.506	-0.205	0.030
-444.851	169.019	0.065	-0.092
-443.836	783.706	0.044	-0.121
-442.822	-200.000	-0.042	0.322
-441.807	-72.383	0.269	-0.099
-440.792	-200.000	0.065	0.294
-439.778	-200.000	-0.027	0.261
-438.763	534.989	-0.044	0.104
-437.749	-141.445	0.192	-0.019
-436.734	426.379	-0.101	0.217
-435.719	276.569	-0.130	0.230
-434.705	-200.000	-0.019	0.169
-433.690	414.300	0.051	0.107
-432.676	-77.671	-0.171	0.059
-431.661	-171.806	0.475	0.016
-430.646	385.363	-0.082	-0.169
-429.632	-23.224	-0.179	-0.107
-428.617	146.256	-0.111	-0.148
-427.603	329.135	0.062	0.119
-426.588	-49.055	-0.401	-0.191
-425.573	-65.155	-0.100	-0.040
-424.559	-101.283	0.117	-0.029
-423.544	-182.750	0.037	0.001
-422.530	-82.564	0.085	-0.027
-421.515	800.000	0.071	0.238
-420.500	-81.273	-0.180	-0.059
-419.486	-82.668	0.269	0.087
-418.471	216.014	-0.089	0.141
-417.457	41.288	0.234	0.211
-416.442	-21.122	-0.138	0.084
-415.428	34.839	-0.110	-0.096
-414.413	-87.114	0.202	-0.061
-413.398	10.705	0.198	-0.151
-412.384	43.238	-0.080	-0.073
-411.369	316.757	0.057	0.107
-410.355	35.746	-0.261	0.229
-409.340	622.141	-0.145	0.363
-408.325	328.458	-0.196	-0.375
-407.311	-57.756	0.193	-0.084
-406.296	68.972	0.149	-0.152
-405.282	319.558	-0.117	0.220
-404.267	800.000	-0.032	0.102
-403.252	463.128	0.139	-0.308
-402.238	-113.286	-0.181	-0.035
-401.223	-200.000	-0.013	0.296
-400.209	-170.874	0.136	-0.005
-399.194	-8.694	-0.206	-0.137
-398.179	4.016	0.100	-0.073
-397.165	-91.472	0.460	-0.130
-396.150	-67.673	-0.228	0.089
-395.136	-199.667	0.247	-0.001
-394.121	-103.263	0.143	0.033
-393.106	183.063	-0.233	-0.341
-392.092	-42.605	0.144	0.073
-391.077	589.191	0.149	0.364
-390.063	222.610	-0.063	-0.101
-389.048	10.848	0.089	-0.067
-388.033	-200.000	-0.009	0.232
-387.019	567.982	-0.101	0.244
-386.004	618.817	0.067	0.166
-384.990	-79.844	-0.155	-0.052
-383.975	51.657	0.267	-0.253
-382.960	288.284	-0.051	-0.092
-381.946	-200.000	-0.022	0.175
-380.931	-200.000	-0.006	0.250
-379.917	159.737	0.172	-0.239
-378.902	-183.721	0.180	0.003
-377.888	-65.415	0.118	0.047
-376.873	-2.903	-0.223	0.155
-375.858	-200.000	-0.024	-0.317
-374.844	-25.801	0.155	0.091
-373.829	-117.128	-0.422	-0.076
-372.815	800.000	0.075	0.273
-371.800	-200.000	0.017	0.076
-370.785	26.594	-0.160	-0.133
-369.771	350.624	0.049	0.096
-368.756	191.530	0.137	0.205
-367.742	-200.000	-0.048	-0.268
-366.727	60.792	-0.057	-0.056
-365.712	44.936	-0.181	-0.166
-364.698	65.700	-0.101	-0.101
-363.683	-139.545	0.211	0.022
-362.669	-6.064	-0.146	-0.099
-361.654	129.739	0.036	-0.046
-360.639	95.678	0.122	-0.138
-359.625	-164.894	-0.096	0.004
-358.610	158.512	0.058	0.080
-357.596	-80.949	0.398	0.131
-356.581	-200.000	-0.006	-0.135
-355.566	152.420	-0.160	-0.216
-354.552	800.000	-0.100	0.307
-353.537	42.371	0.295	-0.266
-352.523	162.531	-0.241	0.335
-351.508	79.903	-0.052	-0.056
-350.493	-181.313	-0.095	0.002
-349.479	-141.038	0.182	0.018
-348.464	-11.486	-0.322	-0.210
-347.450	800.000	0.057	0.159
-346.435	-73.368	-0.066	0.024
-345.420	-9.887	0.042	-0.028
-344.406	-200.000	0.023	-0.490
-343.391	69.411	-0.045	-0.046
-342.377	131.097	-0.125	0.159
-341.362	-200.000	-0.050	-0.511
-340.348	54.358	-0.123	-0.117
-339.333	-200.000	-0.001	0.097
-338.318	-92.786	-0.150	0.042
-337.304	-200.000	-0.010	-0.143
-336.289	198.975	0.025	-0.038
-335.275	-200.000	0.037	0.316
-334.260	176.783	0.167	-0.241
-333.245	-85.420	-0.149	-0.046
-332.231	559.273	0.034	0.082
-331.216	61.124	-0.011	0.011
-330.202	-200.000	0.020	-0.260
-329.187	58.838	-0.248	0.242
-328.172	-200.000	-0.003	-0.087
-327.158	-200.000	-0.012	-0.254
-326.143	-89.422	-0.401	-0.117
-325.129	86.748	-0.068	-0.075
-324.114	-78.591	0.143	-0.048
-323.099	437.911	-0.189	0.409
-322.085	58.129	-0.233	-0.226
-321.070	104.795	0.137	-0.160
-320.056	-165.326	-0.342	0.015
-319.041	702.853	0.107	0.279
-318.026	-84.189	-0.031	-0.010
-317.012	29.700	-0.061	0.051
-315.997	-8.370	0.126	0.084
-314.983	-6.503	0.076	-0.052
-313.968	-200.000	-0.161	0.000
-312.953	-147.586	-0.118	-0.010
-311.939	-200.000	-0.002	0.055
-310.924	-200.000	-0.001	0.020
-309.910	186.111	0.149	-0.220
-308.895	295.365	-0.101	0.184
-307.880	-55.350	-0.220	0.098
-306.866	656.546	-0.041	-0.105
-305.851	-200.000	-0.007	0.150
-304.837	312.429	0.062	-0.115
-303.822	278.719	0.165	-0.291
-302.807	475.592	0.152	-0.339
-301.793	5.341	-0.291	-0.212
-300.778	-21.768	-0.162	-0.098
-299.764	-95.515	-0.243	0.065
-298.749	-121.962	-0.106	0.017
-297.735	66.632	-0.199	-0.201
-296.720	-148.024	0.118	0.010
-295.705	-128.747	-0.333	-0.046
-294.691	-29.773	0.135	-0.076
-293.676	-177.339	0.148	-0.004
-292.662	-200.000	-0.048	-0.300
-291.647	800.000	-0.039	-0.144
-290.632	-8.561	0.176	-0.117
-289.618	8.949	0.257	0.192
-288.603	-100.461	-0.315	0.077
-287.589	-200.000	-0.000	-0.127
-286.574	-178.400	-0.307	0.007
-285.559	99.106	-0.216	-0.247
-284.545	-200.000	0.045	0.204
-283.530	120.118	-0.172	-0.211
-282.516	800.000	-0.047	-0.141
-281.501	3.958	0.109	-0.079
-280.486	-72.746	0.224	-0.082
-279.472	-61.417	-0.227	-0.095
-278.457	-200.000	0.072	-0.328
-277.443	91.359	-0.202	-0.225
-276.428	83.502	0.196	-0.212
-275.413	-137.932	0.380	0.042
-274.399	136.568	0.059	-0.076
-273.384	186.710	0.066	0.097
-272.370	-162.105	0.124	0.006
-271.355	-200.000	0.030	-0.214
-270.340	-200.000	0.004	-0.259
-269.326	-53.091	0.014	0.006
-268.311	-200.000	0.070	0.374
-267.297	800.000	0.082	-0.326
-266.282	-72.988	0.204	-0.074
-265.267	-200.000	0.029	-0.188
-264.253	-52.265	-0.181	-0.083
-263.238	78.851	0.111	0.117
-262.224	-38.375	-0.062	-0.033
-261.209	43.854	0.237	0.215
-260.195	-200.000	0.012	0.057
-259.180	421.745	-0.079	-0.167
-258.165	19.170	0.277	-0.220
-257.151	-109.472	0.334	-0.070
-256.136	-200.000	0.005	-0.141
-255.122	401.343	-0.140	0.290
-254.107	79.009	0.061	-0.064
-253.092	-74.815	0.275	-0.098
-252.078	-200.000	-0.063	-0.322
-251.063	-121.759	0.136	-0.022
-250.049	173.723	0.143	-0.205
-249.034	131.992	0.153	0.195
-248.019	587.786	-0.017	-0.042
-247.005	-13.438	0.141	-0.090
-245.990	563.564	0.090	-0.214
-244.976	-146.219	-0.078	0.007
-243.961	-96.264	-0.157	0.041
-242.946	-141.577	-0.044	0.004
-241.932	-31.623	0.157	-0.087
-240.917	-200.000	-0.008	0.065
-239.903	123.886	-0.106	-0.131
-238.888	117.491	0.216	-0.262
-237.873	103.289	-0.322	0.373
-236.859	234.120	0.156	0.254
-235.844	49.291	0.067	-0.062
-234.830	70.062	-0.211	0.215
-233.815	800.000	-0.036	0.118
-232.800	800.000	0.063	0.258
-231.786	330.227	0.144	0.273
-230.771	466.375	-0.095	0.211
-229.757	-153.413	0.165	-0.011
-228.742	327.052	-0.022	0.042
-227.727	-4.447	0.194	0.133
-226.713	272.867	-0.085	-0.149
-225.698	75.792	-0.204	-0.213
-224.684	103.990	0.133	0.155
-223.669	-0.446	-0.338	0.237
-222.655	800.000	0.086	-0.284
-221.640	231.833	0.113	0.183
-220.625	35.602	-0.178	0.154
-219.611	-179.131	-0.204	-0.004
-218.596	-83.181	0.347	0.110
-217.582	-103.094	-0.436	0.102
-216.567	270.764	0.072	0.125
-215.552	-200.000	0.004	0.295
-214.538	-200.000	0.008	-0.231
-213.523	-90.312	0.027	0.008
-212.509	-200.000	-0.005	-0.166
-211.494	-200.000	0.229	-0.001
-210.479	-0.963	0.202	-0.141
-209.465	800.000	0.080	0.306
-208.450	800.000	0.049	0.151
-207.436	-107.802	0.246	-0.053
-206.421	-72.275	0.220	0.080
-205.406	-0.352	0.218	-0.153
-204.392	-132.375	0.109	-0.014
-203.377	24.324	0.486	-0.397
-202.363	41.274	-0.168	0.150
-201.348	800.000	0.076	-0.283
-200.333	-200.000	0.023	0.225
-199.319	16.726	-0.090	0.070
-198.304	800.000	-0.066	-0.231
-197.290	-200.000	0.013	0.083
-196.275	-73.091	0.217	-0.079
-195.260	-49.874	0.039	-0.018
-194.246	-52.469	-0.075	0.034
-193.231	367.714	0.085	-0.169
-192.217	39.294	-0.037	-0.032
-191.202	59.950	-0.262	0.255
-190.187	-127.617	0.329	0.047
-189.173	-37.310	0.181	0.095
-188.158	-183.395	-0.238	0.004
-187.144	-105.936	0.275	0.061
-186.129	43.680	-0.101	0.092
-185.114	9.525	-0.127	0.095
-184.100	800.000	-0.077	-0.314
-183.085	-44.018	0.147	0.073
-182.071	46.295	0.082	-0.075
-181.056	-200.000	0.017	-0.202
-180.042	606.648	0.097	0.237
-179.027	-10.953	0.267	0.174
-178.012	43.156	-0.106	0.096
-176.998	-89.138	0.254	-0.074
-175.983	-96.907	0.165	0.043
-174.969	-200.000	0.016	0.117
-173.954	-120.443	0.177	0.030
-172.939	-200.000	0.008	-0.151
-171.925	-200.000	-0.011	0.065
-170.910	800.000	-0.060	-0.222
-169.896	401.351	0.113	0.234
-168.881	-138.525	-0.098	-0.011
-167.866	-190.866	-0.349	-0.004
-166.852	-35.293	-0.192	0.103
-165.837	293.056	0.053	-0.095
-164.823	-200.000	-0.044	-0.308
-163.808	-44.491	-0.337	0.166
-162.793	-63.557	-0.153	0.062
-161.779	-95.071	-0.106	0.028
-160.764	283.524	0.020	0.036
-159.750	-146.830	-0.116	0.010
-158.735	47.488	0.061	0.056
-157.720	-52.682	-0.093	0.042
-156.706	23.835	0.182	-0.148
-155.691	800.000	-0.144	0.422
-154.677	-32.632	-0.419	0.230
-153.662	-200.000	-0.010	0.062
-152.647	-162.595	-0.097	0.005
-151.633	-138.648	-0.167	-0.018
-150.618	-200.000	0.047	0.210
-149.604	322.510	0.080	0.150
-148.589	20.122	-0.226	0.180
-147.574	-100.063	0.282	-0.069
-146.560	-200.000	0.015	-0.127
-145.545	-116.934	0.286	-0.052
-144.531	800.000	0.136	-0.445
-143.516	688.275	0.112	0.289
-142.502	133.218	0.041	0.052
-141.487	-157.643	-0.370	-0.022
-140.472	365.897	0.045	0.089
-139.458	449.209	-0.086	-0.187
-138.443	800.000	-0.071	0.226
-137.429	-96.944	-0.053	-0.014
-136.414	-112.107	-0.382	-0.076
-135.399	800.000	-0.070	-0.292
-134.385	65.296	-0.069	0.069
-133.370	-200.000	0.023	-0.401
-132.356	98.618	-0.206	-0.234
-131.341	130.365	0.121	-0.153
-130.326	151.284	-0.071	-0.095
-129.312	800.000	0.089	-0.309
-128.297	-200.000	0.025	0.274
-127.283	-200.000	0.024	0.124
-126.268	-60.799	-0.040	0.017
-125.253	-200.000	0.025	0.200
-124.239	-79.536	-0.416	-0.138
-123.224	-200.000	0.040	0.181
-122.210	800.000	0.070	0.256
-121.195	-103.320	0.398	0.092
-120.180	148.827	0.140	0.186
-119.166	-179.121	0.414	-0.009
-118.151	557.381	-0.056	0.134
-117.137	-200.000	0.004	-0.075
-116.122	-193.706	-0.113	-0.001
-115.107	-64.567	0.307	0.122
-114.093	327.965	-0.096	0.182
-113.078	-180.675	-0.100	0.002
-112.064	223.781	0.159	0.253
-111.049	45.579	-0.061	0.055
-110.034	-86.346	0.156	0.047
-109.020	82.415	0.178	-0.190
-108.005	96.434	0.206	0.231
-106.991	800.000	0.077	-0.282
-105.976	-200.000	-0.037	0.227
-104.962	800.000	0.098	0.351
-103.947	-200.000	0.040	0.246
-102.932	-200.000	0.025	-0.213
-101.918	56.304	0.071	0.068
-100.903	349.165	0.050	0.096
-99.889	681.851	0.045	0.115
-98.874	158.763	-0.147	0.200
-97.859	347.844	-0.155	0.300
-96.845	-200.000	-0.010	0.084
-95.830	258.742	-0.101	-0.171
-94.816	-200.000	-0.007	0.180
-93.801	-83.545	0.194	-0.061
-92.786	405.681	-0.085	-0.177
-91.772	-129.987	-0.173	-0.023
-90.757	-200.000	0.005	-0.110
-89.743	-200.000	-0.032	0.154
-88.728	-200.000	0.050	-0.407
-87.713	-60.804	-0.366	-0.152
-86.699	269.385	0.028	0.048
-85.684	132.706	0.088	0.112
-84.670	292.088	-0.108	0.194
-83.655	-139.560	0.164	-0.017
-82.640	285.176	0.024	-0.042
-81.626	-58.196	0.204	0.087
-80.611	-200.000	-0.016	0.073
-79.597	137.943	0.072	-0.093
-78.582	243.118	0.181	-0.298
-77.567	800.000	0.043	-0.131
-76.553	126.083	0.148	0.184
-75.538	215.252	0.105	-0.164
-74.524	-200.000	0.029	-0.133
-73.509	242.935	-0.130	-0.213
-72.494	-200.000	0.015	-0.162
-71.480	-23.170	0.262	0.155
-70.465	-200.000	-0.027	-0.181
-69.451	84.458	0.100	-0.108
-68.436	-22.445	-0.189	0.112
-67.422	-27.226	0.132	0.076
-66.407	-25.323	-0.123	-0.071
-65.392	13.344	-0.105	-0.080
-64.378	-77.838	0.400	-0.135
-63.363	-120.839	0.226	0.037
-62.349	-200.000	0.014	-0.141
-61.334	30.642	-1.271	-1.067
-60.319	50.334	0.432	0.400
-59.305	447.679	-0.498	-1.075
-58.290	560.805	0.474	1.124
-57.276	474.019	0.696	1.540
-56.261	-200.000	106.339	577.915
-55.246	457.663	1460.382	3184.147
-54.232	148.702	2652.239	3516.828
-53.217	100.072	2290.556	2605.552
-52.203	38.893	1903.598	1668.431
-51.188	33.106	1691.630	1438.698
-50.173	30.490	1648.710	1382.703
-49.159	48.658	1701.362	1564.711
-48.144	49.246	1716.621	1583.128
-47.130	32.659	1674.531	1420.563
-46.115	29.870	1660.657	1387.853
-45.100	29.822	1655.599	1383.212
-44.086	29.764	1652.917	1380.487
-43.071	29.771	1650.054	1378.095
-42.057	29.702	1647.948	1375.766
-41.042	29.834	1645.454	1374.612
-40.027	29.818	1643.768	1373.026
-39.013	29.683	1641.983	1370.480
-37.998	29.744	1640.172	1369.370
-36.984	29.789	1638.621	1368.349
-35.969	29.955	1636.816	1368.016
-34.954	29.908	1635.702	1366.685
-33.940	29.907	1634.491	1365.613
-32.925	29.852	1632.155	1363.202
-31.911	29.870	1630.842	1362.184
-30.896	29.867	1629.258	1360.784
-29.881	29.930	1627.129	1359.412
-28.867	29.823	1625.577	1357.274
-27.852	29.829	1624.540	1356.403
-26.838	29.874	1622.809	1355.230
-25.823	29.853	1621.875	1354.240
-24.809	29.962	1619.904	1353.342
-23.794	29.926	1618.640	1351.967
-22.779	29.840	1617.042	1349.952
-21.765	29.816	1615.552	1348.479
-20.750	29.821	1614.098	1347.250
-19.736	29.919	1612.417	1346.506
-18.721	29.956	1610.944	1345.494
-17.706	29.869	1609.399	1343.517
-16.692	29.913	1608.434	1342.975
-15.677	29.838	1607.029	1341.208
-14.663	29.842	1605.753	1340.117
-13.648	29.902	1604.389	1339.357
-12.633	29.854	1602.485	1337.367
-11.619	29.936	1600.585	1336.322
-10.604	29.915	1599.448	1335.169
-9.590	29.992	1597.855	1334.345
-8.575	29.988	1596.661	1333.261
-7.560	29.955	1596.025	1332.442
-6.546	29.952	1594.792	1331.334
-5.531	29.919	1593.962	1330.358
-4.517	29.839	1592.673	1328.651
-3.502	29.846	1591.685	1327.825
-2.487	29.967	1589.844	1327.105
-1.473	29.682	1577.889	1315.043
-0.458	27.057	1559.259	1280.980
0.556	21.986	1560.630	1251.772
1.571	19.668	1585.287	1254.627
2.586	19.415	1598.422	1263.058
3.600	17.811	1545.692	1209.917
4.615	9.948	1435.593	1071.650
5.629	1.870	1370.873	971.903
6.644	0.206	1362.342	955.220
7.659	0.167	1361.100	954.014
8.673	0.141	1359.469	952.626
9.688	-0.014	1357.840	950.414
10.702	-0.128	1354.701	947.419
11.717	3.766	1360.795	976.230
12.731	12.421	1374.549	1041.039
13.746	17.381	1381.551	1077.754
14.761	17.295	1379.602	1075.594
15.775	16.244	1377.077	1066.886
16.790	15.177	1374.415	1057.995
17.804	14.400	1372.050	1051.185
18.819	14.129	1370.815	1048.436
19.834	13.792	1369.286	1045.055
20.848	13.509	1368.199	1042.347
21.863	13.189	1367.133	1039.432
22.877	13.147	1366.143	1038.321
23.892	13.139	1364.452	1036.893
24.907	13.058	1364.188	1036.097
25.921	13.093	1363.538	1035.728
26.936	13.167	1362.223	1035.102
27.950	13.237	1360.754	1034.330
28.965	13.257	1359.889	1033.710
29.980	13.274	1359.450	1033.392
30.994	13.389	1358.502	1033.298
32.009	13.424	1357.491	1032.656
33.023	13.422	1356.541	1031.829
34.038	13.369	1355.453	1030.575
35.053	13.315	1354.424	1029.368
36.067	13.301	1353.067	1028.160
37.082	13.270	1352.350	1027.333
38.096	13.300	1351.447	1026.743
39.111	13.382	1350.604	1026.520
40.126	13.330	1349.529	1025.288
41.140	13.172	1349.044	1023.850
42.155	13.157	1348.411	1023.183
43.169	13.105	1348.448	1022.798
44.184	13.151	1348.105	1022.738
45.199	13.209	1347.220	1022.333
46.213	13.217	1347.022	1022.142
47.228	13.236	1346.052	1021.428
48.242	13.268	1344.399	1020.284
49.257	13.227	1342.895	1018.802
50.271	13.257	1342.033	1018.240
51.286	13.251	1340.757	1017.147
52.301	13.154	1339.577	1015.566
53.315	13.170	1338.696	1014.906
54.330	13.162	1337.322	1013.724
55.344	13.118	1336.376	1012.648
56.359	13.168	1335.457	1012.165
57.374	13.130	1334.328	1010.990
58.388	13.104	1333.787	1010.329
59.403	13.071	1333.334	1009.697
60.417	13.103	1332.529	1009.193
61.432	13.144	1331.037	1008.224
62.447	13.090	1330.291	1007.242
63.461	12.986	1329.395	1005.837
64.476	13.105	1327.883	1005.333
65.490	13.020	1327.065	1004.105
66.505	13.087	1325.270	1003.068
67.520	13.170	1323.676	1002.275
68.534	13.083	1322.996	1001.144
69.549	13.190	1321.742	1000.752
70.563	13.017	1320.687	998.820
71.578	12.990	1320.248	998.234
72.593	13.039	1318.826	997.370
73.607	12.963	1318.135	996.299
74.622	12.992	1317.006	995.533
75.636	12.925	1316.922	994.976
76.651	13.074	1315.561	994.757
77.666	13.081	1315.224	994.460
78.680	12.992	1314.801	993.515
79.695	13.013	1313.878	992.856
80.709	13.134	1312.727	992.621
81.724	13.138	1312.163	992.133
82.739	13.006	1311.605	990.829
83.753	13.211	1310.192	990.905
84.768	13.220	1309.268	990.170
85.782	13.352	1308.030	989.938
86.797	13.396	1306.467	988.932
87.812	13.197	1305.776	987.131
88.826	13.177	1304.841	986.219
89.841	13.260	1303.610	985.694
90.855	13.221	1302.638	984.641
91.870	13.291	1301.939	984.443
92.884	13.267	1301.138	983.607
93.899	13.345	1300.056	983.167
94.914	13.382	1299.108	982.585
95.928	13.431	1298.348	982.213
96.943	13.356	1297.589	981.103
97.957	13.215	1297.049	979.774
98.972	13.289	1295.817	979.194
99.987	13.381	1294.200	978.428
101.001	13.194	1293.693	976.858
102.016	13.399	1292.340	976.955
103.030	13.331	1291.656	975.950
104.045	13.372	1290.732	975.408
105.060	13.379	1289.789	974.653
106.074	13.150	1288.218	972.032
107.089	13.191	1287.120	971.359
108.103	13.090	1285.897	969.754
109.118	13.070	1284.707	968.657
110.133	13.162	1283.414	968.134
111.147	13.117	1282.323	966.963
112.162	13.284	1280.693	966.621
113.176	13.177	1280.023	965.406
114.191	13.229	1278.890	964.768
115.206	13.215	1277.567	963.604
116.220	13.156	1277.121	962.840
117.235	13.160	1276.099	962.010
118.249	13.251	1274.599	961.320
119.264	13.085	1273.478	959.428
120.279	13.138	1272.659	959.031
121.293	13.111	1271.208	957.696
122.308	13.107	1270.551	957.093
123.322	13.113	1269.291	956.096
124.337	13.166	1268.404	955.646
125.352	13.236	1267.127	955.008
126.366	13.176	1266.072	953.782
127.381	13.183	1265.003	952.931
128.395	13.128	1263.950	951.735
129.410	13.121	1263.278	951.107
130.424	13.162	1262.407	950.601
131.439	13.213	1261.511	950.135
132.454	13.198	1260.485	949.195
133.468	13.216	1259.627	948.566
134.483	13.197	1259.005	947.904
135.497	13.221	1257.878	947.114
136.512	13.219	1256.627	946.076
137.527	13.281	1255.247	945.308
138.541	13.272	1253.768	944.055
139.556	13.271	1252.704	943.168
140.570	13.309	1251.436	942.347
141.585	13.459	1249.931	941.984
142.600	13.308	1249.106	940.417
143.614	13.409	1247.939	940.029
144.629	13.404	1247.108	939.290
145.643	13.448	1245.869	938.524
146.658	13.312	1245.046	937.053
147.673	13.327	1243.452	935.857
148.687	13.366	1242.276	935.108
149.702	13.316	1240.993	933.779
150.716	13.375	1239.359	932.799
151.731	13.312	1238.773	931.916
152.746	13.359	1237.258	930.958
153.760	13.343	1236.568	930.270
154.775	13.388	1235.343	929.520
155.789	13.307	1234.340	928.224
156.804	13.367	1233.172	927.605
157.819	13.528	1231.531	927.190
158.833	13.494	1230.836	926.392
159.848	13.601	1230.017	926.290
160.862	13.516	1229.188	925.110
161.877	13.536	1227.963	924.220
162.892	13.434	1227.128	922.942
163.906	13.375	1226.329	921.926
164.921	13.488	1225.216	921.641
165.935	13.429	1224.436	920.642
166.950	13.449	1223.679	920.104
167.964	13.416	1222.837	919.208
168.979	13.555	1221.887	919.183
169.994	13.586	1221.303	918.833
171.008	13.599	1220.555	918.261
172.023	13.591	1219.614	917.426
173.037	13.727	1218.629	917.357
174.052	13.578	1218.013	915.989
175.067	13.587	1217.084	915.260
176.081	13.584	1215.927	914.290
177.096	13.559	1214.997	913.372
178.110	13.577	1214.245	912.825
179.125	13.598	1212.402	911.477
180.140	13.486	1211.804	910.329
181.154	13.583	1210.757	909.997
182.169	13.606	1209.197	908.867
183.183	13.596	1208.759	908.407
184.198	13.745	1207.121	907.908
185.213	13.724	1205.731	906.665
186.227	13.790	1204.987	906.391
187.242	13.859	1203.558	905.609
188.256	13.910	1202.467	904.986
189.271	13.795	1201.861	903.823
190.286	13.729	1201.084	902.803
191.300	13.659	1200.137	901.629
192.315	13.603	1199.743	900.951
193.329	13.669	1198.903	900.596
194.344	13.706	1198.253	900.229
195.359	13.626	1198.069	899.579
196.373	13.709	1197.223	899.313
197.388	13.770	1196.845	899.280
198.402	13.976	1195.942	899.639
199.417	13.972	1195.242	899.007
200.432	13.984	1194.545	898.470
201.446	14.029	1193.624	897.942
202.461	14.055	1192.524	897.175
203.475	14.125	1191.446	896.662
204.490	14.035	1190.553	895.427
205.504	13.954	1189.221	893.906
206.519	14.093	1188.160	893.778
207.534	14.003	1186.899	892.266
208.548	13.989	1185.990	891.431
209.563	13.998	1185.241	890.838
210.577	14.053	1184.134	890.219
211.592	14.187	1183.255	890.200
212.607	14.089	1182.845	889.288
213.621	14.103	1182.078	888.708
214.636	14.146	1181.094	888.116
215.650	14.238	1179.978	887.690
216.665	14.184	1179.164	886.710
217.680	14.277	1178.230	886.428
218.694	14.284	1177.345	885.718
219.709	14.178	1177.084	884.882
220.723	14.261	1176.087	884.495
221.738	14.294	1175.361	884.047
222.753	14.196	1174.853	883.067
223.767	14.377	1173.414	882.864
224.782	14.353	1173.545	882.755
225.796	14.302	1173.020	882.016
226.811	14.399	1171.836	881.560
227.826	14.370	1171.190	880.841
228.840	14.344	1170.531	880.132
229.855	14.273	1169.937	879.231
230.869	14.305	1168.958	878.584
231.884	14.269	1168.121	877.692
232.899	14.330	1167.652	877.584
233.913	14.183	1166.791	876.081
234.928	14.318	1165.585	875.812
235.942	14.319	1165.103	875.375
236.957	14.239	1164.412	874.357
237.972	14.360	1163.568	874.280
238.986	14.335	1163.027	873.668
240.001	14.390	1162.502	873.483
241.015	14.360	1161.453	872.459
242.030	14.353	1160.785	871.847
243.045	14.459	1159.899	871.655
244.059	14.473	1159.361	871.251
245.074	14.533	1158.343	870.719
246.088	14.501	1156.819	869.333
247.103	14.567	1156.327	869.228
248.117	14.523	1156.130	868.773
249.132	14.619	1155.349	868.610
250.147	14.635	1154.444	867.936
251.161	14.842	1153.332	868.097
252.176	14.763	1153.177	867.496
253.190	14.862	1152.343	867.306
254.205	14.730	1152.163	866.409
255.220	14.797	1151.490	866.170
256.234	14.991	1150.739	866.537
257.249	14.878	1150.051	865.354
258.263	14.897	1149.387	864.876
259.278	14.818	1148.597	863.799
260.293	14.963	1148.231	864.198
261.307	14.921	1147.444	863.309
262.322	15.101	1146.464	863.426
263.336	15.017	1146.438	862.895
264.351	15.002	1145.766	862.237
265.366	15.063	1144.625	861.612
266.380	15.066	1144.045	861.119
267.395	15.085	1143.087	860.420
268.409	14.953	1142.990	859.588
269.424	14.919	1142.000	858.596
270.439	15.070	1141.407	858.850
271.453	15.037	1140.666	858.044
272.468	14.991	1140.148	857.344
273.482	15.038	1139.109	856.726
274.497	15.045	1138.178	855.989
275.512	15.101	1137.597	855.764
276.526	15.033	1137.423	855.206
277.541	15.040	1136.620	854.562
278.555	15.113	1135.696	854.165
279.570	15.186	1135.201	854.090
280.585	15.239	1134.114	853.469
281.599	15.199	1133.088	852.416
282.614	15.130	1132.784	851.758
283.628	15.190	1131.175	850.782
284.643	15.244	1130.164	850.218
285.657	15.180	1129.670	849.447
286.672	15.293	1128.837	849.319
287.687	15.301	1127.408	848.210
288.701	15.278	1127.088	847.773
289.716	15.232	1126.482	847.012
290.730	15.438	1125.237	847.043
291.745	15.362	1124.822	846.271
292.760	15.302	1124.304	845.505
293.774	15.461	1123.270	845.450
294.789	15.500	1122.699	845.141
295.803	15.492	1122.235	844.678
296.818	15.477	1121.814	844.211
297.833	15.436	1120.883	843.229
298.847	15.476	1119.726	842.487
299.862	15.478	1119.342	842.132
300.876	15.444	1118.922	841.570
301.891	15.444	1117.892	840.721
302.906	15.515	1117.175	840.466
303.920	15.499	1116.904	840.104
304.935	15.598	1115.910	839.777
305.949	15.654	1115.356	839.567
306.964	15.714	1114.857	839.414
307.979	15.623	1113.909	838.174
308.993	15.651	1113.394	837.851
310.008	15.680	1112.609	837.334
311.022	15.541	1111.983	836.097
312.037	15.644	1110.922	835.734
313.052	15.669	1110.008	835.100
314.066	15.615	1109.264	834.195
315.081	15.624	1108.203	833.371
316.095	15.549	1107.682	832.534
317.110	15.619	1106.923	832.234
318.125	15.576	1106.353	831.521
319.139	15.663	1105.596	831.306
320.154	15.602	1104.936	830.438
321.168	15.628	1104.299	830.014
322.183	15.660	1103.869	829.773
323.197	15.683	1103.046	829.195
324.212	15.774	1102.495	829.154
325.227	15.701	1102.212	828.509
326.241	15.677	1101.538	827.814
327.256	15.809	1100.338	827.486
328.270	15.740	1099.461	826.414
329.285	15.785	1098.640	825.945
330.300	15.760	1097.612	824.979
331.314	15.727	1096.633	824.006
332.329	15.766	1095.759	823.470
333.343	15.871	1094.920	823.276
334.358	15.854	1094.129	822.527
335.373	15.880	1093.533	822.134
336.387	15.812	1092.983	821.317
337.402	15.920	1092.066	821.081
338.416	15.982	1091.509	820.889
339.431	16.171	1090.267	820.804
340.446	16.108	1090.278	820.433
341.460	16.080	1089.504	819.643
342.475	16.067	1088.675	818.884
343.489	16.193	1088.087	818.982
344.504	16.125	1086.981	817.746
345.519	16.245	1086.172	817.643
346.533	16.178	1085.440	816.697
347.548	16.141	1085.008	816.123
348.562	16.168	1084.062	815.470
349.577	16.212	1082.918	814.748
350.592	16.183	1082.018	813.856
351.606	16.100	1081.665	813.121
352.621	16.224	1080.681	812.904
353.635	16.164	1080.254	812.225
354.650	16.242	1079.338	811.837
355.665	16.291	1078.527	811.390
356.679	16.159	1078.549	810.702
357.694	16.172	1077.840	810.163
358.708	16.311	1076.995	810.122
359.723	16.304	1076.597	809.717
360.738	16.234	1075.689	808.628
361.752	16.323	1075.166	808.590
362.767	16.400	1074.315	808.244
363.781	16.295	1074.329	807.684
364.796	16.476	1073.316	807.711
365.810	16.359	1072.754	806.661
366.825	16.532	1071.876	806.756
367.840	16.542	1071.734	806.625
368.854	16.654	1070.936	806.484
369.869	16.596	1070.268	805.633
370.883	16.536	1069.309	804.555
371.898	16.481	1068.440	803.569
372.913	16.589	1068.143	803.787
373.927	16.585	1067.502	803.216
374.942	16.550	1067.249	802.785
375.956	16.558	1066.865	802.465
376.971	16.648	1065.953	802.137
377.986	16.572	1065.307	801.221
379.000	16.671	1064.841	801.267
380.015	16.689	1064.678	801.156
381.029	16.791	1063.604	800.762
382.044	16.789	1062.952	800.188
383.059	16.702	1062.656	799.487
384.073	16.859	1061.072	798.962
385.088	16.782	1060.398	798.022
386.102	16.782	1059.613	797.359
387.117	16.741	1058.879	796.545
388.132	16.835	1057.785	796.095
389.146	16.822	1057.224	795.537
390.161	16.747	1056.419	794.511
391.175	16.746	1055.761	793.941
392.190	16.883	1055.050	793.980
393.205	16.913	1054.324	793.501
394.219	16.899	1053.343	792.629
395.234	16.919	1052.425	791.961
396.248	16.871	1051.932	791.294
397.263	16.796	1050.930	790.123
398.278	16.829	1049.893	789.427
399.292	16.913	1049.012	789.086
400.307	16.946	1048.088	788.474
401.321	16.889	1048.098	788.145
402.336	16.886	1047.152	787.353
403.350	16.863	1046.465	786.660
404.365	16.874	1046.071	786.345
405.380	16.978	1045.077	786.007
406.394	17.039	1044.211	785.571
407.409	17.034	1043.645	785.050
408.423	17.114	1043.054	784.909
409.438	17.006	1042.316	783.785
410.453	17.067	1041.862	783.653
411.467	17.114	1041.363	783.425
412.482	17.153	1040.122	782.602
413.496	17.251	1039.560	782.564
414.511	17.275	1038.708	781.963
415.526	17.168	1039.107	781.703
416.540	17.217	1038.657	781.519
417.555	17.333	1037.662	781.234
418.569	17.301	1037.187	780.661
419.584	17.275	1036.736	780.131
420.599	17.342	1036.311	780.053
421.613	103.072	1322.362	1468.904
422.628	94.475	1364.013	1469.023
