DTS Sentinel unit serial number:	SN413079Multiplexer serial number:	ORYXHardware model number:	OX4-SRSoftware version number:	ORYX F/W v4.00 Oryx Data Collector v3.7.2.0data status	okinstallation	princeton_trtdifferential loss correction	single-endedforward channel	channel 2reverse channel	N/Adate	2019/09/19time	08:59:35forward acquisition time	60.00reverse acquisition time	0.00gamma	496.2192k internal	0.2352k external	0.2352temperature offset calibration	1.0002default loss term (dB/km)	0.3790temperature slope calibration	1.0000multiplexer offset coefficient	1.0000multiplexer slope coefficient	1.0000fibre end	0.00T internal ref (°C)	21.44T ext. ref 1 (°C)	0.60T ext. ref 2 (°C)	17.78length (m)	temperature (°C)	Stokes	anti-Stokes-747.200	-162.987	0.330	0.016
-746.185	-149.482	-0.188	0.015
-745.171	791.707	-0.087	0.237
-744.156	-200.000	-0.041	0.313
-743.142	-113.408	-0.180	0.035
-742.127	-31.591	0.160	-0.090
-741.112	11.567	-0.076	0.058
-740.098	-114.619	-0.274	-0.052
-739.083	-200.000	0.014	0.106
-738.069	-94.095	-0.281	0.077
-737.054	85.702	-0.170	-0.186
-736.039	410.618	-0.122	0.257
-735.025	1.435	0.340	0.244
-734.010	-94.213	-0.026	-0.007
-732.996	-200.000	0.004	0.415
-731.981	-61.654	0.348	0.145
-730.966	-200.000	-0.032	-0.436
-729.952	184.600	0.045	0.067
-728.937	-18.623	-0.225	0.140
-727.923	246.816	-0.030	0.051
-726.908	-200.000	-0.053	-0.318
-725.894	76.775	-0.222	0.234
-724.879	69.340	-0.143	0.147
-723.864	323.516	0.128	0.243
-722.850	23.332	-0.306	-0.251
-721.835	-44.396	-0.061	0.030
-720.821	242.234	-0.027	-0.046
-719.806	-27.284	-0.132	0.076
-718.791	639.000	-0.111	-0.281
-717.777	117.539	-0.131	0.161
-716.762	390.273	0.106	-0.219
-715.748	-139.247	-0.384	0.041
-714.733	800.000	-0.155	0.478
-713.718	800.000	0.065	-0.227
-712.704	43.899	-0.084	-0.076
-711.689	-200.000	0.011	0.069
-710.675	-48.676	-0.200	0.096
-709.660	-200.000	0.011	0.085
-708.645	-200.000	-0.010	-0.138
-707.631	-154.921	0.052	-0.003
-706.616	-145.963	-0.045	-0.004
-705.602	9.639	-0.167	0.126
-704.587	-89.240	-0.141	0.041
-703.572	8.350	-0.065	-0.048
-702.558	800.000	-0.072	-0.274
-701.543	-74.814	-0.372	0.133
-700.529	380.281	-0.085	0.173
-699.514	588.597	0.074	0.182
-698.499	-65.700	-0.203	0.081
-697.485	-200.000	-0.006	0.285
-696.470	196.873	0.028	0.042
-695.456	445.689	-0.149	0.326
-694.441	167.562	0.132	-0.186
-693.426	381.645	-0.083	0.170
-692.412	-179.774	-0.142	-0.003
-691.397	-60.199	0.107	0.045
-690.383	-7.734	-0.284	-0.191
-689.368	29.922	0.196	-0.166
-688.354	372.474	-0.093	0.189
-687.339	91.254	0.212	0.237
-686.324	-10.733	-0.168	-0.110
-685.310	-200.000	-0.032	-0.374
-684.295	-200.000	0.003	0.157
-683.281	-121.510	0.179	-0.030
-682.266	167.900	0.080	-0.113
-681.251	57.726	0.175	-0.171
-680.237	-121.040	0.258	-0.043
-679.222	-77.330	-0.251	0.087
-678.208	800.000	-0.053	-0.165
-677.193	-92.838	-0.069	-0.019
-676.178	-37.916	-0.109	0.058
-675.164	37.390	-0.184	-0.162
-674.149	-55.104	0.182	-0.081
-673.135	125.429	-0.092	-0.115
-672.120	-200.000	0.059	-0.312
-671.105	56.285	0.066	-0.063
-670.091	48.445	-0.211	-0.196
-669.076	-160.652	0.190	-0.010
-668.062	-97.868	0.238	-0.061
-667.047	-200.000	0.049	0.230
-666.032	-128.944	0.051	0.007
-665.018	-44.494	0.142	-0.071
-664.003	-47.666	-0.349	-0.168
-662.989	-200.000	0.051	0.369
-661.974	800.000	0.040	-0.139
-660.959	-150.682	0.166	-0.013
-659.945	291.763	-0.079	0.143
-658.930	-83.422	0.071	-0.023
-657.916	51.766	-0.061	0.058
-656.901	-115.681	-0.143	0.027
-655.886	-114.240	-0.384	-0.074
-654.872	40.247	0.145	0.130
-653.857	42.526	-0.213	-0.193
-652.843	-176.926	-0.279	0.007
-651.828	800.000	-0.082	-0.233
-650.814	-49.910	-0.062	0.029
-649.799	-102.337	-0.249	0.059
-648.784	67.002	-0.055	-0.056
-647.770	229.485	0.156	0.253
-646.755	-50.715	-0.122	0.057
-645.741	-200.000	-0.056	-0.318
-644.726	35.193	0.150	-0.131
-643.711	20.113	0.371	-0.297
-642.697	-187.419	-0.254	-0.003
-641.682	-19.779	-0.246	-0.151
-640.668	-78.950	0.488	0.165
-639.653	-200.000	0.014	-0.170
-638.638	17.724	0.132	0.104
-637.624	0.295	-0.374	-0.265
-636.609	-75.316	0.215	0.076
-635.595	-200.000	-0.091	0.440
-634.580	-25.207	-0.284	0.167
-633.565	281.274	0.150	-0.266
-632.551	29.476	-0.111	0.093
-631.536	-200.000	0.022	-0.157
-630.522	800.000	-0.040	-0.151
-629.507	800.000	-0.070	-0.224
-628.492	-121.409	-0.243	-0.040
-627.478	187.563	-0.249	0.369
-626.463	-121.705	0.232	0.038
-625.449	42.222	0.117	0.106
-624.434	370.462	-0.158	0.317
-623.419	-200.000	-0.020	0.126
-622.405	15.681	-0.218	0.170
-621.390	79.761	0.113	0.121
-620.376	149.931	0.136	0.183
-619.361	-98.336	-0.211	-0.054
-618.346	-200.000	0.027	-0.248
-617.332	34.187	0.196	0.169
-616.317	38.764	-0.154	-0.137
-615.303	-44.466	0.131	0.065
-614.288	-200.000	0.008	-0.261
-613.273	-200.000	-0.023	-0.163
-612.259	51.652	0.109	0.103
-611.244	-92.516	0.253	-0.071
-610.230	-182.261	-0.347	0.006
-609.215	164.944	-0.135	0.189
-608.201	-156.049	-0.127	-0.008
-607.186	-91.734	-0.286	-0.081
-606.171	89.015	-0.065	0.072
-605.157	110.593	0.090	-0.107
-604.142	-103.816	-0.426	-0.099
-603.128	-110.279	0.211	0.044
-602.113	-148.647	-0.356	-0.029
-601.098	16.689	-0.174	-0.137
-600.084	-46.260	-0.078	0.038
-599.069	-110.388	-0.174	0.036
-598.055	-167.807	-0.311	-0.012
-597.040	-100.238	-0.276	-0.068
-596.025	199.198	-0.173	0.263
-595.011	72.726	-0.071	-0.073
-593.996	-68.978	-0.263	0.101
-592.982	-54.718	-0.173	0.077
-591.967	-200.000	-0.129	-0.592
-590.952	-200.000	0.044	-0.204
-589.938	82.920	-0.073	-0.079
-588.923	-83.033	0.215	-0.069
-587.909	-66.360	0.181	0.071
-586.894	-68.194	0.357	0.138
-585.879	-200.000	-0.007	-0.136
-584.865	24.901	-0.209	-0.172
-583.850	-91.019	0.256	0.073
-582.836	76.698	0.198	0.208
-581.821	36.495	-0.257	-0.225
-580.806	789.709	-0.062	0.168
-579.792	329.702	0.153	-0.292
-578.777	374.844	-0.148	-0.299
-577.763	-84.123	-0.136	-0.043
-576.748	28.329	-0.134	-0.113
-575.733	-36.384	0.458	0.244
-574.719	-105.350	-0.182	-0.041
-573.704	64.399	0.145	-0.145
-572.690	126.871	-0.112	-0.141
-571.675	26.396	0.147	0.121
-570.661	43.004	-0.150	-0.135
-569.646	-89.669	0.128	-0.037
-568.631	8.579	0.131	-0.098
-567.617	440.580	0.113	-0.246
-566.602	2.822	-0.185	0.133
-565.588	20.275	-0.165	-0.132
-564.573	800.000	0.096	-0.296
-563.558	433.903	-0.045	-0.096
-562.544	-20.106	0.167	-0.102
-561.529	24.577	-0.419	-0.343
-560.515	-170.673	0.176	0.006
-559.500	-34.287	-0.136	-0.074
-558.485	-200.000	0.012	0.073
-557.471	-200.000	-0.015	0.335
-556.456	13.907	0.323	-0.249
-555.442	800.000	0.039	0.158
-554.427	373.479	-0.063	-0.126
-553.412	-37.361	-0.085	0.045
-552.398	-127.509	-0.119	-0.017
-551.383	-200.000	0.012	-0.158
-550.369	380.844	-0.109	0.222
-549.354	-100.297	0.242	0.060
-548.339	-52.529	0.156	0.071
-547.325	-200.000	0.023	0.315
-546.310	-117.629	-0.244	0.044
-545.296	150.775	-0.162	-0.218
-544.281	329.970	-0.045	-0.087
-543.266	432.761	-0.095	0.203
-542.252	800.000	-0.051	0.196
-541.237	173.798	0.117	-0.167
-540.223	-44.497	0.061	0.030
-539.208	-100.268	0.296	0.073
-538.193	-35.503	0.082	-0.044
-537.179	-178.249	-0.152	-0.004
-536.164	-155.136	0.392	-0.025
-535.150	38.184	0.143	-0.126
-534.135	-161.130	-0.208	0.011
-533.121	72.575	0.157	0.162
-532.106	460.323	0.049	-0.108
-531.091	65.326	-0.215	-0.215
-530.077	-200.000	-0.005	-0.073
-529.062	91.315	-0.092	-0.102
-528.048	-87.242	0.400	-0.120
-527.033	-0.396	-0.174	0.122
-526.018	-65.067	0.133	0.053
-525.004	-200.000	0.035	-0.213
-523.989	0.550	-0.396	-0.280
-522.975	-63.855	-0.150	0.061
-521.960	-152.170	-0.113	-0.008
-520.945	-133.457	0.316	0.039
-519.931	-53.763	0.116	-0.052
-518.916	645.050	0.031	0.078
-517.902	495.039	0.064	-0.145
-516.887	262.730	-0.023	-0.040
-515.872	-200.000	-0.028	-0.160
-514.858	-200.000	-0.006	-0.262
-513.843	800.000	0.064	0.275
-512.829	179.603	-0.243	0.352
-511.814	-73.841	0.296	-0.106
-510.799	-65.022	0.143	-0.057
-509.785	-81.984	0.157	0.051
-508.770	-200.000	0.005	-0.052
-507.756	600.573	0.092	0.227
-506.741	246.322	0.161	0.268
-505.726	212.607	0.218	0.340
-504.712	-200.000	-0.030	0.153
-503.697	550.221	0.091	-0.216
-502.683	-159.678	0.229	0.013
-501.668	227.755	0.070	0.112
-500.653	-15.044	0.137	-0.087
-499.639	433.976	0.090	-0.193
-498.624	800.000	0.055	0.190
-497.610	768.949	-0.038	-0.101
-496.595	376.336	0.119	0.239
-495.581	369.826	0.162	-0.324
-494.566	386.737	0.023	-0.048
-493.551	74.851	0.147	0.153
-492.537	-21.035	0.255	-0.154
-491.522	118.913	-0.042	0.051
-490.508	-120.461	0.315	0.053
-489.493	-200.000	0.058	0.349
-488.478	157.875	-0.048	0.065
-487.464	341.148	-0.161	0.311
-486.449	328.466	-0.209	0.397
-485.435	-128.518	-0.410	0.057
-484.420	109.158	-0.122	0.144
-483.405	141.668	0.134	0.175
-482.391	800.000	-0.005	-0.016
-481.376	34.620	0.195	-0.168
-480.362	90.318	-0.121	0.134
-479.347	-29.396	0.104	-0.059
-478.332	59.258	-0.297	0.289
-477.318	-200.000	0.027	0.171
-476.303	552.716	-0.082	-0.194
-475.289	-97.376	0.068	0.017
-474.274	-200.000	-0.036	0.167
-473.259	76.209	0.300	0.313
-472.245	-65.546	-0.285	-0.113
-471.230	-99.370	0.087	-0.022
-470.216	103.786	-0.129	-0.150
-469.201	191.166	0.095	0.141
-468.186	-71.060	0.228	0.085
-467.172	-200.000	-0.016	-0.072
-466.157	-33.546	0.165	0.090
-465.143	-133.410	-0.331	0.041
-464.128	-200.000	-0.004	0.100
-463.113	-33.018	-0.206	0.112
-462.099	-118.908	0.290	0.050
-461.084	-96.892	0.093	-0.024
-460.070	-145.956	-0.417	0.036
-459.055	37.905	0.187	-0.164
-458.040	140.197	0.041	-0.053
-457.026	-129.713	0.190	-0.026
-456.011	792.507	-0.110	0.298
-454.997	-32.754	0.110	-0.061
-453.982	800.000	0.069	-0.278
-452.968	-187.886	0.017	0.000
-451.953	-200.000	0.016	-0.214
-450.938	302.724	-0.134	0.245
-449.924	-200.000	-0.004	0.406
-448.909	-24.383	-0.114	-0.067
-447.895	-49.345	0.290	0.137
-446.880	-128.616	-0.193	-0.027
-445.865	-168.019	0.244	0.009
-444.851	365.504	-0.097	-0.193
-443.836	110.541	-0.067	0.079
-442.822	222.723	-0.031	0.049
-441.807	800.000	-0.075	0.270
-440.792	166.830	0.023	0.032
-439.778	-200.000	0.039	0.184
-438.763	-61.357	0.339	0.141
-437.749	-90.332	-0.280	0.080
-436.734	-200.000	0.047	-0.289
-435.719	271.110	0.033	0.058
-434.705	-62.905	0.276	-0.113
-433.690	437.289	0.114	0.244
-432.676	-200.000	0.063	0.313
-431.661	-134.190	0.225	0.027
-430.646	-164.912	0.430	-0.019
-429.632	-200.000	0.027	-0.293
-428.617	800.000	-0.083	-0.235
-427.603	104.100	-0.146	-0.169
-426.588	-119.089	0.377	0.065
-425.573	800.000	-0.081	-0.240
-424.559	-180.878	-0.384	-0.008
-423.544	49.724	-0.183	-0.169
-422.530	293.750	0.185	-0.332
-421.515	-103.829	0.273	0.063
-420.500	67.216	0.050	-0.050
-419.486	151.875	-0.185	-0.249
-418.471	-200.000	-0.004	-0.066
-417.457	-38.520	0.191	-0.100
-416.442	-16.913	-0.159	0.099
-415.428	-121.401	0.374	-0.061
-414.413	-200.000	0.010	0.123
-413.398	213.725	-0.064	-0.099
-412.384	158.655	0.263	0.360
-411.369	-200.000	0.008	0.041
-410.355	45.521	-0.187	0.170
-409.340	-58.794	0.154	-0.065
-408.325	477.041	0.102	0.227
-407.311	800.000	0.035	0.139
-406.296	556.823	-0.127	-0.300
-405.282	-101.157	0.106	0.025
-404.267	-2.442	-0.094	0.065
-403.252	-87.724	-0.214	0.063
-402.238	-109.714	-0.170	0.035
-401.223	-146.859	0.211	0.018
-400.209	-52.399	-0.431	-0.196
-399.194	-42.459	-0.279	-0.140
-398.179	-78.575	0.112	0.038
-397.165	-76.354	0.105	-0.037
-396.150	5.877	-0.170	0.123
-395.136	-200.000	0.051	-0.225
-394.121	419.842	-0.032	-0.067
-393.106	173.494	-0.175	-0.248
-392.092	64.101	-0.179	0.177
-391.077	105.663	-0.059	0.069
-390.063	1.842	-0.483	0.343
-389.048	-143.451	0.313	-0.029
-388.033	800.000	0.015	-0.065
-387.019	-1.271	0.120	0.084
-386.004	800.000	0.042	0.144
-384.990	-38.581	0.143	0.074
-383.975	298.036	-0.105	0.190
-382.960	95.873	0.092	0.104
-381.946	800.000	0.106	-0.349
-380.931	129.554	0.106	-0.133
-379.917	-139.599	-0.176	0.018
-378.902	-113.861	-0.199	0.038
-377.888	-200.000	-0.026	0.189
-376.873	-1.955	-0.162	0.112
-375.858	-132.255	0.359	0.046
-374.844	-75.169	-0.265	0.093
-373.829	-104.558	-0.232	0.053
-372.815	-200.000	0.022	0.137
-371.800	-125.534	-0.379	0.057
-370.785	-45.070	-0.219	-0.107
-369.771	-140.871	-0.200	-0.020
-368.756	-76.544	0.179	-0.062
-367.742	-200.000	-0.011	0.122
-366.727	-22.554	-0.047	0.028
-365.712	87.721	-0.197	-0.215
-364.698	-115.941	-0.310	-0.057
-363.683	40.511	-0.308	-0.272
-362.669	-4.599	0.101	0.068
-361.654	12.560	-0.071	-0.054
-360.639	800.000	-0.078	-0.261
-359.625	-200.000	0.006	-0.039
-358.610	298.604	0.068	-0.122
-357.596	-42.515	0.096	0.048
-356.581	-86.621	-0.465	0.140
-355.566	800.000	0.085	-0.280
-354.552	-90.849	-0.244	-0.069
-353.537	194.005	0.075	0.112
-352.523	593.278	0.141	0.342
-351.508	-113.376	0.290	0.056
-350.493	246.206	0.087	-0.144
-349.479	-200.000	0.060	0.409
-348.464	-200.000	-0.201	0.001
-347.450	271.341	0.080	0.138
-346.435	-25.144	-0.354	-0.206
-345.420	462.684	-0.089	-0.195
-344.406	-200.000	-0.055	0.348
-343.391	800.000	0.066	-0.207
-342.377	-124.058	-0.062	-0.010
-341.362	152.759	-0.042	-0.056
-340.348	-200.000	-0.004	0.138
-339.333	1.641	0.189	-0.133
-338.318	131.198	-0.054	0.067
-337.304	90.362	-0.238	0.261
-336.289	89.647	0.193	-0.212
-335.275	-76.511	-0.226	0.078
-334.260	322.730	-0.050	-0.093
-333.245	176.204	-0.062	0.089
-332.231	-127.771	-0.342	0.048
-331.216	-200.000	0.022	0.192
-330.202	641.718	0.090	0.225
-329.187	101.615	-0.197	-0.225
-328.172	67.935	-0.185	-0.186
-327.158	-88.081	-0.077	0.023
-326.143	212.285	0.073	0.113
-325.129	-125.037	0.303	0.046
-324.114	-200.000	0.017	0.124
-323.099	273.172	0.013	0.023
-322.085	84.984	-0.133	-0.143
-321.070	-138.326	-0.180	-0.020
-320.056	-137.997	0.309	-0.034
-319.041	138.722	0.238	0.306
-318.026	-41.544	-0.290	0.146
-317.012	-78.728	0.212	0.071
-315.997	-200.000	-0.063	0.292
-314.983	-200.000	-0.021	0.403
-313.968	41.152	0.129	0.114
-312.953	800.000	0.053	-0.167
-311.939	-200.000	0.040	-0.249
-310.924	386.044	0.070	-0.142
-309.910	-76.021	0.218	-0.076
-308.895	30.170	-0.187	-0.156
-307.880	-142.288	0.317	-0.031
-306.866	-54.944	-0.124	0.055
-305.851	238.427	0.117	0.190
-304.837	-3.371	-0.111	-0.076
-303.822	-200.000	-0.069	-0.317
-302.807	286.540	0.097	0.172
-301.793	-124.516	0.307	0.047
-300.778	-200.000	-0.091	0.477
-299.764	178.349	-0.092	-0.131
-298.749	481.585	0.129	-0.287
-297.735	378.488	-0.120	-0.242
-296.720	-112.541	0.095	-0.018
-295.705	-48.352	-0.217	0.102
-294.691	-79.348	-0.271	0.090
-293.676	800.000	0.157	-0.466
-292.662	-8.903	-0.178	0.117
-291.647	10.336	0.048	0.036
-290.632	800.000	0.065	-0.235
-289.618	-200.000	-0.038	-0.292
-288.603	85.251	0.147	-0.158
-287.589	593.581	0.076	0.184
-286.574	611.644	0.053	-0.129
-285.559	-17.016	0.378	-0.234
-284.545	285.811	-0.108	-0.190
-283.530	-200.000	-0.032	0.150
-282.516	331.487	0.069	0.131
-281.501	141.192	-0.294	-0.381
-280.486	213.678	0.152	0.236
-279.472	-200.000	0.019	0.138
-278.457	-99.908	-0.245	0.060
-277.443	143.406	-0.262	0.342
-276.428	446.963	0.074	-0.158
-275.413	231.569	-0.040	-0.064
-274.399	800.000	0.083	0.280
-273.384	800.000	0.020	0.086
-272.370	161.876	-0.144	0.197
-271.355	-71.344	0.144	0.053
-270.340	88.972	0.173	0.188
-269.326	86.654	0.095	-0.102
-268.311	800.000	-0.025	0.096
-267.297	-200.000	0.006	0.344
-266.282	-78.874	0.084	0.028
-265.267	-47.122	-0.059	0.028
-264.253	67.771	-0.188	0.188
-263.238	-71.893	0.324	0.118
-262.224	-200.000	-0.011	0.093
-261.209	-23.553	-0.371	-0.218
-260.195	460.581	-0.040	0.087
-259.180	8.024	-0.233	-0.171
-258.165	-24.646	0.390	0.227
-257.151	800.000	-0.083	-0.227
-256.136	-200.000	-0.006	-0.362
-255.122	251.731	0.109	0.182
-254.107	800.000	0.072	0.210
-253.092	800.000	0.045	-0.175
-252.078	-200.000	0.083	0.476
-251.063	-85.965	0.448	-0.135
-250.049	23.343	0.254	0.204
-249.034	-154.447	0.213	0.014
-248.019	8.945	-0.182	-0.134
-247.005	-18.098	-0.382	-0.234
-245.990	-149.983	-0.605	0.046
-244.976	71.466	-0.038	0.038
-243.961	-88.394	0.250	-0.073
-242.946	187.452	0.074	0.108
-241.932	-200.000	0.005	0.199
-240.917	-90.660	-0.147	0.041
-239.903	800.000	-0.068	-0.286
-238.888	25.149	0.350	-0.284
-237.873	-96.930	-0.077	-0.020
-236.859	64.739	0.214	0.211
-235.844	-200.000	0.045	-0.300
-234.830	319.130	0.096	-0.178
-233.815	-9.503	-0.292	-0.191
-232.800	-81.148	0.278	-0.090
-231.786	-200.000	0.018	-0.088
-230.771	10.141	-0.153	-0.114
-229.757	-136.399	-0.432	0.049
-228.742	-200.000	0.096	0.413
-227.727	800.000	-0.063	0.181
-226.713	-14.995	-0.204	0.128
-225.698	-15.447	0.370	-0.231
-224.684	40.561	0.261	-0.230
-223.669	-200.000	-0.067	-0.388
-222.655	800.000	0.080	0.302
-221.640	222.482	0.111	-0.175
-220.625	230.177	0.082	0.130
-219.611	160.979	0.097	0.132
-218.596	-65.983	0.359	-0.140
-217.582	340.001	-0.062	0.118
-216.567	-69.714	-0.318	-0.119
-215.552	170.532	-0.039	-0.055
-214.538	-78.883	0.204	-0.068
-213.523	800.000	-0.053	0.196
-212.509	-66.758	0.106	0.041
-211.494	100.835	-0.151	-0.171
-210.479	-34.903	0.261	0.139
-209.465	800.000	0.065	-0.203
-208.450	-200.000	-0.002	0.103
-207.436	-81.158	0.063	-0.020
-206.421	-100.442	0.273	0.066
-205.406	800.000	0.032	-0.096
-204.392	92.781	0.077	-0.085
-203.377	-200.000	0.004	0.190
-202.363	391.948	-0.166	-0.337
-201.348	-162.518	-0.202	-0.010
-200.333	20.953	-0.152	0.120
-199.319	800.000	0.093	-0.282
-198.304	515.130	-0.078	-0.178
-197.290	0.012	-0.113	-0.079
-196.275	-34.484	0.168	-0.090
-195.260	153.578	0.362	0.485
-194.246	471.597	-0.096	-0.211
-193.231	96.566	-0.121	0.135
-192.217	733.185	-0.099	0.258
-191.202	30.609	-0.125	-0.105
-190.187	800.000	0.051	0.200
-189.173	-103.475	-0.074	-0.017
-188.158	321.909	-0.071	-0.133
-187.144	800.000	0.032	-0.098
-186.129	266.978	0.241	0.411
-185.114	420.950	-0.079	-0.165
-184.100	-200.000	0.056	-0.323
-183.085	-200.000	0.081	-0.352
-182.071	-200.000	-0.003	-0.181
-181.056	153.265	0.274	0.365
-180.042	11.207	-0.191	0.143
-179.027	-55.606	0.119	0.052
-178.012	-30.202	0.374	-0.207
-176.998	104.884	-0.198	-0.228
-175.983	-200.000	0.021	0.129
-174.969	163.013	-0.101	-0.139
-173.954	-200.000	0.002	-0.095
-172.939	-78.314	0.223	0.075
-171.925	-67.821	-0.490	0.187
-170.910	265.794	-0.111	-0.188
-169.896	228.601	-0.064	-0.102
-168.881	-189.100	0.274	-0.003
-167.866	800.000	-0.100	0.271
-166.852	-85.252	-0.061	0.019
-165.837	800.000	0.107	-0.313
-164.823	3.370	-0.181	0.129
-163.808	-43.885	-0.046	0.023
-162.793	-134.992	0.167	-0.020
-161.779	654.245	-0.114	-0.285
-160.764	-200.000	-0.045	0.194
-159.750	-200.000	-0.017	0.115
-158.735	-57.205	0.370	-0.159
-157.720	800.000	0.065	0.202
-156.706	40.381	0.190	-0.166
-155.691	97.707	0.208	0.233
-154.677	126.153	-0.269	-0.331
-153.662	-200.000	0.008	0.091
-152.647	64.178	0.090	0.088
-151.633	-78.161	0.298	-0.100
-150.618	800.000	-0.030	-0.097
-149.604	-24.802	-0.148	0.086
-148.589	719.065	-0.131	-0.340
-147.574	-140.838	-0.062	0.006
-146.560	-110.789	-0.177	0.036
-145.545	-81.971	0.068	-0.022
-144.531	413.492	-0.119	0.246
-143.516	-80.734	-0.149	0.048
-142.502	-200.000	-0.013	0.073
-141.487	-200.000	-0.056	-0.248
-140.472	-200.000	-0.000	-0.075
-139.458	375.005	0.062	0.122
-138.443	-13.428	-0.257	0.163
-137.429	731.616	-0.073	0.191
-136.414	-85.096	0.154	-0.047
-135.399	-64.556	0.363	0.143
-134.385	51.374	-0.293	-0.271
-133.370	122.241	-0.057	-0.070
-132.356	-77.612	-0.085	-0.029
-131.341	-31.198	-0.228	-0.125
-130.326	-14.538	0.282	-0.177
-129.312	800.000	-0.037	0.130
-128.297	-78.950	-0.107	-0.036
-127.283	335.224	-0.138	-0.260
-126.268	-200.000	-0.009	-0.054
-125.253	111.467	-0.032	0.037
-124.239	369.143	0.122	0.240
-123.224	-200.000	-0.036	0.197
-122.210	566.690	0.029	-0.068
-121.195	-32.964	-0.122	-0.066
-120.180	-49.263	0.332	0.154
-119.166	529.935	0.122	0.280
-118.151	545.317	0.117	-0.272
-117.137	-131.465	0.132	0.017
-116.122	-33.080	0.237	0.128
-115.107	774.062	-0.060	0.158
-114.093	61.962	-0.342	0.331
-113.078	-42.053	0.200	0.099
-112.064	-19.362	-0.379	-0.229
-111.049	-52.684	0.154	-0.069
-110.034	-139.217	-0.298	0.031
-109.020	-128.331	0.219	0.030
-108.005	-46.865	-0.439	0.209
-106.991	-144.769	0.126	-0.011
-105.976	-186.858	0.247	-0.003
-104.962	3.279	-0.079	-0.056
-103.947	800.000	0.092	-0.318
-102.932	-5.143	0.061	-0.041
-101.918	-129.446	-0.201	0.027
-100.903	-200.000	-0.010	-0.113
-99.889	461.643	-0.041	-0.089
-98.874	-68.380	-0.110	0.041
-97.859	-66.698	0.134	0.052
-96.845	-26.985	-0.070	0.040
-95.830	800.000	-0.110	0.366
-94.816	7.531	0.156	-0.114
-93.801	800.000	-0.046	-0.161
-92.786	124.979	-0.179	-0.220
-91.772	119.117	0.116	-0.140
-90.757	574.063	0.117	0.278
-89.743	339.458	0.063	-0.120
-88.728	120.901	-0.188	0.228
-87.713	800.000	0.131	-0.416
-86.699	159.711	-0.070	0.095
-85.684	800.000	-0.104	0.327
-84.670	52.196	0.113	-0.105
-83.655	-200.000	0.003	-0.194
-82.640	-180.110	-0.334	0.007
-81.626	126.781	-0.041	0.050
-80.611	-177.237	0.147	-0.004
-79.597	-125.391	-0.142	0.021
-78.582	-200.000	-0.084	0.379
-77.567	-57.671	0.174	0.074
-76.553	14.952	-0.074	0.056
-75.538	71.706	-0.117	-0.118
-74.524	189.883	-0.190	-0.277
-73.509	-200.000	0.021	0.135
-72.494	-200.000	0.027	-0.149
-71.480	-200.000	-0.006	0.222
-70.465	-112.222	-0.241	-0.047
-69.451	-132.218	0.252	0.032
-68.436	-86.813	-0.292	0.087
-67.422	-34.555	-0.110	-0.059
-66.407	-200.000	0.009	0.175
-65.392	-40.951	0.343	-0.172
-64.378	74.507	-0.124	-0.127
-63.363	242.178	-0.156	-0.253
-62.349	39.554	0.222	0.193
-61.334	188.750	-1.016	-1.476
-60.319	52.179	0.624	0.578
-59.305	-200.000	-0.329	-1.468
-58.290	290.742	0.898	1.585
-57.276	295.489	0.865	1.538
-56.261	-200.000	132.227	657.076
-55.246	342.385	1663.806	3160.565
-54.232	131.877	2829.801	3535.367
-53.217	84.024	2332.373	2472.711
-52.203	30.605	1922.345	1596.183
-51.188	24.410	1713.603	1375.225
-50.173	22.335	1674.908	1328.464
-49.159	44.205	1747.084	1555.662
-48.144	41.523	1757.424	1544.098
-47.130	23.979	1707.598	1366.875
-46.115	21.528	1691.898	1335.572
-45.100	21.290	1686.816	1329.699
-44.086	21.272	1684.368	1327.573
-43.071	21.217	1681.964	1325.211
-42.057	21.266	1679.797	1323.826
-41.042	21.316	1677.498	1322.340
-40.027	21.330	1675.955	1321.172
-39.013	21.294	1673.632	1319.017
-37.998	21.270	1672.724	1318.067
-36.984	21.335	1670.585	1316.821
-35.969	21.339	1669.365	1315.840
-34.954	21.460	1667.412	1315.155
-33.940	21.361	1665.869	1313.146
-32.925	21.361	1663.930	1311.561
-31.911	21.391	1662.230	1310.397
-30.896	21.466	1660.537	1309.571
-29.881	21.368	1659.570	1308.023
-28.867	21.446	1657.592	1306.993
-27.852	21.398	1656.744	1305.912
-26.838	21.376	1655.086	1304.396
-25.823	21.467	1653.366	1303.662
-24.809	21.460	1652.101	1302.560
-23.794	21.474	1650.697	1301.508
-22.779	21.438	1648.863	1299.744
-21.765	21.487	1647.486	1298.969
-20.750	21.390	1645.847	1296.909
-19.736	21.498	1644.581	1296.660
-18.721	21.519	1643.356	1295.797
-17.706	21.472	1641.821	1294.183
-16.692	21.508	1639.498	1292.568
-15.677	21.480	1639.104	1292.000
-14.663	21.502	1637.612	1290.940
-13.648	21.570	1635.666	1289.854
-12.633	21.563	1634.595	1288.907
-11.619	21.558	1633.290	1287.786
-10.604	21.512	1631.440	1285.942
-9.590	21.455	1630.518	1284.747
-8.575	21.522	1628.822	1283.846
-7.560	21.389	1627.926	1282.113
-6.546	21.528	1626.915	1282.286
-5.531	21.442	1625.882	1280.795
-4.517	21.540	1623.920	1279.910
-3.502	21.412	1623.378	1278.502
-2.487	21.606	1621.384	1278.296
-1.473	21.341	1609.440	1266.909
-0.458	18.924	1591.142	1235.112
0.556	14.614	1594.265	1207.988
1.571	12.561	1618.782	1211.353
2.586	12.330	1630.528	1218.323
3.600	11.513	1575.441	1171.199
4.615	6.504	1467.485	1057.314
5.629	1.562	1410.035	983.920
6.644	0.691	1402.865	973.219
7.659	0.576	1402.156	971.902
8.673	0.554	1401.092	970.940
9.688	0.570	1398.520	969.170
10.702	0.466	1394.876	965.895
11.717	2.869	1398.048	983.409
12.731	9.179	1407.957	1030.897
13.746	14.852	1416.148	1073.324
14.761	16.835	1419.175	1088.268
15.775	16.456	1417.415	1084.394
16.790	15.492	1414.438	1075.847
17.804	14.816	1412.048	1069.605
18.819	14.396	1410.857	1065.926
19.834	14.186	1409.665	1063.585
20.848	13.934	1408.278	1060.839
21.863	13.572	1407.158	1057.587
22.877	13.426	1405.885	1055.605
23.892	13.340	1405.249	1054.490
24.907	13.471	1404.036	1054.319
25.921	13.408	1402.996	1053.043
26.936	13.424	1402.595	1052.754
27.950	13.532	1401.255	1052.335
28.965	13.494	1400.596	1051.508
29.980	13.640	1398.956	1051.112
30.994	13.567	1398.977	1050.570
32.009	13.666	1397.176	1049.752
33.023	13.708	1395.983	1049.029
34.038	13.621	1394.907	1047.579
35.053	13.568	1393.937	1046.421
36.067	13.587	1392.353	1045.263
37.082	13.573	1391.785	1044.650
38.096	13.642	1390.894	1044.324
39.111	13.624	1390.046	1043.481
40.126	13.576	1388.997	1042.301
41.140	13.491	1388.266	1041.126
42.155	13.481	1387.983	1040.760
43.169	13.438	1387.973	1040.387
44.184	13.472	1386.484	1039.394
45.199	13.463	1387.569	1040.062
46.213	13.473	1386.375	1039.136
47.228	13.557	1385.260	1038.735
48.242	13.523	1384.289	1037.701
49.257	13.530	1382.619	1036.400
50.271	13.471	1381.009	1034.736
51.286	13.616	1379.680	1034.552
52.301	13.646	1378.558	1033.807
53.315	13.531	1377.425	1032.146
54.330	13.500	1376.462	1031.143
55.344	13.564	1374.966	1030.330
56.359	13.529	1374.113	1029.379
57.374	13.448	1373.455	1028.292
58.388	13.470	1372.578	1027.686
59.403	13.496	1371.578	1027.003
60.417	13.407	1370.952	1025.894
61.432	13.435	1370.030	1025.285
62.447	13.420	1368.786	1024.170
63.461	13.422	1367.933	1023.452
64.476	13.437	1366.577	1022.442
65.490	13.398	1365.584	1021.367
66.505	13.342	1364.115	1019.836
67.520	13.473	1362.806	1019.573
68.534	13.380	1361.688	1018.071
69.549	13.453	1360.210	1017.329
70.563	13.385	1359.237	1016.090
71.578	13.274	1358.469	1014.745
72.593	13.283	1357.862	1014.261
73.607	13.383	1356.007	1013.395
74.622	13.379	1355.393	1012.820
75.636	13.235	1354.867	1011.458
76.651	13.319	1353.824	1011.105
77.666	13.301	1353.511	1010.672
78.680	13.310	1352.993	1010.251
79.695	13.354	1352.210	1009.845
80.709	13.396	1350.988	1009.101
81.724	13.395	1350.264	1008.463
82.739	13.492	1349.531	1008.418
83.753	13.477	1348.210	1007.246
84.768	13.620	1346.940	1007.079
85.782	13.564	1345.719	1005.738
86.797	13.584	1344.177	1004.619
87.812	13.471	1343.052	1003.001
88.826	13.462	1342.073	1002.131
89.841	13.427	1341.106	1001.109
90.855	13.560	1340.062	1001.042
91.870	13.537	1339.133	1000.119
92.884	13.652	1337.973	999.859
93.899	13.614	1337.408	999.122
94.914	13.556	1337.010	998.387
95.928	13.702	1335.764	998.242
96.943	13.623	1334.908	997.043
97.957	13.525	1334.305	995.916
98.972	13.679	1332.834	995.654
99.987	13.509	1331.991	993.916
101.001	13.570	1330.934	993.406
102.016	13.648	1329.508	992.721
103.030	13.689	1328.980	992.481
104.045	13.530	1328.311	990.946
105.060	13.462	1327.099	989.545
106.074	13.585	1325.583	989.061
107.089	13.542	1324.399	987.835
108.103	13.556	1323.038	986.814
109.118	13.420	1322.080	985.206
110.133	13.489	1320.411	984.284
111.147	13.451	1319.283	983.129
112.162	13.510	1317.723	982.228
113.176	13.556	1316.373	981.408
114.191	13.584	1315.817	981.074
115.206	13.472	1314.864	979.616
116.220	13.572	1313.045	978.765
117.235	13.486	1312.298	977.612
118.249	13.566	1310.901	976.955
119.264	13.536	1309.894	975.941
120.279	13.526	1308.572	974.811
121.293	13.477	1307.765	973.834
122.308	13.582	1306.517	973.436
123.322	13.418	1306.054	972.045
124.337	13.456	1304.915	971.333
125.352	13.471	1303.419	970.223
126.366	13.463	1302.370	969.308
127.381	13.493	1301.675	968.882
128.395	13.502	1300.287	967.813
129.410	13.492	1299.003	966.714
130.424	13.513	1298.594	966.449
131.439	13.460	1297.416	965.174
132.454	13.537	1296.331	964.732
133.468	13.516	1295.383	963.818
134.483	13.585	1294.648	963.590
135.497	13.554	1293.520	962.483
136.512	13.541	1292.148	961.301
137.527	13.474	1290.831	959.850
138.541	13.555	1289.290	959.087
139.556	13.611	1288.497	958.738
140.570	13.624	1286.873	957.516
141.585	13.610	1285.750	956.518
142.600	13.675	1284.962	956.221
143.614	13.729	1284.180	955.868
144.629	13.764	1282.707	954.886
145.643	13.722	1281.818	953.897
146.658	13.806	1280.229	953.112
147.673	13.686	1279.047	951.459
148.687	13.742	1277.618	950.636
149.702	13.715	1276.208	949.345
150.716	13.639	1275.501	948.300
151.731	13.611	1274.325	947.183
152.746	13.647	1273.149	946.431
153.760	13.749	1271.461	945.674
154.775	13.830	1270.066	945.013
155.789	13.839	1269.250	944.375
156.804	13.871	1268.236	943.717
157.819	13.821	1267.236	942.609
158.833	13.804	1266.384	941.794
159.848	13.887	1265.158	941.270
160.862	13.948	1263.998	940.667
161.877	13.857	1263.129	939.425
162.892	13.848	1261.954	938.414
163.906	13.935	1260.916	938.050
164.921	13.858	1260.319	937.088
165.935	13.839	1259.722	936.456
166.950	13.852	1258.904	935.839
167.964	13.928	1257.827	935.384
168.979	13.910	1257.149	934.693
169.994	13.989	1256.086	934.265
171.008	13.882	1255.749	933.330
172.023	13.970	1254.754	933.003
173.037	13.952	1253.919	932.199
174.052	14.006	1252.939	931.692
175.067	13.986	1251.860	930.696
176.081	13.946	1250.775	929.582
177.096	13.966	1249.736	928.839
178.110	13.888	1249.032	927.795
179.125	13.969	1247.613	927.112
180.140	14.062	1245.956	926.319
181.154	13.971	1245.201	925.168
182.169	14.064	1244.039	924.739
183.183	14.003	1242.930	923.495
184.198	14.109	1241.663	923.061
185.213	14.108	1240.436	922.061
186.227	14.171	1238.955	921.230
187.242	14.161	1237.908	920.310
188.256	14.198	1237.249	919.948
189.271	14.241	1236.392	919.463
190.286	14.210	1234.730	917.976
191.300	14.184	1233.887	917.128
192.315	14.017	1233.543	915.868
193.329	14.132	1233.076	916.071
194.344	14.037	1232.415	914.980
195.359	14.217	1231.423	915.152
196.373	14.170	1230.993	914.490
197.388	14.185	1230.713	914.283
198.402	14.336	1229.885	914.418
199.417	14.343	1229.071	913.770
200.432	14.265	1228.745	913.021
201.446	14.363	1227.672	912.680
202.461	14.391	1226.545	911.916
203.475	14.420	1225.318	911.078
204.490	14.434	1224.257	910.287
205.504	14.395	1223.413	909.367
206.519	14.379	1221.919	908.089
207.534	14.396	1220.587	907.107
208.548	14.549	1219.446	907.016
209.563	14.358	1219.018	905.578
210.577	14.416	1218.172	905.183
211.592	14.521	1217.307	905.030
212.607	14.459	1216.566	904.060
213.621	14.471	1215.816	903.492
214.636	14.562	1214.795	903.144
215.650	14.516	1213.911	902.158
216.665	14.597	1212.775	901.673
217.680	14.629	1211.644	900.926
218.694	14.653	1211.085	900.560
219.709	14.700	1209.965	899.901
220.723	14.754	1209.185	899.529
221.738	14.685	1208.473	898.551
222.753	14.707	1207.975	898.217
223.767	14.751	1207.652	898.133
224.782	14.695	1207.032	897.294
225.796	14.698	1206.038	896.493
226.811	14.741	1205.495	896.239
227.826	14.714	1204.654	895.389
228.840	14.687	1204.175	894.811
229.855	14.754	1203.482	894.576
230.869	14.814	1202.356	893.980
231.884	14.751	1201.188	892.693
232.899	14.739	1200.409	891.974
233.913	14.814	1199.644	891.724
234.928	14.737	1199.182	890.891
235.942	14.741	1198.632	890.427
236.957	14.782	1197.748	889.907
237.972	14.831	1196.825	889.405
238.986	14.760	1196.100	888.409
240.001	14.747	1195.641	887.924
241.015	14.862	1194.831	887.854
242.030	14.777	1193.956	886.671
243.045	14.886	1192.825	886.334
244.059	15.110	1191.820	886.691
245.074	15.009	1191.429	885.788
246.088	14.860	1191.108	884.685
247.103	15.034	1189.747	884.515
248.117	14.897	1189.406	883.458
249.132	15.061	1188.330	883.448
250.147	15.109	1187.697	883.150
251.161	15.063	1186.853	882.204
252.176	15.093	1185.900	881.576
253.190	15.198	1185.315	881.615
254.205	15.200	1184.843	881.198
255.220	15.267	1184.099	880.915
256.234	15.209	1183.855	880.352
257.249	15.233	1182.754	879.581
258.263	15.255	1182.078	879.115
259.278	15.232	1181.454	878.453
260.293	15.322	1180.951	878.473
261.307	15.269	1180.447	877.743
262.322	15.351	1179.668	877.516
263.336	15.331	1179.329	877.084
264.351	15.383	1178.645	876.769
265.366	15.405	1178.019	876.339
266.380	15.433	1177.033	875.672
267.395	15.486	1175.941	875.058
268.409	15.460	1175.553	874.558
269.424	15.437	1175.034	873.974
270.439	15.382	1174.445	873.172
271.453	15.391	1173.552	872.482
272.468	15.414	1172.072	871.421
273.482	15.509	1171.519	871.426
274.497	15.337	1171.571	870.496
275.512	15.510	1170.389	870.435
276.526	15.430	1169.799	869.505
277.541	15.538	1168.903	869.323
278.555	15.598	1167.876	868.790
279.570	15.633	1167.229	868.415
280.585	15.530	1166.832	867.513
281.599	15.578	1165.546	866.725
282.614	15.673	1164.383	866.276
283.628	15.602	1163.218	864.962
284.643	15.495	1162.566	863.851
285.657	15.550	1162.006	863.642
286.672	15.553	1160.918	862.776
287.687	15.623	1159.888	862.291
288.701	15.665	1159.528	862.164
289.716	15.615	1158.411	861.001
290.730	15.663	1157.324	860.359
291.745	15.791	1156.521	860.343
292.760	15.774	1156.596	860.235
293.774	15.734	1155.792	859.356
294.789	15.789	1154.973	858.953
295.803	15.756	1154.431	858.303
296.818	15.793	1153.805	857.953
297.833	16.005	1152.680	858.119
298.847	15.802	1151.727	856.299
299.862	15.931	1151.028	856.360
300.876	15.902	1150.511	855.752
301.891	16.004	1149.716	855.603
302.906	15.981	1149.009	854.886
303.920	16.002	1148.241	854.345
304.935	15.994	1147.613	853.760
305.949	16.156	1146.539	853.705
306.964	16.129	1146.095	853.167
307.979	16.115	1145.049	852.238
308.993	16.124	1144.505	851.805
310.008	16.103	1143.942	851.205
311.022	16.082	1143.055	850.362
312.037	16.094	1141.935	849.518
313.052	16.034	1141.608	848.895
314.066	16.116	1140.064	848.084
315.081	16.049	1139.764	847.447
316.095	16.062	1138.678	846.633
317.110	16.101	1138.332	846.496
318.125	16.055	1137.782	845.783
319.139	16.052	1136.638	844.841
320.154	16.101	1136.081	844.598
321.168	16.046	1135.595	843.884
322.183	16.182	1134.510	843.682
323.197	16.162	1133.927	843.076
324.212	16.218	1133.404	842.893
325.227	16.171	1133.336	842.534
326.241	16.204	1132.539	842.031
327.256	16.206	1131.416	841.131
328.270	16.234	1130.414	840.453
329.285	16.139	1129.656	839.339
330.300	16.269	1128.630	839.152
331.314	16.229	1127.761	838.231
332.329	16.289	1126.787	837.731
333.343	16.242	1126.218	837.002
334.358	16.280	1125.142	836.318
335.373	16.283	1124.660	835.896
336.387	16.396	1123.592	835.587
337.402	16.326	1122.937	834.683
338.416	16.375	1122.406	834.458
339.431	16.461	1121.744	834.314
340.446	16.550	1120.490	833.747
341.460	16.541	1120.147	833.372
342.475	16.483	1119.417	832.472
343.489	16.557	1118.390	831.996
344.504	16.534	1117.483	831.134
345.519	16.576	1116.609	830.620
346.533	16.706	1115.679	830.493
347.548	16.553	1114.980	829.150
348.562	16.627	1114.285	828.919
349.577	16.664	1113.629	828.537
350.592	16.574	1112.676	827.319
351.606	16.476	1112.354	826.526
352.621	16.616	1111.460	826.473
353.635	16.614	1110.813	825.909
354.650	16.617	1109.956	825.210
355.665	16.729	1109.116	825.060
356.679	16.666	1108.759	824.414
357.694	16.622	1108.231	823.734
358.708	16.691	1107.729	823.622
359.723	16.633	1106.970	822.703
360.738	16.735	1106.214	822.568
361.752	16.801	1105.488	822.273
362.767	16.729	1105.221	821.654
363.781	16.779	1104.393	821.207
364.796	16.879	1103.505	820.956
365.810	16.927	1102.806	820.599
366.825	16.919	1102.411	820.194
367.840	16.969	1102.208	820.211
368.854	16.963	1101.236	819.389
369.869	16.969	1100.434	818.745
370.883	16.905	1099.599	817.746
371.898	17.028	1098.648	817.557
372.913	16.917	1098.530	816.861
373.927	17.015	1097.926	816.814
374.942	17.036	1097.270	816.352
375.956	17.091	1096.741	816.152
376.971	17.017	1095.909	815.104
377.986	17.024	1095.644	814.867
379.000	17.031	1095.192	814.495
380.015	17.102	1094.426	814.192
381.029	17.157	1093.784	813.909
382.044	17.263	1092.593	813.459
383.059	17.184	1092.095	812.638
384.073	17.203	1091.745	812.394
385.088	17.287	1090.511	811.805
386.102	17.237	1089.654	810.856
387.117	17.200	1088.706	809.901
388.132	17.129	1088.158	809.085
389.146	17.077	1086.999	807.904
390.161	17.239	1086.408	808.165
391.175	17.251	1085.585	807.536
392.190	17.372	1084.434	807.183
393.205	17.344	1083.843	806.538
394.219	17.329	1083.034	805.797
395.234	17.393	1082.039	805.285
396.248	17.352	1081.317	804.487
397.263	17.243	1080.218	803.081
398.278	17.410	1079.646	803.373
399.292	17.308	1079.152	802.451
400.307	17.306	1078.770	802.090
401.321	17.366	1077.673	801.486
402.336	17.294	1077.201	800.723
403.350	17.301	1076.140	799.895
404.365	17.326	1075.454	799.433
405.380	17.409	1074.713	799.202
406.394	17.479	1073.941	798.885
407.409	17.506	1073.499	798.611
408.423	17.556	1072.926	798.350
409.438	17.532	1072.125	797.571
410.453	17.548	1070.994	796.734
411.467	17.617	1070.585	796.682
412.482	17.570	1069.784	795.794
413.496	17.671	1069.159	795.732
414.511	17.652	1068.705	795.236
415.526	17.691	1068.129	794.920
416.540	17.700	1067.658	794.538
417.555	17.697	1067.059	794.011
418.569	17.733	1066.680	793.826
419.584	17.811	1066.028	793.633
420.599	17.733	1065.791	793.022
421.613	108.931	1331.506	1488.516
422.628	100.729	1370.190	1488.607
