DTS Sentinel unit serial number:	SN413079Multiplexer serial number:	ORYXHardware model number:	OX4-SRSoftware version number:	ORYX F/W v4.00 Oryx Data Collector v3.7.2.0data status	okinstallation	princeton_trtdifferential loss correction	single-endedforward channel	channel 2reverse channel	N/Adate	2019/09/12time	20:35:34forward acquisition time	60.00reverse acquisition time	0.00gamma	496.2192k internal	0.2327k external	0.2327temperature offset calibration	1.0180default loss term (dB/km)	0.3790temperature slope calibration	1.0000multiplexer offset coefficient	1.0000multiplexer slope coefficient	1.0000fibre end	0.00T internal ref (°C)	31.19T ext. ref 1 (°C)	3.68T ext. ref 2 (°C)	25.78length (m)	temperature (°C)	Stokes	anti-Stokes-747.200	-35.434	0.064	0.035
-746.185	109.386	-0.091	0.109
-745.171	-175.480	-0.098	-0.003
-744.156	-40.910	0.044	-0.023
-743.142	110.853	0.251	-0.305
-742.127	-130.644	-0.133	-0.018
-741.112	-84.647	-0.179	-0.057
-740.098	-20.693	0.428	0.265
-739.083	-200.000	0.001	-0.080
-738.069	689.836	0.049	0.129
-737.054	800.000	0.091	-0.308
-736.039	397.308	-0.060	0.126
-735.025	-200.000	0.009	-0.098
-734.010	-71.073	-0.366	-0.139
-732.996	800.000	0.080	-0.264
-731.981	-76.768	-0.267	0.094
-730.966	121.754	-0.077	0.097
-729.952	170.302	-0.183	0.264
-728.937	-119.696	-0.201	0.035
-727.923	122.232	-0.035	0.044
-726.908	-116.821	-0.183	-0.034
-725.894	466.446	0.055	-0.125
-724.879	302.705	-0.030	0.055
-723.864	183.547	0.011	-0.016
-722.850	800.000	-0.043	0.173
-721.835	-47.578	-0.190	-0.093
-720.821	-36.061	0.180	0.098
-719.806	250.392	0.080	0.138
-718.791	489.547	-0.096	-0.221
-717.777	-200.000	-0.043	-0.306
-716.762	118.941	0.106	-0.132
-715.748	44.975	0.097	-0.090
-714.733	-200.000	-0.022	0.211
-713.718	-46.406	-0.039	0.019
-712.704	314.917	-0.064	0.121
-711.689	-41.746	0.109	0.056
-710.675	-200.000	0.058	-0.460
-709.660	-200.000	0.025	0.349
-708.645	-7.601	0.127	-0.086
-707.631	313.089	0.051	-0.096
-706.616	800.000	0.087	-0.256
-705.602	800.000	-0.029	0.100
-704.587	-30.206	-0.195	-0.112
-703.572	-155.730	-0.282	0.018
-702.558	-191.021	-0.239	0.003
-701.543	-36.187	0.226	-0.123
-700.529	-200.000	-0.014	0.315
-699.514	-200.000	-0.028	0.127
-698.499	-82.399	-0.198	-0.065
-697.485	-144.397	-0.390	0.036
-696.470	-89.576	0.133	-0.039
-695.456	-57.274	0.180	0.080
-694.441	800.000	-0.101	0.300
-693.426	-51.239	-0.131	0.062
-692.412	800.000	0.092	-0.298
-691.397	-75.221	-0.205	-0.074
-690.383	71.295	-0.134	-0.140
-689.368	643.972	0.156	-0.400
-688.354	-84.228	-0.017	0.005
-687.339	715.520	0.055	-0.146
-686.324	186.869	-0.191	-0.286
-685.310	-200.000	0.016	0.239
-684.295	-28.416	0.079	-0.046
-683.281	800.000	0.054	0.229
-682.266	-87.349	0.239	0.073
-681.251	-24.116	0.140	-0.084
-680.237	303.234	0.204	-0.381
-679.222	-66.734	0.256	0.102
-678.208	-141.708	-0.239	-0.024
-677.193	-200.000	0.055	-0.266
-676.178	-200.000	-0.052	-0.296
-675.164	67.532	-0.148	0.152
-674.149	50.610	-0.093	-0.088
-673.135	172.532	-0.076	-0.110
-672.120	-68.301	-0.239	-0.093
-671.105	37.454	-0.171	0.153
-670.091	800.000	0.045	-0.138
-669.076	-180.363	-0.265	0.006
-668.062	184.207	0.170	0.253
-667.047	-1.539	-0.164	-0.116
-666.032	-130.693	-0.318	-0.043
-665.018	19.277	-0.145	0.117
-664.003	339.571	0.145	-0.285
-662.989	21.790	-0.140	-0.115
-661.974	800.000	-0.085	-0.250
-660.959	34.451	0.240	0.211
-659.945	-200.000	0.058	0.366
-658.930	-146.365	-0.399	-0.035
-657.916	-106.435	-0.369	-0.083
-656.901	-200.000	0.076	0.451
-655.886	32.985	-0.241	0.210
-654.872	124.756	-0.084	0.107
-653.857	-99.721	-0.229	-0.058
-652.843	35.857	-0.236	-0.208
-651.828	-200.000	-0.002	0.257
-650.814	279.843	-0.154	-0.276
-649.799	-200.000	0.053	-0.325
-648.784	-112.546	0.115	0.023
-647.770	-200.000	-0.226	0.001
-646.755	-200.000	0.026	-0.246
-645.741	716.145	0.124	0.331
-644.726	800.000	0.043	-0.135
-643.711	800.000	-0.144	-0.465
-642.697	-145.336	-0.233	0.021
-641.682	-200.000	0.004	0.119
-640.668	800.000	0.045	0.184
-639.653	-41.368	0.264	0.137
-638.638	-23.161	-0.081	0.049
-637.624	73.457	0.146	0.154
-636.609	-90.059	0.230	-0.067
-635.595	157.272	-0.170	-0.236
-634.580	-126.919	-0.107	-0.016
-633.565	-128.729	0.332	0.047
-632.551	279.419	0.138	-0.247
-631.536	30.131	-0.267	-0.229
-630.522	341.013	0.120	-0.235
-629.507	354.691	0.151	-0.302
-628.492	800.000	-0.046	-0.196
-627.478	-9.894	-0.210	-0.140
-626.463	-200.000	0.044	-0.250
-625.449	800.000	0.064	-0.211
-624.434	-13.835	-0.061	-0.040
-623.419	-128.263	-0.120	0.017
-622.405	800.000	0.024	0.082
-621.390	-52.952	-0.228	0.105
-620.376	-3.094	-0.221	-0.155
-619.361	466.870	-0.042	0.094
-618.346	223.509	-0.120	0.194
-617.332	-112.476	0.155	0.031
-616.317	111.417	0.134	0.162
-615.303	580.968	0.133	-0.327
-614.288	-20.473	0.136	-0.084
-613.273	36.719	0.109	0.097
-612.259	361.798	0.155	0.311
-611.244	232.477	0.005	-0.009
-610.230	30.933	-0.064	-0.055
-609.215	-200.000	-0.008	0.229
-608.201	404.851	-0.163	-0.345
-607.186	-71.301	-0.173	0.065
-606.171	-37.581	-0.071	0.038
-605.157	-200.000	-0.060	-0.369
-604.142	-200.000	-0.003	-0.262
-603.128	-200.000	0.009	-0.143
-602.113	22.690	-0.066	-0.054
-601.098	-68.232	0.371	0.145
-600.084	-73.172	-0.156	0.057
-599.069	116.447	0.042	-0.052
-598.055	-0.492	0.171	0.122
-597.040	492.564	-0.051	-0.117
-596.025	800.000	-0.086	0.374
-595.011	800.000	0.065	0.270
-593.996	315.250	-0.020	0.038
-592.982	-135.930	-0.092	-0.011
-591.967	-67.710	-0.224	0.088
-590.952	-105.149	-0.406	0.093
-589.938	-96.177	-0.311	0.083
-588.923	-38.698	0.302	-0.160
-587.909	-51.691	-0.175	0.082
-586.894	-163.799	0.069	0.003
-585.879	74.213	-0.212	-0.223
-584.865	800.000	0.042	0.122
-583.850	-71.950	-0.115	-0.043
-582.836	-41.798	-0.049	0.025
-581.821	-8.445	-0.094	0.063
-580.806	-70.138	0.073	0.028
-579.792	-58.103	0.261	-0.114
-578.777	47.667	0.191	-0.179
-577.763	671.016	-0.034	0.087
-576.748	-78.462	-0.041	0.014
-575.733	-34.576	-0.183	0.100
-574.719	188.458	0.127	0.191
-573.704	-200.000	-0.009	0.322
-572.690	-103.172	-0.169	0.040
-571.675	248.410	0.029	0.049
-570.661	-86.087	0.063	0.020
-569.646	-200.000	0.000	-0.129
-568.631	120.956	-0.328	-0.409
-567.617	-200.000	-0.294	0.000
-566.602	219.457	0.164	-0.263
-565.588	-92.337	-0.087	0.025
-564.573	800.000	0.068	-0.272
-563.558	48.126	0.088	-0.082
-562.544	148.319	-0.083	-0.113
-561.529	465.572	-0.138	0.309
-560.515	800.000	0.078	0.319
-559.500	453.147	0.030	0.067
-558.485	128.499	-0.016	0.021
-557.471	-200.000	-0.003	0.134
-556.456	673.155	0.086	0.223
-555.442	42.786	0.295	-0.269
-554.427	-200.000	-0.016	-0.093
-553.412	4.997	-0.248	0.182
-552.398	-200.000	0.030	0.195
-551.383	92.655	0.159	-0.179
-550.369	-7.622	0.133	0.090
-549.354	-62.181	-0.181	-0.075
-548.339	44.391	0.114	-0.105
-547.325	800.000	-0.019	-0.075
-546.310	207.403	0.084	-0.131
-545.296	34.912	-0.133	-0.116
-544.281	-116.815	0.493	-0.090
-543.266	-200.000	0.017	0.129
-542.252	67.499	-0.128	0.131
-541.237	4.355	0.183	-0.134
-540.223	-34.918	0.163	-0.089
-539.208	-200.000	0.005	-0.572
-538.193	-200.000	0.025	-0.147
-537.179	-200.000	-0.007	0.099
-536.164	60.859	0.066	0.066
-535.150	-200.000	0.011	0.204
-534.135	116.312	0.175	-0.214
-533.121	800.000	0.043	-0.161
-532.106	-170.491	-0.345	-0.012
-531.091	-96.818	-0.202	0.053
-530.077	-162.585	-0.274	-0.014
-529.062	111.435	-0.117	0.141
-528.048	-166.590	-0.407	-0.017
-527.033	7.156	0.122	-0.091
-526.018	117.658	-0.138	0.170
-525.004	206.157	-0.183	0.284
-523.989	-13.586	-0.296	0.192
-522.975	331.636	-0.060	0.115
-521.960	5.016	0.176	0.129
-520.945	-68.995	0.329	-0.127
-519.931	-200.000	-0.019	-0.393
-518.916	-200.000	-0.005	0.184
-517.902	-200.000	-0.009	-0.210
-516.887	84.454	-0.186	-0.203
-515.872	4.546	-0.040	-0.029
-514.858	-200.000	0.006	0.054
-513.843	69.621	0.124	-0.128
-512.829	-109.745	-0.170	-0.036
-511.814	109.748	-0.078	0.094
-510.799	51.389	-0.024	-0.023
-509.785	-117.189	-0.352	0.064
-508.770	800.000	-0.089	0.371
-507.756	-42.792	-0.270	0.137
-506.741	324.421	-0.032	0.062
-505.726	-10.281	0.229	0.152
-504.712	-53.052	0.066	-0.030
-503.697	441.283	-0.033	-0.072
-502.683	474.111	0.088	-0.197
-501.668	-55.616	0.235	0.105
-500.653	4.485	-0.347	-0.254
-499.639	800.000	-0.055	0.187
-498.624	184.667	0.099	0.147
-497.610	294.654	-0.083	0.151
-496.595	-187.766	0.243	0.003
-495.581	800.000	0.050	-0.163
-494.566	710.543	-0.144	-0.379
-493.551	-200.000	-0.013	0.288
-492.537	-97.510	0.438	0.114
-491.522	165.442	-0.181	-0.255
-490.508	-200.000	0.023	-0.118
-489.493	104.070	0.082	-0.096
-488.478	279.797	-0.025	0.045
-487.464	-69.651	-0.059	-0.023
-486.449	150.128	0.082	0.111
-485.435	741.698	-0.044	-0.118
-484.420	-92.447	0.255	-0.072
-483.405	-90.038	-0.081	-0.023
-482.391	-39.641	-0.228	-0.119
-481.376	121.011	-0.114	-0.141
-480.362	-112.023	-0.346	-0.070
-479.347	-38.860	-0.075	0.040
-478.332	-15.362	-0.075	-0.048
-477.318	86.723	0.192	-0.211
-476.303	397.305	0.050	0.105
-475.289	-200.000	0.046	0.467
-474.274	-200.000	-0.052	0.367
-473.259	-67.380	-0.501	-0.196
-472.245	92.188	0.091	0.103
-471.230	-200.000	0.037	0.168
-470.216	800.000	0.068	-0.229
-469.201	69.391	0.110	-0.113
-468.186	173.477	0.087	-0.125
-467.172	800.000	-0.070	0.265
-466.157	-126.795	-0.226	0.033
-465.143	-139.573	-0.115	0.012
-464.128	-200.000	0.017	-0.120
-463.113	-133.853	0.278	-0.034
-462.099	63.130	0.101	0.101
-461.084	81.687	0.194	0.209
-460.070	140.576	-0.100	-0.131
-459.055	124.570	0.147	-0.184
-458.040	82.846	-0.192	-0.208
-457.026	-200.000	0.008	-0.044
-456.011	-194.291	-0.193	-0.002
-454.997	-50.201	0.044	0.021
-453.982	-34.628	-0.152	-0.083
-452.968	-200.000	-0.061	-0.564
-451.953	-76.333	0.175	-0.061
-450.938	385.003	0.119	-0.245
-449.924	549.533	0.057	-0.136
-448.909	-200.000	0.057	0.000
-447.895	251.543	-0.149	-0.253
-446.880	-21.051	-0.147	-0.090
-445.865	33.732	-0.227	0.197
-444.851	-138.071	0.319	-0.035
-443.836	196.236	-0.139	-0.211
-442.822	-148.659	0.139	0.011
-441.807	57.153	-0.212	0.206
-440.792	12.071	-0.192	0.147
-439.778	-111.269	0.217	0.044
-438.763	-135.956	-0.061	-0.007
-437.749	-83.818	0.243	0.077
-436.734	800.000	0.096	0.338
-435.719	90.602	0.043	-0.048
-434.705	605.998	-0.091	-0.226
-433.690	-87.637	-0.278	0.084
-432.676	216.901	0.064	0.102
-431.661	29.741	-0.192	0.163
-430.646	-41.820	-0.122	-0.062
-429.632	57.031	0.029	0.028
-428.617	-87.158	-0.139	0.042
-427.603	100.954	-0.106	0.122
-426.588	-7.544	0.267	0.180
-425.573	427.366	-0.014	-0.030
-424.559	-200.000	0.013	-0.119
-423.544	18.318	0.268	0.213
-422.530	683.110	0.123	0.320
-421.515	35.567	-0.090	0.079
-420.500	59.779	-0.372	0.366
-419.486	-200.000	-0.016	0.073
-418.471	-200.000	0.057	-0.313
-417.457	800.000	-0.098	-0.294
-416.442	-200.000	-0.130	-0.781
-415.428	-200.000	-0.030	0.254
-414.413	-110.834	-0.206	-0.042
-413.398	-164.059	-0.230	-0.011
-412.384	-153.111	0.267	0.019
-411.369	-21.236	0.231	-0.140
-410.355	800.000	-0.017	-0.065
-409.340	692.440	0.040	0.104
-408.325	-76.397	-0.215	-0.075
-407.311	-42.078	0.161	-0.082
-406.296	141.791	-0.062	-0.081
-405.282	9.476	-0.181	-0.136
-404.267	210.513	0.133	0.208
-403.252	-200.000	-0.018	-0.173
-402.238	84.209	0.032	-0.034
-401.223	-1.794	-0.153	0.107
-400.209	-104.488	0.242	-0.056
-399.194	261.755	-0.141	-0.243
-398.179	208.651	-0.069	0.108
-397.165	-68.126	0.337	0.130
-396.150	185.502	0.041	0.061
-395.136	320.713	0.050	-0.094
-394.121	-57.708	-0.214	-0.093
-393.106	-22.232	-0.148	-0.089
-392.092	-70.092	0.057	0.022
-391.077	653.187	0.153	0.389
-390.063	50.279	-0.175	-0.164
-389.048	535.181	-0.074	-0.175
-388.033	-200.000	-0.004	0.059
-387.019	-151.624	-0.098	-0.007
-386.004	48.698	-0.060	0.056
-384.990	109.280	-0.159	0.189
-383.975	268.201	0.273	0.476
-382.960	800.000	0.109	0.334
-381.946	260.082	0.168	0.288
-380.931	93.846	0.124	-0.140
-379.917	-131.847	0.118	-0.015
-378.902	-70.452	-0.374	-0.141
-377.888	1.861	0.346	-0.248
-376.873	293.119	-0.029	-0.052
-375.858	142.877	-0.127	-0.168
-374.844	108.848	0.219	0.260
-373.829	800.000	-0.036	-0.128
-372.815	25.723	-0.189	0.157
-371.800	365.107	-0.159	0.318
-370.785	-200.000	0.120	0.594
-369.771	-75.127	0.065	-0.023
-368.756	-95.731	0.336	-0.089
-367.742	89.237	0.142	0.157
-366.727	-45.320	-0.030	0.015
-365.712	-136.481	0.265	-0.031
-364.698	761.219	0.065	-0.175
-363.683	-200.000	0.407	-0.001
-362.669	351.095	-0.039	0.077
-361.654	800.000	0.057	-0.188
-360.639	800.000	-0.020	0.077
-359.625	-200.000	-0.003	-0.110
-358.610	9.732	0.163	0.123
-357.596	144.734	-0.090	0.120
-356.581	172.364	0.157	0.225
-355.566	675.448	-0.045	0.115
-354.552	231.984	0.144	-0.234
-353.537	-96.463	0.376	-0.099
-352.523	-200.000	0.051	-0.362
-351.508	-200.000	0.032	-0.350
-350.493	800.000	-0.104	0.302
-349.479	-43.589	-0.459	0.230
-348.464	29.619	0.159	0.134
-347.450	-200.000	0.021	0.238
-346.435	302.797	-0.048	-0.089
-345.420	186.613	-0.162	-0.240
-344.406	-63.683	-0.208	0.085
-343.391	-102.586	-0.350	-0.083
-342.377	800.000	-0.060	-0.221
-341.362	-64.330	-0.521	0.210
-340.348	219.953	0.091	-0.145
-339.333	118.637	-0.173	0.212
-338.318	86.578	0.192	0.210
-337.304	69.930	-0.413	-0.423
-336.289	-134.182	-0.157	-0.019
-335.275	39.523	-0.097	0.086
-334.260	103.264	0.070	0.082
-333.245	-200.000	0.001	-0.147
-332.231	-37.609	-0.019	-0.010
-331.216	-62.119	-0.242	-0.100
-330.202	-37.645	-0.216	0.114
-329.187	82.355	-0.123	0.133
-328.172	-151.840	0.244	0.018
-327.158	-200.000	0.018	0.245
-326.143	-200.000	0.004	-0.134
-325.129	-200.000	-0.009	-0.360
-324.114	194.776	0.190	-0.286
-323.099	-42.191	0.174	0.088
-322.085	-142.347	0.166	0.016
-321.070	-200.000	-0.041	0.248
-320.056	274.837	0.206	0.362
-319.041	-66.151	-0.145	-0.057
-318.026	-200.000	-0.013	0.064
-317.012	158.715	0.117	0.162
-315.997	119.047	0.129	0.158
-314.983	-94.647	0.097	-0.026
-313.968	-200.000	0.012	-0.061
-312.953	501.792	0.123	-0.283
-311.939	-106.738	-0.067	0.015
-310.924	-54.672	-0.143	-0.064
-309.910	67.882	0.242	-0.246
-308.895	-128.172	0.064	-0.009
-307.880	-200.000	0.001	0.229
-306.866	-16.951	0.278	0.174
-305.851	243.434	-0.095	0.158
-304.837	7.760	0.038	-0.028
-303.822	-4.547	0.194	0.133
-302.807	-82.379	0.115	-0.037
-301.793	-117.518	-0.184	-0.033
-300.778	50.113	0.109	0.102
-299.764	800.000	-0.068	0.227
-298.749	-138.834	-0.206	0.022
-297.735	178.171	-0.066	-0.096
-296.720	-200.000	0.004	-0.117
-295.705	-107.150	-0.275	-0.060
-294.691	282.929	-0.161	0.287
-293.676	-200.000	-0.018	0.164
-292.662	696.200	-0.099	-0.257
-291.647	331.823	-0.060	0.115
-290.632	-200.000	0.002	-0.108
-289.618	-83.463	-0.203	-0.064
-288.603	-54.582	0.201	0.090
-287.589	-79.466	0.421	-0.141
-286.574	238.740	-0.138	0.227
-285.559	-79.239	0.170	-0.057
-284.545	58.532	0.315	0.306
-283.530	-200.000	0.001	0.244
-282.516	17.233	0.145	-0.114
-281.501	-141.239	0.261	0.026
-280.486	-11.369	0.188	-0.122
-279.472	-128.481	0.346	-0.049
-278.457	800.000	0.069	-0.249
-277.443	15.055	-0.040	-0.031
-276.428	-97.293	0.256	0.066
-275.413	-200.000	0.024	0.113
-274.399	-200.000	-0.030	0.284
-273.384	94.867	0.145	0.163
-272.370	800.000	0.097	0.374
-271.355	-200.000	0.012	-0.067
-270.340	-200.000	0.021	-0.164
-269.326	-142.272	-0.169	-0.017
-268.311	-51.099	0.256	-0.119
-267.297	-8.536	0.075	-0.050
-266.282	-71.662	0.078	0.029
-265.267	-19.137	-0.186	-0.115
-264.253	169.947	0.095	-0.134
-263.238	101.881	0.122	-0.141
-262.224	-116.362	0.297	0.054
-261.209	49.483	-0.080	0.075
-260.195	-128.804	-0.074	0.010
-259.180	141.129	-0.029	0.038
-258.165	369.960	0.126	-0.252
-257.151	529.586	0.217	0.507
-256.136	127.433	-0.199	0.250
-255.122	142.852	0.091	-0.120
-254.107	-120.012	0.044	-0.007
-253.092	-200.000	-0.021	-0.375
-252.078	-21.675	0.366	-0.221
-251.063	229.980	0.097	-0.157
-250.049	51.119	-0.236	0.221
-249.034	-139.853	0.458	-0.048
-248.019	201.691	-0.212	-0.323
-247.005	-130.616	-0.379	-0.050
-245.990	-134.584	-0.019	0.002
-244.976	-149.759	0.209	-0.016
-243.961	333.610	0.080	0.152
-242.946	-123.090	0.351	0.056
-241.932	24.007	0.227	-0.185
-240.917	417.620	-0.103	0.218
-239.903	82.540	-0.115	-0.123
-238.888	63.935	-0.078	-0.077
-237.873	303.292	-0.188	-0.344
-236.859	-200.000	0.002	-0.089
-235.844	-200.000	-0.003	-0.114
-234.830	482.307	-0.149	-0.334
-233.815	-122.864	-0.354	-0.056
-232.800	-111.166	0.245	-0.050
-231.786	-174.451	-0.147	-0.004
-230.771	-200.000	-0.032	-0.370
-229.757	-200.000	0.025	-0.167
-228.742	-68.543	0.205	0.079
-227.727	-91.716	-0.333	-0.094
-226.713	-200.000	-0.066	0.334
-225.698	-32.074	-0.360	0.199
-224.684	-25.875	0.462	-0.269
-223.669	24.013	0.359	-0.292
-222.655	313.319	-0.042	0.077
-221.640	46.482	-0.216	0.198
-220.625	136.854	0.191	-0.246
-219.611	739.229	-0.114	0.303
-218.596	800.000	-0.008	-0.034
-217.582	-5.571	-0.141	0.095
-216.567	73.593	-0.111	-0.115
-215.552	-52.601	-0.130	0.059
-214.538	79.881	-0.259	-0.275
-213.523	121.773	-0.301	0.370
-212.509	651.636	-0.072	-0.182
-211.494	-7.282	0.108	0.072
-210.479	273.922	-0.081	-0.142
-209.465	800.000	-0.035	0.124
-208.450	316.077	0.115	0.215
-207.436	-56.577	0.129	0.056
-206.421	492.428	0.139	-0.315
-205.406	156.342	-0.126	0.171
-204.392	39.864	0.203	0.180
-203.377	-60.975	0.053	-0.022
-202.363	-200.000	-0.021	-0.109
-201.348	383.628	0.046	0.094
-200.333	-154.816	0.042	0.003
-199.319	-200.000	-0.202	0.000
-198.304	800.000	-0.041	0.156
-197.290	75.072	-0.165	0.171
-196.275	-124.523	-0.134	-0.021
-195.260	800.000	-0.022	-0.075
-194.246	201.116	0.209	0.317
-193.231	-101.659	0.386	0.092
-192.217	800.000	-0.042	0.167
-191.202	-200.000	-0.046	-0.338
-190.187	216.555	-0.052	0.082
-189.173	-117.113	0.062	0.011
-188.158	80.339	0.082	-0.087
-187.144	-114.499	0.131	-0.025
-186.129	328.718	0.124	-0.236
-185.114	91.411	-0.091	0.101
-184.100	44.371	0.116	0.105
-183.085	113.802	-0.061	0.073
-182.071	-200.000	-0.040	-0.294
-181.056	4.163	0.145	-0.105
-180.042	128.493	-0.205	0.258
-179.027	521.006	-0.049	0.113
-178.012	-56.732	-0.072	-0.031
-176.998	204.573	0.130	0.199
-175.983	83.347	-0.130	0.139
-174.969	-200.000	-0.042	0.267
-173.954	15.709	-0.092	0.071
-172.939	550.101	-0.016	0.038
-171.925	-32.567	0.220	-0.121
-170.910	216.681	-0.111	0.174
-169.896	-45.186	0.140	-0.069
-168.881	144.639	0.153	0.201
-167.866	-80.825	0.152	0.050
-166.852	126.301	-0.111	0.139
-165.837	800.000	-0.068	0.251
-164.823	-7.885	0.112	0.075
-163.808	-16.237	-0.166	0.104
-162.793	-127.373	0.139	0.020
-161.779	-72.796	-0.270	0.098
-160.764	566.278	-0.037	0.089
-159.750	-100.750	0.253	-0.061
-158.735	145.949	0.237	0.314
-157.720	800.000	-0.031	0.127
-156.706	45.400	0.125	-0.113
-155.691	-163.309	0.077	-0.004
-154.677	-60.978	-0.158	0.066
-153.662	194.275	-0.155	-0.232
-152.647	-143.444	0.231	0.022
-151.633	-136.216	-0.202	0.023
-150.618	800.000	-0.040	-0.163
-149.604	-200.000	0.023	0.307
-148.589	407.692	-0.056	0.116
-147.574	38.657	-0.230	0.202
-146.560	-70.083	0.223	0.084
-145.545	310.213	-0.033	-0.061
-144.531	-122.332	-0.226	0.036
-143.516	155.069	0.202	0.273
-142.502	98.839	-0.211	-0.240
-141.487	117.055	0.044	-0.053
-140.472	800.000	-0.083	-0.242
-139.458	-200.000	0.020	-0.282
-138.443	-160.820	-0.345	-0.018
-137.429	-200.000	-0.019	0.338
-136.414	-63.094	-0.208	-0.085
-135.399	-112.750	-0.202	-0.040
-134.385	-24.844	-0.339	0.198
-133.370	-200.000	-0.000	-0.230
-132.356	800.000	0.041	0.148
-131.341	-138.677	0.133	-0.014
-130.326	-107.699	-0.414	0.089
-129.312	44.118	-0.183	0.165
-128.297	800.000	-0.069	-0.207
-127.283	25.520	0.113	-0.093
-126.268	800.000	-0.051	0.171
-125.253	-200.000	-0.037	0.188
-124.239	116.522	0.140	-0.168
-123.224	-132.733	0.058	0.007
-122.210	-200.000	0.083	0.479
-121.195	-200.000	-0.017	0.472
-120.180	32.448	0.177	0.150
-119.166	800.000	0.030	-0.105
-118.151	133.895	-0.120	0.153
-117.137	228.690	0.073	-0.118
-116.122	-116.250	0.154	0.028
-115.107	-153.558	-0.378	-0.026
-114.093	800.000	0.053	-0.161
-113.078	-18.703	-0.280	0.171
-112.064	800.000	-0.047	-0.167
-111.049	-43.695	0.400	0.198
-110.034	175.382	0.222	-0.316
-109.020	-35.610	-0.071	-0.038
-108.005	335.400	0.022	0.043
-106.991	273.504	0.135	0.234
-105.976	-5.168	-0.182	0.123
-104.962	-51.284	-0.356	0.164
-103.947	-161.049	0.409	-0.021
-102.932	80.560	-0.132	0.140
-101.918	-92.337	-0.208	0.058
-100.903	-200.000	-0.018	0.098
-99.889	800.000	0.077	-0.209
-98.874	-200.000	-0.025	0.115
-97.859	-129.330	-0.070	0.010
-96.845	-3.165	0.032	-0.022
-95.830	9.418	-0.182	0.135
-94.816	-87.056	-0.175	-0.052
-93.801	-200.000	-0.025	0.363
-92.786	384.138	0.123	-0.250
-91.772	248.485	-0.102	-0.170
-90.757	-200.000	-0.005	0.214
-89.743	-68.588	0.217	-0.083
-88.728	-62.041	-0.154	-0.063
-87.713	128.944	-0.123	-0.155
-86.699	800.000	0.035	-0.108
-85.684	146.665	0.082	-0.108
-84.670	-200.000	-0.038	-0.395
-83.655	130.799	0.054	0.068
-82.640	11.610	-0.110	-0.083
-81.626	-87.825	0.207	0.061
-80.611	-200.000	-0.023	0.122
-79.597	-112.324	0.166	0.033
-78.582	-16.804	-0.052	-0.032
-77.567	-84.530	-0.182	0.056
-76.553	-113.357	0.148	0.029
-75.538	-200.000	0.026	0.134
-74.524	-50.362	0.039	-0.018
-73.509	-25.954	0.207	-0.120
-72.494	168.498	-0.087	-0.122
-71.480	-138.097	-0.330	-0.036
-70.465	-13.260	-0.224	0.143
-69.451	72.169	-0.313	0.320
-68.436	420.059	-0.079	-0.166
-67.422	-181.900	0.072	-0.001
-66.407	78.843	0.071	0.075
-65.392	-200.000	0.008	0.243
-64.378	266.888	-0.044	-0.076
-63.363	209.417	-0.092	0.141
-62.349	225.674	-0.240	0.382
-61.334	270.848	-0.723	-1.249
-60.319	-59.251	0.757	0.320
-59.305	597.941	-0.379	-0.922
-58.290	81.802	0.737	0.783
-57.276	627.351	0.590	1.462
-56.261	-200.000	100.052	600.833
-55.246	595.448	1399.446	3398.790
-54.232	193.791	2585.915	3841.902
-53.217	110.801	2261.462	2670.213
-52.203	40.394	1886.711	1666.510
-51.188	34.296	1677.463	1435.839
-50.173	31.760	1633.878	1379.827
-49.159	49.897	1683.567	1557.761
-48.144	51.250	1700.010	1583.022
-47.130	34.147	1659.020	1418.719
-46.115	31.353	1644.964	1385.950
-45.100	31.184	1640.087	1380.539
-44.086	31.113	1637.902	1378.118
-43.071	31.261	1634.528	1376.320
-42.057	31.049	1632.779	1373.232
-41.042	31.169	1630.470	1372.117
-40.027	31.096	1628.508	1369.875
-39.013	31.024	1627.160	1368.160
-37.998	31.026	1625.684	1366.878
-36.984	31.113	1623.769	1365.849
-35.969	31.181	1622.797	1365.472
-34.954	31.170	1621.119	1363.929
-33.940	31.272	1619.068	1362.894
-32.925	31.160	1617.883	1361.026
-31.911	31.297	1615.526	1359.982
-30.896	31.129	1614.474	1357.824
-29.881	31.207	1612.295	1356.505
-28.867	31.139	1610.807	1354.701
-27.852	31.178	1609.649	1353.959
-26.838	31.163	1608.301	1352.663
-25.823	31.187	1606.482	1351.250
-24.809	31.181	1605.226	1350.098
-23.794	31.143	1604.455	1349.121
-22.779	31.115	1603.082	1347.713
-21.765	31.239	1601.574	1347.286
-20.750	31.133	1599.515	1344.734
-19.736	31.252	1597.728	1344.039
-18.721	31.330	1596.020	1343.111
-17.706	31.216	1595.458	1341.764
-16.692	31.261	1593.368	1340.274
-15.677	31.278	1591.933	1339.139
-14.663	31.230	1591.113	1338.047
-13.648	31.262	1589.396	1336.778
-12.633	31.235	1588.129	1335.469
-11.619	31.126	1586.950	1333.646
-10.604	31.221	1584.923	1332.566
-9.590	31.189	1584.012	1331.519
-8.575	31.245	1582.245	1330.381
-7.560	31.232	1581.215	1329.370
-6.546	31.211	1580.538	1328.599
-5.531	31.267	1579.034	1327.682
-4.517	31.164	1578.037	1326.059
-3.502	31.206	1577.214	1325.614
-2.487	31.273	1575.544	1324.634
-1.473	30.848	1564.192	1312.044
-0.458	27.996	1544.204	1275.354
0.556	26.185	1545.194	1243.087
1.571	23.815	1567.542	1244.382
2.586	23.115	1580.624	1249.714
3.600	20.714	1527.933	1191.526
4.615	12.563	1419.823	1055.050
5.629	5.136	1356.843	962.502
6.644	3.682	1348.795	947.787
7.659	3.654	1348.210	947.120
8.673	3.689	1346.886	946.323
9.688	3.695	1344.796	944.806
10.702	3.639	1341.761	942.252
11.717	6.974	1347.858	966.862
12.731	15.855	1364.340	1033.348
13.746	23.085	1376.140	1086.796
14.761	24.779	1378.223	1098.760
15.775	24.530	1376.666	1095.892
16.790	24.012	1375.033	1091.319
17.804	23.664	1373.863	1088.159
18.819	23.578	1372.895	1086.771
19.834	23.535	1371.689	1085.459
20.848	23.502	1371.670	1085.145
21.863	23.589	1370.366	1084.549
22.877	23.589	1369.364	1083.660
23.892	23.488	1368.614	1082.352
24.907	23.427	1367.367	1080.901
25.921	23.357	1366.742	1079.884
26.936	23.365	1365.887	1079.165
27.950	23.503	1364.515	1078.823
28.965	23.529	1363.926	1078.416
29.980	23.588	1362.846	1077.828
30.994	23.702	1361.828	1077.618
32.009	23.654	1361.222	1076.754
33.023	23.685	1360.293	1076.109
34.038	23.602	1358.825	1074.353
35.053	23.602	1357.613	1073.298
36.067	23.522	1356.125	1071.542
37.082	23.424	1355.890	1070.674
38.096	23.546	1354.542	1070.246
39.111	23.494	1354.181	1069.557
40.126	23.471	1353.620	1068.879
41.140	23.249	1352.485	1066.550
42.155	23.078	1351.843	1064.922
43.169	22.985	1351.371	1063.895
44.184	22.944	1351.584	1063.721
45.199	23.027	1351.409	1063.990
46.213	23.192	1350.938	1064.519
47.228	23.457	1349.934	1065.226
48.242	23.363	1349.371	1064.118
49.257	23.384	1347.596	1062.752
50.271	23.371	1346.445	1061.673
51.286	23.446	1344.966	1060.859
52.301	23.398	1343.236	1059.115
53.315	23.263	1342.821	1057.888
54.330	23.254	1341.298	1056.544
55.344	23.133	1340.269	1054.918
56.359	23.149	1339.322	1054.173
57.374	22.971	1338.891	1052.681
58.388	22.896	1337.798	1051.281
59.403	22.958	1337.515	1051.336
60.417	22.857	1336.470	1049.821
61.432	22.808	1335.677	1048.812
62.447	22.809	1334.946	1048.151
63.461	22.711	1333.713	1046.512
64.476	22.686	1333.001	1045.711
65.490	22.728	1331.365	1044.584
66.505	22.761	1329.698	1043.376
67.520	22.694	1329.253	1042.541
68.534	22.784	1327.952	1041.961
69.549	22.687	1326.856	1040.435
70.563	22.659	1325.685	1039.262
71.578	22.655	1324.717	1038.383
72.593	22.478	1323.737	1036.482
73.607	22.508	1323.635	1036.489
74.622	22.641	1322.166	1036.029
75.636	22.416	1322.399	1034.796
76.651	22.506	1321.581	1034.592
77.666	22.603	1321.223	1034.789
78.680	22.765	1320.516	1035.098
79.695	22.711	1319.769	1034.101
80.709	22.795	1319.198	1034.057
81.724	22.882	1318.740	1034.116
82.739	23.055	1317.840	1034.329
83.753	23.266	1317.287	1035.040
84.768	23.561	1316.818	1036.300
85.782	23.696	1315.727	1036.141
86.797	23.652	1314.587	1034.892
87.812	23.547	1313.569	1033.387
88.826	23.508	1312.429	1032.174
89.841	23.519	1311.537	1031.442
90.855	23.642	1310.326	1031.117
91.870	23.680	1309.779	1030.811
92.884	23.835	1309.466	1031.374
93.899	23.756	1308.244	1029.866
94.914	23.740	1307.652	1029.215
95.928	23.840	1306.725	1028.970
96.943	23.735	1306.314	1027.952
97.957	23.698	1305.346	1026.882
98.972	23.620	1304.581	1025.739
99.987	23.731	1303.279	1025.268
101.001	23.603	1302.532	1023.848
102.016	23.663	1300.911	1022.828
103.030	23.635	1300.632	1022.359
104.045	23.458	1299.772	1020.575
105.060	23.265	1298.474	1018.355
106.074	23.094	1296.988	1016.118
107.089	22.888	1295.294	1013.519
108.103	22.851	1293.440	1011.764
109.118	22.654	1292.325	1009.678
110.133	22.577	1291.218	1008.281
111.147	22.707	1289.958	1007.949
112.162	22.793	1289.539	1008.028
113.176	22.980	1287.858	1007.689
114.191	22.865	1287.429	1006.606
115.206	22.830	1286.891	1005.901
116.220	22.990	1285.597	1005.710
117.235	22.934	1284.295	1004.286
118.249	22.691	1283.400	1002.112
119.264	22.734	1281.900	1001.099
120.279	22.666	1280.946	999.878
121.293	22.665	1280.318	999.295
122.308	22.589	1278.909	997.676
123.322	22.422	1278.095	996.008
124.337	22.409	1277.139	995.100
125.352	22.359	1276.303	994.081
126.366	22.324	1275.295	993.011
127.381	22.391	1274.022	992.307
128.395	22.183	1273.279	990.467
129.410	22.291	1272.072	990.051
130.424	22.208	1272.011	989.450
131.439	22.558	1271.281	990.762
132.454	22.712	1270.580	990.992
133.468	22.847	1270.370	991.502
134.483	22.913	1269.456	991.069
135.497	22.980	1268.488	990.603
136.512	22.928	1267.333	989.323
137.527	22.841	1266.328	987.962
138.541	22.868	1265.211	987.151
139.556	22.940	1264.212	986.688
140.570	23.163	1263.393	987.207
141.585	23.310	1262.791	987.471
142.600	23.544	1261.394	987.592
143.614	23.696	1261.211	988.208
144.629	23.687	1260.173	987.258
145.643	23.519	1259.102	985.394
146.658	23.262	1258.253	983.220
147.673	23.307	1256.295	981.851
148.687	23.154	1255.532	980.321
149.702	22.890	1254.551	978.004
150.716	22.776	1252.328	975.554
151.731	22.711	1251.238	974.260
152.746	22.740	1250.702	973.917
153.760	22.948	1249.499	974.039
154.775	23.086	1249.091	974.398
155.789	23.208	1248.480	974.506
156.804	23.091	1247.628	973.112
157.819	23.219	1245.953	972.422
158.833	23.281	1245.616	972.414
159.848	23.422	1245.062	972.668
160.862	23.453	1243.754	971.731
161.877	23.088	1242.340	968.541
162.892	22.872	1241.139	966.339
163.906	22.661	1240.013	964.222
164.921	22.613	1239.182	963.230
165.935	22.875	1238.740	964.229
166.950	23.038	1238.119	964.550
167.964	22.953	1237.767	963.730
168.979	22.919	1237.366	963.143
169.994	22.969	1235.743	962.069
171.008	22.817	1235.116	960.671
172.023	22.973	1235.062	961.389
173.037	23.230	1234.149	961.989
174.052	23.207	1233.633	961.378
175.067	23.139	1231.755	959.462
176.081	22.730	1230.652	956.304
177.096	22.818	1230.017	956.200
178.110	22.883	1229.074	955.732
179.125	22.791	1228.150	954.432
180.140	23.100	1226.986	955.110
181.154	23.377	1226.489	956.136
182.169	23.395	1225.155	955.107
183.183	23.348	1224.416	954.193
184.198	23.470	1223.227	953.842
185.213	23.376	1222.161	952.421
186.227	23.375	1221.800	952.050
187.242	23.433	1220.913	951.587
188.256	23.634	1219.177	951.224
189.271	23.626	1218.696	950.723
190.286	23.440	1217.730	948.889
191.300	23.069	1216.323	945.727
192.315	22.955	1215.671	944.526
193.329	23.021	1215.458	944.629
194.344	22.900	1214.803	943.391
195.359	22.817	1214.102	942.320
196.373	22.822	1212.938	941.357
197.388	22.819	1213.140	941.419
198.402	23.151	1213.258	943.194
199.417	23.542	1213.410	945.311
200.432	23.642	1212.855	945.329
201.446	23.741	1212.072	945.165
202.461	23.822	1211.426	945.004
203.475	23.690	1210.522	943.517
204.490	23.408	1208.493	940.357
205.504	23.269	1206.899	938.295
206.519	23.140	1205.947	936.790
207.534	22.985	1205.060	935.195
208.548	22.907	1204.211	934.043
209.563	22.989	1203.262	933.657
210.577	22.939	1202.333	932.589
211.592	23.039	1201.794	932.619
212.607	23.569	1201.507	935.108
213.621	23.526	1200.927	934.347
214.636	23.359	1199.931	932.608
215.650	23.485	1198.705	932.237
216.665	23.561	1197.972	931.984
217.680	23.740	1197.826	932.729
218.694	23.875	1196.502	932.322
219.709	23.757	1195.740	931.025
220.723	23.626	1195.443	930.025
221.738	23.621	1194.334	929.053
222.753	23.470	1193.571	927.591
223.767	23.423	1192.687	926.577
224.782	23.650	1192.812	927.777
225.796	23.803	1192.280	928.082
226.811	23.710	1191.142	926.627
227.826	23.545	1190.501	925.185
228.840	23.444	1189.764	924.005
229.855	23.367	1189.122	923.022
230.869	23.290	1188.188	921.817
231.884	23.281	1187.050	920.804
232.899	23.109	1186.296	919.243
233.913	23.000	1185.306	917.829
234.928	23.094	1184.629	917.713
235.942	22.918	1184.098	916.309
236.957	22.803	1182.750	914.588
237.972	22.851	1181.975	914.153
238.986	22.943	1181.606	914.267
240.001	22.841	1181.567	913.624
241.015	22.932	1180.435	913.139
242.030	23.036	1179.912	913.194
243.045	23.293	1178.677	913.480
244.059	23.410	1178.302	913.712
245.074	23.440	1177.783	913.384
246.088	23.550	1177.101	913.340
247.103	23.690	1176.436	913.465
248.117	23.646	1176.122	912.912
249.132	23.916	1175.423	913.676
250.147	24.339	1175.280	915.656
251.161	24.444	1175.139	916.006
252.176	24.499	1174.218	915.489
253.190	24.532	1173.693	915.165
254.205	24.679	1173.093	915.371
255.220	24.680	1172.703	914.989
256.234	24.779	1171.564	914.528
257.249	24.715	1170.824	913.540
258.263	24.561	1170.554	912.465
259.278	24.501	1169.964	911.618
260.293	24.575	1169.355	911.441
261.307	24.547	1169.081	911.003
262.322	24.652	1168.262	910.816
263.336	24.574	1167.691	909.896
264.351	24.561	1167.144	909.325
265.366	24.505	1166.299	908.297
266.380	24.667	1165.701	908.579
267.395	24.589	1164.394	907.082
268.409	24.357	1163.564	905.179
269.424	24.252	1163.377	904.418
270.439	24.252	1163.099	904.120
271.453	24.260	1161.685	902.982
272.468	24.204	1160.470	901.676
273.482	23.944	1160.100	899.992
274.497	24.051	1159.438	899.942
275.512	24.007	1158.691	899.058
276.526	23.870	1158.480	898.126
277.541	24.031	1157.238	897.892
278.555	24.202	1156.943	898.449
279.570	24.384	1156.615	899.031
280.585	24.561	1155.874	899.265
281.599	24.589	1154.768	898.466
282.614	24.364	1153.661	896.396
283.628	24.115	1152.768	894.375
284.643	24.003	1151.349	892.631
285.657	24.151	1150.855	892.910
286.672	24.084	1149.801	891.682
287.687	24.167	1148.945	891.352
288.701	24.131	1148.654	890.864
289.716	24.150	1147.757	890.185
290.730	24.186	1146.943	889.658
291.745	24.189	1146.357	889.139
292.760	24.212	1145.856	888.786
293.774	24.367	1145.417	889.139
294.789	24.540	1145.056	889.642
295.803	24.486	1144.179	888.614
296.818	24.244	1143.215	886.583
297.833	24.276	1142.453	886.071
298.847	24.167	1141.567	884.766
299.862	24.251	1140.563	884.327
300.876	24.153	1140.463	883.682
301.891	24.377	1139.744	884.161
302.906	24.601	1139.417	884.935
303.920	24.702	1138.701	884.804
304.935	24.861	1138.222	885.137
305.949	24.920	1137.843	885.056
306.964	24.946	1137.218	884.619
307.979	24.850	1136.401	883.432
308.993	24.654	1135.328	881.552
310.008	24.658	1134.676	880.990
311.022	24.635	1134.125	880.369
312.037	24.738	1133.003	879.927
313.052	24.664	1132.059	878.754
314.066	24.214	1130.894	875.560
315.081	24.054	1129.417	873.557
316.095	23.974	1129.061	872.811
317.110	24.033	1128.366	872.484
318.125	23.963	1127.438	871.347
319.139	23.878	1127.235	870.697
320.154	23.911	1126.557	870.258
321.168	24.018	1125.625	869.986
322.183	23.975	1125.248	869.407
323.197	23.950	1125.012	869.025
324.212	24.248	1124.021	869.635
325.227	24.161	1123.493	868.725
326.241	24.226	1123.138	868.691
327.256	24.164	1121.964	867.403
328.270	24.081	1121.136	866.285
329.285	24.101	1120.568	865.866
330.300	24.058	1119.892	865.058
331.314	24.143	1118.520	864.333
332.329	24.165	1117.530	863.598
333.343	24.076	1117.227	862.859
334.358	24.273	1116.700	863.329
335.373	24.501	1116.105	863.896
336.387	24.621	1115.455	863.896
337.402	24.653	1114.596	863.306
338.416	24.603	1114.278	862.742
339.431	24.716	1114.025	863.017
340.446	24.990	1113.245	863.658
341.460	25.208	1112.655	864.175
342.475	25.214	1111.899	863.542
343.489	25.199	1111.469	863.059
344.504	25.241	1110.463	862.400
345.519	25.242	1110.023	861.988
346.533	25.405	1108.753	861.706
347.548	25.359	1108.205	860.985
348.562	25.382	1107.523	860.491
349.577	25.061	1106.062	857.741
350.592	24.629	1105.003	854.777
351.606	24.571	1104.101	853.729
352.621	24.459	1103.302	852.500
353.635	24.224	1103.090	851.138
354.650	24.411	1102.023	851.133
355.665	24.572	1101.013	851.043
356.679	24.561	1101.367	851.191
357.694	24.692	1100.639	851.173
358.708	24.874	1099.759	851.284
359.723	24.904	1099.329	851.022
360.738	24.817	1098.818	850.136
361.752	24.792	1098.187	849.455
362.767	24.920	1097.002	849.069
363.781	24.834	1096.926	848.527
364.796	25.075	1096.966	849.626
365.810	25.283	1096.556	850.217
366.825	25.419	1096.087	850.423
367.840	25.612	1095.829	851.060
368.854	25.674	1095.143	850.745
369.869	25.613	1094.179	849.632
370.883	25.480	1093.258	848.216
371.898	25.304	1092.224	846.510
372.913	25.215	1091.667	845.584
373.927	25.269	1091.360	845.525
374.942	25.502	1090.794	846.106
375.956	25.491	1090.238	845.548
376.971	25.323	1089.751	844.305
377.986	25.432	1089.222	844.333
379.000	25.579	1088.908	844.706
380.015	25.764	1088.130	844.897
381.029	25.819	1087.840	844.856
382.044	25.610	1087.264	843.356
383.059	25.744	1086.363	843.206
384.073	25.551	1085.527	841.582
385.088	25.746	1084.924	841.953
386.102	25.662	1083.751	840.574
387.117	25.364	1082.500	838.137
388.132	25.151	1081.355	836.185
389.146	25.096	1080.411	835.126
390.161	24.983	1079.819	834.066
391.175	24.985	1079.226	833.543
392.190	25.127	1079.076	834.014
393.205	25.570	1078.655	835.674
394.219	25.570	1077.506	834.712
395.234	25.307	1075.861	832.143
396.248	25.024	1075.598	830.557
397.263	25.141	1074.110	829.872
398.278	25.113	1073.519	829.214
399.292	25.067	1073.083	828.593
400.307	25.140	1072.542	828.441
401.321	24.941	1071.965	827.002
402.336	24.808	1070.869	825.466
403.350	24.761	1070.361	824.788
404.365	24.958	1069.778	825.174
405.380	25.129	1069.257	825.486
406.394	25.145	1068.567	824.952
407.409	25.340	1068.455	825.691
408.423	25.700	1067.568	826.587
409.438	25.687	1067.206	826.174
410.453	25.793	1066.518	826.054
411.467	25.761	1065.977	825.412
412.482	25.742	1065.125	824.596
413.496	25.812	1064.690	824.503
414.511	26.103	1064.049	825.266
415.526	25.989	1064.146	824.748
416.540	26.190	1063.559	825.139
417.555	26.147	1062.717	824.216
418.569	25.986	1062.114	822.939
419.584	25.957	1061.356	822.145
420.599	25.992	1060.801	821.806
421.613	155.344	1404.251	1794.800
422.628	142.826	1454.275	1794.915
