DTS Sentinel unit serial number:	SN413079Multiplexer serial number:	ORYXHardware model number:	OX4-SRSoftware version number:	ORYX F/W v4.00 Oryx Data Collector v3.7.2.0data status	okinstallation	princeton_trtdifferential loss correction	single-endedforward channel	channel 2reverse channel	N/Adate	2019/09/16time	09:15:35forward acquisition time	60.00reverse acquisition time	0.00gamma	496.2192k internal	0.2325k external	0.2325temperature offset calibration	0.9974default loss term (dB/km)	0.3790temperature slope calibration	1.0000multiplexer offset coefficient	1.0000multiplexer slope coefficient	1.0000fibre end	0.00T internal ref (°C)	31.12T ext. ref 1 (°C)	12.13T ext. ref 2 (°C)	28.52length (m)	temperature (°C)	Stokes	anti-Stokes-747.200	400.722	0.109	-0.230
-746.185	150.962	0.078	-0.107
-745.171	25.400	-0.088	-0.074
-744.156	-200.000	0.029	0.300
-743.142	73.932	0.268	0.284
-742.127	-200.000	0.044	0.272
-741.112	777.774	-0.017	-0.048
-740.098	25.009	-0.033	-0.028
-739.083	-42.259	0.232	-0.120
-738.069	-164.710	0.227	0.010
-737.054	248.921	0.087	0.148
-736.039	-112.758	-0.416	0.083
-735.025	39.331	0.401	0.362
-734.010	-51.094	-0.222	0.105
-732.996	-109.261	-0.199	0.042
-731.981	61.647	0.061	0.061
-730.966	-26.919	-0.129	-0.076
-729.952	141.333	0.182	0.243
-728.937	91.643	0.036	0.041
-727.923	66.646	0.207	-0.212
-726.908	375.072	-0.123	0.252
-725.894	137.256	-0.154	-0.203
-724.879	-22.020	0.181	-0.111
-723.864	-150.402	-0.090	-0.007
-722.850	-117.450	-0.281	0.051
-721.835	260.023	-0.130	0.227
-720.821	-200.000	-0.007	-0.192
-719.806	-200.000	-0.014	-0.397
-718.791	20.495	-0.213	0.174
-717.777	-88.705	0.136	-0.041
-716.762	-200.000	0.014	0.102
-715.748	49.028	-0.124	-0.118
-714.733	-60.679	0.475	0.203
-713.718	656.614	0.170	0.441
-712.704	-114.124	-0.369	-0.072
-711.689	-87.836	0.071	-0.022
-710.675	89.277	0.089	-0.100
-709.660	11.300	-0.246	0.190
-708.645	-200.000	-0.007	-0.042
-707.631	-98.185	0.178	-0.046
-706.616	-47.080	0.294	0.145
-705.602	800.000	0.048	-0.207
-704.587	75.376	0.129	-0.137
-703.572	-94.046	0.083	-0.023
-702.558	-65.714	-0.162	-0.065
-701.543	-28.312	-0.148	0.086
-700.529	-107.460	-0.387	0.086
-699.514	-173.097	-0.228	0.007
-698.499	209.105	-0.100	-0.158
-697.485	-182.425	-0.465	-0.009
-696.470	1.158	-0.270	-0.195
-695.456	623.959	-0.211	0.535
-694.441	800.000	0.078	0.250
-693.426	-36.834	-0.264	0.143
-692.412	37.974	-0.155	0.138
-691.397	110.455	0.049	-0.059
-690.383	58.919	0.292	0.289
-689.368	539.442	-0.059	0.142
-688.354	23.464	-0.065	-0.053
-687.339	-113.248	-0.212	-0.042
-686.324	151.586	-0.285	-0.391
-685.310	500.874	-0.129	-0.301
-684.295	-120.092	-0.169	0.029
-683.281	40.872	0.257	-0.234
-682.266	-200.000	-0.073	-0.347
-681.251	51.594	0.124	-0.118
-680.237	800.000	0.034	0.106
-679.222	136.388	-0.056	-0.074
-678.208	-155.302	-0.391	0.026
-677.193	-200.000	-0.012	-0.168
-676.178	90.713	0.103	-0.116
-675.164	-171.193	-0.112	0.004
-674.149	-91.937	-0.154	0.044
-673.135	800.000	-0.090	0.359
-672.120	19.693	0.141	0.114
-671.105	-29.826	0.255	-0.146
-670.091	-121.088	-0.234	0.040
-669.076	385.774	0.234	0.486
-668.062	-97.004	-0.202	-0.053
-667.047	-200.000	0.013	-0.098
-666.032	800.000	0.134	-0.510
-665.018	411.133	-0.076	-0.163
-664.003	-83.492	-0.110	0.035
-662.989	-107.286	-0.392	-0.087
-661.974	36.294	0.189	0.168
-660.959	49.216	0.316	-0.298
-659.945	800.000	-0.032	0.115
-658.930	-49.153	-0.114	-0.055
-657.916	-125.009	-0.237	-0.037
-656.901	173.603	0.162	-0.236
-655.886	43.505	-0.142	-0.130
-654.872	-42.919	-0.248	0.127
-653.857	-200.000	0.000	0.188
-652.843	-57.729	-0.096	0.042
-651.828	-77.151	0.252	-0.088
-650.814	547.754	-0.062	-0.149
-649.799	-88.837	0.217	0.065
-648.784	78.030	0.060	-0.064
-647.770	800.000	0.075	0.267
-646.755	-134.383	-0.093	-0.011
-645.741	-200.000	0.027	-0.238
-644.726	27.716	-0.126	0.107
-643.711	-151.249	-0.230	-0.017
-642.697	-170.911	-0.213	-0.007
-641.682	-97.149	-0.388	-0.102
-640.668	-200.000	-0.012	0.058
-639.653	428.091	-0.083	0.179
-638.638	-70.292	-0.167	0.064
-637.624	-200.000	-0.019	0.139
-636.609	-82.461	-0.048	0.016
-635.595	-29.711	-0.260	-0.149
-634.580	188.487	0.237	-0.356
-633.565	513.556	0.133	0.311
-632.551	800.000	0.059	0.199
-631.536	-171.915	-0.206	-0.007
-630.522	132.871	0.140	-0.182
-629.507	3.624	0.269	-0.197
-628.492	-119.763	0.199	0.035
-627.478	800.000	0.047	-0.185
-626.463	37.588	-0.173	-0.154
-625.449	-109.277	-0.321	-0.068
-624.434	-200.000	-0.001	0.059
-623.419	-54.074	-0.220	0.100
-622.405	365.267	-0.119	-0.240
-621.390	-124.523	0.269	-0.042
-620.376	-131.853	0.210	0.028
-619.361	196.817	0.172	0.264
-618.346	46.473	-0.215	0.201
-617.332	266.250	-0.169	-0.297
-616.317	800.000	0.084	0.327
-615.303	13.862	-0.178	-0.139
-614.288	-67.522	-0.182	0.072
-613.273	104.427	-0.134	0.158
-612.259	-200.000	-0.005	-0.168
-611.244	800.000	0.038	0.141
-610.230	800.000	0.065	-0.276
-609.215	-200.000	-0.031	0.202
-608.201	-66.267	-0.185	-0.074
-607.186	-200.000	0.021	-0.184
-606.171	-136.442	-0.176	0.021
-605.157	-94.234	-0.106	0.029
-604.142	-200.000	0.084	0.409
-603.128	-4.739	-0.158	-0.109
-602.113	-46.103	0.286	0.141
-601.098	98.027	-0.226	-0.261
-600.084	800.000	-0.043	0.158
-599.069	800.000	0.036	-0.113
-598.055	-71.294	-0.238	0.090
-597.040	800.000	0.091	-0.342
-596.025	505.184	0.049	0.114
-595.011	462.048	-0.055	-0.122
-593.996	-108.660	0.266	-0.057
-592.982	213.691	0.222	0.353
-591.967	-200.000	0.004	0.077
-590.952	-200.000	0.002	-0.106
-589.938	156.603	0.064	-0.089
-588.923	-163.208	0.254	0.012
-587.909	-69.392	0.244	-0.094
-586.894	285.930	0.108	-0.195
-585.879	-200.000	-0.034	0.196
-584.865	-200.000	0.001	0.143
-583.850	-200.000	0.004	-0.019
-582.836	-124.150	0.056	-0.009
-581.821	414.622	0.058	-0.124
-580.806	-58.164	-0.323	-0.141
-579.792	278.462	0.111	-0.198
-578.777	-95.684	-0.152	-0.041
-577.763	223.525	0.226	-0.365
-576.748	-79.285	0.444	0.151
-575.733	-200.000	-0.013	0.066
-574.719	-149.116	0.178	-0.014
-573.704	169.885	-0.104	-0.148
-572.690	-144.876	-0.169	0.015
-571.675	-45.666	0.227	0.113
-570.661	-67.377	-0.148	0.058
-569.646	-200.000	-0.008	-0.296
-568.631	733.720	0.067	0.179
-567.617	-85.476	0.333	0.104
-566.602	-111.411	-0.218	-0.045
-565.588	800.000	-0.090	-0.386
-564.573	800.000	-0.080	-0.320
-563.558	-95.765	0.317	-0.085
-562.544	-176.789	-0.189	-0.005
-561.529	-21.796	-0.187	0.114
-560.515	3.071	0.046	-0.033
-559.500	52.581	0.146	0.140
-558.485	113.599	0.190	0.231
-557.471	54.120	0.202	0.195
-556.456	800.000	0.080	-0.321
-555.442	-59.249	0.332	-0.143
-554.427	89.778	-0.251	-0.280
-553.412	-152.818	-0.033	0.002
-552.398	55.493	0.260	0.253
-551.383	-200.000	-0.011	-0.150
-550.369	-71.021	0.268	0.101
-549.354	-50.410	-0.217	-0.103
-548.339	284.459	0.099	-0.178
-547.325	800.000	-0.077	-0.258
-546.310	635.668	0.078	-0.197
-545.296	30.006	0.104	-0.089
-544.281	337.667	0.112	-0.218
-543.266	280.308	0.065	-0.116
-542.252	87.791	-0.151	-0.167
-541.237	94.103	0.205	-0.233
-540.223	-200.000	-0.019	-0.117
-539.208	-200.000	0.024	-0.162
-538.193	-49.818	0.305	-0.145
-537.179	265.708	-0.189	-0.330
-536.164	671.586	-0.055	0.144
-535.150	-181.424	-0.176	-0.003
-534.135	-4.690	-0.183	-0.126
-533.121	-91.664	-0.115	-0.033
-532.106	25.170	-0.162	0.135
-531.091	-71.111	0.213	-0.080
-530.077	89.911	-0.135	0.151
-529.062	-200.000	-0.015	-0.146
-528.048	91.631	-0.163	0.183
-527.033	-200.000	0.003	0.120
-526.018	-109.116	0.209	0.044
-525.004	251.353	0.020	-0.035
-523.989	166.279	0.075	-0.107
-522.975	78.873	-0.255	0.273
-521.960	-200.000	-0.027	0.243
-520.945	47.023	0.048	0.044
-519.931	-90.400	-0.154	-0.045
-518.916	-85.416	-0.381	0.119
-517.902	613.715	0.101	-0.254
-516.887	326.474	0.234	-0.449
-515.872	663.456	0.062	-0.159
-514.858	181.337	-0.051	-0.076
-513.843	-200.000	-0.032	-0.256
-512.829	167.740	-0.050	-0.071
-511.814	-151.559	-0.276	-0.020
-510.799	-4.241	-0.309	-0.214
-509.785	-120.191	-0.522	0.089
-508.770	-60.502	-0.235	-0.100
-507.756	248.356	0.141	-0.239
-506.741	800.000	0.047	-0.130
-505.726	205.057	-0.055	0.086
-504.712	-88.206	-0.211	0.063
-503.697	-44.162	-0.246	0.124
-502.683	-75.098	-0.149	-0.053
-501.668	-200.000	0.011	0.281
-500.653	421.621	0.134	0.288
-499.639	-158.313	-0.159	0.009
-498.624	-47.142	-0.179	-0.087
-497.610	-153.783	0.038	0.003
-496.595	-97.746	0.016	0.004
-495.581	3.105	-0.184	-0.134
-494.566	800.000	-0.047	-0.152
-493.551	-117.718	0.056	0.010
-492.537	-200.000	-0.007	-0.126
-491.522	-129.718	0.159	-0.022
-490.508	-200.000	-0.033	0.212
-489.493	-149.941	0.242	0.019
-488.478	-46.726	-0.298	-0.146
-487.464	230.721	-0.057	0.093
-486.449	365.979	-0.125	0.251
-485.435	121.174	0.121	0.150
-484.420	184.864	0.244	0.361
-483.405	800.000	0.090	-0.261
-482.391	-47.124	-0.066	-0.032
-481.376	8.163	-0.098	-0.074
-480.362	-200.000	0.018	0.086
-479.347	-105.840	-0.140	0.032
-478.332	800.000	0.029	0.123
-477.318	-200.000	-0.004	0.059
-476.303	107.252	-0.237	0.281
-475.289	-49.014	-0.066	0.032
-474.274	-12.735	-0.131	0.085
-473.259	-148.128	0.150	-0.012
-472.245	-200.000	-0.011	0.127
-471.230	45.384	0.197	0.181
-470.216	185.201	-0.124	-0.183
-469.201	367.431	0.084	-0.169
-468.186	-200.000	-0.016	0.226
-467.172	100.594	0.359	-0.417
-466.157	-16.657	-0.198	-0.125
-465.143	800.000	-0.078	-0.268
-464.128	800.000	-0.069	-0.197
-463.113	-12.130	-0.181	0.118
-462.099	-164.044	0.084	-0.004
-461.084	-58.306	0.212	-0.092
-460.070	9.454	-0.158	-0.119
-459.055	40.765	-0.268	-0.242
-458.040	800.000	0.053	-0.226
-457.026	-140.777	-0.210	-0.022
-456.011	-8.926	0.079	0.053
-454.997	-200.000	-0.004	0.165
-453.982	312.575	0.099	0.186
-452.968	-200.000	-0.017	0.085
-451.953	32.732	0.148	0.128
-450.938	-123.512	-0.399	-0.063
-449.924	-122.803	0.284	-0.046
-448.909	-200.000	-0.027	-0.265
-447.895	-87.555	0.285	-0.086
-446.880	800.000	-0.054	-0.173
-445.865	-200.000	0.015	-0.082
-444.851	-121.332	0.276	-0.046
-443.836	800.000	-0.070	-0.234
-442.822	800.000	0.075	0.223
-441.807	-200.000	-0.013	0.484
-440.792	26.708	0.303	-0.253
-439.778	800.000	-0.057	-0.242
-438.763	61.407	0.090	-0.089
-437.749	-200.000	0.001	-0.371
-436.734	293.415	0.045	0.082
-435.719	800.000	0.090	-0.261
-434.705	-10.133	-0.171	0.113
-433.690	-72.462	-0.108	-0.040
-432.676	-200.000	-0.032	0.242
-431.661	-134.522	-0.190	0.023
-430.646	800.000	0.069	0.220
-429.632	210.644	0.115	-0.180
-428.617	-122.693	0.016	-0.003
-427.603	-139.572	-0.216	0.023
-426.588	-32.008	0.194	-0.108
-425.573	510.123	0.062	-0.144
-424.559	-29.895	0.069	0.039
-423.544	-107.923	-0.226	0.049
-422.530	-148.116	0.094	0.008
-421.515	800.000	0.065	0.183
-420.500	-29.276	0.253	-0.144
-419.486	137.802	-0.091	0.119
-418.471	33.647	0.075	0.065
-417.457	-200.000	-0.005	0.239
-416.442	-200.000	-0.017	0.289
-415.428	106.394	-0.147	-0.174
-414.413	-84.170	-0.287	-0.091
-413.398	-47.477	-0.180	-0.087
-412.384	-55.252	-0.434	-0.194
-411.369	60.580	-0.277	-0.273
-410.355	800.000	-0.108	-0.299
-409.340	345.359	-0.059	0.115
-408.325	-172.782	-0.207	0.006
-407.311	-165.163	0.171	0.008
-406.296	-77.385	-0.235	0.081
-405.282	800.000	0.035	0.120
-404.267	258.164	0.056	-0.095
-403.252	663.800	-0.012	0.032
-402.238	-200.000	0.002	0.186
-401.223	-4.759	-0.130	0.090
-400.209	322.523	-0.131	-0.248
-399.194	800.000	-0.063	0.240
-398.179	-45.779	0.210	0.103
-397.165	315.659	-0.101	0.190
-396.150	-200.000	0.007	0.143
-395.136	800.000	-0.141	-0.501
-394.121	-188.964	0.278	-0.003
-393.106	-48.837	-0.245	-0.117
-392.092	-200.000	0.051	0.488
-391.077	-200.000	-0.036	0.217
-390.063	-200.000	0.016	-0.225
-389.048	-155.616	-0.369	-0.024
-388.033	-84.650	-0.155	0.049
-387.019	108.217	-0.085	0.101
-386.004	375.845	0.050	0.102
-384.990	-167.885	0.123	-0.005
-383.975	800.000	-0.020	0.087
-382.960	-55.780	0.222	-0.099
-381.946	-65.396	-0.303	-0.121
-380.931	800.000	-0.045	0.170
-379.917	-137.322	-0.079	0.009
-378.902	-200.000	-0.003	-0.136
-377.888	-67.078	-0.349	0.137
-376.873	147.269	0.067	-0.089
-375.858	297.928	-0.140	-0.256
-374.844	-91.181	-0.150	0.043
-373.829	20.707	0.382	0.308
-372.815	78.942	-0.217	0.231
-371.800	525.274	-0.060	-0.141
-370.785	40.996	-0.063	-0.057
-369.771	-12.946	0.023	0.015
-368.756	-200.000	0.020	-0.313
-367.742	800.000	-0.027	-0.115
-366.727	238.839	-0.075	0.125
-365.712	-200.000	-0.004	-0.047
-364.698	800.000	0.086	-0.270
-363.683	-36.525	0.269	-0.144
-362.669	-200.000	-0.000	-0.293
-361.654	-47.793	-0.405	0.195
-360.639	-24.138	0.196	0.117
-359.625	-9.214	-0.179	0.119
-358.610	211.325	-0.183	-0.286
-357.596	274.042	0.026	0.045
-356.581	800.000	0.103	0.326
-355.566	567.365	0.046	-0.110
-354.552	-144.603	0.054	-0.005
-353.537	-200.000	-0.035	0.276
-352.523	800.000	0.069	0.283
-351.508	-166.670	0.009	0.000
-350.493	-56.728	0.457	0.201
-349.479	6.944	-0.136	-0.101
-348.464	-200.000	-0.010	-0.046
-347.450	800.000	-0.029	-0.121
-346.435	-57.129	-0.201	-0.088
-345.420	-128.579	-0.083	-0.012
-344.406	800.000	-0.031	0.101
-343.391	-194.082	-0.390	-0.003
-342.377	-200.000	0.039	-0.352
-341.362	93.437	0.134	0.151
-340.348	-133.941	-0.317	0.039
-339.333	800.000	0.145	-0.401
-338.318	-152.861	0.133	-0.009
-337.304	-155.250	-0.368	0.024
-336.289	-200.000	0.051	0.390
-335.275	-200.000	0.165	0.000
-334.260	467.786	-0.095	0.212
-333.245	-115.013	-0.219	0.041
-332.231	-42.493	0.207	0.105
-331.216	31.595	0.059	0.050
-330.202	3.490	0.203	-0.147
-329.187	-31.692	0.248	0.138
-328.172	-200.000	-0.002	0.067
-327.158	57.777	-0.149	-0.144
-326.143	-200.000	0.012	-0.199
-325.129	84.720	0.018	0.020
-324.114	66.955	0.259	0.262
-323.099	-200.000	0.050	0.529
-322.085	800.000	0.053	0.179
-321.070	105.112	0.158	-0.185
-320.056	47.715	-0.140	-0.130
-319.041	800.000	-0.034	0.139
-318.026	800.000	0.061	-0.187
-317.012	17.695	0.186	-0.146
-315.997	-7.604	0.153	-0.103
-314.983	47.904	0.063	-0.059
-313.968	-198.898	-0.237	0.001
-312.953	-91.053	0.270	0.077
-311.939	800.000	0.077	-0.246
-310.924	-200.000	-0.015	0.189
-309.910	-182.606	0.251	0.005
-308.895	-200.000	-0.036	0.298
-307.880	-71.043	0.211	0.079
-306.866	475.455	-0.030	-0.068
-305.851	-195.105	-0.132	0.001
-304.837	-117.729	0.191	0.034
-303.822	-159.845	-0.254	-0.014
-302.807	137.567	0.099	-0.129
-301.793	-78.626	-0.043	-0.015
-300.778	509.087	0.138	0.319
-299.764	-76.737	0.073	-0.025
-298.749	-6.905	-0.149	-0.100
-297.735	-200.000	-0.020	-0.219
-296.720	251.665	0.111	0.187
-295.705	65.938	-0.253	0.255
-294.691	-115.408	-0.277	-0.052
-293.676	-86.478	-0.210	0.064
-292.662	-95.820	-0.297	0.079
-291.647	800.000	-0.023	0.070
-290.632	-18.944	0.217	0.134
-289.618	195.422	-0.345	0.519
-288.603	22.491	-0.153	0.124
-287.589	573.135	0.028	-0.068
-286.574	-200.000	-0.054	0.309
-285.559	415.667	0.230	-0.487
-284.545	-200.000	-0.053	-0.234
-283.530	-14.933	0.188	-0.120
-282.516	155.690	0.077	0.105
-281.501	-45.358	-0.211	0.104
-280.486	-87.632	-0.077	-0.023
-279.472	119.703	0.092	0.112
-278.457	-39.545	-0.178	0.092
-277.443	-20.912	-0.036	0.022
-276.428	70.681	0.180	-0.185
-275.413	-22.285	-0.123	-0.074
-274.399	208.796	-0.114	0.177
-273.384	56.657	-0.229	0.221
-272.370	-200.000	-0.003	0.024
-271.355	-15.629	0.290	0.183
-270.340	59.492	-0.094	-0.092
-269.326	-200.000	0.024	-0.421
-268.311	146.077	0.124	-0.164
-267.297	-200.000	-0.003	-0.118
-266.282	800.000	-0.051	0.166
-265.267	26.773	-0.066	0.055
-264.253	-200.000	-0.001	-0.013
-263.238	-66.697	-0.237	0.093
-262.224	177.275	0.088	0.128
-261.209	-101.192	-0.115	0.028
-260.195	-200.000	0.003	-0.022
-259.180	-200.000	0.031	-0.144
-258.165	105.696	-0.064	-0.074
-257.151	-57.554	0.099	0.043
-256.136	365.870	0.100	0.199
-255.122	417.614	0.070	0.149
-254.107	689.250	-0.030	-0.077
-253.092	-200.000	0.032	0.186
-252.078	-100.611	0.359	-0.088
-251.063	36.943	0.069	-0.060
-250.049	-155.433	0.094	0.006
-249.034	112.700	0.174	0.209
-248.019	486.826	0.065	-0.146
-247.005	4.129	0.125	0.091
-245.990	94.315	-0.164	0.185
-244.976	585.856	0.135	0.329
-243.961	280.788	-0.150	-0.266
-242.946	-200.000	-0.033	0.298
-241.932	-200.000	0.020	0.138
-240.917	25.967	-0.187	-0.155
-239.903	-200.000	-0.008	0.220
-238.888	800.000	0.103	-0.346
-237.873	-165.506	0.342	-0.015
-236.859	-76.385	-0.127	-0.044
-235.844	-132.112	-0.158	-0.020
-234.830	-83.259	0.206	0.066
-233.815	740.448	0.075	0.198
-232.800	-200.000	0.008	0.173
-231.786	55.548	0.233	-0.223
-230.771	-116.325	0.210	-0.038
-229.757	36.715	0.160	-0.140
-228.742	31.697	-0.207	0.176
-227.727	-134.899	0.297	0.036
-226.713	419.600	0.013	-0.027
-225.698	800.000	-0.043	-0.184
-224.684	93.764	0.084	0.095
-223.669	800.000	0.084	0.249
-222.655	-80.774	-0.255	0.084
-221.640	-98.674	0.143	0.036
-220.625	-110.268	0.234	-0.048
-219.611	-28.764	-0.262	-0.149
-218.596	15.125	-0.101	-0.078
-217.582	800.000	0.039	-0.146
-216.567	800.000	0.020	0.073
-215.552	-127.888	0.336	0.048
-214.538	-100.898	-0.214	-0.052
-213.523	-15.058	-0.174	0.110
-212.509	-29.286	0.450	0.255
-211.494	344.698	0.037	0.071
-210.479	-126.666	0.181	0.027
-209.465	-200.000	0.030	0.243
-208.450	800.000	0.054	0.149
-207.436	63.211	0.142	0.141
-206.421	-30.144	-0.057	-0.032
-205.406	-57.398	-0.127	0.055
-204.392	-18.866	0.152	-0.093
-203.377	-176.657	-0.225	0.006
-202.363	-124.081	-0.238	0.037
-201.348	155.733	0.212	0.289
-200.333	19.283	0.128	-0.101
-199.319	800.000	0.091	-0.309
-198.304	-19.290	-0.102	0.063
-197.290	579.600	-0.033	-0.079
-196.275	-176.771	0.346	0.009
-195.260	-200.000	-0.027	0.269
-194.246	-78.843	0.488	-0.164
-193.231	-44.469	0.239	0.118
-192.217	473.214	0.032	0.071
-191.202	452.614	0.105	-0.229
-190.187	-200.000	0.009	0.115
-189.173	0.071	0.175	-0.123
-188.158	13.153	0.161	0.123
-187.144	508.211	0.119	0.272
-186.129	-33.825	0.159	-0.087
-185.114	-200.000	-0.020	-0.350
-184.100	-95.479	0.091	0.024
-183.085	-40.492	0.148	0.076
-182.071	-200.000	-0.003	0.203
-181.056	9.144	0.061	-0.046
-180.042	800.000	0.029	-0.123
-179.027	-159.479	-0.228	0.013
-178.012	175.653	-0.079	0.113
-176.998	-200.000	-0.038	0.288
-175.983	-63.756	0.090	0.037
-174.969	123.804	0.170	0.211
-173.954	106.905	0.018	0.021
-172.939	234.942	0.142	-0.231
-171.925	-154.033	-0.151	-0.010
-170.910	-200.000	-0.012	0.167
-169.896	43.803	0.124	0.112
-168.881	193.783	0.060	-0.090
-167.866	70.334	0.156	0.159
-166.852	-200.000	0.010	0.046
-165.837	-135.880	-0.179	0.021
-164.823	-85.223	0.180	-0.056
-163.808	22.759	-0.152	-0.123
-162.793	56.729	0.128	0.123
-161.779	26.369	0.167	0.138
-160.764	-161.835	0.096	-0.005
-159.750	674.952	0.121	-0.310
-158.735	-0.566	0.198	-0.138
-157.720	-200.000	0.178	0.000
-156.706	198.919	-0.162	-0.245
-155.691	103.551	-0.159	0.184
-154.677	170.663	0.055	0.078
-153.662	800.000	-0.035	0.105
-152.647	-37.031	-0.198	0.105
-151.633	-200.000	-0.003	0.322
-150.618	-152.755	0.306	-0.021
-149.604	800.000	0.039	0.128
-148.589	-180.581	0.281	0.006
-147.574	-60.746	0.098	-0.041
-146.560	191.896	0.064	-0.095
-145.545	166.093	0.077	0.108
-144.531	-54.437	0.122	0.055
-143.516	-200.000	0.036	0.179
-142.502	0.115	-0.209	0.147
-141.487	-135.856	0.149	0.017
-140.472	-27.746	-0.190	0.108
-139.458	-29.055	-0.365	0.206
-138.443	249.511	-0.173	0.290
-137.429	-12.654	-0.159	0.102
-136.414	-93.104	-0.309	0.085
-135.399	-47.718	0.113	0.054
-134.385	351.483	-0.061	0.119
-133.370	154.202	0.095	0.129
-132.356	-92.416	0.183	0.051
-131.341	76.581	0.034	-0.035
-130.326	24.881	-0.116	-0.094
-129.312	213.583	-0.136	0.212
-128.297	-200.000	0.007	0.371
-127.283	63.368	-0.139	0.137
-126.268	-61.630	0.048	-0.020
-125.253	259.885	0.062	0.106
-124.239	-200.000	0.018	0.084
-123.224	-43.257	-0.225	0.112
-122.210	115.547	0.101	-0.122
-121.195	-195.133	-0.046	-0.000
-120.180	-200.000	-0.058	-0.321
-119.166	-200.000	-0.015	0.222
-118.151	621.553	0.093	0.231
-117.137	800.000	0.138	0.483
-116.122	-148.220	-0.125	0.010
-115.107	-200.000	0.031	-0.235
-114.093	-29.810	-0.180	-0.101
-113.078	-108.505	-0.074	0.016
-112.064	-21.885	-0.121	-0.072
-111.049	-200.000	0.006	-0.129
-110.034	30.327	-0.205	-0.172
-109.020	282.240	-0.112	0.198
-108.005	770.224	-0.017	0.044
-106.991	-100.655	0.358	0.087
-105.976	-5.618	-0.184	0.124
-104.962	315.446	-0.058	0.108
-103.947	-22.883	0.277	0.164
-102.932	119.781	0.093	-0.114
-101.918	800.000	0.016	-0.053
-100.903	-200.000	0.081	0.357
-99.889	-8.706	0.085	0.056
-98.874	800.000	0.135	0.430
-97.859	-162.434	0.233	0.011
-96.845	56.642	0.249	0.239
-95.830	18.325	-0.028	-0.022
-94.816	104.780	-0.185	0.214
-93.801	81.027	-0.216	0.229
-92.786	10.056	0.243	0.182
-91.772	161.934	-0.106	-0.146
-90.757	-200.000	0.076	-0.552
-89.743	74.444	-0.045	-0.046
-88.728	626.370	-0.018	-0.044
-87.713	-3.899	0.223	-0.152
-86.699	-200.000	-0.014	-0.188
-85.684	-71.445	0.156	-0.057
-84.670	800.000	-0.098	-0.324
-83.655	696.471	-0.049	0.127
-82.640	-200.000	0.033	0.307
-81.626	-161.007	0.220	0.011
-80.611	-51.643	-0.264	0.121
-79.597	-72.967	-0.194	-0.070
-78.582	-70.113	0.281	0.105
-77.567	47.536	-0.137	-0.126
-76.553	-200.000	0.022	0.218
-75.538	376.117	-0.239	0.479
-74.524	22.350	0.200	0.160
-73.509	-97.207	-0.286	0.073
-72.494	-113.145	0.117	-0.023
-71.480	201.035	-0.117	0.177
-70.465	727.820	-0.107	-0.282
-69.451	65.326	0.131	-0.130
-68.436	-28.410	-0.259	0.147
-67.422	53.460	-0.180	0.170
-66.407	140.403	0.211	0.274
-65.392	154.857	0.076	0.102
-64.378	325.565	-0.240	0.451
-63.363	636.484	0.086	-0.215
-62.349	-200.000	0.011	-0.055
-61.334	7.941	-0.787	-0.580
-60.319	-15.597	0.521	0.327
-59.305	715.679	-0.423	-1.103
-58.290	90.163	0.800	0.879
-57.276	800.000	0.415	1.416
-56.261	-200.000	95.811	584.853
-55.246	533.864	1399.739	3257.859
-54.232	155.611	2593.755	3509.244
-53.217	104.458	2303.915	2664.686
-52.203	40.520	1924.070	1702.355
-51.188	34.326	1711.815	1466.996
-50.173	31.727	1667.731	1409.631
-49.159	49.234	1713.863	1582.426
-48.144	50.572	1729.958	1607.419
-47.130	33.933	1692.065	1446.849
-46.115	31.295	1677.062	1414.025
-45.100	31.053	1672.539	1408.327
-44.086	30.991	1670.018	1405.678
-43.071	31.124	1666.929	1404.029
-42.057	31.008	1664.854	1401.349
-41.042	31.086	1662.852	1400.195
-40.027	31.054	1661.065	1398.397
-39.013	31.012	1658.258	1395.660
-37.998	30.917	1657.514	1394.271
-36.984	31.005	1656.055	1393.647
-35.969	31.179	1653.897	1393.073
-34.954	31.067	1652.869	1391.316
-33.940	31.134	1651.086	1390.257
-32.925	31.165	1649.638	1389.216
-31.911	31.071	1647.906	1387.002
-30.896	31.116	1646.086	1385.752
-29.881	31.091	1644.376	1384.069
-28.867	31.050	1642.975	1382.529
-27.852	31.027	1641.202	1380.816
-26.838	31.069	1639.930	1379.998
-25.823	31.174	1638.289	1379.344
-24.809	31.148	1636.912	1377.938
-23.794	31.166	1635.160	1376.537
-22.779	31.150	1633.968	1375.363
-21.765	31.206	1632.039	1374.094
-20.750	31.175	1630.682	1372.670
-19.736	31.242	1629.399	1372.031
-18.721	31.122	1628.271	1370.145
-17.706	31.139	1626.439	1368.672
-16.692	31.172	1624.719	1367.410
-15.677	31.077	1623.775	1365.869
-14.663	31.223	1622.356	1365.690
-13.648	31.254	1620.970	1364.692
-12.633	31.273	1619.126	1363.226
-11.619	31.173	1617.764	1361.295
-10.604	31.152	1616.475	1360.005
-9.590	31.070	1615.236	1358.313
-8.575	31.146	1613.921	1357.703
-7.560	31.169	1612.354	1356.502
-6.546	31.179	1611.344	1355.669
-5.531	31.190	1610.315	1354.830
-4.517	31.106	1609.180	1353.212
-3.502	31.132	1608.166	1352.494
-2.487	31.220	1606.454	1351.638
-1.473	31.226	1595.194	1342.151
-0.458	29.225	1576.684	1312.290
0.556	24.473	1578.986	1285.425
1.571	22.449	1602.551	1289.688
2.586	21.944	1615.822	1296.525
3.600	20.682	1565.105	1246.680
4.615	16.686	1462.923	1138.368
5.629	12.883	1404.805	1068.448
6.644	12.288	1396.730	1058.378
7.659	12.137	1396.048	1056.794
8.673	12.127	1394.551	1055.500
9.688	11.978	1393.031	1053.302
10.702	12.034	1389.868	1051.173
11.717	13.848	1392.760	1064.913
12.731	17.423	1399.113	1092.677
13.746	18.679	1400.041	1101.374
14.761	17.747	1397.094	1092.984
15.775	16.623	1394.561	1083.712
16.790	15.656	1391.522	1075.071
17.804	14.856	1389.190	1068.066
18.819	14.290	1387.220	1062.846
19.834	13.934	1386.274	1059.754
20.848	13.788	1384.618	1057.464
21.863	13.627	1383.150	1055.228
22.877	13.401	1382.315	1053.060
23.892	13.294	1381.583	1051.724
24.907	13.351	1380.688	1051.312
25.921	13.284	1379.625	1049.987
26.936	13.368	1378.764	1049.769
27.950	13.398	1377.678	1049.043
28.965	13.422	1376.713	1048.368
29.980	13.424	1375.800	1047.588
30.994	13.522	1374.573	1047.184
32.009	13.637	1373.010	1046.626
33.023	13.548	1372.152	1045.318
34.038	13.479	1371.111	1043.995
35.053	13.433	1369.673	1042.521
36.067	13.567	1367.826	1041.863
37.082	13.375	1367.742	1040.502
38.096	13.515	1366.406	1040.269
39.111	13.537	1365.498	1039.627
40.126	13.470	1364.592	1038.427
41.140	13.452	1363.915	1037.708
42.155	13.222	1363.576	1035.915
43.169	13.259	1363.344	1035.876
44.184	13.209	1363.459	1035.560
45.199	13.326	1362.343	1035.355
46.213	13.366	1362.094	1035.323
47.228	13.415	1361.242	1034.888
48.242	13.444	1359.838	1033.914
49.257	13.458	1358.080	1032.570
50.271	13.406	1356.678	1031.092
51.286	13.424	1355.782	1030.430
52.301	13.389	1354.344	1029.029
53.315	13.398	1353.091	1028.043
54.330	13.311	1351.965	1026.554
55.344	13.322	1350.871	1025.701
56.359	13.413	1349.581	1025.192
57.374	13.277	1348.938	1023.773
58.388	13.218	1348.248	1022.793
59.403	13.211	1348.096	1022.543
60.417	13.264	1346.433	1021.518
61.432	13.207	1346.138	1020.855
62.447	13.179	1345.124	1019.820
63.461	13.083	1343.819	1018.150
64.476	13.155	1342.378	1017.411
65.490	13.145	1341.431	1016.543
66.505	13.236	1340.028	1015.952
67.520	13.182	1338.421	1014.307
68.534	13.253	1337.630	1014.057
69.549	13.207	1336.835	1013.079
70.563	13.205	1335.764	1012.168
71.578	13.175	1334.746	1011.124
72.593	13.065	1333.505	1009.423
73.607	13.065	1332.969	1008.928
74.622	13.063	1332.232	1008.264
75.636	13.132	1331.439	1008.000
76.651	13.078	1330.848	1007.129
77.666	13.137	1330.324	1007.007
78.680	13.068	1329.971	1006.229
79.695	13.085	1328.906	1005.438
80.709	13.240	1327.863	1005.503
81.724	13.225	1327.029	1004.689
82.739	13.250	1326.324	1004.218
83.753	13.303	1325.709	1003.989
84.768	13.416	1324.541	1003.702
85.782	13.461	1323.206	1002.870
86.797	13.535	1321.827	1002.183
87.812	13.436	1320.584	1000.556
88.826	13.422	1319.446	999.520
89.841	13.470	1318.460	998.978
90.855	13.404	1317.513	997.774
91.870	13.505	1316.464	997.498
92.884	13.467	1315.807	996.683
93.899	13.460	1315.160	996.065
94.914	13.519	1314.294	995.671
95.928	13.563	1313.261	995.067
96.943	13.488	1312.828	994.198
97.957	13.467	1311.545	993.013
98.972	13.439	1310.755	992.161
99.987	13.467	1309.238	991.091
101.001	13.525	1308.377	990.698
102.016	13.462	1307.440	989.525
103.030	13.496	1306.604	989.011
104.045	13.515	1305.448	988.157
105.060	13.485	1304.333	987.051
106.074	13.435	1302.983	985.646
107.089	13.269	1301.823	983.689
108.103	13.210	1300.790	982.473
109.118	13.210	1299.412	981.343
110.133	13.222	1298.061	980.312
111.147	13.271	1296.533	979.361
112.162	13.310	1295.090	978.412
113.176	13.350	1293.891	977.657
114.191	13.452	1292.925	977.442
115.206	13.461	1291.972	976.688
116.220	13.400	1290.558	975.175
117.235	13.401	1289.292	974.138
118.249	13.360	1288.920	973.529
119.264	13.346	1287.390	972.204
120.279	13.311	1286.403	971.169
121.293	13.297	1285.467	970.293
122.308	13.241	1284.236	968.948
123.322	13.282	1283.434	968.498
124.337	13.377	1281.545	967.544
125.352	13.297	1281.010	966.589
126.366	13.241	1279.834	965.286
127.381	13.320	1278.604	964.734
128.395	13.201	1277.841	963.378
129.410	13.294	1276.945	963.162
130.424	13.354	1275.821	962.579
131.439	13.358	1275.091	961.966
132.454	13.329	1274.074	960.943
133.468	13.464	1273.070	960.883
134.483	13.444	1272.093	959.944
135.497	13.391	1271.257	958.923
136.512	13.340	1270.105	957.673
137.527	13.352	1268.879	956.736
138.541	13.348	1267.205	955.366
139.556	13.514	1265.905	955.255
140.570	13.473	1264.779	954.084
141.585	13.472	1263.490	953.024
142.600	13.469	1262.418	952.115
143.614	13.645	1261.276	952.181
144.629	13.608	1260.408	951.229
145.643	13.597	1258.922	949.957
146.658	13.473	1258.157	948.589
147.673	13.566	1256.870	948.066
148.687	13.564	1255.234	946.738
149.702	13.378	1254.404	944.965
150.716	13.482	1252.787	944.258
151.731	13.526	1251.470	943.429
152.746	13.458	1250.511	942.238
153.760	13.496	1249.555	941.649
154.775	13.574	1248.146	940.950
155.789	13.524	1247.569	940.143
156.804	13.613	1246.319	939.625
157.819	13.686	1245.337	939.214
158.833	13.665	1244.413	938.314
159.848	13.706	1243.330	937.650
160.862	13.632	1242.247	936.328
161.877	13.628	1241.128	935.380
162.892	13.537	1240.284	934.147
163.906	13.486	1239.281	933.026
164.921	13.486	1238.588	932.418
165.935	13.708	1237.247	932.576
166.950	13.596	1236.751	931.490
167.964	13.620	1236.034	931.004
168.979	13.591	1235.775	930.562
169.994	13.595	1234.805	929.773
171.008	13.737	1233.769	929.708
172.023	13.703	1233.051	928.893
173.037	13.735	1232.639	928.678
174.052	13.777	1231.534	927.997
175.067	13.692	1230.603	926.738
176.081	13.719	1229.692	926.124
177.096	13.654	1228.360	924.675
178.110	13.611	1227.630	923.802
179.125	13.709	1225.888	922.955
180.140	13.717	1225.041	922.283
181.154	13.795	1223.680	921.607
182.169	13.830	1222.585	920.898
183.183	13.861	1221.597	920.242
184.198	13.816	1220.340	918.965
185.213	13.901	1218.911	918.278
186.227	13.874	1218.138	917.468
187.242	13.977	1217.302	917.323
188.256	14.032	1216.272	916.771
189.271	14.025	1215.235	915.870
190.286	13.890	1213.977	914.093
191.300	13.691	1213.480	912.546
192.315	13.663	1212.795	911.795
193.329	13.689	1211.777	911.092
194.344	13.730	1211.499	911.028
195.359	13.865	1210.452	910.900
196.373	14.002	1209.976	911.214
197.388	13.986	1209.437	910.641
198.402	14.048	1209.361	910.843
199.417	14.175	1208.393	910.727
200.432	14.173	1207.354	909.852
201.446	14.185	1206.689	909.337
202.461	14.255	1205.473	908.724
203.475	14.221	1204.638	907.827
204.490	14.200	1203.319	906.639
205.504	14.122	1202.010	905.147
206.519	14.154	1200.981	904.464
207.534	14.154	1199.708	903.427
208.548	14.093	1198.958	902.453
209.563	14.224	1198.016	902.370
210.577	14.211	1196.950	901.420
211.592	14.185	1196.200	900.634
212.607	14.303	1194.837	900.164
213.621	14.284	1194.571	899.786
214.636	14.246	1193.593	898.765
215.650	14.356	1192.631	898.549
216.665	14.306	1191.582	897.412
217.680	14.317	1191.003	896.954
218.694	14.325	1190.228	896.334
219.709	14.357	1189.489	895.872
220.723	14.283	1188.420	894.589
221.738	14.362	1187.632	894.342
222.753	14.343	1187.255	893.879
223.767	14.396	1186.630	893.610
224.782	14.530	1185.725	893.567
225.796	14.480	1184.825	892.546
226.811	14.511	1184.277	892.219
227.826	14.531	1183.391	891.580
228.840	14.449	1183.217	890.932
229.855	14.540	1181.932	890.371
230.869	14.503	1181.421	889.709
231.884	14.452	1180.624	888.759
232.899	14.454	1179.725	888.011
233.913	14.476	1178.916	887.442
234.928	14.412	1178.189	886.474
235.942	14.428	1177.551	886.004
236.957	14.426	1176.887	885.413
237.972	14.505	1176.026	885.108
238.986	14.449	1175.452	884.298
240.001	14.551	1174.640	884.152
241.015	14.579	1173.688	883.507
242.030	14.618	1172.937	883.067
243.045	14.528	1172.113	881.891
244.059	14.570	1171.543	881.607
245.074	14.575	1170.986	881.136
246.088	14.564	1170.294	880.483
247.103	14.745	1169.020	880.397
248.117	14.755	1167.753	879.417
249.132	14.751	1167.594	879.198
250.147	14.825	1166.989	879.059
251.161	14.908	1166.138	878.776
252.176	14.922	1165.497	878.289
253.190	14.918	1165.054	877.853
254.205	15.047	1164.673	878.165
255.220	15.054	1164.223	877.784
256.234	15.085	1163.158	877.067
257.249	15.078	1162.646	876.568
258.263	15.026	1161.979	875.715
259.278	15.182	1161.153	875.829
260.293	15.059	1160.767	874.820
261.307	15.162	1160.415	875.015
262.322	15.053	1159.704	873.834
263.336	15.147	1158.706	873.495
264.351	15.231	1158.166	873.448
265.366	15.185	1157.491	872.620
266.380	15.196	1156.596	871.926
267.395	15.154	1155.814	871.039
268.409	15.076	1155.336	870.199
269.424	15.161	1154.661	870.053
270.439	15.245	1153.958	869.884
271.453	15.244	1152.931	869.024
272.468	15.193	1151.738	867.788
273.482	15.168	1151.530	867.423
274.497	15.114	1151.053	866.710
275.512	15.180	1150.253	866.370
276.526	15.256	1149.366	866.017
277.541	15.168	1148.503	864.835
278.555	15.195	1147.874	864.424
279.570	15.277	1147.257	864.309
280.585	15.416	1146.229	864.173
281.599	15.478	1145.278	863.700
282.614	15.333	1144.493	862.287
283.628	15.296	1143.653	861.388
284.643	15.308	1142.286	860.343
285.657	15.391	1141.742	860.280
286.672	15.406	1140.441	859.300
287.687	15.419	1139.860	858.856
288.701	15.510	1138.926	858.540
289.716	15.364	1138.970	857.750
290.730	15.475	1137.689	857.274
291.745	15.409	1136.935	856.296
292.760	15.428	1136.299	855.838
293.774	15.440	1135.838	855.479
294.789	15.578	1135.264	855.672
295.803	15.573	1134.673	855.125
296.818	15.563	1133.877	854.396
297.833	15.601	1132.678	853.614
298.847	15.593	1132.130	853.081
299.862	15.533	1131.579	852.287
300.876	15.646	1130.780	852.185
301.891	15.571	1130.396	851.441
302.906	15.619	1129.652	851.049
303.920	15.746	1128.604	850.822
304.935	15.788	1128.085	850.570
305.949	15.732	1127.463	849.745
306.964	15.909	1126.264	849.659
307.979	15.778	1126.058	848.767
308.993	15.880	1124.960	848.375
310.008	15.896	1124.067	847.709
311.022	15.855	1123.443	846.956
312.037	15.774	1122.969	846.119
313.052	15.724	1121.922	845.003
314.066	15.843	1120.884	844.742
315.081	15.700	1120.087	843.349
316.095	15.728	1119.230	842.772
317.110	15.796	1118.655	842.604
318.125	15.666	1118.524	841.781
319.139	15.824	1117.196	841.498
320.154	15.694	1116.733	840.423
321.168	15.740	1115.553	839.690
322.183	15.801	1115.598	839.954
323.197	15.824	1115.114	839.629
324.212	15.948	1113.977	839.316
325.227	15.881	1113.771	838.752
326.241	15.855	1112.698	837.742
327.256	15.890	1112.108	837.400
328.270	15.879	1111.123	836.525
329.285	15.951	1110.065	836.015
330.300	15.855	1109.558	835.082
331.314	15.846	1108.563	834.216
332.329	15.815	1107.440	833.143
333.343	16.016	1106.551	833.396
334.358	16.049	1105.564	832.740
335.373	15.977	1105.147	831.997
336.387	16.018	1104.049	831.301
337.402	16.202	1103.328	831.588
338.416	16.043	1102.918	830.422
339.431	16.132	1102.084	830.163
340.446	16.124	1101.761	829.803
341.460	16.211	1100.866	829.486
342.475	16.201	1100.021	828.726
343.489	16.225	1099.205	828.156
344.504	16.318	1098.031	827.652
345.519	16.379	1097.057	827.144
346.533	16.368	1096.968	826.950
347.548	16.375	1096.038	826.210
348.562	16.445	1095.045	825.731
349.577	16.230	1094.124	823.914
350.592	16.321	1093.394	823.737
351.606	16.296	1092.756	823.060
352.621	16.177	1091.964	821.812
353.635	16.202	1091.180	821.269
354.650	16.210	1090.925	821.045
355.665	16.291	1089.997	820.669
356.679	16.343	1089.299	820.321
357.694	16.391	1088.683	820.018
358.708	16.420	1088.041	819.604
359.723	16.477	1087.176	819.153
360.738	16.435	1086.931	818.691
361.752	16.483	1086.405	818.457
362.767	16.467	1085.745	817.811
363.781	16.523	1085.108	817.528
364.796	16.527	1084.662	817.139
365.810	16.613	1083.883	816.897
366.825	16.656	1083.097	816.439
367.840	16.755	1082.457	816.361
368.854	16.662	1082.230	815.670
369.869	16.660	1081.587	815.103
370.883	16.736	1080.395	814.501
371.898	16.579	1079.888	813.287
372.913	16.596	1079.359	812.901
373.927	16.686	1078.579	812.675
374.942	16.760	1078.042	812.552
375.956	16.829	1077.764	812.602
376.971	16.676	1076.838	811.097
377.986	16.764	1076.514	811.206
379.000	16.798	1076.416	811.222
380.015	16.821	1075.691	810.713
381.029	16.827	1075.070	810.203
382.044	16.895	1074.007	809.653
383.059	16.936	1073.127	809.116
384.073	16.985	1072.150	808.538
385.088	16.944	1071.556	807.826
386.102	16.980	1070.807	807.361
387.117	16.939	1069.755	806.300
388.132	16.824	1068.897	805.038
389.146	16.839	1067.781	804.198
390.161	16.812	1067.145	803.515
391.175	16.835	1066.626	803.166
392.190	17.025	1065.549	803.182
393.205	16.998	1064.981	802.554
394.219	16.974	1064.518	802.022
395.234	16.936	1063.537	801.031
396.248	17.010	1062.415	800.465
397.263	16.949	1061.311	799.276
398.278	16.982	1060.740	798.929
399.292	16.887	1060.387	798.146
400.307	16.975	1059.277	797.655
401.321	17.101	1058.433	797.538
402.336	16.934	1058.325	796.604
403.350	17.031	1057.217	796.153
404.365	16.993	1056.588	795.432
405.380	17.090	1056.011	795.381
406.394	17.036	1055.483	794.660
407.409	17.046	1054.680	794.034
408.423	17.223	1053.930	794.226
409.438	17.274	1052.927	793.636
410.453	17.326	1052.497	793.487
411.467	17.272	1051.574	792.467
412.482	17.314	1051.343	792.421
413.496	17.331	1050.408	791.723
414.511	17.408	1049.779	791.537
415.526	17.486	1049.484	791.608
416.540	17.503	1049.094	791.324
417.555	17.439	1048.766	790.706
418.569	17.541	1047.673	790.285
419.584	17.552	1047.202	789.914
420.599	17.513	1046.964	789.480
421.613	101.731	1320.622	1461.215
422.628	93.548	1360.447	1461.337
