DTS Sentinel unit serial number:	SN413079Multiplexer serial number:	ORYXHardware model number:	OX4-SRSoftware version number:	ORYX F/W v4.00 Oryx Data Collector v3.7.2.0data status	okinstallation	princeton_trtdifferential loss correction	single-endedforward channel	channel 2reverse channel	N/Adate	2019/09/14time	10:51:35forward acquisition time	60.00reverse acquisition time	0.00gamma	496.2192k internal	0.2315k external	0.2315temperature offset calibration	1.0144default loss term (dB/km)	0.3790temperature slope calibration	1.0000multiplexer offset coefficient	1.0000multiplexer slope coefficient	1.0000fibre end	0.00T internal ref (°C)	35.67T ext. ref 1 (°C)	4.32T ext. ref 2 (°C)	33.01length (m)	temperature (°C)	Stokes	anti-Stokes-747.200	-91.115	0.119	0.035
-746.185	-78.117	0.290	0.101
-745.171	800.000	-0.083	-0.270
-744.156	-200.000	-0.035	0.460
-743.142	-158.763	-0.146	0.008
-742.127	-200.000	0.017	-0.311
-741.112	782.973	0.022	-0.062
-740.098	-200.000	-0.043	0.231
-739.083	210.598	0.106	-0.169
-738.069	220.060	0.172	0.280
-737.054	-81.195	0.248	-0.083
-736.039	-200.000	-0.025	-0.145
-735.025	-108.103	0.193	0.042
-734.010	800.000	0.084	-0.363
-732.996	-200.000	0.012	-0.111
-731.981	-138.933	-0.284	0.031
-730.966	-70.118	-0.230	-0.089
-729.952	84.879	0.087	0.097
-728.937	-108.304	-0.276	0.060
-727.923	-200.000	0.084	-0.465
-726.908	135.626	-0.050	0.066
-725.894	-46.789	-0.084	-0.042
-724.879	790.861	-0.153	-0.427
-723.864	-115.749	-0.449	0.085
-722.850	-182.061	-0.131	-0.003
-721.835	-60.135	-0.098	-0.042
-720.821	23.416	-0.262	0.218
-719.806	71.711	-0.172	0.181
-718.791	6.531	-0.136	-0.103
-717.777	-154.512	-0.339	0.023
-716.762	-114.073	-0.369	-0.072
-715.748	800.000	0.059	0.229
-714.733	-172.696	0.107	-0.003
-713.718	103.387	-0.019	-0.023
-712.704	431.934	-0.079	-0.174
-711.689	196.558	0.176	0.271
-710.675	-67.999	0.070	-0.028
-709.660	-98.545	0.349	0.090
-708.645	-5.632	-0.253	-0.176
-707.631	-133.042	0.195	0.025
-706.616	-26.820	0.130	0.077
-705.602	453.944	-0.108	-0.242
-704.587	140.156	-0.166	0.222
-703.572	-200.000	-0.017	0.105
-702.558	-200.000	0.025	0.119
-701.543	48.516	0.221	-0.210
-700.529	-79.677	0.229	-0.078
-699.514	800.000	0.076	-0.247
-698.499	-56.754	0.024	0.011
-697.485	-106.583	0.172	0.039
-696.470	-138.399	-0.042	-0.005
-695.456	206.860	0.052	-0.082
-694.441	-167.004	-0.191	0.008
-693.426	107.128	-0.046	0.055
-692.412	-27.784	0.236	-0.138
-691.397	-67.634	0.205	-0.081
-690.383	176.030	0.101	0.149
-689.368	-200.000	0.023	-0.171
-688.354	-127.347	-0.198	0.029
-687.339	-200.000	-0.028	-0.167
-686.324	235.375	0.158	-0.263
-685.310	-200.000	-0.017	0.325
-684.295	167.434	-0.079	-0.114
-683.281	220.417	-0.037	0.060
-682.266	82.187	0.134	-0.147
-681.251	-133.875	-0.173	-0.022
-680.237	124.386	-0.023	0.030
-679.222	-23.801	0.179	-0.109
-678.208	7.136	-0.158	0.119
-677.193	165.028	-0.176	0.252
-676.178	103.677	-0.203	-0.241
-675.164	-200.000	-0.004	-0.170
-674.149	96.716	-0.227	-0.263
-673.135	453.272	0.089	-0.198
-672.120	106.288	0.042	-0.050
-671.105	-200.000	0.001	0.016
-670.091	-200.000	0.044	-0.387
-669.076	-60.462	0.185	-0.080
-668.062	800.000	0.019	0.057
-667.047	-200.000	-0.008	-0.083
-666.032	-200.000	-0.003	0.049
-665.018	242.354	0.086	-0.146
-664.003	-169.972	-0.226	0.008
-662.989	-200.000	0.013	-0.332
-661.974	2.888	-0.083	-0.061
-660.959	98.727	-0.039	-0.045
-659.945	-132.102	-0.120	0.016
-658.930	-132.833	-0.226	0.029
-657.916	59.195	-0.295	0.293
-656.901	-200.000	0.002	-0.217
-655.886	115.897	0.098	0.121
-654.872	-23.632	-0.278	-0.168
-653.857	102.046	0.160	-0.189
-652.843	-200.000	-0.019	-0.109
-651.828	-44.292	-0.182	0.092
-650.814	-200.000	-0.017	-0.194
-649.799	95.154	-0.100	-0.115
-648.784	-63.565	-0.505	0.209
-647.770	350.963	-0.092	-0.184
-646.755	-19.198	0.158	-0.099
-645.741	-85.015	-0.341	-0.108
-644.726	-200.000	-0.025	0.269
-643.711	-144.362	-0.196	0.018
-642.697	-200.000	-0.033	0.233
-641.682	-200.000	0.023	-0.110
-640.668	87.102	-0.062	-0.070
-639.653	-7.366	-0.088	-0.060
-638.638	-23.623	-0.099	0.060
-637.624	9.742	0.125	0.096
-636.609	-42.031	0.209	0.108
-635.595	-200.000	0.012	-0.168
-634.580	-200.000	0.012	-0.286
-633.565	-47.685	0.269	-0.132
-632.551	-27.303	-0.408	0.240
-631.536	97.428	-0.214	-0.248
-630.522	36.232	-0.088	0.078
-629.507	-200.000	0.035	-0.156
-628.492	273.906	-0.104	0.186
-627.478	111.338	0.236	0.287
-626.463	612.877	0.061	-0.154
-625.449	-19.616	0.077	0.048
-624.434	-123.265	0.043	-0.007
-623.419	66.315	-0.149	-0.153
-622.405	-5.805	-0.199	0.137
-621.390	-157.893	-0.099	-0.006
-620.376	33.257	-0.212	0.185
-619.361	82.668	0.073	-0.080
-618.346	-159.495	-0.279	-0.016
-617.332	-59.556	-0.094	0.041
-616.317	-112.088	-0.346	0.070
-615.303	-38.484	0.129	-0.069
-614.288	-200.000	-0.035	-0.307
-613.273	-71.380	-0.169	-0.064
-612.259	-67.451	-0.210	0.083
-611.244	-200.000	0.007	-0.274
-610.230	98.478	-0.178	-0.207
-609.215	800.000	-0.086	0.323
-608.201	457.834	0.105	-0.235
-607.186	800.000	0.072	0.218
-606.171	65.585	-0.218	-0.223
-605.157	-96.740	0.102	-0.027
-604.142	-200.000	0.021	-0.184
-603.128	-149.798	-0.122	0.010
-602.113	-108.023	0.169	0.037
-601.098	37.641	0.059	-0.053
-600.084	-56.223	-0.075	-0.033
-599.069	-123.008	-0.261	0.042
-598.055	96.775	0.167	-0.193
-597.040	-85.681	-0.175	-0.055
-596.025	489.695	-0.089	0.204
-595.011	37.831	-0.159	0.142
-593.996	306.744	-0.123	0.230
-592.982	280.832	0.115	-0.207
-591.967	288.496	-0.124	-0.226
-590.952	-127.455	-0.350	0.051
-589.938	-40.717	-0.226	-0.118
-588.923	783.930	-0.107	-0.295
-587.909	-200.000	-0.051	-0.296
-586.894	-200.000	-0.030	0.367
-585.879	223.096	-0.084	0.137
-584.865	-128.839	0.303	0.043
-583.850	-186.123	0.115	-0.002
-582.836	252.222	0.110	-0.188
-581.821	-155.107	-0.307	0.020
-580.806	271.354	0.140	-0.248
-579.792	13.361	0.295	0.231
-578.777	-90.643	-0.243	0.071
-577.763	31.396	0.107	-0.093
-576.748	7.214	-0.210	0.158
-575.733	800.000	0.078	-0.265
-574.719	277.051	0.153	0.273
-573.704	-48.870	0.107	0.052
-572.690	-200.000	-0.046	0.210
-571.675	185.739	-0.160	0.239
-570.661	387.388	-0.047	0.098
-569.646	-54.161	-0.269	-0.123
-568.631	800.000	-0.087	-0.259
-567.617	-146.895	0.213	-0.018
-566.602	-54.729	-0.183	-0.083
-565.588	-200.000	0.035	0.213
-564.573	-105.412	-0.112	0.026
-563.558	101.260	-0.261	-0.306
-562.544	175.997	-0.090	-0.132
-561.529	-56.500	-0.141	0.063
-560.515	-80.204	-0.283	0.095
-559.500	-45.636	0.210	0.104
-558.485	450.917	0.118	-0.262
-557.471	-108.894	0.350	-0.075
-556.456	-131.577	-0.209	-0.028
-555.442	800.000	0.101	-0.318
-554.427	-141.513	0.197	0.020
-553.412	-23.713	0.197	0.119
-552.398	732.766	0.055	0.148
-551.383	-60.592	-0.166	0.071
-550.369	319.263	-0.135	0.257
-549.354	59.746	-0.250	0.249
-548.339	-50.392	-0.146	-0.070
-547.325	-116.155	-0.405	-0.076
-546.310	800.000	-0.038	-0.124
-545.296	800.000	-0.026	-0.090
-544.281	-18.439	0.021	0.013
-543.266	-114.890	-0.131	0.025
-542.252	-200.000	-0.022	0.141
-541.237	158.685	-0.167	0.234
-540.223	-200.000	0.021	0.134
-539.208	800.000	-0.073	-0.271
-538.193	-200.000	0.055	-0.317
-537.179	16.149	-0.293	-0.232
-536.164	27.736	-0.256	-0.216
-535.150	-8.366	-0.145	0.098
-534.135	-200.000	-0.004	0.105
-533.121	-73.845	0.137	0.050
-532.106	54.446	0.173	-0.168
-531.091	-36.237	0.095	-0.051
-530.077	132.417	-0.124	-0.161
-529.062	21.003	0.103	0.084
-528.048	432.173	0.141	0.308
-527.033	68.402	0.042	0.043
-526.018	16.155	0.276	0.218
-525.004	6.770	-0.251	-0.188
-523.989	7.465	-0.211	0.159
-522.975	-5.342	-0.259	0.179
-521.960	252.104	-0.067	0.114
-520.945	-200.000	0.007	-0.063
-519.931	57.134	0.286	0.280
-518.916	-200.000	0.011	0.065
-517.902	276.240	-0.129	-0.230
-516.887	-200.000	0.030	0.227
-515.872	800.000	0.025	-0.100
-514.858	-186.787	-0.406	0.006
-513.843	-200.000	0.007	0.157
-512.829	34.601	0.174	-0.153
-511.814	-122.609	0.115	-0.019
-510.799	48.728	0.111	-0.105
-509.785	-200.000	-0.032	-0.285
-508.770	-200.000	-0.014	-0.142
-507.756	-47.101	-0.198	0.097
-506.741	-1.551	0.208	0.147
-505.726	-1.208	0.136	0.096
-504.712	-108.752	0.241	-0.052
-503.697	57.325	-0.420	-0.412
-502.683	-200.000	0.035	-0.270
-501.668	39.995	-0.378	0.341
-500.653	660.890	0.110	0.285
-499.639	-109.260	0.451	-0.096
-498.624	56.364	0.070	0.069
-497.610	800.000	0.026	-0.086
-496.595	-47.590	0.212	-0.103
-495.581	733.776	-0.102	-0.274
-494.566	-195.858	-0.198	0.001
-493.551	-44.760	0.226	0.113
-492.537	52.758	0.064	0.061
-491.522	-102.523	0.194	0.047
-490.508	-200.000	0.004	-0.204
-489.493	-68.645	0.147	-0.057
-488.478	800.000	0.072	0.241
-487.464	-119.567	-0.347	-0.060
-486.449	518.505	0.038	-0.088
-485.435	683.892	0.053	-0.140
-484.420	25.176	-0.223	0.185
-483.405	-122.843	-0.243	-0.039
-482.391	-65.218	-0.097	0.039
-481.376	197.007	0.119	0.181
-480.362	32.265	0.188	0.163
-479.347	163.176	-0.113	0.160
-478.332	-91.094	-0.291	0.084
-477.318	15.730	-0.269	-0.212
-476.303	243.045	-0.157	-0.263
-475.289	-0.623	-0.211	-0.150
-474.274	41.684	0.105	-0.095
-473.259	118.103	0.144	0.178
-472.245	-62.919	-0.128	-0.053
-471.230	355.072	-0.141	-0.282
-470.216	800.000	-0.057	-0.159
-469.201	144.675	-0.070	-0.094
-468.186	800.000	0.131	0.372
-467.172	163.307	-0.218	-0.307
-466.157	106.527	0.112	0.133
-465.143	-200.000	0.016	0.113
-464.128	78.175	-0.180	-0.192
-463.113	-200.000	0.028	-0.272
-462.099	-150.411	0.144	0.011
-461.084	-121.071	-0.262	-0.044
-460.070	800.000	-0.044	-0.132
-459.055	800.000	0.113	0.336
-458.040	132.478	0.111	0.144
-457.026	-145.421	-0.163	-0.015
-456.011	-81.106	-0.486	-0.161
-454.997	-8.408	0.135	0.091
-453.982	-1.839	-0.141	-0.099
-452.968	800.000	-0.061	-0.212
-451.953	-200.000	-0.004	-0.082
-450.938	-134.196	-0.047	-0.006
-449.924	417.321	-0.120	-0.256
-448.909	70.084	-0.069	0.072
-447.895	-103.147	-0.320	-0.076
-446.880	-200.000	0.013	-0.235
-445.865	96.822	-0.131	0.150
-444.851	800.000	-0.084	-0.282
-443.836	-7.726	-0.371	0.251
-442.822	118.620	0.212	0.262
-441.807	-50.907	0.298	0.140
-440.792	-200.000	0.161	-0.001
-439.778	-2.637	-0.215	0.151
-438.763	130.160	-0.047	0.060
-437.749	-200.000	0.016	-0.239
-436.734	-200.000	0.035	0.321
-435.719	-200.000	-0.003	-0.044
-434.705	75.354	0.211	0.223
-433.690	-0.857	0.135	0.096
-432.676	-107.107	-0.124	0.027
-431.661	184.668	-0.153	-0.226
-430.646	800.000	0.047	-0.144
-429.632	-200.000	-0.058	-0.362
-428.617	-146.038	0.428	0.038
-427.603	800.000	-0.028	-0.088
-426.588	800.000	-0.040	-0.139
-425.573	800.000	-0.023	-0.076
-424.559	103.015	0.028	-0.032
-423.544	33.431	-0.183	-0.159
-422.530	-200.000	0.028	-0.152
-421.515	-200.000	-0.019	0.099
-420.500	254.467	-0.091	-0.157
-419.486	317.692	0.112	-0.212
-418.471	-7.402	-0.128	-0.087
-417.457	-53.774	0.289	-0.132
-416.442	-71.293	0.146	-0.055
-415.428	413.383	-0.091	-0.194
-414.413	40.129	0.090	-0.081
-413.398	-144.510	0.230	0.021
-412.384	62.978	-0.271	0.271
-411.369	-74.991	0.046	-0.017
-410.355	59.785	-0.131	0.129
-409.340	106.815	-0.002	0.002
-408.325	-21.833	-0.241	-0.147
-407.311	-3.552	-0.177	-0.123
-406.296	164.452	0.058	-0.081
-405.282	800.000	0.081	0.327
-404.267	800.000	0.060	0.188
-403.252	-140.734	0.278	0.029
-402.238	-80.967	0.179	-0.059
-401.223	55.983	-0.181	0.176
-400.209	5.784	-0.128	-0.095
-399.194	-48.842	-0.047	-0.023
-398.179	144.413	-0.090	-0.120
-397.165	63.774	0.145	-0.145
-396.150	93.868	0.225	-0.255
-395.136	-200.000	-0.450	0.001
-394.121	-200.000	-0.006	0.057
-393.106	93.199	0.153	-0.173
-392.092	-200.000	-0.010	0.266
-391.077	-200.000	0.041	-0.209
-390.063	191.014	-0.014	0.021
-389.048	134.208	-0.166	-0.215
-388.033	65.711	-0.126	-0.128
-387.019	-142.723	-0.049	-0.005
-386.004	-107.343	-0.411	-0.090
-384.990	-94.655	0.118	0.032
-383.975	-83.554	-0.132	-0.042
-382.960	96.724	-0.091	-0.104
-381.946	635.046	-0.192	0.487
-380.931	385.232	-0.112	0.231
-379.917	315.099	0.082	0.155
-378.902	153.554	0.143	0.195
-377.888	160.823	-0.105	0.147
-376.873	-87.951	-0.041	-0.012
-375.858	800.000	-0.066	-0.189
-374.844	-200.000	-0.001	0.086
-373.829	66.786	0.330	0.335
-372.815	11.281	-0.308	-0.236
-371.800	228.580	0.166	0.270
-370.785	112.668	0.086	0.104
-369.771	-200.000	0.031	0.459
-368.756	-40.807	0.321	-0.166
-367.742	259.149	0.101	-0.174
-366.727	-200.000	0.004	0.109
-365.712	8.042	-0.299	-0.224
-364.698	800.000	-0.083	0.231
-363.683	344.502	0.087	-0.170
-362.669	-135.564	-0.244	-0.029
-361.654	199.748	0.110	-0.168
-360.639	-99.458	0.086	0.022
-359.625	-109.787	0.115	-0.024
-358.610	-200.000	-0.019	0.224
-357.596	36.185	-0.180	0.158
-356.581	-98.257	-0.405	0.104
-355.566	-75.867	0.152	0.054
-354.552	-25.650	-0.344	-0.203
-353.537	-8.816	0.196	-0.131
-352.523	-173.662	0.291	0.009
-351.508	-121.010	-0.349	-0.058
-350.493	800.000	0.075	-0.221
-349.479	602.980	-0.171	0.425
-348.464	70.630	-0.154	0.159
-347.450	-157.934	0.239	-0.014
-346.435	-151.454	-0.414	0.031
-345.420	-97.087	0.299	-0.078
-344.406	-60.146	-0.273	0.116
-343.391	-130.454	0.190	0.026
-342.377	-40.429	0.274	-0.142
-341.362	-70.064	-0.070	-0.027
-340.348	305.449	-0.102	0.189
-339.333	644.231	-0.151	0.384
-338.318	38.753	0.117	-0.105
-337.304	800.000	-0.036	-0.141
-336.289	800.000	0.048	-0.177
-335.275	-10.337	-0.278	0.184
-334.260	-200.000	-0.041	0.239
-333.245	-41.277	-0.142	0.073
-332.231	-137.764	0.257	0.029
-331.216	269.843	-0.095	-0.167
-330.202	-44.301	0.330	-0.165
-329.187	-200.000	0.002	-0.218
-328.172	-200.000	-0.038	0.178
-327.158	-191.293	0.072	-0.001
-326.143	506.874	0.124	-0.287
-325.129	217.673	0.109	-0.173
-324.114	117.575	-0.049	0.060
-323.099	800.000	0.071	0.237
-322.085	-128.805	0.316	-0.044
-321.070	664.363	0.170	0.437
-320.056	111.548	0.347	-0.417
-319.041	121.833	-0.094	0.117
-318.026	-165.244	0.309	0.014
-317.012	23.387	0.120	-0.098
-315.997	-83.285	0.177	-0.057
-314.983	21.798	0.177	0.143
-313.968	-130.693	-0.147	-0.020
-312.953	-93.874	-0.088	-0.024
-311.939	-200.000	0.008	0.110
-310.924	59.772	0.162	-0.159
-309.910	-200.000	0.003	0.021
-308.895	-200.000	-0.052	-0.269
-307.880	-103.706	-0.094	0.022
-306.866	-41.877	-0.055	0.028
-305.851	-200.000	0.062	-0.362
-304.837	-35.119	0.164	0.089
-303.822	800.000	-0.073	-0.252
-302.807	611.273	0.082	-0.204
-301.793	-200.000	-0.037	0.317
-300.778	580.435	-0.073	0.178
-299.764	338.746	-0.008	0.016
-298.749	264.418	0.201	-0.348
-297.735	687.155	0.125	0.326
-296.720	-66.423	-0.292	0.115
-295.705	200.971	0.103	0.158
-294.691	743.884	-0.063	-0.169
-293.676	84.289	0.329	0.358
-292.662	-87.317	-0.083	-0.025
-291.647	-66.945	0.330	-0.130
-290.632	-122.308	0.426	0.069
-289.618	-32.235	-0.067	-0.037
-288.603	33.292	0.042	0.037
-287.589	211.960	-0.139	0.218
-286.574	-200.000	0.014	0.162
-285.559	255.902	-0.121	0.207
-284.545	-200.000	-0.054	-0.297
-283.530	800.000	0.047	-0.172
-282.516	-200.000	-0.064	-0.470
-281.501	592.643	0.157	-0.386
-280.486	316.185	-0.084	-0.158
-279.472	-31.305	0.344	-0.193
-278.457	155.467	0.220	0.302
-277.443	-59.762	0.161	-0.069
-276.428	50.626	-0.219	0.206
-275.413	-18.959	-0.235	-0.145
-274.399	-29.158	0.152	0.087
-273.384	65.290	0.080	-0.081
-272.370	331.967	-0.251	-0.483
-271.355	800.000	0.030	0.102
-270.340	-200.000	0.004	0.506
-269.326	20.421	0.219	0.176
-268.311	-38.722	0.072	0.038
-267.297	-59.865	-0.060	-0.025
-266.282	-78.133	0.192	0.066
-265.267	-200.000	0.039	-0.226
-264.253	359.327	0.074	0.147
-263.238	800.000	-0.009	-0.033
-262.224	-200.000	0.013	0.297
-261.209	330.089	0.086	-0.165
-260.195	23.415	0.093	-0.076
-259.180	800.000	-0.149	0.548
-258.165	-63.992	0.248	0.101
-257.151	-200.000	-0.019	0.389
-256.136	800.000	0.064	-0.198
-255.122	-31.283	0.213	-0.119
-254.107	-200.000	0.019	0.147
-253.092	-200.000	0.020	0.111
-252.078	264.864	0.179	0.309
-251.063	644.093	-0.168	0.426
-250.049	-125.459	0.144	-0.022
-249.034	641.954	0.090	0.229
-248.019	370.007	-0.052	0.105
-247.005	96.068	0.145	-0.164
-245.990	12.968	0.192	-0.147
-244.976	-200.000	0.001	0.015
-243.961	-112.244	-0.128	0.026
-242.946	247.674	0.082	0.137
-241.932	-39.035	-0.177	-0.093
-240.917	-200.000	-0.002	0.008
-239.903	-24.922	0.208	0.122
-238.888	-200.000	0.033	-0.191
-237.873	209.131	0.147	-0.229
-236.859	211.642	0.142	-0.221
-235.844	38.734	0.114	0.101
-234.830	284.344	0.136	0.243
-233.815	70.602	0.098	0.100
-232.800	-200.000	-0.036	0.170
-231.786	477.179	-0.122	-0.275
-230.771	22.131	0.217	-0.176
-229.757	800.000	-0.066	0.193
-228.742	-140.761	-0.238	-0.024
-227.727	239.735	-0.070	-0.116
-226.713	-50.222	-0.199	-0.094
-225.698	377.096	0.074	0.150
-224.684	-163.906	0.264	0.012
-223.669	-110.084	-0.369	-0.077
-222.655	16.031	-0.268	-0.209
-221.640	-200.000	-0.003	-0.136
-220.625	-79.705	0.098	0.033
-219.611	-55.853	0.137	0.061
-218.596	-73.953	0.148	0.053
-217.582	-52.571	0.383	-0.176
-216.567	-31.999	-0.117	0.065
-215.552	184.927	0.049	0.073
-214.538	800.000	-0.091	-0.355
-213.523	2.089	-0.101	-0.072
-212.509	-40.835	-0.361	0.185
-211.494	488.481	-0.100	-0.227
-210.479	-158.260	0.132	0.008
-209.465	-107.054	-0.263	0.058
-208.450	-68.668	0.282	-0.108
-207.436	-86.884	0.560	-0.170
-206.421	-70.889	-0.349	-0.130
-205.406	-19.707	0.063	-0.038
-204.392	84.319	0.209	0.226
-203.377	-200.000	-0.029	0.268
-202.363	-62.793	0.060	-0.025
-201.348	151.052	0.141	-0.190
-200.333	-101.976	0.370	0.089
-199.319	-27.859	0.365	-0.210
-198.304	-200.000	0.034	0.314
-197.290	80.801	0.117	0.126
-196.275	800.000	0.020	-0.073
-195.260	-200.000	-0.310	0.001
-194.246	393.646	0.101	0.209
-193.231	777.587	0.097	0.263
-192.217	764.126	-0.041	0.110
-191.202	-15.679	-0.165	0.104
-190.187	-200.000	0.041	-0.259
-189.173	-200.000	0.042	0.284
-188.158	215.710	0.240	0.378
-187.144	416.021	0.029	0.061
-186.129	-200.000	-0.057	0.318
-185.114	800.000	0.045	0.140
-184.100	654.987	0.114	-0.289
-183.085	131.384	0.108	-0.138
-182.071	40.502	0.231	0.206
-181.056	-121.919	0.177	-0.029
-180.042	-108.968	0.291	0.062
-179.027	-156.901	0.305	-0.019
-178.012	756.694	-0.096	0.256
-176.998	392.731	0.191	0.395
-175.983	-14.965	0.212	-0.135
-174.969	12.810	-0.133	0.102
-173.954	-135.983	0.217	-0.025
-172.939	206.176	0.078	-0.120
-171.925	2.348	0.136	0.098
-170.910	55.468	0.243	0.233
-169.896	-200.000	-0.025	-0.227
-168.881	480.591	0.106	-0.238
-167.866	-73.390	0.058	0.021
-166.852	800.000	0.086	0.251
-165.837	505.349	0.118	-0.271
-164.823	124.797	-0.242	0.302
-163.808	470.583	0.078	-0.173
-162.793	-181.804	-0.274	0.005
-161.779	-200.000	-0.031	-0.135
-160.764	-16.355	0.219	-0.138
-159.750	116.468	0.080	0.097
-158.735	-200.000	-0.004	-0.144
-157.720	800.000	0.010	0.036
-156.706	-200.000	0.039	-0.327
-155.691	-64.321	0.235	-0.095
-154.677	800.000	0.007	0.025
-153.662	207.667	0.356	0.550
-152.647	-71.146	0.070	-0.026
-151.633	-92.946	0.353	0.098
-150.618	18.558	-0.229	0.181
-149.604	-200.000	0.057	-0.307
-148.589	49.115	0.080	0.075
-147.574	-125.326	0.394	0.060
-146.560	96.154	-0.074	0.084
-145.545	-3.004	-0.121	0.083
-144.531	29.919	0.134	-0.113
-143.516	800.000	0.118	0.346
-142.502	-200.000	0.006	0.501
-141.487	-129.740	0.286	0.039
-140.472	67.749	0.293	-0.296
-139.458	174.452	0.074	-0.106
-138.443	-200.000	-0.024	-0.169
-137.429	795.120	-0.035	0.095
-136.414	800.000	0.050	-0.187
-135.399	261.851	0.157	0.270
-134.385	-6.950	0.318	-0.214
-133.370	-142.306	-0.342	-0.033
-132.356	-200.000	-0.009	0.131
-131.341	-200.000	-0.016	0.271
-130.326	-45.407	0.080	-0.039
-129.312	139.932	0.277	0.362
-128.297	-18.179	-0.084	-0.052
-127.283	-200.000	0.035	0.282
-126.268	-200.000	0.050	0.255
-125.253	-26.918	-0.308	0.178
-124.239	4.265	0.354	0.256
-123.224	754.918	0.089	-0.239
-122.210	-157.694	0.221	-0.013
-121.195	121.280	0.234	0.288
-120.180	145.410	-0.060	-0.079
-119.166	-200.000	-0.084	-0.377
-118.151	28.938	0.192	-0.161
-117.137	148.299	0.039	0.052
-116.122	683.840	-0.036	-0.093
-115.107	27.782	0.096	0.080
-114.093	177.905	-0.064	0.093
-113.078	109.634	-0.120	-0.142
-112.064	800.000	0.056	-0.165
-111.049	-200.000	0.030	0.544
-110.034	-170.241	-0.043	0.001
-109.020	-200.000	-0.073	0.323
-108.005	-85.422	-0.041	0.013
-106.991	-200.000	0.051	0.253
-105.976	127.027	0.174	0.218
-104.962	-127.383	0.227	0.033
-103.947	228.961	0.075	0.121
-102.932	-200.000	0.004	-0.279
-101.918	-200.000	-0.046	-0.373
-100.903	-20.398	0.245	-0.149
-99.889	78.622	-0.102	0.108
-98.874	-200.000	0.009	-0.208
-97.859	50.743	-0.143	0.134
-96.845	4.263	-0.244	-0.176
-95.830	-67.349	-0.151	0.059
-94.816	-125.072	-0.118	-0.018
-93.801	57.096	0.126	-0.121
-92.786	-36.082	0.233	-0.124
-91.772	64.168	0.050	-0.050
-90.757	800.000	-0.028	-0.084
-89.743	-94.002	-0.014	0.004
-88.728	-96.742	0.340	0.088
-87.713	-190.257	0.206	0.002
-86.699	24.846	0.244	0.199
-85.684	115.028	0.142	-0.171
-84.670	133.587	0.133	-0.170
-83.655	206.537	0.280	0.430
-82.640	108.301	-0.171	0.202
-81.626	-43.962	-0.338	0.168
-80.611	-122.678	0.140	0.022
-79.597	164.522	0.290	0.404
-78.582	159.049	-0.118	-0.162
-77.567	800.000	0.050	-0.195
-76.553	800.000	-0.162	0.441
-75.538	-200.000	-0.008	-0.268
-74.524	490.432	0.094	-0.213
-73.509	-200.000	0.026	0.221
-72.494	-134.085	0.250	-0.030
-71.480	-200.000	0.031	0.163
-70.465	293.236	0.018	-0.032
-69.451	-200.000	-0.004	0.081
-68.436	-41.924	0.139	-0.070
-67.422	-81.229	0.343	0.112
-66.407	429.346	-0.104	-0.221
-65.392	224.542	-0.072	-0.116
-64.378	-200.000	0.000	-0.176
-63.363	-178.501	0.272	-0.006
-62.349	800.000	-0.060	-0.183
-61.334	213.325	-0.534	-0.832
-60.319	459.189	0.127	0.279
-59.305	636.776	-0.329	-0.826
-58.290	800.000	0.316	1.130
-57.276	423.854	0.720	1.526
-56.261	-200.000	90.200	519.574
-55.246	563.117	1393.660	3328.307
-54.232	183.083	2630.542	3832.091
-53.217	112.846	2355.910	2815.662
-52.203	44.945	1961.707	1781.808
-51.188	38.945	1744.928	1538.021
-50.173	36.074	1699.990	1476.393
-49.159	51.632	1745.014	1636.527
-48.144	55.033	1763.531	1680.217
-47.130	38.701	1721.539	1515.275
-46.115	35.676	1706.919	1479.120
-45.100	35.611	1701.575	1473.931
-44.086	35.526	1698.781	1470.802
-43.071	35.447	1696.825	1468.444
-42.057	35.549	1694.025	1466.738
-41.042	35.471	1692.121	1464.438
-40.027	35.526	1689.855	1462.839
-39.013	35.518	1688.602	1461.632
-37.998	35.487	1686.556	1459.573
-36.984	35.546	1685.187	1458.778
-35.969	35.724	1683.285	1458.425
-34.954	35.655	1682.313	1457.002
-33.940	35.706	1680.191	1455.492
-32.925	35.702	1678.644	1454.062
-31.911	35.642	1676.583	1451.761
-30.896	35.683	1674.773	1450.446
-29.881	35.698	1672.994	1448.960
-28.867	35.512	1671.956	1446.608
-27.852	35.625	1670.148	1445.832
-26.838	35.647	1668.535	1444.548
-25.823	35.770	1667.355	1444.388
-24.809	35.683	1666.354	1442.812
-23.794	35.733	1664.538	1441.560
-22.779	35.657	1663.133	1439.716
-21.765	35.695	1661.445	1438.479
-20.750	35.725	1659.357	1436.838
-19.736	35.733	1658.617	1436.201
-18.721	35.689	1656.734	1434.190
-17.706	35.745	1655.001	1433.048
-16.692	35.729	1653.209	1431.323
-15.677	35.732	1651.959	1430.205
-14.663	35.767	1650.665	1429.289
-13.648	35.709	1649.839	1428.081
-12.633	35.719	1647.688	1426.237
-11.619	35.671	1646.314	1424.639
-10.604	35.731	1644.940	1423.834
-9.590	35.715	1643.350	1422.283
-8.575	35.658	1642.466	1421.040
-7.560	35.696	1640.773	1419.803
-6.546	35.675	1639.552	1418.531
-5.531	35.715	1638.325	1417.709
-4.517	35.726	1637.338	1416.885
-3.502	35.733	1636.163	1415.863
-2.487	35.722	1634.955	1414.674
-1.473	35.685	1623.946	1404.823
-0.458	33.465	1604.760	1372.117
0.556	31.391	1604.560	1339.678
1.571	28.807	1629.944	1341.911
2.586	27.790	1642.661	1344.767
3.600	23.996	1586.076	1271.283
4.615	13.943	1469.648	1110.957
5.629	5.823	1400.815	1006.877
6.644	4.532	1392.061	992.258
7.659	4.187	1391.260	989.397
8.673	4.277	1390.147	989.093
9.688	4.295	1388.658	988.060
10.702	4.307	1385.848	986.048
11.717	7.701	1393.016	1012.716
12.731	16.834	1409.669	1083.371
13.746	21.754	1416.919	1120.380
14.761	20.958	1414.744	1113.480
15.775	20.169	1411.738	1105.980
16.790	19.043	1408.848	1096.452
17.804	18.188	1406.281	1088.912
18.819	17.782	1405.510	1085.639
19.834	17.572	1404.045	1083.074
20.848	17.369	1402.680	1080.639
21.863	17.062	1401.688	1077.828
22.877	16.997	1400.140	1076.129
23.892	16.903	1399.615	1075.034
24.907	16.917	1398.467	1074.149
25.921	16.996	1397.667	1073.937
26.936	16.969	1396.463	1072.743
27.950	17.038	1395.429	1072.296
28.965	16.997	1395.116	1071.698
29.980	17.108	1393.704	1071.217
30.994	17.305	1392.580	1071.504
32.009	17.311	1391.384	1070.527
33.023	17.247	1390.474	1069.325
34.038	17.185	1389.294	1067.936
35.053	17.047	1387.905	1065.905
36.067	17.132	1386.095	1064.956
37.082	17.175	1385.190	1064.437
38.096	17.296	1383.881	1064.091
39.111	17.186	1383.634	1063.119
40.126	17.108	1382.783	1061.882
41.140	16.874	1381.778	1059.553
42.155	16.892	1380.870	1058.879
43.169	16.818	1381.048	1058.462
44.184	16.827	1380.434	1057.950
45.199	16.773	1380.273	1057.396
46.213	16.946	1379.168	1057.537
47.228	16.958	1378.866	1057.285
48.242	17.056	1377.722	1056.925
49.257	17.092	1375.576	1055.411
50.271	17.055	1374.222	1054.045
51.286	17.082	1373.442	1053.523
52.301	17.051	1371.847	1052.012
53.315	16.914	1370.925	1050.368
54.330	16.889	1369.935	1049.360
55.344	16.853	1368.476	1047.925
56.359	16.922	1367.734	1047.690
57.374	16.969	1366.719	1047.111
58.388	16.844	1365.769	1045.522
59.403	16.708	1365.462	1044.353
60.417	16.759	1364.502	1043.841
61.432	16.637	1363.690	1042.374
62.447	16.612	1362.861	1041.499
63.461	16.618	1361.345	1040.283
64.476	16.609	1360.479	1039.476
65.490	16.634	1358.783	1038.237
66.505	16.565	1357.871	1037.030
67.520	16.692	1356.206	1036.443
68.534	16.715	1355.202	1035.725
69.549	16.720	1354.398	1035.045
70.563	16.645	1353.374	1033.714
71.578	16.568	1351.828	1031.976
72.593	16.575	1350.911	1031.226
73.607	16.497	1350.527	1030.367
74.622	16.540	1349.438	1029.703
75.636	16.556	1348.853	1029.264
76.651	16.631	1348.166	1029.107
77.666	16.599	1347.801	1028.544
78.680	16.642	1347.105	1028.183
79.695	16.672	1346.178	1027.562
80.709	16.707	1345.862	1027.445
81.724	16.727	1345.006	1026.822
82.739	16.907	1343.758	1026.869
83.753	16.980	1343.020	1026.656
84.768	17.037	1342.183	1026.269
85.782	17.149	1341.158	1026.070
86.797	17.068	1339.885	1024.518
87.812	16.971	1338.557	1022.824
88.826	17.053	1337.153	1022.156
89.841	17.037	1336.447	1021.433
90.855	17.103	1335.746	1021.204
91.870	17.228	1334.298	1020.753
92.884	17.146	1333.662	1019.685
93.899	17.192	1332.697	1019.135
94.914	17.199	1332.087	1018.621
95.928	17.196	1331.460	1018.034
96.943	17.231	1330.136	1017.141
97.957	17.189	1329.296	1016.157
98.972	17.033	1328.266	1014.344
99.987	17.058	1327.516	1013.832
101.001	17.102	1326.038	1012.874
102.016	17.096	1325.293	1012.181
103.030	17.151	1324.666	1011.942
104.045	17.201	1323.332	1011.130
105.060	17.154	1321.897	1009.665
106.074	16.972	1320.222	1007.216
107.089	16.663	1319.164	1004.487
108.103	16.653	1317.929	1003.401
109.118	16.696	1316.815	1002.717
110.133	16.701	1315.510	1001.662
111.147	16.748	1314.173	1000.833
112.162	16.800	1312.569	999.829
113.176	16.780	1311.862	999.088
114.191	16.854	1310.747	998.583
115.206	16.818	1309.561	997.382
116.220	16.850	1308.011	996.302
117.235	16.846	1306.729	995.213
118.249	16.848	1306.231	994.755
119.264	16.795	1304.786	993.260
120.279	16.698	1304.012	992.011
121.293	16.727	1302.918	991.259
122.308	16.585	1301.580	989.323
123.322	16.552	1300.510	988.232
124.337	16.546	1300.085	987.788
125.352	16.648	1298.534	987.115
126.366	16.559	1297.578	985.781
127.381	16.637	1296.315	985.188
128.395	16.717	1295.055	984.612
129.410	16.692	1294.175	983.711
130.424	16.756	1293.314	983.340
131.439	16.819	1292.290	982.841
132.454	16.887	1291.436	982.494
133.468	16.891	1290.667	981.850
134.483	16.942	1289.931	981.497
135.497	16.878	1289.066	980.382
136.512	16.918	1287.685	979.476
137.527	16.908	1286.357	978.318
138.541	16.836	1285.157	976.905
139.556	17.030	1283.572	976.730
140.570	17.031	1282.882	976.127
141.585	17.089	1281.845	975.586
142.600	17.133	1280.392	974.645
143.614	17.195	1279.869	974.518
144.629	17.289	1278.796	974.153
145.643	17.173	1277.486	972.406
146.658	17.003	1276.682	970.733
147.673	17.019	1274.334	968.950
148.687	16.907	1273.616	967.684
149.702	16.892	1272.187	966.423
150.716	16.903	1270.714	965.282
151.731	16.923	1269.456	964.357
152.746	16.956	1268.239	963.536
153.760	17.018	1267.025	962.878
154.775	17.047	1265.842	962.059
155.789	17.111	1265.201	961.850
156.804	17.076	1264.254	960.844
157.819	17.217	1263.072	960.658
158.833	17.233	1262.113	959.936
159.848	17.177	1261.171	958.817
160.862	17.239	1260.170	958.324
161.877	17.127	1259.150	956.830
162.892	16.952	1258.050	954.924
163.906	16.992	1257.285	954.483
164.921	17.030	1255.980	953.622
165.935	17.033	1255.302	953.043
166.950	17.106	1254.101	952.453
167.964	17.085	1254.059	952.218
168.979	17.162	1252.810	951.616
169.994	17.108	1252.496	950.995
171.008	17.111	1251.443	950.128
172.023	17.211	1250.530	949.906
173.037	17.253	1249.881	949.564
174.052	17.238	1249.022	948.747
175.067	17.169	1247.835	947.374
176.081	16.968	1246.766	945.357
177.096	17.069	1245.436	944.830
178.110	17.212	1244.388	944.744
179.125	17.100	1243.699	943.515
180.140	17.159	1242.455	942.817
181.154	17.116	1241.776	941.978
182.169	17.310	1239.806	941.477
183.183	17.378	1239.039	941.189
184.198	17.382	1238.037	940.367
185.213	17.361	1236.761	939.197
186.227	17.410	1235.701	938.578
187.242	17.465	1234.729	938.059
188.256	17.495	1233.884	937.502
189.271	17.538	1232.607	936.684
190.286	17.272	1231.762	934.497
191.300	17.123	1230.221	932.428
192.315	17.074	1229.658	931.648
193.329	17.094	1228.865	931.076
194.344	17.147	1228.500	931.007
195.359	17.155	1228.131	930.688
196.373	17.343	1227.852	931.424
197.388	17.489	1227.065	931.543
198.402	17.606	1226.696	931.825
199.417	17.739	1225.954	931.902
200.432	17.732	1224.960	931.025
201.446	17.689	1224.795	930.586
202.461	17.770	1223.482	929.946
203.475	17.758	1222.272	928.878
204.490	17.674	1221.269	927.578
205.504	17.630	1219.914	926.229
206.519	17.471	1218.883	924.500
207.534	17.552	1217.419	923.745
208.548	17.593	1216.339	923.067
209.563	17.541	1216.207	922.602
210.577	17.572	1214.798	921.618
211.592	17.752	1213.898	921.831
212.607	17.815	1213.009	921.411
213.621	17.702	1212.694	920.480
214.636	17.670	1211.862	919.594
215.650	17.780	1210.503	919.078
216.665	17.701	1209.821	918.052
217.680	17.883	1208.717	918.110
218.694	17.995	1207.775	917.918
219.709	17.865	1206.965	916.524
220.723	17.858	1206.415	915.987
221.738	17.792	1205.640	914.962
222.753	17.967	1204.632	915.056
223.767	17.723	1204.007	913.192
224.782	18.034	1203.909	914.702
225.796	18.008	1203.244	913.975
226.811	18.093	1201.803	913.254
227.826	18.008	1201.162	912.234
228.840	17.872	1200.844	911.183
229.855	18.011	1199.755	911.018
230.869	17.920	1198.965	909.856
231.884	17.938	1197.882	909.045
232.899	17.836	1196.984	907.741
233.913	17.826	1196.597	907.318
234.928	17.620	1195.804	905.539
235.942	17.766	1194.963	905.597
236.957	17.821	1193.692	904.849
237.972	17.795	1193.352	904.370
238.986	17.735	1193.066	903.758
240.001	17.823	1192.091	903.401
241.015	17.892	1191.084	902.926
242.030	17.902	1190.187	902.219
243.045	17.908	1189.417	901.586
244.059	18.041	1188.800	901.743
245.074	17.940	1187.966	900.495
246.088	18.042	1187.121	900.316
247.103	18.165	1185.943	899.985
248.117	18.171	1185.782	899.818
249.132	18.271	1185.367	899.946
250.147	18.295	1184.761	899.533
251.161	18.446	1183.585	899.358
252.176	18.514	1183.182	899.325
253.190	18.515	1182.331	898.604
254.205	18.569	1182.006	898.564
255.220	18.614	1181.513	898.340
256.234	18.646	1180.392	897.581
257.249	18.592	1180.068	896.971
258.263	18.542	1179.518	896.210
259.278	18.577	1178.727	895.712
260.293	18.627	1178.225	895.512
261.307	18.732	1177.538	895.459
262.322	18.698	1177.152	894.908
263.336	18.717	1176.301	894.286
264.351	18.607	1175.859	893.295
265.366	18.734	1174.998	893.223
266.380	18.798	1174.025	892.738
267.395	18.804	1173.077	891.966
268.409	18.629	1172.684	890.681
269.424	18.671	1171.772	890.127
270.439	18.717	1171.293	889.923
271.453	18.703	1170.370	889.074
272.468	18.566	1169.546	887.656
273.482	18.634	1168.698	887.287
274.497	18.652	1167.820	886.634
275.512	18.706	1167.224	886.383
276.526	18.635	1166.725	885.559
277.541	18.596	1166.148	884.844
278.555	18.561	1165.485	884.079
279.570	18.716	1164.620	884.145
280.585	18.859	1163.724	884.119
281.599	18.864	1162.658	883.258
282.614	18.846	1161.901	882.511
283.628	18.829	1160.178	881.040
284.643	18.805	1159.234	880.122
285.657	18.723	1159.096	879.517
286.672	18.822	1158.254	879.310
287.687	18.863	1157.165	878.614
288.701	18.904	1156.164	877.986
289.716	18.880	1155.752	877.472
290.730	18.762	1155.008	876.226
291.745	18.906	1153.935	876.073
292.760	18.953	1153.598	875.976
293.774	18.944	1153.319	875.640
294.789	19.134	1152.610	875.995
295.803	19.042	1151.852	874.872
296.818	18.986	1150.772	873.689
297.833	18.959	1149.802	872.740
298.847	18.911	1149.454	872.152
299.862	18.890	1148.647	871.355
300.876	18.979	1147.973	871.218
301.891	19.009	1147.575	870.993
302.906	19.075	1146.815	870.672
303.920	19.179	1146.133	870.602
304.935	19.199	1145.646	870.257
305.949	19.285	1144.750	869.934
306.964	19.276	1144.307	869.477
307.979	19.182	1143.200	868.083
308.993	19.267	1142.607	867.983
310.008	19.307	1141.667	867.397
311.022	19.248	1140.948	866.476
312.037	19.333	1139.853	865.996
313.052	19.273	1138.618	864.677
314.066	19.211	1137.724	863.609
315.081	19.163	1136.848	862.631
316.095	19.078	1136.082	861.549
317.110	19.118	1135.576	861.285
318.125	19.191	1134.765	860.962
319.139	19.147	1134.198	860.233
320.154	19.137	1133.378	859.488
321.168	19.190	1133.068	859.441
322.183	19.247	1132.578	859.276
323.197	19.203	1131.651	858.276
324.212	19.282	1130.686	857.862
325.227	19.169	1130.249	856.894
326.241	19.168	1129.929	856.570
327.256	19.254	1128.949	856.178
328.270	19.243	1128.229	855.504
329.285	19.119	1127.415	854.195
330.300	19.186	1126.284	853.592
331.314	19.294	1124.896	853.001
332.329	19.274	1124.318	852.390
333.343	19.312	1123.665	852.006
334.358	19.346	1122.783	851.432
335.373	19.379	1122.176	851.054
336.387	19.454	1121.389	850.754
337.402	19.400	1120.925	850.061
338.416	19.423	1120.203	849.549
339.431	19.558	1119.476	849.589
340.446	19.587	1118.999	849.296
341.460	19.603	1118.117	848.630
342.475	19.754	1117.115	848.532
343.489	19.862	1115.723	847.931
344.504	19.848	1115.083	847.303
345.519	19.805	1114.310	846.426
346.533	19.933	1113.724	846.534
347.548	19.948	1113.056	846.026
348.562	19.868	1112.458	845.105
349.577	19.703	1111.480	843.482
350.592	19.637	1110.356	842.233
351.606	19.654	1109.757	841.788
352.621	19.575	1108.885	840.668
353.635	19.585	1108.192	840.113
354.650	19.529	1107.546	839.280
355.665	19.678	1106.633	839.236
356.679	19.894	1105.480	839.334
357.694	19.779	1105.570	838.773
358.708	19.755	1105.168	838.278
359.723	19.738	1104.428	837.556
360.738	19.826	1103.672	837.338
361.752	19.726	1103.505	836.653
362.767	19.847	1102.997	836.778
363.781	19.880	1102.451	836.452
364.796	19.943	1101.503	835.959
365.810	19.971	1100.902	835.564
366.825	20.077	1100.420	835.635
367.840	20.183	1100.101	835.829
368.854	20.263	1099.156	835.427
369.869	20.143	1098.679	834.411
370.883	20.203	1097.262	833.551
371.898	20.163	1096.656	832.821
372.913	20.001	1096.544	831.886
373.927	20.135	1095.675	831.794
374.942	20.170	1095.221	831.544
375.956	20.316	1094.702	831.778
376.971	20.240	1094.114	830.894
377.986	20.281	1093.411	830.482
379.000	20.229	1092.920	829.787
380.015	20.332	1092.448	829.847
381.029	20.383	1091.964	829.649
382.044	20.399	1091.201	829.074
383.059	20.316	1090.526	828.089
384.073	20.451	1089.426	827.826
385.088	20.399	1088.641	826.909
386.102	20.428	1087.568	826.160
387.117	20.401	1086.412	825.081
388.132	20.287	1085.409	823.705
389.146	20.217	1085.047	823.024
390.161	20.248	1083.879	822.214
391.175	20.309	1083.379	822.049
392.190	20.264	1082.933	821.424
393.205	20.385	1081.963	821.188
394.219	20.434	1080.944	820.574
395.234	20.435	1080.144	819.900
396.248	20.287	1079.020	818.273
397.263	20.522	1077.708	818.316
398.278	20.299	1077.241	816.840
399.292	20.256	1076.665	816.128
400.307	20.204	1075.707	815.085
401.321	20.262	1075.229	814.923
402.336	20.148	1074.752	813.954
403.350	20.278	1074.015	813.931
404.365	20.260	1073.336	813.261
405.380	20.388	1072.310	813.012
406.394	20.435	1071.704	812.699
407.409	20.531	1071.055	812.585
408.423	20.481	1070.685	812.001
409.438	20.779	1069.777	812.630
410.453	20.692	1069.037	811.589
411.467	20.869	1068.288	811.773
412.482	20.832	1067.799	811.160
413.496	20.902	1066.730	810.599
414.511	20.853	1066.218	809.913
415.526	20.873	1066.173	809.900
416.540	21.016	1065.371	809.879
417.555	20.859	1064.911	808.733
418.569	20.855	1064.359	808.223
419.584	20.927	1063.726	808.005
420.599	20.816	1063.712	807.408
421.613	150.892	1400.995	1784.619
422.628	138.809	1450.135	1784.730
