DTS Sentinel unit serial number:	SN413079Multiplexer serial number:	ORYXHardware model number:	OX4-SRSoftware version number:	ORYX F/W v4.00 Oryx Data Collector v3.7.2.0data status	okinstallation	princeton_trtdifferential loss correction	single-endedforward channel	channel 2reverse channel	N/Adate	2019/09/11time	04:25:10forward acquisition time	60.00reverse acquisition time	0.00gamma	496.2192k internal	0.2329k external	0.2329temperature offset calibration	0.9938default loss term (dB/km)	0.3790temperature slope calibration	1.0000multiplexer offset coefficient	1.0000multiplexer slope coefficient	1.0000fibre end	0.00T internal ref (°C)	29.56T ext. ref 1 (°C)	-0.28T ext. ref 2 (°C)	23.41length (m)	temperature (°C)	Stokes	anti-Stokes-747.200	-148.213	0.499	-0.041
-746.185	-94.978	0.189	0.051
-745.171	-109.715	0.186	-0.039
-744.156	-116.556	0.187	0.035
-743.142	160.048	-0.241	-0.339
-742.127	60.061	0.371	0.369
-741.112	800.000	0.026	-0.079
-740.098	4.763	0.016	0.012
-739.083	-16.697	-0.161	-0.103
-738.069	-141.861	-0.109	0.011
-737.054	-139.542	-0.252	-0.027
-736.039	-83.675	-0.162	-0.052
-735.025	148.316	0.140	-0.190
-734.010	-122.498	-0.111	0.018
-732.996	56.816	-0.230	-0.226
-731.981	-200.000	-0.006	-0.203
-730.966	-107.554	0.026	-0.006
-729.952	-96.519	-0.225	-0.060
-728.937	-161.148	-0.132	-0.007
-727.923	112.489	0.197	-0.240
-726.908	-67.547	-0.128	0.051
-725.894	-163.513	-0.332	0.016
-724.879	800.000	-0.044	-0.165
-723.864	800.000	-0.045	-0.149
-722.850	56.576	-0.280	0.274
-721.835	-200.000	-0.008	-0.232
-720.821	800.000	-0.019	-0.082
-719.806	-128.877	-0.155	-0.022
-718.791	-200.000	-0.019	-0.319
-717.777	301.586	-0.261	0.486
-716.762	800.000	0.068	0.251
-715.748	-200.000	-0.027	-0.194
-714.733	43.061	0.095	-0.087
-713.718	-200.000	0.044	-0.223
-712.704	-107.836	-0.210	-0.046
-711.689	15.797	-0.113	-0.089
-710.675	-144.022	0.165	0.016
-709.660	-159.262	0.338	0.019
-708.645	800.000	-0.036	0.117
-707.631	-200.000	-0.071	-0.339
-706.616	800.000	-0.023	-0.083
-705.602	95.825	0.093	0.106
-704.587	-97.064	0.099	0.026
-703.572	800.000	-0.084	-0.345
-702.558	28.457	-0.275	-0.234
-701.543	-122.228	-0.481	-0.079
-700.529	-95.869	-0.366	-0.098
-699.514	62.437	-0.184	-0.184
-698.499	66.605	0.100	-0.103
-697.485	275.320	0.043	-0.077
-696.470	-23.753	0.183	0.111
-695.456	-66.475	0.208	-0.083
-694.441	-86.795	0.236	0.072
-693.426	19.779	-0.030	0.024
-692.412	581.381	0.092	0.226
-691.397	705.736	-0.108	-0.286
-690.383	-132.190	0.287	0.037
-689.368	229.251	-0.144	0.236
-688.354	-200.000	0.050	-0.336
-687.339	-67.233	-0.019	0.008
-686.324	-141.627	-0.422	0.043
-685.310	-84.827	0.396	-0.125
-684.295	130.249	0.082	0.106
-683.281	-200.000	-0.010	0.253
-682.266	-79.423	0.366	-0.125
-681.251	-200.000	-0.072	-0.336
-680.237	8.961	-0.262	-0.199
-679.222	800.000	-0.044	-0.150
-678.208	-118.841	0.192	-0.034
-677.193	800.000	0.047	-0.141
-676.178	506.265	0.126	-0.293
-675.164	-200.000	0.063	0.348
-674.149	-200.000	0.013	0.069
-673.135	-200.000	-0.019	-0.105
-672.120	270.140	-0.141	0.248
-671.105	17.578	-0.067	0.053
-670.091	6.789	-0.138	-0.103
-669.076	202.224	0.126	-0.196
-668.062	-49.843	-0.233	-0.111
-667.047	-98.598	0.430	-0.110
-666.032	-121.878	0.154	0.025
-665.018	495.398	-0.190	-0.437
-664.003	-194.217	0.138	-0.001
-662.989	-32.490	-0.120	-0.067
-661.974	273.353	-0.070	0.125
-660.959	-200.000	-0.030	-0.190
-659.945	74.505	-0.050	0.053
-658.930	239.282	-0.016	0.027
-657.916	-95.538	0.041	0.011
-656.901	-120.649	0.170	0.029
-655.886	476.219	-0.087	-0.197
-654.872	58.329	-0.110	-0.109
-653.857	158.520	-0.078	-0.109
-652.843	452.511	0.091	0.203
-651.828	16.386	-0.166	-0.131
-650.814	28.572	0.130	-0.110
-649.799	-39.926	0.043	-0.023
-648.784	-98.627	-0.260	-0.067
-647.770	453.330	0.232	0.516
-646.755	388.480	-0.105	0.218
-645.741	800.000	0.060	-0.214
-644.726	100.231	0.171	-0.199
-643.711	311.587	0.112	0.210
-642.697	800.000	0.086	-0.245
-641.682	0.828	-0.079	0.057
-640.668	-43.710	-0.121	0.061
-639.653	179.562	-0.131	-0.192
-638.638	-200.000	-0.041	-0.305
-637.624	-200.000	-0.029	0.194
-636.609	-200.000	0.000	0.252
-635.595	-8.026	-0.081	0.055
-634.580	-136.979	-0.156	-0.018
-633.565	-78.381	-0.197	-0.068
-632.551	800.000	0.032	-0.109
-631.536	478.287	-0.039	-0.087
-630.522	-173.944	-0.240	0.007
-629.507	58.473	-0.068	0.067
-628.492	-200.000	-0.067	-0.361
-627.478	64.502	-0.181	-0.183
-626.463	1.267	0.114	0.082
-625.449	-105.225	-0.011	-0.002
-624.434	-165.101	-0.077	-0.003
-623.419	39.381	0.030	-0.027
-622.405	15.169	-0.059	-0.047
-621.390	-81.602	0.166	-0.055
-620.376	-121.368	0.201	-0.034
-619.361	800.000	-0.027	-0.104
-618.346	-127.948	0.110	0.016
-617.332	-170.076	-0.031	0.001
-616.317	-26.453	-0.011	-0.007
-615.303	800.000	-0.067	-0.214
-614.288	31.647	0.187	-0.162
-613.273	800.000	0.077	0.293
-612.259	-95.998	-0.207	-0.055
-611.244	-35.672	-0.258	-0.140
-610.230	-200.000	-0.027	-0.201
-609.215	32.636	-0.035	0.030
-608.201	280.760	0.074	0.133
-607.186	13.657	0.048	0.037
-606.171	81.142	-0.247	0.267
-605.157	-200.000	-0.047	0.257
-604.142	-0.820	-0.335	-0.238
-603.128	-200.000	-0.010	-0.136
-602.113	17.783	-0.107	-0.085
-601.098	671.688	-0.060	0.157
-600.084	573.020	0.017	0.042
-599.069	299.998	-0.069	0.127
-598.055	282.737	0.048	-0.086
-597.040	114.404	0.114	-0.139
-596.025	-149.078	0.348	0.028
-595.011	88.743	-0.293	-0.327
-593.996	193.630	-0.052	-0.079
-592.982	-116.516	0.101	0.019
-591.967	-92.451	0.195	0.055
-590.952	385.472	0.113	0.233
-589.938	-200.000	-0.012	-0.089
-588.923	-103.465	0.336	0.079
-587.909	-68.156	-0.082	-0.032
-586.894	9.396	0.057	0.043
-585.879	-200.000	0.007	0.164
-584.865	-189.193	-0.195	-0.002
-583.850	176.191	0.044	-0.065
-582.836	-9.127	0.092	0.062
-581.821	-200.000	0.014	-0.076
-580.806	-198.779	-0.257	-0.001
-579.792	-103.946	0.132	0.031
-578.777	23.996	-0.220	0.182
-577.763	94.859	-0.197	0.224
-576.748	-125.251	-0.176	-0.027
-575.733	-169.371	-0.214	0.008
-574.719	357.234	-0.093	-0.185
-573.704	380.231	-0.082	-0.169
-572.690	-135.582	-0.103	-0.012
-571.675	-200.000	-0.037	0.253
-570.661	800.000	0.063	-0.229
-569.646	-200.000	0.010	-0.131
-568.631	13.581	-0.151	-0.117
-567.617	-61.756	-0.082	0.035
-566.602	252.744	0.130	-0.221
-565.588	116.136	-0.084	-0.103
-564.573	148.402	-0.346	-0.467
-563.558	800.000	0.003	-0.015
-562.544	-90.014	-0.356	-0.104
-561.529	-138.363	-0.112	-0.012
-560.515	671.589	0.064	0.166
-559.500	33.408	-0.205	0.178
-558.485	-92.201	0.346	0.098
-557.471	169.114	0.087	-0.124
-556.456	-200.000	-0.014	0.332
-555.442	16.533	-0.180	0.142
-554.427	27.910	0.266	0.224
-553.412	-195.341	0.237	0.002
-552.398	-16.181	-0.068	0.043
-551.383	-200.000	0.027	0.152
-550.369	154.577	-0.184	-0.253
-549.354	147.856	0.127	-0.171
-548.339	-83.574	-0.177	-0.056
-547.325	154.225	-0.189	-0.260
-546.310	-27.235	0.042	0.024
-545.296	53.876	-0.029	0.028
-544.281	-200.000	-0.006	0.054
-543.266	-17.743	0.044	0.028
-542.252	-200.000	-0.044	-0.213
-541.237	247.728	0.131	0.222
-540.223	-200.000	-0.022	-0.292
-539.208	-114.662	0.114	0.022
-538.193	-25.297	-0.345	-0.204
-537.179	-110.850	-0.406	-0.084
-536.164	-108.742	0.282	0.060
-535.150	536.716	-0.042	0.099
-534.135	401.209	0.143	0.300
-533.121	102.356	0.235	-0.275
-532.106	-200.000	0.025	0.270
-531.091	-90.857	0.501	0.144
-530.077	-200.000	-0.007	-0.600
-529.062	24.596	0.034	-0.028
-528.048	-76.563	0.327	-0.115
-527.033	175.815	-0.161	0.233
-526.018	367.912	-0.148	0.298
-525.004	493.270	0.091	0.209
-523.989	-200.000	-0.044	-0.399
-522.975	278.216	-0.143	-0.255
-521.960	-108.563	-0.386	0.083
-520.945	407.504	0.065	0.137
-519.931	-103.563	-0.387	-0.091
-518.916	390.469	0.084	-0.175
-517.902	800.000	-0.113	-0.414
-516.887	-200.000	0.011	-0.308
-515.872	319.479	0.176	0.333
-514.858	-72.119	-0.252	0.093
-513.843	389.983	-0.089	0.185
-512.829	-141.120	0.369	0.038
-511.814	-72.294	0.099	-0.036
-510.799	-99.387	-0.278	-0.070
-509.785	366.662	0.119	-0.240
-508.770	145.149	-0.093	0.124
-507.756	-49.400	-0.032	-0.015
-506.741	180.584	-0.170	0.249
-505.726	96.427	0.114	-0.130
-504.712	656.988	0.015	-0.037
-503.697	-7.818	-0.227	0.153
-502.683	800.000	0.123	0.353
-501.668	-57.779	0.184	0.080
-500.653	-200.000	0.023	-0.216
-499.639	-48.080	-0.242	-0.117
-498.624	-9.959	-0.350	0.232
-497.610	800.000	-0.008	-0.025
-496.595	800.000	0.018	0.057
-495.581	-26.576	0.211	0.123
-494.566	800.000	0.093	-0.359
-493.551	-93.625	-0.043	0.012
-492.537	-200.000	0.053	0.269
-491.522	800.000	-0.123	0.364
-490.508	18.236	-0.246	0.196
-489.493	-129.423	0.221	0.031
-488.478	800.000	-0.067	-0.221
-487.464	517.823	0.013	0.031
-486.449	-73.982	0.278	0.100
-485.435	800.000	0.100	0.362
-484.420	417.759	0.032	0.069
-483.405	170.502	0.129	-0.184
-482.391	50.978	0.206	0.195
-481.376	-117.214	-0.207	0.038
-480.362	-71.307	-0.378	-0.141
-479.347	-200.000	-0.036	-0.183
-478.332	-200.000	0.020	-0.377
-477.318	-200.000	-0.002	0.045
-476.303	-26.793	0.216	-0.126
-475.289	-200.000	-0.023	0.243
-474.274	267.526	0.209	-0.364
-473.259	70.593	0.187	0.193
-472.245	140.280	-0.064	-0.084
-471.230	87.265	0.098	-0.108
-470.216	-200.000	-0.012	0.233
-469.201	48.675	0.330	0.308
-468.186	-174.015	-0.375	-0.011
-467.172	-131.062	0.254	0.034
-466.157	-97.293	-0.360	0.093
-465.143	-95.215	-0.156	0.042
-464.128	299.502	0.187	-0.343
-463.113	293.284	-0.153	0.278
-462.099	-200.000	-0.006	-0.120
-461.084	509.264	-0.032	0.074
-460.070	265.560	0.120	0.209
-459.055	-79.209	0.454	0.153
-458.040	201.001	0.119	-0.182
-457.026	-200.000	-0.006	0.237
-456.011	800.000	-0.014	0.047
-454.997	-200.000	-0.052	-0.282
-453.982	-106.392	0.284	0.063
-452.968	49.697	-0.248	-0.232
-451.953	-200.000	0.013	0.063
-450.938	-82.348	-0.317	-0.103
-449.924	-200.000	0.015	0.101
-448.909	435.464	-0.119	0.257
-447.895	106.898	-0.072	-0.085
-446.880	-106.043	-0.181	0.041
-445.865	287.637	0.074	-0.133
-444.851	8.329	-0.058	-0.043
-443.836	-103.376	-0.324	-0.076
-442.822	22.752	-0.163	0.133
-441.807	-164.002	-0.247	0.011
-440.792	-128.522	-0.258	0.036
-439.778	-200.000	0.031	-0.191
-438.763	-38.109	0.186	0.098
-437.749	60.183	0.162	-0.159
-436.734	0.860	-0.317	-0.226
-435.719	107.877	-0.234	-0.278
-434.705	-17.925	0.264	-0.165
-433.690	-102.998	-0.227	-0.054
-432.676	292.743	0.232	0.420
-431.661	229.375	-0.091	-0.148
-430.646	-126.618	0.211	-0.031
-429.632	-200.000	-0.019	-0.160
-428.617	-87.517	-0.324	-0.097
-427.603	-3.688	-0.175	0.121
-426.588	-200.000	-0.109	-0.000
-425.573	208.802	0.171	0.266
-424.559	-57.137	-0.097	0.043
-423.544	-162.019	0.121	-0.006
-422.530	53.749	-0.153	0.147
-421.515	-103.948	-0.153	0.036
-420.500	-112.045	0.162	0.032
-419.486	800.000	0.057	0.162
-418.471	452.456	0.056	0.124
-417.457	-96.508	-0.134	-0.035
-416.442	158.801	0.129	-0.178
-415.428	131.550	-0.085	-0.109
-414.413	800.000	-0.087	0.321
-413.398	-66.442	-0.112	0.044
-412.384	-105.286	0.103	0.023
-411.369	660.298	-0.050	-0.128
-410.355	-200.000	-0.026	-0.183
-409.340	509.844	-0.095	0.221
-408.325	-6.126	0.120	0.081
-407.311	-110.440	0.300	0.062
-406.296	-104.919	-0.217	0.049
-405.282	762.458	0.169	-0.455
-404.267	-1.238	-0.429	-0.301
-403.252	-66.842	0.235	-0.092
-402.238	800.000	-0.077	0.324
-401.223	-97.566	0.135	-0.035
-400.209	-94.452	-0.284	0.077
-399.194	-35.901	-0.263	0.142
-398.179	214.586	-0.169	-0.266
-397.165	87.741	0.333	0.367
-396.150	579.380	-0.033	0.080
-395.136	169.456	0.113	0.161
-394.121	-49.386	0.213	0.101
-393.106	55.520	-0.292	0.280
-392.092	301.033	-0.056	0.102
-391.077	349.052	0.081	-0.160
-390.063	-123.186	-0.088	-0.014
-389.048	-27.360	0.393	-0.227
-388.033	-69.649	0.078	0.030
-387.019	77.282	-0.130	0.137
-386.004	67.049	0.114	-0.115
-384.990	-200.000	-0.002	-0.124
-383.975	-4.486	0.044	0.030
-382.960	544.158	0.181	-0.429
-381.946	-73.299	0.288	0.105
-380.931	682.858	0.159	-0.411
-379.917	-200.000	-0.014	-0.089
-378.902	78.934	0.129	-0.137
-377.888	3.401	-0.199	-0.144
-376.873	-131.521	0.384	-0.050
-375.858	-134.112	0.089	0.011
-374.844	599.685	-0.039	0.095
-373.829	544.075	0.023	0.054
-372.815	-200.000	-0.021	0.123
-371.800	-15.058	0.044	0.028
-370.785	-183.497	0.233	0.004
-369.771	47.036	0.245	-0.226
-368.756	-51.427	0.261	-0.121
-367.742	314.979	0.035	-0.066
-366.727	-124.820	-0.462	0.071
-365.712	-200.000	-0.022	0.290
-364.698	39.348	-0.105	0.093
-363.683	-75.100	0.047	-0.017
-362.669	-86.581	0.050	0.015
-361.654	30.438	0.050	0.042
-360.639	800.000	0.019	-0.079
-359.625	-60.918	-0.280	0.118
-358.610	-200.000	-0.054	0.279
-357.596	33.855	-0.087	0.075
-356.581	19.969	-0.049	0.039
-355.566	98.620	0.240	-0.274
-354.552	-97.304	0.288	-0.075
-353.537	-9.790	-0.253	-0.167
-352.523	23.248	0.139	0.113
-351.508	800.000	-0.066	-0.226
-350.493	165.775	0.051	0.072
-349.479	-200.000	0.059	0.295
-348.464	-134.662	-0.115	0.014
-347.450	176.702	0.090	0.130
-346.435	34.850	-0.212	0.184
-345.420	-149.683	0.185	-0.014
-344.406	158.434	-0.008	0.011
-343.391	-51.225	0.264	0.123
-342.377	-126.066	0.061	-0.009
-341.362	744.032	-0.029	0.078
-340.348	800.000	-0.147	0.482
-339.333	-64.218	-0.282	-0.114
-338.318	14.026	-0.108	-0.083
-337.304	19.764	-0.139	0.111
-336.289	-107.411	-0.128	0.028
-335.275	19.466	0.236	-0.188
-334.260	-177.620	-0.117	-0.003
-333.245	33.714	-0.118	0.101
-332.231	800.000	-0.049	0.137
-331.216	58.517	0.244	-0.237
-330.202	-180.380	0.123	-0.003
-329.187	-148.798	0.513	-0.041
-328.172	-178.164	0.171	0.004
-327.158	-131.935	0.059	-0.008
-326.143	-122.347	-0.170	-0.027
-325.129	-200.000	0.015	0.104
-324.114	800.000	0.035	-0.134
-323.099	468.618	0.046	-0.102
-322.085	-66.470	-0.128	-0.050
-321.070	265.481	0.030	0.051
-320.056	800.000	-0.074	0.229
-319.041	278.208	0.083	-0.147
-318.026	-89.478	-0.376	0.109
-317.012	9.421	-0.198	-0.148
-315.997	173.845	0.323	0.462
-314.983	104.886	0.251	-0.293
-313.968	-121.720	-0.072	-0.012
-312.953	93.646	-0.114	-0.128
-311.939	370.507	0.166	0.333
-310.924	-176.603	-0.276	0.007
-309.910	421.176	0.027	-0.057
-308.895	187.647	0.065	0.096
-307.880	-106.932	-0.333	-0.073
-306.866	-83.057	0.224	-0.072
-305.851	800.000	-0.023	0.076
-304.837	-200.000	-0.003	0.109
-303.822	800.000	-0.097	0.286
-302.807	-47.545	0.330	-0.159
-301.793	-102.849	0.079	-0.019
-300.778	-200.000	-0.058	0.335
-299.764	-0.040	-0.337	0.238
-298.749	-96.266	0.220	-0.058
-297.735	-77.526	-0.192	-0.066
-296.720	42.273	-0.325	-0.292
-295.705	-200.000	0.010	0.183
-294.691	-200.000	0.014	0.188
-293.676	143.660	0.173	0.227
-292.662	800.000	-0.024	0.087
-291.647	-174.612	-0.211	-0.006
-290.632	230.676	0.096	-0.155
-289.618	152.757	-0.176	0.239
-288.603	138.853	0.072	0.093
-287.589	-200.000	-0.009	-0.335
-286.574	-123.475	-0.171	0.027
-285.559	-81.146	-0.196	0.064
-284.545	-27.710	-0.150	-0.086
-283.530	41.181	0.125	-0.112
-282.516	-146.580	-0.310	-0.027
-281.501	361.280	-0.056	0.111
-280.486	343.852	-0.183	0.356
-279.472	-127.312	0.166	0.024
-278.457	-200.000	-0.016	0.239
-277.443	-80.226	-0.232	0.077
-276.428	179.890	0.033	-0.048
-275.413	551.875	-0.127	0.302
-274.399	-28.235	0.220	-0.126
-273.384	-90.035	0.192	0.055
-272.370	68.648	0.113	0.114
-271.355	106.979	0.194	-0.228
-270.340	-24.560	-0.300	-0.177
-269.326	-81.792	0.244	-0.079
-268.311	-200.000	-0.027	0.371
-267.297	91.045	0.062	0.069
-266.282	9.109	-0.144	-0.108
-265.267	14.110	0.290	0.223
-264.253	183.704	0.057	0.083
-263.238	104.126	0.281	0.326
-262.224	307.088	-0.082	0.150
-261.209	17.180	-0.180	0.141
-260.195	-123.283	-0.267	-0.042
-259.180	419.797	0.081	-0.171
-258.165	-200.000	0.005	0.273
-257.151	800.000	-0.064	0.237
-256.136	-140.973	0.242	-0.025
-255.122	-101.273	0.329	0.079
-254.107	-200.000	-0.005	0.053
-253.092	142.718	0.035	0.046
-252.078	336.274	0.139	-0.267
-251.063	35.499	-0.334	-0.290
-250.049	-17.942	0.171	0.106
-249.034	-170.678	-0.204	-0.007
-248.019	-23.865	0.165	-0.097
-247.005	800.000	0.035	-0.137
-245.990	146.740	0.222	-0.295
-244.976	-155.903	0.226	0.014
-243.961	59.017	0.087	-0.085
-242.946	800.000	-0.032	0.114
-241.932	-29.786	-0.303	0.171
-240.917	800.000	0.063	0.264
-239.903	88.784	-0.095	-0.104
-238.888	58.872	-0.303	-0.295
-237.873	-200.000	-0.010	0.170
-236.859	33.468	-0.084	-0.072
-235.844	8.281	-0.124	-0.092
-234.830	246.794	0.048	0.080
-233.815	-33.042	0.455	-0.249
-232.800	-37.416	-0.126	0.066
-231.786	158.840	0.035	0.048
-230.771	-200.000	-0.006	-0.145
-229.757	-200.000	0.038	-0.180
-228.742	-200.000	-0.014	-0.195
-227.727	800.000	0.014	-0.059
-226.713	-200.000	-0.036	0.245
-225.698	-28.864	-0.212	0.120
-224.684	-143.951	0.439	-0.041
-223.669	267.671	0.203	0.350
-222.655	-200.000	-0.018	0.214
-221.640	39.725	0.107	-0.095
-220.625	92.877	0.120	-0.134
-219.611	-38.842	-0.213	0.111
-218.596	70.772	-0.077	0.079
-217.582	-200.000	0.019	0.310
-216.567	-200.000	0.013	0.239
-215.552	77.770	0.209	-0.220
-214.538	-100.666	-0.158	0.039
-213.523	528.123	-0.087	0.204
-212.509	800.000	0.062	0.257
-211.494	-84.548	0.338	0.105
-210.479	-124.843	0.266	0.040
-209.465	-200.000	0.007	0.052
-208.450	-200.000	0.017	-0.123
-207.436	-73.312	-0.186	-0.067
-206.421	-29.015	0.083	-0.047
-205.406	82.646	0.146	0.156
-204.392	124.459	0.082	0.101
-203.377	-100.264	0.160	-0.039
-202.363	275.630	-0.047	-0.082
-201.348	-200.000	0.003	0.070
-200.333	-200.000	-0.002	0.270
-199.319	800.000	-0.064	0.182
-198.304	15.588	0.221	0.172
-197.290	-42.285	0.041	-0.021
-196.275	-200.000	0.025	-0.334
-195.260	-200.000	0.045	-0.198
-194.246	-3.923	0.403	-0.276
-193.231	155.079	0.125	-0.169
-192.217	-200.000	0.002	-0.188
-191.202	-22.384	-0.225	0.135
-190.187	-200.000	-0.031	0.359
-189.173	-200.000	0.070	0.356
-188.158	-57.947	-0.192	0.083
-187.144	800.000	0.107	-0.361
-186.129	-195.148	-0.177	0.001
-185.114	255.951	-0.038	-0.065
-184.100	95.204	0.274	-0.308
-183.085	577.881	-0.049	-0.118
-182.071	-200.000	-0.073	-0.389
-181.056	325.410	0.163	-0.307
-180.042	190.100	0.096	0.142
-179.027	-46.340	0.285	0.138
-178.012	-200.000	0.032	0.208
-176.998	61.079	0.025	-0.024
-175.983	-200.000	-0.093	0.455
-174.969	-200.000	0.007	-0.274
-173.954	73.679	0.252	-0.261
-172.939	800.000	0.112	-0.402
-171.925	-200.000	-0.025	-0.410
-170.910	175.192	0.108	-0.154
-169.896	-200.000	-0.020	-0.319
-168.881	-200.000	0.008	-0.254
-167.866	-78.322	0.053	-0.018
-166.852	28.103	0.068	0.057
-165.837	-9.029	0.345	0.227
-164.823	12.435	0.180	0.136
-163.808	-5.682	-0.098	0.066
-162.793	-144.616	-0.146	-0.013
-161.779	68.108	0.147	-0.148
-160.764	-90.821	-0.291	-0.083
-159.750	-87.427	-0.380	0.113
-158.735	112.503	-0.218	0.260
-157.720	86.598	0.231	-0.251
-156.706	-39.843	-0.154	-0.079
-155.691	-200.000	-0.023	-0.217
-154.677	51.518	0.371	-0.347
-153.662	-200.000	0.054	-0.238
-152.647	-125.109	0.426	-0.064
-151.633	-200.000	-0.039	-0.348
-150.618	-23.308	-0.210	0.124
-149.604	100.201	0.156	0.178
-148.589	22.159	-0.073	-0.059
-147.574	-200.000	0.039	-0.210
-146.560	-26.844	-0.185	-0.107
-145.545	-86.206	-0.181	0.055
-144.531	-71.402	-0.239	-0.088
-143.516	-42.031	0.334	0.168
-142.502	-75.323	-0.197	-0.069
-141.487	-142.354	-0.137	0.013
-140.472	-108.499	-0.103	-0.022
-139.458	-29.254	0.147	-0.083
-138.443	-0.638	-0.233	0.163
-137.429	184.677	0.226	-0.329
-136.414	405.761	-0.170	0.352
-135.399	-73.850	0.234	-0.084
-134.385	-151.488	-0.314	0.023
-133.370	142.179	0.356	0.464
-132.356	663.500	0.118	-0.298
-131.341	800.000	-0.078	-0.261
-130.326	-46.793	-0.213	0.102
-129.312	-81.703	-0.055	0.018
-128.297	-49.267	0.161	-0.076
-127.283	-200.000	-0.028	0.173
-126.268	-200.000	-0.021	-0.198
-125.253	-29.751	0.237	0.133
-124.239	253.620	-0.029	-0.048
-123.224	46.643	0.235	0.215
-122.210	-7.947	0.262	0.174
-121.195	-85.943	0.170	0.052
-120.180	257.680	-0.170	0.287
-119.166	239.926	0.103	0.168
-118.151	23.901	0.151	-0.123
-117.137	178.097	0.075	0.108
-116.122	-175.650	0.242	0.006
-115.107	800.000	0.077	0.256
-114.093	-50.457	-0.363	0.168
-113.078	-200.000	0.006	0.160
-112.064	-200.000	-0.031	0.331
-111.049	-47.811	-0.266	0.127
-110.034	-129.108	0.081	-0.011
-109.020	-200.000	0.007	-0.226
-108.005	9.916	-0.411	0.307
-106.991	-200.000	-0.044	0.199
-105.976	-200.000	-0.005	-0.259
-104.962	166.465	-0.179	0.249
-103.947	52.810	0.239	0.225
-102.932	763.122	0.194	0.518
-101.918	-155.685	-0.312	-0.020
-100.903	26.221	0.145	0.119
-99.889	115.837	0.218	-0.262
-98.874	46.802	0.123	-0.112
-97.859	-200.000	0.050	-0.260
-96.845	-114.220	0.207	0.039
-95.830	469.269	0.137	0.302
-94.816	-200.000	0.074	0.350
-93.801	535.219	-0.055	0.127
-92.786	211.561	-0.084	-0.130
-91.772	117.231	-0.152	0.184
-90.757	-119.885	-0.154	0.026
-89.743	-200.000	-0.007	-0.164
-88.728	154.379	-0.110	0.148
-87.713	-68.821	0.252	0.095
-86.699	636.536	0.102	0.255
-85.684	800.000	0.057	0.244
-84.670	141.665	-0.091	-0.118
-83.655	-14.493	0.196	0.124
-82.640	-167.709	-0.195	-0.008
-81.626	159.086	0.154	0.210
-80.611	52.654	0.315	0.296
-79.597	10.192	-0.309	-0.230
-78.582	-100.510	0.260	0.063
-77.567	55.349	0.110	-0.105
-76.553	768.300	-0.250	-0.666
-75.538	41.984	0.036	-0.032
-74.524	-200.000	0.113	-0.494
-73.509	148.124	0.215	0.285
-72.494	-150.176	0.105	0.008
-71.480	29.251	0.384	-0.320
-70.465	-54.460	0.332	0.148
-69.451	-27.693	0.269	0.153
-68.436	-58.861	-0.210	0.089
-67.422	-179.463	-0.301	-0.006
-66.407	-12.205	0.431	-0.276
-65.392	-200.000	-0.076	-0.366
-64.378	-200.000	-0.009	0.265
-63.363	-200.000	-0.029	0.226
-62.349	-122.506	0.322	0.051
-61.334	109.892	-0.833	-0.980
-60.319	-45.462	0.699	0.340
-59.305	800.000	-0.239	-0.854
-58.290	279.608	0.563	0.986
-57.276	120.774	0.893	1.089
-56.261	-200.000	105.630	613.003
-55.246	504.066	1506.856	3418.948
-54.232	174.797	2709.749	3845.166
-53.217	104.718	2301.208	2658.900
-52.203	38.756	1905.209	1667.478
-51.188	32.646	1691.380	1433.954
-50.173	30.171	1647.663	1378.466
-49.159	49.117	1701.468	1567.123
-48.144	49.320	1717.298	1583.173
-47.130	32.299	1674.246	1416.590
-46.115	29.623	1660.145	1384.579
-45.100	29.587	1654.511	1379.554
-44.086	29.489	1651.965	1376.649
-43.071	29.423	1649.218	1373.817
-42.057	29.427	1647.000	1371.940
-41.042	29.484	1644.790	1370.472
-40.027	29.434	1643.392	1368.882
-39.013	29.457	1641.071	1367.063
-37.998	29.368	1640.030	1365.483
-36.984	29.509	1638.052	1364.825
-35.969	29.528	1636.848	1363.904
-34.954	29.587	1635.157	1362.879
-33.940	29.615	1633.100	1361.314
-32.925	29.549	1631.721	1359.624
-31.911	29.554	1629.642	1357.876
-30.896	29.508	1627.746	1355.905
-29.881	29.459	1626.923	1354.809
-28.867	29.472	1625.304	1353.502
-27.852	29.571	1623.228	1352.446
-26.838	29.604	1621.734	1351.384
-25.823	29.560	1621.089	1350.471
-24.809	29.475	1619.970	1348.868
-23.794	29.565	1618.156	1347.958
-22.779	29.606	1616.806	1347.082
-21.765	29.495	1615.079	1344.781
-20.750	29.682	1612.612	1344.029
-19.736	29.676	1611.869	1343.318
-18.721	29.634	1610.446	1341.770
-17.706	29.561	1609.072	1340.046
-16.692	29.526	1607.778	1338.661
-15.677	29.639	1606.010	1337.952
-14.663	29.628	1604.813	1336.824
-13.648	29.575	1603.497	1335.288
-12.633	29.565	1602.106	1334.004
-11.619	29.619	1600.089	1332.661
-10.604	29.677	1598.751	1331.917
-9.590	29.644	1597.591	1330.657
-8.575	29.671	1596.509	1329.897
-7.560	29.678	1595.148	1328.761
-6.546	29.525	1594.430	1327.013
-5.531	29.577	1593.291	1326.386
-4.517	29.585	1592.243	1325.515
-3.502	29.563	1590.884	1324.173
-2.487	29.693	1588.961	1323.450
-1.473	29.359	1577.081	1311.130
-0.458	26.661	1557.933	1276.184
0.556	20.820	1559.966	1246.098
1.571	18.564	1585.105	1249.648
2.586	18.379	1598.497	1258.736
3.600	16.669	1546.415	1205.447
4.615	8.883	1436.192	1067.748
5.629	1.233	1372.763	971.647
6.644	-0.129	1363.756	956.517
7.659	-0.322	1362.834	954.559
8.673	-0.316	1361.985	953.918
9.688	-0.352	1360.064	952.258
10.702	-0.486	1357.151	949.291
11.717	3.068	1364.214	976.752
12.731	12.392	1381.541	1048.826
13.746	19.746	1393.693	1105.141
14.761	21.765	1396.281	1120.007
15.775	21.973	1396.202	1121.173
16.790	22.084	1395.614	1121.314
17.804	22.173	1395.022	1121.304
18.819	22.298	1395.133	1122.091
19.834	22.340	1394.581	1121.819
20.848	22.471	1393.294	1121.514
21.863	22.435	1392.765	1120.764
22.877	22.466	1391.663	1119.971
23.892	22.478	1391.137	1119.529
24.907	22.469	1390.011	1118.466
25.921	22.520	1389.245	1118.071
26.936	22.447	1388.502	1116.913
27.950	22.403	1387.457	1115.693
28.965	22.407	1386.283	1114.680
29.980	22.395	1384.962	1113.438
30.994	22.381	1384.054	1112.524
32.009	22.430	1382.533	1111.514
33.023	22.415	1381.551	1110.527
34.038	22.424	1380.264	1109.453
35.053	22.486	1379.457	1109.094
36.067	22.485	1377.990	1107.814
37.082	22.470	1377.467	1107.203
38.096	22.483	1376.389	1106.318
39.111	22.493	1375.509	1105.575
40.126	22.468	1375.314	1105.163
41.140	22.389	1374.925	1104.260
42.155	22.386	1374.342	1103.675
43.169	22.543	1373.892	1104.198
44.184	22.504	1373.563	1103.589
45.199	22.422	1373.440	1102.878
46.213	22.428	1373.296	1102.703
47.228	22.446	1372.139	1101.788
48.242	22.460	1370.736	1100.656
49.257	22.562	1368.722	1099.573
50.271	22.458	1368.272	1098.467
51.286	22.514	1366.348	1097.179
52.301	22.578	1365.172	1096.531
53.315	22.481	1364.486	1095.284
54.330	22.468	1363.706	1094.476
55.344	22.505	1362.329	1093.505
56.359	22.435	1361.247	1092.105
57.374	22.489	1360.389	1091.655
58.388	22.426	1359.934	1090.802
59.403	22.347	1360.238	1090.458
60.417	22.461	1359.139	1090.190
61.432	22.367	1358.056	1088.642
62.447	22.408	1357.432	1088.299
63.461	22.405	1356.319	1087.295
64.476	22.503	1354.937	1086.693
65.490	22.483	1353.990	1085.716
66.505	22.498	1352.217	1084.292
67.520	22.484	1350.936	1083.083
68.534	22.541	1349.849	1082.465
69.549	22.474	1349.263	1081.488
70.563	22.579	1348.450	1081.383
71.578	22.493	1347.306	1079.843
72.593	22.513	1346.700	1079.383
73.607	22.474	1346.113	1078.578
74.622	22.459	1345.334	1077.769
75.636	22.470	1344.593	1077.144
76.651	22.506	1343.911	1076.727
77.666	22.499	1342.896	1075.771
78.680	22.427	1343.009	1075.330
79.695	22.427	1342.079	1074.492
80.709	22.473	1341.414	1074.142
81.724	22.507	1340.421	1073.456
82.739	22.476	1339.655	1072.562
83.753	22.399	1338.394	1070.988
84.768	22.443	1337.143	1070.159
85.782	22.468	1335.847	1069.182
86.797	22.499	1334.919	1068.532
87.812	22.551	1333.289	1067.444
88.826	22.562	1332.906	1067.110
89.841	22.524	1331.724	1065.844
90.855	22.515	1330.600	1064.794
91.870	22.510	1329.822	1064.044
92.884	22.485	1329.356	1063.426
93.899	22.583	1327.892	1062.752
94.914	22.513	1327.384	1061.831
95.928	22.591	1326.340	1061.376
96.943	22.407	1326.236	1060.088
97.957	22.522	1325.150	1059.820
98.972	22.526	1324.592	1059.304
99.987	22.570	1323.110	1058.289
101.001	22.445	1322.282	1056.778
102.016	22.383	1321.345	1055.567
103.030	22.579	1320.615	1056.062
104.045	22.461	1320.069	1054.827
105.060	22.551	1318.588	1054.092
106.074	22.547	1317.450	1053.062
107.089	22.470	1316.654	1051.875
108.103	22.588	1315.624	1051.658
109.118	22.529	1314.233	1050.103
110.133	22.665	1313.063	1049.885
111.147	22.584	1311.877	1048.366
112.162	22.620	1310.734	1047.572
113.176	22.643	1309.772	1046.848
114.191	22.597	1308.935	1045.814
115.206	22.576	1307.957	1044.816
116.220	22.587	1306.907	1043.948
117.235	22.635	1305.946	1043.371
118.249	22.671	1304.820	1042.595
119.264	22.581	1304.343	1041.589
120.279	22.545	1303.738	1040.796
121.293	22.709	1302.529	1040.708
122.308	22.631	1301.656	1039.461
123.322	22.587	1300.961	1038.556
124.337	22.660	1299.961	1038.095
125.352	22.687	1299.022	1037.409
126.366	22.666	1298.250	1036.577
127.381	22.699	1297.183	1035.828
128.395	22.698	1295.906	1034.712
129.410	22.619	1295.330	1033.699
130.424	22.682	1294.629	1033.415
131.439	22.619	1294.030	1032.479
132.454	22.624	1292.745	1031.386
133.468	22.632	1292.212	1030.920
134.483	22.625	1291.677	1030.359
135.497	22.660	1290.583	1029.599
136.512	22.647	1289.608	1028.659
137.527	22.684	1288.535	1027.926
138.541	22.625	1287.579	1026.727
139.556	22.534	1286.218	1025.023
140.570	22.603	1284.999	1024.359
141.585	22.577	1283.758	1023.129
142.600	22.622	1282.677	1022.438
143.614	22.585	1282.252	1021.795
144.629	22.606	1281.144	1020.945
145.643	22.584	1279.665	1019.547
146.658	22.474	1278.918	1018.226
147.673	22.543	1277.722	1017.585
148.687	22.557	1277.105	1017.086
149.702	22.489	1275.688	1015.474
150.716	22.507	1274.689	1014.690
151.731	22.516	1273.813	1013.958
152.746	22.699	1272.080	1013.538
153.760	22.671	1271.194	1012.579
154.775	22.628	1270.794	1011.928
155.789	22.700	1269.679	1011.360
156.804	22.591	1269.089	1010.176
157.819	22.579	1268.160	1009.282
158.833	22.675	1267.424	1009.152
159.848	22.561	1266.692	1007.832
160.862	22.716	1265.557	1007.725
161.877	22.779	1264.804	1007.394
162.892	22.724	1264.059	1006.400
163.906	22.712	1263.351	1005.675
164.921	22.805	1262.229	1005.223
165.935	22.694	1261.879	1004.228
166.950	22.644	1261.321	1003.408
167.964	22.738	1260.528	1003.221
168.979	22.686	1260.372	1002.713
169.994	22.762	1259.605	1002.447
171.008	22.818	1258.583	1001.862
172.023	22.858	1257.623	1001.235
173.037	22.880	1256.933	1000.722
174.052	22.816	1256.090	999.603
175.067	22.680	1255.788	998.500
176.081	22.752	1254.940	998.149
177.096	22.860	1253.596	997.599
178.110	22.894	1252.960	997.196
179.125	22.836	1252.092	996.094
180.140	22.867	1250.840	995.184
181.154	22.767	1250.053	993.905
182.169	22.873	1248.635	993.285
183.183	22.737	1248.089	992.000
184.198	22.824	1247.124	991.633
185.213	22.883	1246.200	991.144
186.227	22.900	1245.106	990.277
187.242	22.946	1243.822	989.427
188.256	22.863	1243.430	988.562
189.271	22.819	1242.842	987.763
190.286	22.834	1241.780	986.914
191.300	22.841	1241.280	986.466
192.315	22.874	1240.551	985.984
193.329	22.784	1240.524	985.376
194.344	22.850	1240.360	985.527
195.359	22.785	1239.574	984.449
196.373	22.812	1238.925	984.001
197.388	22.771	1238.434	983.297
198.402	22.786	1238.345	983.222
199.417	22.855	1237.315	982.700
200.432	22.786	1237.228	982.157
201.446	22.954	1235.901	981.953
202.461	22.768	1235.476	980.497
203.475	22.875	1234.694	980.383
204.490	22.827	1233.915	979.411
205.504	22.840	1232.404	978.196
206.519	22.940	1231.743	978.141
207.534	22.948	1230.538	977.140
208.548	22.840	1230.192	976.182
209.563	22.985	1229.138	976.061
210.577	22.886	1228.615	975.009
211.592	22.874	1227.523	973.989
212.607	23.018	1226.698	974.044
213.621	22.965	1226.279	973.335
214.636	23.048	1224.667	972.423
215.650	23.112	1224.360	972.448
216.665	23.080	1223.408	971.432
217.680	22.918	1222.634	969.838
218.694	22.931	1222.245	969.513
219.709	22.953	1221.488	968.949
220.723	23.004	1220.738	968.550
221.738	22.943	1220.264	967.755
222.753	22.947	1218.812	966.536
223.767	22.949	1218.716	966.386
224.782	23.099	1218.265	966.764
225.796	22.961	1217.567	965.373
226.811	23.060	1216.820	965.235
227.826	22.981	1216.571	964.522
228.840	22.951	1215.815	963.673
229.855	23.103	1214.844	963.646
230.869	22.958	1214.099	962.179
231.884	23.042	1213.343	961.954
232.899	23.123	1212.790	961.868
233.913	22.970	1212.456	960.685
234.928	23.091	1211.952	960.860
235.942	23.046	1211.340	960.046
236.957	23.079	1210.362	959.365
237.972	23.098	1209.979	959.081
238.986	23.042	1209.554	958.355
240.001	23.129	1208.595	957.977
241.015	23.194	1207.551	957.418
242.030	23.230	1206.805	956.939
243.045	23.221	1206.181	956.307
244.059	23.238	1205.451	955.739
245.074	23.284	1204.775	955.365
246.088	23.292	1203.714	954.483
247.103	23.402	1202.538	954.060
248.117	23.308	1202.367	953.335
249.132	23.237	1201.359	952.069
250.147	23.349	1200.696	952.059
251.161	23.376	1199.837	951.437
252.176	23.206	1199.436	950.122
253.190	23.309	1198.863	950.139
254.205	23.240	1198.584	949.464
255.220	23.258	1197.873	948.911
256.234	23.279	1196.945	948.208
257.249	23.393	1196.272	948.198
258.263	23.403	1195.387	947.470
259.278	23.304	1195.513	946.951
260.293	23.363	1194.831	946.645
261.307	23.354	1194.004	945.858
262.322	23.343	1193.962	945.685
263.336	23.329	1192.831	944.629
264.351	23.316	1192.309	944.060
265.366	23.400	1191.670	943.919
266.380	23.343	1190.936	942.953
267.395	23.423	1190.488	942.941
268.409	23.355	1189.743	941.905
269.424	23.368	1189.102	941.383
270.439	23.311	1189.146	941.033
271.453	23.365	1188.573	940.783
272.468	23.417	1186.958	939.697
273.482	23.413	1186.399	939.149
274.497	23.428	1186.016	938.841
275.512	23.512	1185.663	938.922
276.526	23.466	1184.861	937.959
277.541	23.461	1183.971	937.150
278.555	23.521	1183.314	936.863
279.570	23.496	1182.818	936.256
280.585	23.473	1182.064	935.452
281.599	23.581	1181.036	935.126
282.614	23.445	1180.388	933.817
283.628	23.464	1179.379	933.035
284.643	23.568	1178.234	932.593
285.657	23.483	1177.447	931.441
286.672	23.534	1176.890	931.182
287.687	23.555	1176.173	930.643
288.701	23.588	1175.804	930.445
289.716	23.644	1174.591	929.694
290.730	23.516	1174.274	928.691
291.745	23.540	1174.181	928.664
292.760	23.606	1173.176	928.132
293.774	23.626	1172.303	927.460
294.789	23.706	1172.039	927.586
295.803	23.630	1171.081	926.349
296.818	23.595	1170.575	925.687
297.833	23.662	1169.527	925.126
298.847	23.761	1168.986	925.129
299.862	23.730	1168.191	924.257
300.876	23.753	1167.852	924.025
301.891	23.748	1167.296	923.483
302.906	23.791	1166.383	922.900
303.920	23.837	1165.615	922.448
304.935	23.770	1165.435	921.880
305.949	23.703	1164.752	920.907
306.964	23.731	1164.079	920.440
307.979	23.643	1163.878	919.743
308.993	23.856	1162.471	919.653
310.008	23.837	1161.919	919.038
311.022	23.905	1161.322	918.832
312.037	23.842	1160.463	917.748
313.052	23.855	1159.387	916.880
314.066	23.880	1158.657	916.353
315.081	23.808	1158.153	915.502
316.095	23.884	1157.542	915.330
317.110	23.799	1157.360	914.667
318.125	23.908	1156.208	914.238
319.139	23.956	1155.651	913.961
320.154	23.791	1155.278	912.735
321.168	23.879	1154.452	912.454
322.183	23.890	1153.754	911.881
323.197	23.954	1153.021	911.548
324.212	23.918	1152.828	911.129
325.227	23.902	1151.966	910.289
326.241	23.900	1151.744	910.022
327.256	24.014	1150.783	909.764
328.270	23.973	1149.920	908.792
329.285	23.936	1149.485	908.180
330.300	23.983	1148.373	907.457
331.314	23.923	1147.991	906.773
332.329	24.032	1146.838	906.333
333.343	24.081	1145.939	905.796
334.358	23.972	1145.333	904.680
335.373	24.019	1144.664	904.310
336.387	24.085	1144.043	904.077
337.402	24.037	1143.659	903.449
338.416	24.166	1142.602	903.187
339.431	24.069	1142.533	902.562
340.446	24.176	1141.349	902.090
341.460	24.268	1140.614	901.892
342.475	24.159	1139.905	900.701
343.489	24.233	1138.957	900.247
344.504	24.211	1138.213	899.469
345.519	24.196	1137.260	898.558
346.533	24.138	1137.020	897.997
347.548	24.259	1135.869	897.619
348.562	24.283	1135.420	897.304
349.577	24.229	1134.889	896.533
350.592	24.194	1133.435	895.128
351.606	24.146	1133.197	894.622
352.621	24.226	1132.701	894.551
353.635	24.197	1131.867	893.668
354.650	24.218	1131.565	893.455
355.665	24.304	1130.482	892.954
356.679	24.322	1130.163	892.711
357.694	24.234	1129.642	891.781
358.708	24.344	1128.537	891.380
359.723	24.374	1128.150	891.147
360.738	24.301	1127.615	890.281
361.752	24.398	1127.124	890.298
362.767	24.289	1126.863	889.469
363.781	24.386	1126.005	889.199
364.796	24.438	1125.241	888.773
365.810	24.416	1124.464	887.972
366.825	24.442	1124.156	887.781
367.840	24.395	1123.770	887.162
368.854	24.630	1122.683	887.394
369.869	24.526	1122.511	886.663
370.883	24.523	1121.505	885.774
371.898	24.507	1120.733	885.005
372.913	24.447	1120.556	884.489
373.927	24.502	1119.656	883.974
374.942	24.534	1119.470	883.910
375.956	24.522	1118.709	883.169
376.971	24.533	1118.195	882.739
377.986	24.551	1117.888	882.510
379.000	24.557	1117.406	882.079
380.015	24.549	1116.968	881.615
381.029	24.562	1115.872	880.739
382.044	24.632	1115.367	880.604
383.059	24.693	1114.665	880.275
384.073	24.634	1113.819	879.239
385.088	24.612	1113.075	878.462
386.102	24.616	1112.067	877.612
387.117	24.483	1111.817	876.681
388.132	24.618	1110.768	876.439
389.146	24.727	1109.532	875.921
390.161	24.612	1109.294	875.090
391.175	24.652	1108.574	874.643
392.190	24.669	1108.112	874.285
393.205	24.757	1107.164	873.888
394.219	24.716	1106.465	873.059
395.234	24.817	1105.768	872.925
396.248	24.764	1105.116	872.073
397.263	24.693	1104.088	870.840
398.278	24.795	1103.932	871.135
399.292	24.831	1102.748	870.300
400.307	24.851	1102.076	869.788
401.321	24.780	1101.737	869.103
402.336	24.698	1101.456	868.404
403.350	24.718	1100.476	867.653
404.365	24.834	1099.632	867.471
405.380	24.954	1098.862	867.367
406.394	24.914	1098.065	866.470
407.409	25.015	1097.413	866.368
408.423	25.062	1096.660	865.924
409.438	25.004	1095.856	864.931
410.453	25.074	1095.262	864.722
411.467	25.036	1094.772	864.076
412.482	24.903	1094.168	862.884
413.496	25.023	1093.460	862.825
414.511	24.971	1093.078	862.198
415.526	25.009	1092.234	861.639
416.540	24.999	1091.688	861.085
417.555	25.036	1091.507	861.044
418.569	24.885	1091.293	860.072
419.584	24.977	1090.499	859.812
420.599	25.013	1090.085	859.584
421.613	148.021	1402.936	1798.548
422.628	136.950	1448.474	1798.637
