DTS Sentinel unit serial number:	SN413079Multiplexer serial number:	ORYXHardware model number:	OX4-SRSoftware version number:	ORYX F/W v4.00 Oryx Data Collector v3.7.2.0data status	okinstallation	princeton_trtdifferential loss correction	single-endedforward channel	channel 2reverse channel	N/Adate	2019/09/11time	05:41:11forward acquisition time	60.00reverse acquisition time	0.00gamma	496.2192k internal	0.2330k external	0.2330temperature offset calibration	0.9936default loss term (dB/km)	0.3790temperature slope calibration	1.0000multiplexer offset coefficient	1.0000multiplexer slope coefficient	1.0000fibre end	0.00T internal ref (°C)	29.42T ext. ref 1 (°C)	-0.25T ext. ref 2 (°C)	23.38length (m)	temperature (°C)	Stokes	anti-Stokes-747.200	-149.450	0.383	-0.031
-746.185	27.314	-0.190	-0.161
-745.171	800.000	0.075	0.211
-744.156	340.000	0.203	0.398
-743.142	800.000	0.062	0.226
-742.127	108.283	0.151	0.181
-741.112	-55.876	-0.098	-0.044
-740.098	52.895	-0.224	0.216
-739.083	800.000	-0.029	-0.112
-738.069	800.000	0.158	0.466
-737.054	-61.016	-0.295	-0.126
-736.039	-192.827	-0.381	-0.003
-735.025	152.838	0.123	0.170
-734.010	-200.000	0.011	0.118
-732.996	29.646	-0.092	0.079
-731.981	800.000	0.030	0.116
-730.966	72.238	-0.319	0.335
-729.952	-87.917	-0.103	-0.031
-728.937	-152.708	-0.426	0.030
-727.923	153.756	0.422	-0.582
-726.908	-169.031	-0.405	0.015
-725.894	-59.822	0.146	-0.063
-724.879	79.973	0.063	-0.068
-723.864	-8.779	-0.053	-0.036
-722.850	71.506	-0.119	-0.124
-721.835	800.000	0.044	-0.160
-720.821	123.077	0.058	0.073
-719.806	-119.173	0.155	0.027
-718.791	19.119	-0.274	0.221
-717.777	800.000	-0.077	-0.232
-716.762	-200.000	0.014	-0.121
-715.748	-200.000	0.017	0.141
-714.733	-16.343	0.155	0.099
-713.718	-19.049	0.204	0.127
-712.704	-0.652	0.165	0.118
-711.689	-79.775	0.205	0.069
-710.675	228.503	0.062	0.101
-709.660	218.983	0.168	-0.270
-708.645	800.000	0.083	-0.276
-707.631	-200.000	0.048	0.261
-706.616	-175.238	-0.141	-0.004
-705.602	-129.011	0.315	-0.044
-704.587	-88.504	-0.476	0.143
-703.572	-76.655	0.292	0.103
-702.558	543.485	-0.149	0.357
-701.543	-91.941	0.440	-0.125
-700.529	-177.557	0.209	0.005
-699.514	57.827	-0.225	0.221
-698.499	-88.193	0.223	-0.067
-697.485	29.757	-0.033	0.028
-696.470	-139.912	-0.277	-0.029
-695.456	85.639	-0.146	0.161
-694.441	-200.000	-0.003	-0.183
-693.426	-200.000	0.010	-0.140
-692.412	146.986	-0.245	0.332
-691.397	-200.000	-0.001	0.176
-690.383	800.000	0.073	-0.227
-689.368	800.000	0.019	-0.071
-688.354	277.057	-0.108	-0.193
-687.339	800.000	-0.025	-0.105
-686.324	309.361	0.062	-0.116
-685.310	-144.456	0.150	-0.014
-684.295	-162.630	-0.455	0.022
-683.281	800.000	0.032	-0.108
-682.266	710.226	-0.086	0.229
-681.251	17.945	0.239	0.191
-680.237	423.552	-0.118	-0.254
-679.222	0.775	-0.320	-0.230
-678.208	-81.110	0.149	-0.049
-677.193	83.302	-0.294	0.322
-676.178	-37.578	-0.256	-0.137
-675.164	-140.165	-0.122	-0.013
-674.149	-123.573	-0.208	-0.033
-673.135	-161.399	-0.281	-0.015
-672.120	-200.000	0.002	0.118
-671.105	-36.821	0.208	-0.112
-670.091	-54.087	-0.139	0.064
-669.076	115.693	-0.069	-0.085
-668.062	37.177	-0.156	0.139
-667.047	-200.000	-0.050	-0.268
-666.032	446.354	-0.144	0.319
-665.018	-53.268	0.294	-0.135
-664.003	800.000	-0.038	-0.125
-662.989	578.955	0.072	0.178
-661.974	-81.287	0.245	0.081
-660.959	14.549	0.238	-0.187
-659.945	800.000	-0.055	-0.156
-658.930	160.100	0.053	0.075
-657.916	-100.982	-0.120	0.030
-656.901	97.640	-0.190	0.220
-655.886	256.310	0.160	-0.275
-654.872	-200.000	0.010	0.308
-653.857	-158.620	0.173	-0.010
-652.843	-3.128	-0.117	0.082
-651.828	-200.000	-0.042	0.473
-650.814	-200.000	-0.015	-0.213
-649.799	-144.563	0.295	-0.027
-648.784	800.000	0.127	-0.397
-647.770	-200.000	0.032	-0.228
-646.755	-98.540	-0.085	-0.022
-645.741	-12.334	-0.171	-0.112
-644.726	686.106	0.089	0.233
-643.711	321.345	0.012	0.023
-642.697	217.865	-0.106	0.170
-641.682	-37.261	0.170	-0.091
-640.668	-200.000	0.005	-0.256
-639.653	-200.000	0.025	-0.205
-638.638	-200.000	0.027	-0.162
-637.624	-133.815	-0.328	-0.041
-636.609	61.324	-0.218	0.218
-635.595	-123.767	0.075	0.012
-634.580	-70.256	0.055	0.021
-633.565	271.706	-0.193	0.340
-632.551	83.717	0.111	-0.121
-631.536	-69.034	0.030	0.012
-630.522	54.381	-0.107	0.104
-629.507	-12.973	-0.151	0.099
-628.492	352.682	-0.113	-0.225
-627.478	-11.983	0.174	0.114
-626.463	55.265	-0.072	-0.070
-625.449	412.599	0.074	-0.158
-624.434	-92.477	-0.263	0.074
-623.419	-69.754	-0.273	-0.104
-622.405	122.789	0.081	-0.102
-621.390	217.689	0.087	0.139
-620.376	-38.204	0.288	-0.153
-619.361	4.417	-0.200	-0.147
-618.346	456.058	-0.077	-0.172
-617.332	-200.000	-0.013	-0.143
-616.317	165.727	-0.129	-0.183
-615.303	20.626	0.389	0.315
-614.288	-126.271	-0.158	-0.024
-613.273	64.264	0.189	0.190
-612.259	138.791	-0.210	0.277
-611.244	203.651	-0.052	-0.081
-610.230	-200.000	-0.097	-0.628
-609.215	800.000	0.036	0.123
-608.201	-200.000	0.038	0.532
-607.186	197.860	0.149	-0.227
-606.171	-88.961	0.332	-0.099
-605.157	-23.039	0.114	0.069
-604.142	12.370	0.163	-0.126
-603.128	18.991	0.232	0.186
-602.113	59.281	-0.248	-0.244
-601.098	800.000	-0.056	-0.210
-600.084	296.966	-0.033	0.061
-599.069	-53.445	-0.156	0.071
-598.055	800.000	-0.022	-0.084
-597.040	509.948	-0.180	-0.418
-596.025	-56.416	0.044	-0.019
-595.011	145.749	-0.158	-0.212
-593.996	-200.000	-0.007	-0.244
-592.982	-89.328	0.212	-0.062
-591.967	-95.089	0.167	0.045
-590.952	800.000	-0.068	0.281
-589.938	-167.103	-0.115	-0.005
-588.923	135.731	-0.244	-0.317
-587.909	-113.325	-0.466	-0.092
-586.894	-200.000	0.013	0.105
-585.879	-87.069	0.278	0.085
-584.865	-74.073	-0.239	-0.087
-583.850	-61.992	-0.275	0.115
-582.836	-200.000	-0.053	0.305
-581.821	676.007	-0.090	0.234
-580.806	5.684	-0.115	-0.085
-579.792	-187.667	0.129	0.002
-578.777	-37.571	-0.079	0.042
-577.763	100.999	0.131	-0.153
-576.748	-200.000	0.021	0.106
-575.733	-38.698	0.311	-0.164
-574.719	486.779	0.051	-0.117
-573.704	-176.205	-0.297	-0.008
-572.690	-12.625	-0.345	-0.225
-571.675	-26.353	0.062	-0.036
-570.661	-200.000	0.011	0.081
-569.646	49.077	-0.351	-0.329
-568.631	-91.358	-0.060	-0.017
-567.617	-200.000	-0.022	-0.156
-566.602	9.163	0.143	-0.108
-565.588	-200.000	0.007	0.210
-564.573	-200.000	-0.018	0.272
-563.558	123.816	0.112	-0.141
-562.544	800.000	-0.041	-0.155
-561.529	12.542	-0.078	0.060
-560.515	88.202	-0.184	-0.204
-559.500	51.266	0.204	-0.193
-558.485	557.928	-0.187	-0.450
-557.471	9.251	-0.197	-0.149
-556.456	-60.159	-0.054	-0.023
-555.442	-64.063	-0.295	-0.120
-554.427	-36.330	-0.332	-0.179
-553.412	292.500	0.052	-0.095
-552.398	800.000	-0.054	0.161
-551.383	-26.221	0.312	0.183
-550.369	152.131	-0.220	0.299
-549.354	-200.000	0.008	-0.087
-548.339	-134.414	-0.288	0.035
-547.325	397.332	0.030	-0.064
-546.310	-22.707	0.400	-0.242
-545.296	4.394	0.142	-0.104
-544.281	800.000	-0.062	0.253
-543.266	83.432	-0.259	0.282
-542.252	82.738	0.064	-0.069
-541.237	43.031	0.107	-0.098
-540.223	-186.187	-0.116	-0.002
-539.208	-25.431	0.198	0.117
-538.193	-200.000	-0.014	0.115
-537.179	29.435	-0.105	-0.089
-536.164	-138.419	0.460	-0.051
-535.150	-200.000	0.014	-0.071
-534.135	800.000	0.101	-0.344
-533.121	90.699	0.093	-0.104
-532.106	-87.559	-0.463	-0.140
-531.091	375.283	-0.094	-0.192
-530.077	305.243	0.110	0.205
-529.062	-157.163	-0.109	-0.007
-528.048	131.772	0.177	0.228
-527.033	-200.000	-0.005	0.033
-526.018	-119.117	-0.070	0.012
-525.004	-137.398	0.247	0.028
-523.989	70.968	-0.173	0.179
-522.975	-200.000	-0.007	-0.044
-521.960	-109.406	0.212	-0.045
-520.945	-137.816	-0.096	0.011
-519.931	76.774	-0.158	0.167
-518.916	-200.000	0.021	0.216
-517.902	800.000	-0.043	0.118
-516.887	-200.000	0.026	-0.291
-515.872	369.429	0.062	0.126
-514.858	-45.786	0.147	0.072
-513.843	-200.000	0.033	-0.218
-512.829	-200.000	-0.001	-0.055
-511.814	-200.000	-0.000	0.106
-510.799	-3.195	-0.144	-0.100
-509.785	-200.000	-0.026	-0.238
-508.770	-200.000	-0.006	-0.038
-507.756	-145.001	0.235	-0.021
-506.741	42.516	0.114	-0.104
-505.726	157.165	-0.229	-0.316
-504.712	-200.000	-0.036	-0.337
-503.697	-42.365	0.128	0.065
-502.683	13.846	0.093	0.072
-501.668	32.227	0.226	-0.194
-500.653	800.000	-0.027	0.101
-499.639	-200.000	0.008	-0.090
-498.624	127.272	0.040	0.051
-497.610	19.517	0.085	-0.069
-496.595	-200.000	0.058	0.256
-495.581	-25.686	-0.166	-0.098
-494.566	-28.787	0.234	0.134
-493.551	50.663	-0.174	0.164
-492.537	-200.000	0.008	0.256
-491.522	424.527	-0.055	0.118
-490.508	-109.382	0.321	-0.068
-489.493	500.546	0.152	-0.349
-488.478	-61.000	0.194	-0.082
-487.464	800.000	-0.026	0.098
-486.449	-131.586	0.022	0.003
-485.435	-75.394	-0.272	0.096
-484.420	125.894	0.174	0.219
-483.405	-92.158	0.248	0.070
-482.391	-85.111	-0.171	-0.053
-481.376	10.087	0.099	-0.075
-480.362	-200.000	-0.006	-0.047
-479.347	-153.725	-0.222	0.015
-478.332	638.212	0.153	0.387
-477.318	-97.880	0.161	0.041
-476.303	-55.239	0.153	0.069
-475.289	-134.901	0.246	-0.030
-474.274	-200.000	0.025	0.401
-473.259	-87.021	-0.071	0.021
-472.245	155.528	-0.088	-0.121
-471.230	-64.313	-0.210	-0.085
-470.216	39.054	0.137	-0.122
-469.201	-188.081	-0.367	0.005
-468.186	800.000	-0.060	0.194
-467.172	-15.667	-0.136	0.086
-466.157	2.789	-0.515	-0.373
-465.143	-200.000	0.032	0.190
-464.128	16.300	0.188	-0.148
-463.113	333.119	0.142	-0.273
-462.099	219.494	0.084	-0.134
-461.084	410.515	0.068	-0.144
-460.070	612.626	-0.028	-0.070
-459.055	-132.627	0.200	-0.026
-458.040	17.940	-0.131	0.104
-457.026	-141.517	0.215	0.022
-456.011	85.979	-0.260	0.285
-454.997	-118.384	0.281	-0.050
-453.982	-94.808	0.116	-0.031
-452.968	107.016	0.046	0.055
-451.953	145.781	0.047	0.063
-450.938	-105.603	-0.035	-0.008
-449.924	554.411	0.120	-0.287
-448.909	-200.000	0.025	0.295
-447.895	83.906	-0.074	-0.080
-446.880	707.682	-0.070	-0.185
-445.865	-200.000	-0.008	0.039
-444.851	124.243	0.190	0.237
-443.836	-85.920	0.252	-0.078
-442.822	-135.653	0.151	0.018
-441.807	-200.000	-0.006	0.050
-440.792	-52.278	-0.289	-0.133
-439.778	-200.000	0.040	0.423
-438.763	-27.383	0.066	-0.038
-437.749	-109.239	0.161	0.034
-436.734	-45.768	0.097	-0.047
-435.719	49.668	-0.307	0.288
-434.705	-92.151	-0.365	-0.103
-433.690	800.000	-0.056	-0.180
-432.676	-200.000	0.030	-0.148
-431.661	246.927	0.051	0.085
-430.646	-33.012	-0.167	-0.092
-429.632	716.381	0.056	0.147
-428.617	-112.377	-0.099	0.020
-427.603	-103.410	0.176	-0.041
-426.588	800.000	-0.046	0.136
-425.573	108.317	-0.167	-0.198
-424.559	-36.960	0.242	-0.129
-423.544	800.000	0.046	-0.171
-422.530	-88.154	0.040	0.012
-421.515	400.588	-0.137	0.286
-420.500	-112.199	0.110	0.022
-419.486	-200.000	-0.201	0.001
-418.471	-150.574	0.157	0.012
-417.457	241.756	-0.150	0.249
-416.442	-200.000	0.051	0.304
-415.428	474.237	0.098	0.220
-414.413	-163.356	-0.123	-0.006
-413.398	-111.001	-0.355	-0.073
-412.384	-170.428	0.310	0.011
-411.369	429.023	0.176	0.378
-410.355	-36.060	-0.175	0.094
-409.340	98.438	0.303	0.347
-408.325	64.228	-0.053	0.053
-407.311	-125.832	0.216	-0.032
-406.296	41.900	0.272	0.245
-405.282	-118.400	0.269	0.048
-404.267	-200.000	-0.005	0.044
-403.252	-13.703	0.268	-0.172
-402.238	-60.315	0.228	0.097
-401.223	-200.000	0.005	-0.120
-400.209	120.693	-0.105	0.130
-399.194	466.049	-0.055	-0.123
-398.179	-18.228	0.247	-0.154
-397.165	-109.912	-0.079	0.017
-396.150	49.379	0.161	-0.151
-395.136	-200.000	-0.038	0.349
-394.121	800.000	0.129	0.459
-393.106	-200.000	-0.088	-0.398
-392.092	-118.408	0.226	0.040
-391.077	103.651	-0.133	-0.155
-390.063	-59.986	-0.268	-0.114
-389.048	-74.768	0.283	0.101
-388.033	-106.478	-0.132	-0.029
-387.019	-200.000	-0.016	-0.130
-386.004	-200.000	0.019	0.281
-384.990	-40.184	-0.011	0.006
-383.975	-32.516	-0.142	-0.079
-382.960	255.674	-0.170	0.289
-381.946	122.264	-0.117	0.146
-380.931	153.908	-0.156	-0.213
-379.917	-200.000	-0.004	-0.101
-378.902	70.468	0.241	-0.247
-377.888	136.067	-0.107	-0.138
-376.873	190.178	0.255	0.381
-375.858	110.715	0.255	0.304
-374.844	559.961	-0.253	0.606
-373.829	97.984	-0.220	-0.251
-372.815	800.000	-0.096	-0.401
-371.800	800.000	0.079	-0.254
-370.785	-200.000	-0.022	-0.213
-369.771	-200.000	0.015	-0.244
-368.756	62.065	0.086	-0.085
-367.742	19.116	-0.120	-0.096
-366.727	-200.000	-0.037	-0.210
-365.712	-70.881	0.435	0.163
-364.698	53.471	-0.177	0.169
-363.683	-66.316	-0.085	-0.034
-362.669	66.464	0.156	-0.158
-361.654	-200.000	0.554	0.002
-360.639	208.708	0.039	-0.060
-359.625	800.000	0.015	-0.057
-358.610	-200.000	-0.009	-0.124
-357.596	-200.000	-0.017	0.132
-356.581	-159.285	-0.313	0.017
-355.566	793.966	0.152	-0.414
-354.552	-81.612	0.165	0.054
-353.537	29.382	-0.099	-0.084
-352.523	-160.800	0.335	0.018
-351.508	11.893	0.110	-0.084
-350.493	-70.430	0.194	-0.073
-349.479	97.404	-0.209	-0.238
-348.464	86.238	0.173	-0.189
-347.450	-200.000	0.040	0.184
-346.435	17.721	-0.246	-0.194
-345.420	-200.000	-0.001	0.015
-344.406	800.000	-0.070	-0.275
-343.391	-100.393	0.147	0.036
-342.377	-67.051	0.244	0.095
-341.362	-164.222	-0.333	0.015
-340.348	180.811	-0.098	0.142
-339.333	-132.124	-0.375	-0.048
-338.318	-200.000	0.029	0.259
-337.304	-118.332	0.236	0.042
-336.289	800.000	0.074	0.210
-335.275	-200.000	0.005	-0.232
-334.260	104.403	0.128	-0.149
-333.245	-127.768	-0.138	0.020
-332.231	29.010	-0.225	0.189
-331.216	-186.260	0.254	0.004
-330.202	30.702	0.242	0.205
-329.187	122.844	0.160	0.198
-328.172	-83.363	0.248	0.079
-327.158	-200.000	0.015	0.309
-326.143	-71.635	-0.277	-0.102
-325.129	-200.000	-0.020	0.261
-324.114	49.498	0.235	0.219
-323.099	-8.156	0.155	0.103
-322.085	223.574	-0.029	0.047
-321.070	654.176	0.025	-0.064
-320.056	-123.658	-0.050	-0.008
-319.041	-200.000	-0.071	0.392
-318.026	-143.326	0.113	0.011
-317.012	25.187	-0.224	-0.184
-315.997	86.292	0.171	0.186
-314.983	45.618	-0.036	0.033
-313.968	-102.399	0.206	0.049
-312.953	140.005	-0.283	-0.369
-311.939	-200.000	0.009	0.090
-310.924	117.167	-0.190	0.232
-309.910	-200.000	0.021	0.160
-308.895	-200.000	0.001	-0.120
-307.880	-173.576	0.177	0.005
-306.866	800.000	-0.031	0.093
-305.851	546.708	0.015	0.035
-304.837	800.000	-0.113	0.366
-303.822	427.825	-0.093	0.198
-302.807	-81.409	0.139	0.045
-301.793	112.892	0.134	0.160
-300.778	367.685	0.088	0.175
-299.764	-53.053	-0.108	-0.049
-298.749	-200.000	-0.073	0.330
-297.735	800.000	-0.010	-0.034
-296.720	527.242	-0.074	-0.173
-295.705	-132.637	0.241	-0.031
-294.691	-56.571	-0.041	-0.018
-293.676	800.000	-0.027	-0.104
-292.662	-200.000	-0.013	-0.227
-291.647	-200.000	-0.040	0.188
-290.632	268.677	0.166	-0.289
-289.618	-168.722	0.081	0.003
-288.603	83.649	0.246	-0.265
-287.589	-29.676	0.282	0.159
-286.574	-200.000	-0.002	0.065
-285.559	242.452	-0.104	0.172
-284.545	249.672	0.169	0.283
-283.530	176.631	0.165	0.237
-282.516	-177.144	0.369	-0.009
-281.501	303.775	-0.086	-0.157
-280.486	97.247	0.314	0.357
-279.472	182.464	0.063	-0.092
-278.457	554.311	-0.057	0.137
-277.443	37.963	-0.206	0.181
-276.428	399.806	0.117	-0.243
-275.413	-42.688	-0.136	-0.068
-274.399	-92.038	-0.244	0.068
-273.384	-141.916	0.185	0.018
-272.370	270.375	-0.028	0.049
-271.355	-114.569	-0.413	0.078
-270.340	355.617	-0.192	0.378
-269.326	696.203	-0.071	-0.185
-268.311	-74.134	-0.138	-0.049
-267.297	-200.000	-0.028	-0.308
-266.282	159.614	-0.157	-0.216
-265.267	-200.000	0.014	-0.334
-264.253	-11.657	0.273	0.177
-263.238	28.783	0.138	0.116
-262.224	336.093	0.089	0.171
-261.209	33.745	-0.151	-0.130
-260.195	-49.901	-0.236	-0.111
-259.180	18.910	-0.065	0.051
-258.165	163.565	-0.149	0.207
-257.151	-57.630	0.319	0.138
-256.136	-154.905	0.181	0.012
-255.122	114.718	-0.305	-0.368
-254.107	-53.407	-0.142	0.064
-253.092	-117.742	0.113	-0.020
-252.078	800.000	0.018	0.064
-251.063	85.832	0.122	0.132
-250.049	442.710	-0.044	-0.095
-249.034	800.000	-0.116	0.342
-248.019	-131.362	-0.044	-0.006
-247.005	84.649	0.179	-0.193
-245.990	113.488	0.140	-0.168
-244.976	-16.274	-0.364	-0.228
-243.961	100.249	0.047	0.054
-242.946	-63.360	-0.068	0.028
-241.932	-73.935	-0.423	-0.152
-240.917	43.871	-0.170	-0.154
-239.903	-200.000	-0.023	0.143
-238.888	800.000	0.048	0.138
-237.873	800.000	0.049	-0.201
-236.859	74.454	-0.248	-0.257
-235.844	155.103	-0.318	-0.432
-234.830	800.000	0.030	0.120
-233.815	-145.939	-0.163	-0.014
-232.800	195.695	-0.068	0.102
-231.786	800.000	0.074	0.284
-230.771	287.080	-0.168	0.300
-229.757	289.352	0.082	-0.147
-228.742	-200.000	0.006	0.073
-227.727	131.793	-0.253	-0.322
-226.713	119.201	-0.133	0.162
-225.698	-34.925	-0.388	0.209
-224.684	288.436	0.184	0.329
-223.669	800.000	-0.067	0.251
-222.655	-174.340	-0.398	0.011
-221.640	-200.000	-0.003	0.089
-220.625	133.222	0.112	-0.142
-219.611	494.815	-0.025	0.057
-218.596	8.302	-0.286	-0.212
-217.582	-100.353	0.473	0.116
-216.567	265.455	-0.087	-0.150
-215.552	-86.251	0.180	0.055
-214.538	-200.000	-0.010	0.072
-213.523	-168.984	0.488	-0.018
-212.509	800.000	0.037	0.131
-211.494	-129.450	0.142	-0.019
-210.479	553.870	0.084	-0.200
-209.465	-34.447	-0.138	-0.074
-208.450	800.000	-0.070	0.251
-207.436	297.867	0.144	0.261
-206.421	800.000	0.092	0.254
-205.406	-136.977	-0.127	0.014
-204.392	-200.000	0.018	-0.163
-203.377	-200.000	0.013	-0.178
-202.363	-75.048	-0.132	0.046
-201.348	115.861	0.142	-0.171
-200.333	800.000	0.045	0.128
-199.319	-131.246	-0.272	0.036
-198.304	-8.628	0.291	-0.192
-197.290	-143.267	0.106	0.010
-196.275	-87.757	-0.394	-0.117
-195.260	800.000	-0.087	0.347
-194.246	41.370	-0.107	0.095
-193.231	-200.000	0.055	-0.286
-192.217	800.000	0.021	0.088
-191.202	139.458	0.066	0.085
-190.187	-14.471	-0.146	-0.093
-189.173	-159.863	-0.105	-0.006
-188.158	293.732	-0.189	-0.340
-187.144	-200.000	0.032	-0.255
-186.129	-200.000	-0.078	0.423
-185.114	458.209	-0.158	-0.347
-184.100	800.000	0.016	0.062
-183.085	-200.000	-0.023	0.183
-182.071	800.000	-0.058	-0.219
-181.056	-143.743	0.338	0.032
-180.042	50.032	-0.084	0.078
-179.027	642.062	-0.046	0.115
-178.012	495.205	0.141	-0.319
-176.998	800.000	-0.017	-0.066
-175.983	800.000	-0.061	0.190
-174.969	112.587	0.117	0.140
-173.954	-200.000	0.026	0.144
-172.939	6.112	0.272	0.198
-171.925	6.960	0.112	-0.082
-170.910	-120.367	-0.043	-0.007
-169.896	-200.000	-0.050	0.436
-168.881	-200.000	0.008	-0.155
-167.866	800.000	-0.065	0.236
-166.852	145.255	0.203	0.268
-165.837	77.769	0.163	-0.171
-164.823	198.592	0.063	0.095
-163.808	84.912	0.272	-0.294
-162.793	-200.000	-0.038	-0.166
-161.779	-10.780	0.120	-0.078
-160.764	-43.116	-0.233	-0.116
-159.750	798.464	0.026	-0.069
-158.735	243.397	-0.022	0.037
-157.720	-140.310	-0.391	-0.040
-156.706	-104.058	-0.187	-0.043
-155.691	12.829	-0.189	0.144
-154.677	-26.579	-0.163	0.094
-153.662	161.454	0.016	0.022
-152.647	109.493	-0.147	-0.173
-151.633	800.000	0.072	-0.263
-150.618	-106.340	-0.092	-0.020
-149.604	-200.000	0.040	-0.183
-148.589	143.941	0.044	0.058
-147.574	184.467	-0.131	-0.191
-146.560	-135.933	-0.305	0.035
-145.545	-200.000	0.057	0.259
-144.531	102.489	0.278	-0.320
-143.516	-10.622	0.110	0.071
-142.502	430.337	0.077	-0.165
-141.487	540.862	0.076	0.178
-140.472	35.732	-0.069	-0.060
-139.458	800.000	0.072	-0.276
-138.443	109.758	-0.292	-0.344
-137.429	800.000	-0.072	0.253
-136.414	210.605	0.214	0.331
-135.399	-200.000	-0.050	0.233
-134.385	35.331	-0.267	0.230
-133.370	61.134	-0.238	0.233
-132.356	-143.111	-0.244	-0.023
-131.341	-135.796	-0.223	0.026
-130.326	-116.555	0.310	-0.056
-129.312	-122.202	0.093	-0.015
-128.297	-95.069	0.251	0.067
-127.283	694.919	-0.107	0.276
-126.268	-146.777	0.196	-0.017
-125.253	-109.793	0.081	0.017
-124.239	-45.571	-0.461	0.225
-123.224	-200.000	0.041	-0.478
-122.210	284.795	0.060	0.106
-121.195	-200.000	0.022	0.244
-120.180	9.944	-0.134	0.100
-119.166	800.000	-0.102	0.387
-118.151	-125.567	-0.277	-0.041
-117.137	-44.391	-0.236	0.116
-116.122	-200.000	-0.019	0.248
-115.107	64.165	0.213	0.211
-114.093	-59.964	-0.036	0.015
-113.078	-122.582	-0.180	0.029
-112.064	-86.624	-0.106	-0.032
-111.049	-71.673	0.238	-0.087
-110.034	-77.308	-0.291	-0.099
-109.020	-122.139	-0.298	-0.048
-108.005	800.000	-0.062	0.249
-106.991	-63.662	0.201	0.081
-105.976	-114.076	0.103	0.020
-104.962	54.462	0.111	0.105
-103.947	341.841	-0.046	-0.088
-102.932	-200.000	-0.005	-0.245
-101.918	-105.493	0.256	0.057
-100.903	-67.763	0.110	0.042
-99.889	-85.009	0.138	-0.043
-98.874	-103.822	-0.146	0.034
-97.859	111.616	0.168	-0.199
-96.845	-200.000	-0.033	-0.187
-95.830	-200.000	-0.032	0.344
-94.816	-15.258	0.205	0.128
-93.801	-200.000	-0.045	-0.236
-92.786	509.758	0.128	0.293
-91.772	800.000	-0.177	0.546
-90.757	800.000	-0.106	-0.344
-89.743	159.711	0.025	-0.034
-88.728	276.707	0.125	-0.218
-87.713	-117.411	-0.320	0.057
-86.699	153.996	-0.122	-0.165
-85.684	-46.022	0.214	-0.104
-84.670	30.998	0.084	-0.071
-83.655	265.916	-0.177	-0.303
-82.640	6.634	0.181	0.132
-81.626	-200.000	-0.005	-0.140
-80.611	142.445	-0.058	-0.076
-79.597	300.293	-0.074	0.134
-78.582	174.446	-0.156	0.222
-77.567	-83.197	0.315	-0.099
-76.553	-200.000	0.039	0.290
-75.538	-123.857	-0.216	0.033
-74.524	92.597	0.269	0.298
-73.509	-200.000	-0.008	-0.204
-72.494	454.377	0.083	0.179
-71.480	-103.514	0.466	-0.108
-70.465	360.824	-0.144	-0.284
-69.451	-200.000	-0.020	0.117
-68.436	13.709	0.242	-0.184
-67.422	-134.101	-0.070	-0.009
-66.407	138.423	0.070	-0.090
-65.392	-37.690	-0.201	-0.105
-64.378	-19.798	-0.373	0.226
-63.363	800.000	0.047	-0.168
-62.349	800.000	-0.120	0.448
-61.334	121.232	-0.952	-1.162
-60.319	-58.792	0.492	0.209
-59.305	762.514	-0.447	-1.189
-58.290	174.798	0.703	0.998
-57.276	427.961	0.680	1.439
-56.261	-200.000	105.964	615.394
-55.246	505.696	1510.564	3431.011
-54.232	174.696	2711.760	3846.020
-53.217	104.517	2300.679	2655.710
-52.203	38.628	1904.849	1665.619
-51.188	32.673	1690.811	1433.288
-50.173	29.916	1647.978	1376.455
-49.159	49.157	1701.993	1567.480
-48.144	49.396	1716.734	1582.802
-47.130	32.168	1674.188	1415.172
-46.115	29.556	1659.258	1382.962
-45.100	29.362	1654.564	1377.545
-44.086	29.343	1651.864	1375.103
-43.071	29.199	1649.432	1371.950
-42.057	29.256	1647.294	1370.543
-41.042	29.367	1645.155	1369.531
-40.027	29.338	1643.018	1367.483
-39.013	29.327	1641.104	1365.753
-37.998	29.244	1639.748	1363.956
-36.984	29.254	1638.515	1362.955
-35.969	29.385	1637.054	1362.651
-34.954	29.494	1635.020	1361.708
-33.940	29.483	1633.023	1359.914
-32.925	29.394	1631.747	1358.138
-31.911	29.441	1630.040	1357.009
-30.896	29.399	1627.781	1354.769
-29.881	29.414	1626.383	1353.662
-28.867	29.346	1624.973	1351.935
-27.852	29.411	1623.436	1351.077
-26.838	29.458	1622.022	1350.191
-25.823	29.474	1620.566	1349.045
-24.809	29.387	1619.811	1347.727
-23.794	29.392	1618.255	1346.417
-22.779	29.438	1616.850	1345.523
-21.765	29.367	1615.426	1343.770
-20.750	29.361	1613.565	1342.125
-19.736	29.406	1612.299	1341.346
-18.721	29.545	1610.625	1340.912
-17.706	29.380	1609.391	1338.630
-16.692	29.455	1607.913	1337.896
-15.677	29.497	1606.056	1336.602
-14.663	29.564	1604.806	1335.991
-13.648	29.509	1603.705	1334.620
-12.633	29.459	1601.932	1332.734
-11.619	29.405	1600.431	1331.043
-10.604	29.437	1598.366	1329.501
-9.590	29.512	1597.574	1329.332
-8.575	29.535	1596.014	1328.142
-7.560	29.471	1595.765	1327.427
-6.546	29.454	1594.661	1326.334
-5.531	29.484	1593.158	1325.247
-4.517	29.477	1592.079	1324.247
-3.502	29.573	1590.838	1323.847
-2.487	29.515	1589.319	1322.119
-1.473	29.136	1578.050	1309.998
-0.458	26.514	1558.462	1275.233
0.556	20.600	1560.403	1244.773
1.571	18.521	1584.393	1248.673
2.586	18.274	1598.756	1258.062
3.600	16.612	1545.553	1204.270
4.615	8.794	1436.189	1067.065
5.629	1.292	1371.976	971.386
6.644	-0.153	1364.102	956.531
7.659	-0.203	1362.485	954.990
8.673	-0.227	1361.675	954.186
9.688	-0.416	1360.280	951.926
10.702	-0.457	1356.540	948.965
11.717	3.122	1363.939	976.814
12.731	12.431	1382.045	1049.370
13.746	19.757	1394.123	1105.462
14.761	21.947	1396.116	1120.942
15.775	22.166	1396.423	1122.489
16.790	22.185	1396.237	1122.362
17.804	22.325	1395.343	1122.440
18.819	22.502	1395.439	1123.548
19.834	22.612	1394.140	1123.105
20.848	22.624	1393.669	1122.701
21.863	22.616	1392.976	1121.988
22.877	22.593	1392.185	1121.108
23.892	22.690	1390.749	1120.467
24.907	22.561	1390.584	1119.418
25.921	22.593	1389.880	1118.954
26.936	22.594	1388.331	1117.613
27.950	22.616	1386.749	1116.384
28.965	22.632	1386.320	1116.037
29.980	22.577	1385.035	1114.558
30.994	22.604	1384.081	1113.865
32.009	22.777	1382.191	1113.337
33.023	22.581	1382.082	1111.912
34.038	22.546	1380.883	1110.626
35.053	22.628	1379.737	1110.126
36.067	22.591	1378.490	1108.789
37.082	22.514	1377.978	1107.797
38.096	22.572	1377.041	1107.309
39.111	22.601	1376.332	1106.824
40.126	22.554	1375.760	1105.969
41.140	22.618	1375.077	1105.726
42.155	22.555	1374.596	1104.847
43.169	22.622	1374.679	1105.232
44.184	22.584	1374.157	1104.479
45.199	22.576	1374.074	1104.266
46.213	22.617	1373.347	1103.838
47.228	22.617	1372.355	1102.945
48.242	22.606	1370.781	1101.512
49.257	22.577	1369.915	1100.540
50.271	22.582	1368.235	1099.121
51.286	22.573	1367.475	1098.360
52.301	22.548	1365.923	1096.861
53.315	22.602	1364.817	1096.209
54.330	22.606	1363.939	1095.433
55.344	22.600	1362.799	1094.381
56.359	22.543	1362.003	1093.294
57.374	22.544	1361.458	1092.763
58.388	22.612	1360.307	1092.168
59.403	22.613	1360.055	1091.874
60.417	22.642	1359.077	1091.170
61.432	22.521	1358.910	1090.188
62.447	22.508	1358.170	1089.423
63.461	22.661	1356.906	1089.253
64.476	22.728	1355.609	1088.529
65.490	22.596	1354.608	1086.818
66.505	22.770	1352.763	1086.311
67.520	22.603	1351.821	1084.435
68.534	22.654	1350.826	1083.854
69.549	22.622	1349.738	1082.684
70.563	22.667	1348.969	1082.251
71.578	22.679	1348.392	1081.765
72.593	22.647	1347.090	1080.428
73.607	22.684	1346.365	1079.979
74.622	22.603	1346.270	1079.311
75.636	22.716	1344.835	1078.758
76.651	22.669	1344.576	1078.168
77.666	22.651	1343.693	1077.254
78.680	22.652	1343.441	1076.957
79.695	22.629	1342.425	1075.912
80.709	22.648	1341.435	1075.139
81.724	22.695	1340.342	1074.452
82.739	22.630	1339.726	1073.465
83.753	22.677	1338.797	1072.914
84.768	22.687	1337.617	1071.938
85.782	22.673	1336.268	1070.676
86.797	22.775	1335.303	1070.423
87.812	22.663	1334.231	1068.794
88.826	22.660	1333.501	1068.096
89.841	22.703	1331.880	1066.962
90.855	22.616	1331.769	1066.250
91.870	22.632	1330.494	1065.236
92.884	22.629	1330.044	1064.761
93.899	22.713	1329.281	1064.561
94.914	22.628	1328.358	1063.219
95.928	22.739	1327.458	1063.068
96.943	22.709	1326.969	1062.405
97.957	22.723	1326.069	1061.673
98.972	22.727	1325.145	1060.866
99.987	22.676	1324.534	1059.978
101.001	22.682	1322.969	1058.662
102.016	22.727	1322.401	1058.387
103.030	22.697	1321.141	1057.106
104.045	22.682	1320.212	1056.181
105.060	22.704	1319.565	1055.700
106.074	22.705	1318.674	1054.902
107.089	22.726	1317.517	1054.003
108.103	22.798	1316.377	1053.429
109.118	22.725	1315.732	1052.385
110.133	22.793	1314.121	1051.407
111.147	22.886	1312.884	1050.880
112.162	22.784	1312.673	1050.013
113.176	22.862	1310.810	1048.890
114.191	22.717	1310.613	1047.779
115.206	22.880	1308.796	1047.203
116.220	22.733	1308.231	1045.787
117.235	22.769	1307.044	1044.954
118.249	22.707	1306.135	1043.768
119.264	22.656	1305.678	1043.009
120.279	22.831	1304.506	1043.015
121.293	22.830	1303.786	1042.343
122.308	22.731	1303.093	1041.112
123.322	22.826	1302.034	1040.734
124.337	22.832	1300.841	1039.723
125.352	22.824	1300.167	1039.044
126.366	22.991	1298.814	1038.852
127.381	22.971	1297.815	1037.846
128.395	22.792	1297.921	1036.790
129.410	22.912	1296.508	1036.271
130.424	22.824	1295.681	1035.005
131.439	22.876	1295.113	1034.763
132.454	22.830	1294.088	1033.582
133.468	22.683	1293.609	1032.245
134.483	22.748	1292.801	1031.892
135.497	22.826	1291.997	1031.612
136.512	22.777	1291.067	1030.495
137.527	22.870	1289.509	1029.704
138.541	22.910	1288.264	1028.848
139.556	22.811	1287.161	1027.304
140.570	22.893	1286.067	1026.816
141.585	22.875	1285.201	1025.929
142.600	22.764	1284.256	1024.439
143.614	22.893	1283.120	1024.188
144.629	22.784	1282.323	1022.830
145.643	22.728	1281.351	1021.643
146.658	22.761	1280.042	1020.700
147.673	22.845	1278.570	1019.916
148.687	22.707	1278.321	1018.833
149.702	22.737	1276.845	1017.738
150.716	22.707	1275.935	1016.755
151.731	22.851	1274.615	1016.437
152.746	22.829	1273.966	1015.703
153.760	22.922	1272.830	1015.241
154.775	22.917	1271.664	1014.196
155.789	22.837	1271.007	1013.121
156.804	22.778	1270.357	1012.179
157.819	22.784	1269.371	1011.336
158.833	22.894	1268.857	1011.469
159.848	22.928	1267.887	1010.800
160.862	22.928	1266.988	1009.993
161.877	22.934	1266.052	1009.189
162.892	22.859	1265.078	1007.898
163.906	22.917	1264.635	1007.784
164.921	22.984	1263.858	1007.458
165.935	22.897	1262.932	1006.138
166.950	23.026	1262.350	1006.320
167.964	22.984	1262.030	1005.736
168.979	22.942	1261.403	1004.910
169.994	23.024	1260.672	1004.704
171.008	23.040	1260.154	1004.289
172.023	23.011	1259.403	1003.440
173.037	22.993	1258.757	1002.737
174.052	23.091	1257.684	1002.345
175.067	23.015	1257.179	1001.425
176.081	22.948	1256.455	1000.380
177.096	22.904	1255.597	999.361
178.110	22.883	1254.730	998.459
179.125	22.986	1253.837	998.247
180.140	23.105	1252.192	997.516
181.154	22.964	1251.473	996.061
182.169	22.892	1250.601	994.875
183.183	23.014	1249.465	994.569
184.198	22.940	1248.631	993.403
185.213	22.956	1247.706	992.670
186.227	22.936	1247.135	992.013
187.242	22.987	1246.008	991.315
188.256	23.110	1244.798	990.956
189.271	23.016	1244.292	989.938
190.286	23.087	1243.394	989.529
191.300	23.082	1242.741	988.900
192.315	23.053	1242.743	988.647
193.329	23.124	1241.871	988.262
194.344	23.015	1241.911	987.599
195.359	22.969	1241.504	986.930
196.373	23.156	1240.251	986.889
197.388	23.027	1240.099	985.964
198.402	22.931	1239.540	984.897
199.417	22.995	1239.295	984.972
200.432	23.122	1238.414	984.889
201.446	23.014	1238.261	984.084
202.461	23.096	1237.080	983.513
203.475	23.143	1236.098	982.903
204.490	23.062	1235.286	981.724
205.504	23.132	1234.437	981.347
206.519	23.109	1233.600	980.469
207.534	23.183	1232.322	979.774
208.548	23.156	1231.434	978.835
209.563	23.095	1230.623	977.765
210.577	23.038	1229.936	976.822
211.592	23.173	1229.068	976.786
212.607	23.243	1228.071	976.295
213.621	23.278	1227.596	976.023
214.636	23.287	1226.442	975.069
215.650	23.229	1226.230	974.497
216.665	23.185	1224.910	973.119
217.680	23.097	1224.489	972.216
218.694	23.218	1223.548	972.045
219.709	23.174	1222.859	971.169
220.723	23.261	1221.837	970.752
221.738	23.137	1221.856	970.002
222.753	23.052	1220.855	968.651
223.767	23.170	1219.864	968.429
224.782	23.195	1219.975	968.568
225.796	23.314	1218.748	968.159
226.811	23.402	1218.244	968.153
227.826	23.243	1217.944	966.960
228.840	23.230	1217.292	966.286
229.855	23.209	1216.724	965.634
230.869	23.288	1216.012	965.413
231.884	23.206	1215.358	964.362
232.899	23.376	1214.193	964.282
233.913	23.258	1214.040	963.428
234.928	23.507	1212.941	963.824
235.942	23.388	1212.418	962.680
236.957	23.443	1211.672	962.299
237.972	23.358	1211.058	961.266
238.986	23.308	1210.600	960.548
240.001	23.391	1210.165	960.568
241.015	23.471	1209.216	960.163
242.030	23.373	1208.564	959.028
243.045	23.506	1207.874	959.116
244.059	23.285	1207.352	957.423
245.074	23.528	1206.324	957.835
246.088	23.443	1205.422	956.574
247.103	23.393	1204.478	955.470
248.117	23.496	1203.682	955.309
249.132	23.466	1202.962	954.489
250.147	23.441	1202.553	953.950
251.161	23.574	1201.592	953.819
252.176	23.526	1200.765	952.819
253.190	23.583	1200.280	952.653
254.205	23.477	1200.185	951.925
255.220	23.457	1199.251	950.992
256.234	23.530	1198.903	951.023
257.249	23.585	1197.737	950.311
258.263	23.636	1197.207	950.080
259.278	23.581	1196.718	949.313
260.293	23.611	1195.970	948.795
261.307	23.559	1195.466	948.032
262.322	23.634	1194.925	947.922
263.336	23.474	1195.008	947.050
264.351	23.560	1194.134	946.733
265.366	23.548	1193.555	946.127
266.380	23.565	1192.312	945.147
267.395	23.628	1191.562	944.802
268.409	23.449	1191.674	943.855
269.424	23.629	1190.725	943.980
270.439	23.567	1190.310	943.234
271.453	23.588	1189.604	942.705
272.468	23.450	1189.013	941.422
273.482	23.580	1187.791	941.058
274.497	23.639	1187.481	941.043
275.512	23.606	1187.307	940.646
276.526	23.612	1186.375	939.856
277.541	23.625	1185.580	939.209
278.555	23.690	1184.940	938.966
279.570	23.740	1184.067	938.457
280.585	23.695	1183.642	937.797
281.599	23.609	1182.890	936.665
282.614	23.686	1181.744	936.081
283.628	23.863	1180.675	936.082
284.643	23.733	1179.972	934.761
285.657	23.795	1179.044	934.268
286.672	23.720	1177.804	932.810
287.687	23.793	1177.736	933.055
288.701	23.738	1177.054	932.141
289.716	23.767	1176.379	931.681
290.730	23.779	1175.815	931.215
291.745	23.796	1175.075	930.635
292.760	23.868	1174.536	930.502
293.774	23.807	1173.836	929.545
294.789	23.955	1173.046	929.610
295.803	23.869	1172.821	928.901
296.818	23.915	1171.846	928.283
297.833	23.864	1171.481	927.649
298.847	23.883	1170.927	927.228
299.862	23.920	1169.909	926.529
300.876	23.956	1169.187	926.064
301.891	23.980	1168.777	925.783
302.906	23.978	1168.054	925.119
303.920	23.990	1167.765	924.868
304.935	23.997	1166.879	924.120
305.949	23.927	1166.241	923.171
306.964	23.880	1165.683	922.402
307.979	24.080	1164.287	922.257
308.993	24.092	1164.175	922.146
310.008	23.961	1163.482	920.837
311.022	23.994	1162.654	920.273
312.037	23.972	1161.912	919.489
313.052	23.931	1161.349	918.749
314.066	23.930	1160.600	918.073
315.081	24.029	1159.651	917.749
316.095	23.982	1159.086	916.979
317.110	24.052	1158.339	916.667
318.125	24.077	1157.392	915.966
319.139	24.129	1157.325	916.101
320.154	24.135	1156.371	915.293
321.168	24.108	1155.928	914.722
322.183	24.049	1155.270	913.821
323.197	23.994	1154.989	913.236
324.212	24.050	1154.180	912.801
325.227	24.098	1153.589	912.500
326.241	24.191	1152.951	912.388
327.256	24.095	1152.263	911.274
328.270	24.110	1151.691	910.817
329.285	24.151	1150.774	910.219
330.300	24.176	1149.673	909.396
331.314	24.241	1148.770	908.935
332.329	24.103	1148.291	907.769
333.343	24.161	1147.695	907.513
334.358	24.358	1146.518	907.504
335.373	24.304	1146.163	906.871
336.387	24.255	1145.440	905.969
337.402	24.335	1144.468	905.526
338.416	24.320	1144.023	905.020
339.431	24.300	1143.355	904.306
340.446	24.298	1143.132	904.043
341.460	24.320	1142.436	903.520
342.475	24.358	1141.371	902.791
343.489	24.362	1140.270	901.861
344.504	24.412	1139.454	901.389
345.519	24.417	1138.597	900.659
346.533	24.456	1137.805	900.148
347.548	24.454	1137.401	899.738
348.562	24.471	1136.295	898.871
349.577	24.338	1136.034	897.915
350.592	24.360	1135.077	897.187
351.606	24.312	1134.366	896.304
352.621	24.372	1134.167	896.371
353.635	24.418	1133.197	895.757
354.650	24.435	1132.733	895.397
355.665	24.494	1131.740	894.829
356.679	24.527	1131.489	894.712
357.694	24.446	1130.904	893.768
358.708	24.543	1129.850	893.339
359.723	24.564	1129.435	893.036
360.738	24.477	1128.664	891.912
361.752	24.399	1128.702	891.477
362.767	24.536	1127.995	891.521
363.781	24.603	1126.940	890.942
364.796	24.629	1126.679	890.789
365.810	24.686	1125.654	890.182
366.825	24.527	1125.364	889.083
367.840	24.666	1124.777	889.233
368.854	24.644	1123.933	888.376
369.869	24.645	1123.437	887.912
370.883	24.708	1122.762	887.610
371.898	24.726	1122.001	887.020
372.913	24.703	1121.727	886.611
373.927	24.615	1121.246	885.715
374.942	24.670	1120.560	885.370
375.956	24.533	1120.516	884.576
376.971	24.659	1119.676	884.462
377.986	24.613	1119.089	883.690
379.000	24.869	1118.115	884.107
380.015	24.797	1117.876	883.483
381.029	24.857	1116.993	883.006
382.044	24.835	1116.399	882.347
383.059	24.909	1115.393	881.839
384.073	24.828	1114.696	880.813
385.088	24.865	1114.323	880.621
386.102	24.960	1113.213	880.133
387.117	24.910	1112.277	879.070
388.132	24.831	1111.560	878.040
389.146	24.947	1110.594	877.768
390.161	24.894	1110.320	877.214
391.175	24.796	1110.181	876.546
392.190	24.948	1109.245	876.470
393.205	24.947	1108.454	875.763
394.219	24.963	1107.769	875.225
395.234	24.855	1107.055	874.054
396.248	24.971	1105.923	873.649
397.263	24.937	1105.428	873.017
398.278	25.002	1104.698	872.679
399.292	25.128	1104.157	872.785
400.307	25.081	1103.246	871.761
401.321	25.013	1102.800	871.003
402.336	24.991	1102.186	870.331
403.350	24.988	1101.456	869.663
404.365	24.946	1101.139	869.133
405.380	25.104	1099.954	868.884
406.394	25.185	1099.237	868.634
407.409	25.116	1098.734	867.828
408.423	25.105	1097.994	867.115
409.438	25.138	1097.015	866.425
410.453	25.100	1096.854	866.034
411.467	25.328	1095.543	866.021
412.482	25.095	1095.355	864.677
413.496	25.183	1094.282	864.174
414.511	25.184	1094.038	863.910
415.526	25.206	1093.643	863.626
416.540	25.232	1092.855	863.055
417.555	25.193	1092.679	862.653
418.569	25.196	1092.291	862.282
419.584	25.306	1091.430	862.058
420.599	25.403	1091.224	862.280
421.613	148.176	1403.245	1799.574
422.628	137.121	1448.681	1799.653
