DTS Sentinel unit serial number:	SN413079Multiplexer serial number:	ORYXHardware model number:	OX4-SRSoftware version number:	ORYX F/W v4.00 Oryx Data Collector v3.7.2.0data status	okinstallation	princeton_trtdifferential loss correction	single-endedforward channel	channel 2reverse channel	N/Adate	2019/09/17time	07:27:34forward acquisition time	60.00reverse acquisition time	0.00gamma	496.2192k internal	0.2335k external	0.2335temperature offset calibration	0.9978default loss term (dB/km)	0.3790temperature slope calibration	1.0000multiplexer offset coefficient	1.0000multiplexer slope coefficient	1.0000fibre end	0.00T internal ref (°C)	27.19T ext. ref 1 (°C)	0.12T ext. ref 2 (°C)	21.61length (m)	temperature (°C)	Stokes	anti-Stokes-747.200	76.663	0.051	-0.054
-746.185	52.922	0.238	0.229
-745.171	455.717	-0.015	0.033
-744.156	-25.202	0.271	-0.161
-743.142	-134.716	0.271	0.033
-742.127	111.302	-0.229	0.277
-741.112	13.127	-0.227	0.176
-740.098	347.563	-0.064	0.128
-739.083	-93.569	0.278	-0.077
-738.069	547.850	-0.087	0.210
-737.054	-177.719	0.296	-0.007
-736.039	146.796	-0.259	-0.350
-735.025	-200.000	0.044	-0.221
-734.010	-200.000	-0.017	0.182
-732.996	-85.850	0.234	0.073
-731.981	114.832	-0.245	-0.300
-730.966	-64.087	0.248	0.102
-729.952	89.600	-0.140	0.157
-728.937	-128.317	-0.277	-0.040
-727.923	-115.489	-0.125	-0.024
-726.908	87.727	-0.370	0.411
-725.894	800.000	-0.086	-0.315
-724.879	61.395	-0.142	0.142
-723.864	800.000	0.036	0.124
-722.850	363.841	0.054	-0.109
-721.835	-51.472	-0.226	-0.106
-720.821	-110.541	-0.389	-0.081
-719.806	-200.000	0.056	-0.367
-718.791	54.278	0.289	-0.279
-717.777	-122.846	-0.089	0.014
-716.762	596.816	0.160	-0.397
-715.748	-200.000	0.005	-0.257
-714.733	-27.414	0.312	-0.182
-713.718	153.015	-0.125	0.171
-712.704	-112.033	0.153	0.031
-711.689	-93.117	0.190	-0.053
-710.675	38.962	-0.076	0.068
-709.660	63.354	-0.085	0.086
-708.645	379.404	0.098	-0.202
-707.631	-125.838	-0.257	-0.039
-706.616	-42.968	-0.120	0.061
-705.602	38.835	0.065	-0.058
-704.587	-71.187	0.183	0.069
-703.572	-40.981	-0.134	-0.070
-702.558	93.615	0.142	0.162
-701.543	800.000	0.084	0.302
-700.529	-200.000	-0.045	-0.273
-699.514	-164.869	0.204	-0.009
-698.499	800.000	0.101	0.380
-697.485	-152.363	-0.377	-0.027
-696.470	760.479	0.062	0.169
-695.456	-94.390	0.161	0.044
-694.441	-21.791	-0.246	-0.150
-693.426	-36.625	0.084	0.045
-692.412	-111.689	-0.358	-0.073
-691.397	-200.000	0.067	-0.303
-690.383	109.976	-0.154	-0.185
-689.368	-70.557	-0.103	-0.039
-688.354	33.517	0.078	-0.068
-687.339	364.501	0.022	0.045
-686.324	0.621	0.067	0.048
-685.310	41.777	-0.053	0.048
-684.295	416.073	-0.042	-0.089
-683.281	585.868	-0.096	-0.236
-682.266	-106.578	-0.230	-0.051
-681.251	-59.021	-0.150	-0.065
-680.237	-200.000	0.040	-0.194
-679.222	65.969	-0.187	-0.190
-678.208	262.168	0.079	0.137
-677.193	219.814	0.130	0.209
-676.178	-145.938	-0.530	0.047
-675.164	356.691	0.020	0.040
-674.149	-77.413	0.200	-0.070
-673.135	-200.000	-0.006	-0.136
-672.120	-200.000	0.006	-0.089
-671.105	-200.000	0.003	0.096
-670.091	-30.063	0.198	0.113
-669.076	-117.635	0.280	-0.051
-668.062	800.000	-0.067	-0.248
-667.047	208.189	-0.137	-0.214
-666.032	-44.729	0.285	-0.142
-665.018	33.930	0.126	-0.110
-664.003	800.000	0.036	0.130
-662.989	-200.000	0.083	-0.377
-661.974	-55.940	0.071	-0.032
-660.959	-200.000	0.072	0.322
-659.945	800.000	-0.061	0.211
-658.930	145.173	-0.235	-0.316
-657.916	-49.494	-0.127	0.061
-656.901	-48.725	-0.098	-0.047
-655.886	181.135	-0.121	-0.178
-654.872	247.333	-0.130	-0.221
-653.857	88.765	-0.350	0.390
-652.843	-143.707	0.421	-0.040
-651.828	-13.786	0.141	-0.091
-650.814	73.160	0.093	-0.097
-649.799	47.876	0.264	-0.247
-648.784	62.438	0.074	0.074
-647.770	-36.729	0.052	0.028
-646.755	-200.000	-0.005	0.202
-645.741	219.160	0.236	-0.378
-644.726	800.000	0.021	-0.084
-643.711	32.135	0.267	-0.231
-642.697	191.065	0.132	0.200
-641.682	-28.137	0.442	0.256
-640.668	-57.398	-0.116	-0.051
-639.653	523.337	-0.165	-0.388
-638.638	18.820	-0.019	0.015
-637.624	66.666	-0.207	-0.211
-636.609	437.766	0.109	0.238
-635.595	455.797	-0.012	0.026
-634.580	31.739	-0.129	0.111
-633.565	-24.390	0.452	-0.270
-632.551	-166.560	0.312	-0.013
-631.536	-200.000	0.006	-0.485
-630.522	-52.393	-0.356	-0.165
-629.507	-1.575	0.211	0.149
-628.492	-96.362	-0.119	-0.031
-627.478	-200.000	-0.199	0.000
-626.463	-42.430	0.124	-0.063
-625.449	164.195	-0.134	-0.189
-624.434	-200.000	0.017	-0.447
-623.419	-35.083	0.098	0.053
-622.405	118.767	0.035	-0.044
-621.390	32.229	0.008	-0.007
-620.376	-68.466	0.355	0.138
-619.361	214.774	-0.063	-0.100
-618.346	800.000	-0.047	-0.168
-617.332	94.234	0.161	0.183
-616.317	312.775	0.035	0.065
-615.303	342.363	0.122	0.240
-614.288	-168.668	-0.327	-0.012
-613.273	23.212	0.118	0.097
-612.259	163.788	-0.143	0.201
-611.244	23.607	-0.234	0.193
-610.230	6.873	-0.216	0.161
-609.215	800.000	0.141	0.540
-608.201	-97.808	0.324	0.084
-607.186	-145.728	-0.212	-0.019
-606.171	167.816	-0.051	0.073
-605.157	54.529	-0.233	-0.224
-604.142	-12.727	-0.069	-0.045
-603.128	-200.000	-0.024	-0.115
-602.113	-56.152	-0.163	0.072
-601.098	134.024	-0.096	-0.124
-600.084	555.839	-0.073	0.177
-599.069	231.202	0.064	-0.105
-598.055	-200.000	-0.008	-0.085
-597.040	-200.000	-0.011	-0.072
-596.025	-35.319	-0.146	-0.080
-595.011	-96.438	-0.293	0.077
-593.996	-35.625	0.188	0.102
-592.982	716.709	0.129	0.342
-591.967	800.000	0.053	0.153
-590.952	-200.000	0.024	-0.293
-589.938	-200.000	-0.005	-0.125
-588.923	-118.473	0.141	-0.025
-587.909	-200.000	-0.026	0.190
-586.894	-15.003	0.036	-0.023
-585.879	-200.000	0.001	0.254
-584.865	-118.679	-0.303	-0.053
-583.850	-31.106	-0.167	-0.094
-582.836	800.000	-0.066	-0.214
-581.821	560.532	-0.039	0.094
-580.806	-139.546	-0.397	-0.042
-579.792	165.492	-0.132	0.186
-578.777	-93.777	-0.091	-0.025
-577.763	252.629	0.088	-0.149
-576.748	-98.542	0.106	0.027
-575.733	7.746	-0.279	0.209
-574.719	800.000	0.045	-0.145
-573.704	279.019	-0.036	0.064
-572.690	11.566	-0.041	-0.031
-571.675	21.569	0.079	-0.064
-570.661	374.714	-0.095	0.192
-569.646	800.000	-0.047	-0.191
-568.631	19.241	-0.183	-0.146
-567.617	800.000	0.044	0.153
-566.602	800.000	0.053	0.150
-565.588	-79.272	-0.287	0.097
-564.573	-109.897	0.196	0.041
-563.558	34.174	0.101	-0.088
-562.544	-200.000	0.110	-0.580
-561.529	-104.873	0.190	0.043
-560.515	-200.000	-0.089	0.424
-559.500	509.037	-0.092	0.214
-558.485	306.379	0.069	0.129
-557.471	142.892	-0.273	-0.362
-556.456	50.654	0.338	-0.319
-555.442	36.440	0.214	0.188
-554.427	-158.913	0.229	0.013
-553.412	-200.000	0.022	-0.432
-552.398	100.273	0.081	-0.093
-551.383	-78.125	-0.214	-0.073
-550.369	-51.662	-0.132	0.061
-549.354	399.620	0.141	0.295
-548.339	-67.596	0.191	0.075
-547.325	90.947	-0.154	-0.173
-546.310	441.867	0.220	0.480
-545.296	101.993	0.173	-0.201
-544.281	-136.737	-0.132	0.015
-543.266	-72.278	-0.386	-0.142
-542.252	18.552	0.157	-0.126
-541.237	796.850	-0.007	-0.018
-540.223	68.233	0.132	-0.134
-539.208	800.000	-0.040	-0.166
-538.193	-152.852	0.383	-0.027
-537.179	-48.543	0.118	0.057
-536.164	800.000	0.055	-0.193
-535.150	64.766	-0.157	-0.158
-534.135	-66.399	-0.258	0.102
-533.121	574.068	0.099	-0.242
-532.106	-171.814	-0.197	-0.006
-531.091	9.309	-0.301	-0.227
-530.077	-175.706	0.230	0.006
-529.062	134.070	0.322	0.416
-528.048	-120.650	-0.319	-0.054
-527.033	-12.177	-0.249	0.162
-526.018	142.217	-0.227	0.300
-525.004	161.902	0.159	-0.222
-523.989	-143.225	-0.211	-0.020
-522.975	275.779	-0.084	-0.149
-521.960	-6.312	0.229	-0.156
-520.945	800.000	-0.045	-0.184
-519.931	-200.000	0.520	0.001
-518.916	-64.398	-0.343	0.139
-517.902	-3.906	0.251	-0.173
-516.887	648.019	0.098	-0.250
-515.872	-25.492	-0.151	0.089
-514.858	20.243	0.073	0.058
-513.843	-200.000	0.019	0.547
-512.829	685.038	0.097	-0.253
-511.814	800.000	-0.017	-0.056
-510.799	800.000	0.049	-0.160
-509.785	-50.773	-0.351	-0.165
-508.770	800.000	0.087	0.277
-507.756	442.243	-0.104	-0.226
-506.741	-30.680	-0.080	-0.045
-505.726	5.481	0.367	-0.270
-504.712	285.278	-0.055	0.098
-503.697	-61.694	-0.508	-0.212
-502.683	141.265	0.169	-0.223
-501.668	51.343	-0.116	-0.109
-500.653	305.356	-0.161	0.298
-499.639	-105.543	-0.079	-0.018
-498.624	-200.000	0.015	0.135
-497.610	-200.000	0.073	0.391
-496.595	-44.592	0.161	0.080
-495.581	44.933	-0.065	-0.060
-494.566	-49.728	0.322	-0.153
-493.551	800.000	-0.077	-0.275
-492.537	-26.189	-0.294	0.172
-491.522	0.488	-0.053	0.037
-490.508	-68.918	-0.188	0.072
-489.493	132.521	0.192	-0.247
-488.478	222.291	0.170	0.273
-487.464	203.154	0.222	0.342
-486.449	-200.000	0.025	-0.220
-485.435	313.776	-0.051	-0.095
-484.420	-200.000	-0.020	0.316
-483.405	-150.687	-0.248	0.019
-482.391	-129.514	-0.267	-0.037
-481.376	-69.986	-0.476	-0.180
-480.362	68.666	0.104	-0.106
-479.347	-81.974	-0.177	0.057
-478.332	-105.189	0.053	-0.012
-477.318	800.000	0.113	0.416
-476.303	158.187	-0.097	-0.133
-475.289	-114.475	0.118	0.023
-474.274	-184.040	0.408	-0.007
-473.259	297.603	-0.119	-0.217
-472.245	106.452	-0.150	-0.177
-471.230	76.353	0.130	0.137
-470.216	800.000	0.023	0.095
-469.201	-112.455	-0.349	0.069
-468.186	-38.397	-0.158	-0.083
-467.172	28.672	0.096	-0.081
-466.157	800.000	0.088	-0.272
-465.143	-5.163	-0.142	-0.097
-464.128	55.954	-0.311	-0.300
-463.113	61.350	-0.069	0.068
-462.099	-200.000	0.019	0.265
-461.084	-163.720	-0.176	0.008
-460.070	-33.460	-0.245	0.135
-459.055	-51.257	0.030	-0.014
-458.040	-58.760	0.087	-0.037
-457.026	800.000	0.046	0.139
-456.011	-87.004	0.106	-0.032
-454.997	-108.983	0.233	-0.049
-453.982	-7.930	0.195	-0.131
-452.968	274.336	-0.038	0.067
-451.953	238.703	-0.124	-0.205
-450.938	-200.000	-0.009	0.059
-449.924	-200.000	0.002	-0.211
-448.909	361.658	0.021	-0.043
-447.895	-200.000	-0.025	-0.199
-446.880	2.155	0.219	0.157
-445.865	-109.412	-0.099	0.021
-444.851	800.000	0.028	-0.115
-443.836	14.949	0.193	0.150
-442.822	-200.000	-0.052	-0.260
-441.807	-82.269	0.046	-0.015
-440.792	-200.000	-0.029	-0.419
-439.778	-117.590	0.270	0.048
-438.763	-21.972	-0.092	-0.056
-437.749	681.556	0.023	0.059
-436.734	-56.108	0.032	-0.014
-435.719	305.233	-0.045	0.083
-434.705	-9.499	-0.163	-0.108
-433.690	235.173	0.209	0.343
-432.676	44.742	0.105	-0.096
-431.661	202.652	-0.215	-0.329
-430.646	62.771	0.109	0.108
-429.632	-92.775	0.391	-0.109
-428.617	410.322	-0.021	-0.045
-427.603	-68.733	0.112	-0.043
-426.588	-105.614	0.223	0.050
-425.573	-200.000	0.021	-0.242
-424.559	-137.637	-0.131	-0.015
-423.544	51.059	0.073	0.069
-422.530	-43.946	-0.167	-0.083
-421.515	-31.144	0.279	-0.156
-420.500	-63.917	-0.208	0.084
-419.486	-85.794	-0.084	0.026
-418.471	62.763	0.160	0.159
-417.457	-0.155	0.130	-0.092
-416.442	489.193	0.150	0.341
-415.428	-200.000	-0.033	-0.185
-414.413	-19.679	0.194	0.119
-413.398	800.000	-0.072	-0.227
-412.384	700.619	-0.085	-0.221
-411.369	486.535	-0.071	0.160
-410.355	-103.992	0.211	0.049
-409.340	70.539	-0.288	-0.296
-408.325	-53.045	-0.283	0.129
-407.311	434.223	-0.090	0.194
-406.296	-51.286	-0.218	-0.101
-405.282	248.124	-0.186	0.312
-404.267	-200.000	0.065	-0.311
-403.252	-68.543	-0.212	0.081
-402.238	512.221	0.049	-0.113
-401.223	254.632	-0.218	0.370
-400.209	-200.000	0.008	0.230
-399.194	39.374	-0.111	-0.099
-398.179	185.922	0.134	0.197
-397.165	-200.000	-0.053	0.432
-396.150	84.682	-0.292	0.317
-395.136	79.876	-0.212	-0.226
-394.121	192.691	-0.083	0.124
-393.106	180.983	-0.029	0.043
-392.092	367.793	0.060	0.121
-391.077	-200.000	-0.048	0.320
-390.063	-199.532	0.215	-0.001
-389.048	-200.000	0.006	-0.037
-388.033	20.604	0.080	-0.064
-387.019	-65.962	-0.300	0.119
-386.004	-99.190	0.275	-0.069
-384.990	-73.750	0.287	0.103
-383.975	97.384	-0.101	-0.115
-382.960	372.818	-0.054	0.108
-381.946	-26.440	-0.083	0.048
-380.931	30.257	0.071	0.060
-379.917	731.269	0.052	-0.139
-378.902	-32.924	-0.213	-0.117
-377.888	-200.000	-0.002	-0.391
-376.873	-200.000	0.035	-0.231
-375.858	-11.463	-0.222	0.145
-374.844	-132.283	0.220	0.028
-373.829	695.638	0.075	-0.196
-372.815	146.767	-0.086	0.114
-371.800	-54.183	-0.165	-0.074
-370.785	800.000	0.038	0.115
-369.771	-79.827	0.151	-0.050
-368.756	800.000	-0.135	0.491
-367.742	591.266	0.059	0.145
-366.727	-24.439	-0.283	0.167
-365.712	125.588	-0.195	0.244
-364.698	3.661	-0.302	0.218
-363.683	436.136	-0.231	0.497
-362.669	-76.137	0.419	-0.146
-361.654	-88.638	0.155	-0.046
-360.639	-72.959	-0.160	0.058
-359.625	-98.842	-0.164	-0.041
-358.610	-46.241	-0.285	-0.139
-357.596	471.243	0.072	0.160
-356.581	-115.220	0.170	0.032
-355.566	-103.198	0.026	-0.006
-354.552	1.833	0.145	-0.103
-353.537	513.905	-0.153	-0.353
-352.523	-94.108	0.308	0.084
-351.508	800.000	-0.063	0.240
-350.493	608.276	0.049	0.120
-349.479	-2.361	-0.263	0.183
-348.464	254.540	-0.080	0.136
-347.450	108.850	0.066	-0.078
-346.435	-101.767	0.127	-0.031
-345.420	-99.980	0.264	-0.065
-344.406	-123.489	0.383	0.060
-343.391	237.356	-0.269	-0.441
-342.377	519.402	0.076	0.177
-341.362	-3.440	-0.177	-0.122
-340.348	46.205	-0.090	-0.083
-339.333	3.218	0.059	-0.043
-338.318	-143.577	0.115	-0.011
-337.304	-153.216	-0.355	-0.025
-336.289	800.000	-0.040	0.160
-335.275	15.944	0.095	-0.074
-334.260	575.398	0.066	-0.160
-333.245	-102.666	0.090	-0.021
-332.231	-200.000	-0.055	0.308
-331.216	-122.369	-0.231	0.037
-330.202	218.470	-0.104	0.164
-329.187	74.578	-0.158	0.164
-328.172	-99.342	-0.330	-0.082
-327.158	800.000	-0.045	0.135
-326.143	-89.959	-0.152	-0.044
-325.129	800.000	0.028	-0.081
-324.114	106.653	-0.039	-0.045
-323.099	800.000	0.057	-0.221
-322.085	67.980	-0.199	-0.201
-321.070	-100.068	0.201	-0.050
-320.056	-46.052	0.171	0.083
-319.041	-128.800	-0.382	0.053
-318.026	391.258	0.114	-0.234
-317.012	-171.944	-0.127	-0.004
-315.997	205.619	0.048	-0.074
-314.983	800.000	-0.043	0.146
-313.968	-59.950	-0.302	-0.127
-312.953	-200.000	0.027	-0.342
-311.939	-200.000	0.091	-0.480
-310.924	-200.000	0.007	-0.095
-309.910	582.422	-0.051	-0.122
-308.895	-76.855	0.506	0.175
-307.880	105.492	0.202	0.236
-306.866	741.741	0.072	0.191
-305.851	447.339	0.100	0.216
-304.837	-113.383	0.269	0.052
-303.822	-200.000	-0.035	-0.203
-302.807	279.238	-0.115	0.203
-301.793	-200.000	-0.055	0.354
-300.778	-171.728	-0.364	0.012
-299.764	-200.000	-0.026	-0.134
-298.749	-67.643	0.191	0.074
-297.735	-128.305	-0.344	-0.048
-296.720	-128.394	-0.115	-0.016
-295.705	88.223	-0.063	-0.070
-294.691	-135.303	-0.057	-0.007
-293.676	800.000	-0.030	-0.102
-292.662	-110.665	0.219	0.045
-291.647	208.815	0.013	0.019
-290.632	185.608	-0.084	-0.123
-289.618	-200.000	0.023	0.461
-288.603	-200.000	-0.072	0.377
-287.589	-32.196	-0.139	0.077
-286.574	-124.129	0.370	0.057
-285.559	-47.848	0.189	-0.090
-284.545	580.906	-0.018	-0.045
-283.530	162.960	-0.096	-0.133
-282.516	-166.749	-0.031	0.001
-281.501	-43.164	0.444	0.222
-280.486	-73.909	-0.438	-0.157
-279.472	-105.334	-0.384	-0.086
-278.457	-138.622	0.165	-0.018
-277.443	321.142	0.049	0.093
-276.428	175.688	-0.125	0.179
-275.413	-200.000	-0.008	-0.086
-274.399	-95.329	-0.370	-0.098
-273.384	-93.456	0.189	-0.052
-272.370	362.489	0.068	0.134
-271.355	-19.708	-0.022	0.014
-270.340	-200.000	0.031	0.219
-269.326	-76.086	0.088	-0.031
-268.311	-142.877	-0.193	0.018
-267.297	3.476	-0.065	0.047
-266.282	87.948	-0.232	-0.254
-265.267	7.013	0.103	-0.076
-264.253	99.506	-0.291	0.332
-263.238	-173.306	0.377	0.011
-262.224	8.228	-0.122	0.090
-261.209	-200.000	0.008	0.219
-260.195	-115.929	0.643	-0.118
-259.180	-27.983	0.113	0.065
-258.165	800.000	0.072	-0.202
-257.151	127.569	0.166	-0.208
-256.136	-71.141	0.132	0.049
-255.122	800.000	0.039	-0.131
-254.107	212.786	-0.099	0.154
-253.092	60.370	-0.196	0.192
-252.078	-200.000	-0.003	-0.040
-251.063	61.380	0.174	-0.171
-250.049	-200.000	0.029	0.197
-249.034	-200.000	-0.017	-0.184
-248.019	5.754	0.076	0.055
-247.005	-73.165	0.415	0.150
-245.990	77.813	0.168	0.176
-244.976	674.160	0.129	0.330
-243.961	-132.010	-0.212	-0.027
-242.946	202.955	-0.034	-0.052
-241.932	-68.616	0.107	-0.041
-240.917	529.834	0.076	0.177
-239.903	-106.702	0.084	0.018
-238.888	-200.000	-0.007	-0.178
-237.873	-101.911	-0.260	0.062
-236.859	-200.000	0.053	-0.251
-235.844	375.232	0.186	0.374
-234.830	83.882	0.073	0.078
-233.815	-91.101	-0.080	-0.023
-232.800	-70.522	-0.209	-0.078
-231.786	65.626	0.142	-0.142
-230.771	15.071	-0.073	0.056
-229.757	110.874	0.032	-0.038
-228.742	800.000	0.023	0.071
-227.727	-97.199	-0.174	-0.045
-226.713	-200.000	-0.016	0.259
-225.698	-153.305	-0.154	-0.011
-224.684	-7.868	0.159	-0.106
-223.669	-193.036	-0.226	-0.002
-222.655	569.691	0.094	0.226
-221.640	695.197	0.113	-0.293
-220.625	473.964	0.100	-0.223
-219.611	174.743	-0.144	0.205
-218.596	-6.331	-0.194	0.131
-217.582	152.038	0.162	0.217
-216.567	89.037	-0.318	0.348
-215.552	582.165	-0.182	-0.440
-214.538	-83.362	0.225	-0.071
-213.523	-141.140	-0.402	-0.040
-212.509	-85.345	-0.103	-0.032
-211.494	-51.114	-0.339	-0.157
-210.479	108.834	0.132	0.155
-209.465	-200.000	0.001	0.122
-208.450	204.177	-0.119	0.182
-207.436	-88.293	-0.129	-0.038
-206.421	-76.296	0.128	0.045
-205.406	-160.213	0.224	0.012
-204.392	-149.705	-0.170	-0.013
-203.377	331.025	0.033	0.062
-202.363	-97.251	0.291	-0.075
-201.348	-60.799	0.500	0.208
-200.333	-162.705	-0.161	0.008
-199.319	-108.372	0.310	0.066
-198.304	-60.202	-0.100	-0.042
-197.290	-104.882	0.186	0.042
-196.275	7.408	0.130	-0.095
-195.260	-49.153	-0.091	-0.043
-194.246	800.000	0.083	-0.313
-193.231	80.169	0.133	0.140
-192.217	-168.864	0.147	-0.005
-191.202	-29.296	-0.063	0.036
-190.187	9.137	0.048	-0.036
-189.173	800.000	-0.048	0.191
-188.158	11.750	-0.199	0.150
-187.144	-16.247	0.304	0.190
-186.129	343.589	0.140	-0.270
-185.114	6.283	0.247	-0.181
-184.100	-30.900	-0.168	-0.093
-183.085	-200.000	-0.038	-0.230
-182.071	-200.000	0.034	-0.189
-181.056	492.842	-0.155	0.350
-180.042	800.000	0.019	0.066
-179.027	-200.000	-0.065	0.466
-178.012	62.344	0.100	-0.098
-176.998	-200.000	-0.002	0.229
-175.983	781.368	-0.048	-0.130
-174.969	-173.584	0.213	-0.006
-173.954	379.346	-0.121	-0.243
-172.939	-200.000	-0.002	0.072
-171.925	59.857	-0.149	-0.145
-170.910	-58.608	0.107	0.046
-169.896	104.378	0.092	0.106
-168.881	416.563	-0.051	0.107
-167.866	-158.358	0.230	-0.013
-166.852	232.380	-0.062	-0.101
-165.837	-5.108	0.129	0.087
-164.823	239.439	0.182	-0.297
-163.808	-163.631	0.527	-0.024
-162.793	87.142	0.240	0.260
-161.779	-32.075	0.264	0.145
-160.764	800.000	0.033	0.143
-159.750	800.000	-0.127	-0.536
-158.735	-81.321	0.243	-0.079
-157.720	307.345	-0.173	0.317
-156.706	446.528	0.142	-0.307
-155.691	688.979	-0.116	-0.298
-154.677	100.750	-0.164	-0.187
-153.662	-66.815	0.374	-0.145
-152.647	-20.276	0.062	-0.038
-151.633	-139.252	-0.125	0.013
-150.618	77.707	0.387	-0.405
-149.604	113.843	-0.254	-0.303
-148.589	-161.230	0.242	-0.012
-147.574	-5.158	0.254	0.172
-146.560	-88.847	-0.280	0.082
-145.545	-197.642	0.288	-0.002
-144.531	209.203	0.105	0.161
-143.516	-39.080	0.079	0.041
-142.502	89.139	0.022	0.024
-141.487	-119.196	-0.110	-0.019
-140.472	492.375	0.071	0.159
-139.458	-19.538	0.235	0.143
-138.443	215.189	0.164	0.255
-137.429	-145.605	0.194	-0.017
-136.414	800.000	0.052	-0.174
-135.399	-103.965	0.377	-0.086
-134.385	398.207	-0.171	0.351
-133.370	-66.165	0.246	-0.096
-132.356	-200.000	0.016	0.213
-131.341	-200.000	-0.034	-0.313
-130.326	800.000	0.076	-0.239
-129.312	201.557	-0.194	-0.293
-128.297	-36.076	-0.089	0.047
-127.283	-200.000	0.048	-0.217
-126.268	-72.453	-0.495	0.180
-125.253	-171.423	0.230	-0.008
-124.239	451.756	0.106	-0.230
-123.224	-39.422	0.038	0.019
-122.210	-1.141	0.210	0.146
-121.195	-200.000	-0.001	-0.010
-120.180	-101.191	0.154	-0.037
-119.166	5.084	-0.332	-0.240
-118.151	-78.568	-0.262	-0.088
-117.137	-95.944	0.289	-0.076
-116.122	800.000	-0.093	0.318
-115.107	262.564	-0.054	0.091
-114.093	-200.000	0.037	-0.255
-113.078	-2.212	-0.046	-0.031
-112.064	13.260	0.189	0.143
-111.049	-113.506	0.223	0.043
-110.034	-27.931	-0.154	0.088
-109.020	59.202	0.081	0.078
-108.005	45.369	-0.277	-0.251
-106.991	-132.253	-0.087	-0.011
-105.976	800.000	0.055	-0.208
-104.962	-16.313	0.184	0.114
-103.947	-155.411	-0.073	-0.005
-102.932	-59.663	0.501	-0.211
-101.918	97.901	0.138	0.156
-100.903	-17.511	0.170	0.105
-99.889	-64.032	-0.228	0.091
-98.874	41.021	0.221	0.196
-97.859	-54.127	0.184	-0.082
-96.845	-93.754	-0.206	0.056
-95.830	-11.604	0.236	0.152
-94.816	-104.992	0.264	0.059
-93.801	383.421	0.063	-0.128
-92.786	-200.000	-0.030	-0.279
-91.772	-200.000	0.153	0.696
-90.757	-63.405	0.142	0.057
-89.743	-96.776	-0.349	-0.090
-88.728	-200.000	0.076	0.345
-87.713	732.552	0.066	0.172
-86.699	56.262	0.069	-0.066
-85.684	800.000	0.063	0.268
-84.670	152.607	0.162	0.217
-83.655	-200.000	-0.042	0.211
-82.640	800.000	0.044	-0.152
-81.626	-8.577	-0.050	-0.033
-80.611	695.889	0.058	-0.150
-79.597	-112.162	-0.093	0.018
-78.582	110.177	-0.259	-0.305
-77.567	-68.180	0.128	-0.049
-76.553	-76.283	-0.113	-0.039
-75.538	-73.705	0.399	0.142
-74.524	34.351	-0.127	0.109
-73.509	-4.550	-0.119	-0.081
-72.494	435.500	-0.053	0.112
-71.480	-71.364	-0.135	-0.049
-70.465	800.000	0.109	-0.383
-69.451	37.760	0.233	0.202
-68.436	169.273	-0.078	0.109
-67.422	-73.702	0.130	-0.046
-66.407	410.665	-0.042	-0.087
-65.392	-200.000	0.008	-0.092
-64.378	-200.000	-0.016	0.089
-63.363	-200.000	-0.032	0.341
-62.349	104.086	0.290	-0.334
-61.334	119.843	-0.906	-1.099
-60.319	90.123	0.720	0.787
-59.305	523.809	-0.435	-1.001
-58.290	479.044	0.656	1.454
-57.276	763.382	0.548	1.456
-56.261	-200.000	114.916	647.090
-55.246	471.896	1508.410	3321.405
-54.232	146.819	2680.642	3524.757
-53.217	96.557	2285.430	2559.049
-52.203	36.190	1896.450	1634.110
-51.188	30.299	1687.924	1409.779
-50.173	27.842	1646.690	1357.049
-49.159	49.408	1701.697	1565.734
-48.144	48.101	1715.289	1568.336
-47.130	29.892	1674.561	1395.326
-46.115	27.358	1659.461	1363.733
-45.100	27.168	1654.614	1358.272
-44.086	27.160	1652.115	1356.112
-43.071	27.139	1649.752	1353.961
-42.057	27.077	1647.318	1351.443
-41.042	27.024	1645.289	1349.335
-40.027	27.040	1644.005	1348.348
-39.013	27.057	1641.914	1346.706
-37.998	27.104	1639.977	1345.408
-36.984	27.063	1638.935	1344.195
-35.969	27.127	1637.448	1343.401
-34.954	27.265	1635.325	1342.625
-33.940	27.160	1634.014	1340.720
-32.925	27.192	1631.781	1339.067
-31.911	27.164	1630.365	1337.646
-30.896	27.205	1628.228	1336.142
-29.881	27.086	1627.886	1334.937
-28.867	27.103	1625.914	1333.389
-27.852	27.189	1624.093	1332.471
-26.838	27.252	1622.318	1331.424
-25.823	27.201	1621.247	1330.121
-24.809	27.207	1620.198	1329.253
-23.794	27.214	1618.351	1327.731
-22.779	27.226	1616.772	1326.474
-21.765	27.207	1615.468	1325.211
-20.750	27.128	1613.992	1323.373
-19.736	27.262	1612.316	1322.923
-18.721	27.185	1611.639	1321.754
-17.706	27.152	1609.938	1320.070
-16.692	27.249	1608.001	1319.130
-15.677	27.278	1606.619	1318.152
-14.663	27.314	1605.397	1317.358
-13.648	27.235	1603.901	1315.512
-12.633	27.137	1602.779	1313.829
-11.619	27.165	1601.456	1312.894
-10.604	27.266	1599.677	1312.112
-9.590	27.253	1598.343	1310.875
-8.575	27.265	1597.221	1309.983
-7.560	27.284	1595.818	1308.916
-6.546	27.234	1594.720	1307.608
-5.531	27.176	1593.885	1306.452
-4.517	27.198	1592.760	1305.640
-3.502	27.239	1591.356	1304.727
-2.487	27.305	1589.194	1303.379
-1.473	26.928	1578.200	1291.626
-0.458	24.015	1558.865	1255.241
0.556	18.714	1559.998	1223.165
1.571	16.294	1583.165	1223.697
2.586	15.839	1596.068	1230.239
3.600	14.625	1542.980	1180.630
4.615	8.158	1434.872	1055.143
5.629	1.618	1373.479	968.385
6.644	0.193	1365.697	953.791
7.659	0.127	1364.854	952.701
8.673	0.034	1364.115	951.511
9.688	0.116	1361.634	950.218
10.702	-0.079	1358.425	946.665
11.717	3.211	1363.260	970.720
12.731	10.941	1375.455	1028.353
13.746	16.509	1382.768	1069.026
14.761	17.228	1382.803	1073.502
15.775	16.238	1380.613	1065.465
16.790	15.256	1377.539	1056.809
17.804	14.580	1375.336	1050.765
18.819	14.102	1374.176	1046.778
19.834	13.858	1372.738	1044.058
20.848	13.627	1371.709	1041.728
21.863	13.356	1370.580	1039.080
22.877	13.237	1368.696	1036.812
23.892	13.263	1367.703	1036.135
24.907	13.147	1367.627	1035.255
25.921	13.157	1366.871	1034.657
26.936	13.278	1365.272	1034.107
27.950	13.248	1364.696	1033.393
28.965	13.349	1363.703	1033.181
29.980	13.403	1362.533	1032.538
30.994	13.524	1361.892	1032.715
32.009	13.428	1360.866	1031.252
33.023	13.462	1359.780	1030.550
34.038	13.384	1358.776	1029.213
35.053	13.416	1357.789	1028.571
36.067	13.406	1356.426	1027.386
37.082	13.373	1355.769	1026.595
38.096	13.380	1355.262	1026.163
39.111	13.457	1353.382	1025.123
40.126	13.394	1353.020	1024.367
41.140	13.231	1352.751	1023.064
42.155	13.161	1352.177	1022.109
43.169	13.241	1351.638	1022.105
44.184	13.134	1351.506	1021.254
45.199	13.173	1350.668	1020.772
46.213	13.298	1350.187	1021.089
47.228	13.366	1349.213	1020.678
48.242	13.379	1347.781	1019.589
49.257	13.375	1346.426	1018.450
50.271	13.360	1344.990	1017.180
51.286	13.392	1343.550	1016.196
52.301	13.280	1342.550	1014.660
53.315	13.158	1341.900	1013.331
54.330	13.201	1340.989	1012.817
55.344	13.255	1339.384	1011.846
56.359	13.262	1338.019	1010.768
57.374	13.221	1337.267	1009.861
58.388	13.202	1336.717	1009.243
59.403	13.174	1336.133	1008.541
60.417	13.228	1335.195	1008.074
61.432	13.144	1334.636	1007.049
62.447	13.134	1333.753	1006.235
63.461	13.138	1331.934	1004.799
64.476	13.144	1330.952	1004.001
65.490	13.071	1330.096	1002.823
66.505	13.182	1328.029	1001.853
67.520	13.186	1327.521	1001.401
68.534	13.243	1325.930	1000.461
69.549	13.194	1325.214	999.532
70.563	13.234	1323.660	998.515
71.578	13.161	1322.730	997.287
72.593	13.081	1321.972	996.140
73.607	12.973	1321.544	995.078
74.622	13.039	1320.326	994.471
75.636	12.982	1319.632	993.518
76.651	13.152	1318.737	993.782
77.666	13.101	1318.382	993.116
78.680	13.135	1317.794	992.793
79.695	13.174	1317.103	992.420
80.709	13.160	1316.279	991.623
81.724	13.232	1315.333	991.255
82.739	13.220	1314.521	990.486
83.753	13.277	1313.596	990.038
84.768	13.344	1312.180	989.286
85.782	13.387	1310.985	988.556
86.797	13.399	1309.472	987.399
87.812	13.207	1308.876	985.716
88.826	13.244	1307.715	984.973
89.841	13.331	1306.648	984.602
90.855	13.337	1305.761	983.880
91.870	13.339	1304.862	983.132
92.884	13.294	1304.376	982.411
93.899	13.475	1302.745	982.171
94.914	13.440	1302.515	981.701
95.928	13.456	1301.797	981.170
96.943	13.422	1300.528	979.925
97.957	13.305	1299.928	978.690
98.972	13.371	1298.420	977.858
99.987	13.353	1297.717	977.139
101.001	13.400	1296.836	976.663
102.016	13.411	1295.572	975.689
103.030	13.370	1294.986	974.925
104.045	13.443	1293.206	973.928
105.060	13.393	1292.490	973.008
106.074	13.248	1291.372	971.225
107.089	13.185	1290.204	969.890
108.103	13.082	1289.199	968.448
109.118	13.233	1287.495	967.969
110.133	13.317	1285.947	967.208
111.147	13.289	1284.766	966.070
112.162	13.356	1283.470	965.401
113.176	13.242	1282.945	964.253
114.191	13.286	1281.766	963.543
115.206	13.325	1280.511	962.740
116.220	13.357	1279.119	961.795
117.235	13.272	1278.427	960.695
118.249	13.302	1277.391	960.004
119.264	13.217	1276.191	958.524
120.279	13.301	1274.962	958.002
121.293	13.279	1273.838	956.947
122.308	13.302	1273.134	956.466
123.322	13.198	1272.397	955.228
124.337	13.142	1271.672	954.277
125.352	13.273	1269.792	953.536
126.366	13.195	1269.379	952.688
127.381	13.140	1268.184	951.394
128.395	13.121	1267.142	950.416
129.410	13.277	1265.842	950.255
130.424	13.308	1264.909	949.647
131.439	13.145	1264.681	948.459
132.454	13.283	1263.424	948.220
133.468	13.379	1262.585	948.061
134.483	13.279	1261.784	946.803
135.497	13.396	1260.610	946.505
136.512	13.314	1259.384	945.031
137.527	13.391	1257.746	944.159
138.541	13.374	1256.468	943.018
139.556	13.344	1255.182	941.803
140.570	13.403	1254.127	941.262
141.585	13.400	1253.192	940.460
142.600	13.446	1251.743	939.552
143.614	13.502	1251.090	939.295
144.629	13.554	1249.689	938.453
145.643	13.552	1248.484	937.452
146.658	13.548	1247.429	936.560
147.673	13.540	1246.027	935.378
148.687	13.414	1244.845	933.696
149.702	13.365	1243.663	932.451
150.716	13.399	1242.346	931.575
151.731	13.328	1241.252	930.271
152.746	13.423	1239.887	929.701
153.760	13.394	1238.929	928.734
154.775	13.562	1237.681	928.661
155.789	13.534	1236.730	927.708
156.804	13.528	1235.809	926.899
157.819	13.604	1234.570	926.315
158.833	13.621	1233.970	925.875
159.848	13.632	1232.766	924.950
160.862	13.572	1232.273	924.167
161.877	13.538	1230.901	922.866
162.892	13.524	1229.606	921.733
163.906	13.452	1229.010	920.809
164.921	13.598	1228.053	920.819
165.935	13.608	1226.963	919.978
166.950	13.586	1226.292	919.267
167.964	13.560	1225.809	918.682
168.979	13.584	1224.512	917.764
169.994	13.589	1224.542	917.730
171.008	13.591	1223.116	916.590
172.023	13.700	1222.254	916.465
173.037	13.718	1221.651	916.036
174.052	13.773	1220.452	915.355
175.067	13.654	1219.879	914.191
176.081	13.586	1218.837	912.955
177.096	13.548	1217.925	911.977
178.110	13.670	1216.572	911.555
179.125	13.708	1215.436	910.836
180.140	13.727	1214.380	910.066
181.154	13.664	1213.552	909.020
182.169	13.724	1212.094	908.175
183.183	13.674	1211.170	907.130
184.198	13.735	1209.922	906.449
185.213	13.851	1208.472	905.916
186.227	13.805	1207.412	904.789
187.242	13.881	1206.213	904.226
188.256	13.838	1205.516	903.391
189.271	13.949	1204.543	903.183
190.286	13.822	1203.384	901.541
191.300	13.641	1202.710	899.976
192.315	13.649	1202.310	899.643
193.329	13.808	1201.344	899.702
194.344	13.807	1200.299	898.831
195.359	13.787	1200.077	898.479
196.373	13.801	1199.847	898.305
197.388	13.947	1199.251	898.570
198.402	14.029	1198.692	898.509
199.417	14.076	1197.933	898.116
200.432	14.059	1196.990	897.240
201.446	14.103	1196.081	896.714
202.461	14.206	1194.906	896.311
203.475	14.104	1194.294	895.224
204.490	14.027	1193.591	894.205
205.504	14.030	1191.935	892.897
206.519	14.042	1190.878	892.094
207.534	14.089	1189.304	891.085
208.548	14.144	1188.485	890.690
209.563	14.062	1187.996	889.803
210.577	14.159	1186.962	889.469
211.592	14.069	1186.210	888.348
212.607	14.167	1185.354	888.152
213.621	14.200	1184.226	887.401
214.636	14.248	1183.286	886.878
215.650	14.103	1182.995	885.804
216.665	14.179	1181.703	885.167
217.680	14.271	1180.575	884.733
218.694	14.345	1179.671	884.370
219.709	14.343	1178.773	883.606
220.723	14.394	1178.460	883.564
221.738	14.350	1177.391	882.452
222.753	14.409	1176.508	882.024
223.767	14.325	1176.316	881.358
224.782	14.486	1175.412	881.450
225.796	14.428	1175.206	880.911
226.811	14.513	1174.045	880.413
227.826	14.339	1173.380	878.918
228.840	14.324	1172.797	878.327
229.855	14.397	1172.303	878.266
230.869	14.342	1171.233	877.094
231.884	14.358	1170.617	876.640
232.899	14.431	1169.259	875.927
233.913	14.299	1169.408	875.269
234.928	14.355	1167.866	874.331
235.942	14.377	1167.415	874.032
236.957	14.290	1166.892	873.106
237.972	14.359	1166.164	872.848
238.986	14.546	1165.083	872.937
240.001	14.491	1164.425	872.080
241.015	14.530	1163.825	871.756
242.030	14.475	1163.006	870.779
243.045	14.571	1162.310	870.681
244.059	14.427	1161.832	869.497
245.074	14.510	1160.866	869.130
246.088	14.652	1159.874	869.051
247.103	14.649	1158.657	868.044
248.117	14.587	1158.642	867.637
249.132	14.796	1157.548	867.821
250.147	14.714	1157.221	867.073
251.161	14.720	1156.390	866.410
252.176	14.936	1155.335	866.661
253.190	14.938	1155.317	866.583
254.205	14.965	1154.096	865.730
255.220	14.927	1153.643	865.113
256.234	14.875	1153.370	864.563
257.249	14.896	1152.752	864.133
258.263	14.884	1152.035	863.458
259.278	14.917	1151.412	863.084
260.293	14.925	1150.587	862.429
261.307	15.094	1149.663	862.532
262.322	15.086	1149.210	862.075
263.336	15.088	1148.625	861.572
264.351	15.065	1148.396	861.201
265.366	15.057	1147.713	860.572
266.380	15.117	1146.672	860.026
267.395	15.067	1145.803	859.042
268.409	15.121	1145.016	858.654
269.424	15.011	1144.617	857.715
270.439	15.079	1144.130	857.619
271.453	15.244	1142.967	857.517
272.468	15.080	1142.235	856.055
273.482	15.102	1141.475	855.523
274.497	15.047	1141.331	855.058
275.512	15.199	1139.883	854.671
276.526	15.083	1139.725	853.886
277.541	15.236	1138.638	853.773
278.555	15.181	1137.931	852.891
279.570	15.157	1137.637	852.472
280.585	15.369	1136.443	852.578
281.599	15.362	1135.451	851.724
282.614	15.318	1134.239	850.514
283.628	15.244	1133.244	849.321
284.643	15.326	1132.147	848.836
285.657	15.356	1131.980	848.788
286.672	15.236	1131.139	847.477
287.687	15.355	1130.040	847.180
288.701	15.329	1129.228	846.363
289.716	15.352	1128.589	845.925
290.730	15.493	1127.523	845.761
291.745	15.471	1126.797	845.032
292.760	15.513	1126.068	844.623
293.774	15.526	1125.863	844.459
294.789	15.557	1125.413	844.205
295.803	15.458	1125.018	843.335
296.818	15.479	1124.076	842.662
297.833	15.473	1123.115	841.834
298.847	15.435	1122.499	841.110
299.862	15.512	1121.640	840.775
300.876	15.569	1120.686	840.272
301.891	15.528	1120.352	839.741
302.906	15.577	1119.364	839.169
303.920	15.717	1118.963	839.496
304.935	15.718	1118.229	838.876
305.949	15.613	1118.109	838.185
306.964	15.744	1116.555	837.599
307.979	15.765	1115.829	837.085
308.993	15.658	1115.444	836.193
310.008	15.727	1114.730	835.926
311.022	15.817	1113.679	835.507
312.037	15.760	1112.763	834.464
313.052	15.815	1112.466	834.444
314.066	15.787	1111.233	833.302
315.081	15.721	1110.873	832.633
316.095	15.682	1109.753	831.525
317.110	15.596	1109.604	830.918
318.125	15.728	1108.484	830.656
319.139	15.744	1107.571	829.977
320.154	15.708	1107.338	829.552
321.168	15.724	1106.378	828.841
322.183	15.679	1105.978	828.243
323.197	15.787	1105.119	828.059
324.212	15.861	1104.224	827.680
325.227	15.895	1103.591	827.301
326.241	15.922	1102.862	826.811
327.256	15.838	1102.113	825.764
328.270	15.792	1101.513	825.015
329.285	15.837	1100.460	824.376
330.300	15.928	1099.586	824.092
331.314	15.954	1098.586	823.399
332.329	15.978	1097.575	822.687
333.343	15.786	1097.033	821.266
334.358	15.932	1096.080	821.197
335.373	15.999	1095.633	821.112
336.387	15.956	1094.929	820.305
337.402	16.027	1093.855	819.774
338.416	15.980	1093.349	819.092
339.431	15.936	1093.240	818.724
340.446	16.058	1092.218	818.478
341.460	16.160	1091.596	818.434
342.475	16.043	1091.029	817.371
343.489	16.190	1089.890	817.155
344.504	16.194	1089.167	816.559
345.519	16.272	1087.881	815.900
346.533	16.314	1086.920	815.312
347.548	16.334	1086.475	815.002
348.562	16.293	1085.605	814.080
349.577	16.258	1085.203	813.538
350.592	16.167	1084.442	812.455
351.606	16.254	1083.770	812.297
352.621	16.227	1082.878	811.430
353.635	16.271	1082.214	811.070
354.650	16.271	1081.347	810.353
355.665	16.167	1081.096	809.591
356.679	16.370	1080.078	809.730
357.694	16.305	1079.523	808.930
358.708	16.386	1078.574	808.534
359.723	16.328	1078.507	808.137
360.738	16.420	1077.526	807.769
361.752	16.352	1077.292	807.197
362.767	16.381	1076.703	806.823
363.781	16.449	1075.892	806.468
364.796	16.453	1075.490	806.115
365.810	16.517	1074.918	805.921
366.825	16.467	1074.219	805.089
367.840	16.650	1073.420	805.288
368.854	16.590	1073.248	804.803
369.869	16.722	1072.176	804.552
370.883	16.722	1071.311	803.834
371.898	16.577	1070.710	802.623
372.913	16.602	1070.022	802.156
373.927	16.700	1069.452	802.123
374.942	16.690	1069.041	801.697
375.956	16.663	1068.728	801.260
376.971	16.714	1067.599	800.587
377.986	16.667	1067.314	800.079
379.000	16.711	1067.216	800.141
380.015	16.756	1066.586	799.810
381.029	16.819	1065.625	799.320
382.044	16.862	1064.721	798.770
383.059	16.820	1064.234	798.139
384.073	16.862	1063.273	797.543
385.088	16.852	1062.141	796.577
386.102	16.874	1061.185	795.892
387.117	16.837	1060.522	795.151
388.132	16.813	1059.717	794.365
389.146	16.840	1058.804	793.740
390.161	16.756	1058.195	792.816
391.175	16.774	1057.577	792.368
392.190	16.888	1057.241	792.579
393.205	17.051	1056.143	792.446
394.219	17.000	1055.389	791.572
395.234	16.810	1054.655	790.069
396.248	17.020	1053.149	789.849
397.263	16.939	1052.506	788.917
398.278	16.950	1051.537	788.172
399.292	16.953	1051.068	787.764
400.307	16.900	1050.483	787.011
401.321	16.844	1049.775	786.154
402.336	16.930	1049.140	786.005
403.350	17.058	1048.125	785.769
404.365	16.982	1047.767	785.077
405.380	16.973	1047.128	784.488
406.394	17.001	1046.546	784.114
407.409	17.089	1045.478	783.647
408.423	17.144	1045.000	783.475
409.438	17.141	1044.453	782.981
410.453	17.241	1043.564	782.705
411.467	17.296	1042.827	782.337
412.482	17.282	1042.042	781.617
413.496	17.329	1041.300	781.208
414.511	17.312	1041.050	780.869
415.526	17.399	1040.550	780.824
416.540	17.409	1040.094	780.462
417.555	17.409	1039.662	780.069
418.569	17.362	1039.174	779.415
419.584	17.439	1038.655	779.310
420.599	17.601	1037.765	779.316
421.613	105.105	1325.473	1477.112
422.628	96.379	1367.359	1477.181
