DTS Sentinel unit serial number:	SN413079Multiplexer serial number:	ORYXHardware model number:	OX4-SRSoftware version number:	ORYX F/W v4.00 Oryx Data Collector v3.7.2.0data status	okinstallation	princeton_trtdifferential loss correction	single-endedforward channel	channel 2reverse channel	N/Adate	2019/09/19time	03:03:35forward acquisition time	60.00reverse acquisition time	0.00gamma	496.2192k internal	0.2352k external	0.2352temperature offset calibration	1.0015default loss term (dB/km)	0.3790temperature slope calibration	1.0000multiplexer offset coefficient	1.0000multiplexer slope coefficient	1.0000fibre end	0.00T internal ref (°C)	20.81T ext. ref 1 (°C)	0.65T ext. ref 2 (°C)	14.52length (m)	temperature (°C)	Stokes	anti-Stokes-747.200	-31.919	-0.147	-0.082
-746.185	-24.865	-0.341	0.202
-745.171	-59.216	-0.094	0.040
-744.156	-45.932	-0.327	0.161
-743.142	84.174	0.247	-0.269
-742.127	800.000	-0.080	0.296
-741.112	-103.613	0.014	0.003
-740.098	185.355	-0.182	0.270
-739.083	238.262	0.195	-0.323
-738.069	-24.520	0.330	-0.196
-737.054	-200.000	0.050	-0.226
-736.039	-35.219	-0.229	-0.124
-735.025	-39.123	0.137	0.072
-734.010	10.802	-0.278	-0.212
-732.996	-200.000	0.035	0.267
-731.981	-47.496	-0.276	0.134
-730.966	8.557	0.238	0.178
-729.952	-113.233	-0.073	-0.014
-728.937	47.690	0.086	-0.080
-727.923	-52.215	-0.271	-0.125
-726.908	-59.124	-0.354	-0.152
-725.894	-200.000	0.057	-0.281
-724.879	725.354	-0.047	-0.125
-723.864	-143.889	0.266	0.025
-722.850	800.000	-0.055	-0.179
-721.835	800.000	-0.121	-0.468
-720.821	43.982	-0.451	-0.411
-719.806	112.389	-0.127	0.153
-718.791	64.085	0.035	-0.035
-717.777	-0.081	-0.095	-0.067
-716.762	-37.508	-0.316	0.168
-715.748	59.589	-0.028	-0.028
-714.733	766.508	0.048	0.130
-713.718	9.619	-0.251	0.189
-712.704	434.713	0.143	-0.310
-711.689	-200.000	-0.020	0.134
-710.675	-200.000	0.025	-0.361
-709.660	-200.000	0.003	-0.062
-708.645	279.153	0.099	-0.175
-707.631	-58.341	-0.139	-0.060
-706.616	-25.753	0.282	0.166
-705.602	8.916	-0.094	-0.070
-704.587	-22.011	-0.121	-0.073
-703.572	-126.809	0.254	-0.037
-702.558	8.540	-0.277	-0.208
-701.543	224.312	-0.108	0.174
-700.529	123.015	-0.300	-0.374
-699.514	-1.978	0.142	0.099
-698.499	243.776	0.148	-0.247
-697.485	-91.821	-0.271	0.077
-696.470	-181.388	-0.142	0.003
-695.456	264.054	-0.132	-0.229
-694.441	4.860	-0.163	-0.119
-693.426	90.930	-0.122	0.136
-692.412	108.583	-0.179	-0.213
-691.397	-200.000	0.070	-0.386
-690.383	-76.108	-0.288	0.101
-689.368	-200.000	0.032	-0.568
-688.354	50.842	-0.225	-0.212
-687.339	-69.684	0.331	-0.126
-686.324	-130.175	-0.061	-0.008
-685.310	800.000	-0.011	0.049
-684.295	-41.348	-0.209	-0.107
-683.281	-112.252	-0.233	-0.046
-682.266	19.406	0.108	0.086
-681.251	233.742	0.164	-0.269
-680.237	380.569	0.047	-0.095
-679.222	728.804	0.088	-0.233
-678.208	88.510	0.265	0.292
-677.193	-200.000	-0.010	0.056
-676.178	187.912	0.262	-0.389
-675.164	-138.520	-0.329	0.036
-674.149	-126.826	0.322	0.047
-673.135	-200.000	-0.003	0.091
-672.120	81.548	0.320	-0.345
-671.105	-86.109	-0.180	0.055
-670.091	-71.674	-0.119	0.044
-669.076	-46.220	0.276	0.135
-668.062	-21.193	0.225	-0.137
-667.047	-94.165	-0.228	-0.062
-666.032	278.827	-0.117	0.208
-665.018	-74.936	-0.217	-0.077
-664.003	301.366	-0.028	0.051
-662.989	-200.000	0.008	-0.111
-661.974	455.412	-0.064	-0.141
-660.959	143.889	-0.128	0.169
-659.945	-4.664	-0.256	-0.176
-658.930	102.883	-0.240	-0.280
-657.916	-90.032	0.390	-0.113
-656.901	800.000	-0.067	0.243
-655.886	-200.000	-0.048	-0.352
-654.872	187.738	0.041	-0.061
-653.857	33.125	0.079	-0.068
-652.843	-125.133	0.258	0.039
-651.828	-117.323	-0.145	-0.026
-650.814	-83.747	-0.157	-0.050
-649.799	-200.000	-0.018	-0.325
-648.784	334.010	0.220	-0.424
-647.770	86.384	0.091	-0.100
-646.755	410.278	0.058	-0.121
-645.741	483.254	0.085	0.192
-644.726	308.786	0.114	0.212
-643.711	800.000	0.041	0.145
-642.697	-200.000	-0.029	-0.138
-641.682	-109.726	-0.146	0.030
-640.668	-199.533	0.282	0.001
-639.653	-172.567	0.254	0.008
-638.638	-146.338	-0.399	-0.035
-637.624	-151.473	0.232	-0.017
-636.609	-200.000	-0.003	0.304
-635.595	-200.000	0.011	0.133
-634.580	-38.690	0.148	0.077
-633.565	-104.012	-0.397	-0.092
-632.551	401.721	-0.079	0.165
-631.536	-57.866	0.124	-0.054
-630.522	147.497	0.034	-0.045
-629.507	-118.638	0.241	0.042
-628.492	-72.870	0.051	0.019
-627.478	134.982	0.066	-0.085
-626.463	7.752	-0.248	0.185
-625.449	266.297	-0.068	0.118
-624.434	-82.792	-0.286	0.092
-623.419	133.552	-0.087	0.112
-622.405	800.000	0.100	-0.386
-621.390	-200.000	-0.011	0.208
-620.376	-149.666	0.262	-0.020
-619.361	-169.343	-0.164	-0.006
-618.346	-134.781	0.212	-0.026
-617.332	-17.852	0.186	-0.116
-616.317	800.000	-0.053	0.164
-615.303	-83.177	0.159	-0.051
-614.288	-144.004	0.181	0.017
-613.273	-38.190	0.153	-0.081
-612.259	5.823	-0.319	-0.234
-611.244	23.269	-0.133	0.108
-610.230	800.000	-0.139	0.409
-609.215	769.919	0.075	-0.203
-608.201	-200.000	-0.047	-0.305
-607.186	-90.716	-0.108	0.031
-606.171	575.018	-0.022	-0.053
-605.157	10.351	-0.229	0.173
-604.142	-130.385	-0.209	0.028
-603.128	-64.901	-0.199	-0.080
-602.113	-98.348	0.068	0.017
-601.098	73.776	0.122	-0.127
-600.084	177.691	0.101	-0.146
-599.069	-200.000	-0.063	0.276
-598.055	152.126	0.060	-0.081
-597.040	-26.506	-0.078	-0.045
-596.025	173.494	-0.151	0.216
-595.011	-56.786	-0.118	0.052
-593.996	103.862	-0.072	0.084
-592.982	-200.000	0.050	-0.240
-591.967	-11.426	0.257	-0.168
-590.952	14.181	0.155	-0.120
-589.938	-133.506	-0.109	-0.014
-588.923	-65.066	-0.086	-0.034
-587.909	-118.465	-0.329	-0.058
-586.894	-36.577	-0.233	0.124
-585.879	23.810	-0.080	-0.065
-584.865	-33.957	-0.345	-0.188
-583.850	800.000	0.070	-0.212
-582.836	800.000	0.081	-0.241
-581.821	-113.449	0.552	0.107
-580.806	-200.000	0.038	-0.268
-579.792	-200.000	0.000	0.129
-578.777	155.734	-0.157	0.214
-577.763	-200.000	-0.003	0.019
-576.748	117.149	-0.265	0.323
-575.733	800.000	0.105	0.332
-574.719	800.000	-0.029	-0.087
-573.704	-69.457	-0.244	0.093
-572.690	424.929	0.033	-0.071
-571.675	-102.103	-0.083	-0.020
-570.661	70.025	0.363	-0.372
-569.646	111.976	-0.149	-0.178
-568.631	325.085	-0.151	0.287
-567.617	-176.964	-0.215	-0.005
-566.602	214.607	0.217	-0.341
-565.588	-25.289	-0.309	0.181
-564.573	-200.000	-0.005	-0.169
-563.558	-87.920	-0.120	-0.036
-562.544	-102.699	-0.133	-0.031
-561.529	-153.982	0.347	0.023
-560.515	-40.351	0.095	-0.049
-559.500	139.693	-0.234	0.305
-558.485	-200.000	0.039	-0.286
-557.471	-195.186	-0.064	-0.000
-556.456	171.746	-0.098	0.140
-555.442	-14.466	-0.302	0.192
-554.427	-32.320	0.396	-0.219
-553.412	-5.248	0.145	-0.099
-552.398	156.677	-0.112	0.154
-551.383	-3.826	0.147	-0.101
-550.369	-57.279	0.137	-0.060
-549.354	-30.577	0.114	0.064
-548.339	-200.000	-0.020	-0.126
-547.325	575.189	0.128	-0.309
-546.310	-7.461	-0.070	0.047
-545.296	-76.174	-0.094	-0.033
-544.281	38.684	0.120	-0.106
-543.266	800.000	-0.085	0.320
-542.252	-200.000	-0.018	0.098
-541.237	-200.000	-0.071	-0.352
-540.223	122.171	0.040	0.049
-539.208	-2.814	0.136	0.094
-538.193	-87.369	0.310	-0.093
-537.179	141.981	-0.194	0.254
-536.164	-200.000	0.006	-0.345
-535.150	800.000	0.051	-0.162
-534.135	127.549	0.116	0.145
-533.121	-86.787	-0.324	-0.098
-532.106	30.020	-0.253	-0.213
-531.091	252.489	-0.139	0.235
-530.077	49.834	-0.153	0.142
-529.062	391.420	-0.045	-0.092
-528.048	-128.056	-0.146	0.021
-527.033	-31.025	-0.195	0.109
-526.018	-200.000	-0.075	0.441
-525.004	-200.000	-0.152	-0.000
-523.989	-37.340	-0.218	0.115
-522.975	-130.136	-0.360	-0.049
-521.960	-85.419	0.208	0.064
-520.945	-200.000	-0.034	-0.301
-519.931	800.000	0.092	0.361
-518.916	259.505	-0.061	-0.104
-517.902	300.322	-0.006	0.010
-516.887	39.125	0.106	0.094
-515.872	-108.424	0.440	0.094
-514.858	232.812	-0.112	0.182
-513.843	-200.000	0.007	-0.142
-512.829	800.000	-0.038	0.148
-511.814	87.768	-0.089	-0.098
-510.799	-147.606	0.144	0.012
-509.785	-200.000	-0.271	0.001
-508.770	-200.000	0.027	0.283
-507.756	59.632	0.224	0.218
-506.741	241.881	-0.031	0.052
-505.726	532.692	0.031	-0.072
-504.712	134.255	0.125	0.161
-503.697	-84.787	0.231	-0.072
-502.683	-93.461	-0.132	0.036
-501.668	-200.000	-0.017	0.216
-500.653	460.459	0.208	-0.459
-499.639	-34.754	-0.216	-0.117
-498.624	-106.688	-0.147	-0.032
-497.610	-67.239	-0.089	-0.035
-496.595	30.967	-0.259	-0.220
-495.581	-48.824	0.098	0.046
-494.566	75.001	-0.208	-0.216
-493.551	149.885	-0.045	-0.060
-492.537	167.093	0.190	-0.267
-491.522	12.988	-0.085	-0.065
-490.508	-200.000	-0.009	0.226
-489.493	-200.000	0.039	0.257
-488.478	285.231	-0.073	0.130
-487.464	-200.000	0.071	0.461
-486.449	-105.925	-0.431	0.096
-485.435	-200.000	-0.080	0.413
-484.420	800.000	-0.096	0.307
-483.405	-136.668	-0.287	-0.033
-482.391	-161.730	-0.036	-0.002
-481.376	553.867	-0.069	0.164
-480.362	535.049	-0.118	0.277
-479.347	-200.000	-0.003	0.371
-478.332	304.432	-0.240	0.439
-477.318	74.969	0.107	-0.111
-476.303	-63.025	0.344	-0.140
-475.289	-117.609	-0.358	-0.064
-474.274	-200.000	0.066	-0.308
-473.259	800.000	0.090	-0.349
-472.245	-58.589	-0.039	0.017
-471.230	-112.853	0.275	0.054
-470.216	304.884	0.147	-0.270
-469.201	-11.467	0.128	-0.083
-468.186	196.736	0.160	-0.241
-467.172	315.941	-0.183	0.341
-466.157	544.530	0.083	-0.195
-465.143	1.680	0.071	-0.051
-464.128	-45.514	0.176	0.086
-463.113	134.336	0.202	-0.258
-462.099	-46.986	0.251	0.121
-461.084	-157.318	0.297	-0.018
-460.070	39.470	0.178	-0.157
-459.055	-7.983	-0.143	-0.095
-458.040	-95.726	-0.257	-0.068
-457.026	63.897	-0.112	0.111
-456.011	3.961	0.102	0.074
-454.997	82.451	0.160	0.171
-453.982	422.843	-0.104	0.220
-452.968	-43.580	0.033	-0.016
-451.953	-77.270	-0.162	0.056
-450.938	800.000	-0.034	-0.096
-449.924	-114.338	0.339	0.064
-448.909	-200.000	0.048	0.213
-447.895	-161.401	-0.066	0.003
-446.880	399.539	-0.138	0.286
-445.865	-65.877	-0.056	-0.022
-444.851	800.000	-0.014	-0.046
-443.836	-2.026	-0.161	-0.111
-442.822	-81.538	0.411	-0.133
-441.807	-99.943	-0.108	0.027
-440.792	-57.596	0.292	0.126
-439.778	-42.813	-0.269	0.135
-438.763	-200.000	0.016	-0.076
-437.749	-175.972	0.260	0.007
-436.734	-41.164	-0.091	-0.046
-435.719	800.000	0.050	-0.191
-434.705	-200.000	-0.004	-0.106
-433.690	39.439	-0.048	0.042
-432.676	-200.000	0.003	0.055
-431.661	-200.000	0.109	-0.656
-430.646	12.058	-0.132	-0.100
-429.632	272.161	0.013	-0.023
-428.617	238.843	0.082	-0.134
-427.603	-50.252	-0.233	-0.108
-426.588	349.263	-0.078	-0.151
-425.573	759.813	0.044	0.117
-424.559	-168.635	-0.045	-0.002
-423.544	-53.426	-0.129	-0.058
-422.530	128.809	0.076	0.095
-421.515	-82.381	0.059	-0.019
-420.500	-8.524	0.123	-0.081
-419.486	271.068	0.201	0.348
-418.471	-45.891	-0.334	0.162
-417.457	-200.000	-0.030	0.285
-416.442	-2.689	-0.037	-0.026
-415.428	-73.390	0.110	0.040
-414.413	33.985	-0.143	-0.123
-413.398	800.000	0.063	-0.195
-412.384	96.676	-0.147	-0.165
-411.369	-200.000	0.001	0.070
-410.355	-92.344	0.061	-0.017
-409.340	800.000	0.040	-0.154
-408.325	-200.000	0.017	-0.348
-407.311	188.269	-0.181	0.266
-406.296	58.717	-0.329	0.318
-405.282	328.067	0.111	0.210
-404.267	800.000	-0.044	-0.148
-403.252	-105.524	0.465	-0.104
-402.238	-22.541	-0.110	0.065
-401.223	-127.299	0.237	0.034
-400.209	238.493	-0.028	0.046
-399.194	-80.340	-0.132	0.043
-398.179	-177.919	-0.237	0.006
-397.165	-80.865	0.438	-0.143
-396.150	-179.676	-0.114	-0.002
-395.136	-200.000	-0.041	-0.194
-394.121	800.000	0.114	-0.437
-393.106	131.212	0.115	0.145
-392.092	705.594	-0.014	-0.037
-391.077	-136.633	0.124	0.014
-390.063	244.149	-0.143	-0.236
-389.048	-63.305	0.077	-0.031
-388.033	-200.000	-0.002	0.166
-387.019	-54.666	-0.351	0.156
-386.004	-200.000	-0.007	-0.285
-384.990	-66.894	0.034	0.013
-383.975	-27.931	0.142	0.081
-382.960	169.623	0.181	0.255
-381.946	303.661	-0.168	0.306
-380.931	-115.053	0.262	-0.049
-379.917	-87.195	0.123	-0.037
-378.902	230.990	-0.173	0.278
-377.888	-200.000	-0.017	-0.103
-376.873	2.347	-0.084	-0.060
-375.858	21.087	-0.277	-0.221
-374.844	-133.536	-0.239	0.029
-373.829	60.287	-0.024	0.024
-372.815	800.000	0.062	0.198
-371.800	-40.767	-0.148	0.075
-370.785	534.530	0.055	0.129
-369.771	216.677	0.110	0.173
-368.756	30.272	-0.081	0.068
-367.742	800.000	0.124	0.459
-366.727	-200.000	-0.044	0.204
-365.712	-120.915	0.128	-0.021
-364.698	-7.217	-0.055	-0.037
-363.683	-200.000	-0.031	0.270
-362.669	-123.863	-0.108	0.017
-361.654	-200.000	0.280	0.000
-360.639	0.682	0.156	-0.110
-359.625	-124.615	-0.257	-0.039
-358.610	800.000	0.123	-0.366
-357.596	-129.018	0.123	-0.017
-356.581	151.891	-0.052	0.070
-355.566	800.000	-0.118	-0.424
-354.552	241.907	0.148	0.243
-353.537	-16.309	-0.191	-0.119
-352.523	-200.000	-0.066	-0.287
-351.508	769.945	-0.061	0.162
-350.493	-179.932	0.493	0.010
-349.479	-200.000	0.013	0.063
-348.464	10.126	-0.133	-0.099
-347.450	800.000	-0.032	-0.130
-346.435	-133.980	-0.055	-0.007
-345.420	380.453	0.128	-0.257
-344.406	-74.803	-0.345	-0.122
-343.391	-142.657	-0.103	-0.010
-342.377	-200.000	-0.007	0.085
-341.362	339.186	-0.161	0.309
-340.348	-3.024	-0.079	-0.054
-339.333	155.430	0.205	-0.278
-338.318	800.000	0.026	0.103
-337.304	-54.918	-0.211	0.093
-336.289	-200.000	-0.005	0.050
-335.275	-200.000	0.003	0.031
-334.260	154.061	0.173	-0.233
-333.245	-105.315	0.111	0.025
-332.231	53.728	0.174	0.164
-331.216	-64.754	0.368	-0.146
-330.202	-84.288	-0.287	0.089
-329.187	-133.920	-0.216	-0.026
-328.172	103.839	0.095	-0.109
-327.158	228.277	-0.157	-0.251
-326.143	-78.634	0.226	-0.076
-325.129	482.118	0.055	-0.123
-324.114	800.000	0.061	0.209
-323.099	-65.348	0.150	-0.059
-322.085	-4.704	0.114	-0.077
-321.070	800.000	-0.091	-0.255
-320.056	110.831	-0.203	0.240
-319.041	-91.369	0.123	0.035
-318.026	-30.829	-0.211	0.117
-317.012	89.642	-0.115	-0.126
-315.997	-28.390	0.422	0.239
-314.983	50.814	-0.295	0.274
-313.968	527.689	-0.017	-0.039
-312.953	-174.529	-0.319	-0.009
-311.939	113.504	0.155	-0.184
-310.924	431.907	0.152	-0.323
-309.910	125.253	-0.161	-0.199
-308.895	245.007	-0.183	0.302
-307.880	-107.371	0.055	-0.012
-306.866	70.078	-0.129	0.131
-305.851	-143.466	0.145	-0.014
-304.837	-57.762	-0.324	-0.139
-303.822	-56.288	-0.059	0.026
-302.807	-146.998	-0.111	0.009
-301.793	322.203	-0.188	-0.352
-300.778	-200.000	-0.022	0.128
-299.764	-200.000	0.000	0.107
-298.749	274.783	-0.183	0.317
-297.735	262.446	-0.192	-0.327
-296.720	29.370	-0.046	0.038
-295.705	97.114	-0.252	0.284
-294.691	207.823	-0.065	0.100
-293.676	203.237	-0.029	0.045
-292.662	95.668	-0.195	-0.218
-291.647	91.070	0.248	0.273
-290.632	-8.361	0.353	0.233
-289.618	-51.114	-0.060	-0.028
-288.603	-82.690	-0.251	0.080
-287.589	390.018	0.096	-0.195
-286.574	-200.000	-0.002	0.039
-285.559	39.361	0.228	0.200
-284.545	87.467	0.382	-0.414
-283.530	22.037	0.063	0.050
-282.516	9.805	-0.107	0.079
-281.501	9.762	0.063	0.047
-280.486	800.000	-0.080	0.254
-279.472	-200.000	-0.010	0.372
-278.457	87.189	0.082	-0.088
-277.443	13.282	-0.343	-0.261
-276.428	-136.798	0.338	0.038
-275.413	29.667	-0.260	-0.217
-274.399	-200.000	-0.023	-0.236
-273.384	773.635	-0.053	0.140
-272.370	800.000	0.127	-0.362
-271.355	-200.000	-0.020	-0.085
-270.340	-104.638	-0.140	-0.032
-269.326	212.784	-0.064	0.099
-268.311	3.433	0.151	-0.108
-267.297	-200.000	0.041	0.198
-266.282	-200.000	0.032	0.183
-265.267	-44.956	-0.065	0.032
-264.253	321.112	-0.011	0.021
-263.238	-3.672	0.376	0.256
-262.224	-80.985	-0.267	0.087
-261.209	-200.000	0.018	-0.077
-260.195	159.464	0.166	0.227
-259.180	23.132	0.055	-0.044
-258.165	800.000	-0.174	-0.554
-257.151	800.000	-0.071	-0.199
-256.136	76.671	0.131	-0.136
-255.122	800.000	0.053	0.165
-254.107	85.743	0.098	0.105
-253.092	371.994	0.063	-0.126
-252.078	800.000	-0.015	0.045
-251.063	-200.000	0.015	0.068
-250.049	-159.521	-0.045	0.002
-249.034	-159.073	-0.464	-0.026
-248.019	218.792	0.041	0.064
-247.005	270.045	0.034	-0.059
-245.990	-95.538	0.087	-0.023
-244.976	43.544	-0.081	0.072
-243.961	-149.908	0.055	-0.004
-242.946	-76.627	-0.340	0.117
-241.932	-58.965	-0.288	0.122
-240.917	348.958	-0.074	-0.142
-239.903	-200.000	0.051	0.355
-238.888	254.666	-0.094	0.157
-237.873	641.731	0.178	-0.443
-236.859	-47.774	-0.181	0.086
-235.844	-70.073	0.415	0.154
-234.830	-70.812	0.401	-0.148
-233.815	170.082	0.092	0.129
-232.800	-117.642	-0.406	0.071
-231.786	800.000	0.068	-0.271
-230.771	-103.962	0.196	0.045
-229.757	-101.447	-0.259	0.062
-228.742	210.307	0.232	-0.356
-227.727	-67.831	-0.267	-0.102
-226.713	165.685	0.130	0.179
-225.698	24.395	0.192	-0.155
-224.684	219.319	0.120	0.187
-223.669	-200.000	0.057	0.426
-222.655	-200.000	-0.014	-0.124
-221.640	-30.880	0.376	0.208
-220.625	-200.000	0.074	-0.331
-219.611	368.833	0.020	-0.040
-218.596	-116.393	0.116	0.021
-217.582	-30.554	0.117	-0.065
-216.567	-200.000	0.061	0.266
-215.552	-200.000	0.012	0.136
-214.538	0.352	0.078	-0.054
-213.523	-107.550	-0.084	0.018
-212.509	-200.000	0.007	-0.222
-211.494	14.330	0.153	0.116
-210.479	-183.218	0.154	0.003
-209.465	144.358	-0.015	-0.019
-208.450	-200.000	0.008	-0.059
-207.436	800.000	0.085	0.229
-206.421	-113.244	-0.119	-0.023
-205.406	662.055	0.029	-0.073
-204.392	131.540	0.140	-0.175
-203.377	-200.000	-0.007	-0.087
-202.363	542.492	-0.013	0.030
-201.348	-37.234	-0.094	0.049
-200.333	-59.894	-0.069	-0.029
-199.319	610.982	-0.111	0.270
-198.304	-20.543	-0.190	0.114
-197.290	800.000	-0.059	0.175
-196.275	-33.904	0.061	0.033
-195.260	-200.000	0.017	0.210
-194.246	107.431	0.085	-0.099
-193.231	447.011	-0.012	0.026
-192.217	-200.000	0.071	0.000
-191.202	423.400	0.148	0.310
-190.187	-200.000	0.002	-0.034
-189.173	-15.893	0.241	-0.150
-188.158	-200.000	-0.006	-0.249
-187.144	-19.845	0.208	-0.126
-186.129	-40.164	0.099	-0.050
-185.114	478.211	0.019	0.041
-184.100	-111.714	0.136	0.027
-183.085	94.600	-0.219	-0.243
-182.071	-84.500	-0.358	0.110
-181.056	-98.537	-0.202	-0.050
-180.042	-69.441	0.228	0.085
-179.027	73.556	0.246	0.251
-178.012	-96.423	-0.133	-0.034
-176.998	310.005	0.030	0.054
-175.983	155.315	0.174	-0.234
-174.969	-200.000	0.001	-0.257
-173.954	-200.000	-0.001	0.048
-172.939	-24.164	-0.099	-0.058
-171.925	800.000	0.008	0.024
-170.910	333.381	0.169	-0.318
-169.896	-52.174	0.185	-0.084
-168.881	-200.000	-0.010	-0.054
-167.866	-200.000	0.060	-0.363
-166.852	-40.929	0.131	0.066
-165.837	-107.544	-0.204	-0.043
-164.823	636.611	-0.080	0.197
-163.808	-12.851	0.245	0.156
-162.793	179.052	0.040	0.057
-161.779	175.265	0.165	-0.233
-160.764	-169.705	0.566	0.020
-159.750	-62.232	0.247	-0.100
-158.735	-48.494	-0.185	0.087
-157.720	24.086	-0.173	0.140
-156.706	-200.000	0.008	0.208
-155.691	234.585	0.135	-0.217
-154.677	800.000	-0.013	-0.053
-153.662	-200.000	-0.025	-0.173
-152.647	546.103	-0.098	-0.229
-151.633	115.544	0.127	0.152
-150.618	-200.000	0.002	0.035
-149.604	-148.270	0.146	-0.012
-148.589	-30.942	0.147	-0.081
-147.574	-101.469	-0.210	-0.050
-146.560	-54.761	-0.180	-0.079
-145.545	-200.000	-0.052	0.251
-144.531	83.777	-0.290	-0.308
-143.516	-200.000	-0.018	0.097
-142.502	-72.930	-0.250	-0.089
-141.487	-109.664	0.090	-0.018
-140.472	-19.344	0.366	0.221
-139.458	-200.000	-0.030	0.376
-138.443	-85.665	0.149	0.045
-137.429	482.219	0.057	-0.125
-136.414	52.514	-0.278	0.259
-135.399	800.000	0.089	0.289
-134.385	-200.000	-0.010	0.181
-133.370	-75.807	-0.121	-0.042
-132.356	-142.980	0.097	0.009
-131.341	-16.579	0.169	0.104
-130.326	18.236	0.110	0.085
-129.312	800.000	-0.014	0.048
-128.297	800.000	-0.014	0.044
-127.283	-64.162	-0.369	0.147
-126.268	-4.639	0.299	-0.201
-125.253	-47.851	-0.390	-0.184
-124.239	12.641	0.137	0.103
-123.224	800.000	0.038	0.127
-122.210	145.433	0.111	0.145
-121.195	-111.450	0.207	-0.041
-120.180	800.000	-0.044	-0.159
-119.166	267.809	0.135	-0.230
-118.151	242.179	-0.063	-0.102
-117.137	304.492	-0.132	-0.239
-116.122	-22.295	0.143	0.084
-115.107	800.000	0.081	-0.274
-114.093	-200.000	-0.015	0.073
-113.078	-173.870	0.190	0.005
-112.064	-125.292	-0.132	-0.020
-111.049	-87.263	0.242	-0.072
-110.034	331.809	0.121	0.226
-109.020	243.676	0.065	-0.106
-108.005	-62.196	0.549	0.223
-106.991	292.113	0.035	-0.062
-105.976	149.364	0.179	0.236
-104.962	66.454	-0.252	-0.249
-103.947	279.402	0.107	-0.187
-102.932	-123.936	0.176	0.027
-101.918	-84.465	-0.193	0.059
-100.903	-79.988	-0.131	0.043
-99.889	-200.000	0.043	-0.364
-98.874	557.691	-0.140	-0.329
-97.859	-137.322	-0.593	0.065
-96.845	348.689	-0.026	0.050
-95.830	800.000	-0.101	0.287
-94.816	-200.000	0.010	-0.128
-93.801	800.000	0.044	-0.176
-92.786	-128.975	-0.081	0.011
-91.772	-35.440	0.080	0.042
-90.757	-200.000	-0.048	-0.250
-89.743	-1.374	-0.174	-0.120
-88.728	16.910	0.132	0.102
-87.713	5.318	0.121	0.086
-86.699	146.287	-0.136	0.177
-85.684	-200.000	-0.000	-0.067
-84.670	800.000	-0.076	0.265
-83.655	-173.002	-0.313	-0.009
-82.640	-161.174	-0.018	-0.001
-81.626	33.021	0.317	0.267
-80.611	-83.837	0.233	-0.072
-79.597	-200.000	0.014	0.073
-78.582	-39.656	0.229	-0.116
-77.567	800.000	-0.025	0.087
-76.553	6.286	0.172	0.124
-75.538	46.634	0.194	-0.175
-74.524	-51.736	0.296	-0.134
-73.509	85.229	0.138	-0.147
-72.494	175.454	-0.149	0.209
-71.480	214.492	0.279	0.429
-70.465	-146.436	-0.170	-0.014
-69.451	-142.562	0.184	-0.018
-68.436	-98.688	0.174	0.043
-67.422	63.414	0.170	-0.165
-66.407	-118.985	0.133	0.023
-65.392	-54.471	-0.081	0.036
-64.378	-200.000	0.013	0.090
-63.363	800.000	0.097	-0.341
-62.349	-200.000	0.042	0.259
-61.334	52.239	-1.133	-1.049
-60.319	339.682	0.527	0.997
-59.305	721.277	-0.584	-1.508
-58.290	800.000	0.536	1.703
-57.276	800.000	0.400	1.456
-56.261	-200.000	135.855	681.652
-55.246	340.690	1678.355	3181.122
-54.232	133.966	2814.077	3537.913
-53.217	82.441	2314.247	2438.379
-52.203	29.623	1911.430	1578.736
-51.188	23.781	1707.364	1365.385
-50.173	21.773	1669.633	1320.057
-49.159	43.933	1742.471	1549.480
-48.144	40.829	1751.453	1533.498
-47.130	23.433	1702.173	1358.351
-46.115	20.947	1686.844	1327.163
-45.100	20.780	1682.289	1322.256
-44.086	20.724	1680.004	1319.989
-43.071	20.680	1677.148	1317.355
-42.057	20.669	1674.934	1315.480
-41.042	20.709	1672.665	1313.950
-40.027	20.648	1671.194	1312.282
-39.013	20.625	1669.400	1310.645
-37.998	20.657	1668.045	1309.775
-36.984	20.757	1666.258	1309.072
-35.969	20.807	1665.268	1308.613
-34.954	20.811	1663.754	1307.400
-33.940	20.769	1662.121	1305.756
-32.925	20.801	1660.109	1304.363
-31.911	20.773	1658.346	1302.717
-30.896	20.746	1656.942	1301.361
-29.881	20.779	1655.457	1300.390
-28.867	20.798	1653.648	1299.059
-27.852	20.748	1652.572	1297.790
-26.838	20.752	1651.394	1296.842
-25.823	20.817	1649.415	1295.720
-24.809	20.875	1648.119	1295.077
-23.794	20.770	1647.464	1293.734
-22.779	20.791	1645.668	1292.427
-21.765	20.899	1643.437	1291.420
-20.750	20.847	1642.325	1290.111
-19.736	20.864	1640.988	1289.139
-18.721	20.926	1639.335	1288.244
-17.706	20.835	1638.169	1286.607
-16.692	20.772	1637.021	1285.191
-15.677	20.781	1635.653	1284.130
-14.663	20.922	1633.750	1283.627
-13.648	20.919	1632.329	1282.438
-12.633	20.961	1630.174	1281.002
-11.619	20.888	1629.241	1279.680
-10.604	20.807	1627.764	1277.875
-9.590	20.850	1626.449	1277.106
-8.575	20.969	1624.901	1276.712
-7.560	20.853	1623.835	1274.976
-6.546	20.858	1623.127	1274.406
-5.531	20.818	1622.244	1273.366
-4.517	20.815	1620.843	1272.197
-3.502	20.824	1619.709	1271.321
-2.487	20.949	1618.220	1271.011
-1.473	20.514	1605.210	1257.599
-0.458	17.441	1586.238	1220.675
0.556	12.953	1588.578	1190.141
1.571	10.745	1613.061	1192.181
2.586	10.608	1624.973	1199.867
3.600	10.007	1569.982	1154.868
4.615	5.701	1465.059	1048.822
5.629	1.509	1408.512	981.232
6.644	0.773	1401.943	971.844
7.659	0.670	1401.322	970.664
8.673	0.567	1400.638	969.440
9.688	0.610	1397.931	967.761
10.702	0.497	1394.345	964.471
11.717	2.625	1397.078	979.887
12.731	8.568	1405.700	1023.990
13.746	14.629	1415.638	1070.110
14.761	16.980	1419.114	1087.737
15.775	16.611	1416.820	1083.517
16.790	15.706	1414.269	1075.686
17.804	14.925	1412.000	1068.872
18.819	14.566	1410.539	1065.383
19.834	14.285	1409.209	1062.490
20.848	14.134	1407.295	1059.988
21.863	13.770	1406.764	1057.180
22.877	13.605	1405.496	1055.081
23.892	13.564	1404.519	1053.995
24.907	13.596	1403.414	1053.275
25.921	13.610	1402.417	1052.520
26.936	13.585	1402.192	1052.097
27.950	13.705	1400.556	1051.540
28.965	13.743	1399.611	1050.976
29.980	13.746	1398.306	1049.927
30.994	13.841	1397.690	1049.970
32.009	13.770	1397.010	1048.918
33.023	13.732	1395.663	1047.572
34.038	13.828	1394.365	1047.111
35.053	13.744	1393.245	1045.648
36.067	13.765	1392.198	1044.904
37.082	13.673	1391.432	1043.658
38.096	13.830	1389.626	1043.194
39.111	13.709	1389.884	1042.535
40.126	13.764	1388.285	1041.592
41.140	13.563	1388.211	1040.178
42.155	13.585	1387.106	1039.397
43.169	13.595	1387.110	1039.375
44.184	13.635	1386.643	1039.182
45.199	13.607	1386.270	1038.637
46.213	13.676	1385.863	1038.668
47.228	13.711	1384.349	1037.665
48.242	13.704	1383.527	1036.909
49.257	13.750	1381.554	1035.629
50.271	13.692	1380.786	1034.600
51.286	13.698	1379.421	1033.522
52.301	13.732	1377.733	1032.377
53.315	13.672	1376.752	1031.177
54.330	13.652	1375.408	1029.954
55.344	13.637	1374.653	1029.205
56.359	13.630	1373.629	1028.303
57.374	13.546	1372.815	1027.080
58.388	13.651	1371.957	1027.003
59.403	13.635	1371.535	1026.496
60.417	13.532	1370.958	1025.333
61.432	13.527	1369.511	1024.128
62.447	13.423	1368.754	1022.831
63.461	13.479	1367.595	1022.219
64.476	13.515	1365.939	1021.116
65.490	13.463	1365.119	1020.090
66.505	13.589	1363.314	1019.427
67.520	13.561	1362.229	1018.354
68.534	13.553	1361.385	1017.585
69.549	13.506	1360.584	1016.606
70.563	13.473	1359.768	1015.706
71.578	13.530	1357.912	1014.578
72.593	13.542	1357.155	1013.993
73.607	13.475	1356.095	1012.706
74.622	13.515	1355.491	1012.410
75.636	13.542	1354.733	1011.920
76.651	13.483	1354.245	1011.100
77.666	13.468	1353.505	1010.372
78.680	13.583	1352.385	1010.142
79.695	13.489	1352.020	1009.212
80.709	13.545	1350.747	1008.510
81.724	13.549	1350.516	1008.275
82.739	13.523	1350.104	1007.717
83.753	13.558	1348.760	1006.839
84.768	13.770	1347.066	1006.770
85.782	13.769	1346.224	1006.046
86.797	13.731	1344.883	1004.726
87.812	13.744	1343.509	1003.688
88.826	13.642	1342.242	1002.035
89.841	13.691	1341.239	1001.499
90.855	13.638	1340.972	1000.890
91.870	13.824	1339.527	1000.842
92.884	13.760	1338.411	999.537
93.899	13.811	1337.745	999.254
94.914	13.871	1336.877	998.881
95.928	13.822	1336.086	997.908
96.943	13.730	1335.594	996.895
97.957	13.761	1334.405	996.108
98.972	13.643	1333.337	994.514
99.987	13.672	1332.760	994.169
101.001	13.665	1331.360	992.994
102.016	13.718	1330.330	992.460
103.030	13.811	1329.342	992.188
104.045	13.683	1328.829	990.952
105.060	13.691	1327.201	989.698
106.074	13.655	1325.709	988.282
107.089	13.575	1324.699	986.967
108.103	13.543	1323.417	985.735
109.118	13.537	1322.009	984.561
110.133	13.582	1320.292	983.463
111.147	13.589	1319.037	982.487
112.162	13.576	1317.649	981.288
113.176	13.728	1316.376	981.148
114.191	13.676	1315.837	980.353
115.206	13.648	1314.566	979.154
116.220	13.716	1313.606	978.754
117.235	13.729	1312.366	977.822
118.249	13.694	1311.467	976.856
119.264	13.790	1309.872	976.150
120.279	13.734	1308.776	974.914
121.293	13.718	1307.651	973.900
122.308	13.656	1306.939	972.916
123.322	13.627	1306.107	972.041
124.337	13.639	1304.661	970.953
125.352	13.629	1303.134	969.671
126.366	13.711	1302.194	969.361
127.381	13.572	1301.380	967.863
128.395	13.679	1300.201	967.522
129.410	13.641	1299.295	966.540
130.424	13.620	1298.362	965.641
131.439	13.680	1297.339	965.144
132.454	13.755	1295.762	964.320
133.468	13.588	1295.744	963.251
134.483	13.620	1294.982	962.783
135.497	13.587	1293.911	961.710
136.512	13.657	1292.221	960.775
137.527	13.725	1291.145	960.284
138.541	13.642	1289.990	958.860
139.556	13.662	1288.524	957.799
140.570	13.819	1286.880	957.401
141.585	13.840	1285.712	956.568
142.600	13.774	1284.994	955.570
143.614	13.916	1283.958	955.532
144.629	13.902	1282.710	954.437
145.643	13.846	1281.880	953.411
146.658	13.904	1280.343	952.518
147.673	13.838	1279.189	951.195
148.687	13.866	1277.648	950.128
149.702	13.806	1276.763	949.041
150.716	13.774	1275.425	947.784
151.731	13.866	1274.199	947.311
152.746	13.809	1273.427	946.326
153.760	13.939	1271.577	945.611
154.775	13.957	1270.637	944.930
155.789	14.000	1269.716	944.408
156.804	13.994	1268.353	943.273
157.819	14.009	1267.260	942.466
158.833	14.096	1266.087	942.003
159.848	14.094	1265.528	941.488
160.862	14.077	1264.644	940.650
161.877	13.997	1263.679	939.398
162.892	13.925	1262.772	938.234
163.906	13.936	1261.401	937.196
164.921	13.870	1260.781	936.282
165.935	13.970	1259.865	936.081
166.950	14.100	1259.212	936.242
167.964	13.998	1258.447	935.019
168.979	14.073	1257.545	934.688
169.994	14.041	1256.716	933.808
171.008	14.057	1255.908	933.215
172.023	14.194	1254.765	933.051
173.037	14.204	1254.185	932.595
174.052	14.063	1253.603	931.291
175.067	14.040	1252.409	930.192
176.081	14.099	1251.407	929.696
177.096	14.153	1250.345	929.124
178.110	14.075	1248.788	927.453
179.125	14.122	1247.858	926.938
180.140	14.190	1246.314	926.088
181.154	14.214	1244.859	925.060
182.169	14.117	1244.211	923.957
183.183	14.188	1243.310	923.599
184.198	14.203	1242.265	922.824
185.213	14.235	1240.728	921.779
186.227	14.291	1239.275	920.929
187.242	14.278	1238.856	920.466
188.256	14.407	1237.317	919.952
189.271	14.376	1236.275	918.927
190.286	14.409	1235.243	918.257
191.300	14.169	1235.164	916.794
192.315	14.265	1234.007	916.382
193.329	14.166	1233.504	915.385
194.344	14.269	1232.827	915.368
195.359	14.389	1232.524	915.722
196.373	14.250	1232.364	914.756
197.388	14.382	1231.103	914.466
198.402	14.528	1230.797	914.959
199.417	14.399	1230.475	913.928
200.432	14.556	1229.086	913.679
201.446	14.532	1228.252	912.844
202.461	14.618	1227.017	912.316
203.475	14.595	1226.364	911.624
204.490	14.461	1225.697	910.318
205.504	14.522	1224.241	909.486
206.519	14.572	1222.811	908.617
207.534	14.467	1221.425	906.933
208.548	14.518	1220.640	906.548
209.563	14.566	1220.084	906.315
210.577	14.691	1218.579	905.797
211.592	14.682	1218.011	905.248
212.607	14.710	1217.264	904.762
213.621	14.641	1216.359	903.634
214.636	14.643	1215.552	902.968
215.650	14.743	1214.162	902.394
216.665	14.707	1213.387	901.546
217.680	14.568	1213.177	900.558
218.694	14.795	1211.779	900.666
219.709	14.806	1210.857	899.962
220.723	14.751	1210.205	899.102
221.738	14.861	1209.487	899.077
222.753	14.790	1209.065	898.301
223.767	14.956	1207.476	897.937
224.782	14.849	1207.313	897.157
225.796	14.946	1206.474	896.978
226.811	14.987	1205.707	896.545
227.826	14.926	1205.116	895.703
228.840	14.905	1204.347	894.940
229.855	14.819	1204.228	894.308
230.869	14.844	1203.046	893.486
231.884	14.894	1202.129	892.995
232.899	14.888	1201.271	892.247
233.913	14.877	1200.555	891.576
234.928	14.870	1199.714	890.838
235.942	14.825	1199.052	890.025
236.957	14.857	1198.285	889.550
237.972	14.903	1197.098	888.834
238.986	14.993	1196.802	889.010
240.001	14.951	1195.894	888.035
241.015	14.963	1194.714	887.144
242.030	15.076	1194.363	887.407
243.045	14.996	1193.735	886.437
244.059	14.990	1192.715	885.569
245.074	14.987	1192.185	885.078
246.088	15.100	1191.335	884.966
247.103	15.059	1190.636	884.152
248.117	15.129	1189.387	883.515
249.132	15.156	1188.871	883.198
250.147	15.209	1188.119	882.839
251.161	15.217	1187.234	882.146
252.176	15.189	1186.800	881.598
253.190	15.271	1185.885	881.271
254.205	15.349	1185.845	881.575
255.220	15.271	1185.046	880.492
256.234	15.398	1184.279	880.513
257.249	15.375	1183.607	879.815
258.263	15.332	1182.833	878.936
259.278	15.368	1182.290	878.643
260.293	15.547	1181.554	878.958
261.307	15.424	1180.931	877.768
262.322	15.466	1180.254	877.411
263.336	15.501	1179.359	876.851
264.351	15.586	1178.606	876.655
265.366	15.641	1177.855	876.304
266.380	15.630	1177.128	875.630
267.395	15.626	1176.281	874.900
268.409	15.563	1176.055	874.330
269.424	15.565	1175.480	873.835
270.439	15.567	1175.140	873.513
271.453	15.566	1173.985	872.572
272.468	15.608	1173.194	872.123
273.482	15.435	1172.604	870.714
274.497	15.483	1172.126	870.531
275.512	15.711	1171.299	871.017
276.526	15.672	1170.235	869.950
277.541	15.623	1169.539	869.100
278.555	15.779	1168.540	869.090
279.570	15.620	1168.265	867.984
280.585	15.765	1167.007	867.722
281.599	15.721	1166.083	866.732
282.614	15.709	1165.449	866.123
283.628	15.667	1164.075	864.809
284.643	15.662	1163.519	864.293
285.657	15.721	1162.456	863.732
286.672	15.801	1161.347	863.241
287.687	15.921	1160.562	863.195
288.701	15.820	1159.965	862.159
289.716	15.844	1158.921	861.426
290.730	15.823	1158.253	860.747
291.745	15.988	1157.392	860.877
292.760	16.004	1156.569	860.266
293.774	15.964	1156.514	859.945
294.789	16.022	1155.681	859.547
295.803	15.998	1155.002	858.846
296.818	16.016	1154.034	858.141
297.833	16.011	1153.356	857.532
298.847	15.880	1153.122	856.617
299.862	15.974	1152.070	856.237
300.876	16.018	1151.414	855.900
301.891	16.111	1150.415	855.550
302.906	16.015	1149.741	854.487
303.920	16.086	1149.371	854.499
304.935	16.008	1148.747	853.562
305.949	16.121	1147.993	853.499
306.964	16.310	1146.950	853.604
307.979	16.190	1147.003	852.960
308.993	16.156	1146.047	852.002
310.008	16.155	1145.075	851.198
311.022	16.249	1144.120	850.887
312.037	16.193	1143.239	849.878
313.052	16.204	1142.122	849.027
314.066	16.281	1141.202	848.654
315.081	16.203	1140.655	847.779
316.095	16.233	1139.946	847.331
317.110	16.166	1139.515	846.596
318.125	16.276	1138.304	846.176
319.139	16.243	1137.387	845.255
320.154	16.261	1136.980	844.966
321.168	16.291	1136.839	844.936
322.183	16.323	1136.154	844.514
323.197	16.301	1134.920	843.410
324.212	16.356	1134.594	843.370
325.227	16.406	1134.254	843.287
326.241	16.442	1133.207	842.614
327.256	16.287	1132.578	841.300
328.270	16.375	1131.451	840.829
329.285	16.337	1130.848	840.115
330.300	16.411	1129.704	839.561
331.314	16.416	1128.744	838.800
332.329	16.371	1128.425	838.262
333.343	16.324	1127.217	837.058
334.358	16.510	1126.101	837.075
335.373	16.449	1125.461	836.227
336.387	16.506	1124.491	835.712
337.402	16.520	1124.273	835.545
338.416	16.586	1123.036	834.876
339.431	16.572	1122.877	834.616
340.446	16.563	1121.889	833.761
341.460	16.580	1121.539	833.513
342.475	16.488	1120.794	832.434
343.489	16.694	1118.808	831.898
344.504	16.747	1118.112	831.564
345.519	16.666	1117.683	830.773
346.533	16.728	1116.893	830.419
347.548	16.694	1116.261	829.708
348.562	16.812	1115.097	829.346
349.577	16.813	1114.471	828.813
350.592	16.731	1113.833	827.864
351.606	16.759	1112.568	826.987
352.621	16.745	1112.139	826.529
353.635	16.601	1111.518	825.291
354.650	16.763	1110.933	825.572
355.665	16.842	1110.072	825.246
356.679	16.808	1109.811	824.810
357.694	16.832	1108.730	824.053
358.708	16.886	1107.828	823.570
359.723	16.815	1107.469	822.890
360.738	16.909	1106.835	822.799
361.752	16.976	1106.004	822.434
362.767	16.854	1105.746	821.580
363.781	16.961	1105.029	821.493
364.796	17.113	1104.158	821.505
365.810	17.072	1104.019	821.133
366.825	16.969	1103.288	820.018
367.840	17.058	1102.523	819.808
368.854	17.202	1101.899	819.966
369.869	17.005	1101.521	818.661
370.883	17.041	1100.422	817.945
371.898	17.148	1099.539	817.729
372.913	17.081	1099.514	817.317
373.927	17.072	1098.848	816.707
374.942	17.215	1098.270	816.893
375.956	17.006	1097.844	815.498
376.971	17.205	1096.700	815.533
377.986	17.214	1096.393	815.276
379.000	17.175	1096.135	814.824
380.015	17.231	1095.206	814.332
381.029	17.247	1094.513	813.821
382.044	17.294	1093.919	813.532
383.059	17.239	1093.343	812.765
384.073	17.449	1091.862	812.599
385.088	17.338	1091.254	811.542
386.102	17.280	1090.416	810.571
387.117	17.327	1089.118	809.757
388.132	17.312	1088.542	809.189
389.146	17.344	1087.440	808.449
390.161	17.286	1087.022	807.790
391.175	17.295	1086.506	807.378
392.190	17.460	1085.495	807.337
393.205	17.614	1084.389	807.176
394.219	17.501	1083.772	806.107
395.234	17.426	1082.978	805.094
396.248	17.459	1081.860	804.347
397.263	17.466	1081.021	803.682
398.278	17.416	1080.734	803.162
399.292	17.504	1079.554	802.632
400.307	17.435	1078.779	801.660
401.321	17.495	1078.469	801.639
402.336	17.573	1077.545	801.248
403.350	17.589	1076.781	800.686
404.365	17.599	1076.715	800.613
405.380	17.607	1075.279	799.512
406.394	17.551	1074.768	798.799
407.409	17.624	1074.032	798.520
408.423	17.693	1072.925	797.953
409.438	17.632	1072.829	797.523
410.453	17.632	1072.077	796.891
411.467	17.789	1071.108	796.834
412.482	17.733	1070.661	796.173
413.496	17.846	1069.696	795.910
414.511	17.900	1068.960	795.545
415.526	17.786	1069.348	795.233
416.540	17.848	1068.835	795.070
417.555	17.831	1067.793	794.143
418.569	17.881	1067.071	793.768
419.584	17.937	1067.025	793.923
420.599	17.958	1066.423	793.504
421.613	109.524	1333.407	1491.696
422.628	101.274	1372.236	1491.763
