DTS Sentinel unit serial number:	SN413079Multiplexer serial number:	ORYXHardware model number:	OX4-SRSoftware version number:	ORYX F/W v4.00 Oryx Data Collector v3.7.2.0data status	okinstallation	princeton_trtdifferential loss correction	single-endedforward channel	channel 2reverse channel	N/Adate	2019/09/13time	01:39:35forward acquisition time	60.00reverse acquisition time	0.00gamma	496.2192k internal	0.2334k external	0.2334temperature offset calibration	1.0173default loss term (dB/km)	0.3790temperature slope calibration	1.0000multiplexer offset coefficient	1.0000multiplexer slope coefficient	1.0000fibre end	0.00T internal ref (°C)	27.75T ext. ref 1 (°C)	3.77T ext. ref 2 (°C)	22.40length (m)	temperature (°C)	Stokes	anti-Stokes-747.200	-200.000	0.008	0.112
-746.185	-200.000	-0.004	0.162
-745.171	-200.000	0.060	0.430
-744.156	202.144	-0.217	0.337
-743.142	23.287	-0.297	-0.245
-742.127	-200.000	0.011	0.352
-741.112	-35.593	-0.353	-0.193
-740.098	135.906	-0.125	0.163
-739.083	-5.752	0.234	-0.161
-738.069	-2.800	0.150	0.105
-737.054	-1.887	-0.182	0.128
-736.039	-25.302	-0.056	-0.033
-735.025	225.140	0.078	0.128
-734.010	-22.200	-0.300	0.183
-732.996	52.814	-0.252	0.242
-731.981	-58.934	0.111	0.048
-730.966	-200.000	0.032	-0.282
-729.952	-200.000	0.026	0.184
-728.937	206.817	-0.104	0.163
-727.923	-90.730	-0.409	-0.119
-726.908	800.000	0.031	0.086
-725.894	-22.547	-0.359	-0.218
-724.879	800.000	-0.054	-0.164
-723.864	-141.719	0.369	0.037
-722.850	-40.513	-0.285	-0.148
-721.835	-26.828	-0.334	-0.196
-720.821	-200.000	-0.012	0.259
-719.806	-63.586	0.278	-0.115
-718.791	-200.000	0.010	0.210
-717.777	-200.000	-0.014	-0.112
-716.762	64.069	-0.169	-0.171
-715.748	800.000	0.117	0.483
-714.733	26.643	0.241	-0.203
-713.718	443.861	-0.080	-0.177
-712.704	-58.607	0.082	0.036
-711.689	-164.833	-0.076	-0.003
-710.675	578.666	0.021	-0.051
-709.660	137.689	0.036	0.047
-708.645	-25.928	0.212	0.126
-707.631	800.000	-0.032	0.116
-706.616	-68.085	0.109	-0.043
-705.602	800.000	0.076	-0.271
-704.587	-2.420	-0.237	0.167
-703.572	96.041	0.094	-0.108
-702.558	-200.000	0.106	-0.000
-701.543	-3.468	0.030	-0.021
-700.529	800.000	-0.012	-0.035
-699.514	82.149	0.199	-0.216
-698.499	12.195	0.142	0.110
-697.485	800.000	-0.045	-0.152
-696.470	-200.000	-0.036	-0.238
-695.456	-112.162	-0.301	0.061
-694.441	10.230	-0.069	-0.053
-693.426	-200.000	0.070	0.354
-692.412	-21.563	-0.126	0.077
-691.397	405.815	-0.096	-0.204
-690.383	-136.708	-0.196	-0.023
-689.368	-200.000	-0.028	-0.234
-688.354	-61.923	-0.180	0.076
-687.339	60.325	-0.315	0.313
-686.324	40.438	0.256	0.232
-685.310	-200.000	0.004	0.023
-684.295	117.357	-0.099	-0.122
-683.281	-200.000	0.002	0.224
-682.266	-200.000	0.023	-0.132
-681.251	236.991	-0.023	0.038
-680.237	317.408	-0.073	0.138
-679.222	-164.191	0.246	0.011
-678.208	39.197	-0.221	-0.198
-677.193	163.740	-0.230	-0.324
-676.178	-84.435	0.287	-0.091
-675.164	171.852	-0.140	-0.202
-674.149	-200.000	0.011	-0.352
-673.135	50.364	-0.045	0.043
-672.120	1.224	0.260	0.187
-671.105	44.780	0.232	0.214
-670.091	-80.679	0.009	0.003
-669.076	-82.602	-0.154	0.050
-668.062	151.702	-0.180	0.247
-667.047	-50.497	-0.151	-0.071
-666.032	63.722	-0.036	-0.036
-665.018	-134.530	-0.310	-0.038
-664.003	93.836	0.086	-0.098
-662.989	800.000	-0.041	-0.175
-661.974	382.208	0.060	-0.123
-660.959	-35.799	-0.126	-0.069
-659.945	-40.794	-0.365	0.189
-658.930	-14.467	-0.341	0.220
-657.916	-200.000	-0.054	0.254
-656.901	173.050	-0.105	0.152
-655.886	7.490	-0.218	-0.164
-654.872	15.312	-0.196	-0.154
-653.857	95.094	0.188	-0.215
-652.843	108.895	-0.238	0.285
-651.828	-6.177	-0.107	-0.073
-650.814	-94.302	-0.261	0.071
-649.799	17.127	0.204	0.162
-648.784	-126.703	-0.150	0.022
-647.770	-79.907	0.292	-0.098
-646.755	-129.933	-0.121	-0.017
-645.741	34.616	0.126	-0.110
-644.726	-146.238	0.217	0.019
-643.711	-68.664	0.103	-0.040
-642.697	-200.000	-0.016	-0.265
-641.682	101.478	-0.326	-0.381
-640.668	-99.531	0.233	0.059
-639.653	-200.000	0.002	-0.330
-638.638	96.673	-0.126	0.145
-637.624	-83.655	0.076	-0.024
-636.609	348.324	-0.061	0.121
-635.595	112.279	0.159	-0.193
-634.580	-200.000	-0.065	0.000
-633.565	-114.258	-0.166	-0.032
-632.551	-47.358	0.096	0.047
-631.536	83.034	-0.181	-0.197
-630.522	-200.000	0.054	0.441
-629.507	91.296	0.223	-0.250
-628.492	88.430	0.194	-0.216
-627.478	-49.552	0.080	0.038
-626.463	-83.673	-0.273	-0.087
-625.449	221.922	0.221	-0.355
-624.434	17.488	-0.299	-0.238
-623.419	102.409	-0.129	-0.151
-622.405	-26.559	0.061	-0.035
-621.390	454.164	0.086	0.190
-620.376	-59.781	-0.060	-0.026
-619.361	-200.000	-0.001	-0.233
-618.346	-51.062	0.192	0.090
-617.332	-73.182	0.367	0.134
-616.317	116.718	-0.269	0.330
-615.303	7.376	0.090	0.067
-614.288	-173.214	-0.275	0.008
-613.273	-0.772	-0.224	0.159
-612.259	-162.722	0.040	-0.002
-611.244	-182.360	-0.226	0.004
-610.230	-43.853	0.052	0.026
-609.215	20.319	0.266	-0.215
-608.201	-90.192	-0.237	0.069
-607.186	78.803	0.125	-0.134
-606.171	108.206	-0.099	0.118
-605.157	-200.000	0.008	-0.099
-604.142	-200.000	0.004	-0.178
-603.128	271.897	0.080	0.140
-602.113	37.722	-0.246	0.218
-601.098	-200.000	-0.028	0.194
-600.084	-103.462	-0.350	0.082
-599.069	-200.000	-0.065	0.300
-598.055	-129.738	0.331	-0.046
-597.040	-30.856	0.383	-0.216
-596.025	628.395	0.177	-0.448
-595.011	-35.985	-0.195	0.106
-593.996	-75.216	0.134	0.048
-592.982	-42.995	0.124	0.063
-591.967	-73.648	-0.189	0.069
-590.952	-200.000	0.039	-0.174
-589.938	277.891	-0.258	0.458
-588.923	-118.772	0.136	0.024
-587.909	-200.000	-0.029	0.142
-586.894	90.727	0.105	-0.118
-585.879	107.180	-0.079	-0.093
-584.865	-88.289	-0.108	-0.032
-583.850	565.082	0.173	0.418
-582.836	104.065	-0.289	-0.340
-581.821	568.420	-0.047	-0.114
-580.806	800.000	0.048	-0.150
-579.792	539.006	-0.076	0.180
-578.777	-200.000	0.020	0.244
-577.763	800.000	-0.116	-0.461
-576.748	44.062	0.222	0.204
-575.733	800.000	-0.037	-0.129
-574.719	492.352	0.054	0.124
-573.704	-9.394	-0.117	-0.078
-572.690	-200.000	-0.090	-0.397
-571.675	800.000	-0.032	-0.139
-570.661	162.763	0.179	-0.251
-569.646	-200.000	0.043	-0.212
-568.631	-76.257	0.230	-0.081
-567.617	137.794	-0.217	-0.283
-566.602	497.974	-0.061	0.139
-565.588	29.123	-0.030	0.025
-564.573	800.000	0.016	0.061
-563.558	-118.158	0.190	-0.034
-562.544	-200.000	0.028	-0.255
-561.529	-5.399	0.361	0.247
-560.515	-70.597	-0.281	0.106
-559.500	329.055	-0.077	-0.147
-558.485	462.152	-0.182	0.405
-557.471	800.000	0.157	-0.455
-556.456	-200.000	-0.026	0.154
-555.442	167.312	-0.195	0.277
-554.427	-147.322	-0.058	0.005
-553.412	519.296	0.086	-0.200
-552.398	800.000	-0.117	0.334
-551.383	-3.154	0.036	-0.025
-550.369	-81.755	-0.293	-0.096
-549.354	-200.000	0.029	-0.264
-548.339	-107.714	-0.246	-0.054
-547.325	9.536	0.252	0.190
-546.310	-88.105	-0.209	-0.062
-545.296	-146.348	-0.132	0.012
-544.281	29.604	0.204	0.173
-543.266	-78.309	-0.085	0.029
-542.252	36.992	0.124	0.110
-541.237	-41.989	0.105	-0.054
-540.223	273.942	-0.153	0.269
-539.208	-121.588	-0.356	0.059
-538.193	-36.317	0.167	-0.090
-537.179	-81.168	0.116	0.038
-536.164	-126.480	-0.465	0.069
-535.150	-170.878	-0.379	-0.013
-534.135	442.651	-0.093	-0.203
-533.121	800.000	0.099	0.420
-532.106	-75.135	-0.103	-0.037
-531.091	157.905	-0.076	-0.104
-530.077	-127.210	-0.386	-0.056
-529.062	668.289	0.143	-0.369
-528.048	-138.678	-0.291	0.032
-527.033	619.308	0.114	-0.286
-526.018	-82.571	-0.185	-0.060
-525.004	-200.000	-0.014	-0.075
-523.989	133.553	0.167	0.216
-522.975	-16.562	0.262	0.165
-521.960	-18.437	-0.236	-0.147
-520.945	183.640	-0.030	-0.045
-519.931	-42.877	0.118	0.060
-518.916	24.137	0.276	-0.227
-517.902	17.849	-0.212	0.168
-516.887	-169.255	0.086	-0.003
-515.872	-132.305	0.134	0.017
-514.858	-200.000	0.005	0.497
-513.843	-122.197	-0.325	0.053
-512.829	-152.892	-0.213	-0.015
-511.814	317.962	-0.141	0.266
-510.799	333.056	0.027	0.052
-509.785	-10.154	0.216	-0.143
-508.770	-125.455	-0.451	-0.068
-507.756	99.207	0.221	0.255
-506.741	47.943	0.214	0.200
-505.726	88.142	-0.114	-0.126
-504.712	-98.765	0.238	-0.060
-503.697	133.851	0.196	-0.252
-502.683	-92.023	-0.182	0.051
-501.668	134.998	0.124	0.160
-500.653	-92.967	-0.220	0.061
-499.639	62.196	-0.018	0.018
-498.624	328.275	-0.074	0.141
-497.610	800.000	0.046	0.169
-496.595	91.501	-0.076	0.085
-495.581	-52.437	-0.242	-0.111
-494.566	-146.566	-0.371	-0.032
-493.551	-200.000	-0.013	0.170
-492.537	665.992	0.006	0.014
-491.522	800.000	0.086	0.329
-490.508	800.000	-0.054	0.196
-489.493	800.000	-0.053	-0.184
-488.478	186.135	0.091	-0.135
-487.464	-61.274	-0.127	0.053
-486.449	89.550	-0.281	0.312
-485.435	563.278	0.034	-0.083
-484.420	-3.446	0.290	0.201
-483.405	245.472	-0.101	-0.169
-482.391	800.000	-0.085	-0.341
-481.376	500.420	0.110	0.253
-480.362	452.740	-0.063	0.139
-479.347	266.159	-0.157	0.272
-478.332	-200.000	0.008	0.211
-477.318	-200.000	-0.018	-0.357
-476.303	173.037	0.170	0.243
-475.289	3.370	-0.145	0.105
-474.274	-32.357	-0.196	-0.109
-473.259	150.629	-0.043	-0.058
-472.245	-8.207	0.126	0.084
-471.230	-200.000	0.075	-0.329
-470.216	-185.346	0.312	-0.005
-469.201	452.905	-0.211	0.463
-468.186	38.402	-0.056	0.050
-467.172	-110.738	-0.064	-0.013
-466.157	-200.000	-0.000	-0.265
-465.143	-91.728	-0.101	-0.028
-464.128	56.956	-0.067	0.065
-463.113	-200.000	-0.003	-0.084
-462.099	-200.000	0.007	-0.109
-461.084	28.508	0.203	-0.171
-460.070	-200.000	0.011	0.105
-459.055	-55.215	-0.242	0.108
-458.040	-33.073	-0.080	-0.044
-457.026	-109.904	0.066	0.014
-456.011	49.213	-0.095	0.089
-454.997	387.708	-0.114	-0.234
-453.982	82.922	-0.123	0.133
-452.968	-47.080	0.348	-0.169
-451.953	88.720	-0.181	-0.200
-450.938	-16.141	0.394	0.249
-449.924	155.137	-0.090	0.123
-448.909	800.000	-0.086	-0.258
-447.895	-95.488	-0.121	0.032
-446.880	-200.000	0.002	-0.216
-445.865	-56.820	0.072	-0.031
-444.851	211.374	-0.186	0.291
-443.836	-143.489	-0.462	-0.044
-442.822	-72.552	-0.163	0.060
-441.807	800.000	-0.053	0.193
-440.792	-99.943	-0.189	0.047
-439.778	325.212	-0.081	0.153
-438.763	76.398	0.151	0.159
-437.749	4.217	0.265	-0.193
-436.734	800.000	0.072	-0.208
-435.719	433.509	0.088	0.189
-434.705	-103.788	-0.224	-0.052
-433.690	181.802	-0.084	-0.122
-432.676	-200.000	-0.000	-0.117
-431.661	-200.000	0.024	-0.240
-430.646	-139.018	-0.231	-0.025
-429.632	-104.556	-0.402	-0.092
-428.617	70.631	0.222	-0.228
-427.603	388.860	-0.075	0.154
-426.588	800.000	-0.058	-0.237
-425.573	-107.603	-0.260	-0.057
-424.559	-200.000	0.044	-0.249
-423.544	131.770	-0.195	0.249
-422.530	-23.068	-0.117	0.070
-421.515	800.000	0.103	0.296
-420.500	800.000	-0.084	-0.283
-419.486	-113.599	0.316	0.061
-418.471	-15.936	-0.118	0.074
-417.457	484.847	0.076	0.171
-416.442	-50.136	-0.243	0.114
-415.428	-26.600	0.126	-0.073
-414.413	84.934	0.134	0.146
-413.398	-102.010	-0.362	-0.087
-412.384	-200.000	-0.072	-0.000
-411.369	-200.000	0.043	-0.189
-410.355	394.826	-0.078	0.162
-409.340	-200.000	0.061	-0.386
-408.325	-135.639	-0.071	0.008
-407.311	-16.953	0.055	0.034
-406.296	595.686	0.043	0.106
-405.282	677.397	-0.090	-0.232
-404.267	-59.202	-0.190	0.081
-403.252	-200.000	0.042	-0.296
-402.238	-142.640	0.174	-0.017
-401.223	-200.000	0.002	0.150
-400.209	53.574	-0.183	0.175
-399.194	190.298	0.278	0.414
-398.179	800.000	0.039	0.118
-397.165	-55.632	0.302	0.134
-396.150	97.624	0.102	-0.116
-395.136	-29.247	0.180	-0.102
-394.121	-70.547	0.061	0.023
-393.106	-56.406	-0.390	-0.172
-392.092	800.000	-0.090	-0.280
-391.077	26.489	-0.179	-0.149
-390.063	-200.000	-0.057	-0.300
-389.048	-200.000	-0.011	0.256
-388.033	192.337	-0.121	0.181
-387.019	-200.000	-0.034	-0.155
-386.004	-200.000	-0.017	0.097
-384.990	228.273	-0.099	-0.159
-383.975	56.523	0.116	-0.112
-382.960	-146.185	-0.199	-0.017
-381.946	-15.335	0.205	-0.130
-380.931	-87.286	0.184	0.055
-379.917	125.871	-0.179	-0.224
-378.902	435.887	-0.158	0.341
-377.888	241.647	0.021	0.035
-376.873	800.000	0.099	0.271
-375.858	-37.591	0.107	0.057
-374.844	-59.077	-0.052	-0.022
-373.829	-200.000	-0.008	0.116
-372.815	-200.000	-0.001	0.094
-371.800	75.081	-0.079	-0.083
-370.785	79.791	0.185	-0.197
-369.771	124.400	0.241	-0.300
-368.756	-5.953	-0.161	0.109
-367.742	-89.872	0.195	-0.056
-366.727	-200.000	-0.048	0.359
-365.712	-146.985	0.272	-0.023
-364.698	-102.544	-0.120	-0.028
-363.683	213.703	0.082	0.128
-362.669	699.889	0.130	-0.340
-361.654	800.000	0.068	-0.188
-360.639	380.770	0.121	-0.245
-359.625	68.927	0.067	-0.068
-358.610	-2.275	-0.281	-0.195
-357.596	388.687	0.067	0.137
-356.581	120.647	-0.272	-0.334
-355.566	132.449	0.165	-0.210
-354.552	423.618	-0.077	0.163
-353.537	178.789	0.215	0.311
-352.523	533.208	-0.081	0.190
-351.508	436.599	-0.041	-0.089
-350.493	-132.819	0.288	0.036
-349.479	-56.803	0.186	0.081
-348.464	800.000	0.008	-0.035
-347.450	41.224	0.012	-0.010
-346.435	800.000	-0.013	0.057
-345.420	-23.120	-0.419	-0.250
-344.406	193.711	0.462	0.693
-343.391	4.681	0.247	0.180
-342.377	465.721	-0.116	-0.257
-341.362	800.000	0.159	-0.458
-340.348	800.000	0.047	0.172
-339.333	32.965	0.238	0.204
-338.318	-156.615	0.248	0.015
-337.304	40.357	0.022	-0.020
-336.289	140.863	-0.072	-0.094
-335.275	675.286	-0.108	0.277
-334.260	-148.574	-0.450	0.036
-333.245	348.516	0.079	-0.154
-332.231	-120.595	0.219	0.037
-331.216	483.984	-0.104	0.235
-330.202	800.000	0.158	-0.474
-329.187	-180.037	0.362	0.008
-328.172	-26.651	0.124	-0.072
-327.158	461.303	-0.132	-0.291
-326.143	-93.357	0.200	-0.055
-325.129	-200.000	0.021	0.268
-324.114	-36.944	0.010	-0.006
-323.099	-200.000	-0.016	-0.396
-322.085	-128.963	-0.130	0.018
-321.070	298.217	-0.189	0.343
-320.056	163.755	-0.061	0.084
-319.041	518.197	-0.050	-0.116
-318.026	-45.637	0.135	-0.066
-317.012	-64.229	0.132	-0.053
-315.997	516.358	0.117	0.271
-314.983	-125.447	-0.169	0.025
-313.968	295.320	0.207	-0.375
-312.953	-48.107	0.067	0.032
-311.939	118.220	-0.175	-0.213
-310.924	-103.025	0.084	0.020
-309.910	-200.000	0.035	-0.168
-308.895	800.000	0.042	-0.121
-307.880	-200.000	0.008	0.055
-306.866	235.023	0.209	-0.341
-305.851	581.174	0.132	-0.321
-304.837	-54.252	0.291	0.131
-303.822	210.325	0.059	-0.091
-302.807	98.484	0.090	-0.103
-301.793	185.878	-0.172	-0.253
-300.778	800.000	-0.035	0.126
-299.764	-112.414	0.257	0.051
-298.749	-200.000	0.021	0.097
-297.735	-153.776	0.353	-0.024
-296.720	-120.787	-0.094	-0.016
-295.705	375.735	0.074	0.149
-294.691	-166.837	0.531	-0.022
-293.676	657.441	0.099	0.252
-292.662	-72.103	-0.246	-0.090
-291.647	29.755	-0.194	0.163
-290.632	57.401	-0.266	0.256
-289.618	28.134	0.198	0.165
-288.603	-36.581	-0.265	-0.141
-287.589	-200.000	0.016	0.234
-286.574	14.534	-0.170	0.131
-285.559	-149.665	-0.369	0.029
-284.545	-200.000	0.034	0.195
-283.530	469.529	0.148	-0.327
-282.516	558.040	-0.085	-0.202
-281.501	800.000	0.065	0.210
-280.486	28.180	-0.094	0.078
-279.472	100.104	0.070	-0.080
-278.457	-124.033	0.234	0.036
-277.443	-43.536	-0.178	0.089
-276.428	-119.757	0.064	-0.011
-275.413	96.449	0.281	0.318
-274.399	87.653	-0.265	-0.290
-273.384	571.124	0.121	-0.292
-272.370	595.136	-0.127	0.311
-271.355	238.723	0.166	0.271
-270.340	800.000	0.101	0.419
-269.326	-61.323	0.330	-0.137
-268.311	-48.568	0.138	0.065
-267.297	7.458	0.134	0.099
-266.282	290.426	-0.183	0.327
-265.267	2.088	-0.147	-0.105
-264.253	-160.844	0.061	0.003
-263.238	-91.495	0.377	-0.106
-262.224	63.824	-0.048	0.047
-261.209	-143.134	0.127	-0.012
-260.195	-39.529	-0.349	0.180
-259.180	409.683	-0.074	-0.155
-258.165	185.065	0.082	-0.119
-257.151	478.191	0.201	0.449
-256.136	-75.628	-0.274	0.096
-255.122	413.059	0.253	0.531
-254.107	-38.904	0.089	-0.046
-253.092	174.563	-0.210	-0.300
-252.078	12.540	-0.102	-0.078
-251.063	57.753	0.190	0.183
-250.049	-148.627	0.355	0.029
-249.034	-102.392	-0.148	-0.035
-248.019	-66.317	-0.075	-0.030
-247.005	800.000	-0.016	-0.053
-245.990	800.000	0.086	-0.257
-244.976	-200.000	0.058	0.294
-243.961	-200.000	-0.017	-0.319
-242.946	-175.230	0.113	0.003
-241.932	-55.744	-0.123	-0.054
-240.917	100.723	0.140	-0.160
-239.903	-141.569	-0.421	0.042
-238.888	95.334	-0.117	0.131
-237.873	-161.042	0.203	-0.010
-236.859	-60.432	0.149	0.062
-235.844	154.378	0.103	0.139
-234.830	-91.738	0.279	-0.078
-233.815	-39.768	0.274	0.141
-232.800	-200.000	-0.026	-0.381
-231.786	-78.498	-0.307	-0.104
-230.771	-200.000	-0.014	-0.151
-229.757	-200.000	-0.084	0.373
-228.742	465.810	-0.047	-0.103
-227.727	-200.000	-0.056	0.376
-226.713	800.000	0.068	-0.197
-225.698	-81.147	0.160	0.052
-224.684	103.927	0.055	-0.064
-223.669	-136.108	0.133	-0.015
-222.655	125.454	0.171	0.213
-221.640	-126.677	0.158	-0.023
-220.625	127.639	0.149	-0.186
-219.611	-127.239	-0.144	0.021
-218.596	-99.799	0.130	-0.032
-217.582	800.000	-0.039	0.139
-216.567	-200.000	0.008	0.062
-215.552	-133.798	0.119	0.015
-214.538	-21.408	0.213	0.128
-213.523	-200.000	0.080	0.414
-212.509	84.524	0.094	-0.101
-211.494	384.092	-0.169	-0.343
-210.479	79.728	0.108	0.114
-209.465	88.408	0.110	0.120
-208.450	-200.000	-0.010	0.135
-207.436	-124.032	-0.137	0.021
-206.421	-200.000	-0.036	0.356
-205.406	-43.199	0.107	0.053
-204.392	-82.516	-0.131	-0.042
-203.377	111.498	-0.016	-0.019
-202.363	-121.060	-0.320	0.053
-201.348	-200.000	0.046	-0.262
-200.333	169.871	0.181	-0.254
-199.319	-200.000	0.007	-0.115
-198.304	-23.550	0.139	-0.082
-197.290	800.000	-0.063	0.195
-196.275	-200.000	0.003	-0.058
-195.260	-200.000	-0.041	0.283
-194.246	701.915	-0.062	-0.161
-193.231	-105.829	-0.148	-0.033
-192.217	189.949	-0.068	-0.101
-191.202	128.189	0.133	0.167
-190.187	7.096	0.052	-0.038
-189.173	800.000	0.084	0.338
-188.158	3.164	0.163	-0.116
-187.144	255.601	0.108	0.182
-186.129	-200.000	-0.024	-0.148
-185.114	-200.000	0.009	0.137
-184.100	71.662	-0.084	-0.086
-183.085	-200.000	0.029	-0.234
-182.071	-154.795	-0.240	-0.016
-181.056	201.668	-0.137	-0.207
-180.042	556.179	0.119	-0.283
-179.027	37.589	0.037	0.032
-178.012	-147.315	0.265	-0.022
-176.998	64.108	-0.253	-0.250
-175.983	800.000	-0.008	0.026
-174.969	-69.516	0.289	-0.109
-173.954	283.235	0.084	-0.148
-172.939	407.004	0.054	-0.112
-171.925	800.000	0.085	0.296
-170.910	800.000	0.043	-0.126
-169.896	62.150	0.137	-0.134
-168.881	-53.592	0.320	-0.144
-167.866	750.034	-0.086	-0.229
-166.852	-182.661	0.089	-0.002
-165.837	-139.652	-0.457	-0.048
-164.823	-102.343	0.220	0.052
-163.808	-74.353	0.342	-0.121
-162.793	-132.920	0.106	0.013
-161.779	1.859	0.162	-0.115
-160.764	295.535	-0.275	0.494
-159.750	30.709	-0.184	-0.155
-158.735	231.891	0.103	0.166
-157.720	-0.250	-0.208	0.145
-156.706	800.000	-0.079	0.247
-155.691	-52.046	-0.267	0.122
-154.677	133.671	-0.138	-0.175
-153.662	111.849	-0.211	0.250
-152.647	-191.615	0.101	-0.001
-151.633	-102.234	-0.307	0.072
-150.618	-132.031	0.387	0.049
-149.604	-96.036	-0.456	0.119
-148.589	-15.403	-0.042	0.026
-147.574	800.000	0.013	0.038
-146.560	252.639	0.092	-0.153
-145.545	-29.186	-0.181	-0.102
-144.531	36.939	-0.264	-0.230
-143.516	-200.000	0.018	-0.125
-142.502	800.000	0.057	0.163
-141.487	-200.000	-0.045	-0.271
-140.472	-35.499	-0.021	-0.011
-139.458	-25.173	0.227	0.132
-138.443	-51.557	-0.425	0.195
-137.429	-75.407	0.081	0.028
-136.414	-128.504	0.216	-0.030
-135.399	800.000	-0.095	0.297
-134.385	356.619	-0.134	0.263
-133.370	0.865	0.255	-0.179
-132.356	-200.000	-0.010	0.390
-131.341	-106.939	-0.094	-0.020
-130.326	-94.229	0.195	0.052
-129.312	-6.155	-0.157	0.105
-128.297	-200.000	-0.000	-0.036
-127.283	-38.810	0.120	-0.062
-126.268	-94.102	0.326	0.088
-125.253	82.105	0.082	-0.087
-124.239	-200.000	-0.012	0.070
-123.224	-63.370	-0.101	-0.041
-122.210	-103.973	0.257	0.059
-121.195	-87.245	-0.119	0.036
-120.180	536.169	0.092	0.214
-119.166	-200.000	0.008	0.360
-118.151	170.577	-0.222	0.311
-117.137	8.155	-0.094	-0.069
-116.122	53.866	0.393	0.370
-115.107	-200.000	-0.014	0.544
-114.093	-153.348	0.144	0.010
-113.078	94.398	0.159	0.178
-112.064	445.884	-0.148	0.320
-111.049	12.596	-0.091	0.069
-110.034	492.125	0.143	0.322
-109.020	138.706	0.129	0.166
-108.005	46.147	-0.307	0.278
-106.991	-58.989	0.245	-0.104
-105.976	-117.138	0.352	0.063
-104.962	-200.000	0.059	0.355
-103.947	-109.827	0.110	0.023
-102.932	-20.658	-0.125	-0.075
-101.918	-187.688	0.192	-0.002
-100.903	-200.000	0.070	-0.354
-99.889	-66.411	0.324	0.126
-98.874	-52.806	-0.060	0.027
-97.859	-109.083	0.317	-0.066
-96.845	-200.000	-0.016	0.263
-95.830	152.419	-0.271	0.363
-94.816	-54.667	-0.523	0.232
-93.801	344.188	-0.066	-0.126
-92.786	174.992	-0.141	-0.200
-91.772	-15.022	-0.129	0.081
-90.757	-200.000	-0.037	0.256
-89.743	-56.715	0.372	0.161
-88.728	389.550	0.099	0.201
-87.713	-39.072	0.278	-0.143
-86.699	-200.000	0.020	0.117
-85.684	800.000	0.074	-0.275
-84.670	68.638	-0.278	-0.279
-83.655	-200.000	-0.074	0.567
-82.640	-200.000	-0.030	0.321
-81.626	61.233	0.222	-0.216
-80.611	72.654	0.169	-0.172
-79.597	-86.156	0.087	0.026
-78.582	68.474	0.127	0.127
-77.567	141.207	-0.266	-0.344
-76.553	98.916	0.196	-0.222
-75.538	74.266	0.158	0.162
-74.524	-135.404	-0.197	0.023
-73.509	800.000	-0.025	-0.090
-72.494	424.642	0.244	0.515
-71.480	284.888	-0.181	0.319
-70.465	-44.550	0.175	-0.086
-69.451	38.116	0.192	-0.168
-68.436	-82.061	0.081	-0.026
-67.422	-200.000	0.090	0.501
-66.407	168.075	-0.084	0.117
-65.392	-129.589	0.156	0.021
-64.378	-5.625	-0.223	-0.150
-63.363	13.910	-0.187	-0.142
-62.349	-47.531	0.253	0.121
-61.334	56.962	-0.783	-0.746
-60.319	-200.000	0.112	0.511
-59.305	-200.000	0.113	-1.220
-58.290	612.420	0.565	1.383
-57.276	480.440	0.657	1.459
-56.261	-200.000	114.254	651.809
-55.246	537.585	1522.917	3540.586
-54.232	178.212	2691.204	3843.155
-53.217	103.190	2280.970	2616.161
-52.203	36.940	1890.538	1635.953
-51.188	31.011	1680.457	1409.446
-50.173	28.369	1638.689	1354.854
-49.159	50.128	1693.616	1564.226
-48.144	49.080	1707.763	1569.377
-47.130	30.539	1666.054	1393.603
-46.115	27.921	1651.411	1361.818
-45.100	27.622	1646.501	1355.490
-44.086	27.583	1644.618	1353.599
-43.071	27.651	1641.040	1351.103
-42.057	27.657	1639.024	1349.430
-41.042	27.693	1636.896	1347.893
-40.027	27.612	1635.073	1345.744
-39.013	27.573	1632.887	1343.603
-37.998	27.627	1631.013	1342.403
-36.984	27.650	1630.549	1342.139
-35.969	27.682	1628.855	1340.924
-34.954	27.752	1626.686	1339.601
-33.940	27.738	1625.263	1338.268
-32.925	27.773	1623.249	1336.818
-31.911	27.756	1621.966	1335.583
-30.896	27.692	1620.246	1333.646
-29.881	27.716	1618.418	1332.265
-28.867	27.684	1616.968	1330.783
-27.852	27.768	1614.987	1329.714
-26.838	27.829	1613.223	1328.649
-25.823	27.733	1612.530	1327.332
-24.809	27.797	1610.910	1326.404
-23.794	27.782	1609.681	1325.235
-22.779	27.760	1608.303	1323.887
-21.765	27.753	1606.425	1322.236
-20.750	27.742	1605.244	1321.136
-19.736	27.872	1603.781	1320.817
-18.721	27.798	1602.467	1319.150
-17.706	27.784	1600.677	1317.521
-16.692	27.723	1599.465	1316.029
-15.677	27.875	1598.148	1315.991
-14.663	27.920	1596.332	1314.767
-13.648	27.767	1595.296	1312.761
-12.633	27.781	1593.665	1311.465
-11.619	27.782	1592.173	1310.194
-10.604	27.794	1590.527	1308.874
-9.590	27.809	1589.267	1307.891
-8.575	27.750	1588.922	1307.133
-7.560	27.810	1587.431	1306.288
-6.546	27.794	1586.285	1305.177
-5.531	27.682	1585.598	1303.760
-4.517	27.815	1583.566	1302.986
-3.502	27.757	1582.882	1301.955
-2.487	27.793	1581.368	1300.921
-1.473	27.516	1569.108	1288.818
-0.458	24.651	1549.510	1252.628
0.556	22.731	1551.347	1221.400
1.571	20.375	1574.252	1222.753
2.586	19.858	1587.020	1228.891
3.600	17.907	1532.899	1173.483
4.615	11.024	1426.869	1048.032
5.629	4.817	1367.155	965.685
6.644	3.713	1359.497	953.382
7.659	3.681	1358.939	952.708
8.673	3.796	1357.638	952.419
9.688	3.889	1355.351	951.304
10.702	3.705	1352.998	948.434
11.717	6.723	1358.014	970.444
12.731	14.558	1372.710	1029.383
13.746	21.335	1383.649	1079.502
14.761	23.079	1385.694	1091.775
15.775	22.523	1384.053	1086.956
16.790	21.696	1381.697	1079.917
17.804	21.039	1379.253	1073.865
18.819	20.717	1378.298	1071.050
19.834	20.721	1377.840	1070.621
20.848	20.824	1376.436	1070.065
21.863	20.614	1375.451	1067.922
22.877	20.488	1374.292	1066.152
23.892	20.408	1373.480	1064.935
24.907	20.285	1372.975	1063.699
25.921	20.307	1372.055	1063.023
26.936	20.481	1370.793	1063.016
27.950	20.422	1369.888	1061.859
28.965	20.500	1368.999	1061.552
29.980	20.699	1368.460	1062.260
30.994	20.819	1367.036	1061.786
32.009	20.860	1366.157	1061.261
33.023	20.734	1365.210	1059.668
34.038	20.687	1363.437	1057.913
35.053	20.563	1362.641	1056.444
36.067	20.612	1360.912	1055.309
37.082	20.582	1360.221	1054.497
38.096	20.639	1359.564	1054.239
39.111	20.689	1358.404	1053.554
40.126	20.512	1357.224	1051.470
41.140	20.085	1356.672	1048.371
42.155	19.990	1355.512	1046.804
43.169	19.908	1355.732	1046.385
44.184	19.870	1355.996	1046.270
45.199	20.147	1354.799	1046.925
46.213	20.277	1354.997	1047.768
47.228	20.587	1354.046	1048.815
48.242	20.398	1353.295	1046.999
49.257	20.388	1351.871	1045.744
50.271	20.466	1349.559	1044.328
51.286	20.510	1348.620	1043.776
52.301	20.443	1347.207	1042.188
53.315	20.274	1346.614	1040.627
54.330	20.178	1344.904	1038.635
55.344	20.088	1344.031	1037.330
56.359	20.080	1342.923	1036.339
57.374	19.945	1342.117	1034.814
58.388	19.904	1341.405	1033.933
59.403	19.863	1340.939	1033.235
60.417	19.836	1340.352	1032.528
61.432	19.785	1338.945	1031.048
62.447	19.719	1338.220	1030.010
63.461	19.549	1337.352	1028.236
64.476	19.585	1335.669	1027.064
65.490	19.522	1334.844	1025.965
66.505	19.640	1332.784	1024.990
67.520	19.656	1332.486	1024.769
68.534	19.676	1330.781	1023.485
69.549	19.699	1329.971	1022.904
70.563	19.616	1328.593	1021.262
71.578	19.413	1327.677	1019.273
72.593	19.292	1327.274	1018.156
73.607	19.370	1326.226	1017.721
74.622	19.442	1325.661	1017.622
75.636	19.531	1324.998	1017.548
76.651	19.555	1324.317	1017.078
77.666	19.518	1324.087	1016.594
78.680	19.677	1323.597	1017.061
79.695	19.773	1322.490	1016.687
80.709	19.927	1321.898	1017.046
81.724	20.014	1322.017	1017.558
82.739	20.153	1320.533	1017.146
83.753	20.301	1320.072	1017.567
84.768	20.555	1319.223	1018.307
85.782	20.668	1318.651	1018.438
86.797	20.707	1316.875	1017.203
87.812	20.489	1316.413	1015.484
88.826	20.577	1314.658	1014.557
89.841	20.583	1313.610	1013.691
90.855	20.570	1313.264	1013.258
91.870	20.817	1312.361	1013.911
92.884	20.833	1311.457	1013.217
93.899	20.727	1311.278	1012.370
94.914	20.808	1310.464	1012.124
95.928	20.743	1309.448	1010.870
96.943	20.828	1308.337	1010.418
97.957	20.662	1307.675	1008.858
98.972	20.678	1306.629	1008.049
99.987	20.647	1305.547	1006.948
101.001	20.631	1304.394	1005.876
102.016	20.618	1304.177	1005.544
103.030	20.600	1302.917	1004.383
104.045	20.602	1302.154	1003.715
105.060	20.329	1300.903	1001.088
106.074	20.054	1299.253	998.147
107.089	19.860	1297.138	995.314
108.103	19.651	1296.094	993.227
109.118	19.657	1294.749	992.143
110.133	19.608	1293.721	990.987
111.147	19.753	1292.608	990.875
112.162	19.857	1291.137	990.257
113.176	19.918	1290.185	989.786
114.191	19.924	1289.025	988.846
115.206	19.926	1288.026	988.004
116.220	19.926	1286.304	986.596
117.235	19.742	1286.009	985.231
118.249	19.774	1284.927	984.500
119.264	19.638	1283.916	982.859
120.279	19.566	1282.275	981.109
121.293	19.525	1281.201	979.968
122.308	19.419	1280.215	978.526
123.322	19.327	1279.199	977.144
124.337	19.292	1278.553	976.364
125.352	19.384	1276.696	975.382
126.366	19.263	1276.210	974.240
127.381	19.266	1275.341	973.506
128.395	19.298	1273.839	972.452
129.410	19.335	1273.517	972.332
130.424	19.483	1272.517	972.317
131.439	19.607	1272.006	972.536
132.454	19.780	1271.198	972.804
133.468	19.710	1270.788	972.012
134.483	19.730	1270.319	971.681
135.497	19.806	1269.175	971.149
136.512	19.934	1267.654	970.613
137.527	19.932	1266.284	969.470
138.541	19.918	1265.515	968.716
139.556	20.040	1264.287	968.372
140.570	20.137	1263.623	968.318
141.585	20.211	1262.690	967.932
142.600	20.350	1261.598	967.784
143.614	20.499	1261.153	968.186
144.629	20.635	1259.627	967.687
145.643	20.575	1258.645	966.515
146.658	20.293	1257.409	963.914
147.673	20.161	1256.015	962.026
148.687	19.972	1254.951	960.078
149.702	19.916	1253.039	958.222
150.716	19.835	1252.020	956.908
151.731	19.863	1250.910	956.128
152.746	19.893	1249.763	955.333
153.760	19.962	1248.805	954.900
154.775	20.086	1247.948	954.841
155.789	20.240	1247.200	955.033
156.804	20.172	1246.516	954.049
157.819	20.189	1245.784	953.500
158.833	20.461	1244.718	954.090
159.848	20.532	1244.343	954.108
160.862	20.498	1243.045	952.842
161.877	20.096	1241.487	949.363
162.892	19.990	1239.570	947.233
163.906	19.799	1238.908	945.601
164.921	19.874	1238.173	945.365
165.935	19.854	1238.066	945.090
166.950	20.138	1236.835	945.616
167.964	20.113	1236.185	944.902
168.979	19.921	1235.818	943.489
169.994	19.996	1234.300	942.657
171.008	20.018	1233.685	942.221
172.023	20.151	1233.096	942.412
173.037	20.440	1232.744	943.630
174.052	20.358	1231.461	942.118
175.067	20.090	1230.199	939.618
176.081	19.751	1229.672	937.293
177.096	19.751	1228.188	936.080
178.110	19.827	1226.996	935.503
179.125	19.858	1226.554	935.248
180.140	20.113	1225.425	935.680
181.154	20.317	1224.730	936.166
182.169	20.330	1224.004	935.602
183.183	20.397	1222.617	934.818
184.198	20.557	1221.037	934.390
185.213	20.520	1220.613	933.779
186.227	20.519	1219.656	932.964
187.242	20.556	1218.320	932.054
188.256	20.735	1217.462	932.276
189.271	20.738	1216.955	931.822
190.286	20.475	1215.436	929.169
191.300	20.047	1214.019	925.715
192.315	19.829	1213.252	923.889
193.329	19.904	1213.258	924.209
194.344	19.915	1212.395	923.530
195.359	20.013	1211.720	923.453
196.373	20.149	1211.316	923.793
197.388	20.265	1211.226	924.261
198.402	20.621	1210.915	925.834
199.417	20.789	1210.743	926.515
200.432	20.921	1210.245	926.754
201.446	20.954	1209.378	926.185
202.461	21.058	1208.571	926.033
203.475	20.975	1208.043	925.106
204.490	20.681	1205.760	921.720
205.504	20.486	1204.181	919.403
206.519	20.422	1203.437	918.414
207.534	20.446	1201.979	917.345
208.548	20.375	1201.130	916.243
209.563	20.334	1200.077	915.143
210.577	20.358	1199.442	914.704
211.592	20.516	1199.102	915.195
212.607	20.779	1198.562	916.086
213.621	20.663	1197.659	914.707
214.636	20.685	1196.165	913.597
215.650	20.743	1195.844	913.579
216.665	20.880	1194.591	913.255
217.680	21.008	1194.064	913.441
218.694	21.069	1193.068	912.923
219.709	20.910	1192.553	911.612
220.723	20.864	1192.144	910.979
221.738	20.830	1191.083	909.912
222.753	20.881	1190.143	909.376
223.767	20.843	1189.720	908.779
224.782	20.992	1189.383	909.216
225.796	21.196	1188.871	909.808
226.811	21.108	1188.072	908.658
227.826	20.888	1187.386	906.904
228.840	20.835	1186.246	905.682
229.855	20.801	1185.246	904.658
230.869	20.736	1184.587	903.741
231.884	20.706	1183.305	902.526
232.899	20.479	1182.762	900.855
233.913	20.475	1181.428	899.740
234.928	20.447	1180.713	898.970
235.942	20.317	1180.447	898.015
236.957	20.287	1179.432	897.010
237.972	20.259	1178.884	896.366
238.986	20.355	1178.201	896.262
240.001	20.406	1177.243	895.721
241.015	20.511	1176.291	895.459
242.030	20.537	1176.149	895.404
243.045	20.605	1175.572	895.237
244.059	20.681	1174.814	894.971
245.074	20.758	1174.045	894.702
246.088	20.865	1173.357	894.647
247.103	21.011	1172.768	894.869
248.117	21.105	1171.915	894.618
249.132	21.333	1171.753	895.586
250.147	21.573	1171.410	896.472
251.161	21.844	1170.892	897.382
252.176	21.814	1170.305	896.699
253.190	21.912	1170.126	896.984
254.205	22.001	1169.119	896.588
255.220	21.973	1168.717	896.059
256.234	21.968	1168.016	895.415
257.249	21.918	1167.389	894.603
258.263	21.817	1166.803	893.560
259.278	21.901	1165.921	893.232
260.293	21.926	1165.467	892.932
261.307	21.972	1165.562	893.162
262.322	22.024	1164.493	892.525
263.336	22.024	1163.778	891.900
264.351	22.028	1162.955	891.211
265.366	22.137	1162.188	891.098
266.380	22.039	1161.932	890.326
267.395	21.939	1160.642	888.752
268.409	21.837	1159.429	887.228
269.424	21.730	1159.058	886.324
270.439	21.755	1158.240	885.744
271.453	21.622	1157.306	884.280
272.468	21.405	1156.532	882.517
273.482	21.338	1155.670	881.443
274.497	21.471	1155.031	881.547
275.512	21.547	1154.240	881.246
276.526	21.572	1153.543	880.765
277.541	21.522	1153.092	880.091
278.555	21.539	1152.695	879.793
279.570	21.853	1152.280	880.978
280.585	22.131	1151.403	881.626
281.599	22.006	1150.405	880.155
282.614	21.773	1149.271	878.041
283.628	21.599	1147.928	876.067
284.643	21.625	1147.086	875.478
285.657	21.623	1146.418	874.880
286.672	21.657	1145.229	874.068
287.687	21.646	1144.526	873.396
288.701	21.676	1144.499	873.450
289.716	21.608	1143.166	872.017
290.730	21.664	1142.110	871.410
291.745	21.828	1141.430	871.629
292.760	21.760	1141.180	871.027
293.774	21.829	1141.141	871.260
294.789	22.131	1140.142	871.922
295.803	21.846	1140.003	870.321
296.818	21.762	1138.247	868.488
297.833	21.760	1137.559	867.876
298.847	21.638	1137.436	867.104
299.862	21.700	1135.923	866.179
300.876	21.702	1135.207	865.567
301.891	21.865	1135.194	866.285
302.906	22.019	1134.251	866.251
303.920	22.154	1133.819	866.510
304.935	22.289	1133.316	866.713
305.949	22.475	1132.756	867.122
306.964	22.408	1132.218	866.304
307.979	22.190	1131.618	864.696
308.993	22.104	1130.659	863.462
310.008	22.240	1129.969	863.530
311.022	22.336	1129.280	863.395
312.037	22.225	1128.597	862.252
313.052	22.056	1127.375	860.418
314.066	21.874	1126.040	858.430
315.081	21.697	1124.937	856.647
316.095	21.509	1124.434	855.272
317.110	21.621	1123.766	855.235
318.125	21.497	1123.061	854.019
319.139	21.534	1122.360	853.591
320.154	21.632	1121.268	853.163
321.168	21.576	1121.063	852.655
322.183	21.779	1120.362	853.035
323.197	21.678	1120.310	852.431
324.212	21.779	1119.376	852.134
325.227	21.838	1118.673	851.811
326.241	21.773	1118.292	851.130
327.256	21.667	1117.571	849.991
328.270	21.641	1116.455	848.939
329.285	21.693	1115.357	848.280
330.300	21.704	1114.138	847.332
331.314	21.694	1113.844	846.986
332.329	21.614	1112.754	845.694
333.343	21.767	1112.342	846.049
334.358	21.920	1111.706	846.226
335.373	22.073	1110.854	846.238
336.387	22.226	1110.255	846.444
337.402	22.143	1109.712	845.557
338.416	22.146	1109.638	845.442
339.431	22.330	1108.768	845.589
340.446	22.361	1108.521	845.472
341.460	22.643	1107.815	846.213
342.475	22.762	1106.837	845.963
343.489	22.753	1106.038	845.234
344.504	22.975	1105.052	845.466
345.519	22.942	1104.208	844.589
346.533	23.004	1103.801	844.500
347.548	23.081	1102.999	844.179
348.562	22.920	1102.072	842.624
349.577	22.518	1100.677	839.569
350.592	22.203	1100.017	837.489
351.606	22.096	1098.981	836.120
352.621	22.193	1098.279	835.970
353.635	22.004	1097.327	834.276
354.650	22.012	1096.665	833.736
355.665	22.167	1095.944	833.848
356.679	22.254	1095.703	834.005
357.694	22.371	1095.200	834.103
358.708	22.474	1094.398	833.907
359.723	22.572	1093.696	833.762
360.738	22.543	1093.318	833.261
361.752	22.388	1092.979	832.196
362.767	22.472	1092.087	831.842
363.781	22.535	1091.709	831.779
364.796	22.748	1091.494	832.545
365.810	22.955	1091.013	833.079
366.825	22.978	1090.751	832.915
367.840	23.255	1090.344	833.835
368.854	23.172	1089.766	832.928
369.869	23.301	1088.505	832.499
370.883	23.160	1087.225	830.786
371.898	22.898	1086.793	829.149
372.913	22.851	1086.138	828.359
373.927	22.901	1086.139	828.519
374.942	23.142	1085.645	829.198
375.956	23.011	1084.932	827.966
376.971	22.979	1084.468	827.388
377.986	23.072	1083.822	827.261
379.000	23.352	1083.311	828.105
380.015	23.380	1082.800	827.772
381.029	23.464	1082.449	827.821
382.044	23.351	1081.647	826.607
383.059	23.253	1081.125	825.680
384.073	23.142	1080.315	824.470
385.088	23.254	1079.066	823.963
386.102	23.275	1078.387	823.473
387.117	23.099	1076.801	821.369
388.132	22.863	1075.978	819.573
389.146	22.769	1074.908	818.250
390.161	22.714	1074.551	817.651
391.175	22.693	1073.450	816.643
392.190	23.016	1073.117	817.816
393.205	23.174	1072.866	818.282
394.219	23.295	1071.730	817.901
395.234	22.926	1070.793	815.411
396.248	22.945	1069.479	814.424
397.263	22.857	1068.482	813.187
398.278	22.717	1067.935	812.058
399.292	22.601	1067.253	810.931
400.307	22.556	1066.438	810.034
401.321	22.566	1065.387	809.212
402.336	22.596	1064.920	808.921
403.350	22.681	1063.698	808.312
404.365	22.679	1063.638	808.183
405.380	22.833	1062.992	808.326
406.394	22.938	1062.364	808.261
407.409	23.076	1062.227	808.716
408.423	23.186	1061.794	808.817
409.438	23.374	1060.814	808.855
410.453	23.576	1060.209	809.243
411.467	23.545	1059.562	808.536
412.482	23.574	1058.779	808.002
413.496	23.718	1058.446	808.330
414.511	23.768	1057.917	808.081
415.526	23.733	1057.928	807.863
416.540	23.859	1057.549	808.072
417.555	23.792	1056.534	806.921
418.569	23.580	1055.909	805.410
419.584	23.718	1054.941	805.227
420.599	23.689	1054.543	804.721
421.613	156.843	1403.061	1796.536
422.628	144.052	1453.796	1796.629
