DTS Sentinel unit serial number:	SN413079Multiplexer serial number:	ORYXHardware model number:	OX4-SRSoftware version number:	ORYX F/W v4.00 Oryx Data Collector v3.7.2.0data status	okinstallation	princeton_trtdifferential loss correction	single-endedforward channel	channel 2reverse channel	N/Adate	2019/09/13time	16:43:35forward acquisition time	60.00reverse acquisition time	0.00gamma	496.2192k internal	0.2316k external	0.2316temperature offset calibration	1.0217default loss term (dB/km)	0.3790temperature slope calibration	1.0000multiplexer offset coefficient	1.0000multiplexer slope coefficient	1.0000fibre end	0.00T internal ref (°C)	35.00T ext. ref 1 (°C)	4.91T ext. ref 2 (°C)	29.72length (m)	temperature (°C)	Stokes	anti-Stokes-747.200	148.835	-0.116	-0.159
-746.185	19.799	-0.284	0.231
-745.171	593.046	0.030	-0.074
-744.156	-68.024	-0.154	0.061
-743.142	-68.321	0.223	-0.088
-742.127	-85.486	-0.271	0.085
-741.112	-2.572	-0.408	-0.290
-740.098	133.719	0.283	0.371
-739.083	770.251	0.085	-0.234
-738.069	800.000	-0.036	-0.120
-737.054	21.049	-0.260	0.213
-736.039	113.312	-0.122	0.150
-735.025	800.000	0.047	-0.192
-734.010	74.539	-0.211	-0.225
-732.996	702.762	-0.118	-0.316
-731.981	123.278	-0.278	-0.353
-730.966	-24.846	-0.079	-0.048
-729.952	800.000	-0.104	-0.350
-728.937	-151.252	-0.216	-0.016
-727.923	782.094	0.084	-0.232
-726.908	-200.000	-0.073	-0.588
-725.894	400.597	-0.027	0.058
-724.879	-82.094	-0.528	-0.174
-723.864	-200.000	0.002	0.021
-722.850	-63.173	-0.377	-0.157
-721.835	-129.165	0.193	0.027
-720.821	437.075	0.036	-0.080
-719.806	-111.796	-0.240	0.049
-718.791	222.250	0.218	-0.355
-717.777	-200.000	-0.004	-0.192
-716.762	-68.184	-0.260	0.103
-715.748	800.000	0.070	0.273
-714.733	-42.820	-0.130	0.067
-713.718	576.620	0.090	-0.223
-712.704	108.217	0.052	0.063
-711.689	1.232	0.084	0.061
-710.675	-60.344	-0.227	-0.098
-709.660	430.566	-0.065	-0.142
-708.645	800.000	-0.072	0.248
-707.631	-168.972	-0.081	0.003
-706.616	-67.098	0.338	-0.135
-705.602	-28.366	-0.243	-0.142
-704.587	306.587	-0.077	-0.146
-703.572	800.000	0.050	-0.144
-702.558	-35.286	-0.269	0.148
-701.543	-200.000	0.008	0.275
-700.529	746.992	-0.037	0.100
-699.514	800.000	-0.105	-0.306
-698.499	56.334	-0.295	-0.290
-697.485	-200.000	0.008	0.088
-696.470	-30.889	0.197	0.112
-695.456	800.000	0.084	0.328
-694.441	-87.216	0.230	-0.071
-693.426	-34.114	0.143	0.080
-692.412	-113.606	-0.268	-0.053
-691.397	38.232	0.179	-0.161
-690.383	800.000	-0.143	-0.399
-689.368	-100.355	-0.145	0.036
-688.354	-41.607	0.236	0.123
-687.339	63.282	0.148	-0.150
-686.324	-42.877	0.395	0.203
-685.310	75.751	0.194	0.207
-684.295	-11.632	0.116	-0.077
-683.281	-76.952	-0.226	0.080
-682.266	-52.762	0.076	-0.036
-681.251	-12.578	0.089	-0.059
-680.237	575.448	0.047	0.117
-679.222	93.515	-0.270	0.309
-678.208	-15.078	-0.278	0.180
-677.193	112.355	-0.388	0.474
-676.178	-32.910	-0.188	0.106
-675.164	-200.000	-0.017	0.293
-674.149	-114.217	0.037	-0.007
-673.135	205.912	-0.112	0.176
-672.120	-157.546	-0.072	-0.004
-671.105	102.481	-0.143	0.169
-670.091	-114.303	0.178	0.035
-669.076	319.281	-0.164	-0.315
-668.062	-90.510	0.129	-0.038
-667.047	800.000	-0.042	-0.170
-666.032	-26.684	-0.481	0.284
-665.018	154.951	-0.025	-0.035
-664.003	14.440	0.082	0.065
-662.989	29.745	0.183	-0.157
-661.974	-200.000	-0.030	-0.313
-660.959	302.547	-0.119	0.223
-659.945	-5.652	-0.206	0.143
-658.930	35.659	-0.033	-0.029
-657.916	25.558	0.041	0.034
-656.901	800.000	0.036	-0.147
-655.886	1.857	-0.084	0.061
-654.872	186.856	-0.027	-0.041
-653.857	-124.752	0.350	-0.055
-652.843	-109.979	-0.205	-0.043
-651.828	800.000	-0.009	0.039
-650.814	-200.000	0.006	-0.345
-649.799	54.080	0.153	-0.149
-648.784	-65.894	-0.164	-0.066
-647.770	-181.659	-0.257	0.005
-646.755	329.812	0.117	-0.226
-645.741	104.478	-0.102	-0.121
-644.726	-200.000	0.059	-0.458
-643.711	-200.000	0.008	0.176
-642.697	-200.000	0.002	0.206
-641.682	-200.000	-0.009	-0.274
-640.668	-37.315	-0.092	-0.050
-639.653	46.920	0.257	-0.241
-638.638	800.000	-0.048	-0.200
-637.624	-108.919	0.330	0.071
-636.609	-98.893	0.337	-0.086
-635.595	-200.000	-0.038	-0.405
-634.580	-200.000	-0.063	-0.344
-633.565	-83.105	-0.204	-0.066
-632.551	30.275	0.329	0.283
-631.536	800.000	-0.043	0.136
-630.522	-39.903	0.180	0.095
-629.507	800.000	0.016	-0.045
-628.492	291.140	0.142	-0.260
-627.478	-44.301	-0.277	-0.140
-626.463	-200.000	-0.025	-0.346
-625.449	-127.918	0.260	-0.038
-624.434	77.380	0.058	-0.062
-623.419	136.242	-0.113	-0.148
-622.405	56.975	-0.298	-0.293
-621.390	184.517	0.193	0.288
-620.376	-200.000	-0.021	-0.156
-619.361	92.739	-0.202	-0.230
-618.346	-6.169	0.113	-0.078
-617.332	-14.385	-0.291	-0.189
-616.317	-122.769	0.241	-0.039
-615.303	-139.874	-0.186	0.020
-614.288	-200.000	-0.034	-0.177
-613.273	-194.193	-0.103	0.001
-612.259	-200.000	0.068	-0.418
-611.244	-200.000	0.014	-0.287
-610.230	305.810	0.062	-0.116
-609.215	291.100	0.229	-0.420
-608.201	16.471	0.134	-0.107
-607.186	-168.401	-0.308	-0.012
-606.171	-200.000	0.017	0.153
-605.157	63.550	-0.141	-0.143
-604.142	105.318	0.138	0.165
-603.128	-200.000	-0.027	-0.141
-602.113	800.000	-0.023	0.064
-601.098	-200.000	-0.007	0.543
-600.084	554.847	-0.122	0.296
-599.069	-200.000	0.027	0.248
-598.055	800.000	-0.028	0.116
-597.040	172.826	-0.155	-0.225
-596.025	297.624	-0.158	0.292
-595.011	-1.105	0.203	-0.145
-593.996	-37.665	-0.513	0.275
-592.982	-200.000	0.018	0.394
-591.967	-200.000	-0.052	0.279
-590.952	-14.199	-0.091	0.059
-589.938	111.289	0.089	-0.107
-588.923	-111.696	-0.273	-0.056
-587.909	-12.507	0.117	-0.077
-586.894	-80.051	0.110	0.037
-585.879	-200.000	-0.033	0.273
-584.865	800.000	0.061	0.237
-583.850	12.046	-0.064	-0.050
-582.836	-200.000	0.010	-0.176
-581.821	-92.546	0.055	-0.015
-580.806	6.407	-0.100	0.075
-579.792	-108.033	0.064	0.014
-578.777	-141.312	-0.279	-0.029
-577.763	800.000	-0.040	0.122
-576.748	-200.000	0.006	0.052
-575.733	-200.000	0.089	-0.425
-574.719	16.089	-0.192	0.152
-573.704	-200.000	0.009	0.072
-572.690	73.242	0.115	-0.122
-571.675	271.431	-0.034	-0.061
-570.661	-144.544	-0.169	0.016
-569.646	70.099	-0.018	0.019
-568.631	-81.608	-0.094	0.031
-567.617	44.648	0.207	0.191
-566.602	111.175	0.090	-0.109
-565.588	-38.584	0.202	-0.107
-564.573	-110.448	0.227	0.047
-563.558	-16.256	-0.188	-0.120
-562.544	-65.849	0.093	-0.038
-561.529	279.304	-0.065	-0.117
-560.515	-0.858	0.260	-0.185
-559.500	69.842	-0.147	0.152
-558.485	121.401	-0.170	-0.212
-557.471	-98.830	0.143	-0.037
-556.456	-166.503	0.148	0.006
-555.442	83.904	0.131	-0.144
-554.427	-160.555	-0.192	-0.010
-553.412	11.099	-0.262	0.202
-552.398	800.000	-0.047	-0.170
-551.383	668.775	-0.150	-0.389
-550.369	138.319	-0.074	-0.097
-549.354	800.000	-0.082	0.264
-548.339	-66.556	-0.245	0.098
-547.325	-37.544	-0.040	-0.022
-546.310	343.436	-0.210	-0.414
-545.296	-15.044	-0.299	-0.192
-544.281	570.026	-0.114	0.279
-543.266	198.323	0.076	0.118
-542.252	276.218	0.158	0.282
-541.237	800.000	-0.057	-0.250
-540.223	-19.829	-0.185	0.115
-539.208	349.180	-0.062	-0.123
-538.193	-73.510	0.173	0.064
-537.179	800.000	0.024	0.091
-536.164	-139.689	0.267	-0.029
-535.150	-47.233	0.132	0.065
-534.135	224.550	-0.172	-0.280
-533.121	-107.300	0.086	0.019
-532.106	-119.141	-0.067	-0.012
-531.091	437.109	-0.129	0.282
-530.077	-159.957	0.179	-0.010
-529.062	-143.700	0.266	-0.025
-528.048	127.541	-0.098	-0.126
-527.033	29.215	0.191	0.163
-526.018	282.296	-0.099	-0.179
-525.004	711.000	-0.035	0.094
-523.989	174.333	0.109	-0.159
-522.975	-71.626	0.283	-0.106
-521.960	121.927	-0.048	0.060
-520.945	-200.000	-0.011	0.154
-519.931	800.000	0.006	-0.021
-518.916	161.770	0.201	-0.282
-517.902	800.000	0.067	-0.224
-516.887	-200.000	0.030	0.207
-515.872	16.052	-0.153	-0.121
-514.858	-165.300	0.298	0.013
-513.843	60.622	-0.177	-0.176
-512.829	-61.805	0.377	0.158
-511.814	-65.796	0.309	0.124
-510.799	-106.545	-0.327	-0.073
-509.785	-8.802	0.273	0.184
-508.770	81.873	-0.238	0.259
-507.756	6.093	-0.120	0.089
-506.741	426.272	-0.075	0.163
-505.726	-139.908	0.010	-0.001
-504.712	-88.851	0.113	0.034
-503.697	-66.044	-0.255	0.102
-502.683	-154.641	0.038	-0.003
-501.668	-185.661	-0.243	0.004
-500.653	-32.531	-0.640	-0.358
-499.639	55.936	0.085	-0.082
-498.624	152.724	0.212	-0.291
-497.610	-69.494	-0.348	0.134
-496.595	-41.470	-0.217	-0.112
-495.581	-200.000	0.043	0.250
-494.566	270.380	0.039	0.069
-493.551	104.760	-0.110	-0.130
-492.537	-167.662	0.174	0.007
-491.522	112.649	0.256	0.311
-490.508	-152.939	0.127	0.009
-489.493	155.652	-0.107	-0.148
-488.478	800.000	-0.109	-0.431
-487.464	-109.242	-0.113	-0.024
-486.449	-200.000	-0.056	0.404
-485.435	-200.000	0.321	0.000
-484.420	800.000	-0.103	0.353
-483.405	800.000	-0.068	-0.280
-482.391	-128.347	-0.019	0.003
-481.376	-200.000	0.024	-0.307
-480.362	129.958	-0.121	-0.155
-479.347	342.705	-0.198	-0.389
-478.332	800.000	-0.041	0.173
-477.318	218.176	0.190	0.304
-476.303	124.143	-0.204	0.257
-475.289	-115.303	0.157	0.030
-474.274	-35.611	0.067	0.036
-473.259	-114.450	-0.322	0.062
-472.245	15.008	-0.235	-0.184
-471.230	-103.437	-0.271	-0.064
-470.216	-72.759	0.084	-0.031
-469.201	-127.022	-0.268	0.039
-468.186	-200.000	0.035	-0.240
-467.172	-73.668	-0.526	-0.192
-466.157	107.018	0.230	-0.273
-465.143	-11.438	0.126	0.083
-464.128	186.474	0.118	-0.175
-463.113	159.066	0.181	-0.253
-462.099	324.427	0.226	-0.433
-461.084	15.199	-0.060	0.047
-460.070	576.917	-0.047	-0.115
-459.055	800.000	-0.072	0.243
-458.040	-50.196	-0.116	-0.055
-457.026	-86.586	-0.167	-0.051
-456.011	91.092	0.104	0.117
-454.997	-200.000	0.021	-0.191
-453.982	-84.894	0.189	0.059
-452.968	347.894	-0.010	-0.021
-451.953	257.922	0.108	0.187
-450.938	-141.832	-0.058	-0.006
-449.924	-127.541	-0.183	-0.027
-448.909	-200.000	0.027	-0.288
-447.895	-20.467	-0.199	-0.123
-446.880	4.633	-0.052	0.038
-445.865	-164.723	0.144	0.006
-444.851	-77.021	0.219	-0.077
-443.836	-141.121	0.547	0.056
-442.822	-200.000	0.013	0.225
-441.807	-52.003	-0.243	0.113
-440.792	-200.000	0.037	0.203
-439.778	-34.469	-0.173	0.095
-438.763	-143.213	-0.132	-0.013
-437.749	91.602	-0.166	-0.187
-436.734	-58.371	0.202	0.088
-435.719	542.147	0.056	0.135
-434.705	11.858	0.254	0.196
-433.690	101.708	0.082	0.095
-432.676	-185.002	0.262	0.004
-431.661	99.746	0.150	-0.174
-430.646	134.162	0.184	-0.239
-429.632	19.632	-0.210	-0.169
-428.617	-22.470	0.406	0.246
-427.603	79.521	0.258	0.277
-426.588	-200.000	0.005	-0.144
-425.573	-128.300	-0.153	-0.022
-424.559	357.219	-0.073	0.145
-423.544	-200.000	-0.043	-0.212
-422.530	-77.044	0.203	-0.071
-421.515	-200.000	0.007	-0.186
-420.500	156.129	0.072	0.099
-419.486	233.560	-0.089	0.147
-418.471	-23.519	-0.291	0.175
-417.457	100.514	0.038	-0.044
-416.442	143.872	-0.043	0.058
-415.428	26.610	-0.146	0.122
-414.413	-200.000	0.057	0.636
-413.398	608.380	-0.184	0.460
-412.384	-101.806	-0.044	-0.011
-411.369	85.563	0.170	0.187
-410.355	34.620	-0.116	-0.101
-409.340	-94.377	0.266	0.073
-408.325	-87.246	0.243	-0.074
-407.311	141.364	-0.129	-0.171
-406.296	800.000	0.018	0.069
-405.282	205.486	0.225	-0.350
-404.267	-200.000	-0.010	-0.376
-403.252	351.424	0.139	-0.275
-402.238	-200.000	-0.012	-0.073
-401.223	6.168	-0.205	-0.152
-400.209	-71.679	0.184	-0.069
-399.194	42.022	0.141	0.128
-398.179	-200.000	0.011	0.152
-397.165	213.785	0.075	-0.119
-396.150	193.964	0.110	0.166
-395.136	84.653	-0.198	0.217
-394.121	4.792	-0.491	-0.361
-393.106	183.383	-0.144	-0.213
-392.092	645.344	-0.065	0.167
-391.077	-38.564	-0.306	0.162
-390.063	-142.165	0.406	0.040
-389.048	159.593	-0.143	0.199
-388.033	-86.848	-0.225	0.069
-387.019	-48.853	-0.236	0.113
-386.004	-174.848	0.271	-0.008
-384.990	-30.247	-0.033	-0.018
-383.975	-69.227	0.131	-0.050
-382.960	800.000	-0.082	0.267
-381.946	-129.180	-0.145	-0.020
-380.931	1.362	0.189	0.135
-379.917	-72.060	-0.073	-0.027
-378.902	-85.555	-0.146	0.045
-377.888	147.293	-0.238	-0.320
-376.873	-52.584	0.464	0.214
-375.858	-200.000	0.007	0.073
-374.844	17.464	0.073	-0.058
-373.829	-200.000	0.020	-0.249
-372.815	436.423	-0.088	0.191
-371.800	275.381	-0.046	-0.081
-370.785	-65.545	-0.176	0.071
-369.771	113.871	-0.114	0.139
-368.756	83.761	0.131	0.143
-367.742	-52.165	-0.097	0.045
-366.727	143.216	-0.156	0.207
-365.712	-5.188	0.378	-0.259
-364.698	-119.076	0.218	0.038
-363.683	-200.000	-0.016	-0.299
-362.669	115.975	-0.065	0.079
-361.654	185.368	0.089	-0.131
-360.639	209.696	0.135	-0.211
-359.625	-200.000	0.023	0.126
-358.610	-112.654	-0.351	0.070
-357.596	497.573	0.159	0.365
-356.581	39.706	-0.121	-0.109
-355.566	-147.794	-0.056	-0.005
-354.552	-51.020	0.086	0.040
-353.537	299.662	-0.097	-0.179
-352.523	-69.424	0.035	-0.013
-351.508	-158.027	-0.077	-0.004
-350.493	-87.878	0.083	0.025
-349.479	-200.000	-0.038	-0.198
-348.464	-200.000	0.031	-0.138
-347.450	-7.518	0.188	0.127
-346.435	-148.979	-0.350	-0.028
-345.420	97.864	0.285	0.327
-344.406	-200.000	0.033	0.192
-343.391	-200.000	0.039	0.353
-342.377	-155.041	0.173	-0.011
-341.362	32.776	-0.105	0.091
-340.348	-27.143	-0.395	0.230
-339.333	119.430	-0.242	0.299
-338.318	5.629	-0.123	-0.091
-337.304	656.774	0.124	0.319
-336.289	-2.738	-0.158	-0.110
-335.275	175.390	0.163	-0.236
-334.260	-200.000	0.002	-0.129
-333.245	-11.059	0.183	-0.120
-332.231	-100.794	0.164	0.040
-331.216	277.392	0.082	0.146
-330.202	89.594	0.275	0.306
-329.187	-58.342	-0.248	0.107
-328.172	58.924	-0.263	0.257
-327.158	140.898	-0.090	0.118
-326.143	800.000	-0.066	0.207
-325.129	167.487	-0.113	0.159
-324.114	800.000	-0.050	0.195
-323.099	800.000	-0.102	0.371
-322.085	173.330	0.105	-0.151
-321.070	76.501	-0.068	-0.072
-320.056	-81.301	0.320	-0.105
-319.041	165.821	-0.276	0.389
-318.026	-76.289	0.068	0.024
-317.012	-61.304	0.191	-0.080
-315.997	130.486	-0.130	0.166
-314.983	-148.642	-0.362	0.029
-313.968	-41.567	-0.230	-0.118
-312.953	-25.583	-0.273	-0.161
-311.939	-114.127	-0.293	0.056
-310.924	-14.546	0.076	-0.049
-309.910	800.000	-0.045	-0.178
-308.895	-163.757	-0.272	0.013
-307.880	494.303	0.035	0.080
-306.866	40.255	0.119	-0.106
-305.851	-108.202	-0.605	0.130
-304.837	7.593	0.161	0.120
-303.822	-106.734	-0.268	-0.059
-302.807	-103.964	-0.317	-0.074
-301.793	-22.584	-0.062	0.037
-300.778	-28.804	-0.118	0.067
-299.764	800.000	0.018	-0.072
-298.749	14.471	0.167	0.130
-297.735	-142.097	0.370	0.037
-296.720	-200.000	-0.017	-0.092
-295.705	245.443	-0.120	0.201
-294.691	-49.198	0.061	0.029
-293.676	127.703	0.093	0.118
-292.662	-148.927	0.280	-0.022
-291.647	-200.000	0.056	-0.245
-290.632	-200.000	-0.051	0.254
-289.618	15.859	0.087	-0.069
-288.603	-50.365	0.209	-0.098
-287.589	-200.000	0.054	-0.377
-286.574	800.000	0.065	0.230
-285.559	-61.324	0.175	-0.073
-284.545	45.669	-0.126	-0.116
-283.530	165.126	-0.105	-0.147
-282.516	119.229	-0.085	-0.104
-281.501	-200.000	0.004	-0.033
-280.486	109.375	-0.091	0.108
-279.472	-83.658	-0.219	0.070
-278.457	-94.889	0.181	0.049
-277.443	-2.106	0.347	0.242
-276.428	23.347	0.082	-0.067
-275.413	-37.991	0.180	-0.095
-274.399	142.532	-0.141	-0.186
-273.384	78.115	0.268	-0.284
-272.370	-78.667	0.103	-0.035
-271.355	-104.089	0.259	0.060
-270.340	-63.018	0.237	-0.097
-269.326	-40.910	-0.117	-0.060
-268.311	-175.215	0.220	0.006
-267.297	800.000	0.066	0.274
-266.282	-14.873	-0.018	-0.011
-265.267	-200.000	0.005	-0.110
-264.253	800.000	-0.116	-0.354
-263.238	-200.000	0.033	0.235
-262.224	-26.622	0.121	-0.070
-261.209	105.745	0.233	-0.274
-260.195	-13.795	-0.193	0.124
-259.180	-14.487	-0.230	0.147
-258.165	800.000	-0.040	0.137
-257.151	-89.389	0.472	0.138
-256.136	612.088	-0.072	0.178
-255.122	-1.510	0.233	-0.163
-254.107	-200.000	0.075	-0.397
-253.092	83.205	-0.238	-0.258
-252.078	-200.000	0.054	0.234
-251.063	-200.000	0.037	0.269
-250.049	-114.628	0.123	-0.023
-249.034	-200.000	0.064	-0.329
-248.019	-200.000	0.024	-0.387
-247.005	-20.726	-0.066	0.040
-245.990	224.615	-0.176	0.283
-244.976	-200.000	-0.008	-0.275
-243.961	15.756	-0.189	0.147
-242.946	772.914	0.017	-0.045
-241.932	-116.206	0.215	-0.040
-240.917	134.222	0.040	0.051
-239.903	-200.000	0.022	-0.290
-238.888	-120.176	-0.220	-0.037
-237.873	-140.728	0.299	0.031
-236.859	-200.000	-0.050	0.405
-235.844	700.424	-0.055	0.143
-234.830	-132.954	-0.231	-0.029
-233.815	-200.000	0.009	-0.253
-232.800	161.918	-0.105	-0.146
-231.786	133.585	-0.031	0.040
-230.771	-200.000	-0.060	0.278
-229.757	800.000	0.104	0.315
-228.742	-200.000	-0.032	0.177
-227.727	-44.262	0.127	-0.063
-226.713	85.027	-0.157	0.171
-225.698	-51.463	0.279	-0.129
-224.684	-200.000	0.070	0.000
-223.669	800.000	-0.034	-0.115
-222.655	-200.000	0.008	0.310
-221.640	-132.085	0.320	0.041
-220.625	162.938	0.102	-0.143
-219.611	113.826	-0.110	0.132
-218.596	-36.995	-0.071	0.038
-217.582	-200.000	0.002	-0.024
-216.567	18.359	-0.030	0.024
-215.552	-118.247	0.279	-0.049
-214.538	-56.401	0.112	-0.049
-213.523	-67.533	0.190	0.074
-212.509	-200.000	-0.025	0.347
-211.494	286.206	0.200	-0.359
-210.479	-70.749	-0.102	-0.038
-209.465	-200.000	-0.025	0.249
-208.450	170.540	0.161	0.229
-207.436	-200.000	0.003	-0.032
-206.421	177.014	-0.287	-0.414
-205.406	-104.803	-0.217	0.050
-204.392	57.193	0.288	-0.279
-203.377	-158.235	-0.239	-0.014
-202.363	7.245	0.139	-0.103
-201.348	-58.461	0.104	0.045
-200.333	-70.315	-0.259	0.098
-199.319	-200.000	0.002	-0.084
-198.304	-70.145	0.192	-0.073
-197.290	251.921	0.121	0.205
-196.275	-48.996	-0.291	0.138
-195.260	-83.860	-0.120	0.038
-194.246	800.000	0.059	-0.244
-193.231	-151.245	-0.206	0.015
-192.217	-40.966	-0.056	0.028
-191.202	-200.000	0.026	0.162
-190.187	-200.000	-0.060	0.474
-189.173	-27.455	0.147	0.085
-188.158	800.000	0.029	0.107
-187.144	-200.000	0.003	0.119
-186.129	139.281	0.147	-0.191
-185.114	-200.000	0.032	0.169
-184.100	299.191	0.105	-0.191
-183.085	-81.958	-0.105	-0.034
-182.071	800.000	0.047	0.191
-181.056	341.544	0.186	0.361
-180.042	-200.000	-0.034	-0.183
-179.027	-58.623	-0.325	0.140
-178.012	13.708	-0.240	-0.185
-176.998	-40.547	0.110	-0.057
-175.983	-200.000	0.037	0.181
-174.969	-179.161	0.364	-0.008
-173.954	239.901	-0.009	0.015
-172.939	197.820	0.144	-0.217
-171.925	-200.000	-0.047	0.335
-170.910	-200.000	-0.001	0.128
-169.896	-41.854	0.147	-0.074
-168.881	-95.797	-0.150	0.040
-167.866	-110.982	-0.089	-0.018
-166.852	-166.064	0.219	-0.009
-165.837	2.500	0.117	0.084
-164.823	-149.727	-0.024	0.002
-163.808	-12.421	0.135	0.087
-162.793	16.429	-0.144	0.113
-161.779	-18.383	-0.191	-0.118
-160.764	190.140	0.110	0.164
-159.750	-159.460	-0.103	-0.006
-158.735	-200.000	-0.034	0.162
-157.720	-77.566	0.061	0.021
-156.706	-69.183	0.280	-0.107
-155.691	-200.000	-0.009	-0.274
-154.677	383.960	-0.084	0.170
-153.662	800.000	0.057	-0.241
-152.647	22.164	0.101	-0.081
-151.633	167.762	0.202	0.284
-150.618	2.788	0.213	-0.153
-149.604	33.340	-0.240	-0.206
-148.589	67.109	-0.215	-0.217
-147.574	-134.328	0.105	-0.013
-146.560	-176.368	-0.163	-0.004
-145.545	-158.542	-0.245	-0.014
-144.531	264.252	-0.181	-0.312
-143.516	175.137	-0.164	0.236
-142.502	800.000	0.098	-0.332
-141.487	-136.661	0.199	-0.023
-140.472	-200.000	-0.004	0.074
-139.458	-200.000	0.041	0.216
-138.443	-91.726	0.281	0.079
-137.429	-200.000	0.003	-0.065
-136.414	-80.683	0.192	-0.063
-135.399	74.843	0.109	-0.113
-134.385	-2.042	0.337	-0.234
-133.370	19.442	-0.157	0.125
-132.356	-132.332	0.436	0.056
-131.341	-200.000	-0.010	-0.412
-130.326	31.596	-0.056	-0.048
-129.312	98.943	-0.148	-0.169
-128.297	85.704	0.204	-0.222
-127.283	605.434	-0.068	-0.167
-126.268	121.987	-0.032	0.040
-125.253	39.063	0.195	0.173
-124.239	-188.444	-0.051	-0.001
-123.224	113.161	0.115	0.138
-122.210	155.919	0.044	0.060
-121.195	64.908	0.104	0.104
-120.180	288.687	-0.052	-0.093
-119.166	-16.247	0.126	0.079
-118.151	363.901	0.116	-0.231
-117.137	-94.343	-0.330	0.089
-116.122	-168.375	0.353	-0.013
-115.107	43.066	0.217	-0.196
-114.093	800.000	0.112	0.315
-113.078	178.413	-0.139	0.201
-112.064	-136.893	-0.119	0.013
-111.049	-114.815	0.367	-0.069
-110.034	12.814	-0.145	-0.111
-109.020	-136.101	-0.134	-0.015
-108.005	-200.000	-0.043	-0.209
-106.991	87.906	0.270	0.296
-105.976	-25.681	-0.077	-0.045
-104.962	800.000	0.046	0.133
-103.947	211.441	0.110	-0.171
-102.932	-113.518	-0.204	-0.039
-101.918	800.000	-0.075	-0.273
-100.903	460.259	0.126	-0.276
-99.889	29.526	0.187	0.157
-98.874	300.480	-0.012	-0.022
-97.859	-155.494	0.436	-0.028
-96.845	422.261	0.047	-0.100
-95.830	-89.107	-0.235	0.069
-94.816	-200.000	-0.017	-0.207
-93.801	164.535	-0.143	0.199
-92.786	-200.000	-0.007	-0.055
-91.772	120.457	0.155	-0.190
-90.757	800.000	-0.044	0.121
-89.743	9.248	0.174	0.130
-88.728	-161.508	-0.365	0.019
-87.713	89.482	-0.283	-0.312
-86.699	175.585	-0.133	0.191
-85.684	23.720	0.094	-0.076
-84.670	11.175	0.069	0.052
-83.655	624.114	-0.089	0.222
-82.640	-138.590	0.160	0.017
-81.626	22.460	0.152	0.122
-80.611	-83.609	-0.212	-0.067
-79.597	-200.000	0.003	0.129
-78.582	426.356	-0.086	-0.184
-77.567	315.513	-0.121	-0.225
-76.553	-200.000	-0.026	-0.395
-75.538	-24.526	-0.347	-0.204
-74.524	-8.785	-0.222	0.147
-73.509	-200.000	-0.039	-0.234
-72.494	800.000	-0.100	-0.282
-71.480	-44.882	0.225	0.111
-70.465	-36.265	0.179	-0.095
-69.451	-89.006	0.093	-0.027
-68.436	32.709	-0.158	0.135
-67.422	143.361	-0.189	-0.248
-66.407	-44.166	0.229	-0.114
-65.392	181.546	-0.179	0.260
-64.378	-141.616	0.024	-0.002
-63.363	366.652	0.122	0.244
-62.349	-133.458	-0.237	0.029
-61.334	61.177	-0.988	-0.968
-60.319	9.890	0.218	0.163
-59.305	800.000	-0.245	-0.805
-58.290	-200.000	0.250	1.213
-57.276	406.623	0.762	1.586
-56.261	-200.000	96.035	575.053
-55.246	654.101	1386.574	3508.318
-54.232	187.080	2609.340	3835.539
-53.217	117.521	2307.244	2798.979
-52.203	44.864	1920.130	1742.564
-51.188	38.284	1707.075	1498.910
-50.173	35.511	1661.317	1437.944
-49.159	52.657	1709.297	1610.025
-48.144	56.262	1727.283	1654.246
-47.130	38.028	1683.884	1476.374
-46.115	35.206	1668.389	1441.535
-45.100	34.978	1663.367	1435.431
-44.086	34.886	1660.977	1432.626
-43.071	34.919	1658.156	1430.380
-42.057	34.842	1656.277	1428.127
-41.042	34.852	1654.478	1426.595
-40.027	34.877	1652.254	1424.804
-39.013	34.843	1650.048	1422.596
-37.998	34.820	1648.915	1421.388
-36.984	34.932	1647.065	1420.574
-35.969	34.894	1646.004	1419.315
-34.954	35.050	1643.763	1418.485
-33.940	35.026	1642.214	1416.917
-32.925	34.898	1640.686	1414.595
-31.911	34.982	1638.796	1413.525
-30.896	34.973	1636.979	1411.835
-29.881	34.968	1635.448	1410.425
-28.867	35.046	1633.725	1409.456
-27.852	35.093	1631.757	1408.050
-26.838	34.990	1630.515	1406.161
-25.823	35.016	1629.194	1405.159
-24.809	35.027	1628.103	1404.248
-23.794	34.950	1626.436	1402.188
-22.779	34.967	1625.145	1401.144
-21.765	35.005	1623.217	1399.702
-20.750	35.019	1621.155	1397.971
-19.736	35.069	1620.126	1397.396
-18.721	35.146	1618.344	1396.365
-17.706	35.048	1616.848	1394.305
-16.692	34.961	1615.589	1392.529
-15.677	34.986	1614.297	1391.538
-14.663	35.095	1612.316	1390.571
-13.648	35.117	1611.215	1389.725
-12.633	35.013	1609.549	1387.476
-11.619	35.034	1608.124	1386.348
-10.604	35.088	1606.659	1385.423
-9.590	35.102	1605.558	1384.517
-8.575	35.073	1603.944	1382.860
-7.560	35.031	1602.814	1381.532
-6.546	34.976	1601.870	1380.263
-5.531	35.022	1600.435	1379.301
-4.517	34.933	1599.635	1377.921
-3.502	35.031	1598.432	1377.535
-2.487	35.026	1596.758	1376.002
-1.473	34.708	1585.742	1364.182
-0.458	31.611	1565.041	1324.448
0.556	29.915	1563.681	1285.370
1.571	26.881	1587.600	1283.493
2.586	25.651	1600.434	1284.971
3.600	22.525	1546.595	1220.025
4.615	14.069	1437.096	1078.902
5.629	6.414	1371.279	981.836
6.644	4.831	1363.392	966.283
7.659	4.886	1361.779	965.396
8.673	4.988	1360.496	965.032
9.688	4.956	1359.469	964.021
10.702	5.077	1356.775	962.773
11.717	8.694	1363.838	990.101
12.731	17.158	1378.470	1053.341
13.746	22.409	1387.402	1092.761
14.761	22.728	1386.133	1093.644
15.775	21.890	1383.883	1086.582
16.790	20.784	1381.512	1077.784
17.804	19.994	1379.056	1070.885
18.819	19.664	1377.911	1067.864
19.834	19.436	1376.886	1065.568
20.848	19.295	1375.735	1063.711
21.863	19.084	1374.746	1061.550
22.877	18.989	1373.631	1060.009
23.892	18.938	1373.068	1059.167
24.907	18.916	1371.325	1057.595
25.921	19.013	1370.766	1057.669
26.936	19.031	1369.986	1057.079
27.950	19.051	1369.268	1056.560
28.965	19.163	1367.941	1056.125
29.980	19.210	1367.094	1055.669
30.994	19.290	1366.129	1055.321
32.009	19.388	1364.875	1054.855
33.023	19.297	1363.755	1053.340
34.038	19.224	1362.046	1051.481
35.053	19.160	1360.566	1049.857
36.067	19.075	1360.282	1049.027
37.082	19.146	1359.017	1048.389
38.096	19.171	1358.209	1047.826
39.111	19.312	1357.310	1047.896
40.126	19.119	1356.446	1045.967
41.140	18.929	1355.098	1043.679
42.155	18.792	1354.324	1042.158
43.169	18.732	1354.599	1041.913
44.184	18.711	1354.167	1041.365
45.199	18.680	1353.949	1040.918
46.213	18.815	1353.542	1041.332
47.228	19.127	1352.224	1042.114
48.242	19.184	1351.444	1041.763
49.257	19.070	1350.140	1039.977
50.271	18.982	1348.569	1038.147
51.286	19.080	1347.091	1037.502
52.301	19.090	1345.414	1036.184
53.315	18.970	1344.544	1034.700
54.330	18.837	1343.762	1033.206
55.344	18.848	1342.659	1032.334
56.359	18.924	1341.172	1031.552
57.374	18.836	1340.619	1030.512
58.388	18.584	1340.453	1028.778
59.403	18.744	1339.087	1028.599
60.417	18.671	1338.580	1027.682
61.432	18.562	1337.735	1026.288
62.447	18.577	1336.537	1025.367
63.461	18.483	1335.176	1023.673
64.476	18.477	1334.846	1023.291
65.490	18.530	1333.205	1022.258
66.505	18.548	1331.306	1020.823
67.520	18.520	1330.498	1019.942
68.534	18.527	1329.645	1019.243
69.549	18.538	1328.608	1018.421
70.563	18.500	1327.564	1017.307
71.578	18.374	1326.656	1015.776
72.593	18.383	1325.117	1014.558
73.607	18.368	1324.570	1013.962
74.622	18.297	1324.041	1013.046
75.636	18.390	1323.180	1012.850
76.651	18.392	1322.566	1012.301
77.666	18.396	1322.475	1012.165
78.680	18.534	1321.742	1012.326
79.695	18.481	1320.785	1011.195
80.709	18.635	1320.462	1011.766
81.724	18.746	1319.719	1011.757
82.739	18.897	1318.196	1011.389
83.753	18.928	1318.470	1011.697
84.768	19.148	1317.129	1011.869
85.782	19.209	1316.095	1011.343
86.797	19.213	1314.857	1010.325
87.812	19.135	1313.384	1008.649
88.826	19.085	1312.417	1007.522
89.841	19.121	1311.482	1006.926
90.855	19.228	1310.613	1006.796
91.870	19.308	1310.101	1006.781
92.884	19.201	1308.950	1005.181
93.899	19.258	1308.221	1004.863
94.914	19.333	1307.621	1004.752
95.928	19.301	1306.653	1003.737
96.943	19.248	1305.901	1002.762
97.957	19.212	1304.630	1001.487
98.972	19.129	1303.924	1000.372
99.987	19.150	1302.642	999.422
101.001	19.161	1301.966	998.880
102.016	19.127	1301.244	998.039
103.030	19.226	1300.272	997.782
104.045	19.143	1298.796	996.078
105.060	19.052	1297.940	994.808
106.074	18.866	1296.314	992.401
107.089	18.586	1294.752	989.500
108.103	18.584	1293.339	988.323
109.118	18.640	1292.265	987.736
110.133	18.646	1290.757	986.534
111.147	18.616	1289.482	985.300
112.162	18.661	1288.179	984.474
113.176	18.710	1287.351	984.032
114.191	18.770	1286.797	983.866
115.206	18.743	1285.773	982.842
116.220	18.690	1284.592	981.552
117.235	18.797	1283.143	980.966
118.249	18.712	1282.098	979.599
119.264	18.651	1280.576	978.001
120.279	18.554	1280.126	977.015
121.293	18.589	1278.807	976.124
122.308	18.454	1277.842	974.533
123.322	18.401	1276.699	973.273
124.337	18.360	1275.779	972.253
125.352	18.370	1274.599	971.320
126.366	18.347	1273.874	970.557
127.381	18.475	1272.537	970.177
128.395	18.499	1271.415	969.367
129.410	18.549	1270.250	968.676
130.424	18.584	1269.679	968.353
131.439	18.701	1268.924	968.352
132.454	18.694	1268.272	967.728
133.468	18.759	1267.429	967.369
134.483	18.769	1267.306	967.245
135.497	18.763	1266.111	966.214
136.512	18.823	1264.846	965.499
137.527	18.764	1263.318	963.919
138.541	18.905	1261.618	963.324
139.556	18.901	1260.528	962.384
140.570	19.109	1259.440	962.634
141.585	19.051	1258.951	961.846
142.600	19.057	1257.578	960.751
143.614	19.246	1256.753	961.089
144.629	19.228	1255.771	960.151
145.643	19.275	1254.711	959.518
146.658	19.107	1252.761	957.009
147.673	18.977	1251.559	955.282
148.687	18.840	1250.359	953.524
149.702	18.765	1249.246	952.174
150.716	18.753	1247.876	950.979
151.731	18.765	1246.517	949.926
152.746	18.748	1245.733	949.151
153.760	18.882	1244.525	948.884
154.775	18.906	1243.753	948.344
155.789	18.998	1242.581	947.871
156.804	19.048	1241.785	947.460
157.819	19.115	1240.545	946.795
158.833	19.135	1239.822	946.271
159.848	19.342	1238.891	946.615
160.862	19.311	1237.872	945.581
161.877	19.114	1236.491	943.362
162.892	18.846	1235.405	940.982
163.906	18.754	1234.866	939.987
164.921	18.891	1233.325	939.479
165.935	18.938	1232.772	939.233
166.950	18.967	1232.457	939.067
167.964	19.106	1231.464	938.985
168.979	18.989	1230.840	937.788
169.994	18.868	1230.172	936.537
171.008	19.032	1229.333	936.710
172.023	19.163	1228.766	936.906
173.037	19.238	1228.104	936.724
174.052	19.258	1226.933	935.860
175.067	19.055	1225.926	933.907
176.081	18.870	1224.737	931.917
177.096	18.805	1223.695	930.687
178.110	18.852	1222.852	930.218
179.125	18.985	1221.743	930.012
180.140	19.042	1220.267	929.113
181.154	19.047	1219.726	928.649
182.169	19.186	1218.153	928.116
183.183	19.294	1217.396	928.038
184.198	19.289	1216.124	926.962
185.213	19.356	1214.827	926.252
186.227	19.299	1214.307	925.466
187.242	19.381	1213.045	924.861
188.256	19.517	1212.150	924.823
189.271	19.454	1211.429	923.857
190.286	19.228	1210.240	921.657
191.300	18.878	1208.925	918.705
192.315	18.793	1207.670	917.218
193.329	18.797	1207.813	917.267
194.344	18.931	1207.256	917.474
195.359	19.057	1206.710	917.650
196.373	19.054	1206.654	917.513
197.388	19.211	1206.288	917.989
198.402	19.355	1205.912	918.388
199.417	19.600	1205.326	919.167
200.432	19.702	1204.434	918.947
201.446	19.684	1203.601	918.135
202.461	19.905	1202.648	918.498
203.475	19.714	1201.881	916.819
204.490	19.560	1200.140	914.593
205.504	19.401	1199.028	912.824
206.519	19.419	1197.583	911.740
207.534	19.374	1196.606	910.675
208.548	19.425	1195.775	910.235
209.563	19.355	1195.386	909.489
210.577	19.451	1194.225	909.029
211.592	19.461	1193.149	908.182
212.607	19.622	1192.775	908.663
213.621	19.741	1191.337	908.112
214.636	19.601	1190.901	906.967
215.650	19.697	1189.746	906.511
216.665	19.696	1189.073	905.911
217.680	19.797	1188.163	905.668
218.694	19.825	1187.813	905.466
219.709	19.909	1186.215	904.606
220.723	19.816	1186.159	903.996
221.738	19.803	1185.217	903.131
222.753	19.757	1184.315	902.125
223.767	19.757	1183.545	901.458
224.782	19.826	1183.509	901.710
225.796	19.970	1182.652	901.727
226.811	19.967	1181.999	901.136
227.826	19.892	1180.901	899.829
228.840	19.741	1180.522	898.677
229.855	19.750	1179.357	897.753
230.869	19.735	1178.637	897.049
231.884	19.644	1177.841	895.890
232.899	19.683	1176.420	894.937
233.913	19.555	1176.210	894.034
234.928	19.623	1175.240	893.567
235.942	19.569	1174.719	892.814
236.957	19.517	1173.587	891.607
237.972	19.496	1173.232	891.151
238.986	19.586	1172.292	890.819
240.001	19.549	1171.763	890.150
241.015	19.510	1171.112	889.374
242.030	19.568	1170.495	889.126
243.045	19.730	1169.622	889.219
244.059	19.801	1168.609	888.734
245.074	19.842	1167.789	888.244
246.088	20.028	1166.833	888.392
247.103	20.004	1166.515	887.945
248.117	19.996	1166.154	887.550
249.132	20.222	1165.324	887.999
250.147	20.392	1164.732	888.341
251.161	20.558	1163.958	888.520
252.176	20.519	1163.628	887.991
253.190	20.612	1163.098	887.979
254.205	20.660	1162.109	887.391
255.220	20.635	1161.941	887.059
256.234	20.551	1161.745	886.401
257.249	20.619	1160.711	885.882
258.263	20.559	1159.851	884.841
259.278	20.645	1159.094	884.624
260.293	20.802	1158.382	884.799
261.307	20.614	1158.299	883.699
262.322	20.736	1157.753	883.827
263.336	20.740	1156.999	883.192
264.351	20.688	1156.062	882.135
265.366	20.869	1155.234	882.342
266.380	20.752	1154.780	881.324
267.395	20.753	1154.045	880.690
268.409	20.610	1153.286	879.313
269.424	20.549	1152.084	878.010
270.439	20.660	1151.825	878.295
271.453	20.521	1150.954	876.853
272.468	20.581	1149.739	876.150
273.482	20.437	1148.983	874.773
274.497	20.397	1148.930	874.450
275.512	20.566	1148.245	874.702
276.526	20.481	1147.319	873.493
277.541	20.557	1146.614	873.261
278.555	20.686	1145.948	873.323
279.570	20.769	1145.736	873.504
280.585	20.827	1144.730	872.949
281.599	20.855	1143.800	872.300
282.614	20.702	1142.524	870.487
283.628	20.663	1141.228	869.225
284.643	20.655	1140.490	868.546
285.657	20.668	1139.678	867.920
286.672	20.727	1138.671	867.369
287.687	20.628	1137.903	866.215
288.701	20.725	1137.287	866.151
289.716	20.755	1136.007	865.246
290.730	20.740	1135.519	864.723
291.745	20.743	1135.014	864.280
292.760	20.775	1134.617	864.058
293.774	20.922	1134.274	864.453
294.789	20.977	1133.759	864.255
295.803	20.925	1132.897	863.266
296.818	20.775	1131.719	861.547
297.833	20.806	1130.945	861.033
298.847	20.763	1130.330	860.277
299.862	20.865	1129.516	860.085
300.876	20.899	1128.821	859.650
301.891	20.857	1128.356	859.011
302.906	20.991	1127.475	858.926
303.920	21.153	1127.151	859.402
304.935	21.206	1126.604	859.168
305.949	21.218	1125.902	858.614
306.964	21.362	1125.216	858.724
307.979	21.170	1124.343	857.040
308.993	21.115	1123.863	856.327
310.008	21.163	1122.806	855.679
311.022	21.249	1122.137	855.516
312.037	21.291	1121.158	854.900
313.052	21.154	1120.360	853.545
314.066	20.987	1119.319	851.862
315.081	20.767	1118.289	849.931
316.095	20.820	1118.091	849.961
317.110	20.814	1116.886	848.942
318.125	20.832	1116.091	848.349
319.139	20.832	1115.329	847.697
320.154	20.825	1115.149	847.448
321.168	20.862	1114.487	847.054
322.183	20.968	1113.643	846.850
323.197	21.011	1113.101	846.573
324.212	21.066	1112.408	846.236
325.227	21.111	1111.788	845.905
326.241	21.028	1111.448	845.172
327.256	21.010	1110.515	844.301
328.270	21.064	1109.171	843.464
329.285	20.966	1108.860	842.678
330.300	21.049	1107.423	841.915
331.314	20.983	1106.522	840.839
332.329	21.009	1105.782	840.324
333.343	20.882	1105.320	839.286
334.358	21.234	1104.087	839.971
335.373	21.211	1103.998	839.716
336.387	21.290	1103.184	839.406
337.402	21.281	1102.298	838.613
338.416	21.265	1102.167	838.364
339.431	21.310	1101.460	837.964
340.446	21.556	1100.401	838.265
341.460	21.650	1099.981	838.319
342.475	21.611	1099.415	837.626
343.489	21.792	1098.300	837.570
344.504	21.744	1097.562	836.702
345.519	21.845	1096.612	836.389
346.533	21.819	1095.734	835.522
347.548	21.920	1095.191	835.513
348.562	21.903	1094.244	834.633
349.577	21.688	1093.364	832.870
350.592	21.524	1092.340	831.234
351.606	21.425	1091.709	830.212
352.621	21.248	1091.301	828.989
353.635	21.338	1090.453	828.699
354.650	21.372	1089.627	828.157
355.665	21.471	1088.932	828.026
356.679	21.598	1088.188	827.986
357.694	21.578	1087.919	827.612
358.708	21.692	1087.354	827.650
359.723	21.658	1086.736	826.943
360.738	21.684	1085.911	826.366
361.752	21.662	1085.318	825.739
362.767	21.704	1085.144	825.733
363.781	21.580	1084.798	824.809
364.796	21.699	1084.119	824.782
365.810	21.923	1083.323	825.158
366.825	22.108	1082.769	825.528
367.840	22.196	1082.065	825.336
368.854	22.196	1082.055	825.255
369.869	22.171	1081.123	824.355
370.883	22.000	1080.292	822.844
371.898	22.042	1079.595	822.437
372.913	22.004	1078.570	821.405
373.927	22.065	1078.103	821.264
374.942	22.048	1078.472	821.394
375.956	22.067	1077.608	820.749
376.971	22.179	1076.438	820.307
377.986	22.188	1075.933	819.895
379.000	22.303	1075.601	820.104
380.015	22.361	1075.118	819.933
381.029	22.355	1074.423	819.304
382.044	22.286	1073.487	818.196
383.059	22.248	1073.108	817.656
384.073	22.315	1072.113	817.137
385.088	22.504	1070.853	816.981
386.102	22.304	1070.288	815.551
387.117	22.106	1069.311	813.818
388.132	21.969	1068.268	812.317
389.146	22.010	1067.406	811.781
390.161	22.046	1066.664	811.313
391.175	22.064	1066.169	810.946
392.190	22.213	1065.251	810.862
393.205	22.237	1064.753	810.524
394.219	22.223	1063.709	809.591
395.234	22.208	1062.891	808.828
396.248	22.111	1061.785	807.468
397.263	22.106	1060.741	806.583
398.278	22.070	1060.207	805.938
399.292	22.062	1059.215	805.075
400.307	21.962	1058.395	803.923
401.321	22.032	1058.144	803.984
402.336	21.975	1057.190	802.926
403.350	22.077	1056.822	803.042
404.365	22.082	1055.950	802.330
405.380	22.244	1055.118	802.368
406.394	22.094	1054.803	801.371
407.409	22.229	1053.928	801.252
408.423	22.416	1053.328	801.575
409.438	22.471	1052.792	801.349
410.453	22.604	1052.066	801.327
411.467	22.690	1051.182	800.975
412.482	22.594	1050.971	800.310
413.496	22.848	1050.260	800.846
414.511	22.875	1049.449	800.283
415.526	22.882	1049.014	799.908
416.540	22.992	1048.809	800.179
417.555	22.815	1048.282	798.906
418.569	22.685	1048.023	798.052
419.584	22.708	1047.179	797.441
420.599	22.742	1047.009	797.396
421.613	154.369	1400.867	1787.814
422.628	141.515	1452.417	1787.938
