DTS Sentinel unit serial number:	SN413079Multiplexer serial number:	ORYXHardware model number:	OX4-SRSoftware version number:	ORYX F/W v4.00 Oryx Data Collector v3.7.2.0data status	okinstallation	princeton_trtdifferential loss correction	single-endedforward channel	channel 2reverse channel	N/Adate	2019/09/11time	21:41:10forward acquisition time	60.00reverse acquisition time	0.00gamma	496.2192k internal	0.2325k external	0.2325temperature offset calibration	1.0069default loss term (dB/km)	0.3790temperature slope calibration	1.0000multiplexer offset coefficient	1.0000multiplexer slope coefficient	1.0000fibre end	0.00T internal ref (°C)	35.81T ext. ref 1 (°C)	1.71T ext. ref 2 (°C)	30.35length (m)	temperature (°C)	Stokes	anti-Stokes-747.200	-64.125	0.239	0.098
-746.185	-200.000	-0.084	0.410
-745.171	-200.000	-0.046	0.218
-744.156	-10.137	0.400	0.268
-743.142	230.941	-0.292	0.482
-742.127	433.844	-0.131	0.288
-741.112	800.000	0.119	0.356
-740.098	-200.000	0.013	0.217
-739.083	-24.202	-0.313	0.188
-738.069	-21.633	-0.097	-0.060
-737.054	-200.000	-0.070	0.369
-736.039	-141.123	0.048	0.005
-735.025	-68.315	0.248	0.097
-734.010	800.000	-0.028	0.096
-732.996	-61.115	0.195	-0.083
-731.981	-32.204	0.156	-0.088
-730.966	-200.000	0.031	0.260
-729.952	-51.481	-0.460	0.217
-728.937	317.350	-0.002	-0.004
-727.923	-200.000	0.006	-0.249
-726.908	-164.639	0.220	-0.010
-725.894	800.000	0.093	0.281
-724.879	-80.607	-0.412	-0.138
-723.864	78.010	0.148	0.160
-722.850	-156.054	-0.077	0.005
-721.835	32.044	0.198	-0.172
-720.821	800.000	-0.098	-0.306
-719.806	44.333	-0.125	0.116
-718.791	-110.398	-0.151	0.032
-717.777	-200.000	0.073	-0.376
-716.762	-200.000	0.012	0.108
-715.748	205.101	0.145	-0.227
-714.733	-109.750	0.212	-0.045
-713.718	7.660	0.240	-0.181
-712.704	-74.694	-0.131	-0.047
-711.689	-127.223	0.211	-0.031
-710.675	91.892	-0.122	0.138
-709.660	-50.340	0.386	0.184
-708.645	11.443	-0.262	-0.202
-707.631	-89.212	-0.233	-0.069
-706.616	525.865	0.061	0.144
-705.602	-65.386	-0.080	0.032
-704.587	-200.000	0.012	-0.303
-703.572	800.000	0.051	-0.197
-702.558	-62.844	0.478	-0.199
-701.543	-38.798	0.126	0.067
-700.529	322.473	0.108	-0.208
-699.514	-1.935	0.237	-0.168
-698.499	-200.000	-0.011	-0.263
-697.485	-124.662	-0.179	-0.028
-696.470	800.000	0.050	0.175
-695.456	425.976	0.125	0.270
-694.441	81.942	0.128	0.140
-693.426	-200.000	0.002	-0.166
-692.412	-32.001	-0.200	-0.113
-691.397	-145.965	-0.207	-0.018
-690.383	-200.000	0.068	0.403
-689.368	23.740	-0.105	-0.087
-688.354	-89.538	-0.153	-0.045
-687.339	-20.434	-0.173	-0.107
-686.324	-33.233	0.185	-0.103
-685.310	-200.000	-0.031	0.373
-684.295	-200.000	0.110	0.000
-683.281	-200.000	-0.051	-0.372
-682.266	-167.199	-0.166	-0.007
-681.251	-27.415	0.257	0.150
-680.237	376.264	-0.134	-0.275
-679.222	98.507	0.205	-0.238
-678.208	-17.141	-0.207	-0.132
-677.193	-13.771	-0.193	-0.125
-676.178	7.532	-0.106	-0.080
-675.164	800.000	-0.079	-0.309
-674.149	0.550	-0.176	0.127
-673.135	150.032	0.071	0.097
-672.120	800.000	-0.042	-0.158
-671.105	-34.351	0.207	0.114
-670.091	-200.000	-0.009	0.102
-669.076	72.235	-0.154	-0.161
-668.062	97.777	0.109	-0.126
-667.047	-200.000	-0.035	-0.161
-666.032	800.000	0.030	0.085
-665.018	247.735	-0.114	0.193
-664.003	145.085	-0.135	-0.181
-662.989	-200.000	0.001	0.206
-661.974	-200.000	-0.361	0.000
-660.959	-51.775	-0.275	-0.129
-659.945	-112.131	-0.176	0.035
-658.930	-70.911	-0.278	0.105
-657.916	71.652	0.105	0.109
-656.901	37.494	-0.083	-0.074
-655.886	-33.234	-0.356	-0.198
-654.872	-200.000	-0.026	0.370
-653.857	-156.036	0.117	0.007
-652.843	227.224	-0.376	-0.615
-651.828	231.416	0.044	0.073
-650.814	359.584	-0.043	-0.086
-649.799	64.580	-0.058	-0.059
-648.784	725.108	0.039	-0.105
-647.770	-2.499	-0.159	0.112
-646.755	-200.000	0.028	0.146
-645.741	-200.000	-0.024	0.205
-644.726	-28.253	0.042	-0.024
-643.711	-50.813	0.163	-0.077
-642.697	196.359	-0.124	-0.189
-641.682	-200.000	0.001	-0.170
-640.668	800.000	0.048	0.164
-639.653	-200.000	0.040	-0.370
-638.638	-75.603	0.225	0.080
-637.624	203.904	-0.101	-0.157
-636.609	-166.815	-0.386	0.016
-635.595	-105.502	0.201	-0.046
-634.580	728.589	0.046	0.125
-633.565	-200.000	-0.030	-0.526
-632.551	-115.459	-0.303	-0.057
-631.536	800.000	-0.032	-0.114
-630.522	187.783	-0.189	-0.284
-629.507	800.000	0.100	0.337
-628.492	-47.789	0.144	-0.070
-627.478	16.941	0.097	-0.077
-626.463	319.984	-0.071	-0.136
-625.449	694.712	-0.033	0.087
-624.434	-171.120	0.330	0.011
-623.419	-200.000	-0.009	0.199
-622.405	-200.000	0.051	-0.284
-621.390	41.331	0.117	0.106
-620.376	-200.000	0.005	0.069
-619.361	-67.432	-0.408	-0.161
-618.346	-200.000	0.057	-0.333
-617.332	-18.543	0.155	-0.097
-616.317	-117.458	0.350	-0.064
-615.303	800.000	-0.063	0.243
-614.288	418.488	0.102	-0.218
-613.273	329.194	0.053	0.101
-612.259	-45.711	-0.169	0.084
-611.244	14.078	-0.182	-0.143
-610.230	416.238	0.040	-0.085
-609.215	139.975	0.087	-0.115
-608.201	-200.000	-0.016	-0.204
-607.186	-73.341	0.043	0.016
-606.171	800.000	-0.062	-0.222
-605.157	-149.967	0.200	-0.016
-604.142	-200.000	-0.034	-0.235
-603.128	-200.000	0.035	0.347
-602.113	-50.999	-0.096	0.045
-601.098	-200.000	-0.020	0.143
-600.084	410.277	0.061	-0.131
-599.069	580.356	-0.151	-0.372
-598.055	34.892	-0.028	-0.025
-597.040	343.068	-0.060	-0.117
-596.025	-59.771	-0.177	0.076
-595.011	149.576	0.105	0.143
-593.996	245.153	-0.105	0.177
-592.982	-25.648	-0.040	0.024
-591.967	118.808	-0.205	0.254
-590.952	-152.428	0.240	-0.017
-589.938	570.290	-0.064	-0.155
-588.923	-34.694	-0.122	-0.067
-587.909	800.000	0.081	-0.288
-586.894	-53.067	0.135	-0.062
-585.879	-200.000	-0.033	0.357
-584.865	-1.650	0.229	0.162
-583.850	213.325	-0.009	0.014
-582.836	61.896	0.129	-0.129
-581.821	-156.226	-0.189	-0.012
-580.806	22.520	-0.054	0.044
-579.792	800.000	-0.028	-0.093
-578.777	-200.000	-0.025	-0.319
-577.763	-200.000	0.002	-0.142
-576.748	-141.716	-0.109	0.011
-575.733	-133.775	0.067	-0.008
-574.719	200.836	0.041	-0.063
-573.704	800.000	0.037	-0.125
-572.690	-200.000	-0.097	-0.455
-571.675	264.029	0.093	-0.162
-570.661	-178.079	-0.233	0.006
-569.646	217.673	0.068	-0.109
-568.631	145.143	-0.106	0.142
-567.617	-200.000	0.019	-0.128
-566.602	-70.188	-0.119	-0.045
-565.588	507.320	0.056	0.130
-564.573	-44.936	-0.162	-0.081
-563.558	-195.574	0.378	0.003
-562.544	-105.904	0.159	-0.036
-561.529	-112.833	-0.147	0.029
-560.515	-200.000	0.011	-0.145
-559.500	-76.431	0.127	0.045
-558.485	-15.056	0.087	-0.056
-557.471	271.800	0.089	-0.158
-556.456	22.744	-0.041	0.034
-555.442	-13.285	0.116	0.076
-554.427	800.000	0.081	0.349
-553.412	-48.321	-0.069	-0.033
-552.398	-200.000	-0.282	0.000
-551.383	-105.648	0.161	0.037
-550.369	-200.000	0.109	-0.699
-549.354	-106.372	-0.147	-0.033
-548.339	17.081	-0.121	0.096
-547.325	-200.000	0.036	0.181
-546.310	-200.000	0.005	0.098
-545.296	-45.998	-0.262	0.129
-544.281	-44.666	0.083	0.041
-543.266	800.000	0.053	0.225
-542.252	-139.753	0.244	-0.026
-541.237	-200.000	-0.043	-0.233
-540.223	-49.387	0.043	0.021
-539.208	800.000	0.159	-0.443
-538.193	-2.661	-0.093	-0.065
-537.179	-89.887	-0.182	0.053
-536.164	-151.305	-0.297	-0.022
-535.150	54.621	0.152	-0.147
-534.135	-27.532	-0.178	0.104
-533.121	53.575	-0.138	0.132
-532.106	-104.496	-0.157	0.036
-531.091	44.262	-0.171	-0.157
-530.077	-120.447	-0.117	0.020
-529.062	-68.258	-0.211	-0.082
-528.048	-200.000	-0.004	0.020
-527.033	-3.833	-0.026	-0.018
-526.018	-98.187	-0.217	0.056
-525.004	-135.301	0.219	0.026
-523.989	195.486	0.142	0.215
-522.975	53.710	-0.274	0.263
-521.960	754.986	-0.067	-0.180
-520.945	-200.000	0.023	-0.152
-519.931	-68.668	0.109	-0.042
-518.916	-200.000	-0.048	0.299
-517.902	251.328	-0.139	0.236
-516.887	630.297	0.095	0.239
-515.872	-11.316	0.024	-0.016
-514.858	17.628	0.092	-0.073
-513.843	-61.369	0.176	0.074
-512.829	800.000	-0.034	0.121
-511.814	126.610	-0.143	-0.181
-510.799	-77.420	0.292	-0.101
-509.785	-144.564	-0.152	-0.014
-508.770	-25.443	-0.182	0.108
-507.756	-74.598	0.115	-0.041
-506.741	800.000	0.085	-0.366
-505.726	-14.113	-0.106	-0.069
-504.712	-81.947	-0.096	-0.031
-503.697	235.017	-0.090	-0.148
-502.683	208.915	0.119	-0.186
-501.668	-110.100	-0.332	-0.069
-500.653	107.938	0.142	0.169
-499.639	-18.196	-0.362	-0.226
-498.624	-200.000	-0.047	-0.217
-497.610	-200.000	-0.006	0.147
-496.595	4.718	-0.106	-0.078
-495.581	101.491	0.260	0.303
-494.566	800.000	-0.047	0.176
-493.551	800.000	-0.035	-0.112
-492.537	800.000	0.054	-0.169
-491.522	-2.883	-0.176	0.123
-490.508	-130.067	0.106	-0.014
-489.493	-199.908	0.200	-0.001
-488.478	800.000	-0.100	0.298
-487.464	-138.307	-0.351	0.039
-486.449	800.000	-0.078	0.236
-485.435	310.427	0.076	0.143
-484.420	800.000	-0.091	0.301
-483.405	-93.883	0.346	-0.095
-482.391	136.736	-0.072	0.094
-481.376	175.519	-0.181	0.262
-480.362	250.886	-0.037	-0.062
-479.347	427.441	0.196	-0.422
-478.332	-90.827	0.225	0.065
-477.318	91.509	0.108	0.121
-476.303	-100.314	0.234	0.058
-475.289	-33.157	-0.110	-0.061
-474.274	-200.000	0.036	-0.305
-473.259	6.393	0.299	-0.221
-472.245	-200.000	0.011	-0.208
-471.230	-89.616	0.493	-0.144
-470.216	-0.231	0.135	-0.096
-469.201	-167.174	0.243	0.010
-468.186	800.000	-0.080	-0.264
-467.172	-69.902	-0.212	0.081
-466.157	-175.995	-0.043	0.001
-465.143	-99.046	-0.210	0.053
-464.128	-200.000	-0.066	0.305
-463.113	430.327	0.093	0.201
-462.099	16.962	0.242	0.191
-461.084	-177.029	0.324	-0.008
-460.070	80.423	0.153	-0.165
-459.055	152.540	0.055	-0.075
-458.040	-56.541	0.148	0.065
-457.026	-82.132	-0.283	-0.092
-456.011	-173.128	0.287	-0.009
-454.997	-141.292	-0.462	0.047
-453.982	-200.000	-0.049	-0.367
-452.968	232.505	-0.067	0.110
-451.953	-29.300	0.221	0.126
-450.938	-156.313	-0.113	-0.007
-449.924	358.306	0.075	0.149
-448.909	-46.426	0.160	0.078
-447.895	216.968	0.176	-0.280
-446.880	-54.038	-0.437	-0.199
-445.865	-19.709	-0.209	0.129
-444.851	800.000	0.029	-0.120
-443.836	-200.000	-0.047	-0.338
-442.822	-118.032	-0.106	-0.019
-441.807	-200.000	0.054	0.323
-440.792	25.573	-0.158	0.131
-439.778	-63.383	-0.122	0.050
-438.763	-36.967	-0.146	-0.078
-437.749	357.831	0.045	0.089
-436.734	18.967	-0.015	0.012
-435.719	-172.931	-0.281	0.009
-434.705	800.000	0.090	0.385
-433.690	-200.000	-0.003	0.075
-432.676	393.037	-0.128	-0.266
-431.661	78.739	-0.049	-0.052
-430.646	-200.000	-0.093	0.000
-429.632	800.000	-0.121	0.443
-428.617	-82.706	0.168	0.054
-427.603	-200.000	0.023	0.151
-426.588	-56.261	-0.318	0.141
-425.573	-129.650	0.111	0.015
-424.559	800.000	-0.071	-0.265
-423.544	201.669	0.090	0.139
-422.530	-104.012	-0.258	-0.060
-421.515	-200.000	-0.040	0.185
-420.500	-200.000	-0.009	0.312
-419.486	217.378	-0.023	0.037
-418.471	306.375	-0.169	0.314
-417.457	-80.884	-0.064	0.021
-416.442	800.000	0.055	-0.178
-415.428	49.995	0.182	-0.171
-414.413	-55.333	0.183	0.082
-413.398	-54.564	0.413	0.186
-412.384	-200.000	0.027	0.184
-411.369	-153.464	0.473	-0.033
-410.355	-200.000	-0.026	-0.268
-409.340	5.376	-0.091	0.067
-408.325	-200.000	0.013	-0.079
-407.311	-106.765	0.295	0.065
-406.296	-94.689	-0.297	-0.080
-405.282	-44.595	-0.289	0.144
-404.267	-200.000	-0.038	-0.215
-403.252	-200.000	0.038	0.192
-402.238	53.049	-0.152	0.145
-401.223	800.000	0.079	-0.257
-400.209	-59.626	-0.033	0.014
-399.194	-50.911	0.197	-0.092
-398.179	-87.863	-0.038	-0.012
-397.165	800.000	0.122	-0.365
-396.150	-156.793	0.123	-0.008
-395.136	-76.522	0.248	-0.087
-394.121	800.000	-0.018	0.053
-393.106	509.352	0.106	0.245
-392.092	-159.234	-0.154	0.009
-391.077	-134.939	0.172	-0.021
-390.063	-127.523	-0.220	0.032
-389.048	-200.000	-0.001	0.072
-388.033	9.079	-0.167	-0.125
-387.019	-102.006	0.342	-0.082
-386.004	-200.000	-0.029	0.265
-384.990	-200.000	0.023	0.177
-383.975	113.110	0.102	0.123
-382.960	44.000	-0.357	-0.325
-381.946	-200.000	0.006	0.133
-380.931	130.205	-0.068	0.086
-379.917	-68.838	0.260	-0.100
-378.902	-64.191	-0.180	-0.073
-377.888	-162.725	0.077	0.004
-376.873	27.664	-0.202	0.169
-375.858	-200.000	0.029	-0.138
-374.844	9.505	0.199	0.150
-373.829	-126.250	0.041	0.006
-372.815	-68.735	-0.380	-0.146
-371.800	-58.717	-0.171	0.074
-370.785	215.975	-0.219	0.345
-369.771	738.244	0.047	-0.125
-368.756	308.626	-0.079	0.147
-367.742	-123.627	0.282	-0.044
-366.727	800.000	0.061	0.178
-365.712	95.300	0.195	-0.221
-364.698	-47.346	-0.112	0.054
-363.683	-67.821	0.228	-0.088
-362.669	-9.213	0.139	0.092
-361.654	-200.000	-0.022	0.117
-360.639	12.845	0.281	0.216
-359.625	-200.000	-0.017	-0.076
-358.610	-200.000	0.045	0.240
-357.596	-40.869	-0.135	-0.070
-356.581	-9.333	-0.074	-0.049
-355.566	151.195	0.061	0.083
-354.552	-25.412	-0.154	0.090
-353.537	-103.574	0.140	-0.033
-352.523	-106.566	-0.205	-0.045
-351.508	800.000	0.068	0.281
-350.493	224.326	-0.109	-0.174
-349.479	232.808	0.077	0.126
-348.464	196.700	-0.192	0.290
-347.450	426.661	0.075	0.161
-346.435	-78.853	-0.182	0.062
-345.420	-200.000	-0.011	0.133
-344.406	527.034	0.161	-0.377
-343.391	-108.307	-0.105	-0.023
-342.377	49.468	0.043	0.040
-341.362	-35.068	-0.156	0.084
-340.348	55.750	0.246	-0.237
-339.333	-200.000	0.017	-0.520
-338.318	-115.933	-0.204	-0.038
-337.304	-105.071	0.248	-0.056
-336.289	-79.467	-0.153	0.051
-335.275	65.694	-0.205	-0.206
-334.260	187.185	0.066	-0.098
-333.245	-200.000	0.021	0.286
-332.231	-124.735	-0.416	-0.064
-331.216	-14.553	0.448	0.286
-330.202	800.000	0.081	-0.236
-329.187	-29.920	-0.364	0.206
-328.172	-163.743	-0.145	0.007
-327.158	189.807	0.070	-0.104
-326.143	-40.733	-0.024	0.012
-325.129	-146.787	-0.159	-0.014
-324.114	-200.000	-0.068	0.297
-323.099	173.516	0.155	0.222
-322.085	356.233	0.058	0.115
-321.070	-99.121	0.258	-0.065
-320.056	-95.322	-0.356	-0.095
-319.041	800.000	-0.125	-0.357
-318.026	195.701	-0.057	-0.086
-317.012	-136.031	0.103	-0.012
-315.997	-113.079	-0.271	-0.053
-314.983	-200.000	-0.009	-0.099
-313.968	-77.981	-0.429	0.147
-312.953	131.275	-0.095	0.121
-311.939	-94.668	-0.130	-0.035
-310.924	-109.930	0.104	0.022
-309.910	15.330	-0.062	-0.049
-308.895	218.420	0.191	0.302
-307.880	-15.642	-0.061	-0.039
-306.866	-200.000	0.048	0.236
-305.851	-124.283	0.329	0.051
-304.837	-86.585	0.062	0.019
-303.822	-200.000	-0.014	-0.090
-302.807	-176.807	-0.216	-0.005
-301.793	-77.762	-0.465	0.160
-300.778	-70.845	0.195	0.073
-299.764	0.108	-0.073	0.052
-298.749	274.298	0.022	-0.039
-297.735	66.509	-0.129	0.130
-296.720	-112.129	0.172	-0.034
-295.705	-74.890	-0.157	-0.056
-294.691	621.584	0.091	-0.226
-293.676	129.128	-0.093	0.118
-292.662	140.141	0.207	0.271
-291.647	22.148	0.130	-0.105
-290.632	162.535	0.241	0.336
-289.618	-71.886	0.366	0.135
-288.603	-53.693	-0.329	-0.149
-287.589	800.000	0.059	0.203
-286.574	800.000	0.078	0.316
-285.559	-46.244	-0.225	-0.110
-284.545	173.877	-0.167	0.240
-283.530	521.888	0.024	-0.057
-282.516	800.000	0.027	-0.080
-281.501	351.739	-0.038	0.075
-280.486	95.029	0.018	-0.020
-279.472	746.397	-0.107	-0.286
-278.457	-40.441	0.242	-0.124
-277.443	800.000	0.079	0.285
-276.428	-200.000	-0.036	0.225
-275.413	-98.252	0.343	-0.087
-274.399	172.442	-0.147	-0.209
-273.384	24.114	0.142	-0.116
-272.370	497.512	0.027	-0.062
-271.355	211.853	0.091	0.143
-270.340	682.207	0.086	0.222
-269.326	-200.000	-0.007	-0.104
-268.311	-49.166	-0.201	0.095
-267.297	747.920	0.081	-0.215
-266.282	133.128	0.172	-0.220
-265.267	-103.030	0.189	0.044
-264.253	351.854	0.188	0.369
-263.238	-102.272	0.100	-0.024
-262.224	521.830	-0.091	-0.212
-261.209	223.966	-0.197	-0.315
-260.195	95.294	-0.062	-0.070
-259.180	-200.000	0.035	-0.498
-258.165	-200.000	0.023	0.188
-257.151	-200.000	-0.010	-0.474
-256.136	4.171	0.164	-0.119
-255.122	120.433	0.333	0.410
-254.107	71.462	0.213	0.219
-253.092	-70.887	-0.215	-0.080
-252.078	-108.323	0.241	-0.052
-251.063	424.553	-0.116	0.247
-250.049	201.019	0.097	-0.147
-249.034	5.585	0.289	0.212
-248.019	-185.193	-0.195	0.003
-247.005	90.388	0.238	0.263
-245.990	32.014	-0.307	0.261
-244.976	-200.000	0.002	0.274
-243.961	-93.493	0.268	0.073
-242.946	323.888	-0.108	0.205
-241.932	-116.537	0.212	0.039
-240.917	800.000	0.081	0.224
-239.903	-84.700	0.286	-0.089
-238.888	-72.511	-0.025	-0.009
-237.873	225.189	0.049	-0.078
-236.859	28.744	0.053	-0.044
-235.844	189.004	0.119	-0.176
-234.830	47.041	0.091	-0.084
-233.815	-105.533	-0.203	-0.045
-232.800	-128.877	-0.311	-0.043
-231.786	-16.629	-0.238	-0.149
-230.771	-200.000	0.037	0.295
-229.757	-91.660	-0.266	-0.075
-228.742	283.684	0.060	-0.106
-227.727	98.493	0.083	-0.094
-226.713	424.826	-0.115	-0.244
-225.698	-12.203	-0.201	0.130
-224.684	-67.768	0.415	0.161
-223.669	124.361	0.114	0.142
-222.655	-22.494	-0.151	0.091
-221.640	59.929	-0.077	0.075
-220.625	-200.000	0.070	0.421
-219.611	137.204	-0.093	-0.120
-218.596	768.224	0.126	-0.339
-217.582	57.606	-0.075	0.073
-216.567	17.011	0.029	-0.023
-215.552	-200.000	0.014	-0.135
-214.538	-71.462	0.155	0.057
-213.523	229.988	-0.077	-0.124
-212.509	-200.000	0.049	0.282
-211.494	39.502	0.378	-0.335
-210.479	431.458	-0.068	-0.147
-209.465	55.946	0.158	0.152
-208.450	800.000	-0.109	-0.399
-207.436	-200.000	0.057	0.252
-206.421	-200.000	-0.038	0.225
-205.406	180.931	-0.151	-0.219
-204.392	-161.865	0.029	0.001
-203.377	-5.981	0.160	-0.108
-202.363	-94.890	-0.260	0.069
-201.348	-169.091	0.243	0.009
-200.333	800.000	0.039	0.140
-199.319	-120.873	-0.248	-0.041
-198.304	-200.000	0.010	0.126
-197.290	-117.042	-0.099	-0.018
-196.275	800.000	0.074	0.234
-195.260	99.791	-0.144	-0.164
-194.246	569.469	-0.061	0.148
-193.231	257.254	0.124	0.211
-192.217	-33.570	-0.080	-0.044
-191.202	165.075	0.087	0.121
-190.187	188.182	-0.029	0.043
-189.173	-21.250	-0.123	0.074
-188.158	-167.610	0.127	0.005
-187.144	-200.000	0.028	0.252
-186.129	14.451	-0.164	-0.127
-185.114	428.819	0.083	0.176
-184.100	-188.550	0.358	0.004
-183.085	800.000	-0.103	0.325
-182.071	800.000	0.012	-0.042
-181.056	233.066	-0.105	0.171
-180.042	260.465	-0.073	-0.125
-179.027	356.148	0.021	0.041
-178.012	-87.348	-0.207	-0.062
-176.998	-19.529	0.270	-0.165
-175.983	49.586	-0.074	-0.069
-174.969	3.882	0.293	-0.211
-173.954	-131.873	-0.232	0.030
-172.939	-6.428	-0.165	-0.111
-171.925	-43.621	-0.186	-0.092
-170.910	-132.600	0.373	0.047
-169.896	-76.264	-0.073	0.025
-168.881	-103.501	0.224	-0.052
-167.866	-192.158	-0.277	0.003
-166.852	-108.841	-0.407	0.086
-165.837	330.165	0.079	0.151
-164.823	28.410	-0.335	0.279
-163.808	60.258	0.169	0.165
-162.793	800.000	-0.103	-0.411
-161.779	800.000	-0.078	-0.279
-160.764	-200.000	0.005	0.060
-159.750	-28.101	0.448	-0.256
-158.735	-146.984	0.501	-0.042
-157.720	-200.000	-0.010	-0.057
-156.706	-200.000	-0.098	-0.470
-155.691	-200.000	0.044	-0.224
-154.677	800.000	0.101	0.294
-153.662	528.770	-0.050	0.115
-152.647	128.609	-0.046	0.058
-151.633	-59.909	-0.215	-0.091
-150.618	569.318	0.048	-0.114
-149.604	-200.000	0.022	0.210
-148.589	-46.881	-0.217	-0.105
-147.574	-144.889	0.290	0.026
-146.560	99.313	-0.077	-0.087
-145.545	-47.099	0.299	0.144
-144.531	161.729	-0.126	0.173
-143.516	-200.000	0.021	-0.366
-142.502	287.503	0.113	-0.202
-141.487	96.548	0.209	0.235
-140.472	40.311	0.135	-0.119
-139.458	-133.600	-0.085	-0.010
-138.443	-171.171	0.262	-0.009
-137.429	-44.962	-0.290	0.142
-136.414	800.000	-0.027	0.080
-135.399	-86.840	-0.055	0.016
-134.385	800.000	0.024	0.080
-133.370	-42.747	0.330	-0.165
-132.356	800.000	0.054	0.219
-131.341	-87.858	-0.087	-0.026
-130.326	378.802	0.111	0.223
-129.312	-185.162	-0.371	-0.006
-128.297	800.000	-0.093	-0.328
-127.283	-200.000	0.038	-0.245
-126.268	-94.894	0.110	0.029
-125.253	64.084	-0.327	-0.324
-124.239	-131.935	-0.379	0.049
-123.224	-52.307	-0.129	-0.059
-122.210	-200.000	-0.007	-0.090
-121.195	224.345	0.128	-0.204
-120.180	-200.000	0.005	0.227
-119.166	-119.479	-0.192	0.033
-118.151	-107.749	0.088	0.019
-117.137	-200.000	-0.035	-0.174
-116.122	29.222	0.249	0.208
-115.107	-107.644	-0.122	0.026
-114.093	-100.825	-0.404	0.098
-113.078	800.000	0.121	0.348
-112.064	-15.229	-0.102	0.064
-111.049	274.234	0.123	-0.215
-110.034	800.000	0.009	-0.026
-109.020	-200.000	0.042	0.340
-108.005	-47.838	0.108	0.052
-106.991	-200.000	0.036	0.260
-105.976	-78.004	-0.114	0.039
-104.962	-25.237	-0.228	0.133
-103.947	-172.066	0.048	0.002
-102.932	-69.492	0.272	0.102
-101.918	-50.852	0.353	0.163
-100.903	174.329	0.161	0.229
-99.889	800.000	-0.089	-0.347
-98.874	379.431	0.142	-0.286
-97.859	96.535	0.246	-0.277
-96.845	37.797	0.148	0.129
-95.830	337.238	0.113	-0.217
-94.816	32.766	0.117	0.100
-93.801	-178.218	0.178	-0.004
-92.786	-30.950	0.210	-0.117
-91.772	-122.918	0.272	-0.043
-90.757	98.400	-0.103	-0.117
-89.743	-132.087	-0.048	-0.006
-88.728	800.000	0.073	-0.259
-87.713	0.043	-0.025	-0.018
-86.699	30.939	-0.140	-0.118
-85.684	-105.374	0.120	-0.027
-84.670	108.414	0.190	-0.222
-83.655	-38.256	0.077	0.040
-82.640	800.000	0.054	0.171
-81.626	-91.974	0.314	0.088
-80.611	-43.888	0.167	0.082
-79.597	-145.839	-0.481	-0.042
-78.582	-200.000	0.013	-0.110
-77.567	-47.401	0.167	-0.080
-76.553	18.060	-0.176	0.138
-75.538	441.073	-0.108	-0.231
-74.524	242.863	-0.044	-0.072
-73.509	70.493	-0.162	0.165
-72.494	-101.942	-0.537	-0.127
-71.480	-129.541	-0.150	0.020
-70.465	-18.978	-0.206	0.126
-69.451	-200.000	-0.035	0.252
-68.436	800.000	0.006	-0.022
-67.422	465.460	0.029	0.064
-66.407	52.826	0.105	-0.099
-65.392	-200.000	-0.014	-0.268
-64.378	-200.000	0.058	-0.392
-63.363	-89.152	0.057	-0.016
-62.349	64.833	-0.159	0.157
-61.334	541.925	-0.436	-1.020
-60.319	800.000	0.204	0.593
-59.305	190.318	-0.525	-0.774
-58.290	248.965	0.502	0.836
-57.276	-200.000	0.302	1.813
-56.261	-200.000	93.482	565.906
-55.246	564.851	1365.553	3250.700
-54.232	154.786	2581.552	3484.220
-53.217	111.717	2286.770	2710.662
-52.203	45.711	1905.630	1729.665
-51.188	39.297	1693.344	1488.594
-50.173	36.371	1647.910	1427.010
-49.159	54.053	1696.129	1601.625
-48.144	57.668	1714.393	1645.860
-47.130	38.878	1670.826	1465.440
-46.115	35.846	1656.052	1429.932
-45.100	35.747	1650.782	1424.596
-44.086	35.676	1648.419	1421.974
-43.071	35.705	1645.755	1419.831
-42.057	35.625	1643.203	1416.984
-41.042	35.637	1641.190	1415.283
-40.027	35.710	1639.599	1414.390
-39.013	35.691	1637.231	1412.155
-37.998	35.658	1635.808	1410.623
-36.984	35.729	1634.518	1409.980
-35.969	35.851	1633.014	1409.521
-34.954	35.849	1631.420	1408.069
-33.940	35.823	1629.649	1406.296
-32.925	35.932	1627.752	1405.399
-31.911	35.763	1626.449	1402.986
-30.896	35.796	1624.406	1401.407
-29.881	35.798	1622.933	1400.099
-28.867	35.838	1621.517	1399.108
-27.852	35.834	1619.728	1397.486
-26.838	35.732	1618.636	1395.747
-25.823	35.849	1617.080	1395.195
-24.809	35.857	1615.527	1393.860
-23.794	35.835	1613.968	1392.297
-22.779	35.825	1612.637	1391.027
-21.765	35.840	1610.728	1389.429
-20.750	35.861	1608.894	1387.942
-19.736	35.798	1608.084	1386.739
-18.721	35.850	1606.763	1385.914
-17.706	35.812	1605.303	1384.328
-16.692	35.816	1603.252	1382.531
-15.677	35.796	1601.627	1380.931
-14.663	35.841	1600.953	1380.619
-13.648	35.851	1599.446	1379.340
-12.633	35.933	1597.374	1378.082
-11.619	35.888	1596.184	1376.682
-10.604	35.878	1594.854	1375.405
-9.590	35.861	1593.547	1374.101
-8.575	35.840	1592.177	1372.715
-7.560	35.853	1591.228	1371.937
-6.546	35.704	1590.291	1370.012
-5.531	35.786	1588.961	1369.399
-4.517	35.848	1587.350	1368.400
-3.502	35.841	1586.578	1367.625
-2.487	35.845	1585.086	1366.315
-1.473	35.719	1573.429	1355.325
-0.458	32.935	1554.083	1319.190
0.556	29.320	1554.070	1286.889
1.571	26.892	1578.790	1290.001
2.586	26.431	1593.282	1298.415
3.600	23.645	1540.785	1236.158
4.615	13.340	1427.444	1078.288
5.629	3.590	1358.445	965.331
6.644	1.825	1349.230	947.726
7.659	1.680	1348.320	946.103
8.673	1.734	1346.661	945.191
9.688	1.611	1344.953	943.144
10.702	1.364	1341.871	939.373
11.717	4.942	1349.392	966.780
12.731	15.522	1369.104	1047.105
13.746	23.797	1383.155	1109.660
14.761	25.727	1384.974	1123.074
15.775	25.973	1384.800	1124.365
16.790	26.001	1384.232	1123.982
17.804	26.130	1383.849	1124.376
18.819	26.240	1383.468	1124.648
19.834	26.395	1383.099	1125.215
20.848	26.410	1382.438	1124.669
21.863	26.315	1381.446	1123.171
22.877	26.416	1380.809	1123.183
23.892	26.392	1379.942	1122.228
24.907	26.424	1378.884	1121.470
25.921	26.497	1377.562	1120.747
26.936	26.331	1377.165	1119.294
27.950	26.405	1375.681	1118.448
28.965	26.386	1374.730	1117.457
29.980	26.445	1373.098	1116.398
30.994	26.342	1372.039	1114.804
32.009	26.327	1370.742	1113.558
33.023	26.399	1369.833	1113.162
34.038	26.417	1368.253	1111.890
35.053	26.398	1367.472	1111.041
36.067	26.304	1367.208	1110.150
37.082	26.262	1366.177	1108.961
38.096	26.281	1365.203	1108.185
39.111	26.372	1364.203	1107.832
40.126	26.365	1363.293	1106.954
41.140	26.338	1362.824	1106.310
42.155	26.355	1362.402	1105.976
43.169	26.388	1362.456	1106.120
44.184	26.390	1362.636	1106.179
45.199	26.265	1361.921	1104.737
46.213	26.400	1360.807	1104.565
47.228	26.461	1359.938	1104.131
48.242	26.351	1358.934	1102.550
49.257	26.373	1357.664	1101.555
50.271	26.359	1356.346	1100.304
51.286	26.379	1355.160	1099.368
52.301	26.421	1353.611	1098.270
53.315	26.392	1352.887	1097.407
54.330	26.429	1352.052	1096.852
55.344	26.385	1351.047	1095.675
56.359	26.390	1349.780	1094.585
57.374	26.361	1349.695	1094.244
58.388	26.411	1348.599	1093.559
59.403	26.439	1347.929	1093.086
60.417	26.333	1347.343	1091.873
61.432	26.407	1346.632	1091.648
62.447	26.354	1346.181	1090.868
63.461	26.370	1344.520	1089.523
64.476	26.394	1343.500	1088.745
65.490	26.472	1342.480	1088.290
66.505	26.287	1341.259	1086.093
67.520	26.429	1339.776	1085.649
68.534	26.341	1338.706	1084.153
69.549	26.337	1337.765	1083.271
70.563	26.469	1336.731	1083.134
71.578	26.467	1335.595	1082.104
72.593	26.458	1334.863	1081.360
73.607	26.487	1334.384	1081.050
74.622	26.310	1334.057	1079.632
75.636	26.455	1333.080	1079.614
76.651	26.495	1332.154	1079.005
77.666	26.422	1331.846	1078.224
78.680	26.392	1331.808	1077.916
79.695	26.461	1330.490	1077.167
80.709	26.409	1329.736	1076.149
81.724	26.275	1329.260	1074.877
82.739	26.412	1328.117	1074.671
83.753	26.342	1327.150	1073.378
84.768	26.458	1325.704	1072.800
85.782	26.424	1324.815	1071.783
86.797	26.403	1323.759	1070.710
87.812	26.380	1323.052	1069.908
88.826	26.506	1321.601	1069.387
89.841	26.350	1321.055	1067.929
90.855	26.418	1319.683	1067.124
91.870	26.545	1318.569	1066.880
92.884	26.407	1318.265	1065.726
93.899	26.339	1317.083	1064.272
94.914	26.475	1316.141	1064.219
95.928	26.422	1315.610	1063.383
96.943	26.422	1315.000	1062.798
97.957	26.487	1314.105	1062.363
98.972	26.427	1313.654	1061.550
99.987	26.375	1312.445	1060.175
101.001	26.433	1311.604	1059.738
102.016	26.455	1310.235	1058.670
103.030	26.382	1310.284	1058.185
104.045	26.398	1309.053	1057.195
105.060	26.358	1308.373	1056.318
106.074	26.393	1307.543	1055.760
107.089	26.478	1306.220	1055.093
108.103	26.466	1305.142	1054.056
109.118	26.621	1304.071	1054.000
110.133	26.606	1302.728	1052.735
111.147	26.565	1301.925	1051.756
112.162	26.527	1300.687	1050.440
113.176	26.583	1299.484	1049.705
114.191	26.543	1298.699	1048.744
115.206	26.579	1298.049	1048.333
116.220	26.546	1296.807	1047.050
117.235	26.560	1295.896	1046.299
118.249	26.427	1295.112	1044.808
119.264	26.508	1294.285	1044.516
120.279	26.558	1293.084	1043.740
121.293	26.623	1292.751	1043.756
122.308	26.619	1291.815	1042.882
123.322	26.542	1291.056	1041.733
124.337	26.638	1290.295	1041.584
125.352	26.517	1289.652	1040.272
126.366	26.581	1288.620	1039.718
127.381	26.640	1287.873	1039.360
128.395	26.613	1286.941	1038.365
129.410	26.505	1286.374	1037.192
130.424	26.695	1284.980	1037.063
131.439	26.618	1283.834	1035.608
132.454	26.622	1283.568	1035.328
133.468	26.641	1282.876	1034.785
134.483	26.588	1282.517	1034.099
135.497	26.648	1281.404	1033.457
136.512	26.677	1280.905	1033.126
137.527	26.541	1279.642	1031.242
138.541	26.704	1277.841	1030.623
139.556	26.664	1276.629	1029.331
140.570	26.578	1276.518	1028.662
141.585	26.622	1275.268	1027.811
142.600	26.533	1273.983	1026.182
143.614	26.607	1273.521	1026.139
144.629	26.543	1272.220	1024.635
145.643	26.477	1271.321	1023.447
146.658	26.402	1270.413	1022.201
147.673	26.549	1269.367	1022.103
148.687	26.520	1268.398	1021.064
149.702	26.372	1267.634	1019.526
150.716	26.551	1266.069	1019.188
151.731	26.667	1264.913	1018.815
152.746	26.606	1264.049	1017.687
153.760	26.564	1262.845	1016.392
154.775	26.534	1261.659	1015.179
155.789	26.548	1261.526	1015.062
156.804	26.637	1260.418	1014.579
157.819	26.490	1259.870	1013.225
158.833	26.589	1259.008	1012.996
159.848	26.704	1258.156	1012.862
160.862	26.717	1257.054	1011.963
161.877	26.599	1256.515	1010.778
162.892	26.500	1255.685	1009.467
163.906	26.700	1254.934	1009.888
164.921	26.700	1254.126	1009.151
165.935	26.670	1253.684	1008.539
166.950	26.688	1253.111	1008.091
167.964	26.653	1252.500	1007.314
168.979	26.664	1252.307	1007.131
169.994	26.729	1251.418	1006.686
171.008	26.723	1250.682	1005.970
172.023	26.831	1249.717	1005.709
173.037	26.593	1249.448	1004.083
174.052	26.680	1248.442	1003.668
175.067	26.700	1247.720	1003.108
176.081	26.797	1246.710	1002.745
177.096	26.652	1245.941	1001.235
178.110	26.594	1245.216	1000.245
179.125	26.582	1244.406	999.436
180.140	26.780	1243.038	999.344
181.154	26.718	1242.086	998.144
182.169	26.636	1241.181	996.880
183.183	26.553	1240.469	995.764
184.198	26.783	1239.035	995.788
185.213	26.698	1238.062	994.453
186.227	26.680	1237.076	993.473
187.242	26.744	1236.694	993.429
188.256	26.783	1235.426	992.537
189.271	26.794	1234.674	991.905
190.286	26.810	1234.456	991.728
191.300	26.738	1233.788	990.711
192.315	26.723	1232.933	989.855
193.329	26.817	1232.650	990.052
194.344	26.753	1232.233	989.281
195.359	26.853	1231.541	989.184
196.373	26.774	1231.350	988.511
197.388	26.698	1230.854	987.613
198.402	26.640	1230.731	987.110
199.417	26.749	1230.085	987.097
200.432	26.702	1229.510	986.291
201.446	26.671	1229.072	985.686
202.461	26.789	1227.592	985.054
203.475	26.854	1226.905	984.769
204.490	26.747	1226.151	983.496
205.504	26.799	1224.846	982.643
206.519	26.854	1224.530	982.598
207.534	26.819	1223.398	981.413
208.548	26.824	1222.373	980.536
209.563	26.851	1221.402	979.811
210.577	26.916	1220.748	979.552
211.592	26.830	1220.052	978.444
212.607	26.916	1219.235	978.165
213.621	26.990	1218.536	977.919
214.636	26.943	1217.756	976.950
215.650	26.938	1216.992	976.227
216.665	26.999	1215.455	975.234
217.680	26.917	1214.909	974.268
218.694	26.936	1214.617	974.049
219.709	26.887	1213.816	973.057
220.723	26.951	1212.950	972.623
221.738	26.875	1212.165	971.502
222.753	26.802	1211.898	970.809
223.767	26.840	1211.363	970.500
224.782	26.908	1210.843	970.359
225.796	26.974	1210.372	970.247
226.811	27.002	1209.539	969.645
227.826	26.898	1208.772	968.387
228.840	27.014	1208.489	968.694
229.855	26.966	1207.835	967.830
230.869	27.032	1206.953	967.386
231.884	27.101	1205.551	966.546
232.899	26.951	1205.275	965.440
233.913	26.957	1205.110	965.254
234.928	27.256	1204.190	966.024
235.942	27.050	1203.662	964.418
236.957	27.111	1202.896	964.041
237.972	27.067	1202.158	963.134
238.986	27.141	1201.343	962.785
240.001	27.131	1201.291	962.607
241.015	27.150	1200.390	961.903
242.030	27.108	1200.059	961.325
243.045	27.027	1199.462	960.335
244.059	27.107	1197.982	959.488
245.074	27.167	1197.382	959.241
246.088	27.081	1196.902	958.317
247.103	27.160	1195.741	957.718
248.117	27.196	1194.684	956.978
249.132	27.213	1193.964	956.403
250.147	27.152	1193.832	955.896
251.161	27.229	1193.190	955.703
252.176	27.199	1192.002	954.505
253.190	27.230	1191.343	954.059
254.205	27.257	1191.180	953.985
255.220	27.204	1190.361	952.964
256.234	27.297	1189.765	952.889
257.249	27.285	1188.940	952.083
258.263	27.235	1188.359	951.273
259.278	27.240	1187.961	950.894
260.293	27.300	1187.326	950.618
261.307	27.299	1186.707	950.032
262.322	27.316	1186.220	949.645
263.336	27.312	1185.471	948.940
264.351	27.327	1185.123	948.657
265.366	27.295	1184.626	948.009
266.380	27.381	1183.901	947.791
267.395	27.431	1182.735	947.038
268.409	27.285	1182.730	946.190
269.424	27.324	1182.313	945.973
270.439	27.360	1181.556	945.470
271.453	27.391	1180.847	944.980
272.468	27.220	1180.283	943.561
273.482	27.400	1179.324	943.640
274.497	27.363	1179.240	943.297
275.512	27.402	1178.497	942.822
276.526	27.312	1178.086	941.947
277.541	27.389	1177.290	941.625
278.555	27.426	1176.506	941.106
279.570	27.354	1175.695	940.003
280.585	27.213	1175.490	939.027
281.599	27.400	1174.155	938.838
282.614	27.496	1172.612	938.019
283.628	27.418	1172.596	937.521
284.643	27.446	1171.465	936.676
285.657	27.438	1170.755	935.989
286.672	27.417	1170.243	935.384
287.687	27.502	1169.204	934.908
288.701	27.451	1168.663	934.132
289.716	27.555	1167.593	933.730
290.730	27.480	1166.896	932.703
291.745	27.564	1166.449	932.695
292.760	27.560	1166.301	932.473
293.774	27.663	1165.261	932.086
294.789	27.603	1164.816	931.341
295.803	27.560	1164.185	930.532
296.818	27.607	1163.620	930.237
297.833	27.641	1162.978	929.816
298.847	27.648	1162.267	929.200
299.862	27.569	1161.689	928.254
300.876	27.524	1160.685	927.144
301.891	27.506	1160.550	926.858
302.906	27.638	1159.506	926.616
303.920	27.694	1159.380	926.717
304.935	27.723	1158.474	926.058
305.949	27.748	1157.596	925.403
306.964	27.696	1156.913	924.508
307.979	27.692	1156.293	923.911
308.993	27.734	1156.109	923.896
310.008	27.766	1155.260	923.296
311.022	27.743	1154.401	922.413
312.037	27.801	1153.695	922.062
313.052	27.774	1152.805	921.134
314.066	27.736	1151.824	920.075
315.081	27.746	1151.439	919.736
316.095	27.721	1151.018	919.190
317.110	27.743	1150.207	918.574
318.125	27.740	1149.899	918.233
319.139	27.802	1148.995	917.741
320.154	27.896	1148.123	917.433
321.168	27.837	1147.336	916.428
322.183	27.795	1147.551	916.306
323.197	27.784	1146.881	915.637
324.212	27.844	1146.180	915.298
325.227	27.886	1145.745	915.078
326.241	27.913	1144.821	914.394
327.256	27.867	1144.607	913.915
328.270	27.859	1143.244	912.705
329.285	27.970	1142.424	912.522
330.300	27.863	1141.666	911.305
331.314	27.889	1141.311	911.067
332.329	28.004	1140.415	910.844
333.343	28.046	1139.666	910.378
334.358	27.937	1138.894	909.138
335.373	28.038	1137.820	908.699
336.387	28.026	1137.181	908.053
337.402	28.041	1136.762	907.712
338.416	28.085	1136.399	907.556
339.431	28.012	1135.813	906.647
340.446	28.182	1134.861	906.652
341.460	28.024	1134.316	905.351
342.475	28.133	1133.655	905.286
343.489	28.073	1132.797	904.223
344.504	28.102	1131.621	903.348
345.519	28.193	1130.762	903.030
346.533	28.175	1130.176	902.396
347.548	28.155	1129.375	901.576
348.562	28.243	1128.473	901.209
349.577	28.220	1128.040	900.672
350.592	28.031	1127.480	899.213
351.606	28.040	1126.545	898.433
352.621	28.157	1126.115	898.584
353.635	28.146	1126.031	898.385
354.650	28.081	1125.268	897.375
355.665	28.326	1124.099	897.568
356.679	28.363	1123.805	897.433
357.694	28.234	1123.187	896.227
358.708	28.173	1122.424	895.241
359.723	28.285	1121.656	895.096
360.738	28.283	1120.818	894.342
361.752	28.323	1120.455	894.166
362.767	28.327	1120.097	893.821
363.781	28.397	1119.293	893.440
364.796	28.208	1119.150	892.326
365.810	28.335	1118.684	892.497
366.825	28.323	1117.607	891.500
367.840	28.384	1117.406	891.559
368.854	28.490	1116.670	891.406
369.869	28.512	1115.795	890.737
370.883	28.407	1115.160	889.638
371.898	28.478	1114.605	889.464
372.913	28.411	1113.915	888.509
373.927	28.402	1113.947	888.413
374.942	28.387	1113.397	887.821
375.956	28.326	1112.999	887.130
376.971	28.401	1111.974	886.598
377.986	28.528	1111.036	886.386
379.000	28.518	1111.078	886.294
380.015	28.562	1110.296	885.805
381.029	28.639	1109.711	885.627
382.044	28.620	1108.880	884.797
383.059	28.658	1108.481	884.581
384.073	28.607	1107.662	883.603
385.088	28.593	1107.079	882.995
386.102	28.547	1106.156	881.957
387.117	28.491	1105.672	881.227
388.132	28.518	1104.338	880.213
389.146	28.618	1103.911	880.275
390.161	28.715	1103.070	879.993
391.175	28.663	1102.718	879.383
392.190	28.579	1102.383	878.639
393.205	28.532	1101.710	877.796
394.219	28.460	1100.980	876.792
395.234	28.722	1099.901	877.109
396.248	28.829	1098.781	876.648
397.263	28.630	1098.015	875.011
398.278	28.718	1097.672	875.080
399.292	28.848	1096.902	875.006
400.307	28.791	1096.171	874.076
401.321	28.877	1095.410	873.800
402.336	28.694	1095.546	872.961
403.350	28.706	1094.616	872.200
404.365	28.868	1093.864	872.294
405.380	28.870	1093.235	871.725
406.394	28.788	1092.667	870.806
407.409	28.831	1092.008	870.406
408.423	28.863	1091.248	869.875
409.438	28.906	1090.193	869.162
410.453	29.013	1089.456	869.000
411.467	29.010	1088.970	868.521
412.482	28.910	1088.425	867.538
413.496	28.900	1088.034	867.104
414.511	28.949	1086.944	866.390
415.526	28.992	1086.458	866.129
416.540	28.976	1086.400	865.929
417.555	28.850	1086.234	865.125
418.569	29.013	1085.363	865.125
419.584	29.013	1085.238	864.949
420.599	29.069	1084.423	864.482
421.613	100.781	1315.021	1436.170
422.628	93.855	1348.595	1436.281
