DTS Sentinel unit serial number:	SN413079Multiplexer serial number:	ORYXHardware model number:	OX4-SRSoftware version number:	ORYX F/W v4.00 Oryx Data Collector v3.7.2.0data status	okinstallation	princeton_trtdifferential loss correction	single-endedforward channel	channel 2reverse channel	N/Adate	2019/09/12time	19:00:48forward acquisition time	15.00reverse acquisition time	0.00gamma	496.2192k internal	0.2324k external	0.2324temperature offset calibration	1.0142default loss term (dB/km)	0.3790temperature slope calibration	1.0000multiplexer offset coefficient	1.0000multiplexer slope coefficient	1.0000fibre end	0.00T internal ref (°C)	32.75T ext. ref 1 (°C)	3.04T ext. ref 2 (°C)	27.29length (m)	temperature (°C)	Stokes	anti-Stokes-747.200	-6.311	0.368	-0.253
-746.185	-105.015	-0.872	-0.202
-745.171	-16.311	0.133	0.085
-744.156	-27.308	-0.384	-0.225
-743.142	800.000	0.061	0.223
-742.127	-103.189	-1.649	0.394
-741.112	-32.411	-0.076	-0.043
-740.098	-113.453	-0.282	0.056
-739.083	-10.837	-0.777	-0.518
-738.069	394.024	0.056	0.117
-737.054	-97.327	-0.440	-0.116
-736.039	-108.335	-0.569	0.124
-735.025	-200.000	-0.024	0.235
-734.010	-100.119	-0.434	-0.109
-732.996	316.641	0.477	0.910
-731.981	705.123	0.173	-0.460
-730.966	129.585	-0.411	0.530
-729.952	800.000	-0.142	0.511
-728.937	286.710	0.292	-0.532
-727.923	794.085	0.086	-0.238
-726.908	800.000	0.472	-1.337
-725.894	192.702	-0.459	-0.699
-724.879	238.025	0.253	-0.423
-723.864	-132.084	0.542	0.071
-722.850	120.550	-0.345	0.432
-721.835	22.301	0.146	0.120
-720.821	-92.553	-0.526	-0.149
-719.806	-143.985	0.196	-0.019
-718.791	705.767	0.131	0.350
-717.777	-86.479	-0.917	0.284
-716.762	-50.133	0.769	-0.367
-715.748	-155.800	-0.869	-0.056
-714.733	166.856	-0.349	-0.500
-713.718	-200.000	-0.099	-0.606
-712.704	-164.333	0.370	-0.017
-711.689	-200.000	0.095	0.813
-710.675	800.000	0.277	-0.784
-709.660	237.355	0.249	-0.416
-708.645	156.394	-0.546	0.760
-707.631	175.415	-0.587	-0.857
-706.616	-126.525	-0.810	0.121
-705.602	5.044	0.724	0.537
-704.587	37.041	-1.182	-1.054
-703.572	-200.000	0.073	-1.033
-702.558	800.000	-0.223	-0.694
-701.543	-200.000	0.080	0.476
-700.529	82.244	-0.839	0.917
-699.514	-120.558	-0.500	0.085
-698.499	-21.992	-0.449	-0.275
-697.485	238.418	-0.161	-0.270
-696.470	195.585	-0.660	1.011
-695.456	-105.372	0.143	-0.033
-694.441	80.211	0.455	-0.493
-693.426	190.557	-0.256	-0.387
-692.412	404.467	0.394	-0.837
-691.397	-97.968	0.276	-0.072
-690.383	100.787	0.137	-0.160
-689.368	24.072	-0.545	0.453
-688.354	134.447	-0.531	0.694
-687.339	800.000	0.093	0.272
-686.324	-34.375	-0.270	-0.149
-685.310	-64.569	-1.005	0.411
-684.295	800.000	0.024	0.085
-683.281	548.802	0.193	-0.465
-682.266	356.567	0.239	0.480
-681.251	321.882	-0.368	0.706
-680.237	-200.000	0.040	-0.279
-679.222	16.285	-0.072	-0.057
-678.208	800.000	0.096	-0.368
-677.193	800.000	0.210	0.618
-676.178	800.000	0.269	0.945
-675.164	-200.000	0.013	0.359
-674.149	426.067	0.033	0.072
-673.135	-31.126	-0.194	0.110
-672.120	28.293	0.481	0.409
-671.105	-200.000	-0.077	0.538
-670.091	-2.639	-0.417	-0.294
-669.076	-200.000	-0.066	0.350
-668.062	440.286	0.285	-0.627
-667.047	-4.961	-0.377	0.261
-666.032	-5.759	0.536	0.369
-665.018	438.938	-0.163	-0.359
-664.003	-40.914	0.635	-0.330
-662.989	57.181	0.133	0.130
-661.974	-49.190	0.088	-0.042
-660.959	-153.773	0.582	-0.040
-659.945	-200.000	-0.093	0.466
-658.930	-73.765	0.102	0.037
-657.916	195.927	0.545	-0.834
-656.901	-200.000	0.125	-0.922
-655.886	-200.000	0.100	0.703
-654.872	-79.518	-0.410	-0.139
-653.857	158.786	0.305	-0.426
-652.843	403.905	0.182	0.386
-651.828	146.929	-0.294	0.398
-650.814	429.939	-0.236	0.513
-649.799	225.361	0.174	0.283
-648.784	-75.300	0.299	0.107
-647.770	319.317	-0.205	-0.390
-646.755	111.128	-0.663	0.803
-645.741	-125.678	-0.540	0.082
-644.726	25.832	0.454	0.380
-643.711	-115.722	0.764	0.144
-642.697	105.666	0.309	0.367
-641.682	-17.315	-0.236	-0.150
-640.668	-200.000	-0.021	-0.154
-639.653	-68.777	-0.446	0.173
-638.638	-200.000	0.039	0.660
-637.624	-147.782	-0.265	-0.022
-636.609	-130.189	-0.427	-0.058
-635.595	140.657	-0.053	-0.071
-634.580	-52.870	-0.498	-0.230
-633.565	-200.000	-0.009	-0.296
-632.551	98.295	0.775	-0.897
-631.536	56.558	-0.460	0.449
-630.522	-94.829	-0.403	-0.110
-629.507	297.636	0.311	-0.573
-628.492	-200.000	-0.106	-0.692
-627.478	800.000	0.066	-0.285
-626.463	-200.000	0.019	-0.599
-625.449	-51.199	-0.543	-0.256
-624.434	-100.887	-0.761	0.188
-623.419	-10.556	-0.195	-0.130
-622.405	-200.000	0.030	0.174
-621.390	-200.000	0.069	-0.628
-620.376	-141.766	-1.070	0.108
-619.361	800.000	0.147	0.430
-618.346	-57.420	-0.609	-0.268
-617.332	-98.907	0.402	0.103
-616.317	-200.000	-0.056	0.334
-615.303	164.140	0.147	0.208
-614.288	256.111	-0.071	0.123
-613.273	-200.000	0.021	-1.053
-612.259	-20.346	-0.728	0.450
-611.244	75.976	-0.193	-0.205
-610.230	-51.857	-0.364	-0.170
-609.215	504.940	0.251	-0.585
-608.201	-164.479	0.719	0.033
-607.186	-200.000	-0.110	-0.721
-606.171	167.759	-0.462	-0.660
-605.157	-45.219	0.516	-0.257
-604.142	-4.995	-0.301	-0.208
-603.128	608.157	0.202	-0.506
-602.113	390.540	-0.367	0.764
-601.098	-145.376	0.661	-0.060
-600.084	783.859	-0.200	-0.549
-599.069	567.586	-0.044	-0.107
-598.055	-67.376	-1.081	0.426
-597.040	-200.000	0.028	-0.355
-596.025	-2.052	0.891	0.628
-595.011	-200.000	0.090	0.486
-593.996	-56.291	-0.474	0.211
-592.982	53.153	-0.212	-0.204
-591.967	41.243	0.270	0.245
-590.952	-96.170	0.478	-0.127
-589.938	95.407	-0.646	0.739
-588.923	62.624	0.650	0.652
-587.909	-51.425	0.147	0.069
-586.894	81.468	0.381	-0.413
-585.879	-103.111	-0.206	0.049
-584.865	-200.000	0.066	-0.744
-583.850	-5.833	0.153	-0.105
-582.836	70.014	-0.174	0.180
-581.821	30.193	-0.523	-0.448
-580.806	-112.711	-0.299	-0.060
-579.792	-59.314	0.540	-0.233
-578.777	30.452	0.436	0.374
-577.763	318.778	0.334	-0.634
-576.748	206.641	0.389	-0.608
-575.733	228.476	0.457	-0.746
-574.719	122.721	0.121	-0.152
-573.704	146.597	0.242	0.325
-572.690	39.063	0.650	-0.583
-571.675	-200.000	-0.069	0.537
-570.661	-35.641	1.032	0.561
-569.646	-65.889	0.490	0.196
-568.631	-200.000	0.052	-0.395
-567.617	21.965	-0.658	-0.538
-566.602	-200.000	-0.056	-0.435
-565.588	-8.114	0.308	-0.208
-564.573	661.971	-0.143	0.370
-563.558	-152.332	-0.914	0.066
-562.544	-76.719	-0.219	-0.077
-561.529	427.392	0.206	-0.446
-560.515	800.000	-0.394	1.267
-559.500	54.577	-0.132	0.128
-558.485	-16.303	-0.262	0.167
-557.471	98.918	-0.127	0.147
-556.456	800.000	-0.085	0.361
-555.442	79.351	0.213	0.229
-554.427	-200.000	0.004	0.502
-553.412	-9.910	-0.131	0.087
-552.398	-104.558	0.205	0.047
-551.383	60.729	-0.122	-0.121
-550.369	-33.875	-0.076	-0.042
-549.354	-200.000	-0.032	-0.226
-548.339	65.251	-0.383	-0.388
-547.325	203.464	-0.230	-0.356
-546.310	18.240	-0.609	0.487
-545.296	800.000	-0.078	0.218
-544.281	-163.061	0.663	-0.032
-543.266	-54.391	-0.326	-0.148
-542.252	71.583	-0.329	-0.342
-541.237	-158.406	-0.213	-0.012
-540.223	71.932	0.302	0.314
-539.208	-200.000	-0.042	0.236
-538.193	-74.728	-0.269	-0.097
-537.179	35.033	0.503	-0.441
-536.164	-140.760	-0.896	0.093
-535.150	-113.669	-0.333	-0.065
-534.135	108.284	0.289	-0.345
-533.121	-10.387	-0.542	0.360
-532.106	-56.788	-1.054	-0.466
-531.091	299.600	-0.056	0.104
-530.077	-200.000	-0.079	-0.387
-529.062	447.815	0.275	-0.607
-528.048	11.581	0.615	-0.472
-527.033	-124.034	0.081	-0.013
-526.018	-104.460	-0.695	0.161
-525.004	-200.000	-0.038	-0.267
-523.989	-3.310	0.296	0.206
-522.975	800.000	0.042	-0.175
-521.960	2.774	0.327	0.237
-520.945	-86.782	0.482	0.147
-519.931	330.746	-0.158	-0.304
-518.916	-140.150	0.523	-0.055
-517.902	287.910	0.076	-0.138
-516.887	-200.000	0.004	-0.337
-515.872	-33.498	0.603	-0.333
-514.858	11.273	1.199	0.918
-513.843	-53.078	-0.325	0.150
-512.829	707.106	-0.117	-0.310
-511.814	112.432	-0.462	-0.559
-510.799	567.914	-0.147	-0.356
-509.785	368.645	-0.234	0.474
-508.770	-200.000	-0.032	-0.212
-507.756	-50.250	0.324	0.153
-506.741	-200.000	0.008	0.734
-505.726	125.167	-0.580	0.732
-504.712	4.769	-0.263	0.193
-503.697	-174.773	1.197	0.034
-502.683	100.197	-0.269	0.312
-501.668	-7.261	0.241	-0.164
-500.653	142.538	0.339	0.451
-499.639	107.527	0.389	0.462
-498.624	585.152	0.144	0.353
-497.610	-101.701	-1.454	-0.352
-496.595	-84.886	-0.256	-0.080
-495.581	-45.650	0.628	-0.310
-494.566	-48.530	-0.585	-0.281
-493.551	-118.541	0.447	0.079
-492.537	-200.000	-0.024	0.236
-491.522	-30.101	-0.205	0.116
-490.508	-70.119	-0.173	0.066
-489.493	30.604	0.469	0.401
-488.478	33.013	-0.376	-0.325
-487.464	800.000	-0.225	-0.818
-486.449	720.954	0.237	-0.631
-485.435	-16.790	0.636	0.402
-484.420	800.000	-0.257	-0.730
-483.405	-72.349	0.217	-0.080
-482.391	249.641	0.440	0.745
-481.376	-200.000	0.025	-0.447
-480.362	-200.000	0.104	-0.907
-479.347	67.202	-0.322	0.328
-478.332	800.000	0.070	0.216
-477.318	-29.582	1.079	-0.616
-476.303	498.550	0.163	0.375
-475.289	-101.672	0.698	-0.169
-474.274	59.852	0.566	0.558
-473.259	778.647	0.123	0.336
-472.245	-200.000	0.011	-0.152
-471.230	800.000	0.098	0.299
-470.216	167.797	0.262	0.373
-469.201	-4.935	0.447	0.307
-468.186	-76.419	-0.216	-0.076
-467.172	-89.256	-0.095	-0.028
-466.157	107.462	0.233	0.276
-465.143	328.923	-0.113	-0.217
-464.128	-84.717	0.116	0.037
-463.113	-200.000	0.028	-0.215
-462.099	-47.185	0.560	-0.273
-461.084	26.629	0.750	0.627
-460.070	-112.677	-0.884	0.176
-459.055	-95.475	0.383	0.103
-458.040	-39.769	-0.678	-0.354
-457.026	-200.000	0.133	0.754
-456.011	-175.638	0.586	0.016
-454.997	-43.080	0.071	-0.036
-453.982	-70.035	-0.380	0.144
-452.968	-113.408	-0.737	-0.144
-451.953	99.317	0.185	0.214
-450.938	-139.322	1.096	-0.118
-449.924	385.643	0.103	0.211
-448.909	105.457	-0.596	-0.702
-447.895	-41.767	0.437	-0.224
-446.880	-200.000	-0.214	1.009
-445.865	-200.000	0.005	0.533
-444.851	125.436	0.396	0.498
-443.836	-110.307	0.504	0.105
-442.822	17.097	-0.504	-0.398
-441.807	-114.109	0.238	-0.046
-440.792	11.192	0.739	0.564
-439.778	-41.634	-1.012	-0.519
-438.763	-200.000	-0.057	-0.409
-437.749	333.378	0.128	0.247
-436.734	74.968	0.456	0.479
-435.719	146.038	0.155	0.208
-434.705	106.760	0.192	-0.228
-433.690	266.461	0.247	0.430
-432.676	-24.113	-0.241	0.144
-431.661	-184.970	-0.525	-0.008
-430.646	175.622	-0.297	-0.429
-429.632	-114.312	0.175	-0.034
-428.617	135.890	0.307	-0.399
-427.603	17.267	-0.560	-0.443
-426.588	175.323	-0.280	0.404
-425.573	-178.170	0.804	0.019
-424.559	-8.167	-0.142	-0.096
-423.544	-27.562	-0.466	-0.270
-422.530	116.326	-0.260	0.318
-421.515	-200.000	0.063	0.838
-420.500	149.498	-0.387	-0.522
-419.486	800.000	-0.204	0.717
-418.471	732.703	0.089	0.238
-417.457	-29.896	0.219	-0.124
-416.442	800.000	-0.224	0.736
-415.428	68.827	-0.242	0.248
-414.413	33.240	-0.769	0.664
-413.398	-200.000	-0.005	0.729
-412.384	16.334	-0.910	0.716
-411.369	-59.577	0.474	-0.203
-410.355	30.720	0.520	0.443
-409.340	693.032	0.160	-0.418
-408.325	-200.000	0.008	-0.231
-407.311	-200.000	0.118	-0.545
-406.296	186.469	0.427	-0.633
-405.282	-38.883	0.240	-0.126
-404.267	286.703	-0.421	0.757
-403.252	85.265	-0.652	-0.713
-402.238	-34.509	-0.121	0.066
-401.223	-200.000	0.024	0.266
-400.209	337.492	0.295	0.572
-399.194	-159.926	-0.380	0.021
-398.179	153.106	-0.154	0.210
-397.165	240.814	-0.412	-0.684
-396.150	800.000	-0.161	-0.629
-395.136	-200.000	0.076	0.368
-394.121	-77.233	-0.935	-0.324
-393.106	-200.000	0.154	-0.846
-392.092	139.374	0.666	0.873
-391.077	83.035	-0.225	-0.244
-390.063	-16.467	-0.193	-0.122
-389.048	233.215	-0.281	0.460
-388.033	-27.467	0.773	0.447
-387.019	-11.844	-0.508	-0.332
-386.004	758.710	-0.104	-0.282
-384.990	800.000	-0.217	-0.783
-383.975	-200.000	-0.028	0.200
-382.960	44.480	-0.290	0.265
-381.946	-36.585	0.845	-0.452
-380.931	-87.723	0.629	-0.189
-379.917	-13.672	0.453	0.292
-378.902	-102.594	0.761	0.181
-377.888	-42.263	-0.298	-0.151
-376.873	215.589	0.061	0.097
-375.858	-162.669	-0.247	0.012
-374.844	-200.000	0.001	0.040
-373.829	348.446	0.165	0.323
-372.815	196.865	0.249	-0.377
-371.800	-200.000	0.014	-0.325
-370.785	-200.000	0.012	-0.234
-369.771	295.511	-0.265	-0.482
-368.756	-106.981	-0.286	-0.063
-367.742	-60.935	0.312	-0.131
-366.727	800.000	0.153	-0.438
-365.712	800.000	0.137	-0.532
-364.698	40.947	-0.370	0.332
-363.683	445.111	-0.270	-0.590
-362.669	-200.000	-0.120	0.593
-361.654	85.003	0.157	-0.171
-360.639	-86.666	-0.433	0.132
-359.625	154.547	-0.528	-0.720
-358.610	610.332	0.166	-0.413
-357.596	-200.000	0.243	-1.430
-356.581	-49.314	-0.543	0.258
-355.566	408.995	0.342	-0.719
-354.552	143.592	-0.253	-0.335
-353.537	-200.000	0.126	-0.652
-352.523	192.842	0.362	-0.544
-351.508	-80.407	0.437	0.145
-350.493	233.519	-0.367	-0.600
-349.479	103.406	-0.514	-0.600
-348.464	136.182	-0.512	-0.663
-347.450	-200.000	0.093	0.622
-346.435	-104.260	-0.345	-0.080
-345.420	23.461	0.480	0.392
-344.406	51.614	0.339	0.320
-343.391	-161.914	0.668	0.034
-342.377	-144.487	-0.794	-0.073
-341.362	349.152	-0.113	0.221
-340.348	-76.363	-0.358	-0.125
-339.333	534.841	-0.362	-0.852
-338.318	19.935	-0.663	0.531
-337.304	71.730	-0.238	0.246
-336.289	-200.000	0.116	-0.879
-335.275	-200.000	0.014	0.654
-334.260	2.775	0.752	0.542
-333.245	-136.384	-0.684	-0.079
-332.231	5.697	0.510	-0.375
-331.216	238.327	0.224	-0.369
-330.202	302.371	-0.254	-0.467
-329.187	165.272	0.382	0.536
-328.172	97.867	-0.350	-0.400
-327.158	167.873	0.448	-0.633
-326.143	-107.883	1.043	-0.225
-325.129	800.000	-0.115	-0.379
-324.114	-200.000	-0.129	-1.024
-323.099	339.842	0.256	-0.495
-322.085	198.962	0.142	-0.216
-321.070	800.000	-0.178	0.499
-320.056	133.923	0.645	-0.829
-319.041	14.606	0.358	-0.277
-318.026	191.063	0.219	-0.328
-317.012	-41.317	0.075	-0.038
-315.997	498.624	0.182	0.416
-314.983	92.739	0.072	0.081
-313.968	1.662	0.357	0.255
-312.953	223.125	-0.042	0.067
-311.939	-108.185	-0.582	-0.125
-310.924	800.000	-0.161	0.523
-309.910	427.277	0.039	-0.083
-308.895	-200.000	-0.011	0.177
-307.880	14.908	0.232	0.180
-306.866	49.421	0.122	0.114
-305.851	118.616	0.295	0.361
-304.837	50.597	-0.503	0.473
-303.822	35.588	0.293	-0.255
-302.807	49.528	-0.226	-0.212
-301.793	213.015	-0.029	-0.045
-300.778	642.004	0.081	0.206
-299.764	-200.000	-0.014	1.168
-298.749	113.892	-0.606	0.730
-297.735	620.005	-0.150	0.374
-296.720	-103.250	-0.936	0.219
-295.705	-20.039	0.802	-0.491
-294.691	135.403	0.435	0.561
-293.676	58.418	0.719	0.699
-292.662	240.966	0.390	0.646
-291.647	800.000	-0.041	-0.142
-290.632	-200.000	-0.131	0.758
-289.618	190.330	0.021	0.032
-288.603	-109.793	-0.681	-0.142
-287.589	-133.591	0.436	-0.054
-286.574	-78.195	-0.768	0.262
-285.559	-94.725	0.787	0.212
-284.545	-46.367	-0.900	0.438
-283.530	753.771	0.107	-0.287
-282.516	-10.541	0.370	0.243
-281.501	-84.548	-0.444	0.139
-280.486	4.098	-0.412	-0.299
-279.472	-200.000	0.060	-0.366
-278.457	800.000	0.147	0.443
-277.443	-97.774	-0.932	-0.239
-276.428	148.129	-0.567	0.757
-275.413	800.000	0.136	0.412
-274.399	74.093	0.391	0.407
-273.384	549.392	0.364	0.865
-272.370	-59.682	0.346	-0.147
-271.355	-26.533	-0.927	0.538
-270.340	-67.512	0.443	-0.172
-269.326	157.202	-0.153	-0.209
-268.311	-70.120	-0.172	0.065
-267.297	-19.492	-0.197	0.121
-266.282	2.279	-0.846	-0.606
-265.267	781.316	0.110	-0.299
-264.253	646.075	0.199	-0.505
-263.238	205.469	-0.227	-0.349
-262.224	-8.316	-0.380	-0.253
-261.209	49.813	-0.212	-0.198
-260.195	64.547	0.642	0.641
-259.180	769.337	-0.180	-0.485
-258.165	260.968	0.282	-0.483
-257.151	95.981	0.556	0.629
-256.136	122.695	0.716	0.887
-255.122	-200.000	-0.002	-0.040
-254.107	107.836	0.341	0.402
-253.092	800.000	-0.321	0.949
-252.078	-95.795	-0.370	-0.098
-251.063	-37.888	0.517	0.272
-250.049	-200.000	-0.093	0.521
-249.034	800.000	0.178	0.535
-248.019	-200.000	0.077	-0.754
-247.005	104.479	-0.396	-0.462
-245.990	-200.000	1.045	-0.002
-244.976	447.231	0.049	-0.106
-243.961	-200.000	-0.071	-0.318
-242.946	800.000	0.196	0.734
-241.932	464.101	0.066	-0.146
-240.917	-46.932	-0.887	0.429
-239.903	71.046	-0.295	-0.302
-238.888	154.428	-0.455	-0.619
-237.873	-200.000	-0.053	-0.415
-236.859	684.417	0.318	0.821
-235.844	-93.545	-0.380	0.104
-234.830	-62.890	-0.055	0.023
-233.815	-200.000	0.034	0.301
-232.800	-200.000	0.023	0.443
-231.786	800.000	0.142	0.404
-230.771	14.143	0.401	0.309
-229.757	81.445	0.825	-0.882
-228.742	-61.681	-0.269	-0.112
-227.727	-139.631	-0.175	-0.018
-226.713	-200.000	0.018	-0.140
-225.698	9.660	-0.141	0.105
-224.684	180.775	-0.100	0.145
-223.669	800.000	-0.339	0.989
-222.655	250.280	0.220	-0.370
-221.640	-200.000	-0.200	0.870
-220.625	176.953	0.176	0.254
-219.611	-34.892	0.592	-0.319
-218.596	399.721	-0.244	0.506
-217.582	-5.502	-0.195	-0.132
-216.567	478.267	0.167	-0.374
-215.552	-42.231	0.761	-0.384
-214.538	-200.000	-0.274	-1.418
-213.523	-81.436	-0.899	-0.292
-212.509	6.230	0.544	-0.399
-211.494	55.616	0.208	0.199
-210.479	-200.000	-0.100	0.827
-209.465	395.072	-0.200	-0.412
-208.450	-85.651	0.508	-0.156
-207.436	-56.724	-0.662	0.289
-206.421	484.773	0.281	-0.633
-205.406	800.000	-0.182	-0.532
-204.392	-20.630	-0.566	-0.343
-203.377	-200.000	-0.077	1.327
-202.363	-41.047	0.878	0.448
-201.348	-130.190	-0.485	-0.065
-200.333	-8.946	0.599	0.396
-199.319	800.000	-0.112	-0.435
-198.304	-82.204	0.137	0.044
-197.290	-132.037	-0.472	-0.061
-196.275	-20.199	-0.353	-0.215
-195.260	-86.121	1.030	0.314
-194.246	11.633	0.322	0.244
-193.231	-117.531	-0.641	0.114
-192.217	-82.277	0.571	-0.183
-191.202	-124.895	0.295	0.045
-190.187	-200.000	0.125	0.714
-189.173	-200.000	-0.035	0.957
-188.158	229.469	0.558	0.899
-187.144	238.679	-0.224	0.368
-186.129	-200.000	-0.010	-0.461
-185.114	-27.021	-0.577	0.332
-184.100	19.815	-0.618	0.491
-183.085	800.000	0.263	-0.970
-182.071	36.683	0.564	-0.492
-181.056	-174.496	-0.491	-0.014
-180.042	204.948	0.200	-0.306
-179.027	-167.158	-1.173	0.047
-178.012	-44.412	1.185	-0.586
-176.998	-95.100	-0.293	-0.078
-175.983	800.000	-0.186	0.536
-174.969	-71.872	-0.298	0.109
-173.954	480.813	0.012	0.027
-172.939	218.717	-0.095	0.150
-171.925	15.099	0.530	0.410
-170.910	220.852	-0.438	-0.694
-169.896	8.281	-0.576	-0.427
-168.881	-95.992	0.218	0.057
-167.866	-200.000	-0.005	0.178
-166.852	113.590	-0.160	-0.192
-165.837	712.635	-0.329	0.860
-164.823	415.540	-0.011	0.024
-163.808	-127.066	-0.358	0.052
-162.793	62.808	-0.598	0.590
-161.779	-112.567	0.747	-0.147
-160.764	-26.933	-0.613	-0.353
-159.750	-63.907	-0.508	-0.205
-158.735	800.000	0.180	0.590
-157.720	8.953	0.678	-0.505
-156.706	564.862	-0.061	0.147
-155.691	800.000	0.319	0.900
-154.677	83.568	0.994	-1.069
-153.662	800.000	0.239	-0.824
-152.647	555.325	-0.065	-0.155
-151.633	-200.000	-0.079	0.477
-150.618	262.548	0.244	-0.417
-149.604	19.739	-0.085	-0.068
-148.589	351.500	-0.344	0.672
-147.574	-200.000	-0.017	0.579
-146.560	-200.000	0.017	-0.598
-145.545	-75.527	-0.253	-0.089
-144.531	-200.000	0.007	0.557
-143.516	15.350	-0.042	-0.032
-142.502	-200.000	0.053	0.557
-141.487	-30.173	0.291	-0.163
-140.472	-69.062	-0.072	-0.027
-139.458	278.685	0.281	0.495
-138.443	7.568	0.843	0.622
-137.429	-75.071	-0.517	-0.182
-136.414	26.441	-0.365	-0.301
-135.399	-56.686	0.663	-0.289
-134.385	84.010	0.102	0.110
-133.370	-17.881	0.687	0.424
-132.356	-97.729	0.296	0.076
-131.341	81.322	-0.197	-0.210
-130.326	-38.572	0.734	0.382
-129.312	-19.309	-0.213	0.130
-128.297	-145.923	0.472	0.041
-127.283	93.313	-0.401	0.447
-126.268	231.168	-0.051	0.083
-125.253	-124.679	-1.084	-0.165
-124.239	519.224	0.041	0.095
-123.224	288.937	0.176	0.313
-122.210	-55.902	0.505	-0.222
-121.195	-18.684	-0.136	0.084
-120.180	-200.000	0.059	-0.545
-119.166	-110.859	0.517	0.105
-118.151	-86.961	0.724	0.217
-117.137	-200.000	-0.035	0.239
-116.122	166.268	0.161	0.224
-115.107	-137.624	-0.894	0.099
-114.093	247.648	-0.118	-0.196
-113.078	21.300	0.444	0.355
-112.064	-108.613	-0.974	0.206
-111.049	39.992	0.268	0.237
-110.034	518.280	-0.231	0.533
-109.020	-94.566	0.557	0.149
-108.005	258.256	-0.236	-0.401
-106.991	69.076	0.683	-0.691
-105.976	-200.000	0.014	0.130
-104.962	229.967	-0.159	-0.256
-103.947	-200.000	-0.049	-0.461
-102.932	-102.756	-0.686	-0.161
-101.918	-200.000	-0.156	0.778
-100.903	-200.000	-0.112	0.537
-99.889	576.355	0.242	-0.583
-98.874	-53.426	0.159	0.072
-97.859	-14.818	-0.611	-0.386
-96.845	800.000	0.063	-0.259
-95.830	800.000	-0.077	-0.246
-94.816	47.457	-0.487	-0.446
-93.801	-190.188	0.755	-0.008
-92.786	38.011	0.140	-0.123
-91.772	-106.129	-0.521	-0.115
-90.757	7.482	0.919	-0.676
-89.743	55.026	0.474	-0.451
-88.728	109.040	-0.140	-0.164
-87.713	-57.737	-0.632	-0.272
-86.699	26.591	-0.406	0.334
-85.684	126.924	-0.246	0.306
-84.670	256.306	-0.460	-0.777
-83.655	-200.000	0.073	0.529
-82.640	-200.000	-0.082	0.833
-81.626	215.640	-0.320	-0.499
-80.611	-75.289	-0.451	0.158
-79.597	495.847	0.129	0.291
-78.582	-200.000	-0.063	0.942
-77.567	-200.000	0.032	-0.481
-76.553	-58.042	0.755	-0.324
-75.538	-118.171	0.617	0.108
-74.524	-152.464	0.618	0.044
-73.509	-58.115	-0.228	0.098
-72.494	-8.505	-0.629	-0.416
-71.480	-128.993	0.394	0.054
-70.465	203.620	0.123	0.186
-69.451	-13.875	-0.214	-0.136
-68.436	264.046	0.238	-0.407
-67.422	-200.000	-0.120	0.815
-66.407	18.679	-0.575	-0.452
-65.392	301.208	-0.448	-0.813
-64.378	-200.000	-0.134	-0.612
-63.363	131.253	-0.167	0.211
-62.349	-106.512	-0.153	0.034
-61.334	95.590	-0.680	-0.762
-60.319	18.496	-0.541	0.425
-59.305	208.921	0.142	0.218
-58.290	209.236	0.577	0.888
-57.276	-200.000	-0.121	1.725
-56.261	-200.000	95.100	581.093
-55.246	668.011	1358.364	3451.211
-54.232	202.838	2529.963	3839.522
-53.217	112.625	2250.728	2676.658
-52.203	41.951	1882.254	1677.397
-51.188	35.813	1674.008	1445.805
-50.173	33.341	1630.717	1390.234
-49.159	51.635	1679.267	1568.257
-48.144	52.219	1696.184	1588.346
-47.130	35.362	1656.005	1426.681
-46.115	32.686	1641.831	1394.641
-45.100	32.685	1636.804	1390.313
-44.086	32.924	1632.405	1388.281
-43.071	32.849	1630.472	1386.028
-42.057	32.488	1628.704	1381.822
-41.042	32.584	1626.842	1380.890
-40.027	32.728	1625.373	1380.640
-39.013	32.700	1621.654	1377.228
-37.998	32.435	1621.590	1375.178
-36.984	32.621	1620.591	1375.637
-35.969	32.834	1618.946	1375.736
-34.954	33.033	1616.756	1375.271
-33.940	32.822	1614.584	1371.833
-32.925	32.620	1613.350	1369.266
-31.911	32.837	1611.448	1369.169
-30.896	32.749	1609.730	1367.015
-29.881	32.618	1609.166	1365.537
-28.867	32.712	1606.254	1363.694
-27.852	32.568	1606.349	1362.673
-26.838	32.574	1604.209	1360.849
-25.823	32.573	1602.196	1359.084
-24.809	32.956	1599.484	1359.483
-23.794	33.031	1598.713	1359.312
-22.779	32.733	1597.753	1356.302
-21.765	32.794	1596.660	1355.757
-20.750	32.828	1594.989	1354.529
-19.736	32.726	1593.238	1352.254
-18.721	32.652	1593.363	1351.780
-17.706	32.817	1590.240	1350.258
-16.692	32.601	1588.721	1347.367
-15.677	33.011	1586.453	1348.321
-14.663	32.987	1585.599	1347.370
-13.648	32.752	1585.212	1345.308
-12.633	32.816	1582.602	1343.497
-11.619	32.886	1581.377	1342.904
-10.604	32.786	1580.291	1341.216
-9.590	32.542	1580.288	1339.426
-8.575	32.856	1577.387	1339.139
-7.560	32.633	1577.659	1337.735
-6.546	32.801	1575.563	1337.101
-5.531	32.853	1574.072	1336.146
-4.517	32.734	1573.425	1334.700
-3.502	32.649	1572.693	1333.428
-2.487	32.882	1570.428	1333.097
-1.473	32.581	1557.793	1320.212
-0.458	29.614	1539.580	1284.139
0.556	27.257	1540.198	1252.351
1.571	24.825	1562.256	1253.164
2.586	24.104	1575.769	1258.797
3.600	21.323	1522.717	1197.285
4.615	12.458	1414.108	1055.130
5.629	4.658	1349.207	958.689
6.644	3.152	1341.301	943.757
7.659	3.062	1340.152	942.312
8.673	3.126	1338.524	941.478
9.688	2.820	1337.674	938.925
10.702	2.805	1335.305	937.083
11.717	6.290	1341.742	962.875
12.731	15.854	1358.988	1034.186
13.746	23.322	1369.776	1088.371
14.761	25.232	1371.541	1101.416
15.775	25.338	1370.840	1101.405
16.790	25.249	1369.844	1099.963
17.804	25.124	1369.562	1098.870
18.819	24.776	1369.147	1096.309
19.834	24.712	1369.455	1096.067
20.848	25.003	1368.414	1096.917
21.863	25.105	1367.792	1096.950
22.877	25.167	1366.072	1095.850
23.892	25.241	1365.141	1095.458
24.907	25.093	1364.369	1093.838
25.921	25.272	1363.294	1093.974
26.936	25.205	1363.273	1093.448
27.950	25.151	1361.820	1091.858
28.965	24.976	1360.680	1089.783
29.980	25.069	1359.331	1089.169
30.994	25.202	1359.728	1090.202
32.009	25.288	1357.764	1089.051
33.023	25.192	1356.923	1087.702
34.038	25.263	1354.623	1086.190
35.053	25.224	1353.922	1085.295
36.067	25.259	1352.763	1084.483
37.082	25.029	1352.825	1083.044
38.096	25.320	1352.003	1084.051
39.111	25.113	1351.410	1082.230
40.126	25.014	1351.208	1081.372
41.140	24.952	1348.937	1079.089
42.155	25.032	1349.074	1079.584
43.169	24.877	1349.002	1078.497
44.184	24.809	1349.055	1078.033
45.199	24.827	1348.147	1077.318
46.213	25.348	1347.533	1079.867
47.228	25.201	1346.851	1078.344
48.242	25.220	1345.960	1077.646
49.257	25.022	1344.815	1075.449
50.271	25.118	1343.956	1075.240
51.286	25.123	1342.324	1073.869
52.301	24.995	1341.229	1072.134
53.315	25.158	1339.864	1071.923
54.330	25.040	1339.837	1071.098
55.344	25.150	1337.972	1070.171
56.359	25.247	1336.747	1069.673
57.374	25.123	1337.379	1069.344
58.388	25.143	1336.313	1068.519
59.403	25.059	1335.309	1067.119
60.417	25.004	1334.242	1065.847
61.432	24.985	1333.873	1065.342
62.447	25.118	1332.551	1064.986
63.461	25.040	1332.209	1064.155
64.476	24.962	1331.485	1063.018
65.490	24.956	1329.604	1061.383
66.505	25.000	1327.825	1060.133
67.520	24.858	1327.832	1059.205
68.534	24.953	1326.230	1058.393
69.549	25.031	1325.067	1057.835
70.563	25.067	1323.381	1056.607
71.578	24.818	1323.735	1055.327
72.593	25.097	1321.934	1055.440
73.607	24.919	1321.420	1053.886
74.622	25.048	1321.626	1054.719
75.636	25.207	1320.405	1054.585
76.651	24.966	1319.275	1052.174
77.666	24.873	1319.972	1052.088
78.680	24.808	1320.333	1051.905
79.695	25.102	1317.702	1051.441
80.709	25.096	1316.985	1050.741
81.724	25.200	1316.543	1050.900
82.739	25.029	1316.886	1050.083
83.753	25.204	1315.482	1049.890
84.768	25.023	1314.007	1047.564
85.782	25.618	1311.995	1049.343
86.797	25.278	1312.223	1047.446
87.812	25.403	1310.593	1046.782
88.826	25.153	1310.125	1044.860
89.841	25.420	1307.743	1044.419
90.855	25.327	1308.453	1044.350
91.870	25.348	1306.921	1043.160
92.884	25.601	1305.648	1043.515
93.899	25.250	1306.534	1042.096
94.914	25.543	1304.887	1042.390
95.928	25.306	1305.227	1041.193
96.943	25.470	1303.779	1040.897
97.957	25.406	1302.083	1039.078
98.972	25.191	1302.348	1037.956
99.987	25.095	1301.552	1036.672
101.001	25.366	1299.719	1036.688
102.016	25.211	1299.197	1035.286
103.030	25.421	1298.302	1035.690
104.045	25.546	1297.261	1035.489
105.060	25.364	1295.946	1033.300
106.074	25.159	1294.744	1031.070
107.089	24.939	1293.962	1029.092
108.103	24.952	1292.538	1027.944
109.118	24.980	1291.771	1027.404
110.133	25.082	1290.110	1026.577
111.147	25.237	1288.525	1026.111
112.162	25.131	1287.864	1024.886
113.176	25.125	1288.071	1024.928
114.191	25.271	1286.176	1024.163
115.206	25.241	1285.585	1023.433
116.220	25.173	1284.347	1021.966
117.235	25.144	1283.561	1021.085
118.249	24.794	1281.852	1017.643
119.264	24.873	1281.650	1017.846
120.279	24.880	1281.711	1017.843
121.293	24.944	1280.705	1017.319
122.308	24.875	1279.323	1015.735
123.322	24.786	1277.477	1013.676
124.337	24.622	1278.400	1013.389
125.352	24.920	1276.348	1013.362
126.366	24.960	1275.704	1012.985
127.381	25.005	1275.009	1012.597
128.395	24.866	1273.825	1010.787
129.410	24.908	1272.810	1010.128
130.424	24.870	1271.579	1008.846
131.439	24.822	1271.019	1008.039
132.454	24.931	1270.622	1008.252
133.468	24.952	1270.832	1008.447
134.483	24.998	1269.092	1007.234
135.497	24.851	1270.059	1007.087
136.512	24.894	1267.511	1005.218
137.527	25.188	1266.299	1005.819
138.541	24.836	1266.150	1003.637
139.556	25.082	1264.110	1003.308
140.570	25.042	1264.075	1002.969
141.585	25.245	1262.708	1002.926
142.600	25.651	1260.805	1003.595
143.614	25.447	1260.995	1002.516
144.629	25.520	1260.033	1002.075
145.643	25.095	1259.887	999.496
146.658	25.187	1257.984	998.413
147.673	24.949	1258.637	997.519
148.687	25.275	1257.062	997.993
149.702	25.107	1255.250	995.535
150.716	24.765	1252.810	991.617
151.731	24.642	1251.812	990.057
152.746	24.564	1252.252	989.881
153.760	25.013	1250.247	990.695
154.775	25.156	1248.555	990.054
155.789	25.282	1249.855	991.696
156.804	25.118	1247.993	989.224
157.819	24.947	1246.375	986.912
158.833	25.105	1246.491	987.786
159.848	25.386	1244.778	987.888
160.862	25.284	1244.024	986.643
161.877	25.431	1242.812	986.399
162.892	25.153	1242.568	984.596
163.906	24.847	1242.083	982.443
164.921	25.147	1240.063	982.403
165.935	25.184	1240.754	983.064
166.950	25.160	1239.702	982.016
167.964	25.094	1238.530	980.636
168.979	25.378	1238.713	982.251
169.994	25.205	1237.204	980.020
171.008	25.097	1236.853	979.064
172.023	24.929	1237.353	978.456
173.037	25.149	1236.141	978.613
174.052	25.261	1234.299	977.676
175.067	25.052	1234.284	976.441
176.081	25.032	1233.005	975.233
177.096	24.914	1232.770	974.320
178.110	25.136	1231.699	974.595
179.125	24.993	1230.368	972.677
180.140	25.111	1228.619	971.851
181.154	25.228	1227.811	971.758
182.169	25.171	1227.065	970.773
183.183	25.201	1226.007	970.014
184.198	25.110	1225.602	969.114
185.213	25.315	1224.517	969.275
186.227	25.348	1222.760	967.977
187.242	25.246	1223.496	967.928
188.256	25.582	1221.390	967.980
189.271	25.380	1221.239	966.690
190.286	25.374	1219.428	965.141
191.300	25.139	1218.821	963.309
192.315	25.072	1218.921	962.947
193.329	25.354	1218.223	963.819
194.344	25.467	1217.268	963.589
195.359	25.071	1216.723	960.949
196.373	24.608	1216.343	958.080
197.388	25.027	1215.559	959.624
198.402	25.180	1215.723	960.485
199.417	25.270	1215.508	960.714
200.432	25.544	1213.715	960.674
201.446	25.232	1214.124	959.244
202.461	25.415	1213.602	959.728
203.475	25.194	1211.865	957.088
204.490	24.881	1212.086	955.509
205.504	25.000	1209.953	954.375
206.519	24.986	1209.229	953.649
207.534	25.056	1207.525	952.593
208.548	24.887	1205.966	950.377
209.563	24.766	1206.321	949.932
210.577	24.797	1205.481	949.354
211.592	24.813	1204.946	948.930
212.607	25.241	1204.954	951.121
213.621	25.375	1203.055	950.247
214.636	25.167	1202.081	948.297
215.650	25.224	1201.444	948.012
216.665	24.870	1201.808	946.344
217.680	25.457	1200.074	947.990
218.694	25.472	1198.694	946.894
219.709	25.166	1198.407	944.973
220.723	25.268	1197.039	944.347
221.738	25.059	1196.501	942.743
222.753	24.868	1196.491	941.644
223.767	25.014	1195.615	941.637
224.782	25.330	1195.758	943.327
225.796	25.402	1195.169	943.157
226.811	25.284	1194.532	941.954
227.826	25.302	1194.667	942.070
228.840	25.092	1193.291	939.801
229.855	24.981	1192.651	938.633
230.869	25.189	1191.116	938.433
231.884	24.951	1190.871	936.906
232.899	24.689	1190.362	935.054
233.913	24.899	1188.704	934.767
234.928	25.160	1187.635	935.205
235.942	25.213	1187.188	935.046
236.957	25.152	1186.035	933.737
237.972	24.721	1185.829	931.250
238.986	24.913	1184.718	931.295
240.001	25.018	1184.900	931.898
241.015	24.987	1183.867	930.846
242.030	25.041	1183.120	930.452
243.045	25.100	1181.904	929.723
244.059	24.955	1181.936	928.914
245.074	25.367	1181.624	930.721
246.088	25.346	1180.529	929.666
247.103	25.530	1179.654	929.850
248.117	25.534	1178.944	929.229
249.132	25.365	1178.852	928.200
250.147	25.898	1177.898	930.116
251.161	26.061	1177.473	930.542
252.176	25.941	1176.943	929.422
253.190	25.895	1176.013	928.369
254.205	25.803	1175.333	927.273
255.220	26.010	1175.122	928.093
256.234	26.062	1174.465	927.757
257.249	26.002	1174.097	927.077
258.263	25.792	1173.546	925.477
259.278	25.938	1172.718	925.496
260.293	25.772	1173.693	925.330
261.307	25.708	1172.307	923.824
262.322	26.183	1170.834	925.019
263.336	25.868	1170.476	923.041
264.351	25.798	1169.344	921.707
265.366	26.035	1168.524	922.190
266.380	25.991	1168.697	922.019
267.395	25.722	1168.584	920.475
268.409	25.650	1167.233	918.963
269.424	25.543	1166.562	917.804
270.439	25.989	1166.020	919.571
271.453	25.653	1164.944	916.930
272.468	25.609	1164.027	915.903
273.482	25.211	1164.741	914.354
274.497	25.868	1162.681	916.001
275.512	25.716	1162.196	914.766
276.526	25.233	1161.664	911.812
277.541	25.427	1160.979	912.175
278.555	25.583	1161.066	912.955
279.570	25.673	1160.066	912.544
280.585	25.965	1159.153	913.225
281.599	26.106	1156.999	912.160
282.614	25.649	1157.704	910.322
283.628	25.446	1155.724	907.663
284.643	25.844	1154.799	908.863
285.657	25.760	1154.301	907.967
286.672	25.752	1154.136	907.715
287.687	25.599	1153.560	906.415
288.701	25.611	1152.295	905.398
289.716	25.527	1151.298	904.113
290.730	25.571	1150.696	903.783
291.745	25.696	1150.778	904.393
292.760	25.570	1150.189	903.216
293.774	25.772	1149.104	903.299
294.789	25.646	1149.454	902.865
295.803	25.996	1147.216	902.780
296.818	25.862	1146.794	901.696
297.833	25.714	1146.390	900.557
298.847	25.769	1145.154	899.782
299.862	25.887	1143.725	899.167
300.876	25.886	1143.894	899.216
301.891	25.510	1144.565	897.789
302.906	25.679	1145.053	898.933
303.920	26.002	1142.810	898.703
304.935	25.919	1142.101	897.652
305.949	26.250	1141.134	898.462
306.964	26.163	1140.252	897.255
307.979	26.000	1139.851	896.048
308.993	25.823	1138.858	894.309
310.008	25.716	1139.197	893.967
311.022	26.074	1138.255	894.924
312.037	26.256	1136.095	894.046
313.052	25.908	1136.284	892.393
314.066	26.117	1135.046	892.375
315.081	25.785	1133.010	889.059
316.095	25.600	1133.312	888.304
317.110	25.608	1132.855	887.907
318.125	25.897	1131.485	888.177
319.139	25.525	1130.815	885.743
320.154	25.536	1130.694	885.624
321.168	25.126	1129.987	882.974
322.183	25.535	1129.589	884.596
323.197	25.689	1129.367	885.102
324.212	25.722	1128.341	884.378
325.227	25.623	1128.703	884.100
326.241	26.048	1127.294	885.005
327.256	25.778	1126.125	882.684
328.270	25.707	1125.136	881.483
329.285	25.660	1125.293	881.297
330.300	25.699	1124.815	881.034
331.314	25.976	1122.239	880.292
332.329	25.677	1121.557	878.218
333.343	26.008	1120.654	879.051
334.358	25.991	1120.193	878.527
335.373	26.214	1120.113	879.473
336.387	26.149	1119.766	878.806
337.402	25.888	1119.174	876.995
338.416	26.003	1119.038	877.370
339.431	26.135	1117.993	877.112
340.446	26.261	1117.736	877.448
341.460	26.233	1117.469	877.024
342.475	26.474	1116.076	877.021
343.489	26.418	1114.791	875.662
344.504	26.517	1113.619	875.145
345.519	26.425	1113.147	874.249
346.533	26.430	1112.564	873.739
347.548	26.210	1112.887	872.852
348.562	26.330	1111.618	872.359
349.577	26.257	1110.090	870.730
350.592	25.995	1109.353	868.811
351.606	26.205	1109.199	869.628
352.621	26.185	1107.625	868.220
353.635	25.832	1106.781	865.786
354.650	25.683	1106.421	864.709
355.665	25.812	1105.299	864.377
356.679	26.262	1105.660	866.742
357.694	26.130	1105.056	865.559
358.708	25.849	1104.380	863.608
359.723	26.202	1103.503	864.534
360.738	26.075	1103.138	863.564
361.752	26.078	1103.520	863.799
362.767	26.323	1102.070	863.759
363.781	26.075	1101.033	861.685
364.796	26.268	1100.966	862.478
365.810	26.344	1101.018	862.806
366.825	26.538	1099.400	862.387
367.840	26.785	1099.014	863.185
368.854	26.844	1098.155	862.714
369.869	26.231	1098.612	860.078
370.883	26.606	1097.267	860.734
371.898	26.476	1097.079	859.890
372.913	26.475	1096.241	859.153
373.927	26.366	1095.956	858.335
374.942	26.647	1095.248	859.039
375.956	26.418	1094.799	857.524
376.971	26.009	1094.663	855.405
377.986	26.610	1093.165	857.004
379.000	26.732	1092.724	857.158
380.015	26.767	1092.229	856.857
381.029	26.663	1091.625	855.819
382.044	26.478	1090.865	854.275
383.059	26.515	1090.635	854.194
384.073	26.590	1089.455	853.549
385.088	26.752	1088.368	853.381
386.102	26.758	1087.271	852.473
387.117	26.186	1087.305	849.734
388.132	25.756	1086.474	846.991
389.146	26.066	1085.512	847.622
390.161	26.162	1084.253	847.014
391.175	26.277	1083.332	846.757
392.190	26.561	1082.526	847.384
393.205	26.524	1082.570	847.166
394.219	26.591	1082.229	847.142
395.234	26.535	1079.765	844.875
396.248	26.254	1080.505	844.067
397.263	26.348	1078.413	842.796
398.278	26.196	1078.368	841.978
399.292	26.293	1078.391	842.374
400.307	26.337	1077.435	841.756
401.321	26.231	1076.811	840.702
402.336	26.203	1074.544	838.728
403.350	26.065	1074.443	837.933
404.365	26.068	1075.224	838.480
405.380	26.312	1074.498	838.976
406.394	26.382	1072.859	837.946
407.409	26.345	1072.326	837.281
408.423	26.632	1071.991	838.277
409.438	26.720	1071.315	838.078
410.453	26.771	1071.329	838.252
411.467	27.023	1069.981	838.289
412.482	26.530	1069.162	835.297
413.496	26.910	1068.218	836.235
414.511	27.140	1067.714	836.827
415.526	26.745	1067.726	834.943
416.540	26.758	1068.032	835.168
417.555	27.031	1067.237	835.731
418.569	26.699	1065.928	833.107
419.584	26.764	1065.472	832.975
420.599	26.877	1065.209	833.214
421.613	153.214	1404.470	1793.216
422.628	140.956	1453.881	1793.283
