DTS Sentinel unit serial number:	SN413079Multiplexer serial number:	ORYXHardware model number:	OX4-SRSoftware version number:	ORYX F/W v4.00 Oryx Data Collector v3.7.2.0data status	okinstallation	princeton_trtdifferential loss correction	single-endedforward channel	channel 2reverse channel	N/Adate	2019/09/14time	17:39:35forward acquisition time	60.00reverse acquisition time	0.00gamma	496.2192k internal	0.2311k external	0.2311temperature offset calibration	1.0114default loss term (dB/km)	0.3790temperature slope calibration	1.0000multiplexer offset coefficient	1.0000multiplexer slope coefficient	1.0000fibre end	0.00T internal ref (°C)	37.55T ext. ref 1 (°C)	5.05T ext. ref 2 (°C)	32.72length (m)	temperature (°C)	Stokes	anti-Stokes-747.200	212.731	-0.139	-0.222
-746.185	59.563	-0.289	0.289
-745.171	-200.000	-0.012	-0.160
-744.156	-200.000	-0.011	0.091
-743.142	-200.000	0.008	0.078
-742.127	-15.030	-0.095	0.061
-741.112	-126.225	-0.161	-0.024
-740.098	362.779	0.071	-0.144
-739.083	800.000	0.082	-0.269
-738.069	193.867	-0.089	0.136
-737.054	800.000	-0.092	-0.403
-736.039	762.718	0.058	-0.160
-735.025	-68.281	0.220	0.087
-734.010	-184.625	-0.276	-0.005
-732.996	-200.000	0.007	-0.318
-731.981	800.000	-0.119	-0.346
-730.966	33.408	-0.408	-0.360
-729.952	-69.354	-0.019	0.007
-728.937	-200.000	-0.086	0.000
-727.923	800.000	-0.008	0.027
-726.908	-21.843	-0.261	-0.161
-725.894	-72.009	-0.156	0.059
-724.879	-165.663	0.071	-0.003
-723.864	-45.429	-0.277	0.139
-722.850	-107.924	-0.126	0.028
-721.835	-142.358	-0.300	-0.030
-720.821	800.000	-0.074	-0.212
-719.806	-148.577	-0.295	-0.024
-718.791	62.921	-0.031	0.031
-717.777	383.372	-0.085	0.178
-716.762	-97.986	0.247	-0.065
-715.748	-103.738	-0.168	-0.040
-714.733	800.000	0.010	0.034
-713.718	800.000	0.072	-0.268
-712.704	414.924	0.162	-0.350
-711.689	-72.033	0.083	0.031
-710.675	-41.838	-0.244	-0.127
-709.660	-200.000	-0.035	0.294
-708.645	35.045	0.244	0.216
-707.631	331.154	-0.101	0.197
-706.616	-68.767	0.116	-0.045
-705.602	160.801	0.324	-0.459
-704.587	-200.000	-0.021	-0.178
-703.572	800.000	-0.052	-0.166
-702.558	-200.000	-0.001	-0.051
-701.543	-200.000	0.034	-0.163
-700.529	-200.000	0.006	-0.218
-699.514	113.671	-0.152	0.187
-698.499	-60.023	-0.171	0.074
-697.485	80.508	-0.151	-0.164
-696.470	-200.000	0.045	-0.425
-695.456	-84.814	-0.131	-0.042
-694.441	800.000	0.051	-0.146
-693.426	-200.000	0.004	-0.041
-692.412	-200.000	-0.015	-0.067
-691.397	-110.966	0.081	0.017
-690.383	65.500	0.081	-0.083
-689.368	37.930	-0.050	0.045
-688.354	-200.000	-0.001	-0.035
-687.339	-42.739	-0.076	-0.039
-686.324	-200.000	-0.065	0.382
-685.310	-200.000	-0.011	-0.284
-684.295	800.000	0.044	-0.134
-683.281	-29.951	-0.169	0.097
-682.266	-18.972	-0.153	-0.097
-681.251	-200.000	-0.043	-0.201
-680.237	-200.000	0.030	-0.337
-679.222	-200.000	0.024	0.120
-678.208	-60.672	-0.025	-0.011
-677.193	11.988	-0.043	0.034
-676.178	8.390	-0.165	-0.126
-675.164	69.976	-0.266	-0.278
-674.149	43.170	0.030	0.028
-673.135	-61.844	-0.298	0.126
-672.120	297.346	0.059	-0.110
-671.105	-200.000	-0.017	-0.218
-670.091	91.562	0.183	0.208
-669.076	-48.985	-0.305	-0.148
-668.062	-108.179	-0.463	0.101
-667.047	464.568	0.072	0.162
-666.032	-200.000	-0.041	-0.307
-665.018	132.586	-0.113	-0.148
-664.003	23.187	0.245	0.204
-662.989	-160.332	0.045	0.002
-661.974	6.968	-0.128	0.096
-660.959	112.615	0.147	-0.181
-659.945	383.409	-0.140	-0.292
-658.930	201.023	-0.104	0.163
-657.916	192.616	0.040	0.061
-656.901	-78.838	-0.182	0.063
-655.886	-72.673	-0.270	-0.101
-654.872	-200.000	-0.076	-0.422
-653.857	-162.356	-0.206	0.010
-652.843	-6.872	0.150	0.103
-651.828	-51.522	0.111	0.053
-650.814	-200.000	-0.027	0.297
-649.799	-200.000	0.082	0.483
-648.784	-13.911	-0.188	0.123
-647.770	-113.855	-0.145	0.029
-646.755	-40.886	0.203	0.106
-645.741	75.734	0.337	-0.360
-644.726	-95.751	0.161	0.044
-643.711	262.839	0.071	-0.125
-642.697	78.797	0.228	0.247
-641.682	333.871	-0.062	-0.121
-640.668	800.000	-0.015	-0.056
-639.653	-31.550	-0.380	-0.216
-638.638	-83.392	0.255	-0.082
-637.624	3.117	0.229	0.168
-636.609	22.444	0.113	-0.093
-635.595	800.000	-0.057	-0.180
-634.580	674.362	0.135	-0.354
-633.565	298.681	-0.090	-0.168
-632.551	-25.037	0.094	-0.056
-631.536	542.700	-0.080	0.194
-630.522	800.000	-0.125	0.389
-629.507	343.420	0.073	0.144
-628.492	92.582	-0.196	0.223
-627.478	484.786	0.039	0.089
-626.463	181.498	-0.066	0.098
-625.449	65.073	0.190	-0.194
-624.434	-200.000	-0.004	-0.066
-623.419	800.000	-0.077	-0.249
-622.405	-29.724	-0.063	-0.037
-621.390	154.382	0.050	-0.070
-620.376	-2.989	0.300	0.212
-619.361	-70.869	0.457	0.174
-618.346	-200.000	-0.030	-0.236
-617.332	-116.149	-0.133	0.025
-616.317	-18.841	-0.123	0.077
-615.303	800.000	-0.127	-0.363
-614.288	355.667	0.045	-0.091
-613.273	91.461	-0.156	0.177
-612.259	-5.950	-0.253	0.175
-611.244	-174.490	0.124	-0.004
-610.230	34.293	-0.192	-0.169
-609.215	-200.000	-0.013	0.256
-608.201	326.624	-0.035	-0.067
-607.186	551.718	-0.071	-0.172
-606.171	32.933	-0.169	-0.148
-605.157	-117.301	-0.452	0.083
-604.142	86.505	0.055	0.061
-603.128	800.000	0.030	0.115
-602.113	-51.949	-0.333	-0.156
-601.098	-9.369	-0.126	0.085
-600.084	192.066	-0.162	-0.246
-599.069	800.000	0.056	0.169
-598.055	257.564	0.035	-0.060
-597.040	-200.000	-0.010	-0.336
-596.025	48.746	0.273	-0.258
-595.011	656.212	-0.058	0.149
-593.996	135.078	0.230	-0.302
-592.982	59.740	0.126	0.125
-591.967	153.819	0.094	-0.130
-590.952	264.694	-0.091	0.160
-589.938	-72.669	0.169	-0.063
-588.923	196.807	-0.103	-0.159
-587.909	119.962	-0.142	0.177
-586.894	524.680	-0.094	-0.223
-585.879	-105.675	-0.117	0.027
-584.865	543.684	0.128	-0.309
-583.850	103.142	-0.281	-0.333
-582.836	800.000	-0.023	0.065
-581.821	-93.148	-0.086	0.024
-580.806	17.011	-0.066	0.053
-579.792	499.671	-0.067	-0.155
-578.777	-200.000	0.072	0.318
-577.763	-3.152	0.104	0.073
-576.748	-200.000	0.034	-0.164
-575.733	215.166	0.129	0.206
-574.719	205.731	-0.133	-0.208
-573.704	27.949	0.125	0.106
-572.690	-117.867	0.239	0.043
-571.675	487.444	-0.050	-0.114
-570.661	215.444	0.183	0.292
-569.646	263.973	0.117	-0.205
-568.631	800.000	0.081	0.279
-567.617	218.903	-0.081	0.130
-566.602	-45.343	-0.319	0.160
-565.588	65.143	-0.299	-0.305
-564.573	57.667	-0.284	-0.280
-563.558	-140.770	0.329	0.034
-562.544	800.000	0.013	-0.053
-561.529	76.316	-0.072	-0.077
-560.515	800.000	0.050	0.166
-559.500	75.046	0.157	-0.167
-558.485	-72.177	-0.121	0.045
-557.471	0.723	-0.293	0.211
-556.456	-64.998	-0.322	0.131
-555.442	800.000	0.012	-0.044
-554.427	-97.179	-0.095	0.025
-553.412	-13.306	0.390	-0.255
-552.398	86.939	-0.188	-0.210
-551.383	-39.012	-0.271	-0.143
-550.369	-200.000	0.018	-0.202
-549.354	476.054	0.137	0.311
-548.339	-150.664	-0.078	-0.006
-547.325	-113.072	0.094	0.019
-546.310	-37.366	0.395	-0.213
-545.296	-200.000	0.034	-0.237
-544.281	190.193	-0.299	-0.452
-543.266	-5.893	-0.119	-0.082
-542.252	-200.000	0.024	0.109
-541.237	53.505	0.084	-0.081
-540.223	-139.272	0.048	-0.005
-539.208	311.553	0.008	0.014
-538.193	-23.061	0.059	0.036
-537.179	800.000	-0.039	-0.125
-536.164	-107.691	-0.366	-0.080
-535.150	-55.607	-0.186	-0.084
-534.135	-59.733	0.359	0.155
-533.121	441.570	0.037	0.083
-532.106	-200.000	-0.034	0.188
-531.091	-116.476	0.118	-0.022
-530.077	524.702	0.046	0.109
-529.062	-98.586	-0.243	0.062
-528.048	66.375	0.199	0.203
-527.033	800.000	0.039	0.111
-526.018	159.241	0.123	0.172
-525.004	20.611	0.145	-0.118
-523.989	192.648	-0.068	-0.103
-522.975	193.326	-0.111	0.169
-521.960	22.677	-0.274	-0.226
-520.945	-200.000	-0.049	0.399
-519.931	131.305	0.120	-0.156
-518.916	-69.436	-0.117	-0.045
-517.902	106.656	0.093	0.111
-516.887	800.000	0.111	0.451
-515.872	-86.020	0.136	-0.042
-514.858	-21.339	-0.119	0.073
-513.843	-135.977	-0.135	-0.016
-512.829	-105.305	0.073	-0.017
-511.814	800.000	-0.005	-0.018
-510.799	-200.000	-0.024	-0.206
-509.785	71.844	-0.314	-0.328
-508.770	800.000	0.065	-0.183
-507.756	-49.378	0.232	-0.111
-506.741	-34.361	0.162	-0.090
-505.726	-36.596	-0.229	-0.124
-504.712	-117.109	0.180	-0.033
-503.697	-53.271	-0.162	-0.075
-502.683	401.174	-0.112	0.236
-501.668	-200.000	0.000	0.265
-500.653	46.926	0.118	0.111
-499.639	54.392	-0.242	-0.235
-498.624	-200.000	-0.062	-0.327
-497.610	-89.815	0.399	0.117
-496.595	100.140	-0.096	0.112
-495.581	-70.670	-0.201	0.076
-494.566	-142.380	-0.357	0.035
-493.551	-43.440	0.154	0.078
-492.537	260.295	-0.187	0.325
-491.522	-145.988	-0.423	0.038
-490.508	-56.817	-0.267	-0.119
-489.493	-73.102	0.109	-0.040
-488.478	-118.196	0.365	-0.065
-487.464	-193.581	0.359	0.003
-486.449	551.650	0.006	0.014
-485.435	-168.814	0.176	0.007
-484.420	-110.129	-0.347	0.073
-483.405	129.111	0.195	0.250
-482.391	484.149	0.121	0.276
-481.376	-200.000	-0.034	0.276
-480.362	-129.676	0.394	-0.055
-479.347	214.182	0.090	-0.143
-478.332	-49.810	-0.535	0.255
-477.318	-200.000	-0.073	-0.000
-476.303	213.716	0.083	-0.132
-475.289	-43.246	0.141	-0.071
-474.274	-72.838	0.341	0.126
-473.259	-97.909	-0.337	0.087
-472.245	-62.056	0.166	0.070
-471.230	-187.460	0.042	0.001
-470.216	-162.611	0.173	0.009
-469.201	0.225	0.200	-0.144
-468.186	357.903	-0.096	0.192
-467.172	17.433	-0.092	-0.073
-466.157	-78.242	0.325	-0.112
-465.143	-155.782	0.057	0.004
-464.128	-113.463	-0.175	0.034
-463.113	349.433	0.055	-0.109
-462.099	-142.388	0.173	0.017
-461.084	-110.846	0.069	0.014
-460.070	-52.185	-0.298	0.139
-459.055	-78.220	0.226	-0.078
-458.040	-200.000	0.025	-0.132
-457.026	88.695	-0.090	0.100
-456.011	38.335	0.335	-0.300
-454.997	-43.511	0.180	0.091
-453.982	-200.000	-0.013	0.162
-452.968	247.283	-0.159	0.270
-451.953	30.643	0.329	-0.282
-450.938	800.000	-0.074	-0.226
-449.924	447.473	0.066	0.145
-448.909	198.176	-0.135	0.207
-447.895	-53.880	0.232	0.106
-446.880	68.051	-0.249	0.256
-445.865	-200.000	0.035	0.195
-444.851	-200.000	-0.028	-0.334
-443.836	-160.517	0.186	-0.010
-442.822	155.768	-0.090	0.125
-441.807	421.518	0.096	0.207
-440.792	-200.000	-0.033	0.378
-439.778	199.099	0.261	0.401
-438.763	800.000	0.107	-0.371
-437.749	-55.684	0.269	-0.121
-436.734	800.000	0.070	-0.275
-435.719	408.842	0.051	-0.108
-434.705	-119.577	-0.409	0.071
-433.690	17.185	0.149	-0.118
-432.676	569.963	0.045	-0.111
-431.661	-200.000	-0.043	0.196
-430.646	-55.187	0.135	0.061
-429.632	800.000	0.077	-0.297
-428.617	-19.294	-0.145	-0.090
-427.603	712.086	-0.073	0.193
-426.588	-191.076	-0.383	0.004
-425.573	800.000	-0.140	-0.427
-424.559	37.168	0.114	-0.101
-423.544	74.465	0.077	0.081
-422.530	8.530	-0.277	-0.209
-421.515	-78.538	-0.310	-0.106
-420.500	-200.000	-0.008	-0.156
-419.486	-200.000	-0.004	-0.084
-418.471	209.606	-0.102	0.160
-417.457	-82.530	-0.043	-0.014
-416.442	-105.689	0.281	-0.064
-415.428	49.496	-0.151	0.143
-414.413	-90.594	-0.309	0.090
-413.398	198.768	0.102	0.157
-412.384	-119.679	-0.124	0.021
-411.369	138.508	-0.015	-0.019
-410.355	270.941	-0.069	-0.122
-409.340	-41.085	0.188	-0.097
-408.325	243.861	-0.128	0.216
-407.311	-200.000	-0.009	0.146
-406.296	34.466	0.152	0.133
-405.282	-161.467	-0.208	-0.011
-404.267	-10.051	0.108	0.072
-403.252	184.335	-0.060	-0.090
-402.238	800.000	-0.065	-0.259
-401.223	68.837	-0.157	0.162
-400.209	498.641	-0.140	0.322
-399.194	54.275	0.137	0.132
-398.179	189.130	-0.102	-0.153
-397.165	-102.272	-0.347	-0.083
-396.150	356.961	0.030	0.060
-395.136	-168.504	-0.459	-0.018
-394.121	190.868	0.168	-0.254
-393.106	-129.180	0.551	-0.077
-392.092	-22.473	0.240	-0.145
-391.077	-90.978	0.269	-0.077
-390.063	-200.000	0.039	-0.174
-389.048	-55.148	-0.174	-0.078
-388.033	790.902	-0.038	-0.105
-387.019	-115.997	0.158	0.029
-386.004	190.067	0.040	-0.061
-384.990	74.649	0.056	0.059
-383.975	-200.000	0.010	0.213
-382.960	514.793	0.078	-0.182
-381.946	800.000	-0.093	-0.300
-380.931	-92.231	0.232	-0.066
-379.917	330.705	-0.065	0.125
-378.902	156.393	-0.124	0.171
-377.888	-200.000	-0.023	0.296
-376.873	145.048	-0.146	0.196
-375.858	158.890	0.122	0.169
-374.844	-125.105	-0.448	0.069
-373.829	-92.554	0.175	0.049
-372.815	-28.533	0.228	0.131
-371.800	40.880	-0.190	-0.172
-370.785	-71.664	-0.076	0.028
-369.771	800.000	-0.041	0.131
-368.756	151.875	0.159	0.217
-367.742	666.972	-0.081	-0.210
-366.727	237.409	0.257	0.426
-365.712	157.932	0.140	-0.195
-364.698	800.000	-0.076	-0.215
-363.683	-70.973	-0.269	-0.101
-362.669	-101.596	0.295	0.072
-361.654	24.137	0.203	-0.168
-360.639	-45.310	-0.216	-0.107
-359.625	-83.530	0.259	-0.083
-358.610	216.991	-0.112	-0.178
-357.596	-87.079	-0.251	0.076
-356.581	392.540	0.135	-0.281
-355.566	491.284	0.103	-0.237
-354.552	-17.974	-0.247	0.155
-353.537	-123.093	0.312	-0.050
-352.523	359.265	-0.136	0.272
-351.508	-53.580	-0.214	0.098
-350.493	58.579	-0.175	-0.172
-349.479	71.574	-0.043	0.045
-348.464	-126.071	0.157	-0.023
-347.450	-90.873	0.125	-0.036
-346.435	-200.000	-0.070	0.313
-345.420	800.000	-0.060	-0.199
-344.406	45.715	-0.223	0.206
-343.391	-200.000	-0.029	-0.153
-342.377	79.873	-0.023	0.024
-341.362	305.529	-0.165	-0.306
-340.348	-132.720	-0.120	0.015
-339.333	-97.901	0.056	0.015
-338.318	-121.244	-0.109	0.018
-337.304	265.721	0.090	0.158
-336.289	-200.000	0.025	-0.280
-335.275	-7.787	0.203	0.137
-334.260	-17.737	-0.018	-0.011
-333.245	-115.867	0.070	-0.013
-332.231	-60.704	0.048	0.020
-331.216	-36.205	-0.278	-0.150
-330.202	448.336	0.034	0.074
-329.187	-151.053	0.230	0.017
-328.172	18.993	0.071	0.057
-327.158	-200.000	-0.001	-0.019
-326.143	54.557	-0.238	-0.229
-325.129	-200.000	-0.025	-0.177
-324.114	-148.281	0.633	-0.052
-323.099	-3.887	0.198	-0.137
-322.085	-200.000	0.020	-0.147
-321.070	-14.691	0.067	0.043
-320.056	-35.999	-0.172	-0.093
-319.041	-29.032	-0.109	-0.063
-318.026	441.990	0.234	0.512
-317.012	-112.687	-0.319	0.063
-315.997	71.975	0.188	0.195
-314.983	16.645	0.154	-0.121
-313.968	72.220	-0.067	-0.070
-312.953	133.329	-0.157	-0.202
-311.939	-65.132	0.181	-0.073
-310.924	-12.761	0.219	0.142
-309.910	146.152	0.107	-0.143
-308.895	-190.752	-0.208	0.002
-307.880	74.978	0.288	-0.303
-306.866	185.260	0.089	-0.132
-305.851	205.971	-0.096	-0.149
-304.837	-200.000	0.020	0.296
-303.822	18.106	0.297	0.236
-302.807	-200.000	0.001	0.024
-301.793	228.161	-0.136	0.220
-300.778	-78.446	-0.080	-0.027
-299.764	-200.000	0.034	0.386
-298.749	-29.907	0.237	-0.135
-297.735	166.685	0.020	0.028
-296.720	-200.000	-0.007	0.100
-295.705	74.500	0.094	0.099
-294.691	-200.000	0.025	0.438
-293.676	-14.246	-0.220	0.142
-292.662	800.000	-0.066	0.238
-291.647	-46.054	-0.141	0.069
-290.632	-82.629	-0.020	0.007
-289.618	-200.000	-0.092	-0.000
-288.603	-200.000	0.064	0.000
-287.589	12.078	-0.204	-0.157
-286.574	431.752	0.012	-0.027
-285.559	20.350	-0.283	0.228
-284.545	429.010	0.078	0.168
-283.530	178.834	-0.108	-0.158
-282.516	10.454	0.077	0.059
-281.501	-200.000	-0.066	-0.333
-280.486	7.081	0.053	-0.039
-279.472	-200.000	-0.052	-0.299
-278.457	449.648	-0.040	-0.088
-277.443	170.915	-0.072	0.102
-276.428	-28.841	0.081	-0.047
-275.413	-200.000	-0.034	-0.199
-274.399	715.519	-0.063	0.166
-273.384	-109.962	0.174	-0.036
-272.370	-131.447	-0.094	-0.012
-271.355	50.319	-0.209	-0.196
-270.340	800.000	0.143	0.401
-269.326	-200.000	0.022	0.133
-268.311	-195.844	0.357	-0.003
-267.297	163.927	0.213	0.299
-266.282	345.395	-0.037	0.072
-265.267	-192.102	-0.474	0.005
-264.253	115.800	-0.189	-0.231
-263.238	278.778	-0.067	-0.119
-262.224	25.668	0.296	0.246
-261.209	-101.796	-0.356	0.086
-260.195	77.568	0.168	0.178
-259.180	-43.353	0.348	-0.175
-258.165	22.849	0.007	-0.005
-257.151	-200.000	0.007	-0.168
-256.136	49.870	0.227	-0.213
-255.122	-79.461	0.052	-0.018
-254.107	-159.058	-0.302	0.017
-253.092	240.851	-0.141	0.235
-252.078	64.726	0.372	0.374
-251.063	148.617	0.264	0.355
-250.049	96.348	0.236	0.269
-249.034	532.162	0.037	-0.087
-248.019	-200.000	0.036	-0.337
-247.005	-111.215	0.140	-0.029
-245.990	-200.000	0.022	-0.186
-244.976	466.273	0.110	0.245
-243.961	-33.012	0.255	0.141
-242.946	77.012	0.106	0.112
-241.932	-200.000	0.009	0.287
-240.917	-6.053	-0.156	-0.106
-239.903	84.495	-0.144	-0.157
-238.888	53.856	-0.146	-0.139
-237.873	800.000	-0.037	-0.151
-236.859	-200.000	0.024	-0.438
-235.844	349.956	0.081	-0.160
-234.830	646.848	-0.134	-0.340
-233.815	-82.855	-0.030	-0.010
-232.800	144.673	-0.245	0.326
-231.786	255.372	-0.013	0.022
-230.771	-39.815	-0.226	-0.117
-229.757	-200.000	-0.008	-0.091
-228.742	-13.018	0.134	-0.087
-227.727	-70.755	0.250	0.094
-226.713	-200.000	-0.386	0.000
-225.698	-32.153	0.397	-0.221
-224.684	-10.448	-0.198	0.130
-223.669	-104.665	-0.156	0.036
-222.655	-123.576	0.213	-0.034
-221.640	552.997	-0.123	0.294
-220.625	-161.134	-0.153	0.008
-219.611	49.868	0.100	-0.094
-218.596	108.100	0.053	0.063
-217.582	-200.000	-0.048	0.243
-216.567	315.650	0.072	0.136
-215.552	-67.072	0.145	0.057
-214.538	-200.000	0.051	0.322
-213.523	-200.000	-0.052	0.284
-212.509	800.000	-0.039	0.110
-211.494	800.000	-0.071	0.250
-210.479	278.042	-0.181	-0.321
-209.465	-102.157	0.199	0.048
-208.450	87.713	0.026	0.029
-207.436	193.915	0.116	-0.174
-206.421	217.704	0.145	0.230
-205.406	-171.401	0.200	0.007
-204.392	-102.529	-0.426	-0.101
-203.377	-64.489	-0.231	0.093
-202.363	-5.531	-0.098	0.067
-201.348	-41.330	-0.206	-0.106
-200.333	-37.236	0.301	0.160
-199.319	-172.128	0.144	-0.005
-198.304	-200.000	-0.005	-0.100
-197.290	-74.307	-0.196	0.070
-196.275	-103.537	0.279	0.065
-195.260	-77.755	0.186	0.064
-194.246	-41.749	0.225	-0.115
-193.231	-139.655	-0.181	-0.019
-192.217	-95.673	0.164	-0.044
-191.202	43.783	-0.069	0.062
-190.187	504.815	-0.030	-0.070
-189.173	-200.000	-0.040	-0.397
-188.158	311.807	0.119	-0.222
-187.144	-200.000	0.040	0.176
-186.129	48.284	-0.168	0.156
-185.114	180.909	-0.138	0.202
-184.100	-200.000	0.012	-0.242
-183.085	197.860	0.023	-0.035
-182.071	352.540	0.104	-0.205
-181.056	-13.532	0.320	0.206
-180.042	41.885	-0.039	-0.035
-179.027	-94.058	0.296	0.081
-178.012	800.000	-0.101	0.414
-176.998	214.563	-0.157	-0.247
-175.983	-200.000	0.016	-0.100
-174.969	669.875	-0.071	-0.184
-173.954	800.000	0.124	-0.430
-172.939	-200.000	0.020	-0.106
-171.925	-91.502	0.050	0.014
-170.910	800.000	-0.066	-0.187
-169.896	182.664	0.141	0.206
-168.881	-200.000	0.000	0.093
-167.866	-74.229	-0.146	0.052
-166.852	-37.222	-0.176	0.093
-165.837	-159.684	-0.301	-0.017
-164.823	-200.000	0.043	0.398
-163.808	-200.000	-0.030	-0.216
-162.793	149.917	-0.132	0.177
-161.779	-200.000	-0.012	0.224
-160.764	800.000	0.036	-0.143
-159.750	-200.000	0.028	-0.369
-158.735	99.764	0.105	-0.121
-157.720	169.676	-0.078	0.111
-156.706	36.554	-0.365	0.320
-155.691	-200.000	0.015	-0.146
-154.677	-200.000	0.013	-0.138
-153.662	64.019	-0.126	-0.126
-152.647	-128.438	-0.192	-0.027
-151.633	-24.511	-0.115	0.068
-150.618	174.880	-0.238	-0.341
-149.604	-29.998	0.216	0.122
-148.589	21.194	-0.051	-0.041
-147.574	-142.942	-0.271	0.026
-146.560	-33.348	-0.253	0.139
-145.545	-89.097	0.152	-0.045
-144.531	-200.000	0.031	-0.256
-143.516	-174.940	-0.548	0.015
-142.502	-138.458	-0.120	-0.013
-141.487	532.497	0.059	-0.138
-140.472	-200.000	0.007	0.303
-139.458	-200.000	-0.125	0.000
-138.443	-200.000	0.002	0.151
-137.429	112.407	0.197	0.236
-136.414	-200.000	-0.016	0.247
-135.399	-7.573	0.090	-0.060
-134.385	-92.536	0.094	0.026
-133.370	-69.402	-0.231	0.088
-132.356	-60.447	0.464	0.196
-131.341	-200.000	-0.013	0.103
-130.326	-51.015	0.077	-0.036
-129.312	-200.000	-0.003	-0.209
-128.297	351.382	0.088	0.173
-127.283	-200.000	0.046	0.250
-126.268	-48.657	0.267	-0.127
-125.253	-200.000	0.027	-0.163
-124.239	41.055	-0.099	0.088
-123.224	-142.906	-0.164	-0.016
-122.210	390.103	0.086	-0.177
-121.195	-78.869	-0.068	-0.023
-120.180	-200.000	-0.019	0.151
-119.166	-85.573	0.017	-0.005
-118.151	-46.960	-0.076	-0.037
-117.137	-164.186	0.142	0.006
-116.122	472.123	-0.118	-0.262
-115.107	-28.938	0.418	-0.238
-114.093	273.562	-0.051	0.089
-113.078	155.771	-0.162	0.220
-112.064	252.785	0.152	0.256
-111.049	-32.524	-0.095	-0.052
-110.034	31.540	0.182	-0.155
-109.020	-42.084	0.257	-0.130
-108.005	-41.303	-0.064	0.033
-106.991	47.172	-0.125	-0.115
-105.976	241.172	-0.140	0.231
-104.962	5.284	0.068	0.049
-103.947	-200.000	0.031	-0.141
-102.932	282.762	0.024	-0.042
-101.918	-200.000	0.006	-0.130
-100.903	-26.286	0.523	0.304
-99.889	-67.524	-0.313	0.121
-98.874	166.463	-0.088	-0.123
-97.859	-200.000	-0.049	-0.347
-96.845	-200.000	0.004	0.365
-95.830	77.781	-0.117	0.124
-94.816	141.031	-0.067	-0.087
-93.801	110.383	-0.253	-0.301
-92.786	63.078	-0.181	0.180
-91.772	230.997	-0.102	-0.165
-90.757	19.748	-0.167	0.133
-89.743	-200.000	0.038	-0.233
-88.728	133.604	-0.168	0.216
-87.713	-144.195	0.353	0.033
-86.699	-128.644	0.186	0.026
-85.684	259.900	0.083	-0.142
-84.670	-200.000	-0.051	-0.222
-83.655	-48.921	0.332	-0.157
-82.640	690.747	0.003	0.009
-81.626	-53.492	-0.274	0.124
-80.611	-10.423	-0.217	-0.142
-79.597	-28.848	0.052	-0.030
-78.582	233.047	-0.092	-0.150
-77.567	331.144	-0.089	-0.170
-76.553	91.788	0.038	-0.042
-75.538	300.384	-0.205	-0.374
-74.524	161.309	-0.101	0.140
-73.509	77.296	0.085	0.089
-72.494	-151.751	0.289	0.021
-71.480	-185.806	0.393	-0.006
-70.465	622.730	0.175	0.437
-69.451	-200.000	0.035	0.214
-68.436	452.951	0.044	0.096
-67.422	-110.082	-0.319	-0.066
-66.407	-200.000	0.031	-0.180
-65.392	359.046	-0.090	0.177
-64.378	75.353	0.234	-0.244
-63.363	-133.571	0.159	0.020
-62.349	-107.797	0.099	-0.021
-61.334	-76.470	-1.083	-0.376
-60.319	16.903	0.476	0.373
-59.305	-200.000	-0.212	-0.964
-58.290	192.745	0.411	0.614
-57.276	800.000	0.531	1.525
-56.261	-200.000	87.729	496.997
-55.246	538.021	1388.204	3260.278
-54.232	185.833	2607.610	3829.754
-53.217	114.732	2330.479	2807.298
-52.203	46.561	1944.662	1783.214
-51.188	40.649	1734.400	1544.514
-50.173	37.864	1690.252	1483.971
-49.159	52.957	1733.640	1638.648
-48.144	56.623	1752.150	1684.334
-47.130	40.651	1710.471	1522.979
-46.115	37.596	1696.544	1487.212
-45.100	37.474	1691.574	1481.871
-44.086	37.383	1688.766	1478.655
-43.071	37.404	1686.003	1476.340
-42.057	37.356	1684.276	1474.407
-41.042	37.526	1681.256	1472.986
-40.027	37.528	1679.326	1471.257
-39.013	37.522	1677.313	1469.386
-37.998	37.422	1675.816	1467.263
-36.984	37.440	1674.537	1466.221
-35.969	37.511	1673.595	1465.877
-34.954	37.539	1671.632	1464.306
-33.940	37.487	1670.166	1462.573
-32.925	37.439	1668.567	1460.753
-31.911	37.566	1666.392	1459.743
-30.896	37.599	1664.312	1458.111
-29.881	37.494	1662.868	1456.007
-28.867	37.490	1661.758	1454.941
-27.852	37.492	1659.511	1452.934
-26.838	37.539	1658.279	1452.151
-25.823	37.607	1656.679	1451.195
-24.809	37.676	1655.107	1450.278
-23.794	37.591	1654.029	1448.643
-22.779	37.599	1652.328	1447.155
-21.765	37.658	1650.492	1445.928
-20.750	37.554	1649.200	1443.966
-19.736	37.544	1648.465	1443.187
-18.721	37.609	1646.651	1442.027
-17.706	37.561	1645.310	1440.437
-16.692	37.531	1643.733	1438.782
-15.677	37.527	1642.194	1437.346
-14.663	37.594	1641.070	1436.801
-13.648	37.617	1639.243	1435.315
-12.633	37.598	1637.968	1434.000
-11.619	37.587	1636.402	1432.491
-10.604	37.578	1635.176	1431.297
-9.590	37.601	1633.655	1430.073
-8.575	37.628	1631.918	1428.699
-7.560	37.582	1631.241	1427.714
-6.546	37.509	1629.760	1425.822
-5.531	37.553	1628.960	1425.385
-4.517	37.480	1627.658	1423.657
-3.502	37.543	1626.499	1423.047
-2.487	37.685	1624.660	1422.422
-1.473	37.402	1612.847	1409.972
-0.458	34.616	1593.395	1372.902
0.556	31.430	1592.505	1335.974
1.571	28.654	1616.110	1335.493
2.586	27.731	1629.510	1339.670
3.600	24.306	1574.382	1269.890
4.615	14.623	1460.208	1113.407
5.629	6.505	1392.117	1009.576
6.644	5.219	1383.293	994.899
7.659	4.962	1382.273	992.442
8.673	4.951	1380.828	991.244
9.688	5.048	1379.101	990.536
10.702	4.872	1376.952	987.786
11.717	8.360	1383.930	1014.904
12.731	16.995	1399.247	1081.306
13.746	21.630	1405.695	1115.798
14.761	20.438	1402.929	1105.923
15.775	19.372	1399.919	1096.675
16.790	18.303	1397.301	1087.737
17.804	17.465	1394.818	1080.389
18.819	17.065	1393.771	1076.946
19.834	16.770	1391.980	1073.601
20.848	16.617	1390.959	1071.745
21.863	16.416	1389.547	1069.291
22.877	16.214	1388.507	1067.123
23.892	16.253	1387.550	1066.536
24.907	16.126	1387.250	1065.410
25.921	16.199	1385.771	1064.638
26.936	16.188	1384.980	1063.869
27.950	16.275	1383.855	1063.457
28.965	16.403	1382.394	1063.047
29.980	16.318	1382.018	1062.130
30.994	16.481	1380.724	1062.064
32.009	16.520	1379.415	1061.209
33.023	16.534	1378.459	1060.466
34.038	16.473	1377.170	1059.001
35.053	16.341	1375.702	1056.953
36.067	16.301	1374.798	1055.911
37.082	16.366	1373.994	1055.606
38.096	16.539	1372.627	1055.548
39.111	16.405	1372.014	1054.145
40.126	16.391	1370.946	1053.143
41.140	16.164	1370.246	1051.097
42.155	16.132	1369.134	1049.951
43.169	16.086	1369.380	1049.764
44.184	16.029	1369.174	1049.155
45.199	16.119	1368.326	1048.974
46.213	16.149	1368.138	1048.923
47.228	16.335	1366.940	1049.067
48.242	16.401	1365.720	1048.447
49.257	16.365	1364.405	1047.121
50.271	16.341	1362.655	1045.541
51.286	16.453	1361.040	1044.901
52.301	16.271	1360.707	1043.424
53.315	16.147	1359.340	1041.517
54.330	16.141	1358.387	1040.663
55.344	16.080	1356.769	1038.951
56.359	16.121	1355.680	1038.279
57.374	16.061	1355.482	1037.668
58.388	16.072	1354.409	1036.822
59.403	16.003	1353.627	1035.705
60.417	16.068	1352.977	1035.519
61.432	16.000	1352.046	1034.295
62.447	15.955	1351.019	1033.141
63.461	15.910	1349.679	1031.753
64.476	15.880	1348.915	1030.892
65.490	15.960	1347.671	1030.340
66.505	15.914	1346.175	1028.826
67.520	15.956	1344.867	1027.991
68.534	15.913	1344.019	1026.991
69.549	16.061	1342.570	1026.692
70.563	15.967	1341.529	1025.233
71.578	15.848	1340.171	1023.382
72.593	15.895	1339.332	1022.932
73.607	15.768	1338.984	1021.806
74.622	15.839	1338.390	1021.694
75.636	15.935	1337.309	1021.357
76.651	15.913	1336.822	1020.767
77.666	15.846	1336.011	1019.652
78.680	15.985	1336.009	1020.399
79.695	15.956	1335.032	1019.388
80.709	16.050	1334.208	1019.237
81.724	16.027	1333.651	1018.580
82.739	16.100	1332.713	1018.217
83.753	16.255	1331.610	1018.220
84.768	16.267	1330.757	1017.548
85.782	16.383	1329.932	1017.527
86.797	16.290	1328.268	1015.602
87.812	16.322	1326.964	1014.710
88.826	16.275	1326.342	1013.859
89.841	16.383	1324.888	1013.309
90.855	16.375	1323.741	1012.296
91.870	16.370	1323.293	1011.831
92.884	16.359	1322.157	1010.806
93.899	16.332	1321.759	1010.251
94.914	16.500	1320.319	1010.063
95.928	16.469	1319.509	1009.173
96.943	16.301	1319.264	1007.894
97.957	16.431	1317.656	1007.352
98.972	16.410	1316.488	1006.244
99.987	16.326	1316.080	1005.339
101.001	16.404	1314.775	1004.722
102.016	16.363	1313.801	1003.643
103.030	16.355	1313.025	1002.916
104.045	16.356	1311.929	1001.997
105.060	16.286	1310.907	1000.711
106.074	16.209	1309.069	998.763
107.089	15.979	1307.762	996.318
108.103	15.964	1306.747	995.367
109.118	15.940	1305.235	993.984
110.133	16.035	1303.807	993.371
111.147	16.018	1302.723	992.356
112.162	16.033	1301.754	991.616
113.176	16.137	1300.162	990.928
114.191	16.042	1299.633	989.877
115.206	16.134	1298.389	989.383
116.220	16.097	1297.157	988.141
117.235	16.100	1295.772	987.017
118.249	16.181	1294.996	986.812
119.264	16.083	1293.636	985.115
120.279	16.060	1292.870	984.311
121.293	16.052	1292.035	983.544
122.308	16.017	1290.447	982.044
123.322	16.009	1289.883	981.478
124.337	15.995	1288.682	980.395
125.352	15.954	1287.454	979.138
126.366	15.885	1286.554	977.968
127.381	15.995	1285.322	977.581
128.395	15.973	1284.297	976.587
129.410	16.071	1283.582	976.523
130.424	16.023	1282.915	975.656
131.439	16.081	1281.978	975.190
132.454	16.140	1280.901	974.624
133.468	16.175	1280.383	974.347
134.483	16.259	1279.515	974.085
135.497	16.213	1278.856	973.231
136.512	16.220	1277.088	971.841
137.527	16.132	1276.313	970.659
138.541	16.174	1274.717	969.600
139.556	16.228	1273.740	969.080
140.570	16.379	1272.465	968.894
141.585	16.303	1271.400	967.562
142.600	16.435	1270.325	967.415
143.614	16.455	1269.448	966.770
144.629	16.458	1268.254	965.795
145.643	16.463	1267.288	965.002
146.658	16.398	1265.963	963.535
147.673	16.282	1264.453	961.640
148.687	16.170	1263.287	960.033
149.702	16.237	1261.695	959.117
150.716	16.168	1260.346	957.620
151.731	16.206	1259.028	956.744
152.746	16.175	1258.254	955.895
153.760	16.295	1256.895	955.462
154.775	16.333	1255.908	954.840
155.789	16.383	1254.807	954.200
156.804	16.325	1253.930	953.121
157.819	16.389	1252.769	952.519
158.833	16.490	1251.722	952.206
159.848	16.666	1250.781	952.395
160.862	16.486	1250.312	950.942
161.877	16.413	1248.400	948.996
162.892	16.289	1247.374	947.434
163.906	16.260	1246.834	946.777
164.921	16.354	1245.683	946.346
165.935	16.297	1245.169	945.552
166.950	16.381	1244.150	945.167
167.964	16.428	1243.771	945.056
168.979	16.340	1242.988	943.886
169.994	16.389	1242.100	943.401
171.008	16.410	1241.146	942.712
172.023	16.452	1240.533	942.395
173.037	16.519	1239.662	942.025
174.052	16.609	1238.938	941.891
175.067	16.322	1237.964	939.474
176.081	16.164	1237.169	937.909
177.096	16.373	1235.765	937.920
178.110	16.408	1234.560	937.116
179.125	16.522	1233.383	936.772
180.140	16.378	1232.450	935.181
181.154	16.508	1230.886	934.632
182.169	16.531	1229.491	933.618
183.183	16.522	1228.704	932.886
184.198	16.648	1227.450	932.546
185.213	16.647	1226.645	931.847
186.227	16.712	1225.239	931.053
187.242	16.665	1224.099	929.847
188.256	16.840	1223.252	930.082
189.271	16.873	1221.803	929.079
190.286	16.701	1221.035	927.471
191.300	16.277	1220.475	924.641
192.315	16.329	1219.623	924.198
193.329	16.368	1218.620	923.571
194.344	16.510	1217.984	923.782
195.359	16.478	1217.936	923.487
196.373	16.530	1216.954	922.946
197.388	16.714	1216.737	923.702
198.402	16.820	1216.316	923.879
199.417	16.847	1215.559	923.371
200.432	16.993	1214.563	923.326
201.446	16.934	1213.746	922.305
202.461	17.070	1212.984	922.383
203.475	16.987	1211.897	921.025
204.490	16.912	1210.447	919.436
205.504	16.887	1209.129	918.218
206.519	16.787	1208.256	916.929
207.534	16.803	1206.902	915.906
208.548	16.835	1205.712	915.098
209.563	16.784	1205.064	914.248
210.577	16.870	1204.285	914.040
211.592	16.830	1203.627	913.247
212.607	16.965	1202.869	913.318
213.621	17.016	1201.661	912.590
214.636	17.003	1200.816	911.802
215.650	17.066	1199.787	911.278
216.665	17.095	1199.148	910.864
217.680	17.083	1198.453	910.195
218.694	17.148	1197.704	909.890
219.709	17.180	1197.021	909.466
220.723	17.125	1195.787	908.153
221.738	17.151	1195.114	907.697
222.753	17.172	1194.185	907.023
223.767	17.171	1193.749	906.608
224.782	17.248	1192.959	906.341
225.796	17.309	1192.242	906.041
226.811	17.244	1191.758	905.247
227.826	17.138	1191.331	904.278
228.840	17.189	1190.244	903.640
229.855	17.140	1189.383	902.646
230.869	17.159	1188.594	902.071
231.884	17.046	1187.555	900.601
232.899	17.109	1186.486	900.046
233.913	17.153	1185.909	899.761
234.928	17.096	1185.128	898.787
235.942	17.019	1184.566	897.873
236.957	17.069	1183.872	897.535
237.972	17.003	1183.359	896.715
238.986	17.054	1182.530	896.278
240.001	17.088	1181.798	895.824
241.015	17.222	1180.651	895.582
242.030	17.268	1179.560	894.916
243.045	17.230	1179.302	894.443
244.059	17.260	1178.307	893.768
245.074	17.230	1177.406	892.849
246.088	17.268	1177.093	892.730
247.103	17.403	1175.764	892.349
248.117	17.401	1175.286	891.900
249.132	17.521	1174.916	892.167
250.147	17.680	1174.245	892.413
251.161	17.887	1173.067	892.519
252.176	17.931	1172.208	892.018
253.190	17.819	1172.361	891.469
254.205	17.757	1171.786	890.629
255.220	17.966	1170.483	890.652
256.234	17.838	1170.476	889.897
257.249	17.866	1169.488	889.215
258.263	17.749	1169.053	888.195
259.278	17.861	1168.417	888.217
260.293	17.843	1167.918	887.663
261.307	17.899	1167.381	887.467
262.322	17.895	1166.508	886.709
263.336	18.053	1165.651	886.796
264.351	17.954	1165.400	886.012
265.366	18.001	1164.744	885.682
266.380	18.105	1163.491	885.187
267.395	17.912	1163.250	883.925
268.409	17.881	1162.412	883.050
269.424	17.821	1161.777	882.179
270.439	18.010	1160.858	882.379
271.453	17.933	1159.821	881.117
272.468	17.788	1159.349	879.934
273.482	17.853	1158.867	879.821
274.497	17.782	1158.228	878.894
275.512	17.916	1157.224	878.747
276.526	17.925	1156.336	878.042
277.541	17.905	1155.317	877.086
278.555	18.034	1154.454	877.017
279.570	18.158	1154.070	877.279
280.585	18.200	1153.300	876.834
281.599	18.200	1152.622	876.240
282.614	18.016	1151.690	874.512
283.628	18.077	1150.285	873.680
284.643	18.033	1149.878	873.069
285.657	18.142	1148.862	872.778
286.672	18.053	1148.044	871.626
287.687	18.056	1147.012	870.781
288.701	18.065	1146.353	870.249
289.716	18.106	1145.858	870.003
290.730	18.177	1145.021	869.653
291.745	18.303	1143.834	869.314
292.760	18.199	1143.566	868.507
293.774	18.204	1142.892	867.941
294.789	18.332	1142.618	868.305
295.803	18.294	1142.095	867.637
296.818	18.247	1141.137	866.598
297.833	18.218	1140.318	865.749
298.847	18.197	1139.548	864.983
299.862	18.294	1138.595	864.675
300.876	18.199	1138.370	863.947
301.891	18.377	1137.760	864.307
302.906	18.292	1136.850	863.112
303.920	18.603	1136.006	863.956
304.935	18.497	1135.789	863.183
305.949	18.542	1135.021	862.748
306.964	18.593	1134.256	862.347
307.979	18.417	1133.736	860.993
308.993	18.454	1132.832	860.415
310.008	18.550	1131.706	859.967
311.022	18.493	1131.023	859.085
312.037	18.579	1130.310	858.898
313.052	18.496	1129.540	857.823
314.066	18.403	1128.228	856.285
315.081	18.358	1127.035	855.077
316.095	18.437	1126.475	854.973
317.110	18.332	1126.202	854.168
318.125	18.375	1125.290	853.613
319.139	18.299	1124.878	852.844
320.154	18.345	1123.844	852.214
321.168	18.469	1123.133	852.220
322.183	18.397	1122.714	851.464
323.197	18.336	1122.216	850.711
324.212	18.391	1121.584	850.429
325.227	18.519	1121.110	850.631
326.241	18.475	1120.383	849.783
327.256	18.539	1119.090	849.047
328.270	18.471	1118.241	847.992
329.285	18.484	1117.384	847.330
330.300	18.500	1116.526	846.681
331.314	18.452	1115.519	845.609
332.329	18.562	1114.563	845.350
333.343	18.663	1113.315	844.826
334.358	18.676	1112.386	844.111
335.373	18.612	1112.159	843.547
336.387	18.778	1111.127	843.506
337.402	18.819	1110.650	843.270
338.416	18.692	1110.260	842.276
339.431	18.779	1109.936	842.386
340.446	18.845	1109.247	842.109
341.460	18.845	1108.615	841.556
342.475	18.926	1107.484	841.017
343.489	19.053	1106.582	840.878
344.504	19.130	1105.464	840.334
345.519	19.000	1105.134	839.371
346.533	19.129	1103.874	838.970
347.548	19.142	1103.117	838.384
348.562	19.094	1102.586	837.674
349.577	19.122	1101.390	836.826
350.592	19.034	1100.690	835.795
351.606	18.751	1100.257	834.016
352.621	18.931	1099.450	834.205
353.635	18.910	1098.567	833.359
354.650	18.932	1097.911	832.890
355.665	18.972	1097.191	832.466
356.679	19.031	1096.491	832.144
357.694	19.070	1095.954	831.855
358.708	19.113	1095.419	831.584
359.723	19.165	1094.552	831.100
360.738	19.107	1093.918	830.267
361.752	19.186	1093.586	830.320
362.767	19.122	1092.890	829.410
363.781	19.091	1092.649	829.009
364.796	19.237	1091.639	828.870
365.810	19.201	1091.575	828.572
366.825	19.273	1090.939	828.365
367.840	19.375	1090.480	828.433
368.854	19.526	1089.696	828.488
369.869	19.554	1088.811	827.874
370.883	19.414	1087.970	826.493
371.898	19.430	1087.430	826.084
372.913	19.326	1086.579	824.869
373.927	19.354	1086.445	824.828
374.942	19.513	1085.413	824.730
375.956	19.518	1085.139	824.474
376.971	19.413	1084.527	823.436
377.986	19.492	1083.983	823.328
379.000	19.569	1083.266	823.074
380.015	19.630	1083.072	823.145
381.029	19.598	1082.338	822.365
382.044	19.716	1081.408	822.143
383.059	19.648	1080.972	821.417
384.073	19.506	1080.090	819.998
385.088	19.660	1079.184	819.971
386.102	19.724	1078.095	819.375
387.117	19.666	1076.798	818.041
388.132	19.440	1076.288	816.513
389.146	19.544	1074.935	815.905
390.161	19.425	1074.130	814.658
391.175	19.570	1073.522	814.813
392.190	19.528	1073.383	814.433
393.205	19.645	1072.792	814.464
394.219	19.703	1071.441	813.639
395.234	19.711	1070.559	812.938
396.248	19.698	1069.761	812.199
397.263	19.556	1068.867	810.779
398.278	19.506	1068.353	810.082
399.292	19.600	1067.299	809.655
400.307	19.468	1066.651	808.471
401.321	19.558	1065.841	808.211
402.336	19.500	1064.951	807.192
403.350	19.581	1064.606	807.237
404.365	19.670	1063.556	806.786
405.380	19.625	1063.298	806.305
406.394	19.741	1062.307	806.026
407.409	19.834	1061.515	805.785
408.423	19.900	1061.156	805.750
409.438	19.897	1060.308	805.020
410.453	19.910	1059.912	804.709
411.467	20.086	1058.633	804.483
412.482	20.010	1058.586	804.024
413.496	20.148	1057.690	803.914
414.511	20.132	1057.092	803.312
415.526	20.130	1056.892	803.082
416.540	20.164	1056.487	802.857
417.555	20.181	1055.672	802.248
418.569	20.069	1055.386	801.442
419.584	20.124	1054.724	801.121
420.599	20.108	1054.346	800.688
421.613	148.990	1400.215	1782.366
422.628	136.716	1450.608	1782.486
