DTS Sentinel unit serial number:	SN413079Multiplexer serial number:	ORYXHardware model number:	OX4-SRSoftware version number:	ORYX F/W v4.00 Oryx Data Collector v3.7.2.0data status	okinstallation	princeton_trtdifferential loss correction	single-endedforward channel	channel 2reverse channel	N/Adate	2019/09/11time	15:05:11forward acquisition time	60.00reverse acquisition time	0.00gamma	496.2192k internal	0.2288k external	0.2288temperature offset calibration	1.0009default loss term (dB/km)	0.3790temperature slope calibration	1.0000multiplexer offset coefficient	1.0000multiplexer slope coefficient	1.0000fibre end	0.00T internal ref (°C)	42.91T ext. ref 1 (°C)	0.94T ext. ref 2 (°C)	38.00length (m)	temperature (°C)	Stokes	anti-Stokes-747.200	-165.089	-0.262	-0.012
-746.185	19.910	0.075	0.062
-745.171	4.064	-0.221	0.166
-744.156	615.385	0.186	0.479
-743.142	258.223	-0.179	0.316
-742.127	-16.697	-0.108	0.070
-741.112	-83.361	-0.125	0.041
-740.098	-52.016	0.340	0.162
-739.083	-200.000	0.028	0.164
-738.069	-200.000	0.012	0.228
-737.054	158.595	0.053	-0.075
-736.039	800.000	-0.024	-0.072
-735.025	30.935	-0.031	-0.027
-734.010	-29.351	-0.215	-0.126
-732.996	-105.673	0.177	0.041
-731.981	-200.000	-0.026	0.194
-730.966	45.358	-0.176	-0.167
-729.952	289.897	-0.163	-0.303
-728.937	56.489	0.190	0.189
-727.923	253.077	-0.174	-0.305
-726.908	-83.215	-0.392	-0.129
-725.894	-84.008	-0.228	-0.074
-724.879	34.372	0.321	0.287
-723.864	424.482	0.042	-0.093
-722.850	100.154	-0.220	0.261
-721.835	184.808	-0.180	0.273
-720.821	800.000	0.062	0.188
-719.806	-107.980	-0.260	-0.058
-718.791	158.677	0.078	-0.111
-717.777	207.443	-0.097	-0.155
-716.762	494.289	-0.128	0.302
-715.748	17.433	0.159	0.130
-714.733	-137.785	-0.232	0.027
-713.718	10.752	-0.206	-0.161
-712.704	-200.000	0.017	-0.109
-711.689	800.000	0.014	-0.055
-710.675	69.482	-0.360	-0.380
-709.660	198.353	-0.175	-0.274
-708.645	177.881	0.187	-0.279
-707.631	-200.000	-0.009	-0.053
-706.616	19.207	0.030	0.025
-705.602	-66.369	0.031	0.013
-704.587	-83.561	-0.268	-0.088
-703.572	-200.000	0.035	-0.187
-702.558	-196.689	-0.339	0.002
-701.543	577.631	-0.077	0.194
-700.529	370.392	0.055	0.114
-699.514	-103.136	0.042	-0.010
-698.499	512.989	0.044	-0.105
-697.485	276.239	0.178	-0.323
-696.470	250.003	0.062	-0.108
-695.456	58.590	-0.266	0.268
-694.441	-66.579	-0.289	-0.117
-693.426	-114.370	-0.309	-0.061
-692.412	-48.739	0.248	-0.122
-691.397	800.000	-0.066	0.201
-690.383	-144.823	-0.196	-0.018
-689.368	-151.269	-0.171	-0.013
-688.354	-75.041	-0.160	0.059
-687.339	-70.583	-0.293	-0.113
-686.324	-72.169	-0.385	-0.146
-685.310	-200.000	-0.090	-0.485
-684.295	141.672	-0.099	-0.134
-683.281	-80.775	-0.485	-0.165
-682.266	204.600	0.123	0.195
-681.251	80.733	0.104	-0.115
-680.237	-90.240	-0.291	-0.086
-679.222	181.355	-0.084	-0.126
-678.208	-60.501	-0.031	-0.013
-677.193	-66.977	-0.052	-0.021
-676.178	-200.000	0.005	0.172
-675.164	-159.646	-0.251	0.014
-674.149	-141.267	-0.091	0.009
-673.135	61.999	-0.044	0.045
-672.120	-103.184	-0.192	0.046
-671.105	-200.000	0.008	0.115
-670.091	227.544	0.085	-0.141
-669.076	-40.456	-0.063	0.033
-668.062	-56.689	0.210	0.095
-667.047	337.286	-0.144	-0.287
-666.032	289.134	0.044	0.081
-665.018	500.060	0.129	0.305
-664.003	-98.471	-0.165	0.043
-662.989	-200.000	-0.043	-0.000
-661.974	-150.150	0.133	-0.011
-660.959	188.384	0.041	-0.062
-659.945	-36.902	0.143	0.079
-658.930	-200.000	0.028	0.136
-657.916	-155.645	-0.220	0.014
-656.901	121.821	-0.155	0.198
-655.886	-200.000	0.053	0.278
-654.872	-12.939	0.334	-0.222
-653.857	-20.468	0.148	0.093
-652.843	623.457	-0.105	-0.269
-651.828	51.747	0.236	-0.229
-650.814	181.102	-0.021	0.032
-649.799	-58.439	0.226	-0.100
-648.784	-67.614	0.221	-0.088
-647.770	257.010	-0.245	0.429
-646.755	800.000	-0.014	0.040
-645.741	178.795	-0.057	-0.085
-644.726	-103.720	-0.122	0.029
-643.711	-167.547	-0.195	0.008
-642.697	-200.000	0.019	-0.163
-641.682	323.025	0.157	0.305
-640.668	-171.032	0.088	0.003
-639.653	800.000	0.084	-0.276
-638.638	-200.000	0.064	-0.342
-637.624	60.247	-0.034	-0.035
-636.609	-100.999	0.321	0.081
-635.595	-0.154	0.217	0.158
-634.580	423.561	0.166	0.364
-633.565	229.764	0.090	0.150
-632.551	255.530	-0.049	0.086
-631.536	-200.000	0.018	0.228
-630.522	59.474	0.148	-0.149
-629.507	-15.439	-0.163	-0.107
-628.492	-114.592	0.309	0.060
-627.478	-165.843	-0.056	0.002
-626.463	-200.000	-0.023	0.340
-625.449	584.635	0.059	-0.147
-624.434	128.629	0.201	-0.261
-623.419	145.230	-0.087	0.119
-622.405	339.932	0.137	-0.272
-621.390	61.189	0.148	0.150
-620.376	46.671	-0.129	-0.122
-619.361	-79.441	-0.028	0.010
-618.346	-79.413	-0.117	0.040
-617.332	-71.548	0.057	0.022
-616.317	96.320	0.123	0.144
-615.303	200.768	0.151	-0.238
-614.288	-5.723	-0.163	-0.114
-613.273	800.000	0.023	-0.083
-612.259	161.492	0.115	0.164
-611.244	651.534	0.081	-0.212
-610.230	275.712	0.092	-0.166
-609.215	100.315	-0.265	0.314
-608.201	-200.000	0.025	0.304
-607.186	162.844	0.128	-0.184
-606.171	78.784	-0.057	-0.063
-605.157	162.568	0.222	-0.317
-604.142	-200.000	-0.034	-0.225
-603.128	-200.000	-0.008	-0.168
-602.113	110.510	-0.107	0.132
-601.098	-9.493	-0.308	0.210
-600.084	-103.691	-0.298	-0.071
-599.069	519.556	-0.175	-0.419
-598.055	207.400	-0.104	0.165
-597.040	-200.000	0.004	0.241
-596.025	776.991	-0.077	-0.214
-595.011	144.615	0.187	0.254
-593.996	-178.811	0.107	0.002
-592.982	-50.676	0.275	-0.132
-591.967	800.000	0.069	0.302
-590.952	51.467	0.139	-0.134
-589.938	-0.412	0.166	0.120
-588.923	800.000	-0.058	0.183
-587.909	800.000	-0.038	-0.127
-586.894	100.305	-0.325	-0.384
-585.879	38.988	0.279	-0.254
-584.865	-133.797	-0.095	0.012
-583.850	-182.409	-0.482	-0.009
-582.836	-200.000	0.022	0.209
-581.821	-106.139	-0.304	0.070
-580.806	-60.331	-0.070	0.030
-579.792	-183.207	-0.118	-0.002
-578.777	-200.000	0.001	0.083
-577.763	-36.816	0.140	-0.077
-576.748	71.139	-0.072	-0.076
-575.733	73.342	0.159	0.169
-574.719	741.297	0.055	0.151
-573.704	800.000	0.036	0.155
-572.690	-84.887	0.388	0.124
-571.675	800.000	0.036	-0.123
-570.661	800.000	0.014	-0.040
-569.646	-76.708	0.317	0.113
-568.631	-139.517	-0.255	0.028
-567.617	111.592	0.082	0.101
-566.602	89.048	-0.221	0.250
-565.588	377.393	-0.028	-0.059
-564.573	193.342	0.072	-0.111
-563.558	-18.815	0.366	-0.232
-562.544	245.113	-0.182	-0.311
-561.529	800.000	-0.091	-0.265
-560.515	-88.198	0.064	-0.019
-559.500	83.098	0.283	0.313
-558.485	58.960	-0.067	0.067
-557.471	-200.000	-0.007	-0.408
-556.456	68.165	0.142	-0.148
-555.442	-83.029	-0.275	0.090
-554.427	60.412	0.053	0.053
-553.412	800.000	-0.033	-0.115
-552.398	45.366	0.347	-0.325
-551.383	-139.690	0.378	-0.041
-550.369	-107.726	-0.286	-0.063
-549.354	-177.889	-0.484	0.012
-548.339	-73.187	-0.245	-0.091
-547.325	543.146	0.105	-0.255
-546.310	569.561	-0.051	-0.125
-545.296	-51.924	-0.106	-0.050
-544.281	-14.374	0.220	0.144
-543.266	-77.930	0.199	-0.070
-542.252	-92.219	-0.214	0.061
-541.237	-2.786	-0.025	-0.018
-540.223	-14.148	-0.049	0.032
-539.208	-78.116	-0.124	-0.043
-538.193	190.984	-0.012	0.019
-537.179	-200.000	0.007	-0.227
-536.164	61.269	0.104	-0.105
-535.150	25.444	-0.176	-0.149
-534.135	800.000	0.145	-0.430
-533.121	104.620	0.118	-0.142
-532.106	346.432	0.202	-0.404
-531.091	-111.333	-0.147	0.030
-530.077	-90.321	0.127	-0.037
-529.062	-22.997	-0.105	-0.064
-528.048	-200.000	0.010	-0.096
-527.033	94.740	0.007	0.008
-526.018	66.493	-0.183	0.189
-525.004	87.557	-0.219	0.247
-523.989	211.143	0.035	-0.056
-522.975	800.000	0.021	0.091
-521.960	117.932	0.080	-0.100
-520.945	794.644	-0.144	-0.403
-519.931	800.000	0.123	-0.390
-518.916	-38.434	0.190	-0.102
-517.902	-157.905	0.063	0.004
-516.887	333.350	-0.168	-0.330
-515.872	-132.119	-0.255	0.034
-514.858	800.000	-0.070	0.205
-513.843	525.813	-0.111	0.265
-512.829	800.000	-0.043	-0.183
-511.814	-200.000	0.055	-0.285
-510.799	151.652	0.220	-0.305
-509.785	9.102	0.099	0.076
-508.770	396.553	-0.113	-0.241
-507.756	-47.507	0.115	0.057
-506.741	-200.000	-0.018	0.123
-505.726	-134.311	0.173	-0.022
-504.712	169.201	-0.217	-0.315
-503.697	-200.000	0.061	0.336
-502.683	-200.000	0.026	0.221
-501.668	20.797	-0.281	-0.231
-500.653	11.278	-0.119	0.093
-499.639	-145.654	0.303	-0.027
-498.624	0.948	0.206	0.150
-497.610	582.760	0.092	-0.230
-496.595	-49.161	0.284	-0.138
-495.581	800.000	-0.046	0.201
-494.566	-200.000	0.010	-0.082
-493.551	-42.753	-0.158	-0.081
-492.537	-137.484	-0.227	0.026
-491.522	-113.865	-0.238	-0.047
-490.508	404.210	-0.101	-0.216
-489.493	196.059	-0.053	0.081
-488.478	-69.391	-0.095	0.037
-487.464	315.593	0.084	0.161
-486.449	-28.158	0.123	0.072
-485.435	102.353	0.051	-0.061
-484.420	-55.522	0.180	-0.082
-483.405	-140.744	-0.235	0.025
-482.391	248.414	-0.260	0.447
-481.376	11.164	0.135	0.105
-480.362	-140.573	0.355	0.037
-479.347	87.484	0.074	-0.083
-478.332	-200.000	-0.002	-0.134
-477.318	800.000	0.021	-0.069
-476.303	-200.000	-0.063	-0.359
-475.289	623.605	0.065	0.166
-474.274	-200.000	-0.020	0.174
-473.259	-2.963	-0.158	0.112
-472.245	378.413	-0.091	0.190
-471.230	800.000	0.010	-0.028
-470.216	-1.109	-0.293	0.210
-469.201	8.829	0.164	-0.125
-468.186	-2.884	-0.333	-0.236
-467.172	-82.200	0.066	-0.022
-466.157	173.422	-0.197	0.289
-465.143	150.500	0.319	0.440
-464.128	800.000	0.067	0.214
-463.113	-200.000	-0.036	-0.250
-462.099	-70.263	-0.194	0.075
-461.084	181.066	-0.115	0.172
-460.070	353.856	-0.083	0.167
-459.055	-66.861	0.073	-0.029
-458.040	63.253	0.205	0.208
-457.026	125.248	0.123	0.157
-456.011	282.253	0.049	-0.090
-454.997	123.447	-0.090	0.115
-453.982	-148.941	-0.322	0.026
-452.968	800.000	0.046	-0.198
-451.953	-28.334	-0.191	-0.112
-450.938	320.381	0.104	-0.200
-449.924	99.307	0.173	-0.203
-448.909	61.674	0.176	0.177
-447.895	29.071	0.044	0.038
-446.880	-113.959	0.195	-0.038
-445.865	-125.641	-0.455	0.070
-444.851	-75.678	-0.349	0.126
-443.836	-200.000	0.003	0.145
-442.822	-200.000	-0.112	-0.507
-441.807	-147.923	-0.240	0.020
-440.792	66.447	0.067	-0.069
-439.778	9.214	-0.206	-0.158
-438.763	-105.613	0.206	-0.047
-437.749	180.660	0.188	0.280
-436.734	299.460	0.114	0.213
-435.719	-44.646	-0.143	-0.072
-434.705	800.000	-0.094	-0.378
-433.690	22.634	0.084	0.070
-432.676	-200.000	0.026	-0.143
-431.661	78.255	0.138	0.149
-430.646	-106.090	0.140	-0.032
-429.632	800.000	-0.084	-0.264
-428.617	-34.487	0.174	-0.097
-427.603	47.885	0.059	0.055
-426.588	549.743	-0.105	-0.254
-425.573	-77.260	0.135	-0.047
-424.559	-200.000	0.058	0.269
-423.544	-133.220	-0.186	0.024
-422.530	-16.979	0.147	0.094
-421.515	222.569	-0.100	-0.163
-420.500	476.667	0.081	0.185
-419.486	-143.578	-0.073	0.007
-418.471	-50.737	0.142	-0.068
-417.457	92.831	-0.200	0.229
-416.442	461.960	0.088	0.198
-415.428	800.000	0.075	0.221
-414.413	-117.520	0.244	0.045
-413.398	33.324	-0.198	-0.174
-412.384	800.000	-0.071	0.243
-411.369	-200.000	0.009	0.449
-410.355	-99.094	-0.449	0.115
-409.340	-148.332	-0.278	-0.023
-408.325	-200.000	-0.016	0.078
-407.311	-200.000	-0.016	-0.268
-406.296	-59.416	-0.307	-0.134
-405.282	23.757	0.096	0.080
-404.267	463.342	0.102	-0.231
-403.252	-200.000	0.004	-0.118
-402.238	380.591	-0.024	0.051
-401.223	561.472	0.111	0.273
-400.209	-53.431	0.140	-0.065
-399.194	-120.540	0.270	0.046
-398.179	784.428	-0.063	0.175
-397.165	-17.891	-0.080	-0.051
-396.150	-32.167	-0.159	0.090
-395.136	54.906	-0.046	0.045
-394.121	80.987	-0.227	-0.248
-393.106	-200.000	0.004	0.159
-392.092	-91.897	-0.329	0.094
-391.077	38.121	0.070	0.063
-390.063	35.913	-0.034	0.030
-389.048	-200.000	0.065	-0.342
-388.033	52.847	-0.147	-0.142
-387.019	110.833	-0.177	0.215
-386.004	393.766	-0.106	0.223
-384.990	270.409	-0.109	0.194
-383.975	354.520	0.027	0.055
-382.960	-104.342	0.658	-0.154
-381.946	-81.136	0.321	0.107
-380.931	-43.110	-0.208	-0.107
-379.917	-70.815	0.285	0.109
-378.902	16.740	0.056	-0.045
-377.888	800.000	-0.025	0.105
-376.873	192.761	0.198	-0.303
-375.858	-95.400	-0.148	0.040
-374.844	-200.000	0.040	-0.198
-373.829	800.000	0.053	-0.232
-372.815	84.292	0.144	-0.160
-371.800	-24.762	0.203	-0.122
-370.785	266.283	0.079	0.139
-369.771	180.016	0.121	0.179
-368.756	-176.043	-0.190	-0.005
-367.742	161.016	-0.274	-0.387
-366.727	58.427	-0.090	0.089
-365.712	-45.180	-0.039	0.019
-364.698	-78.213	-0.089	-0.031
-363.683	57.480	0.151	0.149
-362.669	-20.255	-0.016	-0.010
-361.654	-200.000	-0.026	-0.131
-360.639	-23.518	0.216	-0.131
-359.625	-136.859	-0.214	-0.025
-358.610	-111.288	-0.082	0.017
-357.596	-111.977	0.155	0.031
-356.581	98.862	-0.023	0.027
-355.566	137.780	-0.092	0.122
-354.552	-200.000	0.026	0.171
-353.537	800.000	0.010	-0.028
-352.523	-200.000	0.007	0.228
-351.508	-200.000	0.021	0.172
-350.493	-200.000	0.065	0.316
-349.479	-99.616	-0.141	0.036
-348.464	-3.108	-0.182	-0.128
-347.450	-183.274	-0.154	-0.003
-346.435	-200.000	-0.070	-0.495
-345.420	533.527	-0.057	-0.136
-344.406	-150.328	0.164	-0.013
-343.391	125.753	-0.221	0.282
-342.377	-21.958	-0.212	0.130
-341.362	54.032	0.168	0.163
-340.348	-84.001	0.337	0.108
-339.333	-52.258	0.082	0.038
-338.318	51.301	0.104	0.100
-337.304	137.973	-0.146	0.193
-336.289	-200.000	0.018	0.144
-335.275	-200.000	-0.000	-0.193
-334.260	61.148	-0.049	0.049
-333.245	-91.947	0.003	-0.001
-332.231	-109.392	-0.246	-0.052
-331.216	-61.874	-0.220	-0.093
-330.202	22.292	-0.123	-0.101
-329.187	-37.764	-0.245	0.131
-328.172	144.330	0.207	0.278
-327.158	392.462	0.106	-0.222
-326.143	-88.695	-0.090	0.027
-325.129	-200.000	0.014	-0.196
-324.114	-40.437	0.232	0.122
-323.099	69.806	0.036	0.037
-322.085	-200.000	-0.009	0.121
-321.070	166.094	0.190	0.271
-320.056	481.283	0.126	-0.288
-319.041	-72.512	-0.137	-0.051
-318.026	365.914	-0.060	-0.123
-317.012	-71.095	-0.143	0.054
-315.997	27.623	0.207	0.176
-314.983	800.000	-0.070	-0.232
-313.968	101.887	0.194	-0.228
-312.953	209.440	-0.250	0.395
-311.939	324.546	0.205	0.394
-310.924	68.433	0.086	-0.089
-309.910	-99.264	-0.326	-0.083
-308.895	48.330	0.269	0.254
-307.880	800.000	-0.032	0.133
-306.866	140.402	-0.096	0.127
-305.851	213.856	-0.055	0.087
-304.837	59.016	0.337	0.334
-303.822	264.095	0.088	0.154
-302.807	185.806	-0.158	-0.236
-301.793	43.905	-0.213	0.197
-300.778	-15.883	-0.350	-0.225
-299.764	323.606	-0.085	-0.164
-298.749	29.642	0.073	-0.063
-297.735	32.417	-0.320	0.279
-296.720	100.830	0.325	-0.381
-295.705	-88.214	0.092	0.028
-294.691	292.597	-0.060	0.111
-293.676	74.732	0.188	-0.199
-292.662	-112.130	-0.197	0.040
-291.647	119.021	-0.268	-0.333
-290.632	333.435	-0.045	-0.087
-289.618	47.388	-0.182	0.171
-288.603	59.275	-0.102	0.101
-287.589	-200.000	-0.004	-0.035
-286.574	-200.000	-0.014	0.257
-285.559	-200.000	-0.008	-0.105
-284.545	-80.190	0.151	0.051
-283.530	-200.000	0.004	0.257
-282.516	-200.000	-0.001	0.260
-281.501	59.496	0.218	-0.217
-280.486	-200.000	-0.029	0.130
-279.472	-91.176	0.034	0.010
-278.457	166.923	-0.024	-0.035
-277.443	-200.000	0.039	0.298
-276.428	-89.337	-0.111	0.033
-275.413	-39.644	-0.049	-0.026
-274.399	241.126	-0.092	0.155
-273.384	-196.233	-0.177	-0.001
-272.370	58.185	0.169	0.166
-271.355	-200.000	-0.019	-0.249
-270.340	-89.095	0.227	0.067
-269.326	20.483	-0.132	-0.107
-268.311	-193.602	-0.145	-0.001
-267.297	800.000	0.026	0.111
-266.282	206.689	-0.188	0.294
-265.267	-54.999	-0.326	0.148
-264.253	800.000	-0.059	-0.215
-263.238	105.781	0.124	0.148
-262.224	315.611	0.076	0.144
-261.209	-66.854	0.240	0.096
-260.195	262.799	-0.213	-0.372
-259.180	53.558	0.101	-0.098
-258.165	561.282	0.081	0.198
-257.151	99.681	0.135	-0.157
-256.136	800.000	-0.052	0.217
-255.122	-28.493	-0.150	-0.087
-254.107	244.987	0.105	0.178
-253.092	-200.000	-0.029	-0.266
-252.078	-102.547	0.191	-0.046
-251.063	800.000	-0.069	0.236
-250.049	-45.754	0.258	-0.128
-249.034	-74.448	-0.429	0.156
-248.019	-200.000	0.018	-0.116
-247.005	-142.687	-0.336	0.033
-245.990	800.000	0.106	0.376
-244.976	640.457	0.078	-0.199
-243.961	-53.690	0.197	-0.090
-242.946	-200.000	0.034	-0.382
-241.932	800.000	0.067	-0.208
-240.917	-155.575	-0.304	0.020
-239.903	167.976	-0.263	-0.376
-238.888	26.937	0.112	-0.094
-237.873	-41.728	0.110	-0.057
-236.859	-111.406	0.323	0.066
-235.844	-200.000	0.030	0.322
-234.830	-57.724	0.133	-0.058
-233.815	-200.000	0.048	-0.249
-232.800	69.482	0.031	-0.032
-231.786	296.824	-0.125	-0.231
-230.771	-200.000	-0.009	-0.197
-229.757	800.000	-0.090	-0.259
-228.742	158.529	-0.132	0.184
-227.727	22.666	-0.056	-0.046
-226.713	15.622	0.019	-0.015
-225.698	-111.111	-0.259	-0.053
-224.684	21.274	-0.133	0.109
-223.669	735.787	0.057	0.153
-222.655	634.958	0.045	-0.114
-221.640	-105.834	-0.178	-0.040
-220.625	-63.934	0.108	0.045
-219.611	64.549	-0.097	-0.099
-218.596	68.944	0.062	-0.064
-217.582	110.420	-0.114	0.138
-216.567	385.702	-0.052	-0.107
-215.552	-109.547	-0.276	0.059
-214.538	-22.086	0.277	-0.169
-213.523	-200.000	-0.005	0.221
-212.509	12.256	0.262	0.202
-211.494	-27.645	0.062	-0.036
-210.479	-200.000	0.009	0.134
-209.465	515.253	0.079	0.184
-208.450	-149.871	0.535	0.042
-207.436	74.552	0.142	0.150
-206.421	35.598	0.289	0.255
-205.406	-7.173	-0.109	0.074
-204.392	-1.629	0.121	0.086
-203.377	-18.257	-0.288	-0.181
-202.363	-200.000	-0.042	0.325
-201.348	245.666	0.118	0.199
-200.333	50.478	0.238	0.226
-199.319	-107.143	0.369	-0.082
-198.304	497.522	-0.102	-0.235
-197.290	-23.034	0.149	-0.090
-196.275	-200.000	-0.031	0.138
-195.260	99.571	0.263	0.305
-194.246	-118.380	0.079	-0.014
-193.231	-88.535	0.032	0.010
-192.217	155.361	-0.098	0.136
-191.202	-120.173	-0.270	0.046
-190.187	-18.692	0.246	0.154
-189.173	-17.451	0.128	0.081
-188.158	800.000	-0.044	0.137
-187.144	127.761	0.180	-0.230
-186.129	-100.077	-0.312	0.078
-185.114	800.000	0.057	0.225
-184.100	-200.000	-0.008	-0.203
-183.085	-200.000	-0.050	-0.344
-182.071	9.513	-0.040	-0.030
-181.056	-200.000	-0.009	0.361
-180.042	800.000	0.059	0.173
-179.027	216.409	0.177	0.283
-178.012	26.549	-0.297	0.249
-176.998	133.907	-0.163	0.212
-175.983	123.414	0.119	0.150
-174.969	-200.000	-0.007	0.180
-173.954	48.213	-0.140	-0.132
-172.939	56.511	0.177	-0.172
-171.925	-200.000	-0.018	-0.455
-170.910	-85.456	-0.167	-0.052
-169.896	-195.450	0.194	0.001
-168.881	433.374	0.049	-0.107
-167.866	-39.629	0.106	0.056
-166.852	378.121	-0.136	-0.279
-165.837	-138.596	-0.275	0.030
-164.823	16.165	-0.152	0.120
-163.808	-200.000	-0.025	0.182
-162.793	-14.418	0.059	-0.038
-161.779	248.226	0.044	-0.075
-160.764	143.951	-0.093	-0.125
-159.750	-200.000	0.022	-0.361
-158.735	800.000	-0.095	-0.271
-157.720	-134.206	0.224	0.028
-156.706	449.837	0.147	-0.325
-155.691	-159.934	-0.167	0.009
-154.677	-91.171	-0.105	-0.030
-153.662	-98.868	0.129	-0.033
-152.647	800.000	0.043	-0.151
-151.633	-92.960	0.375	-0.105
-150.618	94.438	0.065	-0.074
-149.604	450.619	0.039	-0.087
-148.589	199.011	-0.192	0.295
-147.574	-194.786	-0.139	-0.001
-146.560	250.886	-0.145	-0.247
-145.545	800.000	0.079	-0.267
-144.531	500.484	0.166	-0.384
-143.516	-47.474	0.449	0.219
-142.502	197.814	-0.047	0.071
-141.487	110.824	-0.284	-0.342
-140.472	-10.461	0.299	-0.199
-139.458	29.019	-0.108	0.092
-138.443	361.067	-0.119	-0.238
-137.429	-28.327	-0.006	0.004
-136.414	-171.240	-0.227	0.008
-135.399	-45.417	0.323	-0.160
-134.385	142.566	-0.267	-0.355
-133.370	-109.155	0.285	-0.061
-132.356	603.869	0.072	0.179
-131.341	115.474	0.077	0.095
-130.326	504.621	0.067	-0.154
-129.312	800.000	-0.057	0.181
-128.297	-200.000	-0.013	0.405
-127.283	314.847	0.129	0.244
-126.268	-42.558	0.187	-0.095
-125.253	-121.001	0.303	-0.051
-124.239	-38.180	-0.198	0.105
-123.224	-200.000	0.002	0.095
-122.210	395.075	-0.134	0.280
-121.195	-98.919	-0.052	0.013
-120.180	-62.785	-0.483	-0.200
-119.166	-77.075	-0.312	0.109
-118.151	-200.000	0.005	-0.276
-117.137	40.320	0.127	-0.115
-116.122	220.352	0.058	-0.093
-115.107	-200.000	-0.002	-0.216
-114.093	-137.976	-0.329	0.037
-113.078	584.814	-0.033	0.081
-112.064	-200.000	-0.037	-0.175
-111.049	-200.000	-0.062	-0.389
-110.034	-136.780	-0.343	0.039
-109.020	-45.301	0.077	0.038
-108.005	-54.890	-0.388	0.175
-106.991	-136.217	-0.237	-0.028
-105.976	113.097	0.090	0.109
-104.962	800.000	0.100	-0.390
-103.947	-92.216	0.259	0.073
-102.932	800.000	-0.044	-0.180
-101.918	5.394	0.079	-0.059
-100.903	-163.080	-0.329	-0.016
-99.889	-200.000	-0.076	-0.497
-98.874	-14.854	-0.159	-0.102
-97.859	-33.396	0.104	0.057
-96.845	-84.818	0.217	-0.068
-95.830	111.912	-0.165	0.200
-94.816	800.000	-0.116	0.320
-93.801	6.385	0.184	0.136
-92.786	-88.175	0.275	-0.082
-91.772	71.429	-0.269	-0.279
-90.757	263.813	0.168	0.292
-89.743	-165.986	0.095	-0.004
-88.728	-200.000	-0.042	-0.194
-87.713	28.452	-0.021	0.018
-86.699	-133.877	-0.389	-0.048
-85.684	678.344	-0.048	0.124
-84.670	101.402	-0.082	0.095
-83.655	-200.000	0.066	0.353
-82.640	-165.256	0.201	0.009
-81.626	235.163	0.057	0.094
-80.611	-58.088	0.162	0.071
-79.597	-131.217	-0.205	-0.027
-78.582	164.834	0.228	-0.322
-77.567	-67.436	-0.251	0.098
-76.553	195.553	0.061	0.093
-75.538	800.000	0.083	0.268
-74.524	-175.591	-0.234	0.006
-73.509	106.719	0.195	-0.231
-72.494	46.648	-0.099	-0.092
-71.480	105.636	0.126	0.149
-70.465	704.352	-0.035	-0.091
-69.451	-55.224	-0.286	0.128
-68.436	-106.851	0.124	-0.027
-67.422	-200.000	0.023	-0.286
-66.407	493.432	0.093	0.213
-65.392	-193.852	-0.170	0.001
-64.378	-64.662	-0.203	0.082
-63.363	120.603	-0.131	0.163
-62.349	-71.887	0.043	0.016
-61.334	181.993	-0.585	-0.861
-60.319	22.420	0.320	0.261
-59.305	-200.000	0.030	-0.696
-58.290	372.346	0.291	0.590
-57.276	373.748	0.742	1.506
-56.261	-200.000	73.897	528.398
-55.246	572.640	1297.903	3157.055
-54.232	145.162	2528.382	3376.638
-53.217	114.306	2347.612	2852.485
-52.203	52.751	1962.515	1872.141
-51.188	46.570	1748.889	1619.896
-50.173	43.455	1701.332	1551.906
-49.159	57.308	1733.866	1688.919
-48.144	63.334	1752.446	1753.476
-47.130	46.248	1716.784	1587.418
-46.115	42.978	1702.749	1549.280
-45.100	42.812	1698.406	1543.996
-44.086	42.853	1695.406	1541.523
-43.071	42.632	1693.300	1537.854
-42.057	42.802	1690.093	1536.175
-41.042	42.694	1689.059	1534.351
-40.027	42.719	1687.020	1532.629
-39.013	42.730	1684.616	1530.470
-37.998	42.657	1682.891	1528.289
-36.984	42.761	1681.241	1527.519
-35.969	42.911	1680.447	1527.870
-34.954	42.945	1678.783	1526.561
-33.940	42.952	1676.515	1524.487
-32.925	42.913	1674.788	1522.559
-31.911	42.887	1673.379	1521.024
-30.896	42.908	1671.192	1519.133
-29.881	42.882	1669.450	1517.291
-28.867	43.006	1667.021	1515.963
-27.852	42.824	1666.565	1514.114
-26.838	42.875	1665.083	1513.091
-25.823	42.907	1663.815	1512.124
-24.809	42.985	1662.142	1511.128
-23.794	42.824	1661.255	1509.052
-22.779	42.938	1659.017	1507.812
-21.765	42.932	1656.932	1505.813
-20.750	42.998	1655.491	1504.938
-19.736	42.926	1654.495	1503.433
-18.721	43.007	1652.587	1502.245
-17.706	42.878	1651.090	1499.866
-16.692	42.918	1649.439	1498.598
-15.677	42.928	1648.170	1497.462
-14.663	42.986	1646.294	1496.133
-13.648	42.961	1645.268	1494.952
-12.633	42.908	1643.912	1493.268
-11.619	43.037	1642.006	1492.433
-10.604	42.971	1640.329	1490.363
-9.590	42.881	1639.437	1488.827
-8.575	42.951	1637.883	1487.875
-7.560	42.927	1636.992	1486.826
-6.546	42.979	1635.385	1485.696
-5.531	42.984	1634.093	1484.501
-4.517	42.912	1633.091	1483.000
-3.502	42.992	1632.110	1482.636
-2.487	43.015	1630.465	1481.252
-1.473	43.035	1619.384	1471.275
-0.458	40.813	1599.062	1436.707
0.556	35.999	1597.760	1401.508
1.571	33.124	1620.858	1400.379
2.586	32.219	1635.812	1406.405
3.600	28.413	1582.255	1332.629
4.615	15.570	1460.471	1143.140
5.629	3.475	1382.684	1003.818
6.644	1.091	1372.341	980.804
7.659	0.909	1370.542	978.254
8.673	0.918	1369.519	977.494
9.688	0.843	1368.091	975.905
10.702	0.563	1365.447	972.134
11.717	4.718	1374.010	1005.023
12.731	16.368	1396.727	1097.657
13.746	24.145	1409.589	1158.460
14.761	24.605	1408.690	1160.604
15.775	24.561	1408.213	1159.825
16.790	24.667	1407.514	1159.832
17.804	24.661	1407.211	1159.440
18.819	24.959	1406.637	1160.803
19.834	25.013	1405.755	1160.321
20.848	24.947	1405.111	1159.258
21.863	24.968	1404.506	1158.795
22.877	24.999	1403.331	1157.918
23.892	24.972	1402.378	1156.855
24.907	24.961	1401.424	1155.896
25.921	24.804	1401.193	1154.590
26.936	25.046	1399.452	1154.617
27.950	24.906	1398.540	1152.856
28.965	24.937	1397.397	1152.015
29.980	24.996	1396.057	1151.187
30.994	24.922	1394.728	1149.515
32.009	24.946	1393.846	1148.839
33.023	24.893	1392.619	1147.386
34.038	24.919	1391.510	1146.534
35.053	24.950	1390.590	1145.877
36.067	24.904	1389.363	1144.472
37.082	24.916	1388.388	1143.639
38.096	24.922	1387.490	1142.842
39.111	25.038	1386.499	1142.663
40.126	24.877	1386.143	1141.238
41.140	24.896	1385.737	1140.923
42.155	24.844	1385.704	1140.464
43.169	24.825	1385.730	1140.268
44.184	24.965	1385.201	1140.622
45.199	24.816	1384.873	1139.304
46.213	24.911	1384.139	1139.198
47.228	24.881	1383.326	1138.242
48.242	24.869	1381.786	1136.796
49.257	24.923	1380.351	1135.855
50.271	24.992	1378.403	1134.590
51.286	24.949	1377.201	1133.228
52.301	24.912	1376.267	1132.129
53.315	24.937	1374.975	1131.123
54.330	24.938	1374.569	1130.693
55.344	24.960	1373.556	1129.898
56.359	24.957	1372.238	1128.698
57.374	24.871	1371.669	1127.588
58.388	24.853	1370.638	1126.529
59.403	24.885	1370.697	1126.676
60.417	24.964	1369.673	1126.235
61.432	24.882	1368.994	1125.059
62.447	24.957	1367.898	1124.532
63.461	24.968	1366.811	1123.604
64.476	24.960	1366.423	1123.139
65.490	24.977	1364.787	1121.799
66.505	24.993	1363.239	1120.531
67.520	24.952	1362.149	1119.275
68.534	24.907	1360.997	1117.951
69.549	24.864	1360.234	1116.956
70.563	24.995	1359.198	1116.822
71.578	24.991	1358.508	1116.131
72.593	24.906	1357.478	1114.658
73.607	25.138	1356.149	1114.912
74.622	24.954	1355.925	1113.485
75.636	24.935	1355.279	1112.738
76.651	24.924	1354.807	1112.180
77.666	24.909	1353.941	1111.283
78.680	24.937	1353.792	1111.230
79.695	25.022	1352.468	1110.573
80.709	24.883	1352.302	1109.476
81.724	25.031	1350.537	1108.850
82.739	25.051	1349.766	1108.241
83.753	24.887	1348.938	1106.451
84.768	24.991	1347.390	1105.723
85.782	24.948	1346.962	1105.008
86.797	24.989	1345.799	1104.213
87.812	25.040	1344.407	1103.288
88.826	24.957	1343.482	1101.917
89.841	25.037	1342.035	1101.123
90.855	24.940	1341.610	1100.085
91.870	25.026	1340.592	1099.676
92.884	24.984	1339.741	1098.626
93.899	24.998	1338.923	1097.943
94.914	24.894	1338.319	1096.715
95.928	24.923	1337.505	1096.127
96.943	24.944	1336.967	1095.716
97.957	25.026	1336.184	1095.482
98.972	24.975	1335.250	1094.306
99.987	24.887	1334.562	1093.107
101.001	24.899	1333.408	1092.137
102.016	24.957	1332.458	1091.616
103.030	25.009	1331.114	1090.737
104.045	25.010	1330.411	1090.069
105.060	25.061	1329.313	1089.386
106.074	24.988	1328.516	1088.194
107.089	24.991	1327.298	1087.114
108.103	24.995	1326.348	1086.267
109.118	25.063	1325.108	1085.566
110.133	25.080	1323.940	1084.618
111.147	25.027	1322.898	1083.346
112.162	25.062	1321.709	1082.490
113.176	25.140	1320.864	1082.168
114.191	25.143	1319.546	1081.014
115.206	24.995	1319.387	1079.894
116.220	25.064	1317.614	1078.765
117.235	25.067	1316.937	1078.134
118.249	24.971	1316.053	1076.734
119.264	25.016	1315.356	1076.343
120.279	25.048	1314.255	1075.537
121.293	25.110	1313.499	1075.196
122.308	25.154	1312.552	1074.592
123.322	25.119	1311.673	1073.567
124.337	25.255	1310.448	1073.282
125.352	25.118	1310.189	1072.153
126.366	25.185	1309.256	1071.698
127.381	25.085	1308.236	1070.171
128.395	25.093	1307.633	1069.630
129.410	25.082	1306.772	1068.765
130.424	25.081	1306.303	1068.283
131.439	25.085	1305.134	1067.252
132.454	25.138	1304.356	1066.837
133.468	25.106	1303.591	1065.926
134.483	25.117	1302.886	1065.322
135.497	25.180	1301.762	1064.683
136.512	25.157	1301.158	1063.960
137.527	25.089	1300.228	1062.698
138.541	25.052	1298.807	1061.223
139.556	25.116	1297.503	1060.447
140.570	25.053	1296.920	1059.503
141.585	25.195	1295.432	1059.033
142.600	25.000	1294.619	1057.122
143.614	25.116	1293.553	1056.841
144.629	25.124	1292.428	1055.877
145.643	25.021	1291.399	1054.338
146.658	25.086	1290.268	1053.704
147.673	25.050	1289.208	1052.535
148.687	25.069	1288.167	1051.703
149.702	24.918	1287.513	1050.190
150.716	25.001	1285.920	1049.282
151.731	24.991	1284.944	1048.335
152.746	24.971	1284.006	1047.359
153.760	25.060	1282.711	1046.727
154.775	25.070	1282.026	1046.135
155.789	25.214	1280.560	1045.689
156.804	25.107	1280.038	1044.543
157.819	25.039	1279.353	1043.497
158.833	24.993	1278.500	1042.442
159.848	25.182	1277.302	1042.473
160.862	25.139	1276.811	1041.729
161.877	25.101	1275.752	1040.550
162.892	25.179	1275.183	1040.446
163.906	25.163	1274.497	1039.703
164.921	25.161	1273.587	1038.860
165.935	25.204	1273.168	1038.675
166.950	25.114	1272.751	1037.723
167.964	25.225	1271.461	1037.219
168.979	25.196	1271.457	1036.953
169.994	25.136	1270.708	1035.905
171.008	25.149	1269.725	1035.089
172.023	25.252	1269.405	1035.333
173.037	25.153	1268.690	1034.086
174.052	25.285	1268.029	1034.214
175.067	25.260	1266.880	1033.043
176.081	25.058	1266.414	1031.407
177.096	25.242	1265.668	1031.768
178.110	25.192	1264.564	1030.488
179.125	25.224	1263.546	1029.755
180.140	25.371	1262.144	1029.360
181.154	25.222	1261.541	1027.923
182.169	25.174	1260.687	1026.863
183.183	25.165	1259.522	1025.775
184.198	25.160	1258.366	1024.713
185.213	25.253	1257.605	1024.529
186.227	25.284	1256.396	1023.636
187.242	25.343	1255.617	1023.246
188.256	25.290	1254.848	1022.225
189.271	25.237	1253.966	1021.115
190.286	25.303	1253.245	1020.815
191.300	25.272	1252.615	1020.034
192.315	25.312	1252.264	1019.883
193.329	25.279	1251.676	1019.125
194.344	25.363	1251.174	1019.103
195.359	25.265	1251.299	1018.559
196.373	25.213	1250.388	1017.434
197.388	25.193	1250.311	1017.168
198.402	25.124	1250.118	1016.528
199.417	25.316	1249.352	1016.902
200.432	25.300	1248.478	1016.010
201.446	25.318	1247.845	1015.509
202.461	25.250	1247.230	1014.532
203.475	25.297	1246.660	1014.250
204.490	25.265	1245.248	1012.827
205.504	25.361	1244.203	1012.427
206.519	25.476	1243.483	1012.403
207.534	25.414	1242.456	1011.126
208.548	25.366	1241.520	1010.007
209.563	25.281	1240.808	1008.859
210.577	25.306	1240.164	1008.388
211.592	25.433	1238.870	1007.957
212.607	25.393	1238.609	1007.430
213.621	25.541	1237.316	1007.123
214.636	25.301	1236.914	1005.359
215.650	25.323	1235.974	1004.630
216.665	25.452	1234.891	1004.383
217.680	25.390	1233.955	1003.185
218.694	25.442	1233.388	1002.929
219.709	25.426	1232.398	1001.942
220.723	25.361	1232.018	1001.184
221.738	25.329	1231.285	1000.324
222.753	25.328	1230.606	999.674
223.767	25.343	1229.919	999.113
224.782	25.582	1228.989	999.598
225.796	25.536	1228.649	998.974
226.811	25.510	1227.918	998.151
227.826	25.567	1227.240	997.823
228.840	25.507	1226.689	996.959
229.855	25.455	1226.318	996.281
230.869	25.483	1225.537	995.714
231.884	25.474	1225.010	995.145
232.899	25.485	1223.825	994.153
233.913	25.391	1224.121	993.789
234.928	25.503	1223.285	993.641
235.942	25.677	1221.767	993.279
236.957	25.650	1221.507	992.832
237.972	25.476	1221.114	991.463
238.986	25.590	1220.135	991.213
240.001	25.573	1219.692	990.670
241.015	25.589	1218.946	990.064
242.030	25.661	1218.046	989.642
243.045	25.649	1217.554	989.088
244.059	25.664	1216.324	988.084
245.074	25.607	1216.069	987.477
246.088	25.661	1215.372	987.117
247.103	25.641	1214.265	986.021
248.117	25.714	1213.694	985.874
249.132	25.674	1212.645	984.712
250.147	25.793	1211.572	984.403
251.161	25.763	1211.237	983.884
252.176	25.689	1210.717	982.971
253.190	25.744	1209.861	982.489
254.205	25.811	1208.956	982.030
255.220	25.870	1208.419	981.828
256.234	25.790	1208.118	981.062
257.249	25.735	1207.947	980.535
258.263	25.826	1207.137	980.285
259.278	25.702	1206.619	979.105
260.293	25.755	1205.844	978.677
261.307	25.674	1205.423	977.809
262.322	25.985	1204.665	978.797
263.336	25.929	1204.005	977.871
264.351	25.822	1203.699	976.953
265.366	25.840	1202.701	976.156
266.380	25.835	1202.065	975.528
267.395	25.766	1202.166	975.146
268.409	25.767	1200.924	974.060
269.424	25.779	1200.529	973.717
270.439	25.874	1200.123	973.815
271.453	25.893	1199.021	972.936
272.468	25.819	1198.198	971.786
273.482	25.938	1197.549	971.815
274.497	25.856	1197.125	970.944
275.512	25.901	1197.172	971.137
276.526	25.988	1195.835	970.436
277.541	25.993	1195.152	969.823
278.555	25.968	1194.259	968.874
279.570	25.989	1194.051	968.736
280.585	26.023	1192.998	967.978
281.599	25.918	1192.279	966.744
282.614	26.027	1190.925	966.144
283.628	25.916	1190.344	964.993
284.643	25.988	1189.656	964.734
285.657	26.072	1188.268	963.976
286.672	25.970	1187.682	962.870
287.687	26.073	1186.852	962.663
288.701	26.062	1186.429	962.172
289.716	26.058	1185.705	961.481
290.730	25.965	1184.967	960.300
291.745	26.112	1184.480	960.607
292.760	26.062	1183.844	959.739
293.774	26.090	1183.455	959.487
294.789	26.062	1182.995	958.877
295.803	26.105	1182.491	958.613
296.818	26.071	1181.824	957.810
297.833	26.126	1180.863	957.236
298.847	26.154	1180.263	956.811
299.862	26.087	1179.557	955.804
300.876	26.034	1179.081	955.049
301.891	26.198	1178.466	955.335
302.906	26.177	1177.739	954.552
303.920	26.170	1177.198	953.991
304.935	26.166	1176.439	953.272
305.949	26.157	1175.796	952.615
306.964	26.169	1175.080	952.019
307.979	26.211	1174.514	951.696
308.993	26.209	1173.747	950.977
310.008	26.220	1172.991	950.338
311.022	26.236	1172.320	949.794
312.037	26.127	1171.668	948.612
313.052	26.257	1170.854	948.552
314.066	26.172	1169.725	947.106
315.081	26.275	1169.084	947.046
316.095	26.203	1168.684	946.260
317.110	26.241	1167.976	945.800
318.125	26.296	1167.015	945.224
319.139	26.279	1166.870	944.937
320.154	26.320	1165.932	944.305
321.168	26.294	1165.531	943.765
322.183	26.346	1164.983	943.505
323.197	26.424	1164.104	943.118
324.212	26.334	1163.592	942.151
325.227	26.323	1163.633	942.045
326.241	26.468	1162.753	942.004
327.256	26.372	1162.080	940.877
328.270	26.362	1161.627	940.372
329.285	26.435	1160.240	939.546
330.300	26.331	1159.584	938.393
331.314	26.351	1158.913	937.869
332.329	26.536	1157.824	937.861
333.343	26.458	1156.995	936.707
334.358	26.530	1156.158	936.318
335.373	26.587	1155.580	936.064
336.387	26.477	1154.989	934.933
337.402	26.451	1154.399	934.238
338.416	26.543	1153.771	934.122
339.431	26.541	1153.279	933.628
340.446	26.600	1152.659	933.348
341.460	26.539	1152.094	932.497
342.475	26.571	1151.310	931.941
343.489	26.606	1150.183	931.126
344.504	26.622	1149.225	930.351
345.519	26.648	1148.249	929.612
346.533	26.584	1147.590	928.668
347.548	26.645	1147.116	928.518
348.562	26.651	1146.806	928.213
349.577	26.635	1145.610	927.081
350.592	26.557	1144.575	925.761
351.606	26.561	1143.854	925.121
352.621	26.602	1143.874	925.264
353.635	26.614	1143.060	924.585
354.650	26.742	1142.345	924.576
355.665	26.670	1141.532	923.468
356.679	26.759	1141.006	923.415
357.694	26.751	1140.229	922.662
358.708	26.747	1139.688	922.122
359.723	26.769	1138.637	921.304
360.738	26.781	1138.067	920.823
361.752	26.849	1138.046	921.070
362.767	26.776	1137.402	920.097
363.781	26.837	1136.931	919.941
364.796	26.825	1136.159	919.176
365.810	26.883	1135.744	919.055
366.825	26.853	1135.050	918.260
367.840	26.906	1134.584	918.067
368.854	26.904	1133.974	917.482
369.869	26.904	1133.276	916.838
370.883	26.952	1132.436	916.320
371.898	26.944	1131.597	915.518
372.913	26.866	1131.242	914.756
373.927	26.858	1130.654	914.160
374.942	27.031	1129.558	914.065
375.956	26.971	1129.657	913.763
376.971	26.893	1129.229	912.944
377.986	27.047	1128.468	913.022
379.000	26.963	1127.997	912.134
380.015	26.991	1127.443	911.748
381.029	27.082	1126.944	911.720
382.044	27.110	1126.003	911.017
383.059	27.014	1125.467	910.023
384.073	27.117	1124.641	909.792
385.088	27.008	1124.043	908.683
386.102	27.090	1123.071	908.223
387.117	27.091	1122.067	907.339
388.132	27.018	1121.318	906.288
389.146	27.154	1120.460	906.193
390.161	27.061	1119.967	905.252
391.175	27.161	1119.120	904.984
392.190	27.167	1118.416	904.366
393.205	27.162	1117.817	903.775
394.219	27.049	1117.683	903.022
395.234	27.150	1116.173	902.227
396.248	27.210	1115.257	901.702
397.263	27.250	1114.548	901.247
398.278	27.143	1114.489	900.590
399.292	27.293	1113.786	900.688
400.307	27.330	1112.681	899.895
401.321	27.310	1112.309	899.418
402.336	27.241	1111.805	898.586
403.350	27.259	1111.148	898.067
404.365	27.375	1110.090	897.703
405.380	27.266	1109.934	896.962
406.394	27.295	1109.167	896.403
407.409	27.387	1108.049	895.874
408.423	27.417	1107.693	895.657
409.438	27.399	1107.006	894.934
410.453	27.338	1106.662	894.274
411.467	27.534	1105.454	894.183
412.482	27.407	1104.673	892.845
413.496	27.420	1103.874	892.188
414.511	27.402	1103.625	891.819
415.526	27.411	1102.981	891.263
416.540	27.461	1103.002	891.446
417.555	27.412	1102.051	890.357
418.569	27.329	1102.104	889.915
419.584	27.428	1101.265	889.642
420.599	27.618	1100.720	890.052
421.613	80.216	1285.345	1328.533
422.628	75.124	1312.251	1328.663
