DTS Sentinel unit serial number:	SN413079Multiplexer serial number:	ORYXHardware model number:	OX4-SRSoftware version number:	ORYX F/W v4.00 Oryx Data Collector v3.7.2.0data status	okinstallation	princeton_trtdifferential loss correction	single-endedforward channel	channel 2reverse channel	N/Adate	2019/09/14time	23:19:35forward acquisition time	60.00reverse acquisition time	0.00gamma	496.2192k internal	0.2324k external	0.2324temperature offset calibration	1.0055default loss term (dB/km)	0.3790temperature slope calibration	1.0000multiplexer offset coefficient	1.0000multiplexer slope coefficient	1.0000fibre end	0.00T internal ref (°C)	32.37T ext. ref 1 (°C)	4.65T ext. ref 2 (°C)	27.39length (m)	temperature (°C)	Stokes	anti-Stokes-747.200	110.964	-0.072	-0.088
-746.185	-200.000	-0.038	0.301
-745.171	360.684	0.069	-0.140
-744.156	550.111	0.106	-0.257
-743.142	711.853	0.083	0.222
-742.127	70.765	0.585	0.611
-741.112	800.000	0.040	0.122
-740.098	-87.367	-0.288	0.088
-739.083	236.036	-0.180	-0.301
-738.069	-50.222	-0.248	-0.118
-737.054	-157.489	0.335	0.020
-736.039	800.000	0.038	0.155
-735.025	-137.988	-0.166	-0.019
-734.010	550.853	-0.041	0.099
-732.996	-127.834	-0.454	-0.066
-731.981	-6.012	0.135	0.093
-730.966	800.000	0.011	0.032
-729.952	-200.000	-0.016	-0.089
-728.937	310.660	0.115	-0.218
-727.923	800.000	0.028	-0.097
-726.908	-52.173	0.124	-0.058
-725.894	800.000	-0.050	-0.152
-724.879	-8.345	0.028	-0.019
-723.864	-63.342	0.309	-0.128
-722.850	-149.503	0.104	-0.008
-721.835	391.682	0.053	-0.111
-720.821	-72.555	0.108	0.040
-719.806	199.000	-0.070	0.108
-718.791	-200.000	0.054	0.259
-717.777	42.258	0.076	-0.069
-716.762	800.000	-0.050	-0.155
-715.748	-159.052	-0.248	-0.014
-714.733	114.745	-0.186	0.229
-713.718	57.322	-0.173	0.171
-712.704	-34.833	-0.093	-0.051
-711.689	249.796	0.146	-0.250
-710.675	-109.975	0.195	-0.041
-709.660	-94.786	-0.443	-0.121
-708.645	13.777	-0.297	-0.232
-707.631	-144.818	-0.354	-0.033
-706.616	800.000	-0.084	0.330
-705.602	-188.088	0.225	0.003
-704.587	-118.499	0.200	-0.036
-703.572	-109.290	-0.160	0.034
-702.558	-200.000	-0.136	0.000
-701.543	89.568	-0.275	-0.309
-700.529	-104.462	-0.305	0.071
-699.514	-112.940	0.396	0.079
-698.499	-45.473	-0.199	-0.099
-697.485	420.991	-0.188	0.405
-696.470	-19.347	-0.110	0.069
-695.456	800.000	0.064	-0.275
-694.441	130.028	-0.062	0.080
-693.426	800.000	-0.072	0.229
-692.412	-200.000	-0.040	-0.229
-691.397	172.549	0.134	0.194
-690.383	-159.186	-0.142	-0.008
-689.368	36.718	0.098	-0.087
-688.354	-13.521	-0.306	0.200
-687.339	-200.000	0.033	-0.299
-686.324	87.145	0.223	-0.248
-685.310	800.000	-0.145	-0.446
-684.295	106.110	0.015	-0.018
-683.281	-200.000	0.035	0.218
-682.266	-15.231	-0.337	-0.217
-681.251	118.053	0.219	-0.272
-680.237	180.028	-0.167	0.247
-679.222	-67.100	0.308	0.122
-678.208	145.584	-0.222	0.299
-677.193	769.969	-0.015	-0.040
-676.178	-200.000	-0.008	-0.111
-675.164	121.747	0.156	-0.195
-674.149	800.000	0.061	-0.221
-673.135	-200.000	-0.009	0.097
-672.120	193.784	-0.084	0.128
-671.105	-91.056	0.296	-0.086
-670.091	-35.774	-0.051	-0.028
-669.076	-200.000	-0.004	0.034
-668.062	34.957	0.070	0.062
-667.047	503.337	-0.080	-0.186
-666.032	800.000	-0.021	0.077
-665.018	-200.000	-0.059	0.293
-664.003	141.395	0.093	-0.124
-662.989	-37.849	-0.233	-0.125
-661.974	38.355	0.126	-0.113
-660.959	48.843	-0.254	-0.240
-659.945	-200.000	-0.005	0.157
-658.930	48.452	-0.323	0.304
-657.916	43.022	0.121	0.111
-656.901	792.795	0.026	-0.071
-655.886	119.329	-0.076	0.095
-654.872	800.000	-0.038	-0.156
-653.857	229.642	-0.072	-0.118
-652.843	402.814	-0.092	0.195
-651.828	-79.591	-0.423	-0.144
-650.814	-62.310	-0.090	0.038
-649.799	37.156	-0.143	-0.128
-648.784	-200.000	0.070	0.000
-647.770	-81.944	-0.171	-0.056
-646.755	-200.000	0.056	-0.258
-645.741	-74.234	-0.079	0.029
-644.726	624.380	-0.111	-0.281
-643.711	-20.981	-0.373	-0.230
-642.697	159.399	-0.162	0.227
-641.682	-200.000	-0.052	0.261
-640.668	-200.000	-0.041	0.369
-639.653	800.000	0.044	0.167
-638.638	26.881	0.201	-0.169
-637.624	515.151	-0.049	0.116
-636.609	-200.000	0.022	0.113
-635.595	-98.399	0.100	0.026
-634.580	-94.855	0.193	0.052
-633.565	-122.214	-0.164	0.027
-632.551	-48.230	0.187	0.091
-631.536	156.234	-0.135	0.187
-630.522	-127.234	0.108	-0.016
-629.507	-45.557	-0.176	0.088
-628.492	-200.000	-0.022	-0.118
-627.478	-200.000	-0.010	-0.085
-626.463	149.738	-0.208	-0.283
-625.449	649.067	0.075	-0.193
-624.434	800.000	-0.083	-0.262
-623.419	394.310	-0.145	-0.303
-622.405	-96.869	-0.414	-0.109
-621.390	-200.000	0.030	0.206
-620.376	607.537	-0.072	0.181
-619.361	-63.389	0.103	-0.043
-618.346	426.567	0.067	0.146
-617.332	-90.050	0.200	0.059
-616.317	225.653	0.087	-0.141
-615.303	117.131	-0.118	0.146
-614.288	-200.000	0.031	0.316
-613.273	-197.188	0.376	-0.002
-612.259	-168.849	0.238	0.009
-611.244	800.000	0.024	0.092
-610.230	613.841	0.062	0.157
-609.215	-63.935	0.194	-0.080
-608.201	-200.000	-0.052	-0.293
-607.186	-200.000	0.013	0.126
-606.171	731.516	-0.029	0.078
-605.157	-58.450	-0.092	0.040
-604.142	797.242	-0.036	0.099
-603.128	-76.991	0.282	0.099
-602.113	595.758	0.014	-0.035
-601.098	-37.432	-0.249	0.133
-600.084	-66.405	0.069	-0.027
-599.069	57.541	-0.181	0.178
-598.055	25.481	0.241	-0.201
-597.040	167.505	-0.038	0.054
-596.025	-138.552	0.064	0.007
-595.011	-200.000	-0.024	-0.291
-593.996	-62.996	-0.024	-0.010
-592.982	-200.000	-0.022	-0.181
-591.967	800.000	0.071	0.233
-590.952	-115.742	0.220	0.041
-589.938	800.000	-0.115	0.327
-588.923	-95.986	-0.132	0.035
-587.909	800.000	0.044	-0.148
-586.894	511.407	-0.073	-0.169
-585.879	121.280	0.212	-0.265
-584.865	74.106	0.092	0.096
-583.850	-200.000	-0.003	-0.029
-582.836	-24.811	-0.173	0.103
-581.821	49.235	-0.238	-0.225
-580.806	104.003	0.090	-0.106
-579.792	-164.527	0.148	-0.007
-578.777	-4.347	0.248	0.172
-577.763	-200.000	-0.061	0.276
-576.748	-187.715	-0.272	-0.004
-575.733	201.567	0.183	-0.283
-574.719	197.780	-0.128	-0.196
-573.704	-76.569	-0.246	-0.087
-572.690	-62.791	-0.290	0.120
-571.675	-29.933	-0.019	0.011
-570.661	248.112	-0.058	0.098
-569.646	-200.000	-0.034	-0.154
-568.631	-99.313	-0.161	0.041
-567.617	332.874	-0.074	-0.144
-566.602	51.242	0.054	-0.052
-565.588	-200.000	-0.029	0.224
-564.573	-75.268	-0.332	0.119
-563.558	28.656	0.124	0.105
-562.544	51.276	-0.370	-0.352
-561.529	-167.708	-0.330	-0.013
-560.515	278.382	-0.064	-0.115
-559.500	54.519	0.054	0.053
-558.485	-200.000	0.021	-0.258
-557.471	-144.591	0.338	0.031
-556.456	21.964	-0.122	-0.100
-555.442	-200.000	0.024	0.274
-554.427	-200.000	-0.016	-0.123
-553.412	800.000	0.061	0.177
-552.398	-1.395	0.138	0.098
-551.383	-83.027	0.280	0.090
-550.369	47.999	0.088	-0.082
-549.354	161.521	-0.211	-0.295
-548.339	-122.373	0.131	0.021
-547.325	-200.000	-0.056	-0.273
-546.310	245.863	0.180	0.304
-545.296	79.131	-0.107	0.115
-544.281	-99.878	-0.090	0.023
-543.266	800.000	-0.057	0.234
-542.252	-89.965	0.253	0.074
-541.237	-112.247	-0.367	0.074
-540.223	-114.096	-0.145	0.028
-539.208	30.348	-0.295	-0.253
-538.193	-200.000	-0.002	-0.148
-537.179	-100.284	0.459	-0.114
-536.164	119.523	0.290	0.359
-535.150	189.581	0.097	0.145
-534.135	-109.949	0.179	0.037
-533.121	135.525	-0.100	0.130
-532.106	7.776	-0.187	0.140
-531.091	-162.531	-0.176	0.009
-530.077	-200.000	0.016	0.131
-529.062	194.112	-0.182	-0.276
-528.048	126.777	-0.109	0.138
-527.033	151.652	0.117	-0.160
-526.018	238.843	-0.110	0.183
-525.004	7.133	-0.150	-0.112
-523.989	-44.281	-0.285	0.143
-522.975	-159.249	0.204	-0.011
-521.960	19.751	-0.258	0.208
-520.945	-119.595	-0.452	-0.078
-519.931	31.990	-0.291	-0.251
-518.916	-200.000	0.060	-0.336
-517.902	-66.891	0.086	0.034
-516.887	182.833	-0.135	0.200
-515.872	-110.893	-0.091	-0.019
-514.858	119.137	0.246	-0.304
-513.843	118.944	-0.153	-0.189
-512.829	-200.000	-0.003	-0.133
-511.814	-75.283	-0.233	-0.083
-510.799	121.986	-0.104	0.130
-509.785	-83.511	-0.219	-0.070
-508.770	158.279	0.102	0.142
-507.756	229.771	0.042	0.068
-506.741	64.319	0.152	0.154
-505.726	-108.815	0.319	-0.068
-504.712	-111.084	-0.175	0.036
-503.697	305.858	0.144	-0.267
-502.683	-200.000	-0.027	-0.241
-501.668	-161.388	0.210	-0.011
-500.653	-200.000	0.072	-0.324
-499.639	-38.548	-0.066	-0.035
-498.624	800.000	-0.107	-0.299
-497.610	184.714	0.089	0.133
-496.595	432.965	0.133	-0.289
-495.581	-87.570	-0.144	0.044
-494.566	1.941	0.278	0.201
-493.551	-120.869	-0.121	0.020
-492.537	-200.000	0.024	-0.189
-491.522	-16.185	-0.051	0.033
-490.508	66.476	0.325	-0.330
-489.493	800.000	-0.024	0.101
-488.478	-44.254	0.140	0.070
-487.464	-200.000	0.059	0.309
-486.449	200.630	-0.145	0.223
-485.435	-42.364	-0.225	-0.115
-484.420	-133.579	-0.342	-0.043
-483.405	-56.434	-0.372	0.165
-482.391	-182.196	-0.259	0.005
-481.376	22.470	0.056	-0.046
-480.362	412.211	0.107	0.227
-479.347	-102.435	0.221	-0.053
-478.332	-200.000	-0.007	-0.238
-477.318	743.967	0.063	-0.171
-476.303	-19.267	-0.225	0.139
-475.289	401.064	0.043	0.089
-474.274	750.706	-0.032	0.086
-473.259	-182.131	0.318	-0.006
-472.245	-34.246	0.171	-0.094
-471.230	723.185	0.094	-0.250
-470.216	51.717	0.115	-0.109
-469.201	-200.000	0.025	0.120
-468.186	-130.107	0.111	-0.015
-467.172	-59.193	-0.279	-0.120
-466.157	547.426	-0.077	0.184
-465.143	309.816	0.075	0.141
-464.128	249.066	0.126	0.214
-463.113	108.847	0.167	0.199
-462.099	-3.175	0.262	0.182
-461.084	-200.000	-0.026	0.246
-460.070	-84.052	0.239	-0.076
-459.055	179.088	0.079	-0.115
-458.040	96.512	0.099	0.113
-457.026	15.127	0.245	-0.192
-456.011	50.294	0.145	0.137
-454.997	-189.311	-0.117	-0.001
-453.982	800.000	-0.084	0.233
-452.968	-3.562	-0.209	0.145
-451.953	-200.000	0.005	0.210
-450.938	-10.340	-0.159	-0.105
-449.924	236.192	0.015	0.024
-448.909	-122.775	-0.164	-0.026
-447.895	63.416	-0.252	0.253
-446.880	149.435	-0.064	0.086
-445.865	-162.026	0.225	-0.011
-444.851	800.000	0.075	-0.313
-443.836	163.276	0.113	0.158
-442.822	-73.597	0.400	0.145
-441.807	800.000	-0.027	-0.116
-440.792	-200.000	-0.068	0.380
-439.778	-112.624	0.160	-0.032
-438.763	327.764	0.065	-0.125
-437.749	-10.302	-0.438	-0.290
-436.734	-142.534	-0.269	-0.026
-435.719	414.791	0.149	0.317
-434.705	459.230	0.061	0.135
-433.690	-81.520	-0.196	0.064
-432.676	709.606	-0.063	0.165
-431.661	800.000	-0.032	-0.124
-430.646	-200.000	-0.014	-0.116
-429.632	-118.613	-0.346	0.061
-428.617	-200.000	-0.020	-0.341
-427.603	116.496	-0.193	-0.236
-426.588	463.528	0.031	0.069
-425.573	65.378	0.089	-0.090
-424.559	232.090	0.099	-0.162
-423.544	528.018	-0.139	-0.326
-422.530	331.767	-0.062	-0.118
-421.515	-14.231	-0.030	-0.019
-420.500	85.014	0.080	-0.088
-419.486	-200.000	-0.084	-0.397
-418.471	-95.760	-0.268	0.071
-417.457	-33.742	-0.323	-0.177
-416.442	16.432	-0.049	0.039
-415.428	-38.018	-0.142	-0.075
-414.413	800.000	0.042	0.159
-413.398	-200.000	-0.068	-0.366
-412.384	-91.816	0.247	-0.070
-411.369	-54.721	0.197	0.089
-410.355	-200.000	0.043	-0.203
-409.340	-200.000	0.001	-0.029
-408.325	3.918	0.054	-0.040
-407.311	-74.313	-0.038	-0.014
-406.296	368.155	-0.202	0.407
-405.282	-138.418	0.107	-0.012
-404.267	248.149	-0.123	-0.207
-403.252	-200.000	0.020	-0.186
-402.238	-200.000	0.036	-0.324
-401.223	800.000	0.018	-0.072
-400.209	-12.096	-0.255	-0.166
-399.194	15.103	0.202	-0.157
-398.179	81.684	-0.193	-0.208
-397.165	-200.000	-0.005	-0.107
-396.150	-95.662	0.086	0.023
-395.136	206.373	0.198	-0.307
-394.121	-31.307	-0.172	0.096
-393.106	22.662	-0.199	0.163
-392.092	-178.806	0.080	-0.002
-391.077	135.738	0.150	-0.195
-390.063	36.684	0.059	-0.052
-389.048	56.056	0.074	-0.071
-388.033	-128.669	-0.248	0.035
-387.019	-200.000	0.005	0.301
-386.004	800.000	-0.074	0.228
-384.990	-155.388	-0.235	-0.015
-383.975	149.040	0.129	0.173
-382.960	-200.000	-0.063	0.303
-381.946	135.203	-0.178	-0.231
-380.931	71.051	0.288	-0.297
-379.917	553.128	-0.027	-0.064
-378.902	-7.906	0.130	-0.087
-377.888	-106.504	-0.217	-0.048
-376.873	800.000	0.036	0.117
-375.858	195.529	-0.127	0.192
-374.844	-200.000	-0.029	-0.143
-373.829	-7.854	0.160	0.108
-372.815	36.724	0.243	0.214
-371.800	458.374	0.031	0.069
-370.785	201.019	-0.126	0.193
-369.771	-72.278	0.314	-0.116
-368.756	-200.000	0.029	0.172
-367.742	-64.420	-0.100	-0.040
-366.727	412.095	0.095	-0.200
-365.712	-200.000	0.039	0.377
-364.698	194.713	-0.200	0.302
-363.683	86.265	0.113	0.124
-362.669	194.076	0.217	0.327
-361.654	800.000	-0.018	0.069
-360.639	-82.511	-0.112	0.036
-359.625	-200.000	0.031	-0.207
-358.610	-155.696	0.260	0.017
-357.596	-200.000	-0.010	-0.098
-356.581	800.000	-0.123	0.340
-355.566	-116.019	0.259	0.048
-354.552	-200.000	0.107	0.520
-353.537	291.818	0.162	0.293
-352.523	800.000	-0.146	0.423
-351.508	408.059	0.092	0.194
-350.493	39.271	-0.169	0.150
-349.479	-126.884	-0.258	-0.038
-348.464	170.873	-0.066	-0.094
-347.450	-200.000	-0.016	0.173
-346.435	25.808	-0.240	-0.199
-345.420	-75.640	0.111	0.039
-344.406	-74.911	-0.146	0.052
-343.391	4.040	0.021	0.015
-342.377	-82.471	0.704	-0.227
-341.362	800.000	-0.018	0.058
-340.348	175.523	-0.176	0.253
-339.333	800.000	0.105	0.354
-338.318	66.526	0.094	0.095
-337.304	53.603	0.213	-0.203
-336.289	-121.753	-0.384	0.063
-335.275	-198.036	-0.384	-0.002
-334.260	800.000	-0.088	0.286
-333.245	154.004	0.197	-0.269
-332.231	-137.300	0.186	0.021
-331.216	-42.945	0.167	-0.084
-330.202	-57.758	0.180	-0.078
-329.187	800.000	0.044	0.139
-328.172	-200.000	0.052	-0.312
-327.158	-200.000	0.013	0.155
-326.143	-200.000	0.017	0.300
-325.129	433.516	0.169	-0.365
-324.114	-77.072	-0.125	0.043
-323.099	-89.238	0.160	-0.047
-322.085	121.278	0.053	-0.065
-321.070	800.000	-0.074	0.225
-320.056	-60.352	-0.485	0.205
-319.041	-178.113	-0.065	-0.002
-318.026	-200.000	0.021	-0.281
-317.012	351.711	0.142	0.278
-315.997	162.961	-0.152	-0.212
-314.983	-60.525	0.179	0.076
-313.968	40.242	-0.157	0.140
-312.953	-98.446	0.147	-0.037
-311.939	118.957	-0.240	0.294
-310.924	99.416	0.116	-0.134
-309.910	416.742	-0.151	0.320
-308.895	-135.983	-0.126	-0.015
-307.880	220.612	-0.190	0.303
-306.866	144.398	0.162	-0.215
-305.851	370.135	0.114	-0.229
-304.837	-30.825	-0.313	-0.176
-303.822	93.893	-0.101	-0.114
-302.807	-40.345	-0.119	-0.061
-301.793	800.000	-0.043	0.126
-300.778	-132.701	-0.286	0.036
-299.764	-200.000	-0.004	0.393
-298.749	18.343	-0.264	0.209
-297.735	67.542	-0.235	0.238
-296.720	-182.161	-0.086	0.002
-295.705	800.000	0.081	0.254
-294.691	44.251	-0.096	-0.087
-293.676	116.770	-0.032	-0.039
-292.662	-91.152	0.138	-0.039
-291.647	-52.875	0.152	-0.069
-290.632	488.444	0.176	0.399
-289.618	-200.000	-0.046	-0.329
-288.603	22.093	-0.211	-0.170
-287.589	260.819	0.045	0.077
-286.574	146.545	-0.071	0.095
-285.559	-200.000	-0.103	-0.457
-284.545	-195.372	0.076	0.001
-283.530	-200.000	-0.014	-0.089
-282.516	-157.426	0.262	-0.016
-281.501	14.743	0.211	0.164
-280.486	-200.000	-0.056	0.456
-279.472	-76.856	0.181	-0.063
-278.457	176.815	-0.132	0.191
-277.443	800.000	0.018	-0.051
-276.428	112.839	0.205	-0.246
-275.413	800.000	0.044	0.138
-274.399	-184.710	0.268	0.004
-273.384	-73.359	-0.322	0.117
-272.370	-183.018	0.124	0.002
-271.355	668.734	0.007	-0.018
-270.340	524.711	-0.090	-0.211
-269.326	426.879	-0.154	-0.329
-268.311	-200.000	0.008	-0.216
-267.297	-200.000	0.025	0.230
-266.282	179.820	0.273	-0.396
-265.267	499.969	0.050	0.115
-264.253	-21.140	0.140	-0.085
-263.238	262.342	0.222	0.382
-262.224	-57.859	-0.080	0.035
-261.209	-45.773	0.184	0.090
-260.195	-31.595	0.102	-0.057
-259.180	-72.453	0.227	-0.083
-258.165	417.274	-0.011	-0.022
-257.151	-44.433	-0.186	0.092
-256.136	-105.248	-0.359	0.081
-255.122	104.738	-0.254	0.297
-254.107	-107.212	0.383	-0.084
-253.092	741.875	-0.028	-0.074
-252.078	-200.000	0.043	-0.190
-251.063	170.991	0.073	-0.103
-250.049	-145.059	-0.065	0.006
-249.034	-40.294	-0.171	-0.088
-248.019	51.274	-0.207	-0.194
-247.005	797.935	-0.057	-0.156
-245.990	800.000	-0.011	-0.035
-244.976	318.756	0.067	-0.125
-243.961	-45.292	0.074	0.036
-242.946	-180.533	-0.191	-0.004
-241.932	-88.816	-0.214	0.063
-240.917	43.502	0.050	-0.045
-239.903	76.882	-0.075	0.079
-238.888	126.029	0.153	-0.192
-237.873	123.275	0.196	-0.244
-236.859	-200.000	-0.320	0.000
-235.844	164.151	0.183	-0.256
-234.830	8.954	0.115	0.086
-233.815	32.453	0.273	0.234
-232.800	-200.000	0.001	0.109
-231.786	169.589	0.119	-0.168
-230.771	-84.418	-0.091	0.029
-229.757	-33.608	0.203	-0.111
-228.742	-186.797	0.082	0.001
-227.727	-32.211	-0.179	-0.099
-226.713	305.491	-0.102	0.188
-225.698	-132.071	0.132	0.017
-224.684	-93.046	-0.135	-0.037
-223.669	-62.475	-0.288	-0.118
-222.655	-105.995	0.117	-0.026
-221.640	457.373	-0.181	-0.397
-220.625	14.691	-0.220	0.170
-219.611	345.211	0.124	0.241
-218.596	800.000	0.023	-0.069
-217.582	-200.000	0.023	0.130
-216.567	-13.709	0.084	-0.053
-215.552	100.870	0.183	-0.211
-214.538	-100.618	0.106	0.026
-213.523	-200.000	0.022	-0.350
-212.509	-20.397	0.241	-0.147
-211.494	800.000	0.071	-0.251
-210.479	800.000	-0.022	-0.084
-209.465	61.441	0.160	0.157
-208.450	-90.033	0.208	0.060
-207.436	561.482	0.060	-0.143
-206.421	-200.000	0.022	-0.362
-205.406	-130.938	0.221	-0.029
-204.392	-69.927	0.176	0.066
-203.377	92.517	0.184	-0.205
-202.363	800.000	0.070	-0.288
-201.348	198.400	0.121	0.183
-200.333	566.455	-0.104	-0.249
-199.319	-18.449	-0.036	0.022
-198.304	-64.364	0.123	-0.049
-197.290	-135.627	-0.138	-0.016
-196.275	172.731	0.138	-0.196
-195.260	-200.000	-0.040	0.217
-194.246	27.024	-0.307	-0.255
-193.231	-200.000	-0.003	-0.142
-192.217	147.452	0.153	0.203
-191.202	403.118	0.028	0.058
-190.187	332.061	0.106	0.202
-189.173	-189.888	0.083	-0.001
-188.158	-99.743	-0.109	-0.027
-187.144	-25.437	0.290	0.169
-186.129	-15.352	0.196	0.124
-185.114	-81.207	0.228	0.074
-184.100	597.817	-0.023	0.057
-183.085	118.173	0.264	-0.321
-182.071	-48.805	0.380	0.180
-181.056	800.000	0.077	0.282
-180.042	-75.987	0.227	-0.079
-179.027	-55.516	0.070	0.031
-178.012	-123.408	0.196	0.031
-176.998	-200.000	-0.034	0.149
-175.983	-200.000	0.027	0.173
-174.969	55.568	0.018	0.017
-173.954	-61.965	0.128	-0.053
-172.939	-200.000	0.002	0.103
-171.925	-137.826	-0.159	-0.018
-170.910	-116.158	0.116	0.021
-169.896	-124.429	0.055	0.008
-168.881	-159.731	-0.217	0.012
-167.866	-200.000	0.047	0.306
-166.852	-178.675	0.323	-0.007
-165.837	127.563	0.103	-0.129
-164.823	-60.849	-0.242	-0.101
-163.808	-200.000	-0.015	0.154
-162.793	-143.237	-0.022	0.002
-161.779	95.027	-0.190	-0.214
-160.764	406.253	-0.016	0.032
-159.750	800.000	-0.007	-0.025
-158.735	-46.134	-0.192	0.093
-157.720	-129.920	-0.130	0.018
-156.706	-75.116	-0.172	-0.061
-155.691	800.000	-0.126	-0.394
-154.677	-200.000	0.044	0.349
-153.662	55.137	0.158	0.150
-152.647	192.464	0.205	-0.305
-151.633	-39.923	-0.054	-0.028
-150.618	14.404	-0.129	-0.099
-149.604	-55.832	0.229	0.101
-148.589	120.682	0.109	-0.134
-147.574	201.340	0.071	0.108
-146.560	-16.842	-0.171	0.107
-145.545	-11.509	0.077	0.050
-144.531	-200.000	0.021	0.196
-143.516	96.027	-0.296	0.333
-142.502	120.738	-0.086	-0.106
-141.487	800.000	-0.069	0.265
-140.472	135.990	0.112	0.144
-139.458	-200.000	-0.021	-0.204
-138.443	-76.841	0.020	-0.007
-137.429	-52.404	0.135	0.062
-136.414	800.000	-0.030	-0.104
-135.399	-200.000	-0.038	0.492
-134.385	800.000	0.100	0.306
-133.370	-141.158	-0.142	-0.014
-132.356	93.722	0.065	-0.073
-131.341	-15.748	-0.157	0.099
-130.326	-14.523	-0.247	-0.157
-129.312	359.822	0.078	-0.154
-128.297	32.315	-0.138	-0.117
-127.283	-108.642	0.075	0.016
-126.268	-31.070	0.169	-0.094
-125.253	-126.019	0.296	0.044
-124.239	482.322	0.166	-0.372
-123.224	-156.370	0.110	0.007
-122.210	-120.122	-0.195	0.033
-121.195	-69.268	-0.120	-0.046
-120.180	-60.982	0.187	-0.078
-119.166	-200.000	-0.003	-0.179
-118.151	792.125	0.066	-0.179
-117.137	438.205	-0.095	0.203
-116.122	-200.000	0.035	0.161
-115.107	-11.288	0.130	-0.085
-114.093	149.028	0.157	-0.209
-113.078	32.339	0.142	0.121
-112.064	-200.000	0.038	0.350
-111.049	634.030	-0.045	-0.112
-110.034	-163.453	-0.283	-0.013
-109.020	-99.270	0.182	-0.045
-108.005	42.654	-0.243	0.218
-106.991	-74.204	-0.043	0.015
-105.976	-200.000	-0.024	0.189
-104.962	-102.317	-0.169	0.040
-103.947	-200.000	0.028	-0.511
-102.932	-24.636	0.209	-0.122
-101.918	-182.318	0.136	0.002
-100.903	-87.305	-0.171	-0.051
-99.889	800.000	0.132	0.377
-98.874	-122.642	0.195	-0.031
-97.859	43.323	-0.120	-0.108
-96.845	-103.665	0.208	0.048
-95.830	-112.213	0.131	-0.026
-94.816	-125.943	0.333	-0.049
-93.801	63.130	0.188	-0.185
-92.786	139.624	0.099	0.128
-91.772	-103.180	0.165	0.038
-90.757	800.000	0.056	0.223
-89.743	-12.368	-0.365	0.234
-88.728	-31.435	0.086	0.048
-87.713	136.719	0.150	0.193
-86.699	35.898	-0.187	0.162
-85.684	-110.985	0.274	0.055
-84.670	83.694	0.279	0.299
-83.655	-117.810	0.147	0.026
-82.640	-200.000	-0.062	0.368
-81.626	-159.071	-0.327	0.018
-80.611	-200.000	0.020	0.283
-79.597	-5.458	-0.230	-0.155
-78.582	217.598	0.165	0.258
-77.567	-50.637	0.366	-0.169
-76.553	800.000	-0.060	0.183
-75.538	-200.000	-0.053	0.386
-74.524	-200.000	0.051	-0.276
-73.509	800.000	-0.046	-0.141
-72.494	-160.801	0.261	0.014
-71.480	-87.261	0.036	-0.011
-70.465	182.979	-0.039	0.057
-69.451	-130.889	0.209	-0.027
-68.436	800.000	-0.052	0.205
-67.422	0.550	-0.159	-0.112
-66.407	-89.882	0.257	-0.074
-65.392	-7.700	0.143	0.095
-64.378	-102.510	-0.265	0.062
-63.363	-9.267	0.022	-0.014
-62.349	609.002	-0.034	0.084
-61.334	96.176	-0.845	-0.950
-60.319	77.842	0.423	0.443
-59.305	759.556	-0.246	-0.656
-58.290	183.277	0.654	0.949
-57.276	279.285	0.911	1.599
-56.261	-200.000	95.410	588.460
-55.246	664.981	1369.670	3475.141
-54.232	199.202	2549.772	3839.898
-53.217	114.464	2267.764	2714.302
-52.203	41.845	1895.797	1689.121
-51.188	35.658	1685.876	1455.355
-50.173	33.067	1641.569	1397.918
-49.159	50.334	1687.811	1567.089
-48.144	52.164	1703.603	1595.394
-47.130	35.239	1665.755	1434.624
-46.115	32.495	1651.442	1401.843
-45.100	32.374	1646.027	1396.290
-44.086	32.301	1643.269	1393.357
-43.071	32.374	1640.673	1391.639
-42.057	32.303	1638.314	1389.060
-41.042	32.237	1636.571	1387.039
-40.027	32.294	1634.957	1386.032
-39.013	32.212	1633.025	1383.737
-37.998	32.220	1631.429	1382.390
-36.984	32.321	1629.897	1381.777
-35.969	32.468	1627.880	1381.092
-34.954	32.478	1626.278	1379.752
-33.940	32.355	1625.255	1377.930
-32.925	32.257	1623.866	1375.982
-31.911	32.330	1621.756	1374.673
-30.896	32.373	1619.506	1373.025
-29.881	32.288	1618.267	1371.295
-28.867	32.378	1616.271	1370.210
-27.852	32.355	1615.255	1369.121
-26.838	32.343	1613.925	1367.853
-25.823	32.400	1612.397	1366.920
-24.809	32.363	1610.719	1365.176
-23.794	32.393	1609.381	1364.203
-22.779	32.406	1607.929	1363.017
-21.765	32.353	1606.662	1361.499
-20.750	32.439	1604.685	1360.397
-19.736	32.361	1603.341	1358.639
-18.721	32.429	1601.930	1357.881
-17.706	32.480	1600.263	1356.782
-16.692	32.444	1598.975	1355.377
-15.677	32.453	1597.615	1354.235
-14.663	32.433	1596.383	1352.991
-13.648	32.404	1594.927	1351.491
-12.633	32.376	1593.425	1349.964
-11.619	32.398	1591.811	1348.701
-10.604	32.472	1589.879	1347.545
-9.590	32.411	1588.820	1346.158
-8.575	32.357	1587.652	1344.730
-7.560	32.405	1586.521	1344.060
-6.546	32.501	1585.160	1343.534
-5.531	32.348	1584.293	1341.654
-4.517	32.368	1583.352	1340.951
-3.502	32.329	1581.865	1339.358
-2.487	32.489	1580.295	1339.112
-1.473	32.190	1568.297	1326.784
-0.458	29.444	1549.399	1291.559
0.556	25.638	1549.780	1260.140
1.571	23.237	1572.934	1261.761
2.586	22.783	1585.406	1268.393
3.600	20.098	1532.828	1207.538
4.615	12.282	1424.051	1070.952
5.629	5.683	1361.698	982.697
6.644	4.718	1354.032	971.058
7.659	4.665	1352.208	969.331
8.673	4.572	1351.544	968.191
9.688	4.654	1349.762	967.340
10.702	4.607	1346.616	964.708
11.717	7.496	1352.775	987.018
12.731	14.951	1366.308	1043.470
13.746	19.621	1372.763	1077.505
14.761	19.254	1370.898	1073.659
15.775	18.305	1368.354	1065.669
16.790	17.167	1365.652	1056.395
17.804	16.308	1363.335	1049.174
18.819	15.832	1362.184	1045.241
19.834	15.765	1360.844	1043.707
20.848	15.416	1360.052	1040.841
21.863	15.352	1358.097	1038.858
22.877	15.108	1357.275	1036.624
23.892	15.124	1356.513	1036.053
24.907	15.004	1356.055	1034.866
25.921	15.024	1354.576	1033.770
26.936	15.011	1353.670	1032.908
27.950	15.084	1352.992	1032.746
28.965	15.220	1352.326	1032.989
29.980	15.265	1351.062	1032.207
30.994	15.290	1350.010	1031.464
32.009	15.356	1348.525	1030.647
33.023	15.396	1347.185	1029.776
34.038	15.292	1345.773	1027.968
35.053	15.240	1344.598	1026.665
36.067	15.208	1343.565	1025.588
37.082	15.225	1342.694	1024.934
38.096	15.348	1341.777	1024.893
39.111	15.280	1340.943	1023.756
40.126	15.200	1340.185	1022.596
41.140	15.129	1338.999	1021.167
42.155	14.935	1338.514	1019.524
43.169	14.974	1338.523	1019.678
44.184	14.894	1338.126	1018.798
45.199	14.964	1337.718	1018.823
46.213	15.135	1336.976	1019.212
47.228	15.269	1336.211	1019.352
48.242	15.174	1335.531	1018.165
49.257	15.222	1333.702	1016.973
50.271	15.163	1332.650	1015.723
51.286	15.291	1330.947	1015.111
52.301	15.211	1329.802	1013.659
53.315	15.053	1328.918	1011.942
54.330	15.079	1327.300	1010.778
55.344	15.047	1326.360	1009.778
56.359	15.091	1325.262	1009.123
57.374	15.086	1324.535	1008.446
58.388	14.988	1323.688	1007.121
59.403	14.925	1323.067	1006.180
60.417	14.958	1322.629	1005.959
61.432	14.879	1321.861	1004.809
62.447	14.791	1320.941	1003.491
63.461	14.822	1319.617	1002.583
64.476	14.765	1318.977	1001.669
65.490	14.903	1317.143	1001.013
66.505	14.753	1316.324	999.404
67.520	14.868	1314.765	998.822
68.534	14.907	1313.706	998.161
69.549	14.943	1312.648	997.483
70.563	14.832	1311.257	995.674
71.578	14.823	1310.425	994.902
72.593	14.793	1309.281	993.769
73.607	14.812	1308.358	993.090
74.622	14.771	1307.728	992.285
75.636	14.844	1307.364	992.349
76.651	14.684	1306.542	990.689
77.666	14.827	1306.133	991.140
78.680	14.835	1305.437	990.574
79.695	14.827	1304.900	990.032
80.709	14.935	1304.173	990.031
81.724	14.966	1303.406	989.544
82.739	15.058	1302.268	989.137
83.753	15.132	1301.389	988.816
84.768	15.229	1300.488	988.617
85.782	15.234	1299.782	988.024
86.797	15.142	1298.620	986.510
87.812	15.140	1297.089	985.251
88.826	15.145	1296.044	984.395
89.841	15.168	1294.987	983.641
90.855	15.290	1294.284	983.734
91.870	15.313	1293.242	982.991
92.884	15.255	1292.298	981.847
93.899	15.345	1291.479	981.667
94.914	15.405	1290.937	981.519
95.928	15.391	1289.827	980.507
96.943	15.230	1289.029	978.873
97.957	15.190	1288.414	978.083
98.972	15.225	1287.525	977.531
99.987	15.227	1286.216	976.461
101.001	15.312	1284.485	975.552
102.016	15.334	1283.565	974.894
103.030	15.289	1283.071	974.176
104.045	15.256	1282.133	973.184
105.060	15.193	1281.102	971.948
106.074	14.990	1279.937	969.802
107.089	14.964	1278.162	968.223
108.103	14.900	1276.850	966.772
109.118	14.922	1275.275	965.619
110.133	14.988	1274.196	965.099
111.147	14.876	1273.121	963.553
112.162	15.021	1271.537	963.107
113.176	14.931	1270.701	961.868
114.191	15.068	1269.527	961.684
115.206	15.040	1268.593	960.731
116.220	14.927	1267.460	959.139
117.235	15.053	1266.046	958.705
118.249	15.033	1265.338	957.968
119.264	15.078	1263.897	957.050
120.279	15.038	1262.761	955.880
121.293	15.015	1262.099	955.161
122.308	14.936	1261.009	953.799
123.322	14.855	1260.161	952.613
124.337	14.733	1259.312	951.193
125.352	14.824	1257.979	950.617
126.366	14.878	1256.984	950.090
127.381	14.872	1256.058	949.273
128.395	14.974	1254.444	948.549
129.410	14.972	1253.879	948.024
130.424	14.988	1252.936	947.318
131.439	15.038	1252.082	946.874
132.454	15.000	1251.117	945.841
133.468	15.108	1250.465	945.874
134.483	15.008	1249.874	944.780
135.497	15.019	1248.780	943.933
136.512	15.069	1247.777	943.371
137.527	15.128	1245.847	942.164
138.541	14.986	1244.979	940.625
139.556	15.031	1243.741	939.860
140.570	15.249	1242.828	940.310
141.585	15.208	1241.736	939.169
142.600	15.190	1240.536	938.080
143.614	15.287	1239.832	938.007
144.629	15.251	1238.729	936.888
145.643	15.290	1237.266	935.912
146.658	15.347	1235.699	934.966
147.673	15.186	1234.687	933.217
148.687	15.113	1233.389	931.751
149.702	15.011	1232.071	930.106
150.716	15.098	1230.862	929.594
151.731	15.092	1229.505	928.452
152.746	15.164	1228.665	928.133
153.760	15.199	1227.346	927.249
154.775	15.241	1226.518	926.775
155.789	15.343	1225.452	926.449
156.804	15.280	1224.417	925.240
157.819	15.402	1223.219	924.925
158.833	15.431	1222.203	924.235
159.848	15.431	1221.736	923.799
160.862	15.339	1220.747	922.464
161.877	15.265	1219.170	920.782
162.892	15.270	1217.951	919.810
163.906	15.139	1217.855	918.937
164.921	15.211	1216.551	918.267
165.935	15.224	1216.061	917.886
166.950	15.306	1214.816	917.313
167.964	15.353	1214.293	917.092
168.979	15.346	1213.698	916.526
169.994	15.234	1213.119	915.397
171.008	15.281	1212.330	914.975
172.023	15.328	1211.539	914.554
173.037	15.431	1210.878	914.537
174.052	15.549	1209.765	914.253
175.067	15.375	1208.609	912.356
176.081	15.323	1207.399	911.081
177.096	15.370	1206.926	910.896
178.110	15.339	1205.884	909.863
179.125	15.357	1204.550	908.869
180.140	15.370	1203.350	907.957
181.154	15.447	1202.159	907.396
182.169	15.478	1201.204	906.760
183.183	15.526	1199.924	905.972
184.198	15.570	1199.025	905.452
185.213	15.555	1198.444	904.848
186.227	15.630	1196.524	903.727
187.242	15.653	1196.177	903.509
188.256	15.744	1194.977	903.009
189.271	15.741	1193.862	902.069
190.286	15.607	1192.651	900.356
191.300	15.342	1192.097	898.438
192.315	15.309	1190.844	897.241
193.329	15.305	1190.524	896.896
194.344	15.296	1189.893	896.292
195.359	15.570	1189.546	897.416
196.373	15.558	1189.128	896.959
197.388	15.648	1188.507	896.893
198.402	15.595	1188.553	896.565
199.417	15.909	1187.493	897.356
200.432	15.835	1187.073	896.568
201.446	15.955	1185.745	896.127
202.461	15.963	1184.897	895.445
203.475	16.024	1184.026	895.034
204.490	15.872	1182.517	893.006
205.504	15.873	1181.363	892.060
206.519	15.694	1180.385	890.295
207.534	15.702	1179.509	889.598
208.548	15.876	1178.290	889.520
209.563	15.805	1177.813	888.707
210.577	15.846	1176.449	887.814
211.592	15.848	1175.952	887.372
212.607	15.960	1175.457	887.513
213.621	16.025	1173.927	886.618
214.636	16.019	1172.977	885.789
215.650	15.891	1172.402	884.609
216.665	15.911	1171.793	884.171
217.680	16.021	1170.956	884.040
218.694	16.077	1169.722	883.322
219.709	16.156	1168.853	883.004
220.723	16.185	1168.136	882.538
221.738	16.063	1168.104	881.796
222.753	16.101	1166.788	880.923
223.767	16.111	1166.179	880.438
224.782	16.120	1166.185	880.408
225.796	16.200	1165.038	879.883
226.811	16.187	1164.524	879.352
227.826	16.118	1163.761	878.336
228.840	16.209	1162.380	877.691
229.855	16.129	1162.307	877.143
230.869	16.231	1161.109	876.690
231.884	16.119	1160.556	875.611
232.899	16.069	1159.968	874.831
233.913	16.001	1159.263	873.871
234.928	15.993	1158.525	873.195
235.942	15.969	1157.598	872.292
236.957	15.968	1156.898	871.683
237.972	16.127	1155.907	871.681
238.986	16.042	1155.519	870.876
240.001	16.136	1154.609	870.595
241.015	16.127	1153.766	869.837
242.030	16.114	1153.104	869.194
243.045	16.229	1152.411	869.188
244.059	16.103	1151.493	867.770
245.074	16.241	1150.935	867.985
246.088	16.326	1150.029	867.657
247.103	16.361	1149.164	867.109
248.117	16.402	1148.734	866.920
249.132	16.454	1147.874	866.461
250.147	16.586	1147.152	866.515
251.161	16.660	1146.645	866.435
252.176	16.787	1145.896	866.439
253.190	16.758	1145.233	865.715
254.205	16.797	1144.645	865.389
255.220	16.889	1144.163	865.421
256.234	16.805	1143.473	864.395
257.249	16.863	1142.709	864.035
258.263	16.850	1141.970	863.333
259.278	16.755	1141.950	862.756
260.293	16.775	1140.984	862.053
261.307	16.847	1140.499	861.976
262.322	16.861	1139.806	861.450
263.336	16.959	1138.768	861.086
264.351	16.853	1138.979	860.630
265.366	16.882	1137.825	859.827
266.380	16.996	1136.785	859.545
267.395	16.920	1135.786	858.329
268.409	16.903	1135.264	857.772
269.424	16.881	1134.876	857.291
270.439	16.803	1134.450	856.498
271.453	16.808	1133.289	855.575
272.468	16.809	1132.560	854.953
273.482	16.819	1131.944	854.464
274.497	16.831	1130.995	853.733
275.512	16.854	1130.483	853.382
276.526	16.794	1129.568	852.314
277.541	16.823	1128.890	851.875
278.555	16.850	1128.450	851.604
279.570	16.953	1127.609	851.411
280.585	17.094	1126.463	851.176
281.599	17.014	1126.019	850.363
282.614	17.089	1124.661	849.638
283.628	16.991	1123.545	848.230
284.643	17.107	1122.724	848.116
285.657	16.952	1122.253	846.909
286.672	16.880	1121.277	845.739
287.687	17.045	1120.183	845.665
288.701	17.029	1119.376	844.900
289.716	17.173	1118.590	844.945
290.730	17.105	1118.405	844.393
291.745	17.148	1117.351	843.736
292.760	17.167	1116.735	843.291
293.774	17.158	1116.274	842.823
294.789	17.273	1115.839	842.990
295.803	17.223	1115.110	842.119
296.818	17.179	1114.289	841.207
297.833	17.108	1114.070	840.615
298.847	17.161	1112.768	839.823
299.862	17.191	1111.832	839.186
300.876	17.254	1111.531	839.196
301.891	17.265	1110.843	838.656
302.906	17.222	1110.106	837.818
303.920	17.448	1109.429	838.342
304.935	17.389	1108.511	837.287
305.949	17.552	1108.137	837.733
306.964	17.541	1107.318	836.985
307.979	17.406	1106.637	835.732
308.993	17.422	1106.049	835.290
310.008	17.466	1105.539	835.051
311.022	17.445	1104.905	834.392
312.037	17.561	1103.597	833.899
313.052	17.420	1102.592	832.379
314.066	17.300	1101.814	831.131
315.081	17.375	1100.669	830.557
316.095	17.377	1099.997	829.986
317.110	17.383	1099.661	829.688
318.125	17.399	1098.628	828.912
319.139	17.388	1097.518	827.952
320.154	17.336	1097.373	827.515
321.168	17.439	1096.789	827.504
322.183	17.372	1096.603	826.963
323.197	17.478	1095.646	826.685
324.212	17.533	1094.839	826.270
325.227	17.419	1094.413	825.319
326.241	17.489	1093.903	825.200
327.256	17.384	1093.257	824.135
328.270	17.443	1091.912	823.333
329.285	17.437	1091.171	822.671
330.300	17.435	1090.213	821.866
331.314	17.532	1089.168	821.476
332.329	17.486	1088.210	820.457
333.343	17.429	1087.813	819.809
334.358	17.683	1086.335	819.848
335.373	17.600	1086.049	819.157
336.387	17.794	1084.970	819.204
337.402	17.682	1084.609	818.321
338.416	17.767	1083.805	818.052
339.431	17.835	1083.295	817.920
340.446	17.724	1082.952	817.053
341.460	17.877	1082.006	817.003
342.475	17.974	1081.250	816.821
343.489	17.980	1080.428	816.159
344.504	17.948	1079.807	815.465
345.519	18.008	1078.725	814.861
346.533	18.116	1077.284	814.213
347.548	18.118	1077.036	813.966
348.562	18.083	1076.175	813.076
349.577	17.998	1075.579	812.150
350.592	18.019	1074.648	811.472
351.606	17.883	1074.368	810.547
352.621	17.818	1073.276	809.340
353.635	17.808	1072.736	808.813
354.650	17.924	1071.737	808.537
355.665	17.944	1071.122	808.099
356.679	17.977	1070.508	807.718
357.694	17.845	1070.591	807.085
358.708	17.897	1069.833	806.689
359.723	17.987	1069.152	806.531
360.738	17.964	1068.343	805.738
361.752	18.044	1067.968	805.762
362.767	18.118	1067.235	805.487
363.781	17.981	1067.111	804.674
364.796	18.093	1066.162	804.418
365.810	18.250	1065.491	804.577
366.825	18.281	1064.773	804.108
367.840	18.368	1064.659	804.360
368.854	18.450	1064.013	804.186
369.869	18.399	1062.973	803.091
370.883	18.378	1062.322	802.429
371.898	18.300	1061.776	801.581
372.913	18.250	1060.745	800.499
373.927	18.311	1060.623	800.619
374.942	18.407	1059.944	800.486
375.956	18.442	1059.418	800.181
376.971	18.451	1058.801	799.683
377.986	18.392	1058.359	799.005
379.000	18.442	1057.891	798.816
380.015	18.633	1057.323	799.206
381.029	18.629	1056.440	798.449
382.044	18.642	1055.785	797.944
383.059	18.560	1055.189	797.043
384.073	18.572	1054.296	796.350
385.088	18.640	1053.586	796.061
386.102	18.578	1052.658	795.003
387.117	18.463	1052.035	793.927
388.132	18.441	1050.649	792.708
389.146	18.362	1050.550	792.200
390.161	18.535	1049.053	791.799
391.175	18.466	1048.720	791.162
392.190	18.619	1047.879	791.161
393.205	18.605	1047.574	790.797
394.219	18.683	1046.478	790.258
395.234	18.619	1045.257	788.972
396.248	18.580	1044.388	788.069
397.263	18.583	1043.675	787.473
398.278	18.519	1043.278	786.812
399.292	18.495	1042.588	786.111
400.307	18.474	1041.515	785.135
401.321	18.469	1041.002	784.655
402.336	18.460	1040.342	784.050
403.350	18.585	1039.344	783.796
404.365	18.522	1039.085	783.245
405.380	18.579	1037.885	782.531
406.394	18.658	1037.333	782.408
407.409	18.728	1036.602	782.103
408.423	18.751	1036.282	781.896
409.438	18.815	1035.765	781.730
410.453	18.826	1034.919	781.071
411.467	18.966	1034.147	781.057
412.482	19.016	1033.185	780.488
413.496	19.006	1033.014	780.247
414.511	18.979	1032.266	779.487
415.526	19.124	1031.744	779.683
416.540	19.104	1031.683	779.476
417.555	19.082	1030.840	778.669
418.569	19.041	1030.392	778.078
419.584	19.123	1029.433	777.653
420.599	19.078	1029.308	777.287
421.613	150.799	1400.707	1792.561
422.628	137.555	1454.804	1792.671
