DTS Sentinel unit serial number:	SN413079Multiplexer serial number:	ORYXHardware model number:	OX4-SRSoftware version number:	ORYX F/W v4.00 Oryx Data Collector v3.7.2.0data status	okinstallation	princeton_trtdifferential loss correction	single-endedforward channel	channel 2reverse channel	N/Adate	2019/09/12time	04:37:11forward acquisition time	60.00reverse acquisition time	0.00gamma	496.2192k internal	0.2327k external	0.2327temperature offset calibration	1.0142default loss term (dB/km)	0.3790temperature slope calibration	1.0000multiplexer offset coefficient	1.0000multiplexer slope coefficient	1.0000fibre end	0.00T internal ref (°C)	31.61T ext. ref 1 (°C)	2.86T ext. ref 2 (°C)	27.00length (m)	temperature (°C)	Stokes	anti-Stokes-747.200	800.000	-0.050	0.195
-746.185	97.205	-0.188	0.218
-745.171	151.111	-0.139	0.190
-744.156	-200.000	-0.020	0.199
-743.142	-14.501	-0.117	0.076
-742.127	-200.000	-0.036	0.508
-741.112	-123.293	-0.056	-0.009
-740.098	41.947	0.076	0.070
-739.083	-83.624	0.378	0.122
-738.069	-118.885	0.063	0.011
-737.054	800.000	0.043	-0.181
-736.039	151.478	-0.284	0.390
-735.025	-118.566	0.168	-0.030
-734.010	-156.709	-0.251	-0.016
-732.996	-102.547	-0.135	0.033
-731.981	368.743	-0.053	-0.108
-730.966	193.381	-0.052	-0.080
-729.952	39.306	-0.124	-0.112
-728.937	-126.191	-0.204	-0.031
-727.923	-78.297	-0.090	-0.031
-726.908	800.000	-0.043	-0.151
-725.894	-19.027	-0.285	-0.178
-724.879	800.000	0.117	-0.359
-723.864	-200.000	0.003	-0.142
-722.850	-145.775	-0.327	0.029
-721.835	151.319	-0.174	-0.238
-720.821	-176.035	-0.076	0.002
-719.806	-200.000	0.030	-0.294
-718.791	125.331	-0.287	-0.365
-717.777	5.794	-0.172	0.128
-716.762	-37.743	-0.139	0.074
-715.748	-200.000	0.012	0.314
-714.733	26.365	-0.165	-0.139
-713.718	136.262	-0.210	0.275
-712.704	-113.026	0.248	0.049
-711.689	-200.000	-0.004	-0.034
-710.675	-90.216	-0.254	-0.074
-709.660	195.295	0.164	-0.251
-708.645	-129.678	-0.349	-0.048
-707.631	-149.808	0.236	0.019
-706.616	-200.000	0.051	-0.332
-705.602	125.884	-0.089	-0.114
-704.587	-129.962	0.036	0.005
-703.572	786.055	-0.058	0.160
-702.558	-200.000	0.003	0.045
-701.543	-54.110	0.376	-0.172
-700.529	-200.000	0.012	0.200
-699.514	-163.677	0.358	-0.017
-698.499	-148.486	-0.028	0.002
-697.485	-58.910	0.308	0.134
-696.470	124.959	-0.115	-0.146
-695.456	-21.106	0.116	-0.072
-694.441	199.502	-0.022	-0.034
-693.426	82.073	0.144	0.157
-692.412	-70.609	-0.309	-0.118
-691.397	223.635	0.048	-0.078
-690.383	440.237	-0.143	0.315
-689.368	-127.249	-0.058	-0.009
-688.354	-65.832	-0.206	-0.083
-687.339	-52.433	0.336	-0.156
-686.324	-94.303	0.142	0.039
-685.310	-134.108	0.398	-0.049
-684.295	-200.000	-0.032	-0.245
-683.281	-200.000	0.008	-0.135
-682.266	-145.137	0.285	-0.026
-681.251	380.594	-0.173	0.356
-680.237	-70.901	-0.225	-0.085
-679.222	93.527	0.088	-0.100
-678.208	800.000	-0.052	-0.216
-677.193	154.112	-0.053	0.074
-676.178	57.242	-0.112	0.110
-675.164	162.388	0.185	0.260
-674.149	-200.000	-0.028	0.166
-673.135	47.880	-0.104	-0.098
-672.120	-143.740	-0.384	0.037
-671.105	-22.923	0.168	0.102
-670.091	-114.164	-0.164	0.032
-669.076	-200.000	0.013	-0.087
-668.062	-19.422	0.287	0.178
-667.047	800.000	0.077	-0.226
-666.032	-111.967	-0.043	-0.009
-665.018	-46.137	0.120	0.059
-664.003	-7.967	-0.103	-0.070
-662.989	-200.000	-0.038	-0.224
-661.974	247.917	-0.233	-0.395
-660.959	-200.000	-0.000	0.073
-659.945	278.041	0.162	-0.290
-658.930	-9.328	0.085	0.057
-657.916	49.490	-0.113	-0.107
-656.901	487.148	-0.107	0.246
-655.886	-200.000	-0.141	-0.000
-654.872	800.000	-0.079	-0.264
-653.857	-161.851	-0.144	0.007
-652.843	-75.783	-0.176	0.063
-651.828	-103.500	-0.157	0.037
-650.814	-79.997	0.134	0.045
-649.799	123.649	-0.116	-0.146
-648.784	271.383	0.171	-0.303
-647.770	38.604	0.244	-0.219
-646.755	387.625	0.115	0.239
-645.741	-79.217	0.041	-0.014
-644.726	262.407	-0.144	-0.252
-643.711	-131.824	-0.043	-0.006
-642.697	169.895	0.010	-0.015
-641.682	800.000	-0.027	0.109
-640.668	43.626	-0.189	0.173
-639.653	53.799	-0.134	0.129
-638.638	209.885	0.110	0.173
-637.624	-200.000	0.036	0.285
-636.609	-66.850	-0.273	0.108
-635.595	-86.677	-0.106	0.033
-634.580	-200.000	-0.163	0.000
-633.565	329.967	-0.053	0.102
-632.551	64.039	0.078	0.079
-631.536	95.615	-0.243	0.278
-630.522	-28.704	0.038	-0.022
-629.507	-14.214	0.229	-0.148
-628.492	205.064	0.049	-0.076
-627.478	278.758	0.065	-0.117
-626.463	-65.680	0.370	0.149
-625.449	-146.428	0.228	0.020
-624.434	-78.247	0.321	-0.111
-623.419	-183.124	0.279	-0.005
-622.405	-2.513	0.215	0.151
-621.390	119.819	0.272	-0.338
-620.376	-64.452	-0.093	0.038
-619.361	-51.823	-0.416	-0.194
-618.346	-75.055	-0.086	-0.031
-617.332	-102.989	-0.211	-0.050
-616.317	800.000	-0.118	0.367
-615.303	800.000	0.057	0.249
-614.288	290.440	-0.083	-0.151
-613.273	25.626	-0.181	0.151
-612.259	800.000	-0.030	-0.117
-611.244	-200.000	0.015	-0.266
-610.230	166.592	-0.120	-0.170
-609.215	161.662	0.178	0.250
-608.201	800.000	-0.065	-0.193
-607.186	-102.639	-0.123	-0.029
-606.171	-4.693	-0.424	0.293
-605.157	259.700	-0.091	-0.157
-604.142	-19.396	-0.210	-0.131
-603.128	-107.200	-0.226	-0.050
-602.113	31.188	0.400	-0.344
-601.098	98.727	-0.157	0.181
-600.084	120.252	0.309	0.384
-599.069	127.676	-0.061	-0.078
-598.055	-137.822	-0.483	0.054
-597.040	-128.928	0.572	-0.080
-596.025	-57.535	-0.251	0.110
-595.011	-200.000	-0.036	-0.239
-593.996	-200.000	0.030	-0.258
-592.982	800.000	0.035	0.101
-591.967	-92.726	0.318	0.089
-590.952	-75.272	-0.220	-0.079
-589.938	-128.001	0.087	-0.013
-588.923	-23.143	-0.113	0.068
-587.909	-112.353	-0.181	-0.036
-586.894	66.253	0.198	-0.202
-585.879	12.702	0.312	0.241
-584.865	-8.748	0.278	0.187
-583.850	800.000	-0.035	0.105
-582.836	248.326	-0.174	0.295
-581.821	-142.774	0.303	0.030
-580.806	-120.454	-0.405	-0.069
-579.792	-9.585	-0.215	0.143
-578.777	-200.000	0.069	0.348
-577.763	-200.000	0.016	0.196
-576.748	-86.522	-0.376	-0.115
-575.733	-114.813	0.295	-0.056
-574.719	-111.974	-0.137	-0.028
-573.704	68.151	-0.218	-0.223
-572.690	-113.418	0.092	-0.018
-571.675	-51.775	-0.321	-0.150
-570.661	-89.406	0.302	-0.089
-569.646	-200.000	0.005	0.257
-568.631	178.520	0.090	0.132
-567.617	-20.392	-0.257	-0.158
-566.602	-106.508	-0.081	-0.018
-565.588	-130.150	0.187	0.025
-564.573	800.000	-0.023	-0.088
-563.558	-106.075	0.045	0.010
-562.544	166.675	0.150	-0.213
-561.529	-113.498	0.319	0.063
-560.515	-157.463	-0.398	-0.024
-559.500	-52.825	-0.144	-0.067
-558.485	30.723	-0.280	-0.240
-557.471	800.000	-0.038	-0.116
-556.456	800.000	0.063	0.244
-555.442	-123.262	0.378	0.060
-554.427	-200.000	0.009	0.176
-553.412	23.912	0.142	0.117
-552.398	72.857	0.137	-0.143
-551.383	-124.714	-0.226	0.035
-550.369	-73.856	0.384	-0.139
-549.354	-200.000	-0.053	-0.327
-548.339	70.457	0.118	-0.122
-547.325	267.344	0.057	-0.100
-546.310	2.658	-0.091	-0.066
-545.296	-31.751	-0.053	0.030
-544.281	34.469	0.038	-0.033
-543.266	-140.216	0.437	0.046
-542.252	-200.000	0.033	0.170
-541.237	-100.381	-0.213	-0.053
-540.223	-200.000	-0.010	-0.133
-539.208	-35.243	0.244	0.133
-538.193	59.186	-0.215	-0.211
-537.179	321.639	0.094	0.178
-536.164	120.545	0.094	-0.117
-535.150	514.372	-0.110	-0.256
-534.135	191.151	-0.128	-0.193
-533.121	-26.227	0.167	-0.098
-532.106	800.000	0.050	-0.170
-531.091	50.017	0.202	-0.191
-530.077	-200.000	0.049	0.231
-529.062	-145.954	-0.214	0.019
-528.048	-33.726	-0.175	-0.096
-527.033	110.923	0.023	0.028
-526.018	-81.491	-0.243	0.080
-525.004	800.000	-0.086	-0.284
-523.989	395.055	-0.136	0.283
-522.975	39.123	-0.106	0.095
-521.960	36.070	0.228	0.200
-520.945	-51.052	-0.159	-0.074
-519.931	800.000	0.026	0.092
-518.916	-148.654	-0.276	0.022
-517.902	-129.488	-0.155	0.021
-516.887	-100.871	0.310	-0.076
-515.872	21.690	-0.073	-0.059
-514.858	90.186	-0.086	-0.096
-513.843	800.000	-0.098	0.393
-512.829	-46.468	0.179	0.088
-511.814	-200.000	0.028	-0.237
-510.799	800.000	-0.028	-0.102
-509.785	127.196	0.087	0.110
-508.770	310.960	0.064	-0.121
-507.756	-38.347	-0.297	0.157
-506.741	-26.300	-0.401	0.235
-505.726	34.071	-0.113	0.099
-504.712	229.545	0.132	0.215
-503.697	-18.236	0.179	-0.112
-502.683	629.598	-0.135	-0.340
-501.668	-29.929	-0.204	0.116
-500.653	-200.000	-0.025	-0.319
-499.639	-118.589	0.179	-0.032
-498.624	390.764	0.185	0.382
-497.610	139.287	-0.017	-0.022
-496.595	-139.473	0.201	0.021
-495.581	145.069	0.186	0.248
-494.566	72.284	0.136	-0.142
-493.551	800.000	-0.087	0.323
-492.537	-8.713	0.079	-0.053
-491.522	-200.000	0.021	0.284
-490.508	800.000	0.064	-0.236
-489.493	-99.596	0.142	0.036
-488.478	298.182	0.036	0.065
-487.464	-200.000	0.005	-0.269
-486.449	-67.767	0.203	0.079
-485.435	245.821	0.130	0.218
-484.420	800.000	-0.115	0.474
-483.405	800.000	0.052	0.189
-482.391	-57.257	0.273	-0.120
-481.376	0.276	-0.077	0.055
-480.362	-200.000	-0.013	0.148
-479.347	-92.171	0.275	0.078
-478.332	-89.924	-0.501	0.146
-477.318	-116.162	-0.105	-0.019
-476.303	-66.456	-0.157	-0.062
-475.289	-56.851	0.178	0.078
-474.274	280.056	-0.068	0.120
-473.259	800.000	-0.067	-0.275
-472.245	-200.000	-0.005	-0.136
-471.230	800.000	-0.050	-0.183
-470.216	-41.699	0.521	-0.267
-469.201	103.099	-0.241	0.281
-468.186	-200.000	0.008	0.085
-467.172	800.000	-0.028	0.113
-466.157	-111.357	-0.059	0.012
-465.143	-8.864	-0.158	-0.106
-464.128	-200.000	-0.017	-0.115
-463.113	-39.814	0.281	0.146
-462.099	8.920	-0.058	0.044
-461.084	217.475	0.040	0.064
-460.070	473.772	-0.106	-0.237
-459.055	-0.541	-0.161	-0.114
-458.040	134.712	0.190	0.246
-457.026	-22.123	0.386	0.234
-456.011	-32.118	-0.318	0.177
-454.997	-200.000	0.009	0.081
-453.982	-122.937	-0.085	-0.014
-452.968	-77.590	0.421	0.145
-451.953	33.234	-0.187	-0.162
-450.938	76.823	0.170	-0.180
-449.924	-200.000	0.082	0.413
-448.909	-200.000	-0.070	0.413
-447.895	-200.000	0.014	0.109
-446.880	-57.730	-0.255	-0.111
-445.865	22.409	0.095	-0.077
-444.851	800.000	0.018	-0.055
-443.836	98.959	-0.146	-0.168
-442.822	128.127	0.147	0.186
-441.807	800.000	0.051	0.182
-440.792	147.556	0.327	0.439
-439.778	-119.531	-0.136	-0.023
-438.763	126.125	0.286	-0.360
-437.749	800.000	-0.015	-0.050
-436.734	39.170	-0.175	-0.156
-435.719	129.609	-0.216	-0.275
-434.705	-107.631	-0.289	0.063
-433.690	-200.000	-0.045	0.205
-432.676	-200.000	-0.015	-0.081
-431.661	-75.944	0.045	0.016
-430.646	126.746	-0.180	0.227
-429.632	-31.853	0.081	-0.045
-428.617	64.386	0.277	0.278
-427.603	238.569	-0.159	-0.263
-426.588	26.168	0.065	0.054
-425.573	-109.286	0.312	-0.066
-424.559	51.138	0.153	0.145
-423.544	-15.954	0.245	-0.155
-422.530	223.135	-0.235	-0.378
-421.515	-98.706	0.039	-0.010
-420.500	331.348	0.011	-0.020
-419.486	-52.221	0.217	-0.100
-418.471	-57.141	0.052	-0.023
-417.457	-117.072	0.128	-0.023
-416.442	-200.000	0.016	0.222
-415.428	24.695	-0.287	0.237
-414.413	800.000	0.046	0.136
-413.398	166.947	-0.198	-0.280
-412.384	-200.000	0.056	-0.247
-411.369	119.522	0.261	-0.321
-410.355	255.773	-0.124	-0.212
-409.340	800.000	0.084	0.293
-408.325	8.916	0.275	-0.206
-407.311	21.566	0.198	0.160
-406.296	-18.725	0.187	0.116
-405.282	-74.420	0.189	-0.068
-404.267	340.006	-0.215	-0.418
-403.252	800.000	-0.125	-0.384
-402.238	-63.308	0.259	-0.106
-401.223	-145.908	0.441	0.039
-400.209	-48.540	-0.183	-0.088
-399.194	-183.989	-0.217	-0.004
-398.179	83.847	0.160	-0.174
-397.165	-0.590	-0.208	0.147
-396.150	256.096	-0.112	-0.191
-395.136	233.902	-0.252	0.413
-394.121	223.720	0.307	0.492
-393.106	496.073	-0.133	0.305
-392.092	16.028	0.240	-0.188
-391.077	-13.559	-0.149	0.096
-390.063	-143.063	-0.145	0.014
-389.048	800.000	-0.060	0.195
-388.033	98.289	0.299	0.342
-387.019	-4.469	0.174	-0.120
-386.004	-103.163	0.238	-0.056
-384.990	800.000	-0.088	0.325
-383.975	-45.146	0.306	-0.151
-382.960	129.805	-0.168	-0.213
-381.946	-35.008	0.131	0.071
-380.931	142.322	-0.102	0.135
-379.917	-200.000	0.014	-0.468
-378.902	-162.411	0.306	0.015
-377.888	-200.000	-0.006	0.033
-376.873	-122.285	0.159	0.026
-375.858	800.000	0.064	0.214
-374.844	3.677	0.133	-0.096
-373.829	-200.000	0.000	-0.053
-372.815	-200.000	-0.017	0.271
-371.800	-62.108	0.317	0.131
-370.785	238.668	-0.159	-0.263
-369.771	712.651	-0.090	0.237
-368.756	-67.726	0.046	-0.018
-367.742	13.537	0.059	0.046
-366.727	-111.235	-0.157	-0.032
-365.712	-147.881	0.323	0.027
-364.698	75.664	-0.108	-0.114
-363.683	-200.000	-0.008	-0.169
-362.669	514.249	-0.164	0.380
-361.654	-200.000	-0.019	0.162
-360.639	-184.201	-0.265	-0.004
-359.625	49.645	-0.178	-0.166
-358.610	800.000	0.043	0.145
-357.596	136.805	0.149	-0.193
-356.581	800.000	0.093	-0.320
-355.566	-157.615	-0.523	-0.031
-354.552	244.087	-0.228	-0.381
-353.537	-74.222	-0.290	0.104
-352.523	800.000	-0.091	-0.250
-351.508	226.887	-0.196	-0.317
-350.493	-46.725	-0.163	-0.079
-349.479	39.121	-0.137	-0.122
-348.464	-19.077	-0.330	0.204
-347.450	-200.000	0.008	-0.157
-346.435	-200.000	-0.053	-0.350
-345.420	-75.447	0.243	0.086
-344.406	-154.286	0.271	-0.018
-343.391	-34.713	-0.288	-0.157
-342.377	-179.580	0.030	-0.001
-341.362	-200.000	-0.011	0.173
-340.348	57.831	-0.193	-0.188
-339.333	-200.000	0.034	-0.348
-338.318	578.256	0.095	0.230
-337.304	-80.859	0.062	0.020
-336.289	2.637	0.103	0.074
-335.275	-65.973	0.280	-0.111
-334.260	800.000	0.157	-0.473
-333.245	488.423	-0.138	-0.313
-332.231	410.421	-0.121	0.254
-331.216	365.136	-0.248	0.496
-330.202	800.000	-0.035	0.120
-329.187	366.888	-0.166	0.333
-328.172	-124.518	-0.108	0.017
-327.158	800.000	-0.137	-0.558
-326.143	605.002	0.161	-0.399
-325.129	10.353	0.263	-0.198
-324.114	-83.942	-0.200	-0.063
-323.099	482.231	0.031	0.069
-322.085	110.427	-0.191	0.227
-321.070	-104.692	0.085	0.019
-320.056	-200.000	0.041	0.214
-319.041	620.351	-0.173	0.430
-318.026	234.403	-0.175	0.286
-317.012	-44.608	-0.179	-0.089
-315.997	-200.000	0.013	-0.127
-314.983	51.483	0.129	0.121
-313.968	-200.000	-0.018	-0.106
-312.953	105.291	-0.128	-0.150
-311.939	-70.796	0.016	-0.006
-310.924	-17.533	0.403	-0.251
-309.910	-133.082	-0.134	0.017
-308.895	758.235	-0.047	0.125
-307.880	-200.000	0.001	0.138
-306.866	-148.760	-0.108	-0.009
-305.851	-102.952	-0.163	-0.038
-304.837	256.936	0.049	0.084
-303.822	5.802	-0.132	-0.097
-302.807	-76.189	-0.116	-0.041
-301.793	-4.124	0.288	0.198
-300.778	-100.266	0.269	0.066
-299.764	48.095	-0.178	0.165
-298.749	-200.000	0.011	-0.363
-297.735	6.548	-0.256	0.188
-296.720	-54.887	0.594	0.265
-295.705	152.410	-0.110	0.149
-294.691	800.000	0.038	0.157
-293.676	49.800	0.176	0.165
-292.662	80.762	0.200	0.214
-291.647	-48.114	0.027	-0.013
-290.632	-39.235	0.268	-0.139
-289.618	-200.000	0.000	0.066
-288.603	-94.919	-0.243	-0.065
-287.589	-68.988	0.220	0.084
-286.574	-70.544	-0.106	0.040
-285.559	-200.000	-0.023	0.197
-284.545	269.606	0.123	-0.213
-283.530	-5.581	0.315	0.214
-282.516	-167.465	-0.166	-0.007
-281.501	-200.000	0.022	-0.212
-280.486	242.985	-0.239	-0.397
-279.472	-14.628	-0.192	0.122
-278.457	242.931	-0.145	0.240
-277.443	14.466	0.251	-0.194
-276.428	24.066	-0.024	0.019
-275.413	195.684	-0.139	0.209
-274.399	-200.000	0.008	-0.059
-273.384	63.686	-0.115	0.114
-272.370	34.978	-0.126	0.109
-271.355	-125.816	0.064	0.010
-270.340	-84.492	-0.073	0.023
-269.326	800.000	-0.047	-0.158
-268.311	-60.847	-0.288	-0.120
-267.297	24.565	0.058	0.048
-266.282	-200.000	-0.009	-0.043
-265.267	-200.000	0.047	-0.366
-264.253	-54.674	-0.105	0.047
-263.238	588.237	0.086	-0.209
-262.224	800.000	-0.086	-0.301
-261.209	126.504	0.223	0.279
-260.195	-21.048	-0.202	-0.122
-259.180	-38.607	-0.323	0.169
-258.165	-1.959	-0.160	0.111
-257.151	-200.000	-0.055	0.326
-256.136	-106.244	0.237	0.053
-255.122	139.663	0.044	0.057
-254.107	-13.619	-0.331	0.212
-253.092	-24.427	0.138	0.081
-252.078	52.644	0.125	-0.118
-251.063	114.883	0.231	-0.278
-250.049	49.750	0.047	-0.044
-249.034	800.000	0.155	-0.538
-248.019	102.369	-0.111	0.129
-247.005	67.821	0.083	0.084
-245.990	292.239	0.075	-0.135
-244.976	170.461	-0.115	0.163
-243.961	-200.000	0.022	0.129
-242.946	6.274	0.083	0.061
-241.932	-56.452	-0.223	-0.098
-240.917	-88.402	0.099	-0.029
-239.903	-65.661	0.151	-0.060
-238.888	-76.591	0.228	0.079
-237.873	-143.081	-0.173	-0.017
-236.859	-200.000	0.043	-0.250
-235.844	-200.000	-0.017	-0.221
-234.830	156.840	-0.045	-0.062
-233.815	-185.592	0.155	0.002
-232.800	-200.000	-0.020	0.107
-231.786	-200.000	-0.044	-0.214
-230.771	-92.884	-0.193	0.053
-229.757	-5.516	-0.133	-0.090
-228.742	577.051	0.123	0.298
-227.727	7.183	-0.376	-0.277
-226.713	-113.679	-0.144	0.028
-225.698	-133.169	0.091	-0.011
-224.684	51.810	0.386	-0.363
-223.669	178.667	0.205	-0.296
-222.655	24.991	0.190	-0.155
-221.640	-183.550	-0.032	0.001
-220.625	-94.773	-0.304	0.081
-219.611	-200.000	-0.020	-0.116
-218.596	800.000	0.065	0.249
-217.582	-86.870	-0.371	0.112
-216.567	737.526	0.082	-0.217
-215.552	-13.278	0.054	0.035
-214.538	-200.000	-0.002	0.217
-213.523	-158.184	-0.025	0.001
-212.509	233.291	-0.104	-0.169
-211.494	-67.424	-0.087	-0.034
-210.479	5.714	-0.149	-0.109
-209.465	450.517	-0.059	0.130
-208.450	-98.260	-0.494	0.125
-207.436	-85.312	-0.096	0.030
-206.421	68.403	0.038	0.039
-205.406	800.000	0.066	0.199
-204.392	-26.941	-0.442	-0.255
-203.377	-200.000	-0.037	-0.264
-202.363	-9.990	-0.267	0.175
-201.348	133.090	-0.106	-0.135
-200.333	-116.924	0.114	-0.021
-199.319	131.732	-0.131	-0.167
-198.304	-111.403	-0.099	0.020
-197.290	258.602	0.096	-0.164
-196.275	-108.421	0.062	-0.013
-195.260	-2.652	-0.383	0.265
-194.246	-155.184	0.241	0.016
-193.231	-63.841	0.087	0.035
-192.217	266.447	-0.042	-0.072
-191.202	-135.088	0.129	-0.015
-190.187	800.000	0.061	-0.257
-189.173	-85.280	-0.086	0.026
-188.158	122.745	0.159	0.196
-187.144	-59.357	0.467	0.198
-186.129	-158.925	0.300	0.017
-185.114	-65.221	0.408	-0.162
-184.100	-200.000	-0.017	0.120
-183.085	-200.000	0.004	0.393
-182.071	-59.246	0.112	0.047
-181.056	49.327	0.134	-0.124
-180.042	170.177	0.136	0.192
-179.027	800.000	0.067	0.281
-178.012	338.757	-0.125	-0.240
-176.998	-127.642	-0.063	0.009
-175.983	-200.000	0.040	0.186
-174.969	-200.000	0.008	-0.191
-173.954	-200.000	-0.042	0.235
-172.939	-200.000	0.014	0.439
-171.925	-25.396	-0.211	0.123
-170.910	-142.834	-0.141	-0.014
-169.896	392.333	0.191	-0.392
-168.881	7.010	0.149	0.110
-167.866	-108.401	0.286	-0.061
-166.852	-5.287	-0.395	0.268
-165.837	800.000	0.039	-0.119
-164.823	32.119	-0.348	0.296
-163.808	-103.149	0.220	0.051
-162.793	-153.069	-0.074	-0.005
-161.779	-200.000	0.036	-0.313
-160.764	622.560	-0.128	-0.319
-159.750	-85.680	0.086	0.026
-158.735	-139.448	0.184	0.019
-157.720	-200.000	-0.040	-0.275
-156.706	55.623	0.048	-0.045
-155.691	-200.000	-0.004	-0.426
-154.677	76.934	-0.080	0.083
-153.662	-41.294	-0.134	0.068
-152.647	-85.419	0.253	-0.078
-151.633	49.149	-0.260	0.241
-150.618	-200.000	-0.057	-0.312
-149.604	127.500	-0.211	0.264
-148.589	-108.221	0.083	0.018
-147.574	800.000	-0.066	-0.249
-146.560	-200.000	-0.036	-0.242
-145.545	6.089	-0.096	0.070
-144.531	-200.000	0.017	0.100
-143.516	800.000	0.071	-0.214
-142.502	-39.971	-0.159	0.082
-141.487	-65.287	-0.106	-0.042
-140.472	352.042	0.119	-0.233
-139.458	75.399	0.145	0.151
-138.443	10.042	0.151	0.113
-137.429	800.000	-0.056	-0.159
-136.414	173.809	0.077	0.109
-135.399	-200.000	0.012	0.087
-134.385	125.633	0.115	0.142
-133.370	139.536	-0.094	0.122
-132.356	-200.000	0.037	0.196
-131.341	-128.635	-0.080	0.011
-130.326	-110.675	0.323	-0.066
-129.312	-71.111	0.140	-0.052
-128.297	61.593	0.140	-0.137
-127.283	-24.581	0.308	0.180
-126.268	364.779	-0.033	0.065
-125.253	138.666	0.242	-0.312
-124.239	-15.594	-0.384	-0.241
-123.224	167.691	0.011	-0.015
-122.210	-200.000	-0.077	0.466
-121.195	16.649	0.090	0.070
-120.180	-200.000	0.026	0.208
-119.166	-200.000	-0.054	0.236
-118.151	-111.241	-0.271	0.055
-117.137	88.133	0.109	0.119
-116.122	-39.515	0.278	0.143
-115.107	766.818	0.124	-0.332
-114.093	733.789	0.038	-0.101
-113.078	-200.000	0.018	-0.320
-112.064	800.000	0.067	-0.212
-111.049	153.044	-0.083	-0.112
-110.034	-200.000	0.022	0.196
-109.020	117.960	0.032	0.039
-108.005	-40.919	0.283	-0.144
-106.991	-200.000	0.025	-0.296
-105.976	-105.382	-0.217	0.048
-104.962	-75.106	0.079	0.028
-103.947	23.080	0.337	0.272
-102.932	-123.992	-0.151	-0.023
-101.918	302.183	0.066	-0.120
-100.903	-76.154	-0.163	-0.056
-99.889	437.749	0.088	0.188
-98.874	-200.000	0.027	0.155
-97.859	59.077	0.219	-0.212
-96.845	-29.120	0.150	0.084
-95.830	-55.681	-0.102	-0.045
-94.816	-160.449	-0.460	0.024
-93.801	138.915	-0.121	-0.157
-92.786	169.601	0.092	0.129
-91.772	800.000	0.015	0.064
-90.757	-70.486	0.433	0.161
-89.743	800.000	0.041	-0.151
-88.728	-98.804	0.119	0.030
-87.713	-18.878	-0.113	-0.069
-86.699	-37.366	0.021	-0.011
-85.684	101.930	0.163	-0.187
-84.670	-37.208	0.120	-0.063
-83.655	-200.000	-0.010	0.166
-82.640	-200.000	0.043	0.399
-81.626	-81.574	-0.188	0.061
-80.611	-56.412	-0.259	0.113
-79.597	85.397	-0.132	0.142
-78.582	-200.000	0.034	0.262
-77.567	-46.520	-0.162	0.078
-76.553	-59.815	-0.110	0.046
-75.538	37.643	0.254	-0.221
-74.524	-2.245	-0.118	-0.081
-73.509	605.273	-0.066	0.162
-72.494	-200.000	0.010	0.153
-71.480	509.121	0.080	0.183
-70.465	-18.541	0.250	0.153
-69.451	184.298	-0.053	-0.078
-68.436	-63.276	0.074	0.030
-67.422	-69.600	0.218	-0.082
-66.407	-95.049	0.114	0.030
-65.392	33.957	0.305	-0.261
-64.378	-131.862	-0.379	0.049
-63.363	28.541	-0.086	-0.072
-62.349	80.603	0.216	0.229
-61.334	-3.607	-0.877	-0.599
-60.319	-35.211	0.559	0.299
-59.305	737.372	-0.375	-0.986
-58.290	625.264	0.384	0.950
-57.276	394.177	0.569	1.164
-56.261	-200.000	96.859	596.209
-55.246	549.193	1373.492	3229.834
-54.232	161.069	2559.731	3509.842
-53.217	106.004	2262.465	2627.719
-52.203	40.922	1890.412	1674.004
-51.188	34.834	1681.053	1442.781
-50.173	32.186	1637.313	1385.684
-49.159	50.023	1684.390	1559.241
-48.144	51.545	1701.223	1586.136
-47.130	34.531	1661.152	1423.211
-46.115	31.762	1646.705	1390.269
-45.100	31.518	1642.410	1384.780
-44.086	31.523	1639.642	1382.432
-43.071	31.456	1637.617	1380.173
-42.057	31.519	1634.960	1378.343
-41.042	31.507	1633.098	1376.630
-40.027	31.585	1630.844	1375.247
-39.013	31.468	1629.425	1373.140
-37.998	31.463	1627.943	1371.798
-36.984	31.423	1626.613	1370.326
-35.969	31.646	1624.776	1370.359
-34.954	31.611	1622.845	1368.417
-33.940	31.546	1621.285	1366.576
-32.925	31.622	1619.774	1365.802
-31.911	31.609	1617.775	1363.972
-30.896	31.543	1616.112	1362.031
-29.881	31.537	1614.444	1360.525
-28.867	31.539	1612.950	1359.230
-27.852	31.639	1610.762	1358.060
-26.838	31.585	1609.579	1356.612
-25.823	31.604	1608.359	1355.672
-24.809	31.617	1607.404	1354.906
-23.794	31.640	1605.464	1353.383
-22.779	31.603	1604.403	1352.168
-21.765	31.612	1602.686	1350.731
-20.750	31.647	1600.732	1349.281
-19.736	31.673	1598.750	1347.750
-18.721	31.623	1598.297	1346.952
-17.706	31.641	1596.382	1345.415
-16.692	31.616	1595.222	1344.205
-15.677	31.677	1593.938	1343.504
-14.663	31.776	1592.196	1342.697
-13.648	31.671	1591.054	1340.922
-12.633	31.768	1589.140	1339.951
-11.619	31.698	1588.106	1338.526
-10.604	31.586	1586.833	1336.599
-9.590	31.646	1585.101	1335.518
-8.575	31.619	1584.402	1334.683
-7.560	31.764	1582.820	1334.327
-6.546	31.617	1581.890	1332.449
-5.531	31.645	1580.937	1331.793
-4.517	31.720	1579.444	1331.011
-3.502	31.653	1578.215	1329.452
-2.487	31.615	1576.842	1327.969
-1.473	31.440	1565.463	1317.104
-0.458	28.981	1546.923	1284.306
0.556	27.248	1548.959	1257.880
1.571	25.345	1572.883	1263.814
2.586	24.866	1587.191	1271.797
3.600	21.807	1532.189	1206.602
4.615	12.279	1420.398	1057.388
5.629	4.215	1355.726	959.413
6.644	2.975	1347.377	945.792
7.659	2.873	1345.848	944.007
8.673	2.830	1344.653	942.820
9.688	2.772	1343.080	941.278
10.702	2.543	1339.897	937.562
11.717	6.148	1346.933	964.554
12.731	16.176	1366.405	1040.553
13.746	24.889	1380.154	1104.965
14.761	27.271	1383.247	1122.058
15.775	27.573	1383.514	1124.044
16.790	27.757	1383.036	1124.687
17.804	27.757	1382.811	1124.403
18.819	27.923	1382.451	1125.036
19.834	28.138	1381.555	1125.527
20.848	28.110	1380.985	1124.790
21.863	28.054	1380.220	1123.726
22.877	28.150	1379.206	1123.391
23.892	28.170	1378.116	1122.528
24.907	28.049	1377.755	1121.388
25.921	28.031	1376.621	1120.262
26.936	28.156	1375.647	1120.133
27.950	28.132	1374.544	1118.991
28.965	28.088	1373.468	1117.747
29.980	28.168	1371.583	1116.601
30.994	28.078	1371.060	1115.523
32.009	28.086	1370.060	1114.663
33.023	28.066	1368.843	1113.453
34.038	28.085	1367.787	1112.611
35.053	28.035	1366.474	1111.142
36.067	28.101	1365.675	1110.794
37.082	28.119	1365.213	1110.427
38.096	28.111	1363.784	1109.118
39.111	28.042	1363.232	1108.152
40.126	28.228	1362.342	1108.460
41.140	28.103	1362.015	1107.338
42.155	28.046	1361.653	1106.602
43.169	28.122	1361.454	1106.802
44.184	28.122	1361.492	1106.733
45.199	28.060	1361.048	1105.898
46.213	28.181	1359.763	1105.487
47.228	28.147	1359.472	1104.947
48.242	28.052	1358.064	1103.131
49.257	28.127	1356.568	1102.275
50.271	28.069	1355.623	1101.056
51.286	28.035	1354.226	1099.623
52.301	28.039	1352.850	1098.430
53.315	28.144	1351.846	1098.150
54.330	28.166	1351.171	1097.633
55.344	28.147	1349.618	1096.163
56.359	28.139	1348.944	1095.473
57.374	28.062	1348.043	1094.183
58.388	28.113	1347.223	1093.723
59.403	28.139	1347.005	1093.604
60.417	28.113	1346.105	1092.620
61.432	28.076	1345.688	1091.969
62.447	28.114	1344.846	1091.411
63.461	28.085	1343.868	1090.348
64.476	28.054	1343.100	1089.445
65.490	28.145	1341.472	1088.571
66.505	28.088	1340.070	1087.001
67.520	28.133	1339.006	1086.306
68.534	28.198	1337.917	1085.710
69.549	28.136	1337.071	1084.561
70.563	28.125	1336.263	1083.746
71.578	28.128	1335.213	1082.814
72.593	28.048	1334.666	1081.802
73.607	28.134	1333.599	1081.350
74.622	28.088	1333.300	1080.741
75.636	28.116	1332.717	1080.340
76.651	28.105	1331.945	1079.550
77.666	28.230	1331.695	1079.993
78.680	28.212	1330.934	1079.170
79.695	28.101	1330.152	1077.791
80.709	28.067	1329.616	1077.058
81.724	28.165	1328.210	1076.402
82.739	28.083	1327.490	1075.238
83.753	28.165	1326.246	1074.618
84.768	28.164	1325.583	1073.978
85.782	28.086	1324.309	1072.395
86.797	28.129	1323.619	1071.994
87.812	28.162	1322.133	1070.889
88.826	28.161	1321.121	1069.966
89.841	28.122	1319.922	1068.675
90.855	28.204	1319.168	1068.448
91.870	28.102	1318.472	1067.198
92.884	28.182	1317.439	1066.730
93.899	28.164	1317.068	1066.233
94.914	28.194	1316.481	1065.836
95.928	28.311	1315.209	1065.392
96.943	28.106	1314.414	1063.466
97.957	28.338	1313.454	1063.940
98.972	28.180	1312.891	1062.470
99.987	28.299	1311.726	1062.129
101.001	28.135	1311.222	1060.676
102.016	28.120	1310.208	1059.670
103.030	28.059	1309.555	1058.698
104.045	28.182	1308.554	1058.506
105.060	28.174	1307.480	1057.497
106.074	28.174	1306.928	1056.957
107.089	28.272	1305.566	1056.327
108.103	28.271	1304.418	1055.299
109.118	28.304	1303.692	1054.807
110.133	28.344	1302.368	1053.872
111.147	28.325	1300.895	1052.481
112.162	28.237	1300.032	1051.184
113.176	28.220	1299.296	1050.395
114.191	28.132	1298.524	1049.173
115.206	28.251	1297.991	1049.333
116.220	28.362	1295.978	1048.249
117.235	28.298	1295.402	1047.323
118.249	28.355	1294.500	1046.831
119.264	28.272	1293.895	1045.771
120.279	28.320	1292.996	1045.226
121.293	28.312	1292.314	1044.538
122.308	28.285	1291.396	1043.548
123.322	28.382	1290.187	1043.032
124.337	28.357	1290.045	1042.686
125.352	28.317	1289.073	1041.580
126.366	28.472	1287.941	1041.450
127.381	28.408	1287.130	1040.341
128.395	28.378	1286.284	1039.393
129.410	28.231	1285.669	1037.971
130.424	28.280	1285.074	1037.679
131.439	28.362	1283.931	1037.126
132.454	28.287	1283.482	1036.248
133.468	28.347	1282.720	1035.880
134.483	28.362	1282.070	1035.350
135.497	28.287	1281.536	1034.405
136.512	28.352	1280.138	1033.548
137.527	28.324	1279.756	1032.990
138.541	28.273	1278.014	1031.207
139.556	28.272	1276.926	1030.230
140.570	28.207	1276.212	1029.200
141.585	28.363	1274.641	1028.717
142.600	28.314	1273.516	1027.446
143.614	28.178	1273.463	1026.549
144.629	28.249	1272.466	1026.052
145.643	28.254	1271.344	1025.085
146.658	28.158	1270.493	1023.767
147.673	28.316	1268.571	1023.014
148.687	28.302	1267.944	1022.337
149.702	28.297	1266.738	1021.244
150.716	28.194	1266.040	1020.021
151.731	28.263	1265.120	1019.574
152.746	28.250	1264.012	1018.520
153.760	28.300	1263.079	1017.955
154.775	28.254	1262.296	1016.979
155.789	28.319	1261.418	1016.538
156.804	28.325	1259.974	1015.321
157.819	28.306	1259.615	1014.837
158.833	28.387	1259.196	1014.857
159.848	28.412	1258.269	1014.158
160.862	28.318	1257.414	1012.858
161.877	28.378	1256.431	1012.308
162.892	28.385	1255.282	1011.330
163.906	28.428	1254.989	1011.245
164.921	28.355	1255.027	1010.785
165.935	28.438	1253.515	1009.931
166.950	28.439	1252.731	1009.217
167.964	28.466	1252.552	1009.130
168.979	28.450	1251.517	1008.124
169.994	28.456	1251.149	1007.769
171.008	28.425	1250.424	1006.926
172.023	28.425	1249.269	1005.905
173.037	28.387	1249.000	1005.391
174.052	28.445	1247.795	1004.654
175.067	28.433	1247.189	1004.010
176.081	28.452	1246.685	1003.617
177.096	28.428	1246.108	1002.932
178.110	28.552	1244.816	1002.485
179.125	28.491	1243.990	1001.394
180.140	28.412	1242.873	999.975
181.154	28.555	1241.310	999.408
182.169	28.387	1240.799	997.996
183.183	28.457	1239.760	997.450
184.198	28.452	1238.885	996.633
185.213	28.428	1237.776	995.522
186.227	28.529	1237.502	995.761
187.242	28.474	1236.728	994.753
188.256	28.532	1235.436	993.941
189.271	28.573	1234.527	993.342
190.286	28.488	1234.029	992.396
191.300	28.520	1233.504	992.057
192.315	28.471	1232.865	991.188
193.329	28.510	1232.700	991.180
194.344	28.569	1232.123	990.948
195.359	28.590	1231.518	990.486
196.373	28.481	1231.183	989.542
197.388	28.298	1231.124	988.419
198.402	28.463	1230.548	988.757
199.417	28.573	1229.801	988.665
200.432	28.550	1229.346	988.087
201.446	28.558	1228.328	987.227
202.461	28.589	1228.012	987.049
203.475	28.511	1226.893	985.643
204.490	28.476	1226.075	984.712
205.504	28.466	1225.434	984.054
206.519	28.531	1224.677	983.712
207.534	28.641	1223.328	983.129
208.548	28.534	1222.613	981.891
209.563	28.476	1221.893	980.918
210.577	28.637	1220.927	980.916
211.592	28.555	1220.635	980.159
212.607	28.505	1219.680	979.038
213.621	28.638	1218.859	979.002
214.636	28.799	1217.796	978.919
215.650	28.744	1216.857	977.784
216.665	28.661	1215.795	976.401
217.680	28.603	1215.594	975.846
218.694	28.639	1214.651	975.193
219.709	28.673	1213.836	974.631
220.723	28.610	1213.325	973.804
221.738	28.525	1212.612	972.696
222.753	28.541	1211.782	972.027
223.767	28.570	1211.394	971.781
224.782	28.702	1210.889	971.993
225.796	28.778	1210.183	971.740
226.811	28.720	1209.809	971.045
227.826	28.849	1208.649	970.709
228.840	28.764	1208.254	969.858
229.855	28.727	1207.460	968.942
230.869	28.635	1207.246	968.200
231.884	28.789	1206.133	968.032
232.899	28.811	1205.602	967.637
233.913	28.813	1205.017	967.093
234.928	28.800	1204.455	966.483
235.942	28.882	1203.447	966.020
236.957	28.828	1203.402	965.618
237.972	28.747	1202.647	964.501
238.986	28.737	1202.128	963.947
240.001	28.756	1201.109	963.145
241.015	28.844	1200.537	963.063
242.030	28.870	1199.920	962.615
243.045	28.947	1198.732	961.979
244.059	28.956	1197.944	961.311
245.074	28.920	1197.342	960.556
246.088	28.874	1197.087	960.024
247.103	29.034	1195.517	959.516
248.117	28.922	1195.038	958.462
249.132	29.003	1194.346	958.244
250.147	28.997	1193.870	957.747
251.161	29.042	1193.344	957.474
252.176	28.924	1192.743	956.293
253.190	29.063	1191.879	956.239
254.205	29.087	1191.052	955.612
255.220	29.040	1190.410	954.770
256.234	29.107	1190.277	954.929
257.249	29.106	1189.536	954.244
258.263	29.070	1188.968	953.517
259.278	29.086	1188.129	952.841
260.293	29.033	1187.591	952.051
261.307	29.012	1187.188	951.535
262.322	29.092	1186.495	951.309
263.336	29.122	1185.934	950.929
264.351	29.066	1185.385	950.117
265.366	29.069	1184.727	949.522
266.380	29.047	1184.036	948.772
267.395	29.049	1183.500	948.267
268.409	29.045	1182.586	947.428
269.424	29.064	1182.469	947.350
270.439	29.068	1182.190	947.064
271.453	29.110	1181.363	946.531
272.468	29.074	1180.461	945.541
273.482	29.070	1180.071	945.127
274.497	29.009	1179.298	944.110
275.512	29.194	1178.735	944.527
276.526	29.197	1178.090	943.941
277.541	29.187	1177.419	943.266
278.555	29.114	1176.614	942.164
279.570	29.170	1176.125	941.978
280.585	29.275	1174.809	941.373
281.599	29.159	1173.922	939.989
282.614	29.223	1173.670	940.032
283.628	29.158	1172.728	938.860
284.643	29.209	1172.082	938.523
285.657	29.250	1171.024	937.802
286.672	29.267	1169.986	936.970
287.687	29.253	1169.358	936.313
288.701	29.318	1168.618	935.971
289.716	29.281	1168.309	935.454
290.730	29.385	1167.113	934.939
291.745	29.342	1166.526	934.168
292.760	29.307	1166.512	933.897
293.774	29.321	1165.671	933.213
294.789	29.318	1165.621	933.075
295.803	29.380	1164.870	932.704
296.818	29.451	1163.801	932.125
297.833	29.339	1163.271	931.052
298.847	29.371	1162.664	930.644
299.862	29.437	1161.477	929.944
300.876	29.365	1161.179	929.259
301.891	29.465	1160.330	929.004
302.906	29.437	1160.053	928.558
303.920	29.493	1159.763	928.526
304.935	29.453	1158.930	927.576
305.949	29.443	1158.129	926.799
306.964	29.461	1157.553	926.347
307.979	29.522	1156.806	925.973
308.993	29.506	1156.139	925.277
310.008	29.496	1155.742	924.831
311.022	29.495	1154.882	924.057
312.037	29.600	1153.931	923.734
313.052	29.423	1153.419	922.360
314.066	29.407	1152.631	921.570
315.081	29.573	1151.432	921.356
316.095	29.542	1151.023	920.794
317.110	29.613	1150.303	920.489
318.125	29.632	1149.858	920.146
319.139	29.548	1149.591	919.436
320.154	29.572	1149.124	919.098
321.168	29.511	1148.217	917.989
322.183	29.605	1147.261	917.608
323.197	29.471	1146.923	916.595
324.212	29.625	1146.243	916.729
325.227	29.677	1145.816	916.569
326.241	29.744	1145.114	916.256
327.256	29.612	1144.662	915.160
328.270	29.654	1143.850	914.636
329.285	29.662	1143.168	914.051
330.300	29.680	1142.393	913.441
331.314	29.668	1141.558	912.633
332.329	29.715	1140.840	912.207
333.343	29.790	1139.900	911.744
334.358	29.865	1138.941	911.269
335.373	29.679	1138.678	910.064
336.387	29.832	1137.970	910.169
337.402	29.838	1137.059	909.390
338.416	29.748	1136.689	908.571
339.431	29.847	1136.074	908.482
340.446	29.790	1135.504	907.665
341.460	29.966	1134.559	907.695
342.475	29.892	1134.058	906.849
343.489	29.955	1132.876	906.136
344.504	29.939	1131.992	905.270
345.519	29.957	1131.388	904.793
346.533	30.023	1130.745	904.522
347.548	29.852	1130.099	903.088
348.562	30.075	1129.068	903.275
349.577	29.979	1128.314	902.124
350.592	29.845	1127.737	900.928
351.606	29.871	1127.439	900.739
352.621	29.974	1126.757	900.613
353.635	29.975	1125.555	899.578
354.650	30.026	1125.604	899.787
355.665	30.051	1124.633	899.053
356.679	30.040	1124.378	898.715
357.694	30.107	1123.948	898.614
358.708	29.918	1123.438	897.212
359.723	30.141	1122.167	897.198
360.738	30.035	1121.452	896.035
361.752	30.109	1121.173	896.089
362.767	29.984	1121.042	895.302
363.781	29.989	1120.093	894.490
364.796	30.204	1119.492	894.966
365.810	30.198	1118.963	894.438
366.825	30.143	1118.259	893.530
367.840	30.096	1118.417	893.348
368.854	30.224	1117.430	893.098
369.869	30.259	1116.475	892.423
370.883	30.274	1115.455	891.602
371.898	30.131	1115.315	890.726
372.913	30.157	1114.775	890.339
373.927	30.209	1114.315	890.141
374.942	30.275	1113.600	889.810
375.956	30.312	1113.457	889.792
376.971	30.305	1112.408	888.844
377.986	30.274	1112.125	888.391
379.000	30.344	1111.751	888.347
380.015	30.474	1110.548	887.931
381.029	30.390	1110.303	887.251
382.044	30.339	1109.817	886.541
383.059	30.344	1109.106	885.918
384.073	30.388	1108.364	885.458
385.088	30.387	1107.503	884.687
386.102	30.359	1106.456	883.642
387.117	30.388	1105.870	883.233
388.132	30.486	1104.736	882.714
389.146	30.406	1104.460	882.036
390.161	30.468	1104.129	881.988
391.175	30.382	1103.233	880.786
392.190	30.412	1102.476	880.245
393.205	30.405	1102.023	879.770
394.219	30.376	1101.379	879.042
395.234	30.467	1100.479	878.678
396.248	30.394	1099.596	877.549
397.263	30.576	1098.425	877.397
398.278	30.524	1098.154	876.859
399.292	30.542	1097.505	876.348
400.307	30.540	1097.077	875.919
401.321	30.580	1096.448	875.527
402.336	30.519	1095.638	874.515
403.350	30.463	1095.467	874.040
404.365	30.613	1094.822	874.150
405.380	30.648	1093.560	873.232
406.394	30.650	1092.641	872.429
407.409	30.674	1092.203	872.115
408.423	30.770	1091.551	871.965
409.438	30.661	1090.803	870.779
410.453	30.673	1090.328	870.379
411.467	30.709	1089.571	869.870
412.482	30.743	1089.015	869.508
413.496	30.665	1088.711	868.824
414.511	30.717	1087.771	868.237
415.526	30.684	1087.721	867.967
416.540	30.759	1087.044	867.700
417.555	30.727	1086.361	866.931
418.569	30.683	1086.126	866.461
419.584	30.796	1085.682	866.552
420.599	30.946	1084.945	866.588
421.613	106.269	1323.919	1461.892
422.628	98.929	1358.727	1461.984
