DTS Sentinel unit serial number:	SN413079Multiplexer serial number:	ORYXHardware model number:	OX4-SRSoftware version number:	ORYX F/W v4.00 Oryx Data Collector v3.7.2.0data status	okinstallation	princeton_trtdifferential loss correction	single-endedforward channel	channel 2reverse channel	N/Adate	2019/09/18time	12:11:35forward acquisition time	60.00reverse acquisition time	0.00gamma	496.2192k internal	0.2325k external	0.2325temperature offset calibration	0.9989default loss term (dB/km)	0.3790temperature slope calibration	1.0000multiplexer offset coefficient	1.0000multiplexer slope coefficient	1.0000fibre end	0.00T internal ref (°C)	31.69T ext. ref 1 (°C)	0.50T ext. ref 2 (°C)	27.22length (m)	temperature (°C)	Stokes	anti-Stokes-747.200	-56.688	0.143	0.064
-746.185	-18.655	-0.224	0.141
-745.171	571.738	-0.051	-0.126
-744.156	-128.992	0.211	0.030
-743.142	800.000	-0.024	0.094
-742.127	152.190	-0.158	0.218
-741.112	-200.000	0.013	-0.142
-740.098	-20.083	-0.121	-0.075
-739.083	-70.812	-0.156	0.059
-738.069	800.000	-0.070	0.248
-737.054	-30.048	-0.349	-0.200
-736.039	-140.121	-0.159	0.017
-735.025	4.444	0.217	0.161
-734.010	-200.000	-0.042	-0.312
-732.996	-200.000	-0.015	-0.331
-731.981	317.383	0.042	0.081
-730.966	-200.000	-0.045	-0.250
-729.952	-19.732	-0.047	-0.029
-728.937	-44.288	-0.210	0.106
-727.923	-130.663	-0.120	0.016
-726.908	-156.009	-0.299	-0.019
-725.894	-84.977	0.176	-0.056
-724.879	-200.000	0.014	0.103
-723.864	800.000	0.059	-0.257
-722.850	-51.835	-0.252	-0.118
-721.835	-101.678	0.160	0.039
-720.821	800.000	0.055	0.217
-719.806	44.668	0.132	-0.122
-718.791	800.000	-0.112	-0.318
-717.777	-8.310	0.173	0.118
-716.762	800.000	-0.040	-0.160
-715.748	-153.751	-0.331	-0.023
-714.733	385.671	0.071	0.148
-713.718	-136.562	-0.258	-0.030
-712.704	-200.000	0.045	0.214
-711.689	800.000	-0.021	-0.062
-710.675	-93.299	0.272	0.076
-709.660	-75.249	0.165	-0.059
-708.645	800.000	-0.073	0.303
-707.631	-111.311	-0.316	-0.065
-706.616	350.412	0.040	-0.080
-705.602	109.915	-0.105	-0.126
-704.587	-62.862	-0.144	0.060
-703.572	-200.000	0.052	0.448
-702.558	325.521	-0.081	0.156
-701.543	-51.111	0.380	0.179
-700.529	617.041	0.130	0.329
-699.514	-112.774	-0.334	0.067
-698.499	800.000	0.098	-0.299
-697.485	-200.000	0.016	0.431
-696.470	67.488	0.169	0.174
-695.456	-65.627	-0.517	0.209
-694.441	-77.844	-0.256	-0.089
-693.426	-200.000	-0.477	-0.001
-692.412	-200.000	0.016	0.277
-691.397	-166.816	-0.123	0.005
-690.383	800.000	0.108	0.391
-689.368	-200.000	-0.008	-0.153
-688.354	-160.133	-0.112	0.006
-687.339	28.701	-0.149	-0.127
-686.324	-56.597	0.383	-0.171
-685.310	35.239	-0.344	-0.303
-684.295	-200.000	0.012	-0.218
-683.281	54.722	-0.164	0.159
-682.266	-100.357	0.134	0.033
-681.251	-200.000	-0.008	-0.152
-680.237	-3.500	0.083	-0.058
-679.222	138.108	0.163	-0.215
-678.208	-174.811	0.062	-0.002
-677.193	-142.577	-0.091	0.009
-676.178	0.507	-0.097	-0.070
-675.164	184.003	-0.258	0.385
-674.149	-90.390	-0.251	-0.073
-673.135	15.412	0.155	-0.123
-672.120	-155.159	0.370	-0.024
-671.105	-142.241	-0.218	-0.022
-670.091	454.400	-0.081	0.181
-669.076	38.143	-0.150	0.135
-668.062	233.636	-0.171	0.283
-667.047	-105.194	-0.262	0.060
-666.032	-140.097	0.026	-0.003
-665.018	-200.000	-0.002	-0.118
-664.003	-152.225	0.104	0.008
-662.989	-200.000	-0.011	-0.065
-661.974	-9.758	0.118	-0.079
-660.959	-33.658	0.173	-0.096
-659.945	-131.660	0.226	-0.030
-658.930	-121.305	-0.054	0.009
-657.916	-200.000	0.031	-0.287
-656.901	-200.000	-0.034	-0.208
-655.886	54.396	-0.070	0.068
-654.872	-200.000	-0.001	-0.115
-653.857	-105.238	0.229	0.053
-652.843	65.684	0.152	-0.155
-651.828	138.634	0.129	0.171
-650.814	-200.000	-0.008	-0.059
-649.799	-146.741	0.200	0.017
-648.784	142.020	-0.084	-0.112
-647.770	363.837	-0.048	-0.097
-646.755	477.778	-0.058	0.132
-645.741	800.000	-0.064	0.208
-644.726	201.764	0.138	0.214
-643.711	369.836	0.118	0.240
-642.697	-125.406	-0.346	0.053
-641.682	57.812	0.078	0.077
-640.668	-135.234	-0.203	0.024
-639.653	95.982	0.251	-0.288
-638.638	-73.257	-0.079	0.029
-637.624	405.209	0.041	-0.087
-636.609	-200.000	0.010	-0.378
-635.595	400.539	0.117	0.248
-634.580	800.000	0.040	0.145
-633.565	327.426	-0.127	0.245
-632.551	-161.457	0.489	0.025
-631.536	-134.403	-0.206	0.025
-630.522	800.000	0.028	-0.115
-629.507	391.248	0.094	0.196
-628.492	-145.057	-0.176	-0.016
-627.478	109.938	0.177	-0.214
-626.463	96.452	0.353	0.406
-625.449	-200.000	-0.005	0.185
-624.434	-85.375	-0.270	-0.085
-623.419	71.251	-0.284	-0.296
-622.405	-200.000	-0.074	-0.327
-621.390	-112.015	0.079	-0.016
-620.376	431.840	-0.067	0.146
-619.361	800.000	0.019	0.065
-618.346	39.120	-0.108	0.097
-617.332	800.000	0.073	-0.214
-616.317	109.327	0.109	0.132
-615.303	-200.000	0.003	0.116
-614.288	-120.736	-0.013	-0.002
-613.273	800.000	0.120	-0.458
-612.259	341.653	0.049	-0.097
-611.244	-200.000	-0.042	-0.197
-610.230	-200.000	0.015	-0.088
-609.215	334.975	0.029	0.057
-608.201	182.147	0.086	-0.127
-607.186	-109.806	-0.333	-0.070
-606.171	60.528	0.195	-0.194
-605.157	-42.951	0.201	0.103
-604.142	-35.599	0.088	0.048
-603.128	64.213	-0.194	0.196
-602.113	-40.907	0.497	-0.258
-601.098	-84.498	-0.211	-0.067
-600.084	-200.000	-0.014	-0.131
-599.069	63.399	-0.067	-0.067
-598.055	-116.219	0.024	0.004
-597.040	-114.722	0.223	-0.043
-596.025	31.084	-0.056	-0.048
-595.011	-151.511	0.223	-0.017
-593.996	271.646	-0.160	-0.283
-592.982	-89.644	-0.154	0.045
-591.967	800.000	0.022	-0.093
-590.952	-1.399	0.161	-0.114
-589.938	56.638	0.173	-0.169
-588.923	621.432	0.091	-0.229
-587.909	-52.364	-0.172	0.080
-586.894	-113.930	-0.296	-0.058
-585.879	-200.000	-0.007	0.083
-584.865	-67.852	0.022	0.009
-583.850	125.423	0.087	0.111
-582.836	-200.000	0.097	0.482
-581.821	-200.000	-0.017	-0.096
-580.806	61.301	0.128	-0.128
-579.792	15.708	0.171	-0.135
-578.777	-81.917	0.363	0.119
-577.763	800.000	0.084	-0.367
-576.748	-100.429	0.182	0.045
-575.733	24.956	-0.202	0.168
-574.719	-113.161	-0.075	0.015
-573.704	184.063	0.241	-0.358
-572.690	-59.357	-0.315	0.136
-571.675	195.717	0.116	-0.177
-570.661	-160.631	0.329	0.018
-569.646	-98.725	0.263	-0.067
-568.631	178.737	-0.029	0.042
-567.617	-200.000	-0.021	0.155
-566.602	800.000	-0.056	-0.168
-565.588	77.048	-0.265	0.282
-564.573	-200.000	0.041	0.184
-563.558	700.101	0.071	-0.188
-562.544	800.000	-0.089	0.319
-561.529	360.811	0.077	-0.154
-560.515	-98.766	0.268	-0.068
-559.500	215.851	-0.088	0.141
-558.485	12.581	-0.105	0.081
-557.471	-54.448	0.130	-0.059
-556.456	370.768	-0.126	0.256
-555.442	87.016	0.143	-0.159
-554.427	16.731	-0.236	0.187
-553.412	25.086	0.109	-0.091
-552.398	-200.000	0.000	0.132
-551.383	-200.000	0.017	0.210
-550.369	-135.328	-0.336	-0.040
-549.354	-36.116	-0.077	-0.042
-548.339	388.390	-0.057	-0.118
-547.325	-200.000	0.005	-0.302
-546.310	-33.747	0.106	-0.059
-545.296	-182.815	0.251	0.005
-544.281	261.025	-0.120	0.209
-543.266	0.789	0.536	-0.384
-542.252	37.575	0.040	0.035
-541.237	80.992	-0.155	0.168
-540.223	800.000	0.034	-0.128
-539.208	-83.418	0.201	0.065
-538.193	519.130	-0.029	0.068
-537.179	-200.000	0.037	0.289
-536.164	101.938	-0.108	0.126
-535.150	-106.238	-0.154	-0.035
-534.135	191.525	0.167	0.252
-533.121	95.823	0.109	0.125
-532.106	800.000	-0.106	0.338
-531.091	-80.627	-0.192	0.064
-530.077	133.319	-0.144	-0.186
-529.062	-128.119	0.306	0.044
-528.048	-177.228	0.322	-0.008
-527.033	5.537	-0.215	0.159
-526.018	-119.782	-0.256	-0.044
-525.004	-78.606	-0.188	0.064
-523.989	73.987	0.080	-0.084
-522.975	54.329	0.226	-0.217
-521.960	-95.308	-0.278	-0.075
-520.945	7.884	0.219	0.164
-519.931	-28.341	-0.315	-0.182
-518.916	-32.367	-0.295	-0.164
-517.902	-90.496	0.455	-0.132
-516.887	800.000	0.030	-0.097
-515.872	367.875	0.266	-0.538
-514.858	-5.622	-0.218	-0.149
-513.843	800.000	0.027	0.111
-512.829	-15.684	0.357	-0.228
-511.814	66.283	-0.113	-0.115
-510.799	142.622	-0.119	-0.159
-509.785	800.000	0.055	0.154
-508.770	-47.546	-0.240	0.117
-507.756	-200.000	-0.038	-0.328
-506.741	202.174	0.064	0.099
-505.726	-139.534	-0.297	-0.032
-504.712	800.000	-0.060	0.212
-503.697	-148.021	-0.199	0.017
-502.683	2.870	-0.280	-0.203
-501.668	210.156	0.084	-0.132
-500.653	-58.360	0.109	-0.048
-499.639	404.209	0.115	0.242
-498.624	-92.723	0.263	-0.074
-497.610	131.092	-0.347	0.445
-496.595	79.228	-0.094	0.101
-495.581	215.548	0.089	-0.142
-494.566	118.291	0.039	-0.048
-493.551	62.310	-0.180	-0.179
-492.537	149.887	-0.080	0.108
-491.522	-70.563	0.294	0.111
-490.508	-200.000	0.044	0.400
-489.493	800.000	-0.046	-0.153
-488.478	-65.963	0.047	0.019
-487.464	-200.000	0.185	-0.000
-486.449	66.453	-0.233	0.237
-485.435	-103.666	-0.090	0.021
-484.420	-200.000	-0.006	-0.312
-483.405	-108.432	0.064	0.014
-482.391	-169.647	-0.162	0.006
-481.376	290.873	0.118	-0.213
-480.362	531.241	0.138	-0.327
-479.347	87.224	0.390	-0.431
-478.332	-200.000	0.006	0.090
-477.318	209.669	0.097	-0.152
-476.303	-200.000	-0.049	0.216
-475.289	-43.102	-0.090	0.046
-474.274	-81.196	-0.210	0.069
-473.259	-200.000	-0.008	0.289
-472.245	800.000	0.107	0.308
-471.230	-162.931	-0.077	0.004
-470.216	100.872	0.187	-0.217
-469.201	89.459	-0.216	-0.241
-468.186	-101.279	-0.092	0.022
-467.172	-19.822	-0.270	0.167
-466.157	-200.000	0.052	-0.336
-465.143	-113.107	-0.136	0.027
-464.128	225.863	-0.048	-0.077
-463.113	-0.561	-0.239	-0.169
-462.099	800.000	-0.100	-0.311
-461.084	-135.631	0.198	0.023
-460.070	800.000	0.068	0.280
-459.055	-162.739	0.279	-0.014
-458.040	796.728	-0.103	-0.283
-457.026	332.514	0.189	-0.364
-456.011	-128.871	-0.082	-0.012
-454.997	-200.000	-0.018	-0.177
-453.982	98.122	0.162	0.186
-452.968	-200.000	-0.024	-0.138
-451.953	268.469	0.089	-0.156
-450.938	-126.872	0.216	0.032
-449.924	49.641	-0.066	-0.062
-448.909	-200.000	-0.014	-0.066
-447.895	800.000	-0.039	0.158
-446.880	-67.731	-0.272	-0.106
-445.865	-118.875	0.349	0.061
-444.851	-107.458	-0.436	-0.095
-443.836	-34.701	-0.155	0.084
-442.822	-200.000	-0.019	-0.303
-441.807	-51.489	0.198	0.092
-440.792	-34.918	0.295	-0.160
-439.778	-65.144	-0.078	0.032
-438.763	72.703	0.312	0.325
-437.749	800.000	-0.024	0.087
-436.734	553.082	-0.095	-0.228
-435.719	-161.722	-0.074	0.004
-434.705	443.147	0.050	-0.110
-433.690	800.000	-0.034	0.116
-432.676	81.714	0.085	0.092
-431.661	800.000	0.074	0.297
-430.646	-0.193	-0.151	-0.107
-429.632	500.535	-0.056	-0.128
-428.617	-56.335	-0.267	0.118
-427.603	-200.000	0.018	-0.279
-426.588	-81.368	-0.156	0.051
-425.573	111.609	-0.134	-0.161
-424.559	249.802	0.099	0.167
-423.544	-123.973	0.185	-0.029
-422.530	-142.619	-0.315	-0.031
-421.515	725.789	-0.017	-0.046
-420.500	-172.756	0.199	-0.006
-419.486	155.039	0.136	-0.186
-418.471	-95.023	0.178	-0.048
-417.457	294.028	-0.178	-0.325
-416.442	-23.069	0.244	0.147
-415.428	169.628	0.114	-0.163
-414.413	-8.479	-0.099	-0.066
-413.398	-181.161	-0.378	0.007
-412.384	-133.888	-0.139	0.017
-411.369	-19.821	-0.094	-0.058
-410.355	-114.355	0.413	-0.079
-409.340	800.000	0.062	-0.231
-408.325	-6.342	0.228	0.155
-407.311	115.948	-0.182	0.222
-406.296	237.925	-0.075	-0.124
-405.282	-200.000	0.029	-0.146
-404.267	-200.000	0.007	0.133
-403.252	800.000	-0.056	0.210
-402.238	-172.599	-0.065	-0.002
-401.223	-200.000	0.052	-0.425
-400.209	-161.155	-0.248	-0.013
-399.194	-57.693	0.118	-0.051
-398.179	-155.125	-0.112	0.007
-397.165	-200.000	0.003	-0.110
-396.150	800.000	0.124	0.420
-395.136	800.000	-0.063	0.268
-394.121	720.284	0.077	-0.204
-393.106	64.656	0.120	0.120
-392.092	-200.000	-0.035	0.303
-391.077	799.034	-0.078	-0.214
-390.063	-200.000	-0.015	-0.367
-389.048	-79.564	0.189	-0.064
-388.033	-89.090	-0.120	-0.035
-387.019	5.789	0.134	-0.099
-386.004	-151.985	0.260	0.019
-384.990	-152.737	0.179	0.013
-383.975	-134.094	0.256	0.031
-382.960	-25.408	0.096	0.056
-381.946	473.035	0.043	-0.096
-380.931	-128.776	0.127	-0.018
-379.917	17.800	-0.245	0.194
-378.902	800.000	0.051	-0.200
-377.888	86.877	-0.154	0.169
-376.873	380.881	0.111	0.227
-375.858	-55.110	-0.200	-0.090
-374.844	-200.000	0.012	0.115
-373.829	305.069	-0.090	0.167
-372.815	168.910	-0.170	0.241
-371.800	-92.300	0.106	-0.030
-370.785	-61.897	-0.276	-0.115
-369.771	-200.000	0.045	0.222
-368.756	122.432	0.002	-0.003
-367.742	2.805	0.167	0.120
-366.727	431.185	0.125	0.270
-365.712	-38.836	-0.329	-0.172
-364.698	-37.124	0.246	0.131
-363.683	-200.000	-0.028	0.141
-362.669	517.790	0.046	-0.108
-361.654	246.002	-0.201	0.337
-360.639	-127.800	0.178	-0.025
-359.625	-200.000	-0.003	0.206
-358.610	46.785	-0.016	0.014
-357.596	98.294	0.104	0.119
-356.581	67.024	0.153	0.155
-355.566	800.000	-0.061	0.185
-354.552	-73.085	-0.082	-0.030
-353.537	-6.247	0.150	-0.102
-352.523	-200.000	-0.003	0.143
-351.508	-25.806	-0.182	0.106
-350.493	-92.656	0.170	-0.047
-349.479	-176.155	-0.115	0.003
-348.464	-62.444	0.219	-0.090
-347.450	-124.436	0.239	0.037
-346.435	800.000	0.022	0.067
-345.420	-112.424	-0.352	-0.070
-344.406	274.473	0.036	0.063
-343.391	-37.430	0.127	-0.067
-342.377	412.737	-0.132	-0.278
-341.362	161.819	-0.211	-0.293
-340.348	-200.000	-0.020	0.131
-339.333	-200.000	-0.034	0.175
-338.318	800.000	0.024	0.083
-337.304	-152.200	0.101	-0.007
-336.289	-4.432	-0.069	-0.047
-335.275	-169.985	-0.210	0.007
-334.260	-61.369	0.103	0.043
-333.245	88.049	0.173	-0.190
-332.231	-200.000	0.017	0.130
-331.216	-153.063	0.464	0.032
-330.202	-200.000	0.049	0.361
-329.187	-86.642	-0.133	0.040
-328.172	119.932	-0.127	0.157
-327.158	-68.503	-0.242	-0.093
-326.143	470.569	-0.073	0.162
-325.129	251.430	0.137	-0.231
-324.114	-44.485	0.267	-0.133
-323.099	562.189	0.035	-0.085
-322.085	-26.779	-0.291	0.169
-321.070	88.714	-0.233	-0.258
-320.056	-92.545	-0.272	0.076
-319.041	-130.856	-0.071	-0.009
-318.026	-78.875	0.240	0.081
-317.012	-143.628	0.203	0.019
-315.997	217.955	0.037	-0.059
-314.983	-51.104	0.243	0.113
-313.968	-66.810	0.238	0.094
-312.953	-32.385	-0.463	-0.256
-311.939	-200.000	0.006	-0.042
-310.924	-200.000	-0.004	-0.072
-309.910	-0.995	-0.224	-0.157
-308.895	120.457	0.080	-0.098
-307.880	123.375	0.116	0.145
-306.866	-77.449	0.038	0.013
-305.851	579.817	-0.088	0.215
-304.837	189.469	0.088	0.130
-303.822	324.208	-0.087	-0.165
-302.807	-52.514	-0.051	0.023
-301.793	-143.433	0.294	-0.028
-300.778	-155.322	-0.456	-0.029
-299.764	80.381	-0.112	-0.120
-298.749	-26.016	0.303	-0.177
-297.735	11.338	-0.372	-0.282
-296.720	-160.407	-0.223	0.012
-295.705	-200.000	0.052	0.410
-294.691	-55.015	0.290	-0.129
-293.676	451.553	-0.034	-0.074
-292.662	-38.458	-0.270	-0.142
-291.647	364.904	-0.052	-0.104
-290.632	23.018	-0.133	0.108
-289.618	562.603	0.072	-0.173
-288.603	7.315	-0.296	0.219
-287.589	-200.000	0.004	0.064
-286.574	105.643	0.253	0.297
-285.559	-121.505	-0.192	0.032
-284.545	-86.544	0.374	-0.114
-283.530	-200.000	0.010	0.292
-282.516	-7.109	-0.253	-0.170
-281.501	800.000	0.139	0.385
-280.486	800.000	-0.075	0.223
-279.472	59.950	-0.293	-0.287
-278.457	-99.040	0.423	0.106
-277.443	-200.000	-0.331	-0.000
-276.428	-200.000	0.001	0.045
-275.413	101.363	-0.040	-0.046
-274.399	477.107	0.056	-0.126
-273.384	58.713	-0.177	0.172
-272.370	-59.239	-0.141	0.060
-271.355	-95.643	-0.080	-0.021
-270.340	-132.033	0.235	-0.030
-269.326	-74.573	-0.384	-0.137
-268.311	-116.251	0.223	0.041
-267.297	539.670	-0.059	0.140
-266.282	-60.705	0.315	0.132
-265.267	-104.506	-0.183	-0.042
-264.253	-131.695	0.055	-0.007
-263.238	696.635	0.060	0.156
-262.224	-137.834	-0.158	-0.017
-261.209	800.000	0.013	-0.053
-260.195	209.674	0.218	-0.339
-259.180	-7.915	-0.238	0.159
-258.165	-200.000	-0.025	-0.267
-257.151	-24.336	-0.096	0.056
-256.136	-200.000	0.062	0.398
-255.122	-57.129	0.118	0.051
-254.107	-106.727	0.183	-0.040
-253.092	-106.133	0.203	0.045
-252.078	-66.282	0.224	-0.088
-251.063	-42.653	-0.249	0.125
-250.049	-200.000	0.004	0.163
-249.034	-31.406	-0.262	-0.146
-248.019	-51.268	-0.197	0.091
-247.005	267.436	-0.053	-0.092
-245.990	-200.000	0.020	-0.094
-244.976	290.960	-0.204	0.367
-243.961	159.575	-0.298	0.410
-242.946	372.561	-0.165	0.332
-241.932	-63.827	-0.171	0.069
-240.917	-52.141	-0.170	0.078
-239.903	152.804	-0.093	0.126
-238.888	232.638	0.156	-0.253
-237.873	-162.295	0.253	0.012
-236.859	-200.000	-0.036	0.358
-235.844	278.978	0.063	-0.111
-234.830	-200.000	0.026	0.170
-233.815	247.698	-0.128	-0.214
-232.800	-186.563	0.164	0.002
-231.786	-138.810	-0.417	-0.045
-230.771	637.095	0.113	-0.283
-229.757	-28.726	-0.129	0.074
-228.742	-200.000	-0.011	0.076
-227.727	-200.000	-0.024	0.148
-226.713	64.631	0.307	0.306
-225.698	-200.000	0.296	0.000
-224.684	94.441	-0.198	-0.222
-223.669	79.607	0.022	0.024
-222.655	91.367	0.098	0.109
-221.640	-1.773	-0.280	-0.195
-220.625	222.397	-0.056	-0.090
-219.611	-200.000	0.039	0.256
-218.596	800.000	-0.021	-0.072
-217.582	-200.000	0.023	0.121
-216.567	78.266	-0.118	-0.125
-215.552	-76.745	-0.133	-0.046
-214.538	650.896	-0.035	0.087
-213.523	45.311	0.156	-0.143
-212.509	-200.000	0.016	-0.082
-211.494	-200.000	0.003	-0.165
-210.479	-28.698	-0.198	-0.113
-209.465	-33.118	-0.035	-0.019
-208.450	-65.424	0.068	-0.027
-207.436	800.000	0.029	-0.083
-206.421	800.000	0.101	-0.310
-205.406	-13.172	-0.264	0.170
-204.392	408.481	0.103	0.215
-203.377	-200.000	0.018	-0.226
-202.363	41.566	-0.090	0.081
-201.348	316.387	-0.065	0.121
-200.333	-91.725	-0.371	0.104
-199.319	14.504	0.210	-0.162
-198.304	724.870	-0.086	0.225
-197.290	189.857	0.092	0.137
-196.275	800.000	-0.050	-0.206
-195.260	-200.000	0.023	0.115
-194.246	-200.000	0.039	-0.254
-193.231	51.942	-0.239	-0.225
-192.217	5.887	-0.084	0.062
-191.202	-184.414	0.256	-0.004
-190.187	114.025	0.147	-0.177
-189.173	25.999	-0.168	-0.138
-188.158	-21.721	-0.079	-0.047
-187.144	-17.900	0.228	-0.141
-186.129	-188.005	0.659	0.008
-185.114	119.437	0.051	-0.063
-184.100	324.058	0.051	-0.096
-183.085	48.469	0.332	0.307
-182.071	-103.979	0.158	0.036
-181.056	72.623	0.129	-0.133
-180.042	-116.811	0.355	0.064
-179.027	-91.059	0.344	-0.097
-178.012	5.755	-0.134	-0.097
-176.998	-200.000	0.038	0.320
-175.983	-71.696	-0.130	0.048
-174.969	-33.742	-0.090	-0.049
-173.954	-126.556	-0.094	-0.014
-172.939	-200.000	0.015	-0.143
-171.925	-89.164	0.270	0.079
-170.910	-64.342	-0.061	-0.025
-169.896	800.000	-0.091	0.316
-168.881	-200.000	-0.015	0.078
-167.866	-45.701	-0.155	0.076
-166.852	-33.561	0.295	0.161
-165.837	378.195	-0.139	-0.280
-164.823	800.000	-0.089	0.375
-163.808	-126.267	-0.150	-0.022
-162.793	-53.612	-0.182	-0.082
-161.779	-39.954	0.226	0.116
-160.764	301.200	0.085	-0.155
-159.750	-119.355	-0.180	-0.031
-158.735	-48.126	-0.211	-0.100
-157.720	-68.100	-0.317	0.122
-156.706	-2.537	-0.096	0.067
-155.691	251.441	0.067	0.112
-154.677	27.101	-0.187	0.154
-153.662	800.000	-0.013	0.036
-152.647	-34.481	-0.158	-0.085
-151.633	800.000	-0.065	0.186
-150.618	241.363	-0.127	0.210
-149.604	-40.669	-0.091	-0.046
-148.589	-200.000	0.071	-0.358
-147.574	-46.838	0.218	-0.105
-146.560	-123.993	0.128	-0.020
-145.545	232.081	-0.079	-0.128
-144.531	161.717	0.124	0.172
-143.516	258.156	-0.096	0.163
-142.502	800.000	-0.060	0.218
-141.487	696.115	0.039	0.102
-140.472	-101.717	0.289	-0.069
-139.458	800.000	0.045	0.183
-138.443	-200.000	-0.028	-0.143
-137.429	-69.817	0.057	0.021
-136.414	800.000	0.022	0.064
-135.399	617.908	0.145	-0.359
-134.385	236.032	0.155	-0.252
-133.370	800.000	0.026	-0.107
-132.356	800.000	0.093	-0.266
-131.341	-95.471	-0.275	0.073
-130.326	49.249	0.231	0.214
-129.312	800.000	0.031	0.122
-128.297	-130.107	-0.510	0.069
-127.283	-200.000	0.042	-0.273
-126.268	195.410	-0.247	-0.370
-125.253	127.656	0.197	-0.246
-124.239	-157.712	0.054	0.003
-123.224	511.714	0.109	0.250
-122.210	800.000	-0.030	-0.118
-121.195	-91.166	0.278	-0.079
-120.180	-200.000	-0.005	0.044
-119.166	-80.871	0.238	-0.078
-118.151	-127.913	0.240	-0.034
-117.137	-200.000	0.075	0.393
-116.122	800.000	0.048	0.167
-115.107	-28.986	0.067	0.038
-114.093	192.417	0.106	-0.157
-113.078	229.397	0.171	0.274
-112.064	-165.927	0.300	0.013
-111.049	535.877	0.131	0.306
-110.034	42.336	-0.280	0.251
-109.020	800.000	0.065	0.241
-108.005	709.393	0.141	0.368
-106.991	-200.000	-0.004	-0.108
-105.976	-200.000	-0.019	-0.196
-104.962	140.876	0.217	0.283
-103.947	128.573	0.206	0.258
-102.932	-37.364	-0.265	-0.139
-101.918	15.848	0.122	0.094
-100.903	-200.000	0.019	0.173
-99.889	755.608	-0.061	-0.162
-98.874	-200.000	0.030	0.210
-97.859	129.714	0.131	0.165
-96.845	-200.000	0.039	-0.191
-95.830	768.166	-0.129	-0.344
-94.816	-200.000	-0.009	-0.203
-93.801	-200.000	-0.052	0.277
-92.786	252.957	0.004	-0.007
-91.772	-46.884	-0.134	0.065
-90.757	-53.330	0.055	0.025
-89.743	-4.835	0.181	0.123
-88.728	-171.490	0.402	-0.013
-87.713	-200.000	0.042	-0.332
-86.699	-62.100	-0.132	-0.054
-85.684	-14.290	-0.311	0.197
-84.670	-121.120	0.444	-0.073
-83.655	-95.187	-0.257	-0.068
-82.640	-63.636	-0.093	0.037
-81.626	800.000	0.035	0.148
-80.611	328.985	-0.024	-0.044
-79.597	24.910	0.106	0.086
-78.582	-147.680	0.240	-0.020
-77.567	-12.220	-0.091	0.059
-76.553	-67.682	-0.040	0.016
-75.538	-135.425	-0.245	-0.029
-74.524	-98.128	0.307	0.078
-73.509	-104.445	-0.117	0.027
-72.494	25.951	0.142	0.116
-71.480	-61.047	-0.150	0.062
-70.465	-71.939	0.362	-0.132
-69.451	-149.418	-0.293	-0.023
-68.436	-200.000	-0.014	0.091
-67.422	-94.491	0.287	-0.077
-66.407	-124.239	0.292	0.045
-65.392	-200.000	-0.018	-0.185
-64.378	-200.000	-0.005	-0.043
-63.363	800.000	0.036	-0.101
-62.349	800.000	-0.135	-0.404
-61.334	36.781	-1.086	-0.943
-60.319	52.362	0.457	0.428
-59.305	310.474	-0.443	-0.814
-58.290	-200.000	0.145	1.132
-57.276	258.977	1.006	1.704
-56.261	-200.000	94.676	567.225
-55.246	514.868	1404.189	3219.401
-54.232	153.345	2611.512	3510.819
-53.217	104.209	2323.894	2684.855
-52.203	41.102	1944.405	1725.005
-51.188	34.898	1731.785	1488.224
-50.173	32.273	1687.094	1429.825
-49.159	49.707	1732.982	1603.330
-48.144	51.022	1749.366	1628.550
-47.130	34.562	1711.370	1467.868
-46.115	31.778	1697.585	1434.705
-45.100	31.602	1692.289	1428.827
-44.086	31.630	1689.638	1426.746
-43.071	31.559	1687.024	1423.942
-42.057	31.594	1684.464	1421.988
-41.042	31.612	1682.320	1420.257
-40.027	31.583	1680.542	1418.482
-39.013	31.551	1678.447	1416.417
-37.998	31.484	1677.024	1414.655
-36.984	31.619	1675.433	1414.276
-35.969	31.623	1673.860	1412.917
-34.954	31.783	1672.145	1412.626
-33.940	31.673	1671.042	1410.805
-32.925	31.725	1668.749	1409.208
-31.911	31.718	1667.253	1407.834
-30.896	31.680	1665.150	1405.720
-29.881	31.616	1663.595	1403.872
-28.867	31.639	1661.517	1402.233
-27.852	31.687	1659.788	1401.074
-26.838	31.653	1658.891	1400.011
-25.823	31.672	1657.380	1398.824
-24.809	31.663	1656.634	1398.065
-23.794	31.678	1654.782	1396.561
-22.779	31.674	1653.134	1395.085
-21.765	31.771	1651.136	1394.068
-20.750	31.672	1649.800	1392.150
-19.736	31.647	1648.833	1391.087
-18.721	31.778	1646.967	1390.429
-17.706	31.735	1645.529	1388.842
-16.692	31.692	1644.287	1387.418
-15.677	31.655	1642.509	1385.593
-14.663	31.793	1641.489	1385.696
-13.648	31.767	1639.806	1384.030
-12.633	31.762	1638.486	1382.821
-11.619	31.724	1637.218	1381.419
-10.604	31.685	1635.339	1379.490
-9.590	31.742	1633.510	1378.316
-8.575	31.812	1632.004	1377.499
-7.560	31.796	1630.834	1376.339
-6.546	31.762	1630.087	1375.411
-5.531	31.681	1629.244	1374.046
-4.517	31.760	1627.685	1373.255
-3.502	31.731	1626.374	1371.888
-2.487	31.751	1625.074	1370.881
-1.473	31.565	1613.471	1359.687
-0.458	28.751	1594.188	1323.142
0.556	23.457	1593.895	1287.980
1.571	20.801	1617.481	1287.309
2.586	19.949	1629.815	1290.667
3.600	17.935	1576.475	1233.778
4.615	10.055	1463.560	1092.247
5.629	2.179	1396.989	991.513
6.644	0.665	1387.874	975.192
7.659	0.491	1387.155	973.475
8.673	0.475	1385.971	972.456
9.688	0.379	1384.397	970.645
10.702	0.229	1381.028	967.234
11.717	3.825	1386.708	994.285
12.731	12.081	1399.799	1057.000
13.746	16.913	1406.350	1093.078
14.761	17.043	1405.692	1093.307
15.775	16.317	1403.128	1086.543
16.790	15.356	1400.992	1078.620
17.804	14.675	1397.876	1071.750
18.819	14.175	1397.178	1067.913
19.834	13.949	1395.000	1064.706
20.848	13.691	1393.952	1062.161
21.863	13.441	1392.728	1059.531
22.877	13.176	1392.156	1057.308
23.892	13.212	1390.605	1056.265
24.907	13.272	1389.829	1055.967
25.921	13.247	1388.968	1055.061
26.936	13.261	1388.104	1054.398
27.950	13.288	1386.988	1053.629
28.965	13.393	1386.099	1053.532
29.980	13.318	1385.597	1052.579
30.994	13.422	1384.271	1052.142
32.009	13.414	1383.311	1051.263
33.023	13.457	1382.465	1050.802
34.038	13.422	1380.900	1049.301
35.053	13.403	1379.644	1048.129
36.067	13.447	1378.353	1047.335
37.082	13.276	1377.931	1045.843
38.096	13.430	1376.829	1045.888
39.111	13.439	1375.429	1044.786
40.126	13.466	1374.861	1044.430
41.140	13.262	1374.611	1042.861
42.155	13.273	1373.899	1042.301
43.169	13.292	1373.793	1042.247
44.184	13.182	1373.557	1041.280
45.199	13.261	1373.098	1041.340
46.213	13.320	1372.104	1040.864
47.228	13.342	1371.446	1040.413
48.242	13.289	1370.231	1039.068
49.257	13.293	1368.744	1037.872
50.271	13.389	1367.013	1037.066
51.286	13.270	1366.064	1035.514
52.301	13.300	1364.718	1034.590
53.315	13.297	1363.578	1033.612
54.330	13.178	1362.929	1032.287
55.344	13.263	1361.651	1031.755
56.359	13.290	1360.155	1030.701
57.374	13.264	1359.182	1029.708
58.388	13.265	1358.713	1029.270
59.403	13.184	1357.844	1028.018
60.417	13.174	1357.253	1027.419
61.432	13.197	1356.317	1026.760
62.447	13.180	1355.468	1025.920
63.461	13.152	1353.908	1024.474
64.476	13.152	1353.349	1023.962
65.490	13.170	1352.052	1023.003
66.505	13.198	1350.534	1021.933
67.520	13.185	1349.313	1020.838
68.534	13.189	1348.303	1020.011
69.549	13.220	1347.054	1019.168
70.563	13.180	1345.816	1017.894
71.578	13.113	1345.384	1017.065
72.593	13.132	1344.065	1016.092
73.607	13.141	1343.036	1015.282
74.622	13.133	1341.877	1014.269
75.636	13.140	1341.375	1013.843
76.651	13.039	1340.964	1012.818
77.666	13.051	1340.311	1012.311
78.680	13.089	1339.234	1011.639
79.695	13.110	1338.571	1011.180
80.709	13.198	1337.629	1010.918
81.724	13.156	1336.830	1009.964
82.739	13.269	1335.895	1009.862
83.753	13.265	1334.945	1009.030
84.768	13.337	1333.969	1008.641
85.782	13.463	1332.594	1008.279
86.797	13.340	1331.507	1006.622
87.812	13.305	1330.228	1005.352
88.826	13.257	1329.097	1004.113
89.841	13.234	1328.299	1003.282
90.855	13.270	1327.297	1002.659
91.870	13.402	1326.349	1002.654
92.884	13.333	1325.509	1001.512
93.899	13.445	1324.207	1001.113
94.914	13.488	1323.509	1000.757
95.928	13.380	1323.121	999.726
96.943	13.464	1321.851	999.186
97.957	13.380	1321.013	997.953
98.972	13.466	1319.926	997.563
99.987	13.452	1318.961	996.661
101.001	13.362	1318.158	995.428
102.016	13.403	1316.907	994.638
103.030	13.336	1316.319	993.702
104.045	13.452	1314.846	993.202
105.060	13.350	1313.709	991.640
106.074	13.376	1312.323	990.667
107.089	13.345	1311.287	989.609
108.103	13.242	1309.993	987.927
109.118	13.302	1308.573	987.129
110.133	13.262	1307.156	985.734
111.147	13.303	1306.172	985.151
112.162	13.279	1304.646	983.770
113.176	13.359	1303.436	983.245
114.191	13.402	1302.104	982.409
115.206	13.353	1301.404	981.504
116.220	13.366	1299.738	980.239
117.235	13.371	1299.202	979.772
118.249	13.198	1297.959	977.728
119.264	13.332	1296.670	977.459
120.279	13.335	1295.471	976.489
121.293	13.244	1294.591	975.206
122.308	13.290	1294.173	975.074
123.322	13.256	1292.881	973.811
124.337	13.247	1291.511	972.640
125.352	13.311	1290.184	971.931
126.366	13.305	1289.392	971.213
127.381	13.200	1288.491	969.833
128.395	13.248	1287.163	969.031
129.410	13.388	1285.869	968.787
130.424	13.387	1285.198	968.190
131.439	13.383	1284.605	967.638
132.454	13.396	1283.575	966.851
133.468	13.387	1282.432	965.850
134.483	13.358	1281.630	964.991
135.497	13.376	1281.028	964.562
136.512	13.325	1279.643	963.132
137.527	13.463	1277.725	962.411
138.541	13.391	1276.291	960.824
139.556	13.513	1274.613	960.182
140.570	13.349	1274.495	959.062
141.585	13.485	1272.674	958.389
142.600	13.505	1271.475	957.517
143.614	13.518	1271.019	957.166
144.629	13.402	1270.228	955.818
145.643	13.489	1268.768	955.134
146.658	13.452	1267.655	953.997
147.673	13.496	1265.824	952.792
148.687	13.355	1265.091	951.345
149.702	13.422	1263.991	950.818
150.716	13.471	1262.113	949.604
151.731	13.433	1260.803	948.312
152.746	13.576	1259.734	948.244
153.760	13.561	1258.619	947.237
154.775	13.506	1257.599	946.069
155.789	13.569	1255.867	945.042
156.804	13.572	1255.480	944.687
157.819	13.540	1254.495	943.680
158.833	13.603	1253.093	942.896
159.848	13.679	1252.667	942.925
160.862	13.724	1251.088	941.912
161.877	13.567	1250.365	940.391
162.892	13.482	1249.014	938.812
163.906	13.562	1248.227	938.592
164.921	13.455	1247.446	937.314
165.935	13.569	1246.350	937.051
166.950	13.611	1245.851	936.830
167.964	13.634	1244.859	936.130
168.979	13.567	1244.264	935.222
169.994	13.614	1243.471	934.810
171.008	13.632	1242.663	934.222
172.023	13.722	1241.878	934.057
173.037	13.595	1241.033	932.624
174.052	13.684	1240.015	932.274
175.067	13.705	1238.640	931.275
176.081	13.681	1237.879	930.487
177.096	13.760	1236.918	930.128
178.110	13.679	1235.877	928.807
179.125	13.786	1234.558	928.330
180.140	13.741	1233.162	926.947
181.154	13.799	1231.877	926.226
182.169	13.747	1231.052	925.233
183.183	13.768	1229.688	924.241
184.198	13.791	1228.532	923.422
185.213	13.953	1227.013	923.096
186.227	13.816	1226.159	921.614
187.242	13.893	1224.867	920.988
188.256	13.903	1224.404	920.613
189.271	13.927	1223.302	919.837
190.286	13.804	1222.118	918.182
191.300	13.823	1221.098	917.441
192.315	13.717	1220.739	916.502
193.329	13.741	1220.241	916.180
194.344	13.830	1219.614	916.120
195.359	13.830	1219.247	915.763
196.373	13.842	1218.386	915.102
197.388	13.965	1217.638	915.140
198.402	14.022	1217.717	915.430
199.417	14.048	1216.558	914.622
200.432	14.081	1215.499	913.926
201.446	14.142	1214.426	913.374
202.461	14.122	1214.094	912.933
203.475	14.178	1212.883	912.249
204.490	14.103	1211.528	910.735
205.504	14.149	1210.269	909.961
206.519	14.124	1209.352	909.057
207.534	14.109	1208.343	908.133
208.548	14.178	1206.977	907.404
209.563	14.082	1206.407	906.368
210.577	14.099	1206.005	906.080
211.592	14.179	1204.623	905.400
212.607	14.171	1204.103	904.884
213.621	14.124	1203.030	903.743
214.636	14.279	1201.915	903.668
215.650	14.267	1201.319	903.074
216.665	14.270	1200.150	902.132
217.680	14.290	1199.440	901.624
218.694	14.275	1198.295	900.606
219.709	14.320	1197.416	900.108
220.723	14.348	1197.199	900.015
221.738	14.368	1196.251	899.328
222.753	14.394	1195.401	898.751
223.767	14.426	1194.201	897.944
224.782	14.458	1193.618	897.597
225.796	14.400	1193.232	896.915
226.811	14.401	1192.593	896.359
227.826	14.410	1191.503	895.511
228.840	14.480	1190.796	895.275
229.855	14.442	1189.998	894.395
230.869	14.419	1189.510	893.824
231.884	14.402	1188.446	892.852
232.899	14.402	1187.591	892.132
233.913	14.402	1186.942	891.566
234.928	14.440	1186.082	891.046
235.942	14.416	1185.470	890.377
236.957	14.435	1185.079	890.107
237.972	14.452	1183.785	889.149
238.986	14.485	1182.831	888.527
240.001	14.528	1182.563	888.476
241.015	14.539	1181.537	887.685
242.030	14.692	1180.370	887.545
243.045	14.546	1179.927	886.358
244.059	14.629	1179.148	886.134
245.074	14.634	1178.402	885.520
246.088	14.706	1177.425	885.089
247.103	14.704	1176.297	884.152
248.117	14.683	1175.788	883.582
249.132	14.778	1175.225	883.581
250.147	14.820	1174.285	883.022
251.161	14.813	1173.707	882.471
252.176	14.834	1172.802	881.820
253.190	14.808	1172.811	881.612
254.205	14.903	1171.752	881.242
255.220	14.803	1171.611	880.529
256.234	14.944	1170.658	880.478
257.249	15.020	1169.711	880.087
258.263	14.993	1168.980	879.320
259.278	15.019	1168.502	879.014
260.293	15.115	1167.864	878.960
261.307	14.989	1167.534	877.976
262.322	14.985	1166.880	877.387
263.336	15.002	1166.016	876.748
264.351	15.113	1165.312	876.720
265.366	15.171	1164.706	876.489
266.380	15.124	1163.975	875.618
267.395	15.126	1162.870	874.720
268.409	15.103	1162.359	874.140
269.424	15.107	1161.492	873.427
270.439	14.958	1161.549	872.618
271.453	15.166	1160.387	872.752
272.468	15.136	1159.295	871.698
273.482	15.084	1159.044	871.161
274.497	15.124	1158.388	870.800
275.512	15.165	1157.449	870.225
276.526	15.135	1156.972	869.636
277.541	15.097	1156.409	868.939
278.555	15.241	1155.406	868.857
279.570	15.332	1154.497	868.564
280.585	15.381	1153.510	868.002
281.599	15.320	1152.854	867.116
282.614	15.292	1151.964	866.224
283.628	15.311	1150.909	865.452
284.643	15.351	1149.680	864.658
285.657	15.295	1149.374	864.059
286.672	15.375	1148.236	863.541
287.687	15.350	1147.091	862.475
288.701	15.379	1146.586	862.167
289.716	15.346	1145.949	861.443
290.730	15.505	1145.037	861.496
291.745	15.482	1144.255	860.718
292.760	15.531	1143.396	860.245
293.774	15.415	1143.442	859.610
294.789	15.472	1142.848	859.377
295.803	15.559	1141.940	859.065
296.818	15.474	1141.445	858.180
297.833	15.455	1140.535	857.322
298.847	15.531	1139.827	857.106
299.862	15.574	1138.743	856.432
300.876	15.562	1138.334	855.986
301.891	15.540	1137.456	855.141
302.906	15.680	1136.767	855.260
303.920	15.685	1135.712	854.414
304.935	15.585	1135.563	853.716
305.949	15.658	1134.928	853.538
306.964	15.823	1134.099	853.674
307.979	15.678	1133.444	852.373
308.993	15.681	1132.503	851.601
310.008	15.777	1131.558	851.303
311.022	15.817	1130.912	850.941
312.037	15.800	1130.305	850.327
313.052	15.763	1129.042	849.113
314.066	15.781	1127.852	848.234
315.081	15.834	1127.049	847.820
316.095	15.698	1126.636	846.750
317.110	15.687	1125.827	846.012
318.125	15.710	1125.154	845.546
319.139	15.692	1124.347	844.775
320.154	15.854	1123.727	845.052
321.168	15.807	1123.061	844.235
322.183	15.778	1122.565	843.644
323.197	15.813	1121.796	843.170
324.212	15.832	1121.184	842.730
325.227	15.823	1120.762	842.293
326.241	15.853	1120.054	841.836
327.256	15.871	1119.272	841.262
328.270	15.797	1118.188	840.002
329.285	15.910	1117.143	839.709
330.300	15.861	1116.367	838.807
331.314	15.902	1115.477	838.268
332.329	15.967	1114.449	837.744
333.343	15.806	1113.868	836.432
334.358	15.897	1112.955	836.125
335.373	16.013	1111.960	835.879
336.387	16.059	1111.362	835.585
337.402	15.993	1110.521	834.553
338.416	16.029	1110.220	834.428
339.431	16.057	1109.173	833.708
340.446	16.155	1108.885	833.902
341.460	16.195	1107.810	833.219
342.475	16.248	1107.181	832.929
343.489	16.171	1106.070	831.642
344.504	16.185	1105.542	831.238
345.519	16.331	1103.929	830.671
346.533	16.300	1103.506	830.129
347.548	16.344	1102.865	829.786
348.562	16.381	1102.173	829.376
349.577	16.419	1101.012	828.615
350.592	16.307	1100.876	827.891
351.606	16.381	1099.679	827.282
352.621	16.271	1099.329	826.405
353.635	16.218	1098.905	825.754
354.650	16.375	1097.710	825.547
355.665	16.270	1097.269	824.634
356.679	16.351	1096.599	824.453
357.694	16.471	1095.675	824.267
358.708	16.357	1095.190	823.273
359.723	16.340	1094.757	822.792
360.738	16.483	1093.730	822.643
361.752	16.483	1093.014	822.031
362.767	16.473	1093.043	821.933
363.781	16.434	1092.406	821.194
364.796	16.509	1091.961	821.151
365.810	16.566	1091.081	820.692
366.825	16.484	1090.298	819.633
367.840	16.581	1090.168	819.933
368.854	16.606	1089.574	819.535
369.869	16.612	1088.815	818.921
370.883	16.665	1087.805	818.345
371.898	16.521	1087.100	817.044
372.913	16.638	1086.410	817.022
373.927	16.752	1085.894	817.110
374.942	16.691	1085.586	816.512
375.956	16.660	1084.828	815.720
376.971	16.748	1084.140	815.553
377.986	16.764	1083.601	815.152
379.000	16.816	1083.225	815.050
380.015	16.872	1082.718	814.864
381.029	16.857	1081.752	813.993
382.044	16.901	1080.760	813.385
383.059	16.983	1080.156	813.252
384.073	16.980	1079.306	812.524
385.088	16.903	1078.785	811.695
386.102	16.842	1077.771	810.565
387.117	16.837	1077.051	809.931
388.132	16.843	1076.128	809.193
389.146	16.925	1075.009	808.669
390.161	16.939	1074.338	808.163
391.175	16.935	1073.601	807.517
392.190	16.938	1073.013	807.019
393.205	16.952	1072.223	806.419
394.219	17.008	1071.351	805.955
395.234	17.101	1070.274	805.519
396.248	17.070	1069.278	804.550
397.263	17.049	1068.645	803.902
398.278	16.930	1068.192	802.928
399.292	16.950	1067.140	802.161
400.307	16.919	1066.441	801.414
401.321	16.959	1065.871	801.104
402.336	17.017	1065.248	800.841
403.350	16.987	1064.712	800.226
404.365	16.960	1064.142	799.600
405.380	17.069	1063.103	799.260
406.394	17.028	1062.506	798.548
407.409	17.126	1061.403	798.111
408.423	17.133	1060.603	797.468
409.438	17.175	1060.193	797.290
410.453	17.219	1059.400	796.828
411.467	17.219	1058.833	796.329
412.482	17.268	1058.130	795.961
413.496	17.346	1057.665	795.907
414.511	17.317	1057.103	795.276
415.526	17.490	1056.428	795.506
416.540	17.404	1056.017	794.725
417.555	17.463	1055.484	794.530
418.569	17.418	1055.043	793.919
419.584	17.304	1055.010	793.289
420.599	17.470	1053.867	793.135
421.613	102.190	1322.194	1462.828
422.628	94.144	1361.253	1462.923
