DTS Sentinel unit serial number:	SN413079Multiplexer serial number:	ORYXHardware model number:	OX4-SRSoftware version number:	ORYX F/W v4.00 Oryx Data Collector v3.7.2.0data status	okinstallation	princeton_trtdifferential loss correction	single-endedforward channel	channel 2reverse channel	N/Adate	2019/09/18time	16:59:35forward acquisition time	60.00reverse acquisition time	0.00gamma	496.2192k internal	0.2300k external	0.2300temperature offset calibration	1.0014default loss term (dB/km)	0.3790temperature slope calibration	1.0000multiplexer offset coefficient	1.0000multiplexer slope coefficient	1.0000fibre end	0.00T internal ref (°C)	40.06T ext. ref 1 (°C)	0.88T ext. ref 2 (°C)	34.74length (m)	temperature (°C)	Stokes	anti-Stokes-747.200	297.460	-0.012	-0.022
-746.185	-53.535	0.304	0.142
-745.171	-48.114	0.155	0.076
-744.156	68.865	0.135	0.142
-743.142	-41.695	0.098	-0.052
-742.127	800.000	-0.112	0.466
-741.112	-47.425	-0.074	-0.037
-740.098	-110.515	-0.463	0.098
-739.083	133.722	0.143	0.189
-738.069	259.541	-0.137	0.241
-737.054	-35.695	0.381	-0.211
-736.039	-200.000	-0.053	-0.332
-735.025	232.722	0.087	0.146
-734.010	185.804	-0.048	-0.073
-732.996	23.583	0.104	0.087
-731.981	107.641	-0.243	-0.295
-730.966	-40.170	0.112	-0.059
-729.952	-152.221	-0.189	0.014
-728.937	800.000	-0.101	-0.296
-727.923	19.191	-0.166	0.136
-726.908	-200.000	0.025	0.157
-725.894	-111.785	-0.398	0.082
-724.879	-69.893	-0.223	-0.087
-723.864	232.848	0.026	0.044
-722.850	-200.000	-0.022	-0.177
-721.835	145.982	0.200	-0.273
-720.821	-104.694	-0.203	-0.048
-719.806	-71.402	-0.110	-0.042
-718.791	-103.212	-0.363	-0.087
-717.777	-19.798	0.201	-0.127
-716.762	481.747	0.041	-0.094
-715.748	248.666	-0.191	-0.329
-714.733	-18.993	-0.178	0.113
-713.718	-200.000	0.022	-0.252
-712.704	-21.811	0.187	-0.116
-711.689	-125.874	0.454	-0.070
-710.675	800.000	0.086	-0.251
-709.660	-35.865	-0.281	0.155
-708.645	102.388	-0.117	-0.139
-707.631	74.585	0.092	-0.098
-706.616	19.393	0.009	0.008
-705.602	72.873	0.012	-0.013
-704.587	-200.000	-0.013	-0.403
-703.572	800.000	-0.046	-0.150
-702.558	133.764	-0.076	0.100
-701.543	800.000	-0.013	0.043
-700.529	-62.108	-0.099	0.042
-699.514	-114.113	0.092	0.018
-698.499	236.263	0.079	-0.133
-697.485	-200.000	0.008	-0.134
-696.470	-200.000	0.036	0.239
-695.456	8.606	-0.231	0.177
-694.441	-97.892	0.181	-0.048
-693.426	247.157	-0.035	-0.059
-692.412	-65.342	0.334	0.137
-691.397	247.977	0.035	0.060
-690.383	-34.469	0.084	-0.047
-689.368	-200.000	0.025	-0.177
-688.354	-200.000	-0.006	-0.032
-687.339	-145.319	0.149	0.014
-686.324	69.590	-0.200	-0.210
-685.310	99.909	-0.070	-0.083
-684.295	-72.641	0.248	-0.093
-683.281	47.668	-0.107	-0.101
-682.266	-200.000	0.001	0.058
-681.251	173.878	-0.251	0.369
-680.237	-200.000	-0.031	-0.243
-679.222	-32.001	0.094	0.054
-678.208	23.031	0.234	0.195
-677.193	57.277	-0.173	0.172
-676.178	-175.415	0.162	0.004
-675.164	-200.000	-0.032	-0.164
-674.149	-200.000	0.043	-0.194
-673.135	2.296	0.411	-0.303
-672.120	-200.000	0.002	-0.034
-671.105	580.529	0.068	-0.169
-670.091	-81.081	0.113	-0.038
-669.076	683.205	0.070	0.185
-668.062	35.422	0.102	-0.091
-667.047	571.540	-0.120	0.298
-666.032	31.129	0.117	0.102
-665.018	-91.685	-0.194	-0.056
-664.003	585.311	-0.022	-0.054
-662.989	-200.000	-0.028	-0.139
-661.974	-119.991	-0.242	0.042
-660.959	81.902	-0.266	-0.293
-659.945	-200.000	-0.010	-0.363
-658.930	-137.729	0.055	0.006
-657.916	-200.000	-0.023	0.135
-656.901	-200.000	-0.015	-0.396
-655.886	120.968	-0.273	-0.346
-654.872	621.794	0.119	-0.305
-653.857	64.566	0.143	-0.147
-652.843	443.301	0.075	-0.167
-651.828	-101.993	-0.109	0.027
-650.814	-66.359	-0.072	-0.029
-649.799	-200.000	0.008	0.131
-648.784	37.274	-0.136	0.122
-647.770	-44.329	0.137	0.070
-646.755	-200.000	0.017	-0.088
-645.741	800.000	-0.089	0.370
-644.726	-1.592	-0.141	0.101
-643.711	187.618	-0.074	-0.112
-642.697	26.296	-0.108	0.092
-641.682	-177.216	-0.560	0.014
-640.668	482.385	0.044	0.101
-639.653	-43.937	-0.260	-0.133
-638.638	198.692	-0.135	0.210
-637.624	-29.316	0.397	0.231
-636.609	171.044	0.209	-0.304
-635.595	75.869	-0.416	-0.447
-634.580	60.652	-0.152	-0.153
-633.565	800.000	0.070	-0.284
-632.551	170.752	-0.175	-0.255
-631.536	-170.506	-0.154	-0.005
-630.522	-19.664	0.227	0.143
-629.507	-80.846	-0.169	-0.057
-628.492	229.475	-0.175	0.290
-627.478	54.133	-0.126	-0.123
-626.463	-200.000	0.028	-0.213
-625.449	539.240	0.130	-0.314
-624.434	587.347	0.100	-0.251
-623.419	-69.086	0.164	0.064
-622.405	800.000	-0.082	-0.330
-621.390	800.000	0.054	-0.195
-620.376	62.584	0.125	0.127
-619.361	-200.000	0.012	0.210
-618.346	-200.000	-0.064	0.320
-617.332	-65.469	-0.065	0.026
-616.317	-200.000	0.008	-0.195
-615.303	-200.000	0.000	-0.008
-614.288	-147.728	-0.077	0.007
-613.273	-200.000	-0.018	0.104
-612.259	538.197	0.114	-0.276
-611.244	-49.731	0.258	0.125
-610.230	-200.000	0.013	-0.269
-609.215	20.991	-0.247	0.203
-608.201	-71.089	-0.114	-0.043
-607.186	175.921	-0.223	-0.328
-606.171	-93.019	-0.283	-0.080
-605.157	47.223	-0.051	0.048
-604.142	-148.038	0.336	-0.028
-603.128	153.420	-0.100	0.139
-602.113	-200.000	-0.008	0.054
-601.098	-165.192	-0.280	-0.013
-600.084	270.293	-0.164	-0.292
-599.069	-102.470	-0.241	0.059
-598.055	79.807	0.206	-0.224
-597.040	-200.000	0.009	-0.052
-596.025	-126.911	0.223	0.033
-595.011	-34.490	0.361	0.201
-593.996	109.627	-0.079	-0.096
-592.982	-200.000	0.023	-0.196
-591.967	137.798	-0.173	0.230
-590.952	413.990	0.127	-0.274
-589.938	800.000	0.101	-0.318
-588.923	-53.762	-0.306	0.142
-587.909	99.818	0.195	-0.229
-586.894	-112.668	0.429	0.087
-585.879	-70.335	-0.355	0.137
-584.865	-3.073	-0.261	0.184
-583.850	-112.783	0.301	0.061
-582.836	-200.000	-0.004	0.112
-581.821	89.106	-0.237	-0.267
-580.806	800.000	-0.013	0.056
-579.792	-70.897	-0.256	-0.098
-578.777	-200.000	0.030	-0.320
-577.763	-109.446	0.016	0.003
-576.748	800.000	-0.040	0.169
-575.733	-200.000	-0.012	0.141
-574.719	-57.856	0.348	0.154
-573.704	111.492	-0.150	0.184
-572.690	-101.579	0.088	-0.022
-571.675	297.598	-0.109	0.204
-570.661	222.719	0.111	0.181
-569.646	-95.303	-0.382	0.104
-568.631	-165.791	-0.351	0.015
-567.617	250.283	0.246	0.424
-566.602	-25.213	-0.149	-0.089
-565.588	-200.000	0.034	0.264
-564.573	-29.342	0.110	-0.064
-563.558	-43.371	-0.196	0.100
-562.544	72.692	0.140	-0.148
-561.529	800.000	0.085	-0.251
-560.515	-18.458	-0.030	-0.019
-559.500	-102.903	-0.216	-0.052
-558.485	-10.716	0.024	0.016
-557.471	-109.275	-0.133	0.029
-556.456	-32.492	0.173	-0.098
-555.442	-33.069	-0.071	-0.040
-554.427	-174.814	0.194	0.006
-553.412	-10.383	-0.088	-0.059
-552.398	146.806	-0.155	-0.211
-551.383	800.000	-0.065	0.226
-550.369	800.000	-0.056	-0.226
-549.354	-67.609	-0.181	-0.072
-548.339	-33.165	0.131	0.074
-547.325	-200.000	0.010	-0.231
-546.310	-200.000	-0.044	0.277
-545.296	135.473	0.170	0.223
-544.281	-117.383	-0.127	-0.023
-543.266	800.000	0.009	0.040
-542.252	-43.552	-0.317	-0.162
-541.237	100.489	-0.164	0.193
-540.223	-76.845	-0.260	0.092
-539.208	-3.559	-0.171	-0.120
-538.193	98.563	0.110	0.128
-537.179	-200.000	0.007	0.056
-536.164	57.252	0.052	0.051
-535.150	-200.000	-0.011	0.125
-534.135	-123.861	0.369	0.059
-533.121	26.381	-0.276	0.234
-532.106	799.776	0.079	-0.219
-531.091	-200.000	-0.018	0.300
-530.077	144.352	-0.081	-0.109
-529.062	379.645	-0.069	0.142
-528.048	-107.184	-0.105	0.023
-527.033	54.658	-0.062	-0.061
-526.018	-1.441	-0.240	0.171
-525.004	-200.000	-0.042	-0.333
-523.989	167.687	-0.056	0.081
-522.975	800.000	0.100	-0.340
-521.960	-158.769	0.347	0.020
-520.945	5.610	-0.079	-0.059
-519.931	-33.853	-0.203	0.113
-518.916	-200.000	0.036	-0.239
-517.902	241.086	-0.090	0.151
-516.887	149.586	0.147	0.201
-515.872	-101.957	-0.249	-0.061
-514.858	390.804	-0.092	0.192
-513.843	-200.000	-0.020	0.126
-512.829	800.000	-0.070	-0.298
-511.814	-136.924	-0.121	-0.014
-510.799	383.975	0.139	0.290
-509.785	302.406	-0.057	-0.107
-508.770	155.231	0.162	0.225
-507.756	64.143	0.217	-0.221
-506.741	-200.000	-0.008	-0.038
-505.726	-200.000	-0.042	0.193
-504.712	15.286	0.034	-0.027
-503.697	-100.997	-0.381	0.095
-502.683	-200.000	0.008	-0.111
-501.668	549.091	0.047	0.114
-500.653	-32.427	-0.430	-0.243
-499.639	-170.588	0.365	0.013
-498.624	-105.262	0.203	-0.047
-497.610	-41.078	0.156	0.082
-496.595	-54.461	-0.318	0.146
-495.581	-109.386	0.062	0.013
-494.566	357.034	0.088	-0.178
-493.551	520.714	0.133	0.315
-492.537	-129.282	0.080	-0.011
-491.522	-55.062	0.485	-0.221
-490.508	800.000	-0.041	-0.140
-489.493	107.953	0.149	-0.179
-488.478	630.705	0.063	-0.160
-487.464	-121.671	0.244	-0.041
-486.449	163.519	-0.051	0.072
-485.435	800.000	0.062	-0.236
-484.420	544.986	0.039	-0.094
-483.405	-110.579	0.091	-0.019
-482.391	800.000	-0.062	-0.189
-481.376	-115.915	-0.187	0.035
-480.362	-167.674	0.063	0.003
-479.347	-200.000	-0.002	0.223
-478.332	-83.904	-0.256	0.082
-477.318	340.724	0.132	-0.260
-476.303	85.482	0.206	0.229
-475.289	800.000	0.025	-0.109
-474.274	-19.492	-0.225	-0.140
-473.259	770.336	0.087	0.240
-472.245	-41.099	-0.119	0.062
-471.230	-71.348	-0.281	0.106
-470.216	723.060	-0.031	-0.083
-469.201	-1.432	0.055	-0.039
-468.186	217.125	0.156	0.252
-467.172	-13.062	-0.064	-0.042
-466.157	118.703	-0.124	-0.154
-465.143	341.754	-0.081	-0.160
-464.128	-200.000	0.011	-0.209
-463.113	800.000	0.010	0.031
-462.099	11.760	0.095	-0.074
-461.084	18.156	-0.181	-0.145
-460.070	-91.545	0.373	0.107
-459.055	151.880	0.247	-0.340
-458.040	-24.482	-0.196	-0.118
-457.026	-23.417	-0.106	-0.064
-456.011	317.532	0.144	0.275
-454.997	800.000	0.065	0.202
-453.982	-200.000	-0.041	0.235
-452.968	-13.534	0.111	0.072
-451.953	-32.811	0.070	-0.039
-450.938	-1.798	-0.135	-0.096
-449.924	1.837	-0.156	-0.113
-448.909	283.418	0.127	-0.231
-447.895	43.161	0.355	-0.327
-446.880	800.000	-0.072	-0.238
-445.865	-112.144	0.211	-0.043
-444.851	800.000	-0.023	-0.086
-443.836	-200.000	0.018	-0.322
-442.822	-137.819	0.131	0.015
-441.807	-107.361	-0.184	0.041
-440.792	-200.000	0.024	-0.201
-439.778	-31.497	0.477	0.270
-438.763	90.930	0.159	0.180
-437.749	60.983	0.188	0.188
-436.734	-182.436	-0.141	-0.003
-435.719	-173.355	-0.170	0.005
-434.705	800.000	-0.106	-0.403
-433.690	800.000	0.124	-0.466
-432.676	227.731	-0.085	0.139
-431.661	-73.900	-0.124	-0.045
-430.646	-130.764	-0.189	0.026
-429.632	78.159	0.203	-0.219
-428.617	-128.161	-0.234	-0.034
-427.603	25.386	0.085	-0.071
-426.588	-6.949	0.255	-0.174
-425.573	-200.000	-0.008	0.230
-424.559	-152.971	-0.049	0.003
-423.544	24.755	-0.172	-0.143
-422.530	319.813	0.108	0.206
-421.515	-49.106	0.127	-0.061
-420.500	73.169	0.167	-0.176
-419.486	-61.846	0.126	0.053
-418.471	491.308	-0.152	0.350
-417.457	174.686	-0.092	-0.134
-416.442	-10.739	0.105	0.070
-415.428	13.643	0.417	-0.326
-414.413	121.083	-0.117	-0.146
-413.398	-200.000	0.023	-0.164
-412.384	163.013	-0.090	-0.127
-411.369	253.136	0.053	0.091
-410.355	800.000	0.047	0.184
-409.340	29.238	-0.036	0.031
-408.325	-58.251	0.203	0.089
-407.311	-27.950	0.230	0.134
-406.296	-10.113	0.253	0.169
-405.282	-3.504	0.246	-0.172
-404.267	-139.586	-0.210	0.023
-403.252	-101.114	-0.349	0.086
-402.238	324.116	-0.072	-0.138
-401.223	-9.226	-0.158	0.107
-400.209	230.398	0.093	-0.153
-399.194	201.388	0.022	-0.034
-398.179	-122.707	-0.272	0.044
-397.165	226.014	-0.072	-0.117
-396.150	800.000	-0.066	-0.224
-395.136	-0.697	0.194	-0.138
-394.121	-200.000	-0.020	-0.094
-393.106	7.044	-0.106	0.080
-392.092	-47.825	-0.316	0.154
-391.077	-195.241	0.277	0.002
-390.063	-93.678	-0.095	0.026
-389.048	-80.301	0.345	-0.116
-388.033	-105.419	0.079	0.018
-387.019	463.096	-0.062	0.139
-386.004	800.000	0.044	0.136
-384.990	-200.000	-0.041	0.483
-383.975	-63.023	-0.057	-0.024
-382.960	53.154	-0.235	-0.226
-381.946	-124.887	0.688	-0.107
-380.931	16.982	-0.115	0.091
-379.917	-15.416	-0.250	0.161
-378.902	-200.000	0.023	0.432
-377.888	-200.000	0.082	0.365
-376.873	205.646	-0.030	0.047
-375.858	65.511	0.191	-0.194
-374.844	-116.255	-0.399	0.074
-373.829	127.029	-0.185	0.235
-372.815	757.131	-0.012	0.033
-371.800	-32.589	-0.142	-0.080
-370.785	125.563	-0.108	0.137
-369.771	169.365	-0.059	0.084
-368.756	-200.000	0.013	-0.100
-367.742	-200.000	-0.007	0.038
-366.727	-34.908	-0.099	0.054
-365.712	-200.000	-0.010	0.125
-364.698	189.209	0.033	-0.050
-363.683	32.038	-0.196	-0.170
-362.669	59.139	-0.100	-0.099
-361.654	-200.000	0.041	-0.289
-360.639	21.811	0.172	0.141
-359.625	283.166	-0.078	0.141
-358.610	-137.255	0.168	0.019
-357.596	-200.000	0.049	0.345
-356.581	2.237	-0.101	0.073
-355.566	24.106	-0.174	0.144
-354.552	-28.508	0.174	-0.101
-353.537	130.389	-0.109	-0.141
-352.523	371.010	0.153	0.312
-351.508	-43.576	0.244	-0.124
-350.493	-112.682	-0.436	0.087
-349.479	-13.494	0.100	-0.065
-348.464	800.000	0.046	-0.187
-347.450	-73.033	-0.142	-0.052
-346.435	18.438	0.158	0.127
-345.420	-57.676	0.287	-0.126
-344.406	759.018	0.048	-0.131
-343.391	-115.881	0.251	0.047
-342.377	86.409	-0.204	-0.225
-341.362	31.144	0.118	0.102
-340.348	800.000	-0.011	0.040
-339.333	451.981	0.075	0.167
-338.318	177.772	0.089	-0.130
-337.304	-37.061	0.104	0.056
-336.289	-13.881	0.136	-0.088
-335.275	448.861	-0.159	-0.351
-334.260	153.352	0.069	-0.094
-333.245	76.008	0.199	-0.211
-332.231	800.000	0.082	-0.273
-331.216	5.624	-0.105	0.078
-330.202	800.000	0.071	0.270
-329.187	-75.851	0.303	-0.108
-328.172	-200.000	-0.037	-0.289
-327.158	-94.807	-0.172	0.047
-326.143	313.504	0.090	-0.170
-325.129	800.000	0.114	0.373
-324.114	67.064	0.088	0.089
-323.099	112.718	0.089	0.108
-322.085	241.336	0.150	-0.251
-321.070	296.863	-0.101	0.186
-320.056	-61.460	0.124	-0.052
-319.041	88.150	-0.109	0.121
-318.026	18.481	0.186	-0.149
-317.012	-26.149	-0.056	-0.033
-315.997	219.612	0.137	0.220
-314.983	-132.406	-0.039	-0.005
-313.968	-80.322	-0.012	-0.004
-312.953	-200.000	0.029	-0.323
-311.939	215.915	0.069	0.110
-310.924	-200.000	-0.017	0.374
-309.910	181.133	0.183	0.270
-308.895	-38.536	-0.077	-0.041
-307.880	-200.000	0.040	-0.185
-306.866	253.882	-0.113	-0.194
-305.851	71.228	-0.107	0.111
-304.837	-15.049	-0.167	0.107
-303.822	-200.000	-0.022	-0.150
-302.807	-129.299	0.200	0.028
-301.793	-200.000	-0.005	-0.079
-300.778	-149.904	-0.302	-0.024
-299.764	88.220	0.088	-0.098
-298.749	-63.616	0.160	0.066
-297.735	-61.238	-0.087	-0.037
-296.720	-92.354	-0.088	0.025
-295.705	196.710	0.102	0.156
-294.691	800.000	0.016	-0.063
-293.676	181.249	-0.190	0.279
-292.662	-106.279	0.217	-0.049
-291.647	-200.000	-0.080	0.435
-290.632	-200.000	-0.011	0.159
-289.618	784.305	-0.044	0.122
-288.603	-160.934	0.078	-0.004
-287.589	27.226	0.117	0.098
-286.574	-3.220	0.180	0.126
-285.559	-54.370	-0.020	0.009
-284.545	-200.000	-0.006	0.158
-283.530	203.318	-0.041	-0.063
-282.516	40.973	-0.194	-0.175
-281.501	-106.747	0.076	0.017
-280.486	-200.000	-0.001	0.076
-279.472	-127.713	0.111	0.016
-278.457	14.077	-0.158	-0.123
-277.443	800.000	0.061	0.170
-276.428	-60.923	0.206	0.087
-275.413	-54.496	0.088	-0.040
-274.399	768.882	-0.109	0.296
-273.384	-83.385	-0.370	-0.119
-272.370	56.684	0.226	0.220
-271.355	82.717	-0.207	0.225
-270.340	800.000	0.036	0.133
-269.326	-200.000	-0.028	-0.301
-268.311	-200.000	0.031	-0.327
-267.297	-77.055	0.331	-0.116
-266.282	-150.390	0.213	-0.016
-265.267	-57.423	0.172	0.076
-264.253	-200.000	0.011	0.156
-263.238	-38.211	0.073	-0.039
-262.224	17.807	-0.259	-0.206
-261.209	-84.463	0.082	0.026
-260.195	-89.932	0.059	-0.017
-259.180	-52.789	0.116	0.054
-258.165	-39.838	0.226	-0.118
-257.151	319.049	0.149	0.283
-256.136	-38.668	-0.132	0.070
-255.122	60.834	-0.145	-0.144
-254.107	-55.940	-0.298	0.133
-253.092	93.111	-0.276	0.312
-252.078	-166.781	0.364	0.015
-251.063	-140.627	-0.381	0.039
-250.049	-161.579	0.122	0.006
-249.034	273.023	0.091	-0.161
-248.019	57.101	-0.321	-0.313
-247.005	61.893	0.134	-0.133
-245.990	4.595	-0.114	-0.084
-244.976	-165.938	0.277	-0.012
-243.961	505.436	-0.053	0.122
-242.946	-93.739	-0.173	0.048
-241.932	-52.760	0.147	0.068
-240.917	113.181	-0.099	0.121
-239.903	-38.120	0.050	-0.027
-238.888	200.500	0.026	0.040
-237.873	800.000	-0.042	0.169
-236.859	800.000	-0.035	-0.120
-235.844	13.164	0.073	0.057
-234.830	-137.138	-0.271	0.031
-233.815	-144.569	-0.239	-0.022
-232.800	257.152	0.067	-0.116
-231.786	-32.695	0.197	0.110
-230.771	4.396	0.137	-0.100
-229.757	115.732	0.234	-0.286
-228.742	440.835	0.030	-0.065
-227.727	-200.000	-0.011	0.255
-226.713	-180.177	-0.204	-0.004
-225.698	800.000	-0.084	-0.330
-224.684	-200.000	0.018	0.249
-223.669	-159.517	-0.245	-0.014
-222.655	217.694	-0.007	0.011
-221.640	800.000	-0.082	-0.289
-220.625	-200.000	0.004	-0.252
-219.611	41.814	0.261	-0.236
-218.596	-50.349	-0.389	0.184
-217.582	-20.596	-0.113	-0.069
-216.567	50.103	-0.106	-0.100
-215.552	-165.333	-0.383	0.017
-214.538	490.161	0.032	0.073
-213.523	114.694	0.260	0.317
-212.509	185.189	-0.183	0.271
-211.494	-170.081	-0.106	0.004
-210.479	-51.681	0.181	0.084
-209.465	-81.206	0.259	0.086
-208.450	-87.193	-0.117	-0.036
-207.436	-200.000	0.006	-0.148
-206.421	800.000	-0.092	0.334
-205.406	444.676	-0.120	-0.262
-204.392	800.000	-0.030	0.114
-203.377	201.605	-0.198	-0.305
-202.363	54.421	0.293	-0.281
-201.348	800.000	0.032	0.132
-200.333	-51.959	0.184	0.085
-199.319	-200.000	0.032	-0.217
-198.304	-31.844	0.090	-0.050
-197.290	-136.195	-0.188	-0.022
-196.275	-77.033	0.054	0.019
-195.260	-200.000	-0.008	-0.392
-194.246	800.000	-0.110	-0.445
-193.231	678.392	-0.057	0.148
-192.217	-31.230	-0.190	0.107
-191.202	-200.000	0.070	0.309
-190.187	-97.706	-0.301	-0.078
-189.173	800.000	-0.052	-0.171
-188.158	800.000	0.060	-0.181
-187.144	153.944	-0.126	0.173
-186.129	-48.722	-0.145	-0.069
-185.114	-130.562	-0.153	0.021
-184.100	146.005	0.097	0.130
-183.085	-82.780	-0.029	0.009
-182.071	266.637	0.113	0.197
-181.056	4.740	0.196	0.144
-180.042	-86.173	0.312	0.096
-179.027	-2.552	-0.436	0.305
-178.012	-71.759	0.247	0.092
-176.998	-26.834	0.104	0.061
-175.983	-200.000	-0.018	0.157
-174.969	-49.377	0.417	0.198
-173.954	-100.321	0.244	-0.061
-172.939	33.212	0.121	-0.105
-171.925	641.045	0.151	0.384
-170.910	-200.000	-0.063	-0.306
-169.896	800.000	0.080	-0.223
-168.881	88.403	-0.208	0.230
-167.866	213.027	-0.017	-0.027
-166.852	-122.665	0.189	0.030
-165.837	304.285	0.085	0.157
-164.823	517.129	0.080	-0.187
-163.808	-12.711	-0.115	-0.075
-162.793	-79.139	0.335	0.113
-161.779	10.971	0.054	-0.041
-160.764	-72.123	0.211	0.078
-159.750	-43.228	-0.150	-0.076
-158.735	-1.053	-0.079	-0.056
-157.720	368.489	-0.287	0.578
-156.706	-200.000	0.004	0.146
-155.691	305.126	0.054	0.099
-154.677	128.429	0.068	0.086
-153.662	-136.285	0.093	-0.011
-152.647	-40.921	0.081	0.042
-151.633	67.094	0.104	-0.106
-150.618	-82.185	0.273	-0.089
-149.604	440.976	-0.097	-0.211
-148.589	216.350	0.145	-0.230
-147.574	-200.000	-0.054	0.376
-146.560	38.496	0.172	0.153
-145.545	-67.439	-0.174	-0.068
-144.531	345.501	0.136	-0.266
-143.516	302.125	-0.094	-0.173
-142.502	-81.475	-0.112	-0.037
-141.487	-0.098	-0.116	0.082
-140.472	454.906	0.158	-0.350
-139.458	96.452	0.212	-0.242
-138.443	-74.561	0.150	0.054
-137.429	412.669	0.179	0.380
-136.414	800.000	0.045	-0.151
-135.399	800.000	-0.033	0.128
-134.385	-118.346	-0.279	0.049
-133.370	-53.345	-0.236	-0.108
-132.356	196.112	-0.040	-0.060
-131.341	-200.000	0.348	0.001
-130.326	47.930	-0.121	0.113
-129.312	241.580	-0.205	0.341
-128.297	-63.345	0.192	-0.079
-127.283	-138.936	-0.215	0.023
-126.268	-200.000	-0.015	0.145
-125.253	51.969	-0.213	-0.202
-124.239	-26.897	0.347	0.202
-123.224	-56.691	-0.176	0.078
-122.210	0.287	0.174	-0.124
-121.195	132.553	0.059	0.075
-120.180	-13.537	-0.292	-0.188
-119.166	-98.451	0.224	0.057
-118.151	255.384	0.071	-0.122
-117.137	-200.000	-0.011	0.362
-116.122	565.464	0.022	0.054
-115.107	-130.696	0.154	0.021
-114.093	109.195	0.012	0.014
-113.078	800.000	-0.026	0.087
-112.064	123.211	-0.073	0.091
-111.049	-7.457	0.158	-0.106
-110.034	87.379	-0.176	0.194
-109.020	-84.434	-0.212	0.067
-108.005	-64.870	-0.083	0.034
-106.991	50.948	0.148	-0.140
-105.976	-131.239	0.232	-0.031
-104.962	17.447	0.082	0.065
-103.947	102.974	-0.165	-0.192
-102.932	-92.302	0.299	-0.084
-101.918	-170.154	0.066	-0.002
-100.903	-93.657	-0.302	-0.083
-99.889	-46.955	-0.257	0.125
-98.874	419.043	0.144	0.307
-97.859	15.142	-0.160	-0.125
-96.845	-135.551	0.394	-0.047
-95.830	800.000	-0.057	0.212
-94.816	800.000	0.074	0.248
-93.801	99.193	-0.266	-0.305
-92.786	432.812	-0.042	0.091
-91.772	-12.343	-0.102	-0.067
-90.757	244.531	-0.093	-0.155
-89.743	-128.363	0.156	-0.022
-88.728	46.861	-0.044	-0.040
-87.713	188.604	-0.083	0.124
-86.699	118.033	0.237	-0.290
-85.684	-8.121	-0.164	-0.110
-84.670	93.279	-0.162	0.182
-83.655	800.000	0.061	-0.168
-82.640	288.411	-0.185	0.333
-81.626	109.660	-0.160	0.190
-80.611	84.182	0.181	0.197
-79.597	-144.724	-0.119	0.011
-78.582	-48.688	-0.133	-0.063
-77.567	136.433	-0.093	0.121
-76.553	517.562	0.114	-0.266
-75.538	-22.825	0.083	0.050
-74.524	37.730	0.159	-0.140
-73.509	315.971	0.101	0.190
-72.494	98.461	-0.163	-0.187
-71.480	-126.637	0.117	-0.017
-70.465	800.000	-0.071	0.266
-69.451	-30.125	-0.553	-0.313
-68.436	-69.986	-0.457	0.173
-67.422	-200.000	-0.014	0.141
-66.407	-5.328	0.141	-0.096
-65.392	8.270	0.101	0.076
-64.378	-80.747	0.124	-0.041
-63.363	200.284	0.191	0.291
-62.349	-24.561	0.360	0.213
-61.334	157.692	-0.768	-1.056
-60.319	337.172	0.158	0.305
-59.305	-200.000	-0.229	-1.058
-58.290	62.555	0.735	0.729
-57.276	422.609	0.671	1.431
-56.261	-200.000	77.178	512.451
-55.246	500.562	1343.722	3078.611
-54.232	142.675	2603.287	3434.196
-53.217	106.910	2386.417	2813.600
-52.203	49.002	1996.424	1861.335
-51.188	43.252	1780.177	1613.845
-50.173	40.520	1733.301	1549.967
-49.159	54.377	1769.176	1691.493
-48.144	59.123	1787.335	1746.170
-47.130	43.167	1751.445	1586.872
-46.115	40.100	1736.946	1549.694
-45.100	39.938	1732.320	1544.235
-44.086	39.855	1729.684	1541.180
-43.071	39.932	1726.917	1539.253
-42.057	39.924	1724.654	1537.109
-41.042	39.910	1722.429	1534.954
-40.027	39.991	1720.370	1533.687
-39.013	39.989	1718.900	1532.306
-37.998	39.862	1717.646	1530.137
-36.984	39.879	1716.129	1528.861
-35.969	40.089	1714.241	1528.738
-34.954	40.055	1712.805	1527.138
-33.940	40.070	1710.713	1525.327
-32.925	40.031	1708.802	1523.266
-31.911	40.070	1706.576	1521.520
-30.896	40.096	1704.338	1519.661
-29.881	40.025	1703.634	1518.425
-28.867	40.054	1701.609	1516.789
-27.852	40.112	1700.571	1516.246
-26.838	40.136	1698.774	1514.770
-25.823	40.086	1697.547	1513.227
-24.809	40.144	1696.298	1512.499
-23.794	40.123	1694.872	1511.011
-22.779	40.108	1693.263	1509.399
-21.765	40.112	1691.099	1507.440
-20.750	40.058	1689.362	1505.418
-19.736	40.085	1687.944	1504.301
-18.721	40.075	1687.088	1503.407
-17.706	40.149	1684.642	1501.728
-16.692	40.069	1683.668	1500.190
-15.677	40.059	1682.053	1498.615
-14.663	40.162	1680.946	1498.352
-13.648	40.138	1679.605	1496.918
-12.633	39.969	1678.332	1494.445
-11.619	40.068	1675.916	1492.978
-10.604	40.052	1674.331	1491.392
-9.590	40.087	1673.154	1490.544
-8.575	40.188	1671.562	1489.826
-7.560	40.064	1670.666	1488.039
-6.546	40.109	1669.258	1487.059
-5.531	40.000	1668.495	1485.503
-4.517	39.970	1667.351	1484.203
-3.502	39.975	1665.923	1482.908
-2.487	39.992	1664.830	1482.001
-1.473	39.963	1653.024	1471.223
-0.458	37.093	1631.079	1430.504
0.556	30.899	1627.286	1381.496
1.571	26.709	1648.222	1367.600
2.586	24.959	1659.516	1363.537
3.600	21.381	1604.895	1292.144
4.615	11.914	1487.540	1132.390
5.629	3.100	1414.810	1018.749
6.644	1.090	1404.303	997.872
7.659	0.860	1403.229	995.505
8.673	0.821	1402.392	994.562
9.688	0.739	1400.243	992.416
10.702	0.699	1397.588	990.185
11.717	4.073	1403.391	1016.377
12.731	12.461	1416.660	1081.266
13.746	17.487	1423.879	1119.826
14.761	17.612	1421.900	1118.990
15.775	16.852	1419.646	1112.132
16.790	15.774	1417.287	1103.123
17.804	15.076	1414.494	1096.279
18.819	14.588	1413.379	1092.125
19.834	14.280	1411.926	1088.891
20.848	13.981	1411.048	1086.169
21.863	13.746	1409.035	1082.987
22.877	13.634	1407.741	1081.166
23.892	13.574	1406.623	1079.821
24.907	13.571	1406.150	1079.339
25.921	13.523	1405.328	1078.301
26.936	13.493	1404.787	1077.598
27.950	13.698	1403.123	1077.556
28.965	13.613	1402.429	1076.376
29.980	13.708	1401.652	1076.303
30.994	13.712	1400.750	1075.542
32.009	13.734	1399.787	1074.847
33.023	13.754	1398.613	1073.984
34.038	13.724	1397.082	1072.517
35.053	13.817	1395.856	1072.081
36.067	13.780	1394.800	1070.934
37.082	13.750	1393.950	1069.997
38.096	13.733	1393.175	1069.196
39.111	13.791	1392.200	1068.727
40.126	13.674	1391.846	1067.607
41.140	13.644	1390.588	1066.356
42.155	13.545	1390.432	1065.507
43.169	13.617	1390.240	1065.724
44.184	13.513	1389.888	1064.694
45.199	13.609	1389.287	1064.754
46.213	13.586	1388.969	1064.273
47.228	13.678	1387.725	1063.811
48.242	13.625	1386.323	1062.304
49.257	13.665	1385.082	1061.517
50.271	13.653	1383.768	1060.335
51.286	13.651	1382.388	1059.173
52.301	13.723	1381.059	1058.522
53.315	13.684	1380.045	1057.405
54.330	13.634	1379.025	1056.205
55.344	13.583	1377.188	1054.386
56.359	13.566	1376.707	1053.814
57.374	13.532	1375.814	1052.818
58.388	13.515	1374.913	1051.928
59.403	13.542	1374.316	1051.555
60.417	13.518	1373.505	1050.688
61.432	13.475	1373.210	1050.091
62.447	13.513	1371.481	1048.922
63.461	13.454	1370.626	1047.799
64.476	13.449	1369.611	1046.900
65.490	13.514	1367.829	1045.858
66.505	13.439	1366.695	1044.420
67.520	13.453	1365.431	1043.455
68.534	13.609	1364.489	1043.621
69.549	13.438	1363.519	1041.710
70.563	13.529	1361.899	1040.955
71.578	13.408	1361.081	1039.477
72.593	13.430	1359.795	1038.543
73.607	13.435	1358.704	1037.649
74.622	13.478	1358.217	1037.455
75.636	13.376	1357.778	1036.386
76.651	13.405	1356.719	1035.670
77.666	13.367	1356.102	1034.870
78.680	13.388	1355.239	1034.251
79.695	13.463	1354.510	1034.069
80.709	13.448	1353.854	1033.381
81.724	13.546	1353.027	1033.272
82.739	13.522	1351.824	1032.115
83.753	13.533	1351.133	1031.563
84.768	13.612	1349.727	1030.890
85.782	13.679	1349.004	1030.660
86.797	13.605	1347.404	1028.888
87.812	13.592	1346.090	1027.713
88.826	13.594	1344.873	1026.707
89.841	13.569	1343.883	1025.704
90.855	13.695	1342.723	1025.506
91.870	13.726	1341.539	1024.704
92.884	13.628	1341.288	1023.820
93.899	13.707	1340.097	1023.307
94.914	13.695	1339.771	1022.888
95.928	13.698	1338.566	1021.900
96.943	13.630	1337.880	1020.869
97.957	13.718	1337.109	1020.731
98.972	13.667	1335.650	1019.212
99.987	13.684	1334.423	1018.287
101.001	13.679	1333.480	1017.453
102.016	13.713	1332.511	1016.828
103.030	13.705	1331.810	1016.156
104.045	13.696	1330.611	1015.094
105.060	13.741	1329.335	1014.304
106.074	13.635	1327.938	1012.506
107.089	13.485	1326.906	1010.710
108.103	13.521	1325.676	1009.906
109.118	13.502	1324.412	1008.735
110.133	13.534	1322.525	1007.405
111.147	13.421	1321.790	1006.071
112.162	13.583	1320.105	1005.683
113.176	13.626	1319.173	1005.146
114.191	13.568	1318.772	1004.398
115.206	13.673	1317.017	1003.605
116.220	13.581	1315.809	1002.042
117.235	13.653	1314.331	1001.263
118.249	13.665	1313.516	1000.624
119.264	13.515	1313.013	999.248
120.279	13.526	1312.108	998.539
121.293	13.570	1310.573	997.544
122.308	13.621	1309.064	996.615
123.322	13.655	1308.233	996.102
124.337	13.532	1307.204	994.487
125.352	13.622	1306.072	994.081
126.366	13.633	1305.153	993.357
127.381	13.671	1303.926	992.564
128.395	13.661	1302.861	991.604
129.410	13.606	1302.217	990.697
130.424	13.653	1301.166	990.093
131.439	13.722	1300.356	989.802
132.454	13.600	1299.427	988.277
133.468	13.578	1298.323	987.218
134.483	13.755	1297.323	987.427
135.497	13.775	1296.197	986.602
136.512	13.722	1294.902	985.212
137.527	13.627	1293.840	983.752
138.541	13.739	1292.227	983.104
139.556	13.740	1290.862	981.986
140.570	13.698	1290.012	981.003
141.585	13.681	1288.607	979.749
142.600	13.814	1286.796	979.070
143.614	13.911	1285.887	978.863
144.629	13.872	1284.931	977.819
145.643	13.767	1283.892	976.325
146.658	13.755	1282.822	975.353
147.673	13.730	1281.621	974.208
148.687	13.702	1280.476	973.084
149.702	13.723	1278.927	971.942
150.716	13.775	1277.005	970.703
151.731	13.804	1276.054	970.065
152.746	13.770	1274.802	968.830
153.760	13.668	1273.682	967.296
154.775	13.744	1272.528	966.779
155.789	13.799	1271.569	966.281
156.804	13.899	1270.337	965.840
157.819	13.843	1269.180	964.551
158.833	13.926	1268.230	964.225
159.848	13.942	1267.500	963.676
160.862	13.956	1266.135	962.638
161.877	13.886	1265.150	961.396
162.892	13.841	1263.810	960.033
163.906	13.893	1262.866	959.533
164.921	13.847	1262.314	958.761
165.935	13.896	1260.980	957.947
166.950	13.887	1260.456	957.412
167.964	13.881	1259.858	956.838
168.979	14.032	1258.852	956.858
169.994	14.008	1258.230	956.162
171.008	13.988	1257.401	955.333
172.023	14.008	1256.442	954.637
173.037	13.906	1256.088	953.694
174.052	14.077	1254.360	953.279
175.067	14.034	1253.200	952.070
176.081	14.007	1252.692	951.447
177.096	13.955	1251.656	950.278
178.110	14.104	1250.356	950.057
179.125	14.017	1249.000	948.447
180.140	13.942	1248.182	947.315
181.154	14.036	1247.143	946.977
182.169	13.998	1246.062	945.854
183.183	14.187	1244.103	945.356
184.198	14.097	1243.256	944.118
185.213	14.033	1242.065	942.767
186.227	14.128	1241.315	942.656
187.242	14.175	1239.797	941.682
188.256	14.195	1238.884	941.020
189.271	14.158	1238.176	940.189
190.286	14.023	1237.405	938.762
191.300	13.946	1236.473	937.536
192.315	13.999	1236.110	937.477
193.329	14.036	1234.730	936.556
194.344	14.149	1234.030	936.577
195.359	14.227	1233.098	936.226
196.373	14.233	1232.762	935.924
197.388	14.225	1232.271	935.423
198.402	14.351	1231.553	935.498
199.417	14.353	1230.808	934.865
200.432	14.343	1230.001	934.111
201.446	14.385	1228.822	933.371
202.461	14.458	1227.744	932.876
203.475	14.485	1226.822	932.245
204.490	14.347	1225.617	930.473
205.504	14.407	1224.304	929.732
206.519	14.347	1223.548	928.740
207.534	14.418	1222.337	928.131
208.548	14.358	1221.485	927.069
209.563	14.286	1220.887	926.136
210.577	14.392	1219.676	925.721
211.592	14.475	1218.509	925.215
212.607	14.496	1217.535	924.509
213.621	14.414	1217.060	923.614
214.636	14.552	1215.949	923.453
215.650	14.539	1214.948	922.540
216.665	14.516	1214.388	921.905
217.680	14.476	1213.553	920.968
218.694	14.655	1212.198	920.849
219.709	14.567	1211.598	919.825
220.723	14.723	1210.665	919.894
221.738	14.608	1210.008	918.682
222.753	14.590	1209.892	918.411
223.767	14.614	1208.817	917.646
224.782	14.780	1207.835	917.730
225.796	14.693	1207.616	917.008
226.811	14.697	1206.677	916.234
227.826	14.786	1206.019	916.139
228.840	14.683	1205.231	914.897
229.855	14.675	1204.164	913.963
230.869	14.774	1203.255	913.735
231.884	14.556	1202.706	912.045
232.899	14.737	1201.894	912.333
233.913	14.728	1201.145	911.638
234.928	14.819	1200.303	911.413
235.942	14.736	1199.716	910.436
236.957	14.652	1199.022	909.373
237.972	14.703	1198.223	908.963
238.986	14.761	1197.394	908.569
240.001	14.714	1196.716	907.715
241.015	14.789	1195.580	907.181
242.030	14.755	1194.862	906.371
243.045	14.840	1194.395	906.400
244.059	14.873	1193.554	905.861
245.074	14.860	1192.584	904.975
246.088	14.825	1192.013	904.273
247.103	14.907	1191.220	904.033
248.117	14.910	1190.815	903.661
249.132	15.013	1189.671	903.268
250.147	15.020	1188.913	902.652
251.161	15.098	1187.818	902.159
252.176	15.186	1186.786	901.773
253.190	15.143	1186.269	901.066
254.205	15.189	1186.133	901.130
255.220	15.229	1185.465	900.761
256.234	15.218	1184.581	899.951
257.249	15.227	1183.823	899.339
258.263	15.291	1183.341	899.239
259.278	15.318	1182.525	898.683
260.293	15.138	1182.334	897.494
261.307	15.214	1181.780	897.404
262.322	15.306	1180.718	897.008
263.336	15.237	1180.496	896.390
264.351	15.244	1180.042	896.004
265.366	15.432	1178.967	896.111
266.380	15.388	1178.274	895.270
267.395	15.362	1177.335	894.340
268.409	15.465	1176.240	893.978
269.424	15.389	1175.728	893.104
270.439	15.405	1175.400	892.860
271.453	15.403	1174.363	891.983
272.468	15.272	1173.661	890.677
273.482	15.393	1173.103	890.818
274.497	15.451	1172.137	890.313
275.512	15.484	1171.262	889.745
276.526	15.415	1170.818	888.960
277.541	15.523	1169.709	888.613
278.555	15.474	1169.161	887.861
279.570	15.520	1168.570	887.572
280.585	15.471	1167.767	886.627
281.599	15.577	1166.615	886.235
282.614	15.633	1165.504	885.607
283.628	15.597	1164.255	884.392
284.643	15.563	1163.510	883.568
285.657	15.534	1163.048	882.982
286.672	15.609	1161.224	881.917
287.687	15.528	1160.969	881.218
288.701	15.755	1160.098	881.669
289.716	15.629	1159.626	880.573
290.730	15.617	1158.540	879.607
291.745	15.601	1158.045	879.070
292.760	15.739	1157.176	879.053
293.774	15.800	1156.444	878.737
294.789	15.812	1156.073	878.441
295.803	15.814	1155.373	877.843
296.818	15.798	1154.328	876.888
297.833	15.711	1153.927	876.050
298.847	15.966	1152.118	875.926
299.862	15.862	1151.962	875.192
300.876	15.833	1151.258	874.427
301.891	15.827	1150.576	873.801
302.906	15.920	1149.826	873.636
303.920	15.943	1149.323	873.299
304.935	15.833	1148.917	872.342
305.949	16.034	1147.813	872.464
306.964	16.019	1147.189	871.840
307.979	15.947	1146.527	870.885
308.993	16.004	1145.534	870.349
310.008	16.018	1144.956	869.904
311.022	16.058	1143.917	869.244
312.037	15.984	1143.574	868.524
313.052	16.152	1142.034	868.143
314.066	16.030	1141.707	867.191
315.081	15.966	1140.727	866.040
316.095	16.079	1139.543	865.643
317.110	15.975	1138.945	864.579
318.125	16.046	1138.628	864.626
319.139	16.106	1137.734	864.179
320.154	16.027	1137.102	863.215
321.168	15.975	1136.504	862.422
322.183	16.090	1135.932	862.497
323.197	15.966	1135.558	861.507
324.212	16.055	1134.548	861.118
325.227	16.099	1133.887	860.761
326.241	16.199	1132.916	860.459
327.256	16.096	1132.078	859.222
328.270	16.110	1131.693	858.924
329.285	16.110	1130.629	858.044
330.300	16.183	1129.304	857.331
331.314	16.203	1128.314	856.604
332.329	16.137	1127.530	855.599
333.343	16.226	1127.263	855.775
334.358	16.176	1125.777	854.316
335.373	16.268	1125.248	854.305
336.387	16.220	1124.332	853.289
337.402	16.214	1123.708	852.714
338.416	16.261	1123.221	852.503
339.431	16.299	1122.260	851.893
340.446	16.450	1121.442	851.957
341.460	16.467	1120.804	851.480
342.475	16.476	1120.133	850.942
343.489	16.472	1118.833	849.858
344.504	16.595	1117.902	849.696
345.519	16.558	1117.101	848.825
346.533	16.593	1116.342	848.347
347.548	16.490	1115.736	847.297
348.562	16.549	1114.994	846.951
349.577	16.491	1114.154	845.950
350.592	16.522	1113.311	845.390
351.606	16.557	1112.448	844.833
352.621	16.522	1111.790	844.088
353.635	16.498	1111.347	843.554
354.650	16.537	1110.638	843.135
355.665	16.556	1109.838	842.549
356.679	16.559	1109.663	842.355
357.694	16.593	1108.811	841.807
358.708	16.545	1108.036	840.903
359.723	16.622	1107.719	840.971
360.738	16.680	1106.873	840.545
361.752	16.592	1106.148	839.481
362.767	16.650	1105.817	839.443
363.781	16.643	1105.208	838.872
364.796	16.751	1104.389	838.709
365.810	16.700	1103.817	837.951
366.825	16.738	1103.052	837.484
367.840	16.796	1102.414	837.212
368.854	16.903	1101.673	837.102
369.869	16.965	1100.909	836.754
370.883	16.985	1100.057	836.132
371.898	16.801	1099.662	834.850
372.913	16.838	1098.882	834.367
373.927	16.868	1098.521	834.166
374.942	17.011	1097.943	834.358
375.956	16.975	1097.316	833.628
376.971	17.038	1096.666	833.371
377.986	16.883	1096.747	832.598
379.000	17.028	1095.757	832.484
380.015	17.060	1094.857	831.881
381.029	17.201	1093.940	831.801
382.044	17.139	1093.534	831.117
383.059	17.106	1092.756	830.291
384.073	17.117	1091.818	829.559
385.088	17.218	1090.906	829.285
386.102	17.190	1089.778	828.219
387.117	17.189	1088.941	827.502
388.132	17.084	1088.497	826.584
389.146	17.138	1087.433	825.961
390.161	17.189	1086.581	825.492
391.175	17.082	1086.270	824.661
392.190	17.217	1085.360	824.553
393.205	17.255	1084.571	824.068
394.219	17.236	1083.557	823.128
395.234	17.223	1082.953	822.534
396.248	17.135	1081.867	821.212
397.263	17.278	1080.607	820.875
398.278	17.212	1080.191	820.167
399.292	17.183	1079.493	819.422
400.307	17.220	1078.757	818.973
401.321	17.324	1078.044	818.859
402.336	17.304	1077.360	818.172
403.350	17.364	1076.497	817.729
404.365	17.338	1075.887	817.070
405.380	17.304	1075.659	816.660
406.394	17.361	1074.276	815.812
407.409	17.376	1073.778	815.434
408.423	17.394	1073.193	815.002
409.438	17.514	1072.138	814.704
410.453	17.456	1071.616	813.961
411.467	17.568	1070.920	813.893
412.482	17.577	1070.322	813.411
413.496	17.569	1069.255	812.490
414.511	17.568	1068.735	812.016
415.526	17.628	1068.656	812.169
416.540	17.694	1068.222	812.085
417.555	17.699	1067.706	811.644
418.569	17.597	1067.065	810.600
419.584	17.615	1066.516	810.198
420.599	17.700	1065.845	810.018
421.613	89.450	1301.462	1386.148
422.628	82.728	1335.774	1386.270
