DTS Sentinel unit serial number:	SN413079Multiplexer serial number:	ORYXHardware model number:	OX4-SRSoftware version number:	ORYX F/W v4.00 Oryx Data Collector v3.7.2.0data status	okinstallation	princeton_trtdifferential loss correction	single-endedforward channel	channel 2reverse channel	N/Adate	2019/09/18time	20:51:34forward acquisition time	60.00reverse acquisition time	0.00gamma	496.2192k internal	0.2341k external	0.2341temperature offset calibration	1.0036default loss term (dB/km)	0.3790temperature slope calibration	1.0000multiplexer offset coefficient	1.0000multiplexer slope coefficient	1.0000fibre end	0.00T internal ref (°C)	27.02T ext. ref 1 (°C)	1.02T ext. ref 2 (°C)	18.28length (m)	temperature (°C)	Stokes	anti-Stokes-747.200	-200.000	0.060	-0.268
-746.185	370.127	0.122	0.248
-745.171	-141.967	-0.262	0.026
-744.156	115.210	-0.305	0.373
-743.142	256.640	-0.147	0.252
-742.127	-125.855	-0.232	-0.035
-741.112	187.447	-0.100	0.149
-740.098	-200.000	-0.028	0.266
-739.083	43.767	-0.179	-0.164
-738.069	-200.000	0.020	0.192
-737.054	-51.843	0.167	0.078
-736.039	446.554	0.176	-0.388
-735.025	101.952	0.285	-0.334
-734.010	-200.000	-0.042	-0.280
-732.996	800.000	0.073	-0.255
-731.981	10.726	-0.138	0.106
-730.966	14.540	-0.303	0.237
-729.952	800.000	-0.015	-0.055
-728.937	800.000	-0.096	-0.334
-727.923	229.504	0.127	-0.208
-726.908	-200.000	0.008	-0.194
-725.894	53.435	-0.099	-0.095
-724.879	-100.432	-0.397	-0.098
-723.864	-85.776	-0.127	-0.039
-722.850	-94.058	-0.321	-0.088
-721.835	95.484	0.122	-0.139
-720.821	79.305	-0.043	-0.046
-719.806	-5.857	-0.213	0.146
-718.791	228.825	-0.214	-0.350
-717.777	-26.449	-0.045	0.027
-716.762	-200.000	0.023	-0.104
-715.748	297.002	-0.048	0.089
-714.733	-129.865	-0.247	-0.034
-713.718	182.946	-0.112	0.166
-712.704	231.325	-0.194	0.319
-711.689	-200.000	0.052	0.261
-710.675	-200.000	0.025	-0.139
-709.660	-61.920	0.076	-0.032
-708.645	181.056	-0.078	0.114
-707.631	-141.557	0.373	0.038
-706.616	-11.306	-0.167	-0.110
-705.602	-127.546	-0.119	0.017
-704.587	-154.583	-0.221	0.015
-703.572	61.884	0.258	-0.257
-702.558	-200.000	-0.002	-0.127
-701.543	-70.499	0.293	0.111
-700.529	-200.000	0.045	0.492
-699.514	-200.000	0.011	0.250
-698.499	189.282	-0.310	-0.464
-697.485	-73.767	0.123	-0.045
-696.470	145.714	-0.155	0.208
-695.456	-200.000	-0.009	0.201
-694.441	-112.208	0.152	-0.030
-693.426	129.874	-0.286	0.366
-692.412	19.607	0.087	-0.070
-691.397	187.668	0.168	-0.251
-690.383	641.829	-0.084	-0.215
-689.368	-81.511	-0.222	0.073
-688.354	321.013	0.099	0.188
-687.339	-85.361	-0.138	0.043
-686.324	-20.097	0.274	0.169
-685.310	-27.346	0.234	-0.136
-684.295	-200.000	0.014	-0.143
-683.281	-14.656	0.127	0.081
-682.266	232.204	-0.111	0.182
-681.251	-71.128	0.210	0.079
-680.237	-100.027	0.156	0.039
-679.222	-154.304	-0.126	-0.008
-678.208	373.536	0.177	0.360
-677.193	115.744	-0.247	0.302
-676.178	231.199	0.009	-0.015
-675.164	46.148	0.328	-0.304
-674.149	-200.000	-0.021	0.288
-673.135	-15.059	-0.248	0.159
-672.120	-200.000	0.019	-0.109
-671.105	177.603	-0.074	-0.108
-670.091	687.708	-0.114	0.298
-669.076	85.887	0.079	0.086
-668.062	-117.461	-0.142	-0.026
-667.047	-200.000	-0.036	0.249
-666.032	2.022	0.107	0.077
-665.018	-200.000	0.026	-0.137
-664.003	-102.317	0.213	0.051
-662.989	73.869	0.089	0.093
-661.974	-153.953	-0.289	-0.020
-660.959	-200.000	0.099	-0.484
-659.945	18.536	0.114	-0.091
-658.930	-200.000	-0.008	0.038
-657.916	504.638	-0.049	0.114
-656.901	800.000	0.042	-0.168
-655.886	590.492	-0.053	-0.129
-654.872	-12.446	-0.115	0.075
-653.857	-88.947	0.255	0.076
-652.843	-80.490	0.188	-0.063
-651.828	507.776	-0.016	0.037
-650.814	-19.104	-0.160	-0.100
-649.799	37.673	0.063	-0.056
-648.784	-12.370	-0.321	-0.209
-647.770	411.470	-0.072	0.153
-646.755	75.237	-0.209	-0.220
-645.741	-200.000	-0.023	-0.292
-644.726	-200.000	-0.002	-0.273
-643.711	37.181	-0.213	-0.188
-642.697	-200.000	0.030	-0.299
-641.682	26.697	-0.171	-0.143
-640.668	-149.929	0.228	0.018
-639.653	-183.671	0.161	-0.003
-638.638	-76.260	-0.151	0.053
-637.624	-27.482	0.177	0.103
-636.609	116.416	0.140	0.171
-635.595	-200.000	0.083	0.000
-634.580	-200.000	-0.008	0.127
-633.565	-77.967	-0.233	-0.080
-632.551	413.110	0.069	-0.145
-631.536	-127.117	-0.207	-0.030
-630.522	513.775	0.079	0.184
-629.507	48.930	-0.212	0.199
-628.492	-200.000	-0.024	-0.125
-627.478	14.556	-0.167	-0.130
-626.463	-200.000	0.039	0.206
-625.449	8.120	-0.357	-0.267
-624.434	374.872	-0.178	0.362
-623.419	138.497	0.098	0.128
-622.405	-110.642	-0.108	-0.022
-621.390	-200.000	0.084	-0.372
-620.376	-60.388	0.281	-0.119
-619.361	-47.847	0.161	0.078
-618.346	254.148	0.068	-0.116
-617.332	-96.094	-0.116	-0.031
-616.317	349.390	0.200	0.394
-615.303	-200.000	0.002	0.065
-614.288	-43.384	-0.209	0.105
-613.273	800.000	-0.054	-0.164
-612.259	171.794	-0.093	0.133
-611.244	-200.000	-0.015	-0.195
-610.230	-49.152	-0.117	0.056
-609.215	93.402	-0.076	0.085
-608.201	743.770	0.103	0.275
-607.186	333.390	-0.147	-0.282
-606.171	800.000	-0.047	-0.153
-605.157	332.886	0.130	0.251
-604.142	800.000	-0.138	0.405
-603.128	-96.769	-0.213	-0.056
-602.113	205.836	0.058	0.089
-601.098	-200.000	0.052	0.339
-600.084	49.804	-0.209	0.197
-599.069	280.354	0.050	-0.090
-598.055	-109.352	-0.286	-0.060
-597.040	-12.068	0.106	0.069
-596.025	73.640	0.181	-0.189
-595.011	-200.000	-0.011	-0.147
-593.996	126.365	-0.129	-0.163
-592.982	14.793	0.157	-0.122
-591.967	-107.819	0.081	0.017
-590.952	370.164	0.235	-0.473
-589.938	186.809	-0.183	-0.272
-588.923	158.847	-0.202	0.280
-587.909	-200.000	0.031	-0.167
-586.894	276.537	-0.142	-0.251
-585.879	800.000	0.171	0.502
-584.865	-102.011	-0.074	0.018
-583.850	-200.000	0.032	-0.206
-582.836	145.121	-0.252	-0.336
-581.821	2.000	0.223	-0.160
-580.806	-110.044	-0.161	-0.033
-579.792	18.241	-0.082	0.065
-578.777	-19.854	0.121	0.075
-577.763	38.229	0.046	-0.041
-576.748	332.512	-0.236	0.454
-575.733	-16.362	-0.113	-0.071
-574.719	-33.867	0.099	-0.054
-573.704	198.666	-0.135	-0.206
-572.690	392.053	-0.031	-0.063
-571.675	158.926	-0.082	0.113
-570.661	-200.000	-0.042	0.297
-569.646	36.468	-0.079	-0.069
-568.631	321.479	0.099	-0.187
-567.617	-78.745	0.045	-0.015
-566.602	-62.772	0.439	0.181
-565.588	-138.248	-0.158	-0.017
-564.573	18.975	-0.058	0.046
-563.558	-200.000	-0.004	-0.311
-562.544	195.329	-0.059	0.089
-561.529	-200.000	-0.008	0.102
-560.515	-161.003	0.118	-0.006
-559.500	-85.173	0.300	0.093
-558.485	282.867	-0.127	0.226
-557.471	33.548	-0.191	-0.165
-556.456	-200.000	0.036	-0.267
-555.442	66.954	0.342	-0.347
-554.427	-49.376	-0.295	-0.140
-553.412	144.899	0.145	0.192
-552.398	-149.331	0.293	0.023
-551.383	800.000	0.015	-0.055
-550.369	800.000	-0.087	-0.257
-549.354	-132.093	0.396	-0.051
-548.339	36.174	-0.255	0.223
-547.325	-62.382	-0.265	-0.110
-546.310	800.000	-0.047	0.172
-545.296	-100.126	-0.058	0.014
-544.281	-125.094	-0.444	0.068
-543.266	-186.826	-0.117	0.002
-542.252	-100.802	-0.198	-0.048
-541.237	-113.922	0.161	0.031
-540.223	800.000	0.091	-0.267
-539.208	-200.000	0.009	0.094
-538.193	101.127	-0.146	0.169
-537.179	170.986	0.151	-0.215
-536.164	800.000	0.089	-0.345
-535.150	-112.394	0.119	0.024
-534.135	28.121	0.302	0.254
-533.121	-101.905	0.099	-0.024
-532.106	-139.342	0.249	-0.027
-531.091	58.670	0.245	0.239
-530.077	800.000	0.055	0.160
-529.062	-42.132	-0.041	-0.021
-528.048	7.015	-0.193	0.143
-527.033	-84.533	-0.209	-0.065
-526.018	-200.000	-0.004	0.118
-525.004	-200.000	0.050	0.323
-523.989	-116.037	0.246	0.046
-522.975	307.671	0.037	0.069
-521.960	386.466	-0.159	-0.325
-520.945	-65.678	-0.105	0.042
-519.931	398.599	0.153	-0.318
-518.916	-200.000	0.009	0.148
-517.902	0.261	0.104	0.074
-516.887	40.130	0.147	-0.132
-515.872	800.000	-0.101	-0.279
-514.858	185.944	-0.088	-0.129
-513.843	-150.745	0.241	-0.018
-512.829	24.574	0.089	0.074
-511.814	394.323	0.049	0.101
-510.799	800.000	0.066	0.184
-509.785	-131.226	0.069	-0.009
-508.770	-200.000	-0.014	-0.372
-507.756	800.000	-0.054	-0.211
-506.741	749.026	0.103	0.276
-505.726	289.288	0.149	0.269
-504.712	-13.938	0.203	-0.130
-503.697	263.123	-0.041	0.071
-502.683	0.179	-0.116	-0.082
-501.668	28.417	-0.099	-0.083
-500.653	474.205	0.065	0.146
-499.639	800.000	-0.059	0.200
-498.624	-4.273	-0.103	-0.070
-497.610	-106.501	0.199	0.044
-496.595	800.000	-0.052	-0.226
-495.581	-200.000	-0.005	-0.036
-494.566	800.000	0.041	-0.162
-493.551	166.862	0.057	-0.081
-492.537	-13.898	-0.108	0.069
-491.522	128.254	-0.117	-0.148
-490.508	-89.100	0.113	0.033
-489.493	83.896	0.237	0.256
-488.478	-153.931	-0.206	0.014
-487.464	-100.650	0.209	0.051
-486.449	99.089	-0.089	0.102
-485.435	-134.698	0.178	-0.021
-484.420	-24.321	0.374	-0.221
-483.405	-124.278	-0.253	0.039
-482.391	-4.079	0.516	-0.355
-481.376	-200.000	-0.025	-0.184
-480.362	154.684	-0.096	-0.131
-479.347	598.750	-0.093	0.228
-478.332	-200.000	0.002	0.066
-477.318	-100.714	0.327	-0.080
-476.303	800.000	-0.041	-0.166
-475.289	-99.824	0.217	0.054
-474.274	75.985	-0.102	-0.106
-473.259	68.105	-0.191	-0.194
-472.245	-21.289	-0.133	0.081
-471.230	140.145	0.062	0.080
-470.216	-39.733	-0.200	-0.104
-469.201	-136.484	0.133	-0.015
-468.186	761.796	-0.068	0.182
-467.172	-74.929	-0.160	0.057
-466.157	-54.579	-0.151	-0.068
-465.143	-200.000	0.005	-0.055
-464.128	-200.000	0.036	-0.188
-463.113	470.234	0.023	0.050
-462.099	-9.072	-0.315	0.209
-461.084	-53.861	0.212	-0.096
-460.070	64.994	0.225	0.225
-459.055	-117.687	0.374	-0.067
-458.040	-200.000	-0.000	0.124
-457.026	-130.737	0.131	0.017
-456.011	800.000	0.070	0.283
-454.997	-31.805	-0.088	-0.049
-453.982	-27.355	0.089	0.052
-452.968	800.000	0.045	0.136
-451.953	-22.851	0.056	-0.033
-450.938	-3.118	0.245	0.169
-449.924	-53.642	-0.126	-0.057
-448.909	23.560	-0.165	0.135
-447.895	105.749	-0.137	-0.160
-446.880	51.330	-0.224	0.210
-445.865	-112.667	-0.009	0.002
-444.851	701.767	0.097	0.252
-443.836	-200.000	-0.003	0.311
-442.822	126.876	0.065	-0.081
-441.807	-3.000	0.099	-0.068
-440.792	137.022	-0.129	-0.167
-439.778	35.879	0.091	0.080
-438.763	-200.000	0.009	0.164
-437.749	-94.519	0.197	-0.053
-436.734	-200.000	0.073	0.000
-435.719	509.067	0.077	-0.176
-434.705	-45.645	-0.081	-0.040
-433.690	91.626	0.112	0.125
-432.676	-95.601	0.037	0.010
-431.661	24.090	-0.142	0.116
-430.646	-34.562	0.257	-0.139
-429.632	460.334	-0.111	-0.244
-428.617	800.000	-0.059	0.176
-427.603	-29.774	0.090	-0.051
-426.588	251.186	-0.144	-0.243
-425.573	25.287	-0.243	0.200
-424.559	797.457	-0.122	-0.332
-423.544	-138.767	-0.085	-0.009
-422.530	-200.000	-0.028	-0.126
-421.515	83.088	-0.115	0.123
-420.500	-1.944	0.112	-0.078
-419.486	800.000	-0.043	0.121
-418.471	-5.875	0.186	0.126
-417.457	53.108	0.063	-0.060
-416.442	-200.000	-0.060	0.295
-415.428	-200.000	-0.044	-0.307
-414.413	-80.144	0.195	0.065
-413.398	5.267	0.251	-0.183
-412.384	78.194	-0.051	-0.054
-411.369	-85.666	-0.260	-0.080
-410.355	42.394	0.040	-0.036
-409.340	107.742	-0.226	0.266
-408.325	-200.000	-0.036	-0.273
-407.311	156.964	0.227	0.310
-406.296	155.391	-0.132	-0.180
-405.282	-105.196	0.234	0.053
-404.267	-180.799	0.174	-0.003
-403.252	-200.000	-0.057	-0.323
-402.238	94.837	-0.099	0.111
-401.223	6.487	0.270	0.198
-400.209	-101.134	-0.291	0.071
-399.194	66.633	-0.191	0.192
-398.179	-7.436	0.380	0.255
-397.165	166.037	-0.185	-0.259
-396.150	15.730	-0.208	-0.161
-395.136	-200.000	-0.014	0.335
-394.121	253.302	-0.057	0.097
-393.106	33.499	0.137	0.118
-392.092	-41.236	-0.256	0.131
-391.077	-18.044	-0.211	-0.131
-390.063	-37.354	0.078	-0.041
-389.048	428.553	-0.041	0.089
-388.033	172.110	0.188	0.267
-387.019	-200.000	0.071	-0.326
-386.004	108.488	-0.125	0.147
-384.990	4.527	-0.106	0.077
-383.975	-130.163	0.390	0.053
-382.960	190.846	0.216	-0.321
-381.946	-200.000	0.007	-0.151
-380.931	-80.422	0.087	-0.029
-379.917	70.369	-0.157	0.160
-378.902	-139.606	0.357	0.038
-377.888	-175.202	-0.209	0.006
-376.873	284.074	-0.066	-0.117
-375.858	800.000	0.028	-0.092
-374.844	63.598	0.254	-0.252
-373.829	-200.000	0.015	0.172
-372.815	-190.650	0.350	0.004
-371.800	-114.154	0.105	-0.020
-370.785	-200.000	0.040	-0.226
-369.771	800.000	-0.079	0.299
-368.756	-149.375	-0.202	0.016
-367.742	84.815	0.115	0.125
-366.727	-12.325	-0.260	0.168
-365.712	-38.829	-0.104	-0.054
-364.698	-200.000	0.023	-0.149
-363.683	351.593	-0.201	-0.393
-362.669	63.935	-0.113	0.112
-361.654	395.848	0.069	-0.141
-360.639	-70.123	-0.104	-0.039
-359.625	-72.336	0.316	0.115
-358.610	-58.867	0.264	-0.113
-357.596	622.739	-0.037	0.092
-356.581	103.443	-0.135	-0.156
-355.566	539.815	0.046	0.109
-354.552	-15.112	0.411	0.260
-353.537	-53.677	0.185	-0.083
-352.523	22.658	0.140	-0.113
-351.508	-192.328	-0.103	0.001
-350.493	165.116	-0.083	-0.116
-349.479	173.040	0.173	-0.246
-348.464	-51.120	-0.086	-0.040
-347.450	-200.000	-0.028	-0.185
-346.435	-200.000	0.044	0.369
-345.420	-15.775	-0.140	-0.088
-344.406	-200.000	0.021	-0.298
-343.391	-200.000	-0.011	0.208
-342.377	56.244	0.044	0.043
-341.362	18.387	-0.226	0.178
-340.348	-28.898	-0.091	-0.051
-339.333	169.955	0.057	-0.081
-338.318	800.000	-0.092	-0.263
-337.304	135.228	-0.064	0.082
-336.289	470.985	0.099	-0.220
-335.275	-103.832	-0.119	0.028
-334.260	-200.000	0.026	-0.159
-333.245	-78.747	-0.130	-0.044
-332.231	-83.415	0.276	0.087
-331.216	38.703	-0.231	-0.203
-330.202	355.740	0.079	-0.155
-329.187	19.422	-0.031	-0.025
-328.172	-119.944	0.066	0.011
-327.158	-200.000	-0.036	0.192
-326.143	110.877	-0.206	-0.245
-325.129	-144.311	0.154	0.014
-324.114	-83.968	0.416	0.130
-323.099	-107.945	-0.185	0.040
-322.085	396.272	0.103	-0.211
-321.070	-160.937	0.339	-0.018
-320.056	-67.162	-0.338	0.131
-319.041	-120.417	-0.310	-0.052
-318.026	800.000	0.061	0.177
-317.012	86.655	0.083	0.090
-315.997	-37.214	-0.428	-0.226
-314.983	52.125	0.186	0.175
-313.968	800.000	0.074	0.275
-312.953	-21.389	-0.012	0.007
-311.939	800.000	-0.083	0.283
-310.924	-74.891	-0.149	-0.053
-309.910	800.000	-0.069	-0.290
-308.895	50.565	0.031	-0.029
-307.880	-77.274	-0.224	-0.077
-306.866	-74.558	0.073	-0.026
-305.851	0.710	-0.155	-0.109
-304.837	-95.975	0.220	0.058
-303.822	-137.362	0.117	-0.013
-302.807	-32.301	0.106	0.058
-301.793	800.000	-0.130	0.375
-300.778	-0.856	0.050	-0.035
-299.764	588.704	0.098	0.238
-298.749	12.659	0.050	-0.038
-297.735	-7.143	-0.207	-0.138
-296.720	-29.481	0.504	0.284
-295.705	-140.458	0.123	0.013
-294.691	-68.992	-0.240	-0.091
-293.676	800.000	0.047	0.138
-292.662	-200.000	0.048	0.290
-291.647	-136.158	0.162	0.019
-290.632	-146.330	-0.135	-0.012
-289.618	-100.604	-0.175	-0.043
-288.603	259.865	0.095	-0.162
-287.589	-85.380	0.143	-0.044
-286.574	-200.000	-0.155	0.001
-285.559	-175.756	-0.247	0.007
-284.545	-95.066	0.007	0.002
-283.530	800.000	-0.048	0.183
-282.516	152.277	0.131	-0.176
-281.501	800.000	-0.085	-0.266
-280.486	-83.095	0.276	-0.087
-279.472	800.000	-0.075	-0.253
-278.457	-46.161	-0.158	-0.076
-277.443	652.391	-0.169	0.427
-276.428	-62.185	0.174	0.072
-275.413	-114.781	-0.264	0.050
-274.399	-137.042	-0.114	0.013
-273.384	-79.284	-0.189	0.063
-272.370	-95.833	0.248	0.065
-271.355	41.259	0.427	-0.380
-270.340	-127.951	-0.242	0.034
-269.326	-200.000	0.005	0.130
-268.311	297.539	-0.074	0.133
-267.297	-80.664	0.181	-0.059
-266.282	800.000	0.072	-0.245
-265.267	800.000	0.033	-0.138
-264.253	800.000	-0.034	-0.094
-263.238	-60.894	-0.236	0.098
-262.224	-200.000	0.006	-0.110
-261.209	45.016	-0.029	-0.026
-260.195	-162.830	-0.113	-0.005
-259.180	17.741	-0.054	0.042
-258.165	-140.665	-0.442	0.045
-257.151	102.531	0.244	0.280
-256.136	362.075	0.087	-0.171
-255.122	-50.183	-0.072	0.034
-254.107	621.628	-0.097	0.241
-253.092	800.000	0.028	0.075
-252.078	-137.710	-0.077	0.009
-251.063	121.017	0.108	0.132
-250.049	-61.609	-0.198	-0.081
-249.034	687.973	0.032	0.081
-248.019	800.000	-0.114	0.388
-247.005	-157.497	0.349	0.021
-245.990	10.573	0.195	0.146
-244.976	-200.000	0.028	0.173
-243.961	-69.399	-0.171	-0.065
-242.946	800.000	-0.031	0.093
-241.932	800.000	-0.054	-0.225
-240.917	-200.000	-0.072	-0.315
-239.903	357.540	-0.082	0.161
-238.888	499.546	-0.120	-0.272
-237.873	-50.066	-0.076	0.035
-236.859	-144.475	-0.129	-0.012
-235.844	-104.655	0.291	0.066
-234.830	800.000	-0.043	0.160
-233.815	-161.170	0.167	-0.009
-232.800	315.588	0.039	0.073
-231.786	218.799	0.084	-0.131
-230.771	602.069	0.115	0.281
-229.757	-200.000	-0.063	-0.364
-228.742	-122.816	0.098	-0.016
-227.727	-92.464	-0.164	0.045
-226.713	-177.656	-0.218	-0.005
-225.698	103.602	-0.235	0.271
-224.684	391.422	-0.097	0.199
-223.669	-78.701	-0.087	-0.029
-222.655	-200.000	-0.006	-0.184
-221.640	11.423	0.181	0.136
-220.625	61.048	0.149	0.145
-219.611	49.319	-0.181	0.167
-218.596	53.038	0.269	0.253
-217.582	131.655	0.107	-0.135
-216.567	-19.534	-0.166	-0.101
-215.552	-200.000	-0.025	-0.155
-214.538	-72.416	0.152	0.055
-213.523	-32.395	-0.285	0.156
-212.509	-102.132	0.145	0.034
-211.494	286.280	-0.141	0.250
-210.479	-3.786	-0.150	-0.102
-209.465	-44.850	-0.277	-0.135
-208.450	42.218	0.013	0.012
-207.436	-115.380	0.270	-0.050
-206.421	-200.000	0.005	0.080
-205.406	7.070	-0.074	-0.054
-204.392	-136.353	0.052	0.006
-203.377	-84.676	0.165	-0.051
-202.363	-4.965	-0.592	-0.400
-201.348	187.922	-0.170	-0.250
-200.333	-77.241	-0.331	0.113
-199.319	30.881	-0.215	0.181
-198.304	-48.194	0.164	0.078
-197.290	-200.000	0.029	0.260
-196.275	429.070	-0.144	-0.306
-195.260	-200.000	0.036	-0.164
-194.246	-200.000	-0.014	0.468
-193.231	-65.918	0.128	0.050
-192.217	-56.163	-0.098	-0.043
-191.202	-200.000	-0.037	0.240
-190.187	68.017	0.071	-0.071
-189.173	-200.000	0.019	-0.288
-188.158	-140.399	0.406	-0.042
-187.144	60.345	-0.179	0.173
-186.129	155.732	0.020	0.027
-185.114	-200.000	-0.009	-0.097
-184.100	-40.824	0.241	0.122
-183.085	18.798	0.153	-0.120
-182.071	529.805	0.010	-0.024
-181.056	800.000	0.090	-0.276
-180.042	-21.726	-0.150	0.090
-179.027	187.442	-0.092	-0.134
-178.012	-86.768	-0.261	-0.078
-176.998	-97.635	0.303	0.077
-175.983	465.494	-0.096	0.211
-174.969	131.552	0.004	-0.006
-173.954	89.857	-0.107	-0.118
-172.939	-101.493	0.232	0.055
-171.925	800.000	0.100	0.333
-170.910	-27.180	0.198	-0.113
-169.896	-27.772	-0.200	0.114
-168.881	7.094	-0.082	-0.060
-167.866	-119.912	-0.084	0.014
-166.852	-112.171	-0.018	0.004
-165.837	20.614	-0.292	-0.231
-164.823	800.000	0.034	0.135
-163.808	-200.000	-0.057	-0.275
-162.793	-129.896	0.424	0.057
-161.779	-200.000	-0.007	0.033
-160.764	-46.974	-0.362	0.173
-159.750	-200.000	-0.051	0.348
-158.735	308.828	0.059	0.108
-157.720	-21.936	0.235	-0.140
-156.706	-71.222	-0.138	-0.051
-155.691	53.566	0.102	-0.096
-154.677	288.080	-0.105	-0.187
-153.662	-38.880	0.470	0.243
-152.647	88.771	0.407	0.443
-151.633	-81.244	-0.210	0.068
-150.618	-200.000	-0.007	-0.188
-149.604	-131.931	0.261	-0.033
-148.589	367.833	0.076	0.150
-147.574	55.512	0.169	0.160
-146.560	-164.225	0.206	-0.009
-145.545	185.853	0.154	0.225
-144.531	800.000	-0.020	-0.079
-143.516	-177.009	-0.320	-0.008
-142.502	-198.050	-0.191	0.001
-141.487	71.433	0.125	0.127
-140.472	-129.475	-0.211	0.029
-139.458	113.310	0.223	-0.264
-138.443	26.039	-0.072	-0.059
-137.429	165.056	0.107	0.148
-136.414	30.298	-0.149	-0.124
-135.399	744.216	0.093	0.244
-134.385	-68.915	0.051	0.019
-133.370	166.651	-0.176	-0.244
-132.356	-28.122	0.299	-0.169
-131.341	-169.035	-0.163	-0.006
-130.326	-107.411	0.067	0.014
-129.312	371.851	-0.205	-0.406
-128.297	-141.275	-0.276	0.028
-127.283	49.319	0.232	-0.214
-126.268	-148.116	-0.164	0.013
-125.253	282.810	0.078	0.136
-124.239	114.066	-0.127	-0.151
-123.224	-200.000	0.007	0.313
-122.210	800.000	0.067	-0.248
-121.195	-27.273	-0.332	0.189
-120.180	-58.865	-0.194	-0.082
-119.166	53.998	-0.091	-0.085
-118.151	23.893	0.172	0.139
-117.137	-75.841	-0.399	0.138
-116.122	800.000	0.030	0.082
-115.107	-111.656	0.236	-0.047
-114.093	37.871	0.186	0.162
-113.078	22.240	0.230	-0.184
-112.064	-98.492	-0.077	-0.019
-111.049	93.939	-0.143	-0.158
-110.034	115.448	0.033	-0.040
-109.020	-152.020	-0.092	-0.007
-108.005	172.667	0.168	-0.237
-106.991	25.217	0.090	0.073
-105.976	5.795	0.147	-0.107
-104.962	-97.928	-0.176	-0.044
-103.947	227.861	0.125	-0.199
-102.932	168.879	-0.150	0.210
-101.918	-200.000	0.042	-0.189
-100.903	32.566	-0.123	0.104
-99.889	-68.494	0.406	0.154
-98.874	95.243	0.358	-0.399
-97.859	-107.113	-0.098	-0.021
-96.845	-73.515	0.118	0.042
-95.830	244.585	0.150	0.247
-94.816	-106.159	0.137	0.030
-93.801	-128.499	-0.080	0.011
-92.786	-25.916	-0.034	-0.020
-91.772	-61.745	-0.206	0.084
-90.757	186.735	0.131	0.190
-89.743	542.180	-0.055	0.129
-88.728	-44.721	-0.099	0.048
-87.713	-200.000	0.024	-0.145
-86.699	-38.807	-0.259	0.133
-85.684	329.450	0.048	0.090
-84.670	554.918	-0.017	0.040
-83.655	-200.000	0.009	-0.425
-82.640	35.281	0.049	0.042
-81.626	89.840	-0.310	0.338
-80.611	141.945	0.107	-0.138
-79.597	41.692	-0.128	-0.113
-78.582	60.218	0.054	0.052
-77.567	800.000	0.066	0.256
-76.553	120.867	0.039	-0.048
-75.538	-46.137	0.349	-0.168
-74.524	-200.000	-0.017	0.156
-73.509	-43.519	0.142	-0.070
-72.494	-153.096	-0.361	-0.025
-71.480	-200.000	-0.028	0.188
-70.465	800.000	0.045	-0.193
-69.451	800.000	-0.062	-0.174
-68.436	-133.535	0.561	-0.069
-67.422	-200.000	0.015	0.320
-66.407	462.734	-0.186	-0.405
-65.392	163.275	0.124	-0.171
-64.378	-134.679	0.351	0.042
-63.363	-200.000	-0.045	-0.280
-62.349	185.619	0.154	0.223
-61.334	51.642	-1.088	-1.009
-60.319	664.624	0.351	0.883
-59.305	-200.000	-0.214	-1.082
-58.290	495.414	0.622	1.395
-57.276	690.353	0.660	1.687
-56.261	-200.000	114.025	631.307
-55.246	454.029	1491.138	3221.299
-54.232	150.802	2662.542	3530.415
-53.217	92.745	2267.730	2497.163
-52.203	35.433	1885.742	1614.106
-51.188	30.228	1682.031	1400.501
-50.173	27.786	1641.160	1348.397
-49.159	46.838	1700.091	1540.850
-48.144	45.696	1714.508	1545.249
-47.130	29.588	1670.470	1385.857
-46.115	27.040	1655.182	1354.146
-45.100	26.859	1650.584	1348.982
-44.086	26.841	1648.334	1346.961
-43.071	26.881	1645.576	1344.946
-42.057	26.856	1643.256	1342.810
-41.042	26.903	1641.782	1341.905
-40.027	26.879	1639.868	1340.105
-39.013	26.862	1637.977	1338.383
-37.998	26.876	1635.929	1336.758
-36.984	26.892	1634.754	1335.863
-35.969	27.028	1633.213	1335.556
-34.954	27.073	1631.545	1334.468
-33.940	27.015	1629.833	1332.585
-32.925	27.085	1627.834	1331.412
-31.911	26.955	1626.680	1329.465
-30.896	26.990	1624.581	1327.950
-29.881	27.057	1622.747	1326.892
-28.867	27.009	1621.994	1325.870
-27.852	26.993	1620.696	1324.644
-26.838	26.989	1619.018	1323.185
-25.823	27.066	1617.327	1322.312
-24.809	26.966	1616.654	1320.983
-23.794	26.975	1615.179	1319.788
-22.779	26.916	1613.868	1318.241
-21.765	26.916	1611.712	1316.427
-20.750	27.002	1609.897	1315.517
-19.736	27.066	1608.529	1314.805
-18.721	27.014	1607.787	1313.772
-17.706	27.011	1606.256	1312.450
-16.692	27.000	1604.425	1310.818
-15.677	26.995	1602.819	1309.418
-14.663	27.199	1601.349	1309.638
-13.648	27.096	1600.180	1307.886
-12.633	27.177	1598.596	1307.123
-11.619	27.072	1596.856	1304.892
-10.604	27.020	1595.503	1303.367
-9.590	27.102	1594.577	1303.147
-8.575	27.086	1593.062	1301.736
-7.560	27.110	1591.752	1300.792
-6.546	27.084	1591.126	1300.040
-5.531	27.081	1590.071	1299.105
-4.517	27.003	1588.685	1297.361
-3.502	27.017	1587.593	1296.524
-2.487	27.145	1585.955	1296.048
-1.473	26.449	1573.384	1280.791
-0.458	22.718	1551.963	1237.195
0.556	17.474	1551.938	1197.737
1.571	14.685	1573.103	1194.049
2.586	14.124	1584.153	1198.288
3.600	12.971	1531.646	1150.430
4.615	7.697	1427.301	1037.615
5.629	2.228	1368.482	960.467
6.644	1.109	1361.413	948.422
7.659	0.998	1360.276	946.853
8.673	0.998	1359.875	946.488
9.688	0.974	1357.290	944.455
10.702	0.740	1354.075	940.676
11.717	3.501	1357.053	959.866
12.731	10.144	1367.321	1008.584
13.746	15.927	1375.570	1050.756
14.761	17.628	1377.291	1062.594
15.775	16.949	1375.431	1056.836
16.790	16.067	1373.069	1049.442
17.804	15.267	1370.895	1042.712
18.819	14.858	1369.701	1039.169
19.834	14.659	1368.188	1036.692
20.848	14.397	1366.658	1033.820
21.863	14.177	1365.396	1031.409
22.877	13.997	1364.313	1029.382
23.892	13.917	1363.768	1028.388
24.907	13.890	1362.839	1027.426
25.921	13.899	1361.789	1026.600
26.936	13.970	1360.697	1026.123
27.950	14.076	1359.818	1026.024
28.965	14.135	1358.750	1025.492
29.980	14.234	1357.673	1025.200
30.994	14.166	1357.281	1024.395
32.009	14.220	1355.730	1023.463
33.023	14.139	1355.183	1022.461
34.038	14.163	1353.858	1021.520
35.053	14.057	1352.803	1019.986
36.067	14.084	1351.728	1019.248
37.082	14.133	1350.432	1018.480
38.096	14.147	1349.660	1017.896
39.111	14.166	1348.602	1017.122
40.126	14.114	1348.260	1016.457
41.140	14.037	1347.374	1015.230
42.155	13.929	1347.425	1014.518
43.169	14.058	1346.840	1014.773
44.184	13.970	1346.373	1013.796
45.199	13.918	1346.419	1013.426
46.213	13.992	1345.553	1013.133
47.228	14.008	1344.648	1012.460
48.242	13.916	1343.835	1011.196
49.257	14.043	1341.947	1010.461
50.271	14.064	1340.620	1009.500
51.286	14.103	1339.559	1008.845
52.301	14.030	1337.953	1007.107
53.315	14.038	1336.661	1006.094
54.330	14.069	1335.619	1005.408
55.344	13.954	1334.437	1003.736
56.359	13.978	1333.893	1003.382
57.374	13.905	1333.014	1002.187
58.388	13.898	1332.403	1001.600
59.403	13.979	1331.505	1001.326
60.417	13.843	1331.100	1000.110
61.432	13.843	1330.208	999.353
62.447	13.905	1329.227	998.901
63.461	13.926	1327.585	997.701
64.476	13.866	1326.880	996.728
65.490	13.906	1325.497	995.841
66.505	13.879	1324.307	994.695
67.520	13.898	1322.872	993.641
68.534	14.050	1321.695	993.582
69.549	13.924	1320.982	992.200
70.563	13.818	1319.802	990.595
71.578	13.918	1318.510	990.134
72.593	13.850	1317.450	988.847
73.607	13.801	1316.845	988.011
74.622	13.894	1315.289	987.312
75.636	13.861	1314.800	986.659
76.651	13.915	1314.344	986.554
77.666	13.801	1313.968	985.508
78.680	13.832	1313.401	985.178
79.695	13.839	1312.520	984.469
80.709	13.889	1311.618	984.004
81.724	13.935	1310.939	983.678
82.739	13.863	1309.840	982.343
83.753	14.003	1308.722	982.242
84.768	14.041	1307.815	981.702
85.782	14.044	1306.723	980.811
86.797	14.036	1305.333	979.633
87.812	13.977	1303.967	978.176
88.826	13.984	1303.223	977.572
89.841	14.067	1302.082	977.115
90.855	13.991	1301.119	975.859
91.870	13.946	1300.565	975.093
92.884	14.124	1299.131	974.975
93.899	14.061	1298.745	974.231
94.914	14.157	1297.940	974.106
95.928	14.158	1296.747	973.128
96.943	14.064	1296.274	972.139
97.957	14.162	1295.268	971.868
98.972	14.089	1294.027	970.427
99.987	14.073	1293.345	969.735
101.001	14.102	1291.787	968.654
102.016	14.141	1291.272	968.407
103.030	14.121	1290.322	967.492
104.045	14.088	1289.523	966.618
105.060	14.074	1288.317	965.542
106.074	13.977	1286.980	963.893
107.089	14.032	1285.203	962.799
108.103	13.980	1284.261	961.706
109.118	13.893	1283.435	960.499
110.133	13.977	1281.628	959.546
111.147	13.968	1280.411	958.497
112.162	14.115	1278.822	958.072
113.176	13.977	1278.401	956.879
114.191	13.974	1277.446	956.059
115.206	14.170	1275.966	955.997
116.220	14.059	1274.812	954.409
117.235	14.039	1274.279	953.809
118.249	14.084	1272.664	952.777
119.264	14.013	1271.352	951.303
120.279	13.981	1270.490	950.387
121.293	14.037	1269.704	950.037
122.308	13.965	1268.644	948.749
123.322	13.974	1267.317	947.722
124.337	13.928	1266.383	946.679
125.352	14.060	1264.732	946.114
126.366	13.877	1264.173	944.572
127.381	13.989	1263.167	944.370
128.395	14.007	1262.097	943.589
129.410	13.904	1260.993	942.095
130.424	13.939	1260.233	941.646
131.439	13.972	1259.353	941.090
132.454	14.029	1258.120	940.406
133.468	14.029	1257.153	939.603
134.483	14.023	1256.638	939.099
135.497	13.991	1255.727	938.155
136.512	14.128	1253.902	937.483
137.527	14.009	1252.913	935.985
138.541	13.996	1251.015	934.416
139.556	14.072	1250.314	934.236
140.570	14.048	1249.046	933.069
141.585	14.146	1248.203	932.910
142.600	14.153	1246.745	931.773
143.614	14.084	1246.536	931.147
144.629	14.268	1244.959	930.918
145.643	14.265	1243.561	929.777
146.658	14.141	1242.874	928.483
147.673	13.942	1241.538	926.295
148.687	14.102	1240.149	926.071
149.702	14.094	1239.145	925.193
150.716	14.182	1237.512	924.384
151.731	14.133	1236.473	923.248
152.746	14.098	1235.738	922.428
153.760	14.197	1233.908	921.527
154.775	14.237	1232.683	920.754
155.789	14.270	1231.855	920.235
156.804	14.246	1231.121	919.470
157.819	14.297	1229.929	918.784
158.833	14.246	1229.291	917.943
159.848	14.297	1227.740	916.986
160.862	14.335	1226.863	916.456
161.877	14.341	1226.228	915.935
162.892	14.325	1225.085	914.912
163.906	14.182	1224.305	913.464
164.921	14.312	1223.191	913.264
165.935	14.249	1222.137	912.049
166.950	14.249	1222.082	911.930
167.964	14.361	1220.831	911.529
168.979	14.384	1220.573	911.381
169.994	14.303	1219.828	910.299
171.008	14.414	1218.619	909.923
172.023	14.443	1217.658	909.285
173.037	14.543	1216.432	908.834
174.052	14.418	1216.423	908.065
175.067	14.318	1215.603	906.827
176.081	14.315	1214.405	905.838
177.096	14.237	1213.353	904.549
178.110	14.347	1212.030	904.080
179.125	14.318	1211.203	903.229
180.140	14.428	1209.721	902.635
181.154	14.407	1208.864	901.802
182.169	14.427	1207.526	900.833
183.183	14.422	1206.431	899.909
184.198	14.748	1204.641	900.252
185.213	14.621	1203.705	898.792
186.227	14.629	1202.697	897.999
187.242	14.608	1201.721	897.082
188.256	14.657	1200.825	896.594
189.271	14.714	1199.799	896.055
190.286	14.572	1198.783	894.458
191.300	14.487	1198.146	893.448
192.315	14.438	1197.627	892.718
193.329	14.572	1196.937	892.844
194.344	14.569	1196.536	892.447
195.359	14.542	1195.977	891.806
196.373	14.614	1195.073	891.441
197.388	14.820	1194.403	891.958
198.402	14.695	1194.197	891.061
199.417	14.776	1193.758	891.083
200.432	14.857	1192.410	890.431
201.446	14.893	1191.690	890.005
202.461	14.927	1190.909	889.525
203.475	14.796	1190.097	888.147
204.490	14.849	1188.329	887.031
205.504	14.880	1187.160	886.242
206.519	14.896	1186.131	885.480
207.534	14.884	1185.098	884.566
208.548	14.888	1184.176	883.821
209.563	14.834	1183.284	882.792
210.577	14.813	1182.926	882.337
211.592	14.836	1181.990	881.682
212.607	14.936	1180.922	881.333
213.621	14.908	1180.178	880.555
214.636	14.885	1179.279	879.683
215.650	14.965	1178.550	879.480
216.665	15.076	1177.157	878.947
217.680	15.064	1175.934	877.896
218.694	14.956	1175.590	876.993
219.709	15.045	1174.229	876.365
220.723	15.071	1173.862	876.151
221.738	15.195	1173.153	876.193
222.753	15.091	1172.557	875.124
223.767	15.089	1171.531	874.271
224.782	15.134	1171.031	874.054
225.796	15.258	1170.412	874.165
226.811	15.252	1169.510	873.381
227.826	15.061	1169.157	872.048
228.840	15.163	1168.274	871.841
229.855	15.167	1167.712	871.363
230.869	15.174	1166.657	870.537
231.884	15.185	1165.844	869.910
232.899	15.004	1165.628	868.733
233.913	15.082	1164.573	868.274
234.928	15.178	1163.856	868.158
235.942	15.153	1162.871	867.221
236.957	15.130	1162.269	866.573
237.972	15.191	1161.740	866.420
238.986	15.166	1160.908	865.594
240.001	15.145	1160.248	864.913
241.015	15.196	1159.852	864.809
242.030	15.252	1158.326	863.880
243.045	15.220	1157.881	863.309
244.059	15.288	1156.918	862.866
245.074	15.331	1155.824	862.195
246.088	15.290	1155.851	861.927
247.103	15.349	1154.777	861.350
248.117	15.492	1153.702	861.209
249.132	15.482	1153.204	860.707
250.147	15.456	1152.616	860.058
251.161	15.479	1151.913	859.579
252.176	15.556	1151.021	859.229
253.190	15.533	1150.527	858.666
254.205	15.668	1149.945	858.848
255.220	15.695	1149.160	858.324
256.234	15.611	1148.555	857.364
257.249	15.790	1147.509	857.422
258.263	15.686	1147.326	856.680
259.278	15.727	1146.825	856.434
260.293	15.650	1146.310	855.587
261.307	15.691	1145.838	855.368
262.322	15.777	1145.195	855.249
263.336	15.788	1143.905	854.262
264.351	15.787	1143.384	853.793
265.366	15.963	1142.524	853.970
266.380	15.876	1142.124	853.151
267.395	15.880	1141.577	852.690
268.409	15.809	1140.796	851.671
269.424	15.780	1140.037	850.883
270.439	15.846	1139.885	851.028
271.453	15.774	1139.153	850.041
272.468	15.810	1138.060	849.335
273.482	15.821	1137.422	848.838
274.497	15.824	1137.021	848.480
275.512	15.821	1136.489	847.988
276.526	15.922	1135.339	847.567
277.541	15.977	1134.695	847.284
278.555	15.908	1133.947	846.306
279.570	16.003	1133.196	846.149
280.585	16.043	1132.274	845.587
281.599	16.088	1131.013	844.794
282.614	15.988	1130.754	844.025
283.628	16.101	1129.544	843.614
284.643	16.104	1128.377	842.680
285.657	16.150	1127.492	842.175
286.672	16.102	1127.098	841.569
287.687	16.113	1126.134	840.827
288.701	16.157	1125.371	840.402
289.716	16.215	1124.589	840.035
290.730	16.128	1124.085	839.150
291.745	16.211	1122.877	838.588
292.760	16.204	1122.442	838.153
293.774	16.239	1121.956	837.888
294.789	16.179	1121.730	837.347
295.803	16.375	1120.705	837.482
296.818	16.189	1120.169	836.083
297.833	16.264	1119.329	835.756
298.847	16.239	1118.488	834.931
299.862	16.250	1117.797	834.395
300.876	16.249	1116.930	833.666
301.891	16.295	1116.409	833.434
302.906	16.284	1115.750	832.811
303.920	16.304	1114.917	832.215
304.935	16.392	1114.354	832.158
305.949	16.351	1114.163	831.738
306.964	16.463	1113.025	831.365
307.979	16.486	1112.410	830.947
308.993	16.466	1111.408	830.024
310.008	16.566	1110.505	829.769
311.022	16.463	1110.068	828.865
312.037	16.536	1109.157	828.465
313.052	16.455	1108.290	827.351
314.066	16.361	1107.931	826.548
315.081	16.526	1106.837	826.467
316.095	16.452	1106.132	825.506
317.110	16.636	1105.055	825.528
318.125	16.536	1104.654	824.664
319.139	16.444	1104.199	823.804
320.154	16.531	1103.377	823.543
321.168	16.535	1102.994	823.204
322.183	16.439	1102.118	822.008
323.197	16.519	1101.354	821.754
324.212	16.614	1100.528	821.527
325.227	16.659	1099.970	821.257
326.241	16.572	1099.541	820.441
327.256	16.724	1098.491	820.322
328.270	16.678	1097.568	819.339
329.285	16.667	1096.605	818.492
330.300	16.666	1095.807	817.821
331.314	16.660	1094.979	817.101
332.329	16.626	1094.105	816.215
333.343	16.724	1093.374	816.069
334.358	16.619	1092.155	814.578
335.373	16.679	1091.974	814.663
336.387	16.788	1090.749	814.202
337.402	16.820	1090.482	814.084
338.416	16.824	1089.576	813.350
339.431	16.877	1089.032	813.127
340.446	16.928	1088.651	813.018
341.460	16.909	1087.839	812.246
342.475	16.932	1086.735	811.463
343.489	17.003	1085.722	810.970
344.504	16.933	1084.934	809.976
345.519	17.075	1084.177	810.019
346.533	17.019	1083.273	809.006
347.548	17.033	1082.713	808.584
348.562	17.099	1081.674	808.049
349.577	17.049	1081.488	807.600
350.592	16.931	1080.801	806.455
351.606	16.987	1079.979	806.037
352.621	16.944	1079.106	805.108
353.635	17.071	1078.565	805.236
354.650	17.012	1077.641	804.193
355.665	17.012	1076.839	803.525
356.679	17.087	1076.524	803.573
357.694	17.064	1075.866	802.904
358.708	17.052	1075.392	802.423
359.723	17.170	1074.526	802.262
360.738	17.165	1074.192	801.917
361.752	17.223	1073.187	801.373
362.767	17.315	1072.678	801.355
363.781	17.255	1072.116	800.581
364.796	17.227	1071.826	800.162
365.810	17.285	1071.045	799.778
366.825	17.267	1070.499	799.218
367.840	17.272	1069.876	798.704
368.854	17.353	1069.347	798.618
369.869	17.396	1068.626	798.212
370.883	17.366	1067.736	797.337
371.898	17.422	1066.722	796.770
372.913	17.421	1066.374	796.434
373.927	17.277	1066.102	795.489
374.942	17.417	1065.399	795.549
375.956	17.458	1064.857	795.265
376.971	17.425	1064.270	794.601
377.986	17.407	1063.713	794.031
379.000	17.535	1062.969	794.000
380.015	17.594	1062.668	793.982
381.029	17.638	1061.777	793.448
382.044	17.626	1060.965	792.719
383.059	17.556	1060.391	791.896
384.073	17.588	1059.686	791.445
385.088	17.650	1058.786	790.990
386.102	17.625	1057.968	790.194
387.117	17.584	1057.134	789.313
388.132	17.536	1056.299	788.394
389.146	17.599	1055.159	787.767
390.161	17.656	1054.463	787.440
391.175	17.752	1053.610	787.176
392.190	17.690	1053.354	786.631
393.205	17.777	1052.529	786.345
394.219	17.778	1051.905	785.815
395.234	17.730	1050.804	784.701
396.248	17.779	1049.293	783.730
397.263	17.838	1048.785	783.553
398.278	17.720	1048.266	782.552
399.292	17.671	1047.575	781.744
400.307	17.717	1046.871	781.361
401.321	17.631	1046.125	780.339
402.336	17.736	1045.364	780.182
403.350	17.813	1044.936	780.148
404.365	17.831	1044.196	779.609
405.380	17.856	1043.293	778.979
406.394	17.905	1042.669	778.667
407.409	17.894	1041.862	777.946
408.423	17.952	1041.491	777.861
409.438	17.923	1040.356	776.814
410.453	18.033	1039.701	776.758
411.467	17.988	1038.826	775.832
412.482	18.034	1038.515	775.737
413.496	17.999	1038.011	775.134
414.511	17.946	1037.335	774.322
415.526	17.977	1037.207	774.297
416.540	18.125	1036.763	774.568
417.555	18.227	1035.664	774.138
418.569	18.354	1035.070	774.202
419.584	18.121	1035.039	773.054
420.599	18.124	1034.688	772.740
421.613	108.418	1327.278	1483.300
422.628	99.407	1369.878	1483.372
