DTS Sentinel unit serial number:	SN413079Multiplexer serial number:	ORYXHardware model number:	OX4-SRSoftware version number:	ORYX F/W v4.00 Oryx Data Collector v3.7.2.0data status	okinstallation	princeton_trtdifferential loss correction	single-endedforward channel	channel 2reverse channel	N/Adate	2019/09/15time	00:15:34forward acquisition time	60.00reverse acquisition time	0.00gamma	496.2192k internal	0.2324k external	0.2324temperature offset calibration	1.0045default loss term (dB/km)	0.3790temperature slope calibration	1.0000multiplexer offset coefficient	1.0000multiplexer slope coefficient	1.0000fibre end	0.00T internal ref (°C)	32.19T ext. ref 1 (°C)	4.59T ext. ref 2 (°C)	27.18length (m)	temperature (°C)	Stokes	anti-Stokes-747.200	320.995	0.125	-0.240
-746.185	25.474	-0.196	0.164
-745.171	800.000	-0.042	-0.168
-744.156	-155.946	0.209	-0.013
-743.142	38.550	-0.186	0.168
-742.127	238.740	-0.134	0.224
-741.112	141.390	-0.010	0.014
-740.098	-85.598	0.132	0.041
-739.083	-200.000	-0.061	0.342
-738.069	108.673	-0.219	-0.264
-737.054	-73.877	-0.089	-0.033
-736.039	100.958	0.065	0.076
-735.025	88.629	0.313	0.352
-734.010	-27.590	-0.107	0.063
-732.996	319.536	0.183	-0.350
-731.981	-83.103	0.154	-0.050
-730.966	-200.000	0.016	-0.292
-729.952	-158.623	-0.471	-0.027
-728.937	800.000	-0.074	-0.250
-727.923	-59.422	-0.238	-0.103
-726.908	442.462	0.149	-0.328
-725.894	-117.722	-0.455	-0.083
-724.879	142.469	-0.111	-0.149
-723.864	128.501	-0.109	0.140
-722.850	-90.918	-0.090	-0.026
-721.835	800.000	0.073	0.264
-720.821	42.234	0.199	-0.183
-719.806	329.416	0.078	-0.151
-718.791	-200.000	0.070	0.362
-717.777	-200.000	-0.005	-0.356
-716.762	-200.000	0.001	-0.094
-715.748	85.074	-0.182	0.201
-714.733	191.068	0.088	-0.133
-713.718	18.015	-0.142	0.114
-712.704	-200.000	-0.027	-0.363
-711.689	69.545	0.099	-0.103
-710.675	-200.000	0.032	-0.216
-709.660	29.454	-0.051	-0.044
-708.645	92.323	-0.244	-0.277
-707.631	136.561	-0.355	0.467
-706.616	276.335	-0.151	-0.271
-705.602	362.659	-0.082	0.166
-704.587	-200.000	-0.006	0.043
-703.572	800.000	0.055	-0.156
-702.558	-200.000	0.046	-0.290
-701.543	514.703	-0.093	-0.218
-700.529	-89.255	0.294	0.087
-699.514	136.380	0.175	0.230
-698.499	800.000	-0.107	0.333
-697.485	-114.806	0.078	-0.015
-696.470	-99.127	0.296	0.075
-695.456	8.550	0.192	-0.146
-694.441	-200.000	0.291	0.001
-693.426	-200.000	-0.022	0.137
-692.412	-200.000	0.069	0.368
-691.397	800.000	-0.126	-0.379
-690.383	-172.489	-0.260	0.008
-689.368	-121.862	-0.244	-0.041
-688.354	-123.237	-0.347	-0.056
-687.339	333.607	-0.075	-0.147
-686.324	72.434	-0.181	-0.190
-685.310	70.546	-0.164	-0.171
-684.295	-200.000	-0.050	-0.272
-683.281	-22.806	0.167	-0.101
-682.266	104.811	-0.145	0.172
-681.251	176.517	-0.166	0.242
-680.237	-111.235	-0.128	-0.026
-679.222	-47.554	0.332	-0.162
-678.208	-79.724	0.073	-0.025
-677.193	-200.000	0.010	-0.049
-676.178	36.347	-0.342	-0.304
-675.164	87.632	-0.297	-0.331
-674.149	12.359	-0.165	-0.128
-673.135	-133.717	-0.148	0.019
-672.120	-69.749	0.246	0.095
-671.105	390.415	-0.112	-0.234
-670.091	-15.983	-0.194	0.124
-669.076	-109.388	-0.294	0.063
-668.062	84.244	0.063	-0.069
-667.047	-135.784	-0.322	0.038
-666.032	256.665	0.105	0.182
-665.018	-200.000	0.018	-0.205
-664.003	-183.701	-0.146	0.003
-662.989	607.756	0.188	-0.472
-661.974	-88.002	-0.335	-0.101
-660.959	-118.894	-0.200	-0.035
-659.945	163.022	0.087	-0.123
-658.930	-84.130	0.405	0.129
-657.916	-109.584	0.340	0.072
-656.901	341.955	0.111	0.218
-655.886	-200.000	-0.010	0.087
-654.872	15.987	0.128	0.102
-653.857	-200.000	-0.031	0.196
-652.843	792.413	0.023	-0.064
-651.828	753.287	-0.090	-0.244
-650.814	-200.000	0.008	-0.057
-649.799	-200.000	0.016	0.234
-648.784	-14.766	-0.176	0.113
-647.770	3.733	-0.070	0.052
-646.755	-5.647	0.286	0.197
-645.741	657.497	0.059	-0.152
-644.726	-200.000	-0.019	-0.133
-643.711	109.115	0.102	0.123
-642.697	-200.000	0.032	0.290
-641.682	800.000	0.054	0.160
-640.668	-69.550	0.299	-0.115
-639.653	-92.811	-0.147	-0.041
-638.638	91.952	-0.145	0.164
-637.624	-58.765	0.240	-0.104
-636.609	-36.706	0.133	0.072
-635.595	-40.024	0.257	-0.135
-634.580	-112.110	-0.103	0.021
-633.565	-58.433	-0.254	-0.111
-632.551	41.010	-0.257	-0.233
-631.536	134.873	-0.153	-0.200
-630.522	-120.633	0.114	-0.019
-629.507	-134.561	-0.153	0.019
-628.492	-44.624	0.477	-0.239
-627.478	-119.604	0.127	-0.022
-626.463	-200.000	0.050	0.283
-625.449	-136.469	0.327	-0.038
-624.434	-20.837	0.291	-0.179
-623.419	-200.000	0.028	-0.381
-622.405	-89.263	-0.174	0.051
-621.390	160.082	-0.141	-0.197
-620.376	-200.000	0.016	-0.329
-619.361	166.972	-0.057	0.081
-618.346	-65.461	-0.253	-0.102
-617.332	-139.599	-0.104	-0.011
-616.317	-200.000	0.028	-0.126
-615.303	560.137	0.124	0.301
-614.288	13.685	-0.462	0.361
-613.273	-6.548	0.153	0.105
-612.259	-200.000	0.009	0.164
-611.244	-40.071	-0.097	0.051
-610.230	70.410	0.288	-0.299
-609.215	98.983	0.123	-0.143
-608.201	-84.775	0.289	-0.091
-607.186	-62.234	0.161	-0.067
-606.171	-102.264	0.161	-0.039
-605.157	282.355	-0.071	-0.128
-604.142	102.300	-0.119	-0.140
-603.128	530.147	-0.123	0.291
-602.113	-106.531	0.208	-0.046
-601.098	800.000	-0.052	-0.146
-600.084	-41.188	0.120	-0.062
-599.069	52.673	-0.167	-0.160
-598.055	-89.936	-0.143	0.042
-597.040	236.528	-0.078	-0.130
-596.025	-6.957	0.342	0.233
-595.011	208.084	0.098	0.153
-593.996	-70.749	-0.078	-0.029
-592.982	-200.000	-0.004	-0.059
-591.967	-14.670	-0.063	-0.041
-590.952	-124.808	-0.228	-0.035
-589.938	158.146	-0.056	-0.077
-588.923	-117.946	0.132	0.024
-587.909	-2.301	-0.112	-0.079
-586.894	-136.141	-0.442	0.052
-585.879	-27.840	-0.252	-0.147
-584.865	-200.000	-0.018	0.299
-583.850	-11.396	-0.080	0.053
-582.836	-37.463	-0.203	0.109
-581.821	30.670	-0.322	0.276
-580.806	-189.481	-0.268	-0.003
-579.792	360.954	-0.064	0.128
-578.777	-72.316	-0.282	-0.105
-577.763	-200.000	-0.005	-0.280
-576.748	800.000	-0.072	-0.228
-575.733	8.038	-0.171	-0.128
-574.719	-200.000	0.002	-0.131
-573.704	276.961	-0.139	0.248
-572.690	100.093	0.153	0.178
-571.675	800.000	0.025	0.101
-570.661	-200.000	-0.047	0.294
-569.646	-200.000	0.010	-0.047
-568.631	41.449	-0.208	-0.189
-567.617	-200.000	0.009	0.110
-566.602	-131.271	-0.253	0.034
-565.588	-200.000	0.025	-0.277
-564.573	56.623	0.052	-0.050
-563.558	800.000	0.067	-0.223
-562.544	344.835	-0.102	-0.201
-561.529	-146.850	-0.236	-0.020
-560.515	-132.848	0.167	0.021
-559.500	-154.181	0.099	-0.007
-558.485	46.929	-0.217	-0.202
-557.471	-119.088	-0.184	0.032
-556.456	-1.956	-0.191	-0.134
-555.442	-200.000	-0.007	-0.190
-554.427	129.625	-0.213	0.273
-553.412	-200.000	0.025	0.510
-552.398	67.882	0.226	-0.232
-551.383	-90.666	0.139	0.040
-550.369	-27.727	0.278	-0.162
-549.354	-140.150	0.142	0.015
-548.339	621.233	-0.144	-0.362
-547.325	-200.000	0.012	0.286
-546.310	-200.000	-0.056	0.284
-545.296	-50.103	-0.278	0.132
-544.281	-200.000	-0.050	0.245
-543.266	120.646	-0.089	0.110
-542.252	45.628	-0.056	-0.052
-541.237	-157.810	0.092	0.005
-540.223	-23.624	0.073	-0.044
-539.208	-144.555	0.104	0.010
-538.193	503.857	0.085	-0.196
-537.179	60.275	-0.049	-0.048
-536.164	-200.000	-0.046	-0.217
-535.150	-117.614	0.370	0.067
-534.135	218.186	0.123	-0.196
-533.121	179.112	0.092	-0.135
-532.106	112.256	0.209	-0.253
-531.091	-200.000	-0.005	0.031
-530.077	-120.422	-0.156	-0.027
-529.062	-92.387	-0.234	-0.066
-528.048	-112.930	-0.269	0.053
-527.033	-165.590	-0.185	-0.008
-526.018	215.711	0.191	-0.304
-525.004	60.584	0.101	0.100
-523.989	-80.156	-0.187	-0.063
-522.975	83.538	-0.121	-0.132
-521.960	-155.609	-0.090	0.006
-520.945	800.000	0.042	-0.116
-519.931	800.000	-0.111	0.364
-518.916	110.452	-0.065	0.079
-517.902	-163.972	0.188	0.009
-516.887	-200.000	-0.001	-0.217
-515.872	-120.933	0.238	0.040
-514.858	-163.076	0.042	0.002
-513.843	-18.708	-0.053	-0.033
-512.829	-184.148	-0.368	-0.006
-511.814	94.225	-0.185	-0.210
-510.799	-135.344	0.428	-0.051
-509.785	194.510	-0.171	-0.259
-508.770	132.180	-0.048	0.061
-507.756	-200.000	-0.002	0.222
-506.741	800.000	-0.038	-0.163
-505.726	-61.190	-0.090	0.038
-504.712	800.000	0.079	0.228
-503.697	82.624	-0.129	-0.140
-502.683	-50.222	-0.151	-0.071
-501.668	-56.525	-0.138	0.061
-500.653	269.332	-0.053	0.094
-499.639	-100.010	0.250	0.062
-498.624	-74.295	-0.322	0.116
-497.610	387.784	-0.045	0.092
-496.595	800.000	0.036	0.100
-495.581	34.542	0.120	-0.105
-494.566	13.700	0.162	-0.126
-493.551	-136.100	-0.151	-0.018
-492.537	135.112	-0.213	0.276
-491.522	-31.395	-0.123	0.069
-490.508	-200.000	0.061	0.493
-489.493	485.947	-0.077	-0.175
-488.478	-122.582	0.267	0.043
-487.464	-89.854	0.189	-0.055
-486.449	425.000	0.102	0.219
-485.435	-157.710	-0.229	0.014
-484.420	-141.282	-0.210	0.021
-483.405	-153.638	0.275	0.019
-482.391	184.238	0.098	0.146
-481.376	430.308	-0.105	0.226
-480.362	-109.935	0.185	0.039
-479.347	9.234	0.146	-0.110
-478.332	117.763	0.135	-0.166
-477.318	-200.000	-0.029	0.393
-476.303	-12.108	0.168	0.110
-475.289	195.722	0.132	0.201
-474.274	89.484	-0.081	-0.090
-473.259	-30.011	-0.196	0.112
-472.245	-14.220	0.095	0.061
-471.230	-193.658	0.364	0.003
-470.216	-121.360	-0.214	0.036
-469.201	24.929	-0.187	0.155
-468.186	800.000	0.099	-0.380
-467.172	-49.843	0.264	0.125
-466.157	138.454	0.031	0.040
-465.143	-37.901	-0.333	-0.177
-464.128	-160.701	0.231	0.012
-463.113	800.000	0.042	-0.151
-462.099	-67.596	-0.196	-0.077
-461.084	-53.805	0.143	0.065
-460.070	-200.000	-0.022	0.372
-459.055	-200.000	-0.000	0.158
-458.040	162.150	0.065	0.091
-457.026	-8.994	-0.381	-0.255
-456.011	-41.645	0.185	0.095
-454.997	117.155	-0.118	0.144
-453.982	83.238	0.030	-0.033
-452.968	-200.000	0.099	-0.583
-451.953	-97.807	-0.040	-0.010
-450.938	-200.000	-0.035	0.239
-449.924	165.743	-0.027	-0.039
-448.909	166.079	0.095	-0.134
-447.895	109.685	0.149	0.178
-446.880	-200.000	-0.000	-0.013
-445.865	-162.497	0.455	-0.022
-444.851	-105.346	-0.295	-0.067
-443.836	-200.000	-0.000	-0.299
-442.822	105.223	-0.204	-0.241
-441.807	-83.138	0.067	-0.022
-440.792	173.266	-0.192	0.276
-439.778	-0.417	-0.151	-0.107
-438.763	90.517	-0.072	0.080
-437.749	-110.201	0.226	-0.047
-436.734	-98.134	-0.257	0.066
-435.719	-200.000	-0.021	0.093
-434.705	8.449	0.079	-0.059
-433.690	-48.155	0.209	-0.101
-432.676	50.847	-0.103	0.097
-431.661	-120.495	0.205	-0.035
-430.646	800.000	0.039	0.147
-429.632	-73.785	0.079	0.029
-428.617	-86.891	0.048	-0.015
-427.603	-200.000	-0.005	-0.099
-426.588	-142.820	0.141	-0.014
-425.573	667.546	-0.119	-0.307
-424.559	92.428	0.048	-0.054
-423.544	-200.000	-0.024	-0.201
-422.530	-200.000	0.173	-0.001
-421.515	800.000	-0.038	0.139
-420.500	-200.000	0.007	0.122
-419.486	-200.000	-0.005	0.065
-418.471	511.453	-0.038	0.089
-417.457	-51.287	-0.108	0.050
-416.442	19.521	0.127	0.102
-415.428	8.273	-0.212	-0.159
-414.413	-36.023	-0.270	0.145
-413.398	800.000	0.083	-0.257
-412.384	-32.845	-0.092	0.051
-411.369	112.894	-0.075	0.091
-410.355	12.333	-0.115	0.088
-409.340	-184.505	-0.213	-0.003
-408.325	55.508	-0.309	-0.298
-407.311	-200.000	0.027	-0.201
-406.296	222.512	0.044	-0.071
-405.282	371.644	0.168	0.339
-404.267	84.158	0.145	0.157
-403.252	84.550	-0.169	0.184
-402.238	491.378	0.221	-0.504
-401.223	102.718	-0.259	0.302
-400.209	-83.750	0.263	0.083
-399.194	-69.672	-0.318	-0.121
-398.179	89.025	-0.057	-0.063
-397.165	23.502	0.258	0.211
-396.150	84.951	0.248	0.271
-395.136	-100.756	0.131	0.032
-394.121	-200.000	0.014	-0.103
-393.106	-108.909	-0.169	-0.036
-392.092	-15.300	0.305	0.194
-391.077	-104.423	0.047	-0.011
-390.063	220.347	-0.011	-0.018
-389.048	100.179	-0.033	0.038
-388.033	-29.865	-0.166	-0.094
-387.019	528.368	-0.070	-0.163
-386.004	800.000	-0.131	-0.428
-384.990	581.059	-0.032	0.079
-383.975	-42.549	0.211	0.107
-382.960	800.000	-0.012	-0.044
-381.946	800.000	-0.005	-0.017
-380.931	-38.444	-0.110	0.058
-379.917	531.182	0.139	0.327
-378.902	-154.374	-0.182	-0.012
-377.888	-162.752	0.317	-0.015
-376.873	83.466	-0.104	-0.112
-375.858	-58.080	-0.476	0.207
-374.844	-116.284	0.201	-0.037
-373.829	613.875	0.073	-0.181
-372.815	-32.840	0.048	-0.026
-371.800	-104.069	0.307	0.071
-370.785	-35.262	-0.085	0.046
-369.771	-200.000	0.004	0.079
-368.756	-0.120	-0.268	-0.190
-367.742	114.425	-0.107	-0.130
-366.727	-200.000	-0.017	0.147
-365.712	-127.168	-0.099	-0.014
-364.698	-54.487	0.247	-0.111
-363.683	-110.136	-0.079	-0.016
-362.669	431.693	0.121	-0.260
-361.654	800.000	-0.112	-0.309
-360.639	13.976	-0.167	-0.129
-359.625	800.000	0.053	0.173
-358.610	-23.545	0.082	0.049
-357.596	35.260	-0.201	-0.175
-356.581	-200.000	0.050	-0.238
-355.566	-151.186	0.199	0.015
-354.552	-70.644	-0.173	-0.065
-353.537	800.000	0.043	-0.166
-352.523	800.000	0.042	-0.127
-351.508	-6.350	0.112	-0.076
-350.493	424.672	-0.031	-0.067
-349.479	23.058	-0.255	-0.208
-348.464	105.859	0.191	0.224
-347.450	38.428	0.135	0.119
-346.435	-200.000	0.035	-0.166
-345.420	84.791	-0.107	0.116
-344.406	105.254	-0.063	-0.074
-343.391	800.000	0.051	-0.147
-342.377	-200.000	-0.026	-0.120
-341.362	-175.453	-0.066	-0.002
-340.348	12.407	-0.081	0.062
-339.333	-28.514	0.246	0.141
-338.318	800.000	0.030	-0.104
-337.304	82.032	-0.221	-0.237
-336.289	374.762	-0.037	0.076
-335.275	-192.151	0.189	-0.002
-334.260	-32.306	-0.019	0.011
-333.245	-53.407	0.245	0.112
-332.231	-47.130	-0.118	0.057
-331.216	-200.000	-0.020	0.297
-330.202	800.000	-0.014	0.057
-329.187	-111.667	-0.195	-0.039
-328.172	697.136	0.097	-0.252
-327.158	800.000	-0.038	-0.164
-326.143	-134.414	0.115	0.014
-325.129	-46.694	0.222	0.108
-324.114	-200.000	-0.032	-0.273
-323.099	-31.895	-0.084	0.047
-322.085	212.987	-0.144	-0.226
-321.070	192.903	0.168	-0.252
-320.056	41.963	-0.310	0.279
-319.041	267.480	0.100	0.174
-318.026	-200.000	-0.035	-0.294
-317.012	-78.505	-0.170	0.058
-315.997	-60.072	0.227	0.096
-314.983	17.465	0.215	0.169
-313.968	-24.726	0.273	-0.161
-312.953	-87.004	-0.388	0.117
-311.939	-21.729	0.203	0.122
-310.924	271.864	-0.031	0.054
-309.910	-200.000	0.099	0.452
-308.895	16.332	0.309	0.242
-307.880	285.879	-0.096	-0.171
-306.866	-126.979	-0.162	0.024
-305.851	16.583	-0.197	0.154
-304.837	679.994	-0.080	-0.207
-303.822	800.000	0.008	-0.030
-302.807	-52.699	0.255	-0.117
-301.793	20.716	0.072	-0.058
-300.778	721.599	0.044	-0.117
-299.764	247.065	0.131	-0.219
-298.749	-130.948	-0.094	-0.012
-297.735	247.150	-0.186	-0.311
-296.720	27.085	-0.152	0.126
-295.705	-200.000	0.030	0.385
-294.691	-200.000	-0.017	0.291
-293.676	-42.651	-0.158	-0.080
-292.662	89.923	0.096	0.107
-291.647	35.048	-0.360	0.313
-290.632	29.840	-0.320	0.271
-289.618	3.127	-0.206	0.149
-288.603	-200.000	-0.007	0.136
-287.589	-46.643	-0.020	0.010
-286.574	-200.000	-0.003	0.126
-285.559	-29.638	0.310	-0.176
-284.545	6.219	0.217	-0.159
-283.530	-200.000	-0.023	0.300
-282.516	-200.000	0.041	0.226
-281.501	-153.589	0.167	-0.011
-280.486	489.260	-0.113	0.256
-279.472	-70.340	0.223	-0.084
-278.457	77.735	-0.018	0.019
-277.443	-200.000	0.064	-0.569
-276.428	28.729	0.106	-0.089
-275.413	132.343	-0.180	0.230
-274.399	-200.000	-0.019	0.209
-273.384	309.540	-0.048	0.090
-272.370	-141.165	0.085	-0.009
-271.355	-145.433	0.214	0.019
-270.340	-195.553	-0.202	0.001
-269.326	32.817	-0.137	0.118
-268.311	288.249	0.130	-0.234
-267.297	25.684	-0.075	0.062
-266.282	1.153	0.165	-0.117
-265.267	800.000	-0.015	0.049
-264.253	-112.893	-0.368	-0.072
-263.238	-173.095	-0.177	-0.005
-262.224	228.722	0.030	-0.048
-261.209	-80.794	-0.058	0.019
-260.195	-144.414	0.153	-0.014
-259.180	192.098	0.284	0.425
-258.165	-103.624	0.354	0.082
-257.151	-42.035	0.148	0.075
-256.136	-50.367	-0.202	0.094
-255.122	-200.000	0.068	0.366
-254.107	-73.997	0.038	-0.014
-253.092	-200.000	0.024	-0.304
-252.078	-153.780	0.273	0.019
-251.063	-89.098	-0.164	-0.048
-250.049	-62.864	0.132	-0.054
-249.034	-48.066	0.069	-0.033
-248.019	176.055	-0.097	0.139
-247.005	-174.763	0.314	-0.009
-245.990	-112.790	0.265	0.052
-244.976	-182.854	-0.169	-0.003
-243.961	238.291	-0.137	0.226
-242.946	-72.633	0.304	-0.111
-241.932	800.000	-0.033	-0.121
-240.917	201.872	0.039	-0.060
-239.903	-99.359	-0.291	-0.073
-238.888	-43.758	-0.237	-0.118
-237.873	-155.284	0.155	-0.010
-236.859	-44.125	-0.178	-0.088
-235.844	-114.834	0.698	0.132
-234.830	85.853	0.037	0.040
-233.815	-84.820	0.162	-0.050
-232.800	41.992	-0.120	0.108
-231.786	800.000	0.012	0.046
-230.771	-128.487	0.122	0.017
-229.757	-135.187	0.197	-0.023
-228.742	351.946	-0.103	0.202
-227.727	-1.669	0.071	0.049
-226.713	800.000	-0.073	0.236
-225.698	93.279	-0.088	-0.099
-224.684	-78.569	-0.182	-0.062
-223.669	183.255	0.106	0.154
-222.655	-123.896	0.314	0.049
-221.640	111.006	-0.226	0.269
-220.625	-76.693	0.364	0.126
-219.611	44.621	-0.071	0.064
-218.596	-200.000	0.012	0.113
-217.582	-89.557	0.189	-0.055
-216.567	109.920	-0.186	0.220
-215.552	800.000	-0.054	-0.234
-214.538	-118.560	0.335	-0.059
-213.523	199.832	-0.071	-0.107
-212.509	416.771	0.095	0.200
-211.494	-146.337	-0.216	-0.019
-210.479	-183.583	-0.312	0.005
-209.465	-200.000	0.024	0.217
-208.450	15.926	0.249	0.193
-207.436	-53.512	0.289	0.131
-206.421	-26.009	-0.216	0.125
-205.406	76.966	-0.179	-0.188
-204.392	-200.000	0.002	-0.133
-203.377	43.773	-0.241	-0.218
-202.363	-200.000	-0.070	0.367
-201.348	139.847	0.185	-0.241
-200.333	-93.514	-0.177	-0.048
-199.319	-72.485	-0.162	-0.059
-198.304	-83.225	-0.177	-0.056
-197.290	131.127	0.065	-0.083
-196.275	-11.063	0.176	0.115
-195.260	-84.725	-0.125	-0.039
-194.246	315.947	-0.123	-0.229
-193.231	800.000	0.026	0.090
-192.217	-200.000	-0.016	-0.227
-191.202	32.615	0.112	0.095
-190.187	-200.000	0.009	0.263
-189.173	-3.407	-0.199	0.137
-188.158	85.190	0.177	-0.192
-187.144	114.252	-0.028	-0.033
-186.129	-200.000	-0.029	-0.286
-185.114	29.473	0.281	-0.236
-184.100	-2.747	-0.148	0.102
-183.085	265.151	-0.126	0.218
-182.071	92.977	-0.132	-0.147
-181.056	46.968	0.319	0.293
-180.042	-57.379	-0.235	-0.102
-179.027	332.946	-0.093	0.177
-178.012	170.078	0.026	0.036
-176.998	-72.668	0.086	-0.031
-175.983	-200.000	-0.003	-0.113
-174.969	254.595	-0.121	0.205
-173.954	55.741	-0.165	-0.158
-172.939	-200.000	0.047	0.293
-171.925	440.894	-0.172	-0.370
-170.910	147.214	0.279	-0.370
-169.896	-154.125	-0.063	-0.004
-168.881	-200.000	0.040	0.210
-167.866	11.951	0.238	-0.181
-166.852	103.059	-0.098	-0.113
-165.837	-129.845	0.328	0.044
-164.823	-132.834	0.088	-0.011
-163.808	765.187	-0.105	0.281
-162.793	65.636	0.184	0.184
-161.779	-200.000	0.021	-0.317
-160.764	9.047	0.136	-0.102
-159.750	-200.000	0.009	-0.159
-158.735	-200.000	-0.006	-0.190
-157.720	-99.934	0.292	0.072
-156.706	305.831	0.190	0.349
-155.691	-127.181	-0.238	-0.034
-154.677	-200.000	0.030	-0.250
-153.662	-104.965	0.210	0.048
-152.647	-200.000	0.041	-0.239
-151.633	-170.683	-0.240	-0.008
-150.618	-200.000	-0.014	-0.078
-149.604	114.505	0.155	0.186
-148.589	800.000	0.080	0.306
-147.574	-184.704	0.143	-0.002
-146.560	275.782	-0.142	0.248
-145.545	-36.953	0.041	0.022
-144.531	-17.296	-0.244	-0.151
-143.516	43.238	-0.213	0.192
-142.502	52.168	-0.195	0.184
-141.487	76.119	0.195	0.204
-140.472	129.080	-0.103	-0.130
-139.458	74.887	-0.079	0.082
-138.443	190.290	-0.165	-0.244
-137.429	-4.496	-0.068	-0.047
-136.414	-200.000	-0.054	-0.260
-135.399	-58.207	-0.019	-0.008
-134.385	800.000	-0.057	0.166
-133.370	7.759	0.231	0.171
-132.356	-200.000	0.014	-0.177
-131.341	145.269	-0.133	-0.176
-130.326	99.108	-0.080	-0.091
-129.312	-40.852	0.260	-0.132
-128.297	-200.000	0.023	-0.126
-127.283	10.969	0.184	-0.139
-126.268	72.638	0.368	-0.379
-125.253	-44.033	-0.013	-0.006
-124.239	800.000	0.070	-0.284
-123.224	-97.917	0.194	-0.049
-122.210	-59.469	0.167	0.071
-121.195	-200.000	0.021	-0.464
-120.180	-65.587	0.544	-0.215
-119.166	263.644	0.063	-0.109
-118.151	260.859	-0.053	-0.090
-117.137	-52.012	-0.245	-0.112
-116.122	-200.000	0.083	-0.365
-115.107	-119.034	0.076	0.013
-114.093	207.156	0.173	-0.265
-113.078	-4.600	-0.187	0.127
-112.064	75.151	0.146	-0.151
-111.049	-200.000	0.036	-0.278
-110.034	-60.518	0.111	0.046
-109.020	511.196	-0.126	0.289
-108.005	-200.000	-0.009	-0.083
-106.991	96.372	0.103	0.117
-105.976	-105.993	0.119	-0.026
-104.962	280.594	-0.099	-0.175
-103.947	25.689	-0.202	0.165
-102.932	340.577	0.148	0.285
-101.918	-200.000	-0.022	-0.195
-100.903	-150.460	0.236	-0.018
-99.889	-128.329	-0.380	0.053
-98.874	800.000	-0.103	-0.288
-97.859	-14.491	-0.112	0.071
-96.845	275.150	-0.018	-0.031
-95.830	-134.725	-0.315	-0.038
-94.816	276.391	-0.011	-0.020
-93.801	7.675	0.030	-0.022
-92.786	15.196	-0.174	0.134
-91.772	92.798	-0.087	-0.096
-90.757	81.737	-0.107	-0.114
-89.743	-200.000	-0.006	0.217
-88.728	800.000	0.003	0.010
-87.713	-200.000	0.003	0.046
-86.699	474.480	-0.055	0.123
-85.684	-48.297	0.245	0.116
-84.670	-36.594	-0.039	0.020
-83.655	-124.874	0.092	0.014
-82.640	800.000	-0.068	-0.210
-81.626	-100.068	0.115	0.028
-80.611	466.839	-0.107	-0.236
-79.597	800.000	-0.110	-0.401
-78.582	310.157	-0.136	-0.251
-77.567	-122.968	-0.162	0.026
-76.553	20.779	0.177	-0.141
-75.538	37.489	-0.225	0.197
-74.524	54.761	-0.018	-0.017
-73.509	84.349	0.201	0.217
-72.494	-200.000	-0.007	0.238
-71.480	-130.402	0.111	0.015
-70.465	-200.000	0.007	0.035
-69.451	-4.766	0.240	0.163
-68.436	-103.288	0.253	-0.059
-67.422	61.493	0.152	0.149
-66.407	-200.000	0.046	-0.255
-65.392	-129.141	0.266	0.036
-64.378	800.000	0.052	0.161
-63.363	-124.176	-0.149	-0.023
-62.349	-79.811	0.461	0.152
-61.334	131.781	-0.911	-1.152
-60.319	677.425	0.124	0.316
-59.305	420.528	-0.341	-0.717
-58.290	470.191	0.546	1.206
-57.276	467.114	0.690	1.521
-56.261	-200.000	95.170	594.015
-55.246	679.121	1365.321	3490.708
-54.232	199.940	2548.269	3843.143
-53.217	115.755	2268.034	2725.629
-52.203	41.834	1896.537	1689.341
-51.188	35.417	1686.929	1454.144
-50.173	32.805	1642.395	1396.396
-49.159	50.503	1687.824	1568.039
-48.144	52.421	1704.518	1597.849
-47.130	35.118	1665.794	1433.458
-46.115	32.446	1651.696	1401.402
-45.100	32.136	1646.808	1394.904
-44.086	32.180	1643.799	1392.620
-43.071	32.097	1641.257	1389.801
-42.057	32.098	1638.869	1387.727
-41.042	32.109	1636.883	1386.078
-40.027	32.125	1635.236	1384.744
-39.013	32.031	1633.367	1382.411
-37.998	31.983	1631.946	1380.805
-36.984	31.998	1631.041	1380.089
-35.969	32.040	1629.329	1378.900
-34.954	32.132	1627.373	1377.859
-33.940	32.193	1625.253	1376.462
-32.925	32.108	1623.519	1374.317
-31.911	32.180	1621.936	1373.450
-30.896	32.177	1620.156	1371.862
-29.881	32.253	1618.497	1370.961
-28.867	32.167	1617.219	1369.194
-27.852	32.261	1615.183	1368.102
-26.838	32.256	1614.227	1367.200
-25.823	32.249	1611.630	1364.895
-24.809	32.251	1611.043	1364.359
-23.794	32.149	1609.711	1362.436
-22.779	32.269	1608.052	1361.849
-21.765	32.172	1607.179	1360.348
-20.750	32.134	1604.919	1358.112
-19.736	32.211	1603.850	1357.705
-18.721	32.293	1602.452	1357.062
-17.706	32.238	1601.127	1355.487
-16.692	32.219	1599.593	1353.999
-15.677	32.186	1598.456	1352.743
-14.663	32.271	1596.666	1351.793
-13.648	32.232	1595.123	1350.149
-12.633	32.279	1593.498	1349.057
-11.619	32.202	1592.212	1347.362
-10.604	32.129	1590.904	1345.683
-9.590	32.278	1589.205	1345.253
-8.575	32.233	1588.373	1344.174
-7.560	32.239	1587.411	1343.350
-6.546	32.365	1585.586	1342.653
-5.531	32.239	1584.414	1340.705
-4.517	32.297	1583.578	1340.358
-3.502	32.275	1582.097	1338.898
-2.487	32.272	1580.521	1337.491
-1.473	31.957	1569.106	1325.551
-0.458	29.205	1550.021	1290.136
0.556	25.243	1550.462	1258.972
1.571	22.946	1573.236	1260.982
2.586	22.386	1586.512	1267.474
3.600	19.969	1532.652	1207.506
4.615	12.215	1424.885	1072.034
5.629	5.701	1363.199	984.712
6.644	4.594	1356.065	972.552
7.659	4.552	1354.180	970.851
8.673	4.545	1352.775	969.709
9.688	4.648	1351.037	969.024
10.702	4.600	1348.083	966.521
11.717	7.456	1354.040	988.514
12.731	14.790	1367.984	1044.613
13.746	19.415	1373.966	1078.065
14.761	19.134	1372.207	1074.833
15.775	18.078	1369.615	1066.124
16.790	16.907	1367.680	1057.224
17.804	16.205	1364.502	1050.309
18.819	15.821	1363.419	1046.995
19.834	15.593	1362.297	1044.619
20.848	15.265	1361.397	1041.804
21.863	15.129	1359.673	1039.546
22.877	14.882	1359.007	1037.410
23.892	14.868	1357.749	1036.275
24.907	14.905	1357.137	1035.942
25.921	14.935	1356.181	1035.306
26.936	14.969	1354.960	1034.497
27.950	14.982	1354.480	1034.118
28.965	14.991	1353.260	1033.148
29.980	15.163	1352.357	1033.430
30.994	15.210	1351.346	1032.856
32.009	15.221	1350.061	1031.849
33.023	15.264	1348.553	1030.873
34.038	15.272	1347.008	1029.647
35.053	15.032	1346.328	1027.563
36.067	15.049	1345.035	1026.587
37.082	15.100	1344.266	1026.224
38.096	15.182	1343.101	1025.747
39.111	15.173	1342.487	1025.132
40.126	15.069	1341.390	1023.567
41.140	14.893	1340.936	1022.056
42.155	14.841	1340.234	1021.110
43.169	14.745	1339.988	1020.244
44.184	14.693	1339.657	1019.586
45.199	14.856	1338.778	1019.823
46.213	14.916	1338.678	1020.022
47.228	14.985	1337.880	1019.747
48.242	15.062	1336.838	1019.329
49.257	15.094	1334.492	1017.645
50.271	14.997	1333.778	1016.422
51.286	15.041	1332.127	1015.342
52.301	15.041	1331.064	1014.437
53.315	15.081	1329.874	1013.688
54.330	14.868	1329.140	1011.748
55.344	14.865	1327.821	1010.633
56.359	14.897	1326.574	1009.790
57.374	14.842	1325.781	1008.765
58.388	14.731	1324.826	1007.280
59.403	14.758	1324.534	1007.130
60.417	14.729	1323.768	1006.288
61.432	14.692	1323.240	1005.573
62.447	14.655	1322.094	1004.390
63.461	14.639	1320.601	1003.073
64.476	14.671	1319.451	1002.300
65.490	14.727	1318.215	1001.606
66.505	14.733	1316.577	1000.312
67.520	14.644	1315.764	999.075
68.534	14.791	1314.532	998.926
69.549	14.729	1313.702	997.837
70.563	14.727	1312.720	996.995
71.578	14.658	1311.532	995.592
72.593	14.624	1310.204	994.290
73.607	14.486	1309.928	993.170
74.622	14.469	1309.243	992.461
75.636	14.638	1308.328	992.685
76.651	14.668	1308.000	992.528
77.666	14.605	1307.134	991.411
78.680	14.685	1306.677	991.451
79.695	14.714	1305.968	990.995
80.709	14.792	1304.673	990.391
81.724	14.765	1304.697	990.162
82.739	14.814	1303.675	989.585
83.753	14.934	1302.588	989.381
84.768	14.984	1301.815	989.006
85.782	15.079	1300.579	988.537
86.797	15.123	1299.556	987.935
87.812	15.084	1298.074	986.491
88.826	15.091	1297.097	985.703
89.841	15.024	1296.258	984.580
90.855	15.099	1295.274	984.191
91.870	15.048	1294.810	983.451
92.884	15.077	1293.898	982.840
93.899	15.169	1293.108	982.695
94.914	15.144	1292.470	981.976
95.928	15.176	1291.160	981.079
96.943	15.216	1290.176	980.481
97.957	15.122	1289.277	979.159
98.972	15.060	1288.324	977.989
99.987	15.096	1287.292	977.324
101.001	15.046	1286.694	976.496
102.016	14.959	1285.552	975.035
103.030	15.187	1284.184	975.238
104.045	15.071	1283.457	973.923
105.060	15.060	1282.279	972.879
106.074	14.906	1281.023	970.950
107.089	14.912	1279.108	969.446
108.103	14.723	1277.973	967.404
109.118	14.666	1277.261	966.447
110.133	14.751	1275.839	965.782
111.147	14.869	1274.045	965.017
112.162	14.797	1272.981	963.713
113.176	14.876	1271.824	963.205
114.191	14.885	1271.424	962.871
115.206	14.859	1270.374	961.836
116.220	14.894	1268.822	960.780
117.235	14.861	1267.417	959.442
118.249	14.872	1266.095	958.418
119.264	14.824	1265.219	957.399
120.279	14.732	1264.554	956.279
121.293	14.734	1263.371	955.313
122.308	14.735	1262.040	954.230
123.322	14.711	1261.200	953.373
124.337	14.614	1260.479	952.190
125.352	14.687	1259.213	951.566
126.366	14.725	1258.235	950.960
127.381	14.570	1257.573	949.491
128.395	14.650	1256.592	949.121
129.410	14.797	1255.132	948.768
130.424	14.762	1255.091	948.455
131.439	14.778	1253.865	947.535
132.454	14.881	1252.515	947.016
133.468	14.871	1251.696	946.257
134.483	14.868	1251.150	945.741
135.497	14.956	1250.213	945.449
136.512	14.943	1248.734	944.171
137.527	14.946	1247.434	943.123
138.541	14.812	1246.221	941.368
139.556	14.885	1245.288	940.989
140.570	14.998	1243.920	940.506
141.585	15.054	1242.482	939.655
142.600	15.128	1241.612	939.328
143.614	15.162	1240.818	938.831
144.629	15.202	1239.837	938.231
145.643	15.222	1238.495	937.247
146.658	15.041	1237.677	935.534
147.673	14.895	1236.234	933.544
148.687	14.964	1235.402	933.218
149.702	14.909	1233.690	931.536
150.716	14.931	1231.820	930.164
151.731	14.997	1230.741	929.631
152.746	14.916	1230.280	928.754
153.760	15.023	1228.771	928.124
154.775	15.080	1227.748	927.587
155.789	15.103	1227.201	927.218
156.804	15.074	1226.406	926.372
157.819	15.087	1225.189	925.445
158.833	15.191	1224.270	925.245
159.848	15.238	1223.135	924.563
160.862	15.215	1222.042	923.531
161.877	15.136	1221.025	922.242
162.892	15.133	1219.943	921.330
163.906	15.028	1219.198	920.106
164.921	15.039	1217.816	919.043
165.935	15.132	1217.355	919.126
166.950	15.144	1216.907	918.768
167.964	15.190	1216.196	918.402
168.979	15.071	1215.428	917.092
169.994	15.245	1214.364	917.158
171.008	15.166	1214.064	916.420
172.023	15.303	1213.134	916.385
173.037	15.304	1212.358	915.724
174.052	15.353	1211.217	915.046
175.067	15.177	1210.273	913.292
176.081	15.241	1209.366	912.878
177.096	15.230	1208.265	911.907
178.110	15.184	1207.010	910.628
179.125	15.247	1205.954	910.092
180.140	15.277	1204.400	909.002
181.154	15.229	1203.734	908.157
182.169	15.386	1202.335	907.874
183.183	15.331	1201.365	906.765
184.198	15.340	1200.152	905.815
185.213	15.355	1199.216	905.110
186.227	15.354	1198.191	904.248
187.242	15.562	1196.858	904.284
188.256	15.606	1196.177	903.930
189.271	15.475	1195.214	902.416
190.286	15.310	1194.265	900.730
191.300	15.228	1193.004	899.262
192.315	15.245	1192.131	898.615
193.329	15.152	1191.841	897.820
194.344	15.062	1191.457	896.967
195.359	15.158	1191.028	897.077
196.373	15.348	1190.369	897.521
197.388	15.459	1189.902	897.685
198.402	15.682	1189.088	898.180
199.417	15.713	1188.671	897.954
200.432	15.688	1188.207	897.388
201.446	15.822	1187.060	897.158
202.461	15.828	1186.162	896.430
203.475	15.774	1185.595	895.635
204.490	15.685	1184.359	894.149
205.504	15.642	1182.535	892.463
206.519	15.818	1180.874	892.065
207.534	15.581	1180.449	890.412
208.548	15.647	1179.306	889.820
209.563	15.691	1178.540	889.393
210.577	15.611	1177.778	888.317
211.592	15.667	1177.240	888.129
212.607	15.754	1176.565	888.002
213.621	15.735	1175.452	886.980
214.636	15.763	1174.701	886.485
215.650	15.844	1173.398	885.848
216.665	15.859	1172.569	885.225
217.680	15.872	1172.049	884.821
218.694	15.982	1170.886	884.441
219.709	15.940	1170.137	883.578
220.723	15.829	1169.540	882.466
221.738	15.901	1168.936	882.308
222.753	15.981	1168.236	882.124
223.767	15.874	1167.797	881.152
224.782	15.952	1167.175	881.015
225.796	16.022	1166.280	880.628
226.811	16.031	1165.446	879.967
227.826	15.923	1165.223	879.156
228.840	15.932	1164.291	878.422
229.855	15.927	1163.432	877.669
230.869	15.931	1162.354	876.798
231.884	15.880	1161.693	875.958
232.899	15.986	1160.929	875.853
233.913	15.871	1160.091	874.548
234.928	15.926	1159.498	874.307
235.942	15.760	1158.678	872.753
236.957	15.842	1157.597	872.285
237.972	15.864	1157.529	872.270
238.986	15.856	1156.749	871.568
240.001	15.963	1155.705	871.256
241.015	15.999	1154.781	870.665
242.030	15.976	1154.010	869.888
243.045	16.051	1153.542	869.845
244.059	16.032	1152.586	868.951
245.074	16.065	1152.390	868.899
246.088	16.159	1151.366	868.533
247.103	16.234	1149.990	867.805
248.117	16.286	1149.491	867.620
249.132	16.290	1149.017	867.202
250.147	16.445	1148.208	867.314
251.161	16.485	1147.639	867.012
252.176	16.463	1147.210	866.497
253.190	16.565	1146.453	866.371
254.205	16.600	1145.793	865.974
255.220	16.617	1144.968	865.361
256.234	16.681	1144.448	865.218
257.249	16.604	1143.888	864.324
258.263	16.521	1143.427	863.474
259.278	16.590	1142.876	863.337
260.293	16.644	1142.061	862.921
261.307	16.705	1141.239	862.530
262.322	16.750	1140.350	862.012
263.336	16.719	1140.107	861.597
264.351	16.794	1139.380	861.350
265.366	16.642	1138.805	860.070
266.380	16.939	1137.651	860.627
267.395	16.747	1137.775	859.672
268.409	16.781	1136.553	858.842
269.424	16.733	1136.146	858.219
270.439	16.707	1135.209	857.303
271.453	16.706	1134.616	856.772
272.468	16.563	1133.792	855.349
273.482	16.608	1132.825	854.775
274.497	16.654	1132.469	854.664
275.512	16.759	1131.421	854.328
276.526	16.713	1130.776	853.530
277.541	16.813	1129.801	853.225
278.555	16.739	1130.128	853.019
279.570	16.900	1128.804	852.757
280.585	16.915	1128.108	852.229
281.599	16.860	1127.376	851.325
282.614	16.799	1126.375	850.191
283.628	16.759	1125.438	849.206
284.643	16.741	1124.627	848.427
285.657	16.867	1123.217	847.920
286.672	16.895	1122.654	847.560
287.687	16.920	1121.498	846.736
288.701	16.821	1120.782	845.629
289.716	16.900	1119.964	845.328
290.730	16.825	1119.423	844.471
291.745	16.908	1118.588	844.183
292.760	16.975	1117.887	843.910
293.774	17.134	1117.403	844.263
294.789	17.029	1117.159	843.482
295.803	17.052	1116.377	842.931
296.818	16.933	1115.508	841.607
297.833	16.991	1114.831	841.313
298.847	16.995	1113.864	840.529
299.862	16.971	1113.280	839.895
300.876	17.000	1112.852	839.640
301.891	17.221	1111.830	839.885
302.906	17.282	1110.850	839.372
303.920	17.207	1110.430	838.612
304.935	17.343	1110.105	838.962
305.949	17.383	1109.295	838.471
306.964	17.278	1108.871	837.562
307.979	17.312	1108.052	837.034
308.993	17.304	1107.163	836.252
310.008	17.308	1106.029	835.341
311.022	17.503	1105.255	835.639
312.037	17.395	1104.848	834.729
313.052	17.284	1103.837	833.345
314.066	17.269	1102.988	832.559
315.081	17.082	1102.014	830.832
316.095	17.145	1101.286	830.519
317.110	17.375	1100.552	831.016
318.125	17.302	1099.767	829.992
319.139	17.154	1099.617	829.081
320.154	17.160	1098.673	828.328
321.168	17.372	1098.207	828.935
322.183	17.248	1097.916	828.040
323.197	17.149	1097.769	827.374
324.212	17.345	1096.686	827.436
325.227	17.225	1096.096	826.333
326.241	17.457	1094.883	826.476
327.256	17.320	1094.557	825.489
328.270	17.274	1093.717	824.562
329.285	17.376	1092.278	823.896
330.300	17.354	1091.444	823.089
331.314	17.317	1090.575	822.181
332.329	17.456	1089.781	822.182
333.343	17.263	1089.664	821.090
334.358	17.455	1088.221	820.853
335.373	17.491	1087.411	820.345
336.387	17.506	1087.029	820.055
337.402	17.411	1086.202	818.900
338.416	17.680	1085.206	819.373
339.431	17.648	1084.654	818.729
340.446	17.589	1084.424	818.201
341.460	17.824	1083.509	818.565
342.475	17.823	1082.349	817.611
343.489	17.804	1082.141	817.288
344.504	17.770	1081.309	816.425
345.519	17.886	1080.220	816.087
346.533	17.826	1079.832	815.434
347.548	17.819	1078.920	814.643
348.562	17.941	1078.145	814.565
349.577	17.828	1077.201	813.242
350.592	17.648	1076.495	811.779
351.606	17.605	1075.950	811.092
352.621	17.646	1075.319	810.742
353.635	17.700	1074.354	810.197
354.650	17.764	1073.551	809.825
355.665	17.743	1072.865	809.133
356.679	17.883	1072.177	809.209
357.694	17.790	1071.946	808.519
358.708	17.913	1071.165	808.443
359.723	17.929	1070.628	808.045
360.738	17.859	1070.071	807.221
361.752	17.877	1069.826	807.049
362.767	17.800	1069.303	806.220
363.781	17.775	1068.657	805.542
364.796	17.962	1067.727	805.650
365.810	17.979	1067.388	805.407
366.825	18.210	1066.493	805.746
367.840	18.143	1066.136	805.088
368.854	18.219	1065.352	804.783
369.869	18.134	1065.176	804.178
370.883	18.111	1064.168	803.239
371.898	18.188	1063.447	802.987
372.913	18.138	1062.647	802.077
373.927	18.268	1062.224	802.296
374.942	18.316	1061.639	802.007
375.956	18.251	1061.124	801.245
376.971	18.275	1060.197	800.586
377.986	18.271	1059.847	800.230
379.000	18.352	1059.612	800.359
380.015	18.450	1059.081	800.346
381.029	18.411	1058.143	799.387
382.044	18.429	1057.516	798.923
383.059	18.479	1056.505	798.326
384.073	18.391	1056.290	797.678
385.088	18.629	1054.787	797.581
386.102	18.570	1053.860	796.538
387.117	18.430	1053.156	795.284
388.132	18.408	1051.961	794.208
389.146	18.362	1051.361	793.472
390.161	18.339	1050.804	792.875
391.175	18.260	1050.225	792.003
392.190	18.424	1049.192	791.913
393.205	18.425	1048.653	791.437
394.219	18.528	1047.857	791.246
395.234	18.448	1046.915	790.095
396.248	18.382	1045.943	788.985
397.263	18.415	1044.994	788.350
398.278	18.363	1044.407	787.601
399.292	18.288	1043.403	786.429
400.307	18.273	1042.778	785.819
401.321	18.549	1041.812	786.286
402.336	18.439	1041.551	785.517
403.350	18.372	1040.630	784.446
404.365	18.349	1040.027	783.816
405.380	18.534	1039.321	784.060
406.394	18.359	1039.022	782.967
407.409	18.651	1037.889	783.376
408.423	18.660	1037.406	782.986
409.438	18.727	1036.608	782.619
410.453	18.720	1036.133	782.158
411.467	18.873	1035.072	781.984
412.482	18.840	1035.124	781.805
413.496	18.865	1034.315	781.239
414.511	18.953	1033.415	780.890
415.526	18.905	1033.281	780.501
416.540	18.900	1033.028	780.217
417.555	19.062	1031.831	779.978
418.569	18.926	1031.507	779.049
419.584	18.852	1031.748	778.828
420.599	18.871	1031.060	778.326
421.613	151.039	1401.032	1795.659
422.628	137.825	1454.943	1795.761
