DTS Sentinel unit serial number:	SN413079Multiplexer serial number:	ORYXHardware model number:	OX4-SRSoftware version number:	ORYX F/W v4.00 Oryx Data Collector v3.7.2.0data status	okinstallation	princeton_trtdifferential loss correction	single-endedforward channel	channel 2reverse channel	N/Adate	2019/09/13time	12:59:35forward acquisition time	60.00reverse acquisition time	0.00gamma	496.2192k internal	0.2315k external	0.2315temperature offset calibration	1.0211default loss term (dB/km)	0.3790temperature slope calibration	1.0000multiplexer offset coefficient	1.0000multiplexer slope coefficient	1.0000fibre end	0.00T internal ref (°C)	34.80T ext. ref 1 (°C)	4.58T ext. ref 2 (°C)	30.91length (m)	temperature (°C)	Stokes	anti-Stokes-747.200	-63.296	-0.140	-0.058
-746.185	46.440	-0.178	0.167
-745.171	800.000	0.045	-0.140
-744.156	800.000	0.074	0.288
-743.142	-102.207	-0.135	0.033
-742.127	800.000	-0.052	0.151
-741.112	-155.056	-0.337	-0.022
-740.098	193.677	0.216	0.331
-739.083	-93.544	-0.249	-0.070
-738.069	151.976	0.075	-0.104
-737.054	3.011	0.127	-0.094
-736.039	161.527	0.136	-0.192
-735.025	800.000	0.141	0.408
-734.010	26.559	-0.075	0.063
-732.996	-110.772	-0.285	0.060
-731.981	-33.849	0.372	-0.208
-730.966	751.955	0.050	-0.135
-729.952	198.090	-0.080	-0.124
-728.937	119.545	-0.124	0.155
-727.923	39.668	-0.256	-0.232
-726.908	536.697	-0.035	0.085
-725.894	177.112	-0.186	-0.274
-724.879	-27.925	-0.135	0.079
-723.864	-72.234	0.055	0.021
-722.850	-200.000	-0.005	0.172
-721.835	-102.396	0.167	-0.041
-720.821	-12.268	-0.270	0.179
-719.806	451.958	-0.054	0.120
-718.791	-53.392	-0.279	0.129
-717.777	-200.000	-0.021	-0.357
-716.762	-55.521	0.128	-0.058
-715.748	-200.000	-0.047	-0.336
-714.733	-28.073	0.180	0.105
-713.718	476.763	-0.106	-0.242
-712.704	74.332	0.203	-0.216
-711.689	-200.000	-0.004	-0.222
-710.675	511.552	-0.094	-0.222
-709.660	-92.608	0.314	0.089
-708.645	-137.541	0.285	0.032
-707.631	-200.000	0.014	-0.244
-706.616	800.000	0.040	-0.172
-705.602	323.022	-0.059	0.113
-704.587	-143.866	0.269	-0.026
-703.572	132.352	-0.104	-0.136
-702.558	31.526	0.090	-0.078
-701.543	135.595	-0.290	0.382
-700.529	-85.715	-0.090	-0.028
-699.514	29.554	0.041	-0.036
-698.499	175.397	-0.153	0.224
-697.485	-200.000	-0.034	-0.210
-696.470	-120.303	-0.178	-0.031
-695.456	330.716	0.177	-0.345
-694.441	140.550	-0.059	-0.079
-693.426	225.405	0.151	0.247
-692.412	-200.000	0.040	-0.195
-691.397	800.000	-0.071	-0.212
-690.383	535.869	-0.142	0.342
-689.368	-5.014	0.023	-0.016
-688.354	-79.735	-0.245	-0.083
-687.339	-200.000	-0.012	0.132
-686.324	-160.067	-0.151	0.008
-685.310	43.711	-0.182	0.169
-684.295	-45.386	-0.160	-0.080
-683.281	-134.267	0.142	-0.018
-682.266	-34.434	-0.110	-0.061
-681.251	-65.230	0.407	-0.166
-680.237	-127.579	-0.310	-0.045
-679.222	-200.000	-0.014	0.130
-678.208	-200.000	0.030	0.159
-677.193	-122.895	-0.277	-0.045
-676.178	34.518	-0.194	-0.172
-675.164	14.426	-0.166	-0.131
-674.149	-95.257	-0.125	-0.034
-673.135	438.170	0.195	0.431
-672.120	238.471	0.163	-0.273
-671.105	-62.234	-0.233	0.098
-670.091	-14.611	-0.199	0.129
-669.076	-94.730	-0.083	-0.023
-668.062	47.162	0.037	0.035
-667.047	28.194	-0.140	0.120
-666.032	147.784	-0.097	-0.132
-665.018	144.426	-0.086	-0.116
-664.003	484.457	-0.120	0.275
-662.989	344.883	-0.005	-0.010
-661.974	589.891	-0.159	0.395
-660.959	26.992	-0.255	0.216
-659.945	786.556	0.033	-0.093
-658.930	-200.000	-0.192	0.001
-657.916	5.261	-0.173	-0.129
-656.901	102.320	-0.173	-0.204
-655.886	89.625	-0.272	0.306
-654.872	800.000	0.034	-0.137
-653.857	-187.547	-0.145	0.002
-652.843	-52.286	0.086	0.040
-651.828	124.157	0.249	-0.315
-650.814	-79.175	-0.386	0.132
-649.799	-200.000	0.018	-0.088
-648.784	133.847	-0.062	0.081
-647.770	53.027	0.167	-0.162
-646.755	-131.416	-0.240	0.032
-645.741	236.489	0.182	-0.304
-644.726	-22.896	-0.380	-0.232
-643.711	-200.000	-0.007	-0.219
-642.697	-44.687	-0.085	-0.043
-641.682	-159.087	0.320	0.018
-640.668	-200.000	0.005	-0.232
-639.653	-32.129	0.148	-0.084
-638.638	-10.424	0.115	-0.077
-637.624	-171.540	-0.364	0.012
-636.609	348.446	-0.033	0.066
-635.595	296.028	0.127	-0.235
-634.580	-200.000	-0.030	-0.559
-633.565	167.841	0.066	-0.094
-632.551	-116.235	-0.254	0.047
-631.536	18.140	-0.186	-0.150
-630.522	-67.326	-0.146	0.058
-629.507	-72.778	0.242	0.090
-628.492	-31.467	0.194	-0.110
-627.478	-59.333	-0.178	0.077
-626.463	-200.000	-0.024	0.139
-625.449	-30.831	-0.052	-0.029
-624.434	378.576	0.036	-0.073
-623.419	-47.181	-0.194	-0.096
-622.405	594.329	0.050	-0.125
-621.390	-200.000	-0.002	-0.018
-620.376	48.169	0.135	-0.128
-619.361	-57.901	-0.373	0.164
-618.346	-19.328	0.150	0.094
-617.332	-200.000	-0.019	-0.369
-616.317	-14.354	-0.211	0.137
-615.303	800.000	-0.074	0.292
-614.288	319.835	0.149	0.285
-613.273	-200.000	-0.062	0.346
-612.259	800.000	0.063	0.181
-611.244	25.511	0.254	-0.213
-610.230	33.639	0.200	-0.175
-609.215	196.829	-0.093	0.143
-608.201	154.998	-0.070	0.097
-607.186	-109.035	0.256	-0.055
-606.171	-200.000	-0.220	-0.001
-605.157	-132.039	-0.311	-0.041
-604.142	-200.000	0.045	-0.220
-603.128	-49.762	0.316	0.151
-602.113	-144.819	-0.368	0.034
-601.098	208.923	-0.022	0.035
-600.084	-58.280	-0.467	-0.205
-599.069	-198.706	-0.260	-0.001
-598.055	-200.000	0.028	0.326
-597.040	-200.000	-0.020	-0.141
-596.025	259.352	0.171	0.297
-595.011	-52.441	0.170	0.079
-593.996	10.780	0.281	0.216
-592.982	800.000	0.138	0.391
-591.967	92.223	0.054	-0.061
-590.952	-13.856	-0.174	-0.113
-589.938	258.226	-0.175	-0.303
-588.923	-200.000	-0.108	-0.477
-587.909	476.305	0.119	-0.272
-586.894	696.465	0.093	-0.246
-585.879	-38.525	-0.304	-0.162
-584.865	-140.530	0.628	0.066
-583.850	3.558	0.244	-0.179
-582.836	-200.000	-0.004	0.343
-581.821	-68.569	0.197	0.077
-580.806	-152.583	0.149	0.011
-579.792	-147.603	-0.228	0.019
-578.777	-94.128	-0.174	0.048
-577.763	194.835	0.142	0.217
-576.748	-58.367	0.040	0.018
-575.733	26.496	-0.270	-0.227
-574.719	75.920	0.112	-0.119
-573.704	80.714	0.021	-0.023
-572.690	-79.653	0.322	-0.109
-571.675	220.072	-0.273	-0.440
-570.661	-175.459	-0.053	-0.001
-569.646	-119.590	0.333	0.058
-568.631	-200.000	0.044	0.239
-567.617	84.004	-0.010	0.011
-566.602	705.031	-0.070	-0.185
-565.588	-91.754	-0.136	-0.039
-564.573	-27.539	-0.191	-0.112
-563.558	108.441	-0.173	0.207
-562.544	66.466	0.182	-0.186
-561.529	-200.000	0.033	0.227
-560.515	12.328	0.275	-0.213
-559.500	-200.000	-0.003	-0.166
-558.485	-106.598	-0.391	0.088
-557.471	-182.177	-0.119	0.002
-556.456	-165.955	0.330	-0.014
-555.442	-35.548	0.100	-0.055
-554.427	151.312	0.062	-0.085
-553.412	-86.055	0.027	0.008
-552.398	232.069	-0.196	-0.324
-551.383	-33.379	0.200	0.111
-550.369	-11.278	-0.199	0.132
-549.354	-126.239	-0.149	-0.022
-548.339	800.000	-0.082	-0.303
-547.325	-69.714	0.141	0.054
-546.310	32.689	0.230	-0.200
-545.296	-23.222	-0.160	-0.097
-544.281	305.487	0.112	-0.210
-543.266	181.335	-0.083	0.123
-542.252	128.993	-0.265	0.340
-541.237	784.279	0.044	-0.121
-540.223	-137.622	0.077	-0.009
-539.208	319.305	-0.163	0.310
-538.193	163.424	0.057	0.080
-537.179	-13.033	0.251	0.164
-536.164	-200.000	-0.014	0.177
-535.150	190.723	-0.162	0.245
-534.135	27.614	0.229	-0.194
-533.121	192.693	0.080	0.121
-532.106	405.239	-0.147	0.311
-531.091	237.797	-0.177	0.296
-530.077	800.000	0.136	0.427
-529.062	-200.000	0.002	0.210
-528.048	-61.791	-0.169	-0.071
-527.033	164.919	0.040	-0.057
-526.018	40.516	0.250	-0.226
-525.004	-60.204	0.178	-0.076
-523.989	38.362	-0.200	0.179
-522.975	226.950	-0.123	-0.200
-521.960	364.306	-0.152	-0.308
-520.945	324.455	0.136	-0.260
-519.931	181.027	-0.119	-0.175
-518.916	159.359	0.087	-0.122
-517.902	-22.272	0.533	-0.325
-516.887	-10.819	0.101	-0.067
-515.872	749.504	0.024	-0.064
-514.858	-90.085	0.208	-0.061
-513.843	-200.000	-0.009	0.044
-512.829	-84.690	-0.267	0.084
-511.814	657.796	-0.112	-0.290
-510.799	37.404	0.071	-0.064
-509.785	231.590	0.063	-0.103
-508.770	630.523	-0.038	-0.096
-507.756	-89.154	0.299	-0.089
-506.741	-200.000	0.020	-0.141
-505.726	-198.757	-0.296	0.002
-504.712	487.001	-0.062	0.143
-503.697	335.487	-0.090	0.174
-502.683	-55.448	0.305	0.137
-501.668	277.989	0.069	-0.123
-500.653	-94.468	-0.300	-0.082
-499.639	15.413	0.157	0.124
-498.624	3.366	0.296	-0.216
-497.610	800.000	0.048	0.159
-496.595	99.144	-0.292	-0.339
-495.581	76.338	-0.144	-0.153
-494.566	-200.000	0.074	-0.328
-493.551	-101.820	-0.233	0.057
-492.537	-91.135	0.351	-0.101
-491.522	-40.794	-0.306	0.159
-490.508	84.167	-0.154	0.169
-489.493	-12.795	-0.377	-0.246
-488.478	46.992	0.112	0.104
-487.464	6.421	0.133	0.099
-486.449	58.617	-0.286	0.281
-485.435	-11.558	0.073	-0.048
-484.420	-158.478	0.158	-0.009
-483.405	82.555	0.138	-0.150
-482.391	-200.000	-0.025	-0.320
-481.376	-87.369	-0.166	0.050
-480.362	-144.877	0.129	-0.012
-479.347	-87.679	-0.258	0.078
-478.332	150.040	-0.211	0.287
-477.318	223.967	-0.120	-0.195
-476.303	-11.087	0.281	-0.186
-475.289	800.000	0.049	0.205
-474.274	232.254	0.041	0.068
-473.259	800.000	-0.064	-0.180
-472.245	624.642	0.164	-0.414
-471.230	-141.355	0.271	0.028
-470.216	136.981	-0.214	-0.280
-469.201	-200.000	-0.009	-0.155
-468.186	-124.453	-0.365	0.057
-467.172	-123.868	0.391	-0.062
-466.157	-134.540	0.435	0.053
-465.143	4.240	-0.090	-0.066
-464.128	-200.000	0.044	-0.423
-463.113	-41.948	0.241	-0.124
-462.099	794.741	0.083	0.228
-461.084	-160.899	0.054	0.003
-460.070	325.420	-0.048	0.093
-459.055	-44.250	-0.076	0.038
-458.040	83.697	0.177	-0.194
-457.026	-94.603	0.161	-0.044
-456.011	90.506	-0.132	-0.149
-454.997	-200.000	-0.016	0.140
-453.982	-200.000	-0.024	0.109
-452.968	-9.554	-0.199	0.133
-451.953	89.161	0.017	-0.019
-450.938	-200.000	0.040	-0.340
-449.924	-96.702	0.399	0.105
-448.909	-107.416	0.070	0.015
-447.895	-124.817	0.196	0.030
-446.880	-50.936	-0.430	0.202
-445.865	-200.000	0.093	0.451
-444.851	-124.600	0.362	0.056
-443.836	-141.997	-0.397	0.040
-442.822	68.993	-0.165	-0.169
-441.807	-200.000	0.040	-0.290
-440.792	50.709	-0.275	0.261
-439.778	-200.000	-0.001	-0.291
-438.763	-200.000	0.020	-0.102
-437.749	67.140	0.195	-0.199
-436.734	-181.082	-0.082	0.002
-435.719	-86.163	-0.241	-0.074
-434.705	282.297	-0.212	0.381
-433.690	142.845	-0.112	-0.148
-432.676	22.851	-0.182	-0.150
-431.661	-61.857	0.117	0.049
-430.646	2.897	0.332	-0.241
-429.632	-135.804	0.146	-0.017
-428.617	579.174	-0.119	-0.291
-427.603	379.053	0.216	-0.442
-426.588	328.989	-0.146	-0.282
-425.573	800.000	-0.018	-0.069
-424.559	130.350	-0.153	-0.196
-423.544	-200.000	0.028	-0.147
-422.530	-110.447	-0.266	-0.055
-421.515	-89.730	-0.267	-0.078
-420.500	-76.104	-0.185	-0.065
-419.486	468.780	0.100	0.224
-418.471	-86.306	-0.345	0.106
-417.457	118.677	-0.232	-0.287
-416.442	33.280	0.204	-0.177
-415.428	-200.000	0.051	-0.255
-414.413	-131.516	-0.399	0.053
-413.398	216.777	0.044	0.071
-412.384	-200.000	-0.028	0.143
-411.369	-200.000	-0.019	0.183
-410.355	93.538	-0.116	0.131
-409.340	-47.005	-0.479	-0.234
-408.325	36.207	0.148	0.131
-407.311	91.029	0.046	-0.052
-406.296	-82.445	0.281	0.091
-405.282	-200.000	0.003	-0.071
-404.267	147.512	0.107	-0.144
-403.252	-200.000	0.012	-0.191
-402.238	16.754	0.087	-0.069
-401.223	-142.642	-0.179	-0.017
-400.209	800.000	0.108	-0.361
-399.194	38.228	0.260	-0.231
-398.179	-40.136	0.159	-0.083
-397.165	97.841	0.318	0.366
-396.150	-200.000	0.006	0.405
-395.136	98.057	0.150	-0.172
-394.121	734.459	0.129	0.345
-393.106	3.553	0.052	0.038
-392.092	-139.688	0.414	-0.044
-391.077	800.000	0.053	-0.208
-390.063	-104.823	-0.214	-0.049
-389.048	800.000	0.032	0.100
-388.033	-156.633	0.143	-0.009
-387.019	-111.974	0.142	0.029
-386.004	-200.000	-0.035	0.160
-384.990	-200.000	0.010	0.539
-383.975	-34.039	-0.133	-0.073
-382.960	175.304	0.074	0.107
-381.946	432.831	0.098	-0.212
-380.931	800.000	-0.028	-0.111
-379.917	-200.000	-0.008	0.176
-378.902	193.728	0.039	-0.059
-377.888	800.000	0.057	0.248
-376.873	45.695	-0.134	-0.123
-375.858	800.000	0.054	0.184
-374.844	9.334	0.160	0.121
-373.829	-137.986	0.353	0.039
-372.815	-200.000	-0.004	0.117
-371.800	81.803	0.157	0.170
-370.785	-97.273	0.088	0.023
-369.771	-35.146	0.240	0.130
-368.756	87.028	-0.057	0.063
-367.742	132.340	0.111	0.142
-366.727	-135.098	-0.193	0.023
-365.712	351.642	0.047	0.092
-364.698	-38.200	-0.170	0.090
-363.683	-182.042	-0.323	0.006
-362.669	12.820	-0.216	-0.167
-361.654	-63.684	0.078	0.032
-360.639	486.670	0.046	-0.104
-359.625	305.907	-0.091	0.169
-358.610	-200.000	-0.004	-0.052
-357.596	161.511	0.293	0.410
-356.581	-68.416	-0.333	0.129
-355.566	-200.000	-0.014	-0.397
-354.552	800.000	0.115	0.422
-353.537	9.310	0.318	0.240
-352.523	-107.891	0.392	0.085
-351.508	-200.000	-0.031	-0.156
-350.493	-121.780	0.288	-0.047
-349.479	-144.005	-0.212	0.020
-348.464	-103.384	-0.255	-0.060
-347.450	18.983	0.099	0.079
-346.435	136.969	0.170	0.222
-345.420	-200.000	-0.052	0.237
-344.406	8.636	0.190	0.143
-343.391	18.457	-0.006	0.005
-342.377	-83.778	-0.119	0.038
-341.362	180.736	-0.088	0.129
-340.348	-150.623	0.084	0.006
-339.333	-200.000	0.041	-0.324
-338.318	-116.703	-0.100	0.018
-337.304	-134.283	0.398	0.049
-336.289	-200.000	-0.009	0.245
-335.275	-200.000	0.038	-0.235
-334.260	309.188	-0.106	0.197
-333.245	-103.214	0.084	-0.020
-332.231	698.299	-0.095	0.249
-331.216	-47.018	-0.124	-0.060
-330.202	-58.635	-0.223	-0.096
-329.187	-139.999	-0.265	-0.028
-328.172	146.495	-0.175	0.235
-327.158	-133.772	0.163	-0.020
-326.143	-200.000	0.004	0.144
-325.129	-56.709	0.276	-0.122
-324.114	135.744	0.067	0.088
-323.099	800.000	-0.046	-0.141
-322.085	12.353	0.144	-0.111
-321.070	-115.021	-0.191	-0.036
-320.056	-36.086	0.185	-0.100
-319.041	85.919	-0.282	0.309
-318.026	-32.066	-0.274	-0.153
-317.012	-200.000	-0.032	0.161
-315.997	-142.180	-0.248	0.024
-314.983	321.724	-0.041	-0.078
-313.968	-56.359	-0.194	-0.086
-312.953	-101.020	0.366	0.089
-311.939	120.587	-0.027	-0.033
-310.924	-200.000	0.012	0.122
-309.910	-200.000	-0.043	0.302
-308.895	-200.000	-0.001	-0.084
-307.880	-152.555	0.242	0.017
-306.866	-95.084	0.388	-0.104
-305.851	-200.000	0.011	-0.076
-304.837	-14.761	0.155	0.099
-303.822	202.141	-0.046	0.071
-302.807	44.574	-0.213	-0.195
-301.793	19.768	0.262	0.210
-300.778	-200.000	0.012	0.295
-299.764	27.476	-0.187	0.157
-298.749	249.117	0.071	0.120
-297.735	-66.585	-0.117	-0.046
-296.720	-200.000	0.036	-0.328
-295.705	-200.000	-0.022	-0.139
-294.691	-137.006	-0.331	0.038
-293.676	548.661	0.084	-0.201
-292.662	476.281	-0.191	0.430
-291.647	-73.076	0.238	0.087
-290.632	-18.180	-0.133	-0.083
-289.618	734.269	-0.098	0.262
-288.603	800.000	0.044	0.191
-287.589	-29.775	0.137	-0.078
-286.574	-28.380	0.210	-0.121
-285.559	-26.851	-0.140	-0.082
-284.545	-21.465	-0.196	0.119
-283.530	-200.000	-0.058	0.377
-282.516	405.779	-0.107	0.224
-281.501	98.864	0.010	0.012
-280.486	-71.131	0.139	0.052
-279.472	3.750	0.199	-0.145
-278.457	-200.000	-0.028	-0.230
-277.443	-200.000	0.041	0.208
-276.428	82.686	0.084	0.091
-275.413	800.000	-0.034	0.099
-274.399	-200.000	0.001	0.096
-273.384	-86.722	-0.307	0.093
-272.370	615.490	-0.032	0.081
-271.355	72.364	-0.142	0.147
-270.340	117.651	-0.050	-0.061
-269.326	0.325	-0.144	-0.102
-268.311	-200.000	-0.013	-0.131
-267.297	745.605	-0.050	-0.134
-266.282	-43.948	0.314	0.157
-265.267	197.503	-0.121	0.184
-264.253	519.728	-0.052	0.121
-263.238	24.340	0.283	0.232
-262.224	-20.490	-0.154	0.094
-261.209	53.995	0.180	0.172
-260.195	97.304	-0.168	0.192
-259.180	-200.000	0.020	-0.286
-258.165	-80.467	-0.034	-0.011
-257.151	-114.303	-0.224	0.043
-256.136	116.705	0.232	0.283
-255.122	83.022	0.172	0.186
-254.107	77.720	0.098	0.104
-253.092	31.676	-0.356	0.305
-252.078	-109.942	-0.125	0.026
-251.063	-85.650	-0.347	-0.107
-250.049	-156.672	0.166	-0.010
-249.034	800.000	-0.105	-0.319
-248.019	-6.198	-0.276	0.187
-247.005	-163.802	-0.086	0.004
-245.990	13.844	-0.149	0.115
-244.976	523.916	-0.107	0.250
-243.961	-136.856	0.213	0.024
-242.946	-39.118	-0.197	-0.103
-241.932	-152.607	-0.081	-0.006
-240.917	800.000	-0.011	-0.029
-239.903	152.932	-0.234	0.318
-238.888	-21.427	-0.158	0.096
-237.873	194.741	0.023	-0.034
-236.859	461.357	0.150	-0.332
-235.844	519.475	-0.074	0.172
-234.830	-166.900	-0.603	-0.025
-233.815	-62.900	0.175	-0.072
-232.800	1.169	0.139	0.099
-231.786	300.619	-0.109	-0.199
-230.771	44.046	0.164	-0.149
-229.757	800.000	0.063	-0.197
-228.742	-200.000	-0.021	-0.339
-227.727	-200.000	-0.023	0.107
-226.713	-29.954	0.185	0.105
-225.698	202.197	0.061	-0.094
-224.684	-200.000	0.055	0.282
-223.669	-36.042	-0.193	-0.103
-222.655	-200.000	-0.001	-0.158
-221.640	-126.400	-0.271	-0.040
-220.625	141.356	0.258	0.339
-219.611	-112.425	0.180	0.036
-218.596	202.852	0.118	-0.181
-217.582	-93.298	-0.284	0.078
-216.567	-131.109	0.395	-0.052
-215.552	45.320	-0.059	0.054
-214.538	-139.173	0.141	0.015
-213.523	384.232	0.134	0.273
-212.509	97.501	-0.282	0.321
-211.494	746.750	-0.064	-0.170
-210.479	151.220	0.201	0.272
-209.465	-161.384	0.214	-0.011
-208.450	-74.169	0.266	-0.096
-207.436	153.430	0.148	-0.200
-206.421	172.224	0.135	-0.193
-205.406	800.000	-0.056	0.177
-204.392	-42.848	0.184	-0.093
-203.377	331.085	0.144	0.275
-202.363	-105.233	-0.246	-0.056
-201.348	-7.544	0.217	-0.146
-200.333	-172.450	0.448	0.014
-199.319	-200.000	0.009	-0.110
-198.304	11.178	0.157	0.119
-197.290	181.178	0.238	0.347
-196.275	-70.957	0.329	0.123
-195.260	239.525	-0.051	-0.084
-194.246	800.000	-0.054	0.186
-193.231	800.000	-0.076	0.239
-192.217	-129.591	-0.120	0.016
-191.202	731.076	0.077	-0.203
-190.187	-1.193	-0.111	-0.078
-189.173	-99.628	-0.141	-0.035
-188.158	213.148	0.111	0.175
-187.144	-200.000	-0.006	-0.079
-186.129	-116.395	0.492	-0.090
-185.114	-58.835	-0.277	0.119
-184.100	-5.967	-0.074	0.050
-183.085	-24.177	0.242	-0.143
-182.071	-200.000	0.004	-0.110
-181.056	800.000	-0.085	-0.316
-180.042	-34.392	0.254	0.138
-179.027	-200.000	-0.005	-0.067
-178.012	800.000	0.048	-0.194
-176.998	98.736	-0.240	-0.274
-175.983	0.780	-0.129	0.092
-174.969	-119.661	-0.129	0.022
-173.954	-103.361	0.125	-0.029
-172.939	14.338	-0.070	0.054
-171.925	239.490	-0.094	0.156
-170.910	-145.675	-0.159	-0.014
-169.896	293.526	-0.067	0.121
-168.881	441.142	-0.046	-0.101
-167.866	-72.440	0.039	0.014
-166.852	-109.179	-0.182	-0.038
-165.837	76.810	-0.019	-0.020
-164.823	-72.008	-0.304	0.112
-163.808	-200.000	-0.039	-0.189
-162.793	-127.515	0.273	-0.039
-161.779	-99.362	-0.101	-0.025
-160.764	-29.744	-0.076	-0.043
-159.750	204.632	-0.130	-0.200
-158.735	82.122	-0.166	0.178
-157.720	-200.000	0.032	0.239
-156.706	-101.898	0.113	-0.027
-155.691	-124.523	-0.070	0.011
-154.677	149.454	0.090	0.120
-153.662	-114.390	-0.179	0.034
-152.647	-21.975	-0.394	0.237
-151.633	-124.771	-0.109	-0.017
-150.618	-200.000	-0.047	-0.276
-149.604	137.317	0.114	0.147
-148.589	-128.581	0.203	-0.028
-147.574	800.000	-0.034	0.097
-146.560	-49.436	0.197	-0.093
-145.545	-52.941	-0.332	0.151
-144.531	-117.172	0.116	-0.021
-143.516	25.359	0.118	0.097
-142.502	160.354	-0.169	0.234
-141.487	254.236	0.113	0.191
-140.472	336.184	0.110	0.212
-139.458	539.135	0.068	0.159
-138.443	-13.030	-0.109	-0.070
-137.429	-200.000	0.023	-0.159
-136.414	-134.352	-0.150	-0.018
-135.399	800.000	0.107	-0.405
-134.385	184.019	-0.086	-0.126
-133.370	377.551	-0.099	0.201
-132.356	-27.751	0.340	0.195
-131.341	-200.000	0.019	0.158
-130.326	73.547	0.143	-0.148
-129.312	-200.000	0.026	-0.386
-128.297	86.519	0.353	-0.385
-127.283	-134.795	-0.123	0.015
-126.268	-8.533	-0.022	-0.015
-125.253	-21.831	-0.130	0.078
-124.239	84.373	-0.137	0.148
-123.224	-58.629	0.089	0.038
-122.210	252.480	-0.144	-0.243
-121.195	-36.012	0.199	-0.107
-120.180	17.128	0.021	0.016
-119.166	57.846	0.118	-0.114
-118.151	-87.698	-0.381	-0.114
-117.137	-22.962	-0.337	-0.201
-116.122	-2.384	-0.129	0.089
-115.107	-68.997	0.153	-0.058
-114.093	-135.743	-0.132	0.015
-113.078	-200.000	0.026	-0.182
-112.064	-118.795	0.207	-0.036
-111.049	-200.000	0.063	-0.442
-110.034	-172.835	-0.245	-0.008
-109.020	362.463	-0.067	0.132
-108.005	800.000	-0.055	0.176
-106.991	-83.221	-0.190	-0.060
-105.976	-200.000	-0.001	-0.015
-104.962	-51.918	0.151	-0.069
-103.947	800.000	0.042	0.168
-102.932	339.388	-0.039	-0.075
-101.918	541.100	-0.091	0.215
-100.903	-200.000	-0.004	0.313
-99.889	71.935	0.288	0.296
-98.874	-51.501	-0.034	-0.016
-97.859	-9.848	0.269	0.177
-96.845	-200.000	-0.020	-0.183
-95.830	-171.528	0.063	-0.002
-94.816	-2.143	0.097	0.067
-93.801	-49.752	-0.137	0.065
-92.786	-200.000	-0.014	-0.209
-91.772	-94.832	-0.070	0.019
-90.757	130.798	0.188	0.238
-89.743	-58.071	0.032	0.014
-88.728	-49.090	0.085	0.040
-87.713	-165.290	0.219	0.010
-86.699	25.950	0.306	0.252
-85.684	-76.465	-0.319	-0.111
-84.670	-125.017	-0.245	-0.037
-83.655	3.054	-0.115	-0.083
-82.640	-200.000	-0.011	0.166
-81.626	-111.969	0.311	0.062
-80.611	-200.000	-0.011	-0.229
-79.597	-56.700	-0.126	-0.055
-78.582	-63.752	-0.245	-0.099
-77.567	309.831	-0.065	0.120
-76.553	-60.174	0.349	-0.147
-75.538	293.456	-0.119	-0.214
-74.524	-109.056	0.427	0.090
-73.509	-169.711	-0.478	0.017
-72.494	-39.457	-0.090	0.047
-71.480	44.981	-0.093	-0.084
-70.465	545.089	-0.069	-0.162
-69.451	-88.216	-0.055	-0.016
-68.436	293.248	-0.194	0.349
-67.422	571.014	-0.103	-0.247
-66.407	-119.455	0.109	-0.019
-65.392	-200.000	-0.018	-0.191
-64.378	-108.683	-0.432	0.091
-63.363	763.473	-0.062	0.167
-62.349	-152.972	0.107	0.007
-61.334	85.294	-0.624	-0.675
-60.319	86.112	0.486	0.528
-59.305	280.045	-0.419	-0.738
-58.290	334.811	0.371	0.710
-57.276	655.134	0.659	1.669
-56.261	-200.000	95.681	562.275
-55.246	638.054	1387.859	3479.174
-54.232	185.261	2621.007	3836.845
-53.217	115.498	2323.438	2800.491
-52.203	44.548	1933.945	1752.653
-51.188	38.126	1718.724	1508.153
-50.173	35.332	1673.140	1447.051
-49.159	51.834	1721.041	1615.099
-48.144	55.280	1739.064	1658.307
-47.130	37.918	1695.179	1485.676
-46.115	34.933	1680.388	1450.068
-45.100	34.666	1675.804	1444.036
-44.086	34.652	1672.963	1441.425
-43.071	34.601	1669.925	1438.365
-42.057	34.629	1667.651	1436.556
-41.042	34.664	1666.165	1435.482
-40.027	34.704	1663.688	1433.592
-39.013	34.680	1662.132	1432.013
-37.998	34.700	1659.959	1430.234
-36.984	34.696	1658.836	1429.179
-35.969	34.793	1657.641	1428.820
-34.954	34.877	1655.468	1427.522
-33.940	34.706	1654.190	1425.085
-32.925	34.860	1651.849	1424.157
-31.911	34.796	1650.205	1422.210
-30.896	34.735	1648.738	1420.431
-29.881	34.723	1647.234	1418.993
-28.867	34.809	1645.398	1417.991
-27.852	34.793	1644.082	1416.681
-26.838	34.792	1642.254	1415.045
-25.823	34.811	1640.453	1413.579
-24.809	34.836	1639.644	1413.011
-23.794	34.797	1638.014	1411.258
-22.779	34.859	1636.491	1410.348
-21.765	34.825	1634.959	1408.720
-20.750	34.788	1633.074	1406.770
-19.736	34.899	1631.610	1406.270
-18.721	34.916	1629.885	1404.851
-17.706	34.841	1628.747	1403.261
-16.692	34.770	1627.341	1401.476
-15.677	34.713	1625.486	1399.407
-14.663	34.792	1624.511	1399.091
-13.648	34.885	1622.888	1398.313
-12.633	34.818	1621.359	1396.454
-11.619	34.823	1619.717	1395.018
-10.604	34.877	1618.057	1393.931
-9.590	34.848	1617.575	1393.244
-8.575	34.855	1615.811	1391.720
-7.560	34.829	1614.716	1390.534
-6.546	34.798	1613.295	1389.035
-5.531	34.801	1612.464	1388.286
-4.517	34.849	1611.186	1387.479
-3.502	34.840	1609.715	1386.090
-2.487	35.003	1608.235	1385.942
-1.473	34.690	1596.518	1373.538
-0.458	31.814	1576.481	1335.784
0.556	30.154	1575.611	1297.841
1.571	27.378	1599.492	1297.638
2.586	26.189	1611.901	1299.040
3.600	22.801	1557.483	1231.477
4.615	13.958	1445.615	1085.397
5.629	6.214	1379.375	987.132
6.644	4.658	1371.283	971.536
7.659	4.521	1369.908	969.624
8.673	4.605	1369.051	969.453
9.688	4.547	1367.567	967.955
10.702	4.543	1365.037	966.057
11.717	8.494	1371.770	995.375
12.731	17.169	1388.376	1061.791
13.746	22.685	1396.226	1102.271
14.761	22.900	1395.092	1102.622
15.775	22.020	1393.212	1095.550
16.790	20.996	1390.879	1087.237
17.804	20.134	1389.030	1080.325
18.819	19.968	1386.847	1077.499
19.834	19.696	1385.960	1075.023
20.848	19.575	1385.334	1073.694
21.863	19.414	1384.218	1071.733
22.877	19.318	1382.543	1069.742
23.892	19.207	1381.752	1068.349
24.907	19.302	1380.666	1068.001
25.921	19.282	1379.905	1067.198
26.936	19.271	1378.983	1066.321
27.950	19.233	1378.500	1065.620
28.965	19.374	1377.221	1065.408
29.980	19.537	1376.217	1065.544
30.994	19.663	1375.041	1065.315
32.009	19.658	1374.260	1064.583
33.023	19.642	1373.068	1063.468
34.038	19.472	1371.872	1061.399
35.053	19.446	1370.029	1059.721
36.067	19.453	1368.439	1058.442
37.082	19.401	1367.942	1057.645
38.096	19.493	1366.875	1057.290
39.111	19.512	1366.528	1057.044
40.126	19.430	1365.271	1055.479
41.140	19.110	1364.188	1052.591
42.155	19.023	1363.299	1051.277
43.169	18.898	1363.401	1050.500
44.184	18.841	1363.183	1049.893
45.199	18.966	1362.797	1050.267
46.213	19.139	1361.973	1050.591
47.228	19.330	1361.045	1050.950
48.242	19.524	1360.031	1051.254
49.257	19.328	1359.024	1049.191
50.271	19.274	1357.511	1047.599
51.286	19.328	1356.044	1046.706
52.301	19.376	1354.838	1045.969
53.315	19.226	1354.035	1044.351
54.330	19.090	1352.720	1042.416
55.344	19.081	1351.163	1041.074
56.359	19.097	1350.031	1040.207
57.374	18.978	1349.489	1038.975
58.388	18.965	1348.775	1038.256
59.403	18.861	1348.595	1037.401
60.417	19.043	1347.172	1037.309
61.432	18.843	1346.353	1035.383
62.447	18.697	1345.652	1033.869
63.461	18.691	1344.468	1032.832
64.476	18.693	1343.393	1031.929
65.490	18.678	1342.059	1030.724
66.505	18.704	1340.895	1029.891
67.520	18.760	1339.533	1029.090
68.534	18.781	1338.952	1028.681
69.549	18.787	1337.249	1027.316
70.563	18.697	1336.398	1026.036
71.578	18.586	1335.141	1024.316
72.593	18.547	1334.339	1023.378
73.607	18.538	1333.632	1022.691
74.622	18.584	1332.615	1022.092
75.636	18.635	1331.827	1021.703
76.651	18.653	1331.158	1021.207
77.666	18.669	1331.282	1021.309
78.680	18.714	1330.736	1021.063
79.695	18.757	1330.055	1020.705
80.709	18.892	1328.899	1020.534
81.724	18.964	1328.278	1020.394
82.739	19.143	1327.249	1020.571
83.753	19.299	1326.643	1020.938
84.768	19.367	1326.485	1021.134
85.782	19.417	1325.354	1020.464
86.797	19.502	1323.891	1019.753
87.812	19.313	1322.774	1017.685
88.826	19.274	1321.432	1016.333
89.841	19.361	1320.468	1016.013
90.855	19.453	1319.453	1015.682
91.870	19.541	1319.060	1015.812
92.884	19.550	1318.242	1015.143
93.899	19.546	1317.363	1014.355
94.914	19.578	1316.576	1013.844
95.928	19.602	1315.496	1013.066
96.943	19.447	1314.876	1011.592
97.957	19.466	1313.705	1010.710
98.972	19.365	1313.079	1009.550
99.987	19.463	1311.367	1008.717
101.001	19.484	1310.775	1008.293
102.016	19.388	1309.892	1006.966
103.030	19.546	1308.731	1006.903
104.045	19.442	1308.185	1005.785
105.060	19.409	1306.418	1004.150
106.074	19.099	1304.897	1001.087
107.089	18.902	1303.214	998.564
108.103	18.719	1301.883	996.394
109.118	18.755	1300.946	995.796
110.133	18.785	1299.435	994.725
111.147	18.887	1298.211	994.294
112.162	18.886	1297.078	993.327
113.176	18.889	1296.192	992.583
114.191	18.957	1295.217	992.141
115.206	18.978	1293.916	991.174
116.220	18.856	1292.767	989.508
117.235	18.999	1291.521	989.286
118.249	18.840	1290.542	987.538
119.264	18.814	1289.156	986.239
120.279	18.782	1287.891	984.997
121.293	18.584	1287.266	983.301
122.308	18.680	1286.026	982.815
123.322	18.587	1284.899	981.333
124.337	18.583	1284.234	980.718
125.352	18.535	1282.869	979.315
126.366	18.513	1281.791	978.278
127.381	18.541	1281.136	977.849
128.395	18.509	1280.306	976.947
129.410	18.610	1279.157	976.564
130.424	18.797	1277.965	976.630
131.439	18.937	1277.156	976.721
132.454	18.951	1276.237	976.006
133.468	18.929	1275.393	975.150
134.483	18.852	1275.055	974.369
135.497	18.920	1273.755	973.675
136.512	18.926	1272.597	972.741
137.527	19.043	1271.037	972.122
138.541	19.006	1269.911	970.968
139.556	19.028	1268.890	970.226
140.570	19.285	1267.725	970.693
141.585	19.295	1266.472	969.706
142.600	19.480	1265.166	969.659
143.614	19.536	1264.688	969.522
144.629	19.529	1263.826	968.735
145.643	19.519	1262.495	967.574
146.658	19.373	1261.418	965.843
147.673	19.174	1259.855	963.448
148.687	18.981	1258.261	961.066
149.702	18.986	1257.227	960.223
150.716	18.965	1255.797	958.929
151.731	18.927	1254.972	957.997
152.746	18.931	1253.397	956.733
153.760	19.038	1252.408	956.490
154.775	19.215	1251.315	956.551
155.789	19.213	1250.604	955.916
156.804	19.290	1249.428	955.357
157.819	19.325	1248.143	954.484
158.833	19.435	1247.581	954.579
159.848	19.494	1246.890	954.291
160.862	19.605	1245.395	953.676
161.877	19.246	1244.678	951.064
162.892	18.990	1243.427	948.609
163.906	18.969	1242.617	947.791
164.921	19.034	1241.642	947.321
165.935	19.125	1240.553	946.910
166.950	19.150	1240.167	946.666
167.964	19.168	1239.558	946.219
168.979	19.054	1239.292	945.306
169.994	19.109	1237.901	944.464
171.008	19.178	1237.085	944.137
172.023	19.355	1236.419	944.514
173.037	19.415	1236.053	944.478
174.052	19.422	1234.986	943.618
175.067	19.275	1233.487	941.586
176.081	19.114	1232.554	939.912
177.096	19.031	1231.355	938.459
178.110	19.060	1230.549	937.923
179.125	19.144	1229.643	937.608
180.140	19.226	1228.096	936.790
181.154	19.295	1227.232	936.420
182.169	19.463	1226.185	936.453
183.183	19.426	1225.343	935.523
184.198	19.503	1223.766	934.657
185.213	19.568	1222.559	934.001
186.227	19.521	1221.855	933.127
187.242	19.621	1221.164	933.056
188.256	19.663	1219.998	932.308
189.271	19.658	1219.295	931.667
190.286	19.511	1218.009	929.806
191.300	19.100	1216.927	926.689
192.315	18.969	1216.074	925.250
193.329	19.130	1215.561	925.644
194.344	19.106	1214.912	924.940
195.359	19.173	1214.448	924.866
196.373	19.365	1214.187	925.614
197.388	19.442	1213.882	925.715
198.402	19.637	1213.624	926.482
199.417	19.742	1213.145	926.594
200.432	19.866	1212.289	926.525
201.446	19.935	1211.889	926.506
202.461	20.014	1210.962	926.137
203.475	20.076	1210.012	925.662
204.490	19.905	1208.486	923.497
205.504	19.680	1207.008	921.089
206.519	19.586	1205.976	919.718
207.534	19.677	1204.768	919.197
208.548	19.621	1203.686	917.996
209.563	19.571	1203.236	917.304
210.577	19.616	1202.233	916.697
211.592	19.666	1201.775	916.533
212.607	19.927	1200.629	916.961
213.621	19.929	1199.872	916.312
214.636	19.870	1199.104	915.330
215.650	19.724	1198.271	913.846
216.665	19.953	1197.238	914.182
217.680	20.052	1196.538	914.090
218.694	20.071	1196.004	913.704
219.709	20.071	1194.859	912.746
220.723	19.926	1194.543	911.662
221.738	19.977	1193.103	910.750
222.753	20.004	1192.292	910.190
223.767	20.045	1191.467	909.694
224.782	20.056	1191.555	909.739
225.796	20.189	1191.034	909.963
226.811	20.241	1189.731	909.156
227.826	20.104	1189.156	907.920
228.840	20.045	1188.136	906.752
229.855	20.014	1187.343	905.903
230.869	19.997	1186.497	905.092
231.884	19.801	1185.966	903.580
232.899	19.740	1185.091	902.514
233.913	19.720	1184.433	901.829
234.928	19.726	1182.957	900.657
235.942	19.665	1182.801	900.144
236.957	19.726	1181.789	899.609
237.972	19.662	1180.979	898.581
238.986	19.690	1180.702	898.438
240.001	19.764	1179.869	898.109
241.015	19.836	1178.777	897.570
242.030	19.908	1178.104	897.353
243.045	19.981	1177.556	897.231
244.059	19.988	1176.483	896.372
245.074	20.032	1175.698	895.923
246.088	19.950	1175.416	895.206
247.103	20.242	1174.350	895.822
248.117	20.294	1173.972	895.720
249.132	20.271	1173.990	895.537
250.147	20.638	1173.014	896.605
251.161	20.793	1172.264	896.753
252.176	20.788	1171.668	896.191
253.190	20.831	1171.146	895.936
254.205	20.890	1170.697	895.815
255.220	21.048	1170.020	896.026
256.234	20.899	1169.606	894.865
257.249	20.874	1168.331	893.683
258.263	20.857	1167.752	893.076
259.278	20.843	1167.294	892.573
260.293	20.904	1167.121	892.677
261.307	20.933	1166.029	891.911
262.322	20.927	1165.709	891.557
263.336	20.971	1164.969	891.137
264.351	21.038	1163.827	890.527
265.366	21.067	1163.431	890.289
266.380	21.081	1162.347	889.453
267.395	21.009	1161.798	888.586
268.409	20.840	1160.866	886.936
269.424	20.842	1160.333	886.464
270.439	20.733	1159.896	885.495
271.453	20.857	1158.782	885.194
272.468	20.706	1157.947	883.715
273.482	20.607	1157.352	882.680
274.497	20.658	1156.771	882.415
275.512	20.707	1155.854	881.887
276.526	20.648	1155.158	880.977
277.541	20.664	1154.275	880.307
278.555	20.724	1153.917	880.263
279.570	20.899	1153.460	880.716
280.585	21.035	1152.956	880.944
281.599	21.018	1151.797	879.894
282.614	20.934	1150.460	878.370
283.628	20.842	1148.948	876.677
284.643	20.858	1148.238	876.137
285.657	20.963	1147.385	875.939
286.672	20.951	1146.246	874.931
287.687	20.789	1145.774	873.680
288.701	20.800	1145.228	873.239
289.716	20.772	1144.174	872.220
290.730	20.901	1143.682	872.410
291.745	20.968	1142.554	871.812
292.760	20.997	1141.733	871.253
293.774	21.084	1141.357	871.324
294.789	21.049	1141.471	871.156
295.803	21.117	1140.534	870.706
296.818	21.039	1139.662	869.573
297.833	20.929	1138.724	868.230
298.847	20.986	1138.071	867.941
299.862	20.995	1137.420	867.411
300.876	21.029	1136.550	866.841
301.891	21.095	1135.878	866.579
302.906	21.233	1135.374	866.801
303.920	21.288	1135.102	866.791
304.935	21.355	1134.460	866.557
305.949	21.612	1133.587	867.088
306.964	21.420	1132.857	865.500
307.979	21.402	1132.066	864.729
308.993	21.403	1131.448	864.189
310.008	21.364	1130.551	863.232
311.022	21.473	1129.822	863.140
312.037	21.420	1129.392	862.472
313.052	21.295	1128.009	860.726
314.066	21.091	1127.198	859.026
315.081	21.034	1125.998	857.753
316.095	20.887	1125.598	856.651
317.110	20.997	1124.427	856.222
318.125	21.022	1123.324	855.432
319.139	21.023	1123.005	855.118
320.154	20.963	1122.476	854.343
321.168	20.985	1121.920	853.955
322.183	21.063	1121.345	853.823
323.197	21.131	1120.817	853.678
324.212	21.165	1120.158	853.265
325.227	21.148	1119.868	852.887
326.241	21.204	1118.991	852.414
327.256	21.157	1118.068	851.406
328.270	21.158	1116.781	850.358
329.285	21.152	1116.257	849.857
330.300	21.195	1114.680	848.786
331.314	21.090	1114.410	847.997
332.329	21.199	1113.398	847.681
333.343	21.199	1112.440	846.876
334.358	21.282	1111.637	846.594
335.373	21.369	1111.245	846.639
336.387	21.435	1110.743	846.505
337.402	21.454	1109.865	845.852
338.416	21.534	1109.178	845.640
339.431	21.685	1108.326	845.641
340.446	21.764	1108.066	845.753
341.460	21.871	1107.608	845.844
342.475	21.883	1106.620	845.073
343.489	21.862	1106.203	844.574
344.504	22.010	1105.232	844.475
345.519	22.062	1104.172	843.838
346.533	22.100	1103.139	843.157
347.548	22.109	1103.226	843.193
348.562	22.061	1102.015	841.962
349.577	21.916	1100.852	840.304
350.592	21.647	1100.372	838.574
351.606	21.492	1099.426	837.041
352.621	21.509	1098.553	836.380
353.635	21.523	1097.720	835.738
354.650	21.529	1097.155	835.263
355.665	21.511	1096.616	834.696
356.679	21.647	1095.938	834.752
357.694	21.756	1095.313	834.723
358.708	21.932	1094.827	835.114
359.723	21.881	1093.944	834.126
360.738	22.011	1092.952	833.914
361.752	21.810	1093.005	832.926
362.767	21.767	1092.855	832.532
363.781	21.874	1091.953	832.279
364.796	22.043	1091.415	832.598
365.810	22.192	1090.669	832.661
366.825	22.149	1090.266	832.077
367.840	22.317	1089.695	832.360
368.854	22.447	1089.427	832.695
369.869	22.419	1088.557	831.827
370.883	22.329	1087.518	830.532
371.898	22.251	1086.628	829.414
372.913	22.302	1085.581	828.780
373.927	22.255	1086.047	828.841
374.942	22.261	1085.444	828.336
375.956	22.283	1085.236	828.208
376.971	22.291	1084.005	827.232
377.986	22.369	1083.514	827.151
379.000	22.412	1083.250	827.078
380.015	22.418	1082.873	826.745
381.029	22.578	1081.910	826.687
382.044	22.474	1081.665	825.941
383.059	22.520	1080.489	825.186
384.073	22.477	1079.536	824.183
385.088	22.458	1078.790	823.453
386.102	22.602	1077.796	823.292
387.117	22.315	1076.654	821.008
388.132	22.190	1075.765	819.672
389.146	22.184	1075.092	819.059
390.161	22.198	1074.187	818.363
391.175	22.289	1073.421	818.131
392.190	22.244	1072.916	817.467
393.205	22.521	1072.544	818.397
394.219	22.476	1071.577	817.378
395.234	22.351	1070.566	815.951
396.248	22.269	1069.673	814.822
397.263	22.206	1068.510	813.570
398.278	22.263	1067.603	813.073
399.292	22.193	1066.598	811.909
400.307	22.031	1066.184	810.777
401.321	22.155	1065.100	810.452
402.336	21.985	1064.993	809.517
403.350	22.161	1064.166	809.628
404.365	22.077	1063.520	808.679
405.380	22.235	1063.170	809.063
406.394	22.218	1062.367	808.303
407.409	22.423	1061.670	808.645
408.423	22.644	1060.878	808.986
409.438	22.629	1060.567	808.605
410.453	22.733	1059.714	808.363
411.467	22.772	1059.131	808.022
412.482	22.826	1058.610	807.800
413.496	22.986	1057.738	807.798
414.511	22.894	1057.228	806.917
415.526	23.109	1056.904	807.577
416.540	23.062	1056.943	807.319
417.555	23.103	1056.068	806.770
418.569	22.981	1055.544	805.741
419.584	22.846	1054.786	804.477
420.599	22.978	1053.879	804.313
421.613	154.376	1400.854	1789.195
422.628	141.752	1451.429	1789.309
