DTS Sentinel unit serial number:	SN413079Multiplexer serial number:	ORYXHardware model number:	OX4-SRSoftware version number:	ORYX F/W v4.00 Oryx Data Collector v3.7.2.0data status	okinstallation	princeton_trtdifferential loss correction	single-endedforward channel	channel 2reverse channel	N/Adate	2019/09/17time	09:11:35forward acquisition time	60.00reverse acquisition time	0.00gamma	496.2192k internal	0.2331k external	0.2331temperature offset calibration	0.9969default loss term (dB/km)	0.3790temperature slope calibration	1.0000multiplexer offset coefficient	1.0000multiplexer slope coefficient	1.0000fibre end	0.00T internal ref (°C)	28.37T ext. ref 1 (°C)	0.13T ext. ref 2 (°C)	25.28length (m)	temperature (°C)	Stokes	anti-Stokes-747.200	286.048	-0.179	0.325
-746.185	800.000	0.070	0.272
-745.171	-200.000	0.000	0.010
-744.156	-200.000	0.153	0.701
-743.142	280.613	0.106	0.190
-742.127	-97.450	-0.190	0.050
-741.112	-200.000	-0.048	0.286
-740.098	-200.000	0.043	0.380
-739.083	146.520	0.091	-0.123
-738.069	451.405	0.049	0.109
-737.054	-120.601	0.264	-0.045
-736.039	336.931	0.061	-0.119
-735.025	383.292	-0.133	0.275
-734.010	243.259	0.244	-0.412
-732.996	-200.000	-0.039	-0.602
-731.981	303.318	-0.073	-0.135
-730.966	-149.535	0.354	-0.028
-729.952	-103.862	-0.226	0.053
-728.937	-50.078	-0.062	0.030
-727.923	-100.819	-0.326	-0.081
-726.908	-71.384	-0.156	-0.059
-725.894	79.836	-0.314	0.339
-724.879	800.000	-0.071	-0.253
-723.864	-111.014	0.350	-0.072
-722.850	102.255	-0.067	0.078
-721.835	-58.432	-0.272	-0.119
-720.821	-200.000	0.032	-0.165
-719.806	144.053	-0.112	-0.151
-718.791	-126.527	0.257	0.038
-717.777	36.091	0.223	0.198
-716.762	-22.401	0.096	0.059
-715.748	-112.646	-0.189	0.038
-714.733	2.327	-0.100	0.073
-713.718	-23.966	0.196	0.118
-712.704	-200.000	-0.015	-0.152
-711.689	298.609	0.166	0.307
-710.675	-200.000	-0.045	-0.206
-709.660	47.261	0.159	-0.149
-708.645	94.214	-0.068	-0.078
-707.631	255.978	0.124	-0.214
-706.616	-200.000	-0.009	0.092
-705.602	-200.000	-0.052	0.370
-704.587	-129.632	0.227	0.031
-703.572	-200.000	0.047	0.276
-702.558	-165.121	-0.146	0.007
-701.543	24.629	0.092	0.077
-700.529	162.650	0.155	0.218
-699.514	-173.652	0.294	0.009
-698.499	-99.469	-0.095	0.024
-697.485	-58.190	-0.253	0.111
-696.470	-71.012	-0.401	-0.152
-695.456	42.477	0.101	0.092
-694.441	65.117	-0.239	0.242
-693.426	-200.000	-0.039	-0.247
-692.412	-139.907	-0.317	-0.034
-691.397	-100.769	-0.120	-0.030
-690.383	102.742	-0.100	-0.118
-689.368	-101.285	0.151	-0.037
-688.354	-200.000	-0.083	-0.509
-687.339	-60.565	-0.212	0.091
-686.324	-131.782	-0.380	0.050
-685.310	-200.000	-0.027	-0.274
-684.295	-83.073	0.217	0.070
-683.281	-54.406	-0.101	-0.046
-682.266	15.751	-0.043	0.034
-681.251	-200.000	-0.016	-0.089
-680.237	800.000	0.082	0.303
-679.222	-17.622	-0.335	-0.211
-678.208	-200.000	0.006	-0.056
-677.193	-19.528	-0.257	0.160
-676.178	-25.613	-0.204	-0.121
-675.164	31.194	0.095	0.082
-674.149	-108.695	0.011	-0.002
-673.135	308.033	-0.142	-0.266
-672.120	175.977	-0.099	0.144
-671.105	259.061	0.042	-0.072
-670.091	800.000	0.086	0.241
-669.076	-200.000	-0.041	-0.237
-668.062	90.753	0.117	0.132
-667.047	-200.000	0.042	-0.376
-666.032	-168.706	-0.320	0.012
-665.018	-200.000	-0.022	-0.352
-664.003	100.293	-0.169	0.197
-662.989	-200.000	0.007	0.142
-661.974	-200.000	-0.051	0.427
-660.959	-121.138	-0.208	0.035
-659.945	-200.000	-0.017	-0.357
-658.930	800.000	0.005	-0.015
-657.916	271.446	0.063	-0.111
-656.901	-200.000	0.024	-0.122
-655.886	-126.726	-0.368	-0.055
-654.872	800.000	-0.077	0.236
-653.857	-179.429	-0.242	-0.005
-652.843	-200.000	0.009	-0.064
-651.828	56.229	-0.158	0.154
-650.814	-1.293	0.250	-0.177
-649.799	-200.000	0.092	-0.678
-648.784	257.092	-0.167	-0.287
-647.770	257.571	-0.022	-0.038
-646.755	-200.000	-0.019	0.112
-645.741	135.667	0.060	-0.078
-644.726	-103.126	0.113	0.027
-643.711	-16.747	-0.435	-0.276
-642.697	-183.368	-0.402	-0.007
-641.682	-200.000	0.011	0.214
-640.668	-200.000	0.039	-0.265
-639.653	-200.000	0.015	0.197
-638.638	-130.761	-0.351	0.047
-637.624	-200.000	-0.000	0.053
-636.609	126.493	-0.126	0.160
-635.595	-200.000	0.025	0.346
-634.580	-32.576	-0.183	0.102
-633.565	48.630	0.151	-0.142
-632.551	-6.752	-0.065	0.044
-631.536	800.000	-0.042	-0.120
-630.522	72.335	-0.105	-0.110
-629.507	-136.604	0.170	0.020
-628.492	-114.451	-0.312	0.060
-627.478	634.806	-0.109	0.278
-626.463	-200.000	-0.012	0.082
-625.449	800.000	0.080	0.331
-624.434	-200.000	0.001	0.101
-623.419	28.673	-0.325	0.275
-622.405	61.965	0.337	0.336
-621.390	-200.000	-0.005	-0.184
-620.376	-200.000	-0.024	-0.298
-619.361	-200.000	0.010	0.082
-618.346	-200.000	0.023	-0.215
-617.332	-200.000	0.072	-0.328
-616.317	-22.851	-0.356	-0.215
-615.303	-200.000	-0.025	-0.235
-614.288	-14.532	-0.232	-0.150
-613.273	18.060	0.284	-0.227
-612.259	800.000	-0.045	-0.133
-611.244	298.123	-0.201	-0.370
-610.230	187.092	0.205	-0.306
-609.215	-113.995	-0.293	0.057
-608.201	43.182	0.113	-0.103
-607.186	-109.750	-0.503	0.106
-606.171	-22.587	-0.207	-0.126
-605.157	173.803	0.021	0.031
-604.142	-169.983	0.280	-0.010
-603.128	76.503	0.193	-0.205
-602.113	800.000	0.137	-0.384
-601.098	-62.637	-0.247	-0.103
-600.084	182.550	0.040	0.059
-599.069	-200.000	0.052	-0.451
-598.055	800.000	0.029	0.109
-597.040	42.108	0.274	0.249
-596.025	-38.830	0.165	0.087
-595.011	-98.485	-0.223	-0.057
-593.996	800.000	0.039	-0.145
-592.982	800.000	-0.051	0.208
-591.967	-29.819	-0.392	0.224
-590.952	-23.434	0.175	0.105
-589.938	112.084	-0.140	-0.169
-588.923	-87.140	-0.353	0.108
-587.909	30.058	-0.236	0.201
-586.894	260.150	-0.151	-0.262
-585.879	-80.527	-0.353	0.118
-584.865	288.875	-0.155	0.281
-583.850	80.547	0.202	0.217
-582.836	-133.013	-0.229	0.029
-581.821	-180.656	0.075	-0.002
-580.806	64.931	-0.114	-0.115
-579.792	40.222	-0.101	0.091
-578.777	-30.822	0.203	0.115
-577.763	-146.518	-0.493	0.043
-576.748	-179.918	-0.195	-0.004
-575.733	260.572	0.224	0.388
-574.719	-200.000	-0.011	-0.146
-573.704	680.775	-0.040	-0.105
-572.690	122.536	0.125	-0.156
-571.675	800.000	0.104	-0.296
-570.661	800.000	-0.046	-0.129
-569.646	-200.000	0.014	0.074
-568.631	800.000	0.025	-0.105
-567.617	-123.257	-0.067	0.011
-566.602	-200.000	-0.036	0.322
-565.588	-126.608	-0.278	0.041
-564.573	636.678	-0.026	0.067
-563.558	68.500	0.123	0.126
-562.544	800.000	0.034	0.111
-561.529	391.442	-0.172	-0.356
-560.515	102.133	0.066	-0.077
-559.500	-180.439	0.346	-0.007
-558.485	-50.018	0.205	0.097
-557.471	800.000	-0.040	-0.118
-556.456	-200.000	0.300	0.001
-555.442	-61.974	-0.244	0.102
-554.427	-124.920	-0.638	0.098
-553.412	259.664	-0.047	0.081
-552.398	-95.291	0.264	-0.071
-551.383	-131.854	-0.289	0.038
-550.369	-94.698	-0.098	0.027
-549.354	-137.212	-0.118	-0.013
-548.339	-106.889	-0.184	0.041
-547.325	-137.851	0.217	-0.024
-546.310	800.000	-0.073	0.315
-545.296	606.755	0.149	-0.370
-544.281	-72.998	-0.133	-0.049
-543.266	-200.000	0.027	-0.197
-542.252	-200.000	0.003	-0.231
-541.237	154.725	0.028	-0.039
-540.223	-169.404	0.231	-0.008
-539.208	-120.366	0.070	-0.012
-538.193	0.980	-0.238	-0.171
-537.179	-113.374	-0.345	-0.068
-536.164	800.000	-0.029	-0.122
-535.150	714.140	-0.116	0.307
-534.135	502.523	-0.095	0.220
-533.121	62.212	0.136	-0.135
-532.106	201.623	-0.038	0.059
-531.091	800.000	-0.059	0.227
-530.077	257.825	0.115	-0.198
-529.062	-158.201	-0.184	-0.011
-528.048	-140.353	0.115	-0.012
-527.033	-200.000	0.017	-0.114
-526.018	278.907	-0.034	-0.060
-525.004	-158.423	0.442	0.026
-523.989	196.879	-0.192	0.292
-522.975	-200.000	-0.016	-0.207
-521.960	800.000	-0.053	-0.191
-520.945	800.000	0.069	-0.244
-519.931	147.091	0.174	-0.234
-518.916	-134.227	-0.119	-0.015
-517.902	-200.000	0.000	-0.009
-516.887	6.370	0.081	-0.060
-515.872	19.380	-0.213	0.171
-514.858	-200.000	0.008	-0.437
-513.843	272.667	0.258	-0.454
-512.829	-154.836	0.145	-0.010
-511.814	-200.000	0.016	0.077
-510.799	800.000	-0.047	0.161
-509.785	35.463	-0.164	0.143
-508.770	253.798	0.029	0.049
-507.756	74.561	-0.199	-0.209
-506.741	-58.704	0.154	0.066
-505.726	-62.621	0.154	0.064
-504.712	-125.835	0.144	0.022
-503.697	149.823	0.098	0.132
-502.683	-200.000	0.014	-0.288
-501.668	-22.149	-0.179	0.108
-500.653	-32.330	0.109	0.061
-499.639	460.504	0.048	0.107
-498.624	397.542	0.067	-0.141
-497.610	23.532	-0.184	-0.151
-496.595	496.992	-0.052	-0.119
-495.581	430.825	-0.087	0.188
-494.566	66.590	-0.231	-0.234
-493.551	-102.891	0.262	0.062
-492.537	-200.000	0.012	-0.517
-491.522	800.000	-0.058	-0.184
-490.508	208.531	0.077	-0.120
-489.493	35.190	-0.053	0.047
-488.478	462.531	0.023	-0.052
-487.464	-178.860	-0.085	0.002
-486.449	800.000	-0.092	-0.266
-485.435	140.157	-0.101	0.132
-484.420	-135.207	-0.225	0.027
-483.405	-128.439	0.222	0.031
-482.391	-200.000	-0.015	0.278
-481.376	381.606	-0.175	0.357
-480.362	67.025	-0.242	0.245
-479.347	79.877	0.167	0.179
-478.332	-200.000	-0.011	0.295
-477.318	25.255	0.319	0.264
-476.303	293.994	0.237	0.431
-475.289	-21.354	-0.332	-0.202
-474.274	-52.611	-0.259	0.119
-473.259	-200.000	-0.009	-0.090
-472.245	506.340	0.038	-0.087
-471.230	-61.398	0.277	0.116
-470.216	-200.000	0.062	-0.327
-469.201	63.598	0.247	-0.247
-468.186	-60.251	0.217	0.092
-467.172	800.000	0.025	0.095
-466.157	72.987	0.238	0.247
-465.143	800.000	0.069	0.246
-464.128	800.000	0.031	-0.085
-463.113	45.849	-0.355	-0.326
-462.099	511.779	-0.058	-0.135
-461.084	-137.528	-0.404	-0.045
-460.070	-200.000	-0.043	-0.244
-459.055	-112.401	-0.038	-0.008
-458.040	113.264	-0.030	0.037
-457.026	324.504	0.167	-0.317
-456.011	84.476	-0.189	0.206
-454.997	-40.910	-0.193	0.099
-453.982	-69.041	0.102	0.039
-452.968	-200.000	-0.014	0.191
-451.953	5.156	0.229	-0.168
-450.938	226.072	0.121	0.196
-449.924	643.335	-0.101	-0.257
-448.909	149.232	0.155	-0.209
-447.895	-58.353	0.222	-0.096
-446.880	45.705	0.311	-0.286
-445.865	758.274	-0.040	0.108
-444.851	-35.523	-0.322	0.174
-443.836	-200.000	0.047	0.271
-442.822	-200.000	0.016	-0.486
-441.807	102.271	-0.094	-0.110
-440.792	83.572	-0.162	0.176
-439.778	-63.027	0.333	0.137
-438.763	-41.319	0.179	0.092
-437.749	98.562	0.117	0.134
-436.734	-43.279	0.008	0.004
-435.719	-200.000	0.001	0.205
-434.705	51.382	0.159	0.150
-433.690	46.068	0.160	-0.147
-432.676	757.054	0.072	-0.195
-431.661	-143.266	-0.158	-0.015
-430.646	-25.348	-0.149	0.088
-429.632	800.000	-0.103	0.433
-428.617	-159.138	0.145	0.008
-427.603	166.351	0.233	-0.328
-426.588	-200.000	-0.002	-0.063
-425.573	-123.207	-0.104	-0.017
-424.559	-33.286	0.549	-0.302
-423.544	-129.693	0.022	-0.003
-422.530	-153.302	-0.368	0.026
-421.515	-62.993	0.083	-0.034
-420.500	18.537	-0.274	-0.218
-419.486	59.780	-0.230	0.226
-418.471	800.000	-0.070	-0.278
-417.457	235.088	0.010	0.016
-416.442	-133.576	0.192	0.024
-415.428	170.539	-0.197	0.281
-414.413	-140.408	0.431	-0.045
-413.398	-200.000	-0.050	0.327
-412.384	327.144	0.024	-0.045
-411.369	800.000	0.022	-0.079
-410.355	-107.401	0.222	0.048
-409.340	-28.981	-0.194	-0.110
-408.325	-138.730	-0.370	0.040
-407.311	-86.680	-0.139	0.042
-406.296	409.466	-0.039	0.081
-405.282	59.877	-0.245	-0.241
-404.267	-98.174	-0.344	0.088
-403.252	98.962	0.155	0.178
-402.238	-200.000	0.033	-0.177
-401.223	-200.000	-0.027	0.242
-400.209	33.266	0.085	0.074
-399.194	-13.016	0.365	0.236
-398.179	369.081	0.029	0.058
-397.165	69.082	-0.175	-0.179
-396.150	800.000	0.050	-0.187
-395.136	116.075	-0.030	-0.036
-394.121	-50.625	-0.112	0.052
-393.106	-11.423	0.071	0.047
-392.092	-104.093	0.392	0.090
-391.077	35.104	-0.129	-0.112
-390.063	800.000	-0.076	0.247
-389.048	-81.359	-0.236	0.077
-388.033	131.610	-0.120	0.153
-387.019	193.777	0.213	-0.319
-386.004	800.000	-0.042	0.182
-384.990	115.691	0.332	0.403
-383.975	20.247	-0.148	0.118
-382.960	-83.198	0.113	-0.036
-381.946	-200.000	0.024	0.144
-380.931	143.128	-0.035	0.046
-379.917	270.226	-0.109	-0.190
-378.902	-139.760	-0.318	0.033
-377.888	95.248	-0.155	-0.175
-376.873	-14.540	0.117	0.074
-375.858	129.855	-0.098	0.125
-374.844	-2.690	0.095	0.066
-373.829	678.876	-0.059	-0.153
-372.815	27.048	0.212	-0.176
-371.800	-200.000	0.029	-0.135
-370.785	-200.000	0.038	0.477
-369.771	589.623	0.136	-0.331
-368.756	-107.371	-0.033	0.007
-367.742	217.662	-0.102	-0.161
-366.727	-71.150	0.043	-0.016
-365.712	178.165	-0.109	-0.157
-364.698	-200.000	-0.021	-0.134
-363.683	-193.209	0.084	0.001
-362.669	76.077	-0.179	0.188
-361.654	-81.762	0.226	0.073
-360.639	-126.920	-0.335	0.049
-359.625	247.065	0.174	0.291
-358.610	-46.438	-0.157	0.076
-357.596	-200.000	-0.011	-0.195
-356.581	-200.000	-0.015	-0.186
-355.566	98.944	0.053	-0.060
-354.552	-88.412	0.298	-0.088
-353.537	-124.553	-0.049	-0.008
-352.523	444.368	0.121	-0.264
-351.508	89.035	0.013	0.015
-350.493	-60.511	-0.200	-0.084
-349.479	-44.628	-0.143	-0.071
-348.464	552.016	0.118	-0.280
-347.450	-188.435	0.095	0.001
-346.435	-200.000	-0.007	0.030
-345.420	30.599	-0.081	-0.069
-344.406	-105.824	0.170	-0.038
-343.391	-30.252	-0.135	0.076
-342.377	-28.573	0.368	0.210
-341.362	116.866	0.145	0.176
-340.348	-134.676	0.163	-0.020
-339.333	-34.246	0.062	-0.034
-338.318	-75.862	-0.318	-0.111
-337.304	8.499	-0.249	0.186
-336.289	-40.037	-0.363	-0.187
-335.275	-29.849	-0.064	-0.036
-334.260	-110.892	0.360	-0.073
-333.245	784.420	-0.088	-0.239
-332.231	20.238	0.239	0.191
-331.216	-140.168	-0.392	0.041
-330.202	800.000	0.018	0.060
-329.187	-81.266	0.333	0.109
-328.172	-71.251	0.055	0.021
-327.158	79.541	-0.070	0.074
-326.143	20.341	0.123	-0.098
-325.129	-116.746	0.380	-0.069
-324.114	-200.000	-0.055	0.410
-323.099	413.002	-0.084	-0.176
-322.085	130.242	0.076	-0.096
-321.070	253.333	0.063	-0.107
-320.056	18.524	-0.104	-0.083
-319.041	800.000	0.131	0.418
-318.026	-200.000	0.040	0.189
-317.012	800.000	0.060	-0.197
-315.997	-112.673	0.250	-0.049
-314.983	38.132	-0.133	0.117
-313.968	-200.000	-0.036	0.379
-312.953	-200.000	0.074	-0.329
-311.939	127.406	-0.061	-0.077
-310.924	-120.389	0.334	-0.056
-309.910	800.000	0.080	0.252
-308.895	-200.000	0.003	0.153
-307.880	-125.631	-0.112	0.017
-306.866	446.086	0.070	0.153
-305.851	123.515	0.277	0.343
-304.837	3.219	0.162	0.117
-303.822	-67.335	0.232	0.090
-302.807	-200.000	-0.019	-0.094
-301.793	165.748	-0.004	-0.005
-300.778	226.991	0.087	0.140
-299.764	-55.870	0.150	-0.066
-298.749	738.862	0.054	-0.144
-297.735	-200.000	0.008	0.072
-296.720	-200.000	-0.005	0.420
-295.705	178.192	0.073	0.106
-294.691	-45.574	0.069	0.034
-293.676	-133.288	-0.121	-0.015
-292.662	105.830	-0.080	0.093
-291.647	-200.000	0.013	-0.057
-290.632	800.000	-0.055	-0.152
-289.618	628.202	0.086	0.214
-288.603	82.467	-0.163	0.175
-287.589	-116.347	0.160	-0.029
-286.574	-187.006	0.196	-0.003
-285.559	367.161	-0.131	-0.262
-284.545	258.469	0.140	0.239
-283.530	38.729	-0.206	0.182
-282.516	-23.609	0.232	0.138
-281.501	-116.664	-0.296	-0.054
-280.486	465.862	-0.091	0.200
-279.472	-57.447	0.019	-0.008
-278.457	-200.000	-0.013	0.265
-277.443	-200.000	-0.006	-0.204
-276.428	17.713	0.130	0.102
-275.413	546.973	-0.055	0.129
-274.399	-200.000	0.001	0.242
-273.384	457.087	-0.096	-0.211
-272.370	151.797	0.254	-0.342
-271.355	104.348	0.124	-0.144
-270.340	-200.000	0.003	-0.093
-269.326	-40.404	0.225	-0.116
-268.311	212.285	-0.170	-0.264
-267.297	800.000	0.063	0.214
-266.282	69.661	0.119	0.121
-265.267	525.876	-0.082	-0.192
-264.253	29.650	-0.076	0.064
-263.238	-54.104	-0.104	0.047
-262.224	-27.373	0.073	0.042
-261.209	192.213	-0.098	-0.147
-260.195	-37.540	0.134	0.071
-259.180	-122.291	0.132	0.021
-258.165	-200.000	0.042	0.202
-257.151	-3.366	-0.345	0.237
-256.136	173.779	0.102	0.145
-255.122	175.885	-0.038	0.054
-254.107	43.584	0.203	0.183
-253.092	308.681	0.173	0.320
-252.078	-77.964	0.357	0.122
-251.063	-25.352	0.091	-0.053
-250.049	32.074	0.099	0.085
-249.034	127.906	-0.166	-0.208
-248.019	191.857	0.135	0.201
-247.005	436.808	-0.093	0.201
-245.990	377.144	-0.064	-0.129
-244.976	-160.988	-0.159	-0.008
-243.961	800.000	-0.066	0.259
-242.946	-8.814	-0.079	-0.052
-241.932	-200.000	-0.012	-0.157
-240.917	294.277	0.051	-0.092
-239.903	250.231	0.179	-0.300
-238.888	-159.475	0.133	-0.007
-237.873	79.430	0.278	0.294
-236.859	-39.407	0.255	0.132
-235.844	207.674	0.152	0.235
-234.830	98.068	0.152	0.173
-233.815	221.994	0.120	-0.190
-232.800	63.440	0.226	-0.224
-231.786	800.000	0.136	-0.466
-230.771	-200.000	-0.015	0.398
-229.757	-200.000	-0.020	0.151
-228.742	31.374	0.114	0.097
-227.727	-195.613	-0.063	-0.000
-226.713	-200.000	0.047	0.278
-225.698	-200.000	0.065	0.000
-224.684	147.481	0.162	0.215
-223.669	-85.512	-0.039	0.012
-222.655	-200.000	-0.011	0.113
-221.640	77.350	-0.065	-0.069
-220.625	162.139	-0.127	-0.176
-219.611	11.349	0.109	-0.083
-218.596	-78.892	0.044	-0.015
-217.582	341.374	0.051	0.098
-216.567	503.031	-0.079	-0.181
-215.552	-40.391	-0.104	0.053
-214.538	800.000	0.103	-0.305
-213.523	45.700	0.123	-0.112
-212.509	-117.260	-0.204	-0.037
-211.494	-25.816	-0.127	0.074
-210.479	800.000	0.152	0.430
-209.465	800.000	0.046	-0.156
-208.450	-84.518	-0.368	0.114
-207.436	-200.000	0.025	0.152
-206.421	62.000	0.088	0.087
-205.406	-150.693	-0.284	0.021
-204.392	-49.545	-0.170	-0.080
-203.377	-200.000	-0.050	-0.258
-202.363	-83.808	0.357	-0.112
-201.348	-200.000	0.044	0.212
-200.333	-11.900	-0.102	0.066
-199.319	-200.000	-0.033	-0.197
-198.304	-51.385	-0.289	0.133
-197.290	-200.000	-0.091	0.000
-196.275	-200.000	0.016	-0.177
-195.260	-112.198	-0.157	0.031
-194.246	44.811	0.221	-0.201
-193.231	30.131	-0.248	-0.208
-192.217	32.479	-0.184	-0.157
-191.202	-79.535	-0.022	-0.007
-190.187	398.148	-0.103	-0.213
-189.173	800.000	-0.059	-0.193
-188.158	5.117	-0.456	-0.331
-187.144	443.121	-0.065	-0.140
-186.129	-54.154	0.350	0.157
-185.114	-40.042	0.075	-0.038
-184.100	-53.586	0.228	0.103
-183.085	800.000	0.029	0.099
-182.071	16.939	-0.093	0.073
-181.056	201.526	-0.017	-0.026
-180.042	8.168	0.259	-0.191
-179.027	-200.000	-0.007	0.033
-178.012	-98.381	-0.272	0.069
-176.998	-71.809	-0.045	0.016
-175.983	-120.937	0.286	-0.047
-174.969	-140.786	-0.096	0.010
-173.954	-115.541	-0.291	0.054
-172.939	130.960	-0.092	-0.116
-171.925	-76.460	0.274	-0.095
-170.910	800.000	-0.068	0.187
-169.896	-34.397	0.131	-0.071
-168.881	-29.623	0.156	-0.088
-167.866	-96.789	0.174	-0.045
-166.852	128.072	0.197	0.247
-165.837	-88.082	-0.206	-0.061
-164.823	355.216	-0.111	-0.217
-163.808	-200.000	0.007	0.077
-162.793	-200.000	0.009	-0.218
-161.779	-69.337	0.212	0.080
-160.764	-200.000	0.029	-0.210
-159.750	-56.118	0.067	0.029
-158.735	642.919	-0.121	0.303
-157.720	9.871	0.181	0.135
-156.706	-200.000	0.038	0.251
-155.691	115.672	0.073	-0.087
-154.677	34.093	-0.127	0.109
-153.662	-108.555	0.132	0.028
-152.647	-18.706	0.107	0.066
-151.633	508.957	0.016	0.038
-150.618	800.000	-0.050	0.155
-149.604	800.000	-0.178	-0.553
-148.589	381.605	0.137	-0.276
-147.574	-200.000	0.003	0.129
-146.560	130.859	-0.092	0.116
-145.545	73.404	-0.135	0.139
-144.531	284.958	-0.202	-0.357
-143.516	105.374	0.099	0.115
-142.502	243.709	0.045	-0.074
-141.487	20.392	0.351	0.279
-140.472	579.268	0.071	0.170
-139.458	-200.000	-0.059	-0.264
-138.443	221.195	-0.100	-0.158
-137.429	-200.000	0.016	-0.086
-136.414	-48.419	0.191	-0.090
-135.399	557.315	-0.009	0.021
-134.385	800.000	-0.145	-0.397
-133.370	800.000	0.042	-0.169
-132.356	21.254	0.130	-0.104
-131.341	-56.265	0.197	0.086
-130.326	-200.000	-0.067	-0.343
-129.312	-22.186	-0.391	0.233
-128.297	800.000	0.116	-0.390
-127.283	-118.804	0.141	0.024
-126.268	-119.178	0.112	0.019
-125.253	81.399	-0.161	-0.171
-124.239	378.197	-0.172	0.346
-123.224	-180.632	0.365	0.007
-122.210	52.758	0.050	-0.047
-121.195	-128.534	-0.193	-0.027
-120.180	-198.601	0.269	-0.001
-119.166	-103.039	0.070	0.016
-118.151	-97.411	0.107	0.027
-117.137	800.000	0.074	0.211
-116.122	-200.000	-0.028	0.133
-115.107	77.935	0.219	-0.229
-114.093	50.721	-0.071	-0.066
-113.078	-129.691	-0.151	-0.020
-112.064	141.399	0.206	-0.267
-111.049	-71.690	0.147	-0.054
-110.034	188.228	-0.101	-0.149
-109.020	346.243	0.173	0.333
-108.005	-200.000	0.004	0.036
-106.991	-200.000	0.002	-0.128
-105.976	1.549	-0.160	0.113
-104.962	38.069	-0.149	0.130
-103.947	-99.143	-0.305	-0.076
-102.932	153.844	-0.096	0.129
-101.918	61.362	0.419	-0.409
-100.903	-35.921	0.139	0.074
-99.889	1.908	0.114	-0.080
-98.874	15.539	-0.100	-0.077
-97.859	32.279	0.188	-0.159
-96.845	-193.924	-0.355	0.003
-95.830	-12.321	0.097	0.062
-94.816	-200.000	-0.017	-0.135
-93.801	28.117	0.330	0.274
-92.786	800.000	-0.146	-0.421
-91.772	-200.000	0.006	0.166
-90.757	-200.000	0.001	-0.006
-89.743	-34.317	0.030	-0.016
-88.728	14.300	-0.023	0.018
-87.713	-122.135	0.358	0.058
-86.699	-39.855	-0.035	-0.018
-85.684	800.000	0.018	-0.075
-84.670	-178.589	0.148	0.003
-83.655	-23.740	0.205	-0.120
-82.640	6.945	0.148	-0.108
-81.626	88.866	-0.253	0.276
-80.611	167.041	0.271	0.377
-79.597	-18.868	0.181	0.110
-78.582	-200.000	-0.031	0.179
-77.567	800.000	0.072	0.279
-76.553	-57.288	-0.307	-0.132
-75.538	11.001	0.241	0.180
-74.524	-141.457	-0.140	0.014
-73.509	404.744	-0.110	0.227
-72.494	8.267	-0.196	-0.145
-71.480	-198.622	0.055	-0.000
-70.465	28.507	-0.336	0.278
-69.451	482.336	0.056	0.125
-68.436	-54.188	0.153	0.068
-67.422	610.036	-0.080	0.197
-66.407	-200.000	-0.039	-0.190
-65.392	-39.122	0.282	0.145
-64.378	-104.488	-0.336	-0.076
-63.363	-41.045	0.062	0.032
-62.349	-153.681	-0.476	-0.032
-61.334	213.709	-0.806	-1.249
-60.319	-42.644	0.557	0.278
-59.305	265.526	-0.544	-0.930
-58.290	327.363	0.651	1.224
-57.276	474.431	0.808	1.787
-56.261	-200.000	108.757	589.439
-55.246	436.529	1506.795	3214.955
-54.232	143.944	2695.871	3521.972
-53.217	97.945	2298.374	2590.867
-52.203	37.442	1904.171	1654.197
-51.188	31.614	1690.627	1424.441
-50.173	29.058	1647.531	1369.085
-49.159	48.342	1702.513	1561.154
-48.144	48.329	1717.556	1574.786
-47.130	31.097	1675.536	1407.600
-46.115	28.464	1660.783	1375.424
-45.100	28.254	1655.219	1369.190
-44.086	28.230	1652.673	1366.856
-43.071	28.216	1650.470	1364.874
-42.057	28.201	1647.568	1362.309
-41.042	28.205	1645.945	1360.944
-40.027	28.239	1644.122	1359.636
-39.013	28.213	1641.997	1357.631
-37.998	28.059	1641.095	1355.690
-36.984	28.242	1639.257	1355.468
-35.969	28.239	1637.761	1354.158
-34.954	28.378	1635.899	1353.587
-33.940	28.389	1634.637	1352.574
-32.925	28.281	1633.088	1350.445
-31.911	28.462	1631.304	1350.250
-30.896	28.404	1629.123	1347.963
-29.881	28.380	1627.866	1346.692
-28.867	28.261	1626.509	1344.641
-27.852	28.311	1624.587	1343.366
-26.838	28.384	1622.958	1342.500
-25.823	28.337	1621.955	1341.277
-24.809	28.320	1621.054	1340.348
-23.794	28.419	1618.854	1339.203
-22.779	28.480	1617.613	1338.570
-21.765	28.379	1616.550	1336.895
-20.750	28.367	1614.373	1334.960
-19.736	28.428	1613.413	1334.556
-18.721	28.416	1611.792	1333.075
-17.706	28.391	1610.746	1331.976
-16.692	28.442	1608.924	1330.784
-15.677	28.478	1607.319	1329.666
-14.663	28.483	1606.273	1328.781
-13.648	28.483	1605.085	1327.746
-12.633	28.466	1603.267	1326.070
-11.619	28.504	1601.470	1324.805
-10.604	28.436	1599.261	1322.431
-9.590	28.448	1598.968	1322.225
-8.575	28.515	1597.769	1321.664
-7.560	28.395	1596.765	1319.914
-6.546	28.396	1595.398	1318.743
-5.531	28.418	1594.459	1318.070
-4.517	28.359	1593.329	1316.661
-3.502	28.395	1592.344	1316.055
-2.487	28.479	1590.620	1315.177
-1.473	28.399	1579.050	1304.993
-0.458	25.958	1560.510	1272.412
0.556	20.861	1562.968	1243.997
1.571	18.642	1587.273	1247.120
2.586	18.241	1600.134	1254.178
3.600	16.543	1546.534	1200.018
4.615	9.112	1436.367	1065.303
5.629	1.729	1372.809	971.114
6.644	0.269	1364.864	956.152
7.659	0.160	1363.729	954.576
8.673	0.036	1362.954	953.167
9.688	0.045	1361.010	951.778
10.702	-0.020	1357.365	948.736
11.717	3.396	1363.215	974.365
12.731	11.549	1375.733	1035.066
13.746	16.771	1382.837	1073.495
14.761	17.104	1382.135	1074.963
15.775	16.269	1379.309	1067.393
16.790	15.141	1377.335	1058.645
17.804	14.420	1374.590	1051.894
18.819	14.103	1373.301	1048.815
19.834	13.761	1372.231	1045.752
20.848	13.607	1370.421	1043.308
21.863	13.288	1369.740	1040.689
22.877	13.138	1368.270	1038.539
23.892	13.074	1367.405	1037.390
24.907	13.025	1366.687	1036.445
25.921	13.154	1365.502	1036.261
26.936	13.157	1364.846	1035.690
27.950	13.206	1363.862	1035.163
28.965	13.192	1362.709	1034.108
29.980	13.294	1362.063	1034.162
30.994	13.273	1361.297	1033.357
32.009	13.318	1360.517	1032.958
33.023	13.282	1359.064	1031.539
34.038	13.285	1357.693	1030.421
35.053	13.346	1356.232	1029.601
36.067	13.317	1355.299	1028.626
37.082	13.236	1354.736	1027.605
38.096	13.329	1353.770	1027.354
39.111	13.264	1352.940	1026.229
40.126	13.259	1352.068	1025.448
41.140	13.126	1351.397	1024.027
42.155	13.077	1351.114	1023.413
43.169	13.112	1350.697	1023.226
44.184	13.064	1350.736	1022.870
45.199	13.065	1349.719	1022.012
46.213	13.036	1349.521	1021.594
47.228	13.222	1348.092	1021.569
48.242	13.193	1347.069	1020.527
49.257	13.317	1345.335	1019.884
50.271	13.205	1344.180	1018.230
51.286	13.218	1343.063	1017.373
52.301	13.253	1341.348	1016.198
53.315	13.123	1340.986	1015.038
54.330	13.151	1339.585	1014.062
55.344	13.198	1338.039	1013.085
56.359	13.143	1337.047	1011.911
57.374	13.036	1336.479	1010.733
58.388	13.044	1335.694	1010.102
59.403	13.085	1335.271	1009.943
60.417	13.086	1334.147	1009.009
61.432	12.990	1333.401	1007.770
62.447	13.100	1332.274	1007.498
63.461	13.048	1331.350	1006.392
64.476	12.979	1330.409	1005.174
65.490	13.073	1328.788	1004.430
66.505	13.038	1327.457	1003.124
67.520	13.025	1326.514	1002.242
68.534	13.064	1325.171	1001.378
69.549	13.145	1324.089	1000.962
70.563	13.089	1322.908	999.642
71.578	13.075	1321.758	998.601
72.593	12.947	1320.743	996.968
73.607	12.938	1320.137	996.369
74.622	12.975	1319.185	995.787
75.636	12.934	1318.816	995.171
76.651	12.943	1317.757	994.340
77.666	12.985	1317.640	994.418
78.680	12.959	1316.952	993.656
79.695	12.917	1315.930	992.540
80.709	12.979	1315.117	992.216
81.724	13.130	1314.330	992.442
82.739	13.042	1313.438	991.150
83.753	13.075	1312.361	990.445
84.768	13.259	1311.199	990.583
85.782	13.303	1310.043	989.890
86.797	13.234	1308.448	988.183
87.812	13.113	1307.629	986.754
88.826	13.237	1306.297	986.399
89.841	13.186	1305.146	985.142
90.855	13.223	1304.300	984.636
91.870	13.267	1303.581	984.265
92.884	13.225	1302.863	983.387
93.899	13.318	1302.040	983.234
94.914	13.361	1300.901	982.539
95.928	13.409	1300.143	982.165
96.943	13.246	1299.691	980.770
97.957	13.213	1298.656	979.708
98.972	13.264	1297.476	979.034
99.987	13.397	1296.356	978.887
101.001	13.277	1295.356	977.335
102.016	13.310	1293.725	976.215
103.030	13.275	1293.459	975.720
104.045	13.235	1292.657	974.796
105.060	13.303	1291.188	974.003
106.074	13.152	1289.930	972.078
107.089	13.187	1288.434	971.070
108.103	13.018	1287.457	969.256
109.118	13.047	1286.489	968.610
110.133	13.050	1284.835	967.295
111.147	13.019	1283.558	966.067
112.162	13.239	1282.361	966.370
113.176	13.184	1281.517	965.323
114.191	13.082	1280.364	963.775
115.206	13.152	1279.261	963.266
116.220	13.142	1277.810	962.035
117.235	13.192	1276.563	961.299
118.249	13.162	1275.634	960.343
119.264	13.096	1274.536	959.044
120.279	13.156	1273.294	958.378
121.293	13.050	1272.076	956.761
122.308	13.119	1271.152	956.378
123.322	13.060	1270.326	955.330
124.337	13.066	1269.169	954.412
125.352	13.086	1268.413	953.872
126.366	13.059	1266.969	952.545
127.381	13.061	1266.094	951.817
128.395	13.090	1265.041	951.110
129.410	13.112	1263.880	950.277
130.424	13.113	1263.219	949.706
131.439	13.130	1262.036	948.826
132.454	13.239	1261.061	948.634
133.468	13.168	1259.908	947.278
134.483	13.229	1259.785	947.452
135.497	13.128	1258.577	945.878
136.512	13.176	1257.130	944.983
137.527	13.190	1255.716	943.916
138.541	13.182	1254.308	942.728
139.556	13.155	1253.331	941.755
140.570	13.257	1252.469	941.606
141.585	13.346	1250.652	940.666
142.600	13.330	1249.886	939.917
143.614	13.415	1248.610	939.352
144.629	13.425	1247.649	938.604
145.643	13.400	1246.463	937.490
146.658	13.347	1245.378	936.290
147.673	13.332	1243.893	935.004
148.687	13.301	1242.748	933.887
149.702	13.331	1240.967	932.633
150.716	13.217	1240.506	931.564
151.731	13.246	1239.206	930.668
152.746	13.325	1237.920	930.066
153.760	13.341	1236.568	929.053
154.775	13.411	1235.419	928.505
155.789	13.403	1234.460	927.654
156.804	13.352	1233.749	926.756
157.819	13.438	1232.489	926.209
158.833	13.554	1231.422	925.973
159.848	13.512	1230.495	924.960
160.862	13.475	1229.707	924.074
161.877	13.491	1228.443	923.135
162.892	13.413	1227.407	921.841
163.906	13.361	1226.701	920.938
164.921	13.400	1225.782	920.383
165.935	13.431	1224.860	919.781
166.950	13.349	1224.546	919.012
167.964	13.600	1222.876	919.065
168.979	13.525	1222.321	918.155
169.994	13.438	1221.684	917.112
171.008	13.526	1220.914	916.942
172.023	13.592	1220.061	916.580
173.037	13.527	1219.233	915.520
174.052	13.583	1218.454	915.161
175.067	13.653	1217.383	914.666
176.081	13.517	1216.618	913.257
177.096	13.539	1215.501	912.458
178.110	13.487	1214.439	911.298
179.125	13.684	1213.038	911.248
180.140	13.530	1212.511	909.923
181.154	13.628	1210.995	909.244
182.169	13.645	1209.641	908.242
183.183	13.702	1208.608	907.696
184.198	13.780	1206.920	906.776
185.213	13.741	1205.817	905.653
186.227	13.689	1205.046	904.711
187.242	13.828	1204.020	904.620
188.256	13.737	1203.362	903.548
189.271	13.773	1202.340	902.895
190.286	13.737	1200.795	901.460
191.300	13.619	1199.779	899.977
192.315	13.493	1199.984	899.368
193.329	13.546	1199.021	898.854
194.344	13.707	1198.182	899.016
195.359	13.728	1197.586	898.606
196.373	13.886	1196.714	898.728
197.388	13.774	1197.025	898.271
198.402	13.916	1196.377	898.479
199.417	13.956	1195.159	897.698
200.432	13.981	1194.373	897.164
201.446	13.986	1193.576	896.511
202.461	14.045	1192.429	895.892
203.475	14.051	1191.449	895.108
204.490	13.966	1190.420	893.798
205.504	14.027	1188.822	892.845
206.519	14.035	1187.816	892.054
207.534	13.979	1186.671	890.817
208.548	14.018	1186.128	890.536
209.563	14.038	1185.202	889.870
210.577	14.049	1184.074	889.006
211.592	13.947	1183.660	888.069
212.607	14.119	1182.457	888.008
213.621	14.077	1181.827	887.233
214.636	14.089	1180.679	886.352
215.650	14.099	1179.406	885.372
216.665	14.098	1178.875	884.890
217.680	14.240	1178.328	885.156
218.694	14.225	1177.322	884.242
219.709	14.139	1176.433	883.042
220.723	14.329	1175.599	883.344
221.738	14.163	1175.034	881.961
222.753	14.194	1174.255	881.465
223.767	14.242	1173.679	881.208
224.782	14.319	1173.073	881.083
225.796	14.296	1172.652	880.566
226.811	14.407	1171.455	880.175
227.826	14.446	1170.789	879.805
228.840	14.278	1170.501	878.624
229.855	14.324	1169.587	878.099
230.869	14.340	1168.865	877.568
231.884	14.296	1168.143	876.713
232.899	14.359	1166.971	876.090
233.913	14.220	1166.555	874.967
234.928	14.396	1165.548	875.059
235.942	14.312	1164.675	873.885
236.957	14.336	1164.254	873.617
237.972	14.357	1163.473	873.063
238.986	14.233	1163.071	872.035
240.001	14.318	1162.067	871.654
241.015	14.369	1161.090	871.110
242.030	14.344	1160.641	870.562
243.045	14.407	1159.813	870.196
244.059	14.441	1159.094	869.756
245.074	14.312	1158.461	868.528
246.088	14.533	1157.343	868.765
247.103	14.562	1156.316	868.071
248.117	14.566	1155.704	867.557
249.132	14.580	1155.253	867.213
250.147	14.698	1154.266	867.008
251.161	14.692	1153.404	866.254
252.176	14.672	1152.852	865.657
253.190	14.749	1152.215	865.504
254.205	14.942	1151.325	865.758
255.220	14.862	1150.784	864.859
256.234	14.810	1150.643	864.407
257.249	14.861	1149.640	863.840
258.263	14.866	1149.224	863.479
259.278	14.844	1148.744	862.928
260.293	14.861	1147.672	862.132
261.307	14.909	1147.439	862.126
262.322	14.912	1146.740	861.541
263.336	15.021	1145.519	861.110
264.351	14.977	1145.581	860.854
265.366	15.031	1145.116	860.704
266.380	14.976	1144.445	859.844
267.395	14.962	1143.281	858.821
268.409	14.923	1142.982	858.318
269.424	15.056	1141.853	858.076
270.439	14.936	1141.869	857.400
271.453	14.976	1140.763	856.697
272.468	14.938	1139.796	855.702
273.482	15.005	1138.691	855.139
274.497	15.106	1138.563	855.483
275.512	15.025	1138.063	854.619
276.526	14.932	1137.252	853.458
277.541	15.044	1136.155	853.130
278.555	15.044	1135.631	852.661
279.570	15.179	1134.951	852.760
280.585	15.195	1134.137	852.159
281.599	15.243	1132.915	851.408
282.614	15.249	1131.855	850.567
283.628	15.189	1131.042	849.577
284.643	15.123	1130.416	848.696
285.657	15.201	1129.148	848.065
286.672	15.204	1128.804	847.746
287.687	15.204	1127.428	846.636
288.701	15.231	1126.982	846.361
289.716	15.225	1126.066	845.570
290.730	15.354	1125.060	845.390
291.745	15.378	1124.907	845.322
292.760	15.318	1124.058	844.306
293.774	15.383	1123.477	844.120
294.789	15.426	1122.833	843.781
295.803	15.319	1122.619	843.007
296.818	15.443	1121.516	842.728
297.833	15.418	1120.459	841.729
298.847	15.334	1120.037	840.919
299.862	15.495	1118.901	840.797
300.876	15.457	1118.599	840.305
301.891	15.392	1118.126	839.551
302.906	15.506	1117.145	839.308
303.920	15.546	1116.357	838.847
304.935	15.539	1116.048	838.505
305.949	15.534	1115.816	838.227
306.964	15.568	1114.628	837.430
307.979	15.579	1113.712	836.725
308.993	15.576	1112.881	836.011
310.008	15.717	1112.204	836.128
311.022	15.775	1111.121	835.531
312.037	15.630	1110.514	834.281
313.052	15.492	1109.866	833.035
314.066	15.649	1108.660	832.835
315.081	15.586	1108.113	832.038
316.095	15.615	1107.345	831.529
317.110	15.707	1106.466	831.253
318.125	15.567	1106.237	830.315
319.139	15.609	1104.926	829.464
320.154	15.654	1104.590	829.360
321.168	15.649	1103.781	828.653
322.183	15.715	1103.154	828.438
323.197	15.762	1102.573	828.157
324.212	15.840	1101.738	827.842
325.227	15.732	1101.595	827.128
326.241	15.744	1101.223	826.837
327.256	15.855	1099.886	826.303
328.270	15.736	1099.085	825.047
329.285	15.815	1097.843	824.425
330.300	15.877	1097.073	824.079
331.314	15.731	1096.291	822.702
332.329	15.872	1095.685	822.867
333.343	15.837	1094.575	821.788
334.358	15.881	1093.917	821.435
335.373	15.814	1093.129	820.445
336.387	15.977	1092.397	820.620
337.402	15.973	1091.630	819.949
338.416	16.053	1091.018	819.806
339.431	16.066	1090.370	819.311
340.446	16.019	1090.199	818.880
341.460	16.028	1089.482	818.313
342.475	16.123	1088.484	817.952
343.489	16.098	1087.603	817.094
344.504	16.151	1086.595	816.525
345.519	16.196	1085.848	816.107
346.533	16.221	1085.110	815.599
347.548	16.193	1084.191	814.705
348.562	16.124	1083.775	813.986
349.577	16.202	1082.704	813.485
350.592	16.167	1081.816	812.576
351.606	16.015	1081.645	811.648
352.621	16.129	1081.054	811.678
353.635	16.070	1080.333	810.784
354.650	16.166	1079.593	810.615
355.665	16.107	1078.838	809.692
356.679	16.145	1078.162	809.299
357.694	16.274	1077.514	809.360
358.708	16.243	1076.976	808.735
359.723	16.411	1076.096	808.806
360.738	16.288	1075.706	807.854
361.752	16.297	1075.340	807.549
362.767	16.382	1074.687	807.396
363.781	16.377	1073.869	806.682
364.796	16.433	1073.194	806.370
365.810	16.384	1072.873	805.825
366.825	16.560	1071.894	805.858
367.840	16.541	1071.679	805.533
368.854	16.487	1071.242	804.878
369.869	16.615	1070.239	804.662
370.883	16.541	1069.405	803.613
371.898	16.586	1068.640	803.182
372.913	16.503	1068.079	802.294
373.927	16.532	1067.689	802.068
374.942	16.525	1067.212	801.603
375.956	16.534	1066.481	801.027
376.971	16.594	1065.959	800.848
377.986	16.567	1065.673	800.433
379.000	16.794	1064.945	800.892
380.015	16.671	1064.496	799.899
381.029	16.697	1064.189	799.722
382.044	16.747	1062.855	798.885
383.059	16.746	1062.230	798.340
384.073	16.903	1061.025	798.101
385.088	16.856	1060.128	797.134
386.102	16.700	1059.590	795.929
387.117	16.796	1058.446	795.450
388.132	16.585	1058.079	794.112
389.146	16.663	1057.298	793.821
390.161	16.579	1056.660	792.877
391.175	16.766	1055.675	792.943
392.190	16.807	1054.648	792.295
393.205	16.840	1054.451	792.232
394.219	16.822	1053.285	791.200
395.234	16.875	1052.569	790.840
396.248	16.842	1051.752	790.001
397.263	16.875	1050.575	789.200
398.278	16.814	1050.045	788.449
399.292	16.821	1049.556	788.045
400.307	16.797	1048.924	787.390
401.321	16.926	1047.963	787.199
402.336	16.744	1047.783	786.149
403.350	16.969	1046.438	786.114
404.365	16.936	1045.667	785.311
405.380	16.875	1045.475	784.815
406.394	16.903	1044.461	784.116
407.409	16.949	1043.950	783.872
408.423	16.939	1043.487	783.409
409.438	17.084	1042.568	783.318
410.453	17.075	1042.258	782.976
411.467	17.090	1041.395	782.326
412.482	17.106	1040.624	781.754
413.496	17.215	1039.606	781.421
414.511	17.286	1039.337	781.477
415.526	17.335	1038.891	781.295
416.540	17.339	1038.597	781.026
417.555	17.288	1037.866	780.170
418.569	17.213	1037.503	779.486
419.584	17.354	1036.890	779.602
420.599	17.429	1036.356	779.475
421.613	104.299	1323.063	1474.090
422.628	95.626	1364.811	1474.179
