DTS Sentinel unit serial number:	SN413079Multiplexer serial number:	ORYXHardware model number:	OX4-SRSoftware version number:	ORYX F/W v4.00 Oryx Data Collector v3.7.2.0data status	okinstallation	princeton_trtdifferential loss correction	single-endedforward channel	channel 2reverse channel	N/Adate	2019/09/17time	07:15:35forward acquisition time	60.00reverse acquisition time	0.00gamma	496.2192k internal	0.2335k external	0.2335temperature offset calibration	0.9975default loss term (dB/km)	0.3790temperature slope calibration	1.0000multiplexer offset coefficient	1.0000multiplexer slope coefficient	1.0000fibre end	0.00T internal ref (°C)	27.31T ext. ref 1 (°C)	0.11T ext. ref 2 (°C)	21.30length (m)	temperature (°C)	Stokes	anti-Stokes-747.200	50.286	0.172	0.163
-746.185	800.000	-0.065	0.186
-745.171	-44.746	0.343	0.172
-744.156	67.523	0.195	0.200
-743.142	180.449	0.256	0.378
-742.127	-75.345	0.200	0.072
-741.112	-200.000	0.046	0.257
-740.098	-200.000	0.017	0.134
-739.083	-130.041	0.114	-0.016
-738.069	-200.000	0.024	0.271
-737.054	68.337	0.205	-0.211
-736.039	-143.812	-0.108	0.010
-735.025	-25.260	-0.099	-0.059
-734.010	-149.757	-0.212	0.017
-732.996	56.891	-0.101	0.099
-731.981	15.185	-0.205	0.162
-730.966	-96.706	-0.456	-0.121
-729.952	-143.813	0.321	-0.030
-728.937	19.149	0.113	0.091
-727.923	-37.120	0.100	-0.054
-726.908	-41.052	0.036	-0.019
-725.894	-200.000	0.049	-0.261
-724.879	-70.210	-0.128	0.049
-723.864	-56.773	-0.109	0.049
-722.850	-200.000	-0.069	-0.342
-721.835	-7.143	-0.174	0.119
-720.821	-19.612	0.093	-0.058
-719.806	784.971	-0.122	-0.336
-718.791	-8.995	0.187	-0.125
-717.777	87.888	0.230	0.256
-716.762	-122.548	-0.016	-0.003
-715.748	-129.183	0.234	0.033
-714.733	330.023	0.077	-0.149
-713.718	-34.694	0.202	0.111
-712.704	147.165	-0.312	0.421
-711.689	-185.998	-0.319	0.005
-710.675	-200.000	-0.062	0.354
-709.660	349.913	0.117	0.231
-708.645	-200.000	0.003	0.350
-707.631	800.000	0.040	-0.123
-706.616	199.426	-0.065	0.100
-705.602	13.368	-0.110	-0.085
-704.587	-200.000	-0.009	-0.098
-703.572	30.125	-0.110	0.094
-702.558	-121.150	-0.182	-0.031
-701.543	276.687	0.236	0.422
-700.529	-58.083	-0.328	-0.144
-699.514	-43.974	0.238	-0.120
-698.499	215.057	-0.167	0.265
-697.485	-128.680	0.030	0.004
-696.470	523.204	0.146	0.343
-695.456	-200.000	0.001	0.088
-694.441	197.413	0.156	0.238
-693.426	35.429	-0.165	-0.145
-692.412	-127.890	-0.121	-0.017
-691.397	-163.127	0.246	-0.012
-690.383	-144.731	0.150	0.014
-689.368	5.427	0.091	0.067
-688.354	75.970	0.048	-0.051
-687.339	60.252	-0.098	0.098
-686.324	-56.771	-0.120	0.053
-685.310	484.787	-0.142	0.324
-684.295	166.893	0.089	0.127
-683.281	-200.000	0.037	-0.272
-682.266	259.398	-0.049	-0.085
-681.251	-131.606	0.240	0.032
-680.237	69.180	-0.118	0.121
-679.222	-28.961	-0.141	-0.081
-678.208	92.357	0.255	-0.289
-677.193	-155.940	-0.121	0.008
-676.178	363.044	-0.064	-0.128
-675.164	-85.499	0.232	0.072
-674.149	798.450	-0.073	0.202
-673.135	-2.061	-0.296	0.209
-672.120	38.621	-0.110	0.098
-671.105	-84.001	0.057	0.018
-670.091	800.000	-0.116	-0.363
-669.076	159.372	0.118	0.165
-668.062	-200.000	-0.036	-0.313
-667.047	130.311	0.136	0.175
-666.032	255.963	0.089	-0.152
-665.018	205.188	0.066	-0.102
-664.003	-14.919	0.094	0.060
-662.989	532.451	-0.047	-0.111
-661.974	80.446	-0.223	0.241
-660.959	-144.994	-0.393	0.036
-659.945	-11.406	0.091	0.060
-658.930	-73.308	0.181	0.066
-657.916	207.339	-0.174	-0.272
-656.901	-91.575	-0.159	-0.045
-655.886	-200.000	0.003	0.074
-654.872	99.567	0.088	-0.102
-653.857	-162.052	-0.337	-0.017
-652.843	289.916	0.150	0.272
-651.828	-132.508	-0.259	-0.033
-650.814	-50.107	0.215	0.102
-649.799	-32.845	0.466	-0.259
-648.784	22.382	0.140	0.115
-647.770	-94.515	0.365	-0.099
-646.755	-43.298	-0.358	-0.181
-645.741	84.917	0.164	-0.180
-644.726	-200.000	-0.014	0.608
-643.711	71.563	0.223	-0.232
-642.697	-200.000	-0.031	-0.259
-641.682	5.992	0.189	-0.140
-640.668	396.342	0.049	0.102
-639.653	27.466	-0.217	0.182
-638.638	57.259	0.149	-0.146
-637.624	800.000	-0.042	-0.170
-636.609	-116.516	0.288	0.053
-635.595	191.264	0.118	0.178
-634.580	-33.781	-0.213	0.118
-633.565	646.909	-0.099	-0.252
-632.551	-200.000	-0.006	0.080
-631.536	19.751	0.118	-0.095
-630.522	-17.102	-0.142	-0.090
-629.507	800.000	0.016	0.058
-628.492	-200.000	-0.009	-0.186
-627.478	800.000	-0.034	0.138
-626.463	-200.000	-0.005	-0.029
-625.449	800.000	0.033	-0.120
-624.434	-200.000	0.014	0.093
-623.419	26.451	0.215	0.180
-622.405	223.573	0.022	-0.036
-621.390	800.000	-0.020	0.085
-620.376	-143.560	-0.126	-0.012
-619.361	-81.121	-0.366	0.121
-618.346	62.816	0.071	0.071
-617.332	-100.891	-0.505	-0.124
-616.317	20.617	0.241	0.195
-615.303	-103.740	-0.223	-0.052
-614.288	-114.837	-0.317	-0.060
-613.273	800.000	0.031	-0.135
-612.259	3.816	0.248	0.181
-611.244	-139.841	0.188	0.020
-610.230	-80.479	-0.093	-0.031
-609.215	-200.000	-0.011	-0.214
-608.201	-140.923	-0.050	0.005
-607.186	561.153	0.074	0.178
-606.171	-200.000	0.020	0.183
-605.157	-118.101	0.379	-0.068
-604.142	-34.622	0.041	0.023
-603.128	-108.654	-0.126	-0.027
-602.113	159.568	-0.251	-0.349
-601.098	280.729	-0.094	-0.169
-600.084	-200.000	-0.027	-0.256
-599.069	2.896	0.057	0.041
-598.055	800.000	0.119	0.356
-597.040	223.576	0.147	0.236
-596.025	-51.663	-0.186	0.087
-595.011	-134.065	0.165	-0.020
-593.996	419.224	-0.069	0.148
-592.982	198.265	-0.139	0.212
-591.967	514.621	0.028	0.066
-590.952	800.000	-0.013	-0.040
-589.938	-200.000	-0.041	0.301
-588.923	-76.867	0.230	0.080
-587.909	-200.000	0.033	0.221
-586.894	-89.512	0.084	0.025
-585.879	-20.014	0.207	0.128
-584.865	-56.684	-0.066	0.029
-583.850	-129.502	-0.113	-0.016
-582.836	-104.690	-0.238	0.055
-581.821	502.538	0.027	0.063
-580.806	-48.646	0.151	0.073
-579.792	-200.000	0.035	-0.170
-578.777	-132.393	-0.079	0.010
-577.763	531.672	0.047	0.112
-576.748	-6.382	-0.326	-0.222
-575.733	-187.725	-0.137	-0.002
-574.719	-200.000	0.057	0.358
-573.704	800.000	-0.043	0.123
-572.690	-28.882	-0.418	-0.240
-571.675	153.809	0.064	-0.087
-570.661	-3.574	0.298	0.207
-569.646	-69.540	0.138	-0.053
-568.631	-200.000	0.018	-0.194
-567.617	33.270	0.019	-0.017
-566.602	3.406	0.065	0.047
-565.588	800.000	-0.124	-0.376
-564.573	117.061	0.048	-0.059
-563.558	3.855	-0.063	0.046
-562.544	-200.000	0.009	-0.299
-561.529	-31.833	0.033	0.018
-560.515	393.119	0.070	-0.145
-559.500	-200.000	0.006	-0.120
-558.485	419.669	-0.076	-0.162
-557.471	-200.000	0.011	-0.220
-556.456	109.523	-0.127	-0.151
-555.442	14.123	-0.150	-0.116
-554.427	-72.886	-0.170	-0.062
-553.412	-200.000	-0.034	0.171
-552.398	78.032	-0.092	0.097
-551.383	436.934	-0.073	-0.160
-550.369	-200.000	0.051	-0.322
-549.354	-46.721	-0.070	-0.034
-548.339	-67.942	0.199	-0.077
-547.325	-127.565	-0.045	-0.007
-546.310	-5.728	-0.153	0.105
-545.296	-79.366	0.329	-0.111
-544.281	29.904	-0.153	0.130
-543.266	-74.147	0.066	0.024
-542.252	-200.000	-0.042	-0.351
-541.237	-113.038	0.329	-0.065
-540.223	-67.727	-0.213	0.083
-539.208	8.585	-0.197	-0.148
-538.193	-200.000	-0.024	-0.383
-537.179	-57.466	-0.339	-0.148
-536.164	-89.297	-0.149	0.044
-535.150	-182.797	0.150	-0.003
-534.135	-47.216	0.346	-0.168
-533.121	-52.044	-0.208	-0.096
-532.106	-90.093	-0.077	0.022
-531.091	745.181	0.095	-0.255
-530.077	54.896	-0.088	0.085
-529.062	425.451	0.131	-0.281
-528.048	-75.731	-0.108	0.038
-527.033	-200.000	-0.013	-0.104
-526.018	-30.564	0.174	-0.098
-525.004	800.000	-0.071	-0.287
-523.989	299.681	-0.081	-0.148
-522.975	-69.577	-0.183	-0.070
-521.960	800.000	-0.083	0.255
-520.945	348.770	0.083	0.164
-519.931	-116.265	0.143	-0.026
-518.916	-74.813	0.114	0.041
-517.902	-50.345	0.105	-0.050
-516.887	67.452	-0.183	0.186
-515.872	581.195	-0.134	0.328
-514.858	-51.279	-0.367	0.171
-513.843	700.276	0.062	0.164
-512.829	-23.265	-0.178	-0.107
-511.814	-200.000	-0.004	0.229
-510.799	-109.741	-0.301	-0.063
-509.785	-97.539	0.214	-0.055
-508.770	254.748	0.149	0.254
-507.756	-200.000	0.010	0.377
-506.741	6.046	0.142	-0.105
-505.726	-200.000	0.014	0.094
-504.712	-200.000	-0.013	0.081
-503.697	-200.000	-0.031	0.378
-502.683	-200.000	-0.065	0.368
-501.668	225.536	-0.162	0.261
-500.653	-40.633	-0.092	-0.047
-499.639	43.410	0.142	-0.129
-498.624	-79.196	0.421	-0.142
-497.610	77.413	0.261	0.276
-496.595	30.471	-0.173	0.147
-495.581	-109.812	-0.115	0.024
-494.566	-0.321	0.366	-0.259
-493.551	-76.430	-0.286	0.100
-492.537	361.806	0.118	0.235
-491.522	800.000	0.043	-0.136
-490.508	-42.305	0.117	-0.059
-489.493	-200.000	-0.034	-0.426
-488.478	242.178	-0.065	-0.108
-487.464	60.646	-0.131	0.129
-486.449	-40.067	0.382	-0.198
-485.435	-200.000	-0.014	-0.136
-484.420	-200.000	0.042	-0.206
-483.405	-148.967	-0.430	-0.034
-482.391	-5.396	-0.105	0.072
-481.376	-144.449	0.265	-0.024
-480.362	6.310	-0.026	-0.019
-479.347	46.154	-0.219	-0.202
-478.332	333.125	-0.165	-0.316
-477.318	800.000	0.073	0.300
-476.303	800.000	-0.051	0.147
-475.289	-200.000	0.007	0.035
-474.274	84.698	-0.098	0.106
-473.259	-101.323	0.148	0.036
-472.245	-103.526	-0.129	0.030
-471.230	800.000	0.068	-0.190
-470.216	403.591	0.037	-0.077
-469.201	-82.085	0.196	-0.064
-468.186	-35.331	-0.051	-0.028
-467.172	800.000	-0.045	0.137
-466.157	-95.949	0.296	0.078
-465.143	634.581	-0.053	-0.135
-464.128	-200.000	0.025	0.223
-463.113	-200.000	-0.038	-0.472
-462.099	110.464	-0.084	0.101
-461.084	-146.825	0.098	0.008
-460.070	800.000	-0.039	0.116
-459.055	43.313	-0.248	-0.225
-458.040	246.164	-0.156	0.261
-457.026	189.847	0.111	-0.165
-456.011	-200.000	-0.009	-0.195
-454.997	-45.632	-0.299	-0.147
-453.982	48.333	0.084	0.078
-452.968	116.944	-0.144	-0.176
-451.953	12.496	-0.166	-0.127
-450.938	-25.308	0.178	-0.104
-449.924	-200.000	-0.002	0.152
-448.909	-200.000	-0.004	0.032
-447.895	182.184	0.238	-0.348
-446.880	141.796	-0.110	-0.145
-445.865	398.503	0.028	-0.058
-444.851	212.173	-0.167	-0.261
-443.836	-200.000	0.001	-0.207
-442.822	41.886	0.136	-0.123
-441.807	-200.000	-0.002	0.316
-440.792	95.261	0.184	0.209
-439.778	-112.309	-0.252	0.050
-438.763	205.587	0.115	0.177
-437.749	-200.000	0.063	-0.339
-436.734	463.229	-0.142	-0.315
-435.719	-200.000	0.040	0.255
-434.705	-32.968	-0.109	-0.060
-433.690	-102.753	-0.317	-0.075
-432.676	800.000	0.080	-0.240
-431.661	-34.428	-0.185	-0.101
-430.646	-72.594	-0.328	-0.120
-429.632	-200.000	0.009	-0.115
-428.617	596.201	-0.062	-0.153
-427.603	-200.000	-0.061	-0.268
-426.588	800.000	-0.018	0.058
-425.573	800.000	-0.047	0.155
-424.559	800.000	0.037	0.125
-423.544	800.000	-0.027	0.087
-422.530	654.832	-0.070	-0.177
-421.515	11.453	0.269	-0.205
-420.500	-154.412	0.119	0.008
-419.486	-200.000	0.056	-0.408
-418.471	-200.000	0.031	-0.138
-417.457	-60.659	0.438	-0.184
-416.442	474.776	0.052	0.116
-415.428	146.235	0.105	0.140
-414.413	222.412	0.162	-0.258
-413.398	-47.612	0.194	-0.093
-412.384	293.929	0.112	0.202
-411.369	-200.000	0.034	-0.249
-410.355	-111.259	0.381	0.077
-409.340	800.000	-0.004	-0.014
-408.325	800.000	-0.046	0.171
-407.311	-200.000	-0.012	-0.102
-406.296	-30.642	-0.306	0.172
-405.282	-107.291	0.280	-0.061
-404.267	308.093	-0.040	0.074
-403.252	-34.534	0.201	-0.109
-402.238	-26.012	0.157	-0.091
-401.223	39.263	0.403	0.357
-400.209	-200.000	-0.080	-0.395
-399.194	-191.556	-0.092	-0.001
-398.179	800.000	0.037	0.160
-397.165	494.043	-0.034	0.076
-396.150	-200.000	0.003	0.200
-395.136	7.980	-0.082	0.061
-394.121	19.792	0.254	-0.203
-393.106	-200.000	0.003	0.052
-392.092	800.000	0.072	-0.262
-391.077	178.907	-0.049	-0.071
-390.063	20.830	0.092	-0.074
-389.048	800.000	0.117	-0.362
-388.033	800.000	0.083	0.269
-387.019	316.297	-0.088	0.165
-386.004	-40.236	-0.218	-0.112
-384.990	800.000	-0.084	0.295
-383.975	490.735	0.044	0.100
-382.960	-94.219	-0.439	-0.119
-381.946	276.384	0.032	-0.057
-380.931	692.878	-0.026	-0.067
-379.917	-124.852	-0.154	0.023
-378.902	800.000	0.050	0.182
-377.888	49.831	0.071	0.066
-376.873	178.430	0.153	0.221
-375.858	418.766	-0.017	0.036
-374.844	800.000	0.106	0.367
-373.829	-58.778	0.399	0.171
-372.815	-162.176	0.346	0.017
-371.800	292.818	-0.052	-0.094
-370.785	-100.339	-0.307	0.075
-369.771	800.000	-0.063	-0.235
-368.756	-56.353	0.375	0.165
-367.742	21.455	-0.518	0.417
-366.727	-200.000	0.075	-0.339
-365.712	5.823	-0.124	0.091
-364.698	65.890	0.018	-0.018
-363.683	-200.000	0.005	0.201
-362.669	650.417	-0.057	-0.144
-361.654	-200.000	0.123	0.569
-360.639	608.020	0.065	0.162
-359.625	-200.000	0.013	0.104
-358.610	-200.000	0.003	0.157
-357.596	-45.612	-0.359	0.176
-356.581	-153.370	-0.269	-0.019
-355.566	437.127	0.066	-0.142
-354.552	800.000	0.152	-0.450
-353.537	-109.883	0.196	-0.041
-352.523	58.033	-0.387	0.375
-351.508	800.000	-0.088	0.357
-350.493	134.659	-0.106	-0.137
-349.479	82.850	0.242	-0.260
-348.464	-27.569	0.218	-0.125
-347.450	146.843	-0.151	0.201
-346.435	-74.750	-0.197	-0.070
-345.420	51.137	0.346	0.325
-344.406	-158.928	-0.500	0.028
-343.391	209.513	-0.040	-0.062
-342.377	14.023	0.201	0.155
-341.362	165.797	0.197	-0.276
-340.348	84.533	0.125	0.135
-339.333	35.457	0.206	-0.179
-338.318	-144.863	0.082	-0.007
-337.304	83.371	-0.229	0.247
-336.289	-49.538	-0.466	-0.220
-335.275	-77.574	-0.286	0.098
-334.260	-128.895	0.058	-0.008
-333.245	404.084	-0.145	-0.302
-332.231	-14.420	-0.028	-0.018
-331.216	800.000	-0.093	-0.349
-330.202	-200.000	0.004	-0.050
-329.187	86.114	0.032	0.035
-328.172	-23.145	-0.163	-0.097
-327.158	230.734	0.087	-0.142
-326.143	281.527	0.111	-0.197
-325.129	800.000	-0.078	0.276
-324.114	-127.088	-0.262	-0.038
-323.099	-8.073	-0.018	-0.012
-322.085	19.362	-0.273	0.217
-321.070	-160.699	-0.197	-0.010
-320.056	485.794	-0.132	0.298
-319.041	800.000	0.106	0.378
-318.026	49.800	0.261	-0.243
-317.012	-5.308	0.320	0.218
-315.997	129.259	-0.111	0.140
-314.983	-105.990	-0.606	-0.135
-313.968	-200.000	0.001	0.127
-312.953	46.835	-0.229	-0.210
-311.939	61.405	-0.188	0.185
-310.924	-200.000	-0.032	0.209
-309.910	-71.764	0.323	-0.119
-308.895	252.897	0.165	0.278
-307.880	-200.000	0.041	0.307
-306.866	-200.000	-0.015	-0.177
-305.851	-90.028	0.306	0.088
-304.837	14.561	-0.314	0.242
-303.822	401.356	0.110	0.227
-302.807	-58.853	-0.171	0.073
-301.793	596.041	0.116	-0.284
-300.778	-34.602	-0.238	-0.129
-299.764	-124.723	-0.247	0.038
-298.749	-42.586	-0.173	0.087
-297.735	59.426	0.082	0.080
-296.720	-112.993	0.261	-0.051
-295.705	16.548	-0.154	-0.120
-294.691	-200.000	-0.043	-0.376
-293.676	-200.000	-0.046	-0.336
-292.662	305.064	-0.031	-0.056
-291.647	-200.000	0.003	-0.214
-290.632	223.931	0.264	-0.420
-289.618	4.002	0.326	0.235
-288.603	144.272	0.040	0.053
-287.589	-200.000	-0.013	0.106
-286.574	106.404	0.262	0.307
-285.559	4.249	-0.274	-0.198
-284.545	-60.598	0.184	-0.077
-283.530	240.000	-0.154	-0.254
-282.516	-200.000	0.014	-0.089
-281.501	-163.148	-0.090	0.004
-280.486	323.806	-0.083	0.157
-279.472	-98.419	0.153	-0.039
-278.457	-81.822	0.069	-0.022
-277.443	-58.335	-0.221	0.095
-276.428	-48.789	0.408	0.193
-275.413	53.986	-0.203	0.192
-274.399	-105.922	0.280	0.062
-273.384	445.837	-0.149	-0.323
-272.370	-55.743	-0.167	-0.074
-271.355	-200.000	0.003	-0.389
-270.340	-65.319	-0.187	0.074
-269.326	-200.000	-0.006	-0.058
-268.311	127.309	-0.328	-0.410
-267.297	-200.000	-0.033	-0.158
-266.282	130.477	-0.167	0.211
-265.267	800.000	0.135	0.524
-264.253	214.525	0.172	0.268
-263.238	-200.000	-0.006	-0.196
-262.224	-118.475	-0.141	-0.025
-261.209	10.573	-0.318	-0.239
-260.195	-32.950	0.240	0.132
-259.180	683.974	0.059	0.151
-258.165	-200.000	0.018	0.216
-257.151	94.061	-0.141	0.158
-256.136	-200.000	0.038	0.352
-255.122	128.621	0.060	0.076
-254.107	269.233	0.094	0.163
-253.092	129.721	0.130	-0.164
-252.078	-49.300	-0.141	-0.066
-251.063	-58.678	-0.321	0.137
-250.049	-47.942	0.277	0.132
-249.034	691.700	0.027	0.071
-248.019	800.000	0.030	0.110
-247.005	174.930	-0.154	0.220
-245.990	378.587	-0.050	-0.101
-244.976	-127.839	0.113	0.016
-243.961	266.491	0.108	0.187
-242.946	-146.135	-0.128	0.011
-241.932	374.987	-0.103	0.207
-240.917	-200.000	0.011	0.383
-239.903	203.067	-0.323	-0.491
-238.888	-200.000	0.001	0.093
-237.873	-146.031	-0.178	0.015
-236.859	-125.242	0.233	-0.035
-235.844	250.679	0.153	0.257
-234.830	-88.707	-0.436	0.128
-233.815	423.938	0.143	0.302
-232.800	-200.000	-0.001	-0.101
-231.786	220.975	0.169	0.268
-230.771	-70.960	-0.143	0.053
-229.757	17.340	0.159	0.124
-228.742	44.422	-0.165	0.149
-227.727	395.609	0.094	-0.193
-226.713	-41.940	-0.098	-0.049
-225.698	-71.297	0.157	0.058
-224.684	-177.342	-0.208	-0.005
-223.669	16.316	0.196	0.152
-222.655	-200.000	0.025	0.374
-221.640	134.604	-0.265	0.339
-220.625	39.113	-0.122	-0.107
-219.611	90.604	-0.189	-0.208
-218.596	110.467	-0.142	0.168
-217.582	-200.000	-0.009	-0.079
-216.567	-38.388	0.120	0.063
-215.552	-200.000	0.047	0.370
-214.538	-29.456	-0.058	-0.032
-213.523	-27.206	-0.039	0.022
-212.509	800.000	0.067	0.260
-211.494	-126.067	0.075	-0.011
-210.479	70.087	-0.267	0.272
-209.465	23.747	-0.140	0.113
-208.450	24.914	0.233	0.190
-207.436	-200.000	0.014	-0.289
-206.421	-119.059	0.474	-0.082
-205.406	639.273	-0.062	-0.155
-204.392	471.797	0.045	-0.101
-203.377	-200.000	0.035	0.176
-202.363	449.535	0.182	-0.395
-201.348	-163.379	-0.242	-0.011
-200.333	104.057	0.073	-0.085
-199.319	-81.601	0.254	-0.082
-198.304	-26.601	0.166	-0.095
-197.290	-31.494	-0.135	-0.075
-196.275	800.000	0.067	-0.234
-195.260	-47.065	0.049	0.023
-194.246	-200.000	-0.029	-0.246
-193.231	23.294	-0.141	-0.114
-192.217	22.752	0.103	-0.083
-191.202	-72.647	0.089	-0.032
-190.187	-200.000	-0.021	0.246
-189.173	121.203	0.166	-0.203
-188.158	63.802	-0.039	-0.039
-187.144	-200.000	0.007	0.120
-186.129	207.348	0.038	-0.058
-185.114	-40.256	0.187	-0.096
-184.100	-63.016	0.174	0.071
-183.085	77.697	0.216	-0.226
-182.071	18.114	0.215	-0.168
-181.056	-200.000	-0.021	0.157
-180.042	-200.000	0.025	-0.247
-179.027	800.000	-0.071	-0.290
-178.012	-121.558	-0.240	-0.039
-176.998	268.258	0.163	-0.281
-175.983	-120.184	-0.242	0.041
-174.969	-143.818	-0.162	0.015
-173.954	-14.588	0.246	0.156
-172.939	-62.205	-0.148	-0.060
-171.925	-72.536	0.172	0.062
-170.910	-55.021	0.339	0.150
-169.896	9.928	-0.233	0.173
-168.881	-58.034	-0.273	0.117
-167.866	-96.704	0.574	0.148
-166.852	227.688	0.052	0.083
-165.837	63.456	0.201	-0.198
-164.823	95.665	-0.348	-0.390
-163.808	91.058	0.172	-0.190
-162.793	183.405	0.153	0.223
-161.779	227.819	-0.096	0.154
-160.764	277.929	0.119	0.208
-159.750	90.937	0.273	0.300
-158.735	-200.000	-0.004	-0.066
-157.720	53.899	0.078	-0.073
-156.706	-118.961	-0.099	0.017
-155.691	-86.725	0.048	-0.015
-154.677	359.888	-0.036	0.071
-153.662	528.646	0.013	-0.030
-152.647	570.033	0.018	-0.043
-151.633	-3.765	0.343	0.234
-150.618	524.017	0.240	0.554
-149.604	-84.012	-0.195	-0.061
-148.589	37.309	-0.186	-0.162
-147.574	-90.792	0.121	-0.034
-146.560	800.000	0.048	-0.168
-145.545	659.436	-0.069	-0.175
-144.531	-167.138	-0.132	-0.005
-143.516	43.750	-0.245	0.220
-142.502	193.471	-0.114	0.169
-141.487	-111.203	-0.253	0.051
-140.472	197.441	0.109	-0.163
-139.458	-68.137	-0.065	-0.025
-138.443	106.319	-0.271	-0.315
-137.429	800.000	-0.057	0.209
-136.414	-34.281	0.360	-0.194
-135.399	-159.515	-0.256	-0.014
-134.385	9.352	-0.050	0.037
-133.370	-200.000	-0.050	-0.427
-132.356	24.885	-0.127	0.103
-131.341	800.000	0.091	-0.262
-130.326	153.217	-0.149	0.200
-129.312	800.000	-0.107	-0.349
-128.297	-71.928	-0.145	-0.053
-127.283	547.853	0.088	-0.206
-126.268	6.488	-0.106	-0.077
-125.253	-200.000	0.005	0.167
-124.239	5.703	-0.317	0.230
-123.224	800.000	0.053	0.191
-122.210	-60.186	0.438	0.183
-121.195	-200.000	-0.009	0.207
-120.180	-200.000	-0.024	0.317
-119.166	15.740	-0.176	0.136
-118.151	-48.476	0.180	0.085
-117.137	32.704	-0.177	0.150
-116.122	15.512	0.101	0.078
-115.107	422.327	0.086	-0.181
-114.093	-122.691	0.270	-0.043
-113.078	352.687	0.122	-0.237
-112.064	-200.000	0.291	-0.001
-111.049	145.814	0.075	0.098
-110.034	475.383	0.082	0.181
-109.020	250.554	-0.197	0.327
-108.005	-78.042	-0.083	0.028
-106.991	216.576	0.128	0.199
-105.976	-31.115	-0.312	0.172
-104.962	-166.076	0.129	-0.005
-103.947	-200.000	-0.049	-0.241
-102.932	-59.828	-0.491	-0.206
-101.918	35.758	-0.316	-0.272
-100.903	20.960	0.035	0.027
-99.889	-78.727	0.094	0.031
-98.874	800.000	-0.045	-0.144
-97.859	35.990	0.291	0.251
-96.845	-200.000	-0.000	0.232
-95.830	756.323	0.056	0.148
-94.816	115.816	-0.046	-0.055
-93.801	-200.000	0.057	0.259
-92.786	-40.510	0.083	-0.042
-91.772	-123.902	-0.179	0.028
-90.757	-200.000	0.031	-0.304
-89.743	-12.840	0.165	-0.105
-88.728	251.975	-0.098	-0.163
-87.713	285.334	0.031	0.055
-86.699	800.000	0.054	-0.181
-85.684	-136.090	0.221	0.025
-84.670	-142.963	-0.330	-0.031
-83.655	379.956	0.076	-0.153
-82.640	122.694	-0.257	0.315
-81.626	-6.801	0.314	-0.209
-80.611	-0.601	-0.141	-0.098
-79.597	129.836	0.126	0.158
-78.582	-62.713	0.208	0.084
-77.567	-137.482	0.196	-0.022
-76.553	223.388	0.063	-0.100
-75.538	26.362	0.161	0.132
-74.524	367.333	0.129	0.255
-73.509	-200.000	0.011	0.436
-72.494	113.755	0.033	0.039
-71.480	-200.000	-0.058	-0.385
-70.465	-25.958	0.165	-0.095
-69.451	800.000	0.058	0.182
-68.436	-200.000	0.072	0.312
-67.422	800.000	-0.067	0.199
-66.407	-200.000	0.005	0.090
-65.392	800.000	0.047	-0.160
-64.378	-200.000	-0.049	0.225
-63.363	-200.000	-0.013	-0.184
-62.349	800.000	0.084	0.247
-61.334	43.886	-1.012	-0.907
-60.319	168.254	0.507	0.706
-59.305	-200.000	-0.232	-1.122
-58.290	151.497	0.716	0.954
-57.276	800.000	0.583	1.763
-56.261	-200.000	114.881	645.840
-55.246	471.035	1508.043	3317.932
-54.232	147.093	2679.577	3525.960
-53.217	96.396	2284.792	2556.758
-52.203	36.335	1896.552	1635.371
-51.188	30.379	1688.293	1410.650
-50.173	27.956	1646.691	1357.852
-49.159	49.655	1701.009	1566.894
-48.144	48.164	1715.671	1569.108
-47.130	30.041	1674.917	1396.705
-46.115	27.394	1660.327	1364.666
-45.100	27.238	1655.550	1359.521
-44.086	27.178	1652.405	1356.439
-43.071	27.241	1649.572	1354.524
-42.057	27.143	1647.474	1352.022
-41.042	27.099	1646.056	1350.480
-40.027	27.195	1643.800	1349.283
-39.013	27.231	1641.962	1347.993
-37.998	27.168	1640.347	1346.144
-36.984	27.230	1638.816	1345.295
-35.969	27.272	1637.515	1344.486
-34.954	27.276	1635.417	1342.734
-33.940	27.286	1634.091	1341.669
-32.925	27.378	1632.225	1340.762
-31.911	27.257	1630.697	1338.561
-30.896	27.212	1629.470	1337.170
-29.881	27.262	1627.218	1335.638
-28.867	27.320	1625.391	1334.506
-27.852	27.297	1624.512	1333.569
-26.838	27.284	1622.350	1331.644
-25.823	27.375	1621.224	1331.334
-24.809	27.340	1620.454	1330.387
-23.794	27.267	1619.441	1328.976
-22.779	27.252	1617.480	1327.200
-21.765	27.421	1615.078	1326.407
-20.750	27.287	1614.092	1324.571
-19.736	27.318	1612.364	1323.323
-18.721	27.311	1611.719	1322.693
-17.706	27.306	1610.011	1321.203
-16.692	27.383	1608.182	1320.207
-15.677	27.334	1607.089	1318.900
-14.663	27.286	1606.042	1317.644
-13.648	27.305	1604.788	1316.698
-12.633	27.372	1602.725	1315.441
-11.619	27.405	1601.218	1314.389
-10.604	27.415	1599.461	1312.968
-9.590	27.393	1598.217	1311.732
-8.575	27.469	1596.761	1311.033
-7.560	27.436	1595.847	1309.993
-6.546	27.394	1595.076	1309.004
-5.531	27.315	1593.912	1307.430
-4.517	27.279	1593.041	1306.406
-3.502	27.373	1591.341	1305.638
-2.487	27.540	1589.333	1305.132
-1.473	26.969	1577.699	1291.467
-0.458	23.983	1558.185	1254.426
0.556	18.532	1558.975	1221.322
1.571	16.003	1582.680	1221.472
2.586	15.623	1594.742	1227.900
3.600	14.398	1541.298	1177.989
4.615	8.067	1434.332	1054.366
5.629	1.607	1373.198	968.322
6.644	0.168	1366.008	954.051
7.659	0.131	1364.347	952.573
8.673	0.102	1363.283	951.560
9.688	0.040	1361.462	949.813
10.702	0.068	1357.633	947.235
11.717	3.217	1362.672	970.548
12.731	10.849	1375.053	1027.691
13.746	16.328	1382.605	1067.980
14.761	17.057	1382.873	1072.701
15.775	16.164	1380.749	1065.325
16.790	15.299	1377.088	1056.952
17.804	14.390	1375.402	1049.841
18.819	14.094	1373.736	1046.616
19.834	13.831	1372.597	1043.998
20.848	13.532	1371.886	1041.490
21.863	13.388	1369.881	1038.971
22.877	13.193	1368.972	1036.962
23.892	13.110	1368.021	1035.632
24.907	13.117	1366.916	1034.748
25.921	13.154	1366.147	1034.306
26.936	13.173	1365.392	1033.763
27.950	13.230	1364.505	1033.352
28.965	13.324	1363.639	1033.192
29.980	13.366	1362.668	1032.626
30.994	13.405	1361.499	1031.895
32.009	13.461	1360.874	1031.682
33.023	13.420	1359.867	1030.571
34.038	13.344	1358.761	1029.168
35.053	13.400	1357.030	1028.113
36.067	13.304	1356.761	1027.220
37.082	13.282	1355.667	1026.167
38.096	13.438	1354.528	1026.183
39.111	13.318	1353.978	1024.929
40.126	13.314	1352.968	1024.050
41.140	13.226	1352.054	1022.723
42.155	13.228	1351.641	1022.333
43.169	13.225	1351.355	1022.007
44.184	13.112	1351.338	1021.202
45.199	13.169	1350.784	1021.045
46.213	13.315	1350.049	1021.303
47.228	13.347	1349.151	1020.730
48.242	13.343	1347.906	1019.674
49.257	13.215	1346.722	1017.898
50.271	13.254	1345.134	1016.850
51.286	13.277	1343.869	1015.944
52.301	13.308	1342.540	1015.039
53.315	13.297	1341.322	1013.962
54.330	13.242	1340.985	1013.280
55.344	13.249	1339.271	1011.939
56.359	13.154	1338.842	1010.942
57.374	13.241	1337.319	1010.236
58.388	13.099	1336.629	1008.756
59.403	13.104	1336.641	1008.706
60.417	13.040	1335.842	1007.623
61.432	13.089	1334.868	1007.103
62.447	13.122	1333.528	1006.201
63.461	13.149	1332.042	1005.158
64.476	13.061	1331.563	1004.169
65.490	13.112	1330.066	1003.259
66.505	13.091	1328.802	1002.090
67.520	13.172	1327.097	1001.206
68.534	13.199	1326.422	1000.771
69.549	13.133	1325.288	999.430
70.563	13.177	1324.307	998.867
71.578	13.051	1323.740	997.590
72.593	13.012	1322.356	996.226
73.607	13.052	1321.508	995.740
74.622	13.024	1320.686	994.861
75.636	12.991	1319.888	993.972
76.651	13.055	1319.002	993.603
77.666	12.960	1319.038	992.974
78.680	13.021	1318.277	992.679
79.695	13.024	1317.467	992.001
80.709	13.104	1316.329	991.537
81.724	13.209	1315.514	991.465
82.739	13.114	1314.859	990.310
83.753	13.269	1313.578	990.189
84.768	13.291	1312.916	989.735
85.782	13.227	1311.979	988.556
86.797	13.166	1310.186	986.754
87.812	13.206	1309.137	986.113
88.826	13.195	1307.948	985.064
89.841	13.299	1306.621	984.600
90.855	13.336	1306.047	984.297
91.870	13.392	1305.145	983.868
92.884	13.371	1304.219	982.958
93.899	13.473	1303.030	982.581
94.914	13.478	1302.568	982.171
95.928	13.477	1301.603	981.354
96.943	13.227	1301.139	979.432
97.957	13.341	1300.308	979.394
98.972	13.299	1299.421	978.396
99.987	13.339	1298.096	977.546
101.001	13.383	1296.858	976.784
102.016	13.362	1295.669	975.678
103.030	13.402	1294.849	975.215
104.045	13.420	1293.646	974.329
105.060	13.284	1292.821	972.816
106.074	13.344	1291.343	971.970
107.089	13.190	1290.411	970.281
108.103	13.157	1289.327	969.189
109.118	13.192	1287.360	967.827
110.133	13.241	1286.334	967.258
111.147	13.221	1285.209	966.207
112.162	13.219	1284.056	965.245
113.176	13.311	1282.688	964.670
114.191	13.299	1281.883	963.910
115.206	13.133	1281.198	962.341
116.220	13.330	1279.790	962.341
117.235	13.344	1278.144	961.105
118.249	13.207	1277.522	959.755
119.264	13.219	1277.071	959.402
120.279	13.219	1275.369	958.034
121.293	13.183	1274.630	957.190
122.308	13.146	1273.869	956.317
123.322	13.092	1273.106	955.345
124.337	13.119	1272.038	954.620
125.352	13.199	1270.622	953.932
126.366	13.188	1269.584	953.007
127.381	13.254	1268.436	952.441
128.395	13.258	1267.523	951.691
129.410	13.345	1266.755	951.534
130.424	13.230	1265.887	950.137
131.439	13.355	1265.003	950.105
132.454	13.312	1264.178	949.157
133.468	13.280	1263.299	948.229
134.483	13.244	1262.293	947.181
135.497	13.313	1261.347	946.785
136.512	13.309	1259.982	945.654
137.527	13.290	1258.882	944.633
138.541	13.266	1257.451	943.342
139.556	13.224	1255.869	941.832
140.570	13.242	1255.338	941.452
141.585	13.468	1253.423	941.220
142.600	13.438	1252.405	940.197
143.614	13.377	1251.927	939.409
144.629	13.533	1250.808	939.374
145.643	13.445	1249.575	937.867
146.658	13.387	1248.658	936.767
147.673	13.393	1247.566	935.896
148.687	13.401	1245.844	934.568
149.702	13.377	1244.581	933.402
150.716	13.437	1243.233	932.648
151.731	13.384	1242.234	931.516
152.746	13.393	1241.092	930.626
153.760	13.398	1239.814	929.618
154.775	13.431	1238.765	928.935
155.789	13.633	1237.075	928.715
156.804	13.503	1236.610	927.553
157.819	13.521	1235.424	926.687
158.833	13.533	1234.990	926.345
159.848	13.502	1233.515	924.983
160.862	13.536	1232.844	924.587
161.877	13.553	1231.561	923.637
162.892	13.407	1230.709	922.104
163.906	13.541	1229.501	921.863
164.921	13.453	1228.735	920.721
165.935	13.472	1227.936	920.145
166.950	13.584	1227.383	920.270
167.964	13.560	1226.210	919.175
168.979	13.509	1225.934	918.605
169.994	13.563	1225.245	918.306
171.008	13.584	1224.262	917.604
172.023	13.727	1223.377	917.650
173.037	13.721	1222.449	916.840
174.052	13.719	1221.449	916.001
175.067	13.564	1220.776	914.560
176.081	13.561	1219.785	913.719
177.096	13.614	1218.287	912.806
178.110	13.544	1217.531	911.775
179.125	13.607	1216.603	911.344
180.140	13.638	1215.245	910.420
181.154	13.609	1213.896	909.169
182.169	13.692	1212.753	908.686
183.183	13.726	1211.585	907.916
184.198	13.765	1210.285	907.077
185.213	13.752	1208.909	905.893
186.227	13.806	1208.334	905.673
187.242	13.816	1206.861	904.545
188.256	13.882	1205.937	904.136
189.271	13.902	1204.794	903.303
190.286	13.769	1203.929	901.852
191.300	13.660	1203.304	900.716
192.315	13.679	1202.626	900.232
193.329	13.644	1202.114	899.578
194.344	13.661	1201.722	899.296
195.359	13.895	1200.607	899.652
196.373	13.818	1200.591	899.140
197.388	14.000	1199.886	899.519
198.402	13.924	1199.764	898.939
199.417	13.940	1199.110	898.456
200.432	14.061	1197.559	897.863
201.446	14.111	1196.843	897.518
202.461	14.210	1196.055	897.382
203.475	14.104	1194.841	895.822
204.490	14.058	1193.625	894.582
205.504	14.136	1192.717	894.243
206.519	14.074	1191.454	892.883
207.534	13.997	1190.550	891.712
208.548	13.936	1189.359	890.417
209.563	14.036	1188.717	890.395
210.577	14.091	1187.351	889.586
211.592	14.197	1186.595	889.506
212.607	14.211	1185.985	889.043
213.621	14.123	1185.145	887.865
214.636	14.191	1184.077	887.352
215.650	14.249	1183.020	886.789
216.665	14.220	1182.194	885.939
217.680	14.303	1181.408	885.714
218.694	14.253	1180.897	884.984
219.709	14.200	1180.117	884.042
220.723	14.298	1179.302	883.873
221.738	14.306	1178.467	883.209
222.753	14.344	1177.629	882.706
223.767	14.346	1176.925	882.112
224.782	14.467	1176.308	882.208
225.796	14.484	1175.320	881.478
226.811	14.337	1174.929	880.332
227.826	14.475	1173.664	880.038
228.840	14.373	1173.250	879.107
229.855	14.470	1172.659	879.098
230.869	14.363	1172.084	878.026
231.884	14.438	1171.084	877.596
232.899	14.377	1170.305	876.612
233.913	14.273	1169.811	875.617
234.928	14.402	1168.901	875.538
235.942	14.395	1168.056	874.789
236.957	14.309	1167.854	874.109
237.972	14.304	1166.908	873.298
238.986	14.366	1166.436	873.195
240.001	14.509	1165.374	873.070
241.015	14.472	1164.112	871.851
242.030	14.549	1163.530	871.744
243.045	14.419	1163.047	870.621
244.059	14.523	1162.161	870.426
245.074	14.664	1161.235	870.391
246.088	14.545	1160.668	869.271
247.103	14.528	1160.003	868.604
248.117	14.577	1159.341	868.289
249.132	14.746	1158.291	868.306
250.147	14.832	1157.587	868.144
251.161	14.861	1156.920	867.717
252.176	14.659	1156.577	866.337
253.190	14.884	1155.787	866.837
254.205	14.828	1155.074	865.933
255.220	14.868	1155.035	866.034
256.234	14.867	1153.916	865.116
257.249	14.989	1152.972	864.962
258.263	14.976	1152.380	864.370
259.278	15.004	1151.726	863.948
260.293	14.898	1151.418	863.098
261.307	15.006	1151.062	863.311
262.322	14.941	1150.337	862.354
263.336	15.062	1149.233	862.074
264.351	15.169	1148.538	862.025
265.366	15.103	1148.099	861.281
266.380	14.990	1147.459	860.144
267.395	15.102	1146.441	859.882
268.409	15.043	1145.925	859.116
269.424	15.091	1145.171	858.721
270.439	15.113	1144.686	858.393
271.453	15.063	1143.669	857.300
272.468	15.052	1143.043	856.698
273.482	15.070	1142.238	856.112
274.497	15.104	1141.631	855.750
275.512	15.182	1141.043	855.635
276.526	15.137	1140.496	854.918
277.541	15.136	1139.472	854.072
278.555	15.114	1138.997	853.525
279.570	15.182	1137.991	853.045
280.585	15.213	1137.381	852.669
281.599	15.348	1136.170	852.370
282.614	15.233	1135.396	851.133
283.628	15.234	1134.591	850.457
284.643	15.279	1133.587	849.858
285.657	15.176	1133.157	848.939
286.672	15.275	1131.478	848.107
287.687	15.208	1130.936	847.288
288.701	15.248	1129.813	846.571
289.716	15.381	1129.108	846.641
290.730	15.364	1128.684	846.159
291.745	15.255	1128.136	845.128
292.760	15.372	1127.023	844.808
293.774	15.338	1127.075	844.598
294.789	15.490	1126.294	844.704
295.803	15.507	1125.517	844.133
296.818	15.482	1124.789	843.385
297.833	15.476	1124.021	842.704
298.847	15.426	1123.431	841.938
299.862	15.474	1122.568	841.457
300.876	15.576	1121.576	841.148
301.891	15.520	1121.168	840.492
302.906	15.535	1120.400	839.915
303.920	15.573	1119.632	839.455
304.935	15.602	1119.233	839.225
305.949	15.740	1118.614	839.373
306.964	15.641	1117.923	838.291
307.979	15.745	1116.787	837.883
308.993	15.696	1116.169	837.098
310.008	15.762	1115.460	836.825
311.022	15.750	1114.650	836.082
312.037	15.717	1113.727	835.152
313.052	15.722	1112.767	834.382
314.066	15.725	1111.690	833.517
315.081	15.632	1111.239	832.641
316.095	15.602	1110.725	832.036
317.110	15.652	1109.703	831.441
318.125	15.690	1109.014	831.042
319.139	15.705	1108.079	830.342
320.154	15.588	1107.731	829.429
321.168	15.617	1106.929	828.897
322.183	15.707	1106.489	828.939
323.197	15.609	1105.849	827.902
324.212	15.739	1105.184	827.975
325.227	15.757	1104.809	827.709
326.241	15.742	1104.150	827.066
327.256	15.688	1103.241	826.048
328.270	15.883	1101.598	825.699
329.285	15.838	1101.059	825.005
330.300	15.693	1100.625	823.892
331.314	15.828	1099.638	823.743
332.329	15.814	1098.752	822.939
333.343	15.876	1097.683	822.368
334.358	15.916	1096.934	821.926
335.373	15.918	1096.502	821.542
336.387	15.928	1095.698	820.916
337.402	15.964	1094.957	820.465
338.416	16.039	1094.194	820.183
339.431	15.977	1093.756	819.481
340.446	16.050	1093.285	819.412
341.460	16.102	1092.100	818.700
342.475	16.195	1090.965	818.228
343.489	16.210	1090.138	817.613
344.504	16.166	1089.530	816.869
345.519	16.239	1088.815	816.612
346.533	16.296	1087.761	816.029
347.548	16.305	1087.155	815.546
348.562	16.349	1086.453	815.157
349.577	16.235	1085.539	813.848
350.592	16.156	1084.813	812.854
351.606	16.119	1084.523	812.386
352.621	16.178	1083.431	811.781
353.635	16.099	1082.832	810.879
354.650	16.322	1082.158	811.375
355.665	16.201	1081.641	810.335
356.679	16.200	1080.983	809.765
357.694	16.323	1080.424	809.865
358.708	16.205	1080.014	808.919
359.723	16.288	1079.233	808.658
360.738	16.311	1078.768	808.349
361.752	16.342	1077.755	807.665
362.767	16.355	1077.564	807.516
363.781	16.499	1076.682	807.468
364.796	16.468	1075.910	806.671
365.810	16.377	1075.633	805.961
366.825	16.484	1074.880	805.835
367.840	16.559	1074.282	805.672
368.854	16.609	1073.530	805.272
369.869	16.652	1072.909	804.942
370.883	16.437	1072.060	803.210
371.898	16.704	1070.731	803.413
372.913	16.625	1070.376	802.700
373.927	16.624	1070.381	802.629
374.942	16.674	1069.366	802.032
375.956	16.635	1069.129	801.597
376.971	16.679	1068.244	801.075
377.986	16.699	1067.583	800.599
379.000	16.679	1067.629	800.468
380.015	16.760	1066.800	800.160
381.029	16.773	1066.129	799.649
382.044	16.842	1065.025	799.072
383.059	16.883	1064.685	798.940
384.073	16.866	1063.865	798.173
385.088	16.858	1063.228	797.591
386.102	16.893	1061.889	796.679
387.117	16.783	1060.853	795.315
388.132	17.011	1060.062	795.722
389.146	16.826	1058.991	793.977
390.161	16.803	1058.570	793.487
391.175	16.834	1057.872	793.039
392.190	16.751	1057.762	792.498
393.205	16.850	1056.816	792.178
394.219	16.863	1056.124	791.651
395.234	16.904	1054.882	790.841
396.248	16.833	1054.133	789.878
397.263	16.879	1053.057	789.218
398.278	16.842	1052.392	788.478
399.292	16.840	1051.759	787.925
400.307	16.901	1051.060	787.616
401.321	16.941	1050.367	787.209
402.336	16.934	1049.891	786.751
403.350	16.947	1048.874	785.982
404.365	17.018	1048.444	785.916
405.380	16.942	1047.807	785.019
406.394	16.972	1047.208	784.637
407.409	17.031	1046.101	784.014
408.423	17.190	1045.146	783.962
409.438	17.209	1044.431	783.443
410.453	17.124	1044.030	782.683
411.467	17.182	1043.252	782.294
412.482	17.219	1042.822	782.077
413.496	17.251	1042.295	781.756
414.511	17.236	1041.666	781.147
415.526	17.173	1041.454	780.630
416.540	17.305	1041.336	781.081
417.555	17.370	1040.054	780.344
418.569	17.352	1039.782	779.992
419.584	17.291	1039.322	779.299
420.599	17.312	1038.711	778.867
421.613	105.236	1325.661	1478.302
422.628	96.533	1367.418	1478.383
