DTS Sentinel unit serial number:	SN413079Multiplexer serial number:	ORYXHardware model number:	OX4-SRSoftware version number:	ORYX F/W v4.00 Oryx Data Collector v3.7.2.0data status	okinstallation	princeton_trtdifferential loss correction	single-endedforward channel	channel 2reverse channel	N/Adate	2019/09/18time	19:43:35forward acquisition time	60.00reverse acquisition time	0.00gamma	496.2192k internal	0.2331k external	0.2331temperature offset calibration	1.0036default loss term (dB/km)	0.3790temperature slope calibration	1.0000multiplexer offset coefficient	1.0000multiplexer slope coefficient	1.0000fibre end	0.00T internal ref (°C)	31.67T ext. ref 1 (°C)	1.05T ext. ref 2 (°C)	22.12length (m)	temperature (°C)	Stokes	anti-Stokes-747.200	-200.000	0.066	-0.320
-746.185	-200.000	-0.004	-0.148
-745.171	800.000	-0.094	-0.312
-744.156	-119.814	-0.253	0.044
-743.142	351.057	-0.066	-0.132
-742.127	-73.139	0.141	0.052
-741.112	-200.000	0.110	0.554
-740.098	800.000	-0.099	0.363
-739.083	-35.523	0.422	-0.231
-738.069	267.432	-0.195	0.343
-737.054	800.000	-0.035	0.117
-736.039	497.295	0.102	-0.236
-735.025	-103.877	0.092	0.022
-734.010	-74.317	-0.326	-0.118
-732.996	330.630	0.135	-0.261
-731.981	342.012	0.132	-0.260
-730.966	-200.000	0.005	-0.027
-729.952	-51.396	0.391	0.184
-728.937	-193.463	-0.477	-0.004
-727.923	-117.288	-0.329	-0.060
-726.908	-61.414	0.277	0.117
-725.894	3.538	-0.431	-0.316
-724.879	31.683	-0.267	0.231
-723.864	-108.294	0.055	0.012
-722.850	-59.854	-0.042	0.018
-721.835	-200.000	0.007	0.130
-720.821	-29.270	-0.197	-0.114
-719.806	-106.907	0.259	-0.058
-718.791	800.000	-0.031	0.118
-717.777	-90.334	-0.083	0.024
-716.762	-200.000	0.024	0.160
-715.748	-25.301	-0.116	0.069
-714.733	-79.144	0.061	0.021
-713.718	-98.781	-0.406	0.104
-712.704	391.027	-0.213	-0.444
-711.689	735.509	-0.100	-0.268
-710.675	-97.160	-0.156	0.041
-709.660	478.898	-0.145	0.331
-708.645	-200.000	-0.012	0.145
-707.631	-52.873	0.180	0.084
-706.616	-200.000	-0.078	-0.398
-705.602	-48.399	0.112	-0.054
-704.587	-141.594	0.224	-0.023
-703.572	51.170	-0.042	-0.040
-702.558	275.775	-0.135	0.240
-701.543	800.000	-0.017	0.057
-700.529	-21.645	-0.279	0.171
-699.514	800.000	-0.027	-0.117
-698.499	-200.000	0.002	-0.168
-697.485	-6.476	0.169	-0.116
-696.470	-200.000	-0.016	-0.111
-695.456	-99.604	-0.105	0.026
-694.441	79.371	-0.239	-0.257
-693.426	-149.706	-0.078	-0.006
-692.412	-55.455	-0.120	0.054
-691.397	-172.788	-0.219	-0.007
-690.383	800.000	-0.098	-0.364
-689.368	269.556	0.063	-0.111
-688.354	-49.195	0.286	-0.137
-687.339	-92.901	-0.052	-0.015
-686.324	-173.643	0.173	0.005
-685.310	-29.674	0.102	-0.059
-684.295	135.206	0.082	-0.107
-683.281	-15.072	0.466	-0.300
-682.266	-81.708	-0.262	0.086
-681.251	559.852	0.065	-0.159
-680.237	-200.000	-0.020	0.406
-679.222	-200.000	0.032	-0.446
-678.208	800.000	-0.009	-0.029
-677.193	104.660	-0.113	-0.133
-676.178	57.137	-0.184	-0.180
-675.164	-200.000	-0.025	0.301
-674.149	800.000	0.050	0.210
-673.135	-200.000	0.006	-0.177
-672.120	-159.569	0.325	-0.018
-671.105	-200.000	0.027	0.161
-670.091	-153.543	-0.289	-0.020
-669.076	-56.494	-0.067	-0.030
-668.062	-200.000	-0.017	-0.187
-667.047	413.317	-0.089	-0.190
-666.032	374.777	0.076	-0.156
-665.018	-200.000	0.028	-0.379
-664.003	152.748	0.280	0.384
-662.989	-40.198	-0.146	-0.076
-661.974	-53.007	0.274	-0.126
-660.959	-200.000	0.050	0.231
-659.945	14.853	0.108	0.085
-658.930	-200.000	0.008	-0.230
-657.916	-2.906	-0.281	0.197
-656.901	1.087	-0.090	-0.064
-655.886	137.883	-0.237	-0.311
-654.872	-79.913	0.071	-0.024
-653.857	-25.503	-0.122	-0.072
-652.843	42.426	-0.218	-0.199
-651.828	-98.564	0.192	-0.049
-650.814	108.834	-0.116	0.139
-649.799	-200.000	0.020	0.176
-648.784	800.000	-0.069	-0.208
-647.770	19.763	-0.418	0.338
-646.755	-50.969	-0.018	0.008
-645.741	430.404	-0.033	0.072
-644.726	34.030	0.053	-0.046
-643.711	-117.778	0.126	0.023
-642.697	234.761	-0.191	-0.316
-641.682	-138.027	0.336	0.038
-640.668	-22.655	0.367	-0.223
-639.653	800.000	0.062	-0.192
-638.638	-200.000	-0.016	-0.344
-637.624	-112.793	-0.506	-0.101
-636.609	-119.602	0.114	-0.020
-635.595	785.814	0.011	-0.030
-634.580	633.603	0.157	-0.398
-633.565	309.806	-0.051	0.095
-632.551	76.992	0.169	0.180
-631.536	249.928	0.171	0.290
-630.522	257.718	-0.217	0.375
-629.507	-73.985	-0.045	-0.016
-628.492	-190.650	0.259	0.003
-627.478	-15.325	-0.144	-0.092
-626.463	800.000	-0.178	0.526
-625.449	64.757	-0.262	-0.265
-624.434	318.925	0.072	0.137
-623.419	21.715	0.061	0.050
-622.405	-200.000	0.044	-0.205
-621.390	-171.531	0.263	0.009
-620.376	-200.000	-0.013	-0.100
-619.361	800.000	-0.070	0.294
-618.346	162.164	0.045	-0.063
-617.332	-111.523	0.538	-0.110
-616.317	-8.674	0.106	-0.072
-615.303	-135.206	0.175	0.021
-614.288	-43.939	-0.228	0.115
-613.273	-59.988	-0.072	0.031
-612.259	-95.126	0.211	-0.057
-611.244	-200.000	-0.027	-0.243
-610.230	-200.000	0.014	-0.135
-609.215	800.000	-0.034	0.145
-608.201	7.668	0.255	0.191
-607.186	521.933	0.059	-0.139
-606.171	22.498	0.067	-0.055
-605.157	32.460	-0.198	0.171
-604.142	61.509	0.182	-0.181
-603.128	62.991	0.194	-0.194
-602.113	800.000	-0.078	-0.296
-601.098	338.887	-0.223	0.434
-600.084	-133.603	0.090	0.011
-599.069	-124.907	0.457	0.070
-598.055	167.696	-0.093	-0.132
-597.040	384.195	-0.035	0.071
-596.025	302.836	0.148	-0.274
-595.011	800.000	-0.059	0.165
-593.996	51.193	-0.077	-0.073
-592.982	-70.207	0.213	-0.081
-591.967	62.346	-0.101	0.101
-590.952	172.611	-0.178	-0.256
-589.938	-153.428	0.177	0.012
-588.923	334.282	-0.107	0.207
-587.909	-200.000	0.032	0.254
-586.894	800.000	0.089	0.266
-585.879	-13.329	0.251	0.163
-584.865	523.193	0.041	0.096
-583.850	91.192	-0.185	0.208
-582.836	167.736	0.020	0.029
-581.821	-65.541	-0.211	-0.085
-580.806	318.787	0.058	-0.111
-579.792	178.055	-0.023	0.034
-578.777	800.000	-0.029	0.099
-577.763	-200.000	-0.017	-0.121
-576.748	-52.358	0.096	-0.045
-575.733	-37.961	0.176	-0.093
-574.719	695.385	-0.086	-0.226
-573.704	444.125	0.066	0.144
-572.690	134.115	-0.101	-0.131
-571.675	-45.845	0.305	-0.151
-570.661	800.000	0.057	0.159
-569.646	118.836	-0.211	0.261
-568.631	9.327	-0.319	-0.241
-567.617	135.592	-0.041	0.053
-566.602	-39.279	-0.258	0.135
-565.588	-16.564	-0.302	-0.191
-564.573	-22.827	-0.240	-0.145
-563.558	-200.000	0.003	-0.157
-562.544	91.706	0.184	0.207
-561.529	-125.747	0.121	0.018
-560.515	3.155	-0.130	0.095
-559.500	17.107	-0.238	0.189
-558.485	-200.000	0.039	-0.175
-557.471	118.220	0.224	0.276
-556.456	-7.283	0.107	0.073
-555.442	168.678	-0.090	0.128
-554.427	800.000	-0.063	-0.190
-553.412	800.000	0.043	0.132
-552.398	110.949	-0.098	0.118
-551.383	430.547	0.079	-0.170
-550.369	208.551	0.099	-0.155
-549.354	82.821	0.156	0.169
-548.339	-200.000	0.000	-0.068
-547.325	-200.000	-0.086	-0.398
-546.310	-124.207	-0.158	0.025
-545.296	95.790	-0.020	0.023
-544.281	-200.000	0.068	-0.381
-543.266	307.586	-0.050	-0.093
-542.252	-28.331	-0.087	0.050
-541.237	-200.000	-0.027	-0.125
-540.223	75.804	0.150	-0.158
-539.208	226.776	-0.149	-0.242
-538.193	16.252	0.171	-0.135
-537.179	242.837	-0.088	0.148
-536.164	-117.943	-0.157	-0.028
-535.150	-49.438	0.130	0.062
-534.135	419.103	-0.095	-0.203
-533.121	800.000	0.071	0.254
-532.106	60.967	0.174	0.172
-531.091	-150.955	0.109	-0.008
-530.077	38.631	-0.146	0.130
-529.062	-120.512	0.462	-0.078
-528.048	162.404	-0.240	0.336
-527.033	-31.023	0.138	-0.078
-526.018	800.000	0.060	-0.195
-525.004	267.632	-0.060	0.106
-523.989	-200.000	0.014	0.074
-522.975	29.723	0.329	-0.279
-521.960	18.526	-0.084	0.067
-520.945	-16.332	-0.306	-0.194
-519.931	139.020	-0.117	-0.154
-518.916	-200.000	0.029	0.162
-517.902	-200.000	-0.041	-0.212
-516.887	165.949	0.193	0.273
-515.872	787.270	0.040	0.109
-514.858	86.610	0.343	-0.377
-513.843	476.787	-0.158	0.356
-512.829	-107.411	-0.066	-0.014
-511.814	-1.575	0.186	-0.131
-510.799	259.906	-0.130	0.223
-509.785	60.255	0.122	0.121
-508.770	-84.946	0.232	-0.072
-507.756	-64.105	-0.223	0.091
-506.741	-144.732	0.249	0.023
-505.726	389.567	0.049	-0.100
-504.712	-200.000	0.015	0.191
-503.697	-123.300	0.158	0.025
-502.683	-104.794	0.566	0.130
-501.668	-43.561	-0.216	-0.108
-500.653	82.896	0.090	-0.097
-499.639	800.000	0.080	0.258
-498.624	352.707	-0.225	0.444
-497.610	-67.431	-0.232	0.091
-496.595	-58.383	-0.181	-0.079
-495.581	713.581	-0.069	0.181
-494.566	800.000	-0.098	-0.400
-493.551	-108.757	-0.287	-0.061
-492.537	141.803	-0.225	-0.297
-491.522	-200.000	0.032	-0.158
-490.508	-200.000	-0.030	0.218
-489.493	79.905	0.207	-0.222
-488.478	-127.266	-0.189	-0.028
-487.464	-49.135	-0.215	0.102
-486.449	57.561	-0.100	0.098
-485.435	183.974	0.056	0.083
-484.420	-122.741	-0.306	0.049
-483.405	346.884	-0.121	-0.237
-482.391	267.535	-0.088	0.154
-481.376	-21.156	-0.171	0.104
-480.362	-200.000	0.005	0.071
-479.347	800.000	0.073	-0.277
-478.332	362.108	0.082	-0.164
-477.318	647.629	0.049	0.124
-476.303	-152.081	-0.409	0.030
-475.289	-127.504	0.082	-0.012
-474.274	-112.734	-0.227	-0.045
-473.259	-68.497	0.173	-0.067
-472.245	-200.000	0.022	-0.188
-471.230	-76.386	0.382	0.134
-470.216	-200.000	-0.068	0.297
-469.201	335.365	-0.038	0.073
-468.186	-200.000	0.004	-0.159
-467.172	800.000	-0.011	0.033
-466.157	-200.000	-0.060	0.306
-465.143	82.088	-0.175	-0.188
-464.128	-11.934	-0.123	0.080
-463.113	201.632	0.133	-0.204
-462.099	472.299	-0.075	-0.168
-461.084	-169.897	-0.141	0.005
-460.070	-12.352	0.108	-0.071
-459.055	-200.000	-0.064	0.376
-458.040	-27.281	0.106	0.062
-457.026	528.745	-0.109	0.255
-456.011	736.519	-0.017	-0.045
-454.997	76.859	0.197	0.208
-453.982	-200.000	0.005	-0.094
-452.968	137.824	-0.205	-0.268
-451.953	97.672	-0.080	-0.092
-450.938	92.351	0.257	-0.289
-449.924	270.273	-0.082	0.143
-448.909	800.000	0.134	0.446
-447.895	-174.012	0.418	-0.012
-446.880	-200.000	0.040	0.451
-445.865	-200.000	-0.009	0.192
-444.851	-72.987	-0.074	0.027
-443.836	229.316	-0.232	0.376
-442.822	-200.000	0.059	0.392
-441.807	-60.588	-0.091	0.038
-440.792	-51.702	-0.198	-0.092
-439.778	-10.321	0.137	-0.090
-438.763	-200.000	0.017	0.216
-437.749	123.314	-0.163	0.203
-436.734	-200.000	-0.024	-0.158
-435.719	-200.000	-0.006	-0.071
-434.705	149.070	0.127	-0.171
-433.690	30.686	-0.088	-0.075
-432.676	800.000	-0.056	-0.182
-431.661	800.000	0.061	0.186
-430.646	57.326	0.011	0.010
-429.632	149.223	0.056	0.076
-428.617	-45.293	-0.319	0.158
-427.603	-46.723	0.084	-0.041
-426.588	780.786	-0.070	0.191
-425.573	-100.026	0.235	-0.058
-424.559	-32.869	0.103	-0.057
-423.544	-38.881	-0.360	-0.189
-422.530	-200.000	-0.006	-0.192
-421.515	352.928	0.111	0.219
-420.500	-136.523	0.307	0.035
-419.486	800.000	-0.124	-0.386
-418.471	-120.645	0.224	0.038
-417.457	230.022	0.167	-0.272
-416.442	-76.152	-0.282	0.099
-415.428	-200.000	0.025	-0.248
-414.413	163.542	0.265	0.370
-413.398	797.707	0.166	-0.454
-412.384	268.070	0.177	0.308
-411.369	624.040	0.089	0.223
-410.355	-181.454	0.183	0.004
-409.340	-31.962	-0.252	-0.140
-408.325	-200.000	-0.041	0.209
-407.311	-126.218	-0.253	-0.038
-406.296	-200.000	0.040	-0.307
-405.282	-51.889	-0.534	0.247
-404.267	-46.630	-0.134	-0.065
-403.252	-200.000	0.014	0.210
-402.238	-75.156	0.406	-0.144
-401.223	399.715	-0.087	0.181
-400.209	700.123	-0.077	-0.201
-399.194	-24.036	0.350	0.208
-398.179	75.816	-0.105	-0.110
-397.165	134.926	-0.081	-0.105
-396.150	-200.000	-0.006	-0.259
-395.136	-134.895	0.180	0.022
-394.121	-65.869	0.284	-0.113
-393.106	-200.000	0.017	-0.126
-392.092	-9.989	0.114	-0.075
-391.077	-26.865	-0.151	-0.088
-390.063	49.807	-0.118	-0.110
-389.048	130.689	-0.175	-0.223
-388.033	2.901	0.078	0.056
-387.019	216.526	-0.088	0.139
-386.004	-66.222	0.071	0.028
-384.990	93.561	-0.331	0.372
-383.975	-110.029	-0.262	-0.054
-382.960	800.000	0.033	0.142
-381.946	-200.000	0.030	-0.157
-380.931	63.061	-0.234	0.233
-379.917	-200.000	-0.012	0.284
-378.902	188.848	-0.196	0.290
-377.888	-200.000	0.000	-0.195
-376.873	14.027	0.282	-0.218
-375.858	800.000	0.038	0.145
-374.844	-200.000	-0.007	0.269
-373.829	-101.163	-0.056	-0.014
-372.815	114.726	-0.197	0.238
-371.800	753.434	-0.219	0.586
-370.785	-96.556	-0.183	-0.048
-369.771	9.743	-0.229	-0.172
-368.756	107.308	-0.088	0.104
-367.742	-200.000	0.016	-0.120
-366.727	800.000	-0.133	-0.398
-365.712	143.691	0.214	-0.282
-364.698	800.000	0.041	-0.127
-363.683	77.523	-0.190	-0.201
-362.669	-200.000	-0.099	0.496
-361.654	-200.000	0.010	-0.085
-360.639	800.000	0.058	-0.167
-359.625	800.000	0.026	-0.095
-358.610	-16.959	0.044	0.028
-357.596	73.806	-0.283	-0.294
-356.581	3.402	-0.194	0.140
-355.566	-68.761	-0.077	0.030
-354.552	601.410	0.246	-0.605
-353.537	-18.704	-0.084	-0.052
-352.523	-160.797	0.296	0.016
-351.508	-91.557	0.439	-0.124
-350.493	-140.514	-0.369	-0.038
-349.479	110.862	0.085	0.102
-348.464	800.000	0.064	0.179
-347.450	-200.000	-0.047	0.292
-346.435	800.000	-0.064	0.227
-345.420	-138.498	0.345	-0.038
-344.406	20.972	-0.101	0.081
-343.391	125.900	-0.123	0.153
-342.377	-200.000	0.049	0.211
-341.362	-78.040	0.261	0.089
-340.348	-40.933	-0.156	0.080
-339.333	800.000	0.107	-0.324
-338.318	-28.885	-0.223	0.127
-337.304	225.146	0.068	-0.109
-336.289	-183.050	0.031	0.001
-335.275	-166.203	-0.078	0.003
-334.260	616.195	-0.115	-0.287
-333.245	-135.478	0.308	0.036
-332.231	-7.783	0.039	-0.026
-331.216	239.865	-0.137	-0.226
-330.202	226.786	-0.121	-0.195
-329.187	-50.048	0.124	-0.058
-328.172	2.889	-0.241	0.173
-327.158	54.097	-0.318	0.303
-326.143	78.202	0.070	-0.074
-325.129	-40.684	0.089	-0.046
-324.114	-49.099	0.178	0.084
-323.099	-49.402	-0.091	-0.043
-322.085	-5.648	0.209	-0.142
-321.070	-33.949	0.428	-0.233
-320.056	38.904	-0.133	0.118
-319.041	-136.919	-0.240	-0.027
-318.026	-200.000	-0.038	-0.174
-317.012	523.335	0.089	-0.206
-315.997	77.148	-0.157	-0.165
-314.983	-95.917	-0.264	0.070
-313.968	800.000	0.070	-0.206
-312.953	-164.535	-0.284	-0.013
-311.939	800.000	0.025	-0.102
-310.924	18.592	0.338	-0.268
-309.910	-107.462	0.250	-0.054
-308.895	1.784	-0.086	0.062
-307.880	81.926	0.230	0.246
-306.866	213.769	-0.100	0.157
-305.851	732.696	0.066	0.176
-304.837	-28.488	-0.275	-0.157
-303.822	357.124	0.160	0.315
-302.807	47.263	-0.090	0.083
-301.793	-200.000	0.009	-0.127
-300.778	800.000	-0.060	0.174
-299.764	105.193	-0.130	0.152
-298.749	-111.164	0.268	0.054
-297.735	-45.382	0.252	-0.124
-296.720	800.000	-0.072	0.227
-295.705	-106.089	0.215	-0.048
-294.691	-118.314	-0.122	0.022
-293.676	94.285	0.106	-0.119
-292.662	53.122	-0.240	-0.227
-291.647	-151.267	0.126	0.009
-290.632	-45.760	0.263	-0.129
-289.618	62.844	0.276	0.273
-288.603	-200.000	-0.008	0.135
-287.589	19.228	0.185	0.147
-286.574	546.333	0.034	0.080
-285.559	0.180	0.188	0.133
-284.545	-7.856	0.134	-0.089
-283.530	33.371	-0.217	-0.186
-282.516	-200.000	-0.016	-0.180
-281.501	87.110	0.235	0.256
-280.486	-200.000	-0.048	-0.230
-279.472	-200.000	0.020	0.141
-278.457	-89.818	0.048	-0.014
-277.443	11.680	-0.206	-0.156
-276.428	-145.188	0.126	0.011
-275.413	171.228	-0.083	-0.118
-274.399	-200.000	0.020	0.090
-273.384	609.404	-0.084	0.208
-272.370	29.719	-0.191	-0.160
-271.355	-31.032	-0.123	-0.068
-270.340	6.908	-0.209	0.154
-269.326	-53.832	-0.188	-0.084
-268.311	800.000	0.058	-0.197
-267.297	33.299	-0.206	-0.177
-266.282	14.801	0.164	0.127
-265.267	113.494	-0.103	-0.123
-264.253	-34.937	-0.131	-0.071
-263.238	-200.000	0.109	-0.511
-262.224	-70.656	-0.542	-0.202
-261.209	-200.000	-0.024	-0.146
-260.195	-25.917	-0.192	0.112
-259.180	-106.001	0.125	-0.028
-258.165	396.716	0.096	-0.198
-257.151	-118.592	0.285	0.050
-256.136	261.882	-0.072	0.124
-255.122	-200.000	0.014	0.519
-254.107	290.195	-0.046	-0.083
-253.092	800.000	0.065	-0.233
-252.078	130.693	0.075	0.095
-251.063	-129.742	-0.265	0.036
-250.049	4.006	0.109	0.079
-249.034	356.070	0.099	-0.195
-248.019	-90.581	0.452	0.129
-247.005	208.108	0.429	0.662
-245.990	-200.000	-0.037	0.493
-244.976	-7.034	0.114	0.077
-243.961	-121.492	0.218	0.036
-242.946	-200.000	0.035	0.175
-241.932	-200.000	-0.045	0.325
-240.917	-197.950	-0.194	0.001
-239.903	-150.129	-0.260	0.020
-238.888	129.143	0.190	-0.239
-237.873	145.767	-0.016	-0.021
-236.859	-64.149	0.259	0.104
-235.844	800.000	-0.035	0.113
-234.830	-30.913	-0.111	-0.062
-233.815	45.275	0.285	-0.260
-232.800	800.000	-0.053	0.152
-231.786	-62.088	-0.159	0.065
-230.771	-134.263	0.134	-0.016
-229.757	85.882	-0.162	-0.176
-228.742	411.393	0.078	-0.163
-227.727	-100.995	-0.186	-0.045
-226.713	-1.689	0.120	0.083
-225.698	-107.148	0.158	0.034
-224.684	731.243	0.054	0.141
-223.669	-200.000	0.010	-0.410
-222.655	-200.000	-0.032	-0.234
-221.640	0.261	0.057	0.040
-220.625	-168.347	-0.326	-0.012
-219.611	304.819	-0.080	0.146
-218.596	-200.000	-0.016	0.220
-217.582	-57.342	0.492	0.213
-216.567	-200.000	0.131	-0.586
-215.552	-200.000	-0.036	-0.195
-214.538	-122.210	-0.335	0.054
-213.523	-96.019	-0.314	-0.082
-212.509	-17.224	0.170	0.106
-211.494	572.550	0.107	0.258
-210.479	-150.123	-0.237	-0.018
-209.465	-200.000	0.016	-0.209
-208.450	68.275	-0.121	-0.122
-207.436	20.955	0.179	-0.143
-206.421	46.006	0.149	0.135
-205.406	224.345	0.182	0.290
-204.392	198.247	-0.180	0.271
-203.377	-200.000	0.008	-0.055
-202.363	96.678	-0.224	-0.253
-201.348	-3.429	-0.256	-0.175
-200.333	-173.627	0.117	-0.003
-199.319	-200.000	-0.062	-0.335
-198.304	-4.758	0.192	0.130
-197.290	485.099	0.141	-0.317
-196.275	-116.520	-0.184	0.033
-195.260	158.648	-0.038	0.052
-194.246	-25.525	0.198	0.115
-193.231	21.770	0.106	-0.085
-192.217	59.448	0.179	-0.174
-191.202	419.814	-0.090	0.190
-190.187	-200.000	-0.011	-0.162
-189.173	393.875	-0.074	-0.151
-188.158	800.000	0.102	-0.315
-187.144	-66.122	-0.080	0.031
-186.129	798.217	-0.070	-0.191
-185.114	-200.000	-0.017	0.103
-184.100	305.296	0.143	0.262
-183.085	-200.000	-0.023	0.235
-182.071	-44.928	0.415	0.203
-181.056	-90.125	0.124	0.036
-180.042	-57.775	0.308	0.133
-179.027	-39.714	0.374	0.193
-178.012	-200.000	-0.020	-0.304
-176.998	-200.000	-0.072	-0.524
-175.983	-175.214	-0.438	-0.012
-174.969	-173.810	0.193	-0.006
-173.954	-31.418	-0.326	0.181
-172.939	-102.545	-0.254	-0.060
-171.925	145.935	-0.226	-0.299
-170.910	-200.000	0.009	0.288
-169.896	-200.000	-0.075	-0.332
-168.881	554.723	-0.007	-0.016
-167.866	-200.000	0.020	0.157
-166.852	800.000	0.043	-0.132
-165.837	-40.768	-0.340	-0.173
-164.823	-61.573	0.203	-0.084
-163.808	-45.219	0.225	-0.110
-162.793	-111.996	-0.312	-0.062
-161.779	800.000	-0.052	0.154
-160.764	800.000	-0.072	0.246
-159.750	228.066	0.074	0.118
-158.735	94.417	0.091	-0.102
-157.720	89.069	-0.155	0.169
-156.706	-89.140	0.228	0.066
-155.691	-200.000	0.048	0.230
-154.677	-200.000	-0.004	-0.061
-153.662	-135.344	-0.222	-0.026
-152.647	800.000	-0.079	0.231
-151.633	15.341	-0.196	-0.151
-150.618	715.588	0.104	-0.271
-149.604	207.261	0.215	-0.330
-148.589	800.000	0.067	-0.186
-147.574	800.000	-0.073	0.204
-146.560	-66.078	-0.202	0.079
-145.545	-54.851	-0.363	0.161
-144.531	-122.702	0.175	-0.028
-143.516	-200.000	-0.036	0.395
-142.502	33.588	0.262	-0.224
-141.487	214.458	0.168	0.261
-140.472	-166.338	-0.197	0.008
-139.458	239.709	-0.202	0.330
-138.443	-49.010	-0.144	-0.068
-137.429	15.753	0.270	-0.208
-136.414	-200.000	-0.026	0.205
-135.399	-11.160	0.318	-0.206
-134.385	800.000	-0.044	-0.172
-133.370	386.198	-0.131	-0.266
-132.356	625.689	-0.108	0.268
-131.341	-200.000	0.036	-0.168
-130.326	49.975	-0.036	0.034
-129.312	137.368	-0.163	0.209
-128.297	-98.044	0.154	-0.039
-127.283	171.498	0.134	0.189
-126.268	587.314	0.147	0.355
-125.253	-200.000	0.000	0.074
-124.239	401.787	-0.150	0.309
-123.224	195.961	0.264	0.394
-122.210	-99.690	-0.271	-0.067
-121.195	-200.000	0.011	-0.187
-120.180	162.213	0.070	0.096
-119.166	-20.843	-0.292	-0.176
-118.151	-36.324	-0.008	-0.004
-117.137	151.755	0.025	-0.034
-116.122	36.320	-0.107	0.093
-115.107	-37.693	0.303	0.158
-114.093	63.133	0.203	0.199
-113.078	173.020	0.077	0.109
-112.064	800.000	-0.067	0.221
-111.049	-52.894	0.121	-0.055
-110.034	-155.426	-0.054	-0.003
-109.020	194.432	-0.156	0.232
-108.005	800.000	0.020	0.062
-106.991	-200.000	0.025	-0.187
-105.976	114.111	0.056	0.067
-104.962	-200.000	-0.068	-0.426
-103.947	-52.562	-0.370	0.168
-102.932	-200.000	0.031	-0.208
-101.918	-200.000	0.068	0.311
-100.903	63.609	-0.332	0.327
-99.889	131.517	-0.179	0.226
-98.874	-16.682	-0.216	0.134
-97.859	-114.592	0.025	-0.005
-96.845	139.624	-0.096	-0.125
-95.830	76.668	0.141	-0.147
-94.816	-103.082	0.140	-0.033
-93.801	53.695	0.144	-0.135
-92.786	-69.156	-0.163	0.062
-91.772	-200.000	0.050	0.356
-90.757	800.000	0.125	-0.401
-89.743	-73.928	-0.245	-0.087
-88.728	-121.289	0.404	0.066
-87.713	210.863	0.111	0.171
-86.699	109.440	0.024	-0.028
-85.684	232.786	0.118	-0.190
-84.670	800.000	0.066	0.236
-83.655	-84.356	0.236	0.073
-82.640	67.108	-0.071	-0.071
-81.626	37.305	0.118	0.103
-80.611	49.348	0.165	-0.152
-79.597	-200.000	-0.015	-0.488
-78.582	-89.672	-0.123	-0.035
-77.567	800.000	-0.101	-0.397
-76.553	259.920	-0.224	-0.380
-75.538	508.379	-0.048	-0.110
-74.524	-200.000	-0.009	-0.060
-73.509	9.210	-0.313	0.232
-72.494	-200.000	-0.031	0.262
-71.480	17.724	0.080	0.062
-70.465	-141.591	0.328	-0.032
-69.451	-108.089	0.026	0.005
-68.436	126.274	-0.183	-0.227
-67.422	353.027	-0.096	-0.186
-66.407	100.606	-0.165	-0.188
-65.392	-156.219	-0.205	0.013
-64.378	-51.095	0.129	-0.059
-63.363	292.224	0.087	0.156
-62.349	800.000	0.172	0.566
-61.334	71.134	-1.066	-1.083
-60.319	45.593	0.485	0.439
-59.305	800.000	-0.307	-0.996
-58.290	301.710	0.696	1.261
-57.276	799.643	0.600	1.621
-56.261	-200.000	104.301	586.636
-55.246	471.887	1456.951	3213.261
-54.232	150.176	2644.203	3515.253
-53.217	103.909	2284.600	2630.199
-52.203	40.908	1904.143	1683.475
-51.188	34.987	1696.426	1454.922
-50.173	32.316	1653.597	1398.302
-49.159	50.645	1704.294	1579.923
-48.144	51.953	1720.355	1604.609
-47.130	34.444	1679.321	1435.933
-46.115	31.690	1665.098	1403.117
-45.100	31.590	1660.340	1398.304
-44.086	31.553	1657.449	1395.538
-43.071	31.525	1654.725	1392.982
-42.057	31.590	1652.032	1391.145
-41.042	31.559	1650.141	1389.269
-40.027	31.676	1647.995	1388.274
-39.013	31.543	1646.501	1385.976
-37.998	31.466	1644.975	1384.061
-36.984	31.514	1643.998	1383.544
-35.969	31.635	1642.438	1383.069
-34.954	31.672	1640.545	1381.692
-33.940	31.714	1638.994	1380.642
-32.925	31.664	1637.313	1378.804
-31.911	31.679	1635.573	1377.389
-30.896	31.642	1633.861	1375.627
-29.881	31.593	1632.366	1373.953
-28.867	31.628	1630.801	1372.835
-27.852	31.655	1629.333	1371.742
-26.838	31.719	1627.536	1370.643
-25.823	31.742	1626.002	1369.465
-24.809	31.751	1625.472	1369.031
-23.794	31.662	1623.597	1366.749
-22.779	31.617	1621.692	1364.761
-21.765	31.611	1620.157	1363.374
-20.750	31.591	1619.144	1362.321
-19.736	31.723	1617.654	1361.972
-18.721	31.777	1616.063	1360.974
-17.706	31.670	1614.597	1358.904
-16.692	31.768	1612.920	1358.149
-15.677	31.671	1611.915	1356.549
-14.663	31.777	1610.530	1356.098
-13.648	31.763	1608.634	1354.344
-12.633	31.777	1607.117	1353.118
-11.619	31.682	1605.839	1351.302
-10.604	31.737	1604.230	1350.285
-9.590	31.718	1603.256	1349.278
-8.575	31.735	1601.743	1348.076
-7.560	31.681	1600.807	1346.843
-6.546	31.743	1599.295	1345.965
-5.531	31.765	1598.125	1345.087
-4.517	31.690	1597.060	1343.599
-3.502	31.673	1596.151	1342.659
-2.487	31.769	1594.297	1341.733
-1.473	30.939	1581.716	1325.187
-0.458	26.802	1558.763	1276.841
0.556	20.976	1556.186	1231.073
1.571	17.586	1577.374	1223.420
2.586	16.869	1589.546	1227.562
3.600	15.565	1537.640	1178.228
4.615	9.221	1431.741	1055.435
5.629	2.523	1368.806	966.780
6.644	1.196	1360.932	952.802
7.659	1.065	1359.707	951.034
8.673	1.005	1358.637	949.826
9.688	0.954	1356.330	947.810
10.702	0.803	1353.915	945.095
11.717	3.867	1357.928	966.991
12.731	11.295	1369.364	1021.745
13.746	16.734	1376.534	1061.179
14.761	17.627	1377.407	1067.351
15.775	17.063	1374.941	1061.818
16.790	16.002	1372.573	1053.267
17.804	15.271	1370.110	1046.721
18.819	14.969	1369.017	1043.909
19.834	14.677	1367.591	1040.907
20.848	14.341	1366.367	1037.790
21.863	14.101	1364.861	1035.063
22.877	13.966	1363.749	1033.288
23.892	13.917	1362.918	1032.263
24.907	13.866	1362.128	1031.254
25.921	13.897	1361.717	1031.047
26.936	13.994	1359.990	1030.251
27.950	14.022	1359.439	1029.912
28.965	14.034	1358.703	1029.337
29.980	14.081	1357.598	1028.701
30.994	14.104	1356.324	1027.791
32.009	14.123	1355.586	1027.258
33.023	14.112	1355.022	1026.670
34.038	14.051	1353.648	1025.164
35.053	14.075	1352.730	1024.522
36.067	14.075	1350.956	1023.087
37.082	14.109	1349.884	1022.393
38.096	14.116	1349.367	1021.959
39.111	14.073	1348.441	1020.904
40.126	14.123	1347.441	1020.362
41.140	14.008	1347.114	1019.317
42.155	13.867	1346.454	1017.865
43.169	13.920	1346.495	1018.127
44.184	13.902	1345.999	1017.552
45.199	13.936	1345.409	1017.226
46.213	13.927	1344.875	1016.677
47.228	13.987	1343.817	1016.153
48.242	14.112	1342.484	1015.820
49.257	13.970	1340.929	1013.684
50.271	14.041	1339.665	1013.076
51.286	14.028	1338.150	1011.758
52.301	14.072	1337.373	1011.353
53.315	13.962	1336.400	1009.855
54.330	13.945	1335.479	1008.968
55.344	13.863	1334.454	1007.604
56.359	13.960	1332.729	1006.800
57.374	13.868	1332.486	1005.974
58.388	13.921	1331.469	1005.436
59.403	13.926	1331.011	1005.030
60.417	13.927	1330.100	1004.263
61.432	13.819	1329.482	1003.050
62.447	13.811	1328.796	1002.400
63.461	13.874	1326.957	1001.302
64.476	13.898	1326.132	1000.738
65.490	13.810	1325.025	999.282
66.505	13.922	1323.530	998.740
67.520	13.876	1322.194	997.367
68.534	13.834	1321.164	996.251
69.549	13.963	1320.210	996.214
70.563	13.917	1319.322	995.180
71.578	13.783	1318.588	993.740
72.593	13.823	1317.518	993.084
73.607	13.766	1316.968	992.242
74.622	13.710	1315.870	990.988
75.636	13.671	1315.636	990.495
76.651	13.776	1314.522	990.192
77.666	13.709	1313.957	989.279
78.680	13.837	1313.539	989.641
79.695	13.961	1312.306	989.362
80.709	13.881	1311.919	988.506
81.724	13.944	1311.022	988.120
82.739	13.945	1310.137	987.373
83.753	13.962	1309.137	986.634
84.768	13.940	1308.055	985.600
85.782	14.077	1307.039	985.557
86.797	14.017	1305.512	983.963
87.812	13.987	1304.396	982.855
88.826	13.983	1303.355	981.964
89.841	13.999	1302.205	981.104
90.855	13.988	1301.149	980.159
91.870	14.004	1300.881	979.964
92.884	13.977	1299.925	978.999
93.899	14.056	1299.101	978.756
94.914	14.111	1298.234	978.337
95.928	14.158	1297.172	977.730
96.943	13.962	1296.664	976.106
97.957	13.973	1295.449	975.170
98.972	14.090	1294.212	974.838
99.987	14.051	1293.680	974.122
101.001	14.157	1292.460	973.738
102.016	14.094	1291.293	972.406
103.030	14.033	1290.435	971.314
104.045	14.018	1289.610	970.522
105.060	14.076	1288.182	969.702
106.074	14.066	1287.097	968.736
107.089	13.923	1285.556	966.662
108.103	13.917	1284.838	965.999
109.118	13.912	1283.297	964.730
110.133	13.949	1282.127	963.977
111.147	13.861	1280.920	962.475
112.162	13.951	1279.494	961.841
113.176	14.094	1278.093	961.530
114.191	14.092	1277.162	960.731
115.206	14.058	1276.499	959.950
116.220	14.007	1274.915	958.381
117.235	14.004	1274.071	957.645
118.249	13.969	1273.159	956.671
119.264	13.932	1271.929	955.450
120.279	13.944	1270.928	954.685
121.293	13.896	1269.641	953.355
122.308	14.068	1268.556	953.444
123.322	14.064	1267.741	952.722
124.337	13.937	1267.167	951.481
125.352	13.949	1265.500	950.214
126.366	13.985	1264.395	949.508
127.381	14.111	1263.159	949.213
128.395	13.951	1262.613	947.808
129.410	14.023	1261.278	947.128
130.424	13.936	1260.669	946.093
131.439	13.962	1259.856	945.547
132.454	14.086	1258.541	945.183
133.468	14.024	1258.015	944.351
134.483	13.932	1257.632	943.459
135.497	14.114	1256.041	943.210
136.512	14.026	1254.904	941.779
137.527	13.929	1253.284	939.928
138.541	14.029	1252.050	939.483
139.556	14.059	1250.656	938.522
140.570	14.159	1249.450	938.101
141.585	14.133	1247.939	936.738
142.600	14.149	1247.438	936.366
143.614	14.169	1246.215	935.483
144.629	14.138	1245.353	934.576
145.643	14.160	1244.427	933.921
146.658	14.145	1242.874	932.590
147.673	14.073	1241.652	931.185
148.687	14.084	1240.324	930.170
149.702	14.046	1239.182	929.019
150.716	14.097	1237.543	927.993
151.731	14.046	1236.921	927.158
152.746	14.079	1235.211	925.982
153.760	14.229	1233.776	925.659
154.775	14.192	1232.823	924.654
155.789	14.161	1232.027	923.804
156.804	14.206	1230.966	923.177
157.819	14.277	1229.695	922.536
158.833	14.208	1229.044	921.582
159.848	14.355	1227.700	921.307
160.862	14.290	1226.867	920.239
161.877	14.316	1225.861	919.547
162.892	14.196	1224.987	918.148
163.906	14.175	1224.402	917.510
164.921	14.226	1223.233	916.835
165.935	14.303	1222.571	916.683
166.950	14.273	1221.141	915.367
167.964	14.298	1220.643	915.049
168.979	14.295	1219.953	914.435
169.994	14.258	1219.152	913.551
171.008	14.295	1218.719	913.348
172.023	14.331	1217.893	912.846
173.037	14.349	1216.915	912.129
174.052	14.422	1216.030	911.782
175.067	14.401	1214.803	910.669
176.081	14.379	1213.571	909.545
177.096	14.258	1213.211	908.533
178.110	14.436	1212.026	908.535
179.125	14.334	1211.223	907.297
180.140	14.523	1209.185	906.722
181.154	14.428	1208.156	905.353
182.169	14.325	1207.813	904.458
183.183	14.444	1205.925	903.604
184.198	14.485	1205.019	903.069
185.213	14.500	1204.266	902.507
186.227	14.584	1202.939	901.889
187.242	14.582	1201.956	901.056
188.256	14.618	1200.860	900.354
189.271	14.650	1199.708	899.579
190.286	14.547	1198.985	898.406
191.300	14.449	1198.034	897.084
192.315	14.419	1197.879	896.729
193.329	14.357	1197.109	895.737
194.344	14.459	1196.198	895.525
195.359	14.540	1195.877	895.641
196.373	14.608	1195.368	895.545
197.388	14.557	1194.725	894.713
198.402	14.715	1193.714	894.720
199.417	14.747	1193.267	894.477
200.432	14.698	1192.408	893.491
201.446	14.735	1191.846	893.192
202.461	14.836	1190.824	892.884
203.475	14.777	1189.591	891.567
204.490	14.863	1188.592	891.200
205.504	14.839	1187.315	890.033
206.519	14.847	1186.139	889.118
207.534	14.826	1184.433	887.650
208.548	14.796	1184.207	887.242
209.563	14.795	1183.181	886.386
210.577	14.891	1182.314	886.169
211.592	14.861	1181.749	885.510
212.607	14.888	1180.962	884.983
213.621	14.883	1179.920	884.097
214.636	14.814	1179.143	883.071
215.650	14.930	1178.301	882.979
216.665	14.937	1177.579	882.393
217.680	14.972	1175.692	881.087
218.694	14.917	1175.524	880.595
219.709	14.965	1174.685	880.141
220.723	14.965	1173.870	879.451
221.738	15.067	1173.314	879.489
222.753	15.045	1172.809	878.920
223.767	15.010	1172.103	878.131
224.782	15.106	1171.041	877.758
225.796	15.093	1170.683	877.347
226.811	15.173	1169.797	877.020
227.826	15.092	1169.385	876.214
228.840	15.063	1168.880	875.605
229.855	15.096	1168.000	875.042
230.869	15.212	1166.906	874.750
231.884	15.147	1166.292	873.871
232.899	15.110	1165.528	873.031
233.913	15.107	1164.557	872.209
234.928	15.053	1163.704	871.211
235.942	15.124	1163.127	871.072
236.957	15.123	1162.305	870.373
237.972	15.069	1161.817	869.654
238.986	15.153	1161.422	869.716
240.001	15.246	1160.523	869.446
241.015	15.303	1159.392	868.821
242.030	15.250	1158.850	868.060
243.045	15.233	1157.986	867.249
244.059	15.219	1157.518	866.749
245.074	15.272	1156.666	866.308
246.088	15.392	1155.407	865.911
247.103	15.307	1154.757	864.909
248.117	15.324	1154.245	864.534
249.132	15.350	1153.576	864.091
250.147	15.396	1153.093	863.890
251.161	15.555	1151.881	863.720
252.176	15.358	1151.762	862.543
253.190	15.553	1150.716	862.687
254.205	15.595	1150.220	862.453
255.220	15.587	1149.527	861.818
256.234	15.596	1148.963	861.363
257.249	15.620	1147.951	860.650
258.263	15.665	1147.696	860.617
259.278	15.680	1146.739	859.898
260.293	15.660	1146.534	859.567
261.307	15.668	1146.075	859.183
262.322	15.763	1144.959	858.759
263.336	15.661	1144.574	857.873
264.351	15.814	1143.676	857.906
265.366	15.669	1143.568	857.008
266.380	15.661	1142.952	856.427
267.395	15.734	1141.813	855.871
268.409	15.727	1140.830	855.022
269.424	15.823	1140.194	854.960
270.439	15.732	1140.000	854.273
271.453	15.770	1139.031	853.668
272.468	15.748	1138.156	852.824
273.482	15.784	1137.208	852.218
274.497	15.775	1136.538	851.599
275.512	15.970	1136.066	852.154
276.526	15.832	1135.839	851.213
277.541	15.861	1134.700	850.427
278.555	15.931	1134.134	850.284
279.570	15.886	1133.226	849.297
280.585	15.922	1132.948	849.199
281.599	15.870	1131.489	847.765
282.614	16.011	1130.398	847.586
283.628	16.025	1129.303	846.759
284.643	15.997	1128.479	845.924
285.657	15.997	1127.757	845.312
286.672	16.022	1126.941	844.745
287.687	15.999	1126.069	843.905
288.701	16.035	1125.319	843.449
289.716	16.085	1124.429	842.959
290.730	16.002	1124.128	842.242
291.745	16.088	1123.032	841.772
292.760	16.087	1122.723	841.466
293.774	16.154	1121.943	841.137
294.789	16.241	1121.033	840.817
295.803	16.222	1120.853	840.514
296.818	16.125	1120.013	839.326
297.833	16.216	1118.856	838.834
298.847	16.178	1118.280	838.142
299.862	16.202	1117.344	837.482
300.876	16.242	1116.929	837.297
301.891	16.259	1116.186	836.751
302.906	16.252	1115.264	835.952
303.920	16.341	1114.464	835.718
304.935	16.295	1114.315	835.306
305.949	16.455	1113.361	835.308
306.964	16.439	1112.984	834.871
307.979	16.392	1112.202	833.978
308.993	16.374	1111.388	833.204
310.008	16.382	1110.539	832.536
311.022	16.435	1110.161	832.438
312.037	16.392	1109.249	831.468
313.052	16.447	1107.968	830.703
314.066	16.494	1107.395	830.432
315.081	16.441	1106.211	829.210
316.095	16.344	1105.627	828.224
317.110	16.431	1105.140	828.211
318.125	16.445	1104.454	827.696
319.139	16.388	1103.590	826.694
320.154	16.437	1103.163	826.542
321.168	16.497	1102.334	826.142
322.183	16.503	1101.521	825.486
323.197	16.507	1101.225	825.214
324.212	16.524	1100.840	824.935
325.227	16.512	1100.327	824.415
326.241	16.402	1099.569	823.241
327.256	16.613	1098.069	823.070
328.270	16.658	1097.355	822.683
329.285	16.490	1096.856	821.418
330.300	16.618	1095.999	821.325
331.314	16.569	1094.879	820.177
332.329	16.635	1094.073	819.820
333.343	16.592	1093.317	818.974
334.358	16.728	1092.584	819.008
335.373	16.724	1091.732	818.279
336.387	16.679	1090.834	817.316
337.402	16.738	1090.316	817.140
338.416	16.727	1089.747	816.588
339.431	16.801	1088.905	816.241
340.446	16.725	1088.437	815.453
341.460	16.811	1087.598	815.166
342.475	17.008	1086.485	815.208
343.489	16.868	1085.989	814.089
344.504	16.924	1085.017	813.559
345.519	16.821	1084.227	812.397
346.533	17.034	1083.313	812.664
347.548	16.988	1082.876	812.043
348.562	17.053	1081.750	811.435
349.577	17.031	1081.159	810.819
350.592	16.976	1080.375	809.893
351.606	16.756	1079.938	808.446
352.621	16.754	1079.345	807.920
353.635	16.940	1078.346	807.986
354.650	17.029	1077.390	807.622
355.665	16.952	1077.218	807.054
356.679	16.993	1076.597	806.713
357.694	17.044	1075.888	806.354
358.708	16.906	1075.515	805.349
359.723	17.090	1074.972	805.742
360.738	17.124	1073.842	804.987
361.752	17.052	1073.230	804.117
362.767	17.168	1072.807	804.278
363.781	17.066	1072.168	803.246
364.796	17.297	1071.509	803.772
365.810	17.272	1070.873	803.102
366.825	17.256	1070.337	802.558
367.840	17.401	1069.420	802.483
368.854	17.294	1069.404	801.892
369.869	17.473	1068.311	801.847
370.883	17.366	1067.404	800.592
371.898	17.276	1067.285	800.010
372.913	17.235	1066.859	799.425
373.927	17.333	1066.182	799.307
374.942	17.362	1065.558	798.906
375.956	17.342	1065.191	798.467
376.971	17.486	1064.400	798.477
377.986	17.523	1063.445	797.864
379.000	17.460	1063.223	797.332
380.015	17.425	1062.537	796.581
381.029	17.612	1061.933	796.934
382.044	17.513	1061.323	795.944
383.059	17.594	1060.207	795.412
384.073	17.618	1059.380	794.835
385.088	17.669	1058.476	794.322
386.102	17.653	1057.769	793.650
387.117	17.630	1057.041	792.925
388.132	17.654	1055.825	792.053
389.146	17.478	1055.653	791.036
390.161	17.610	1054.745	790.902
391.175	17.552	1053.820	789.868
392.190	17.560	1053.285	789.434
393.205	17.598	1052.619	789.041
394.219	17.597	1051.952	788.467
395.234	17.603	1050.998	787.711
396.248	17.524	1050.130	786.624
397.263	17.667	1048.787	786.208
398.278	17.603	1048.419	785.569
399.292	17.666	1048.122	785.563
400.307	17.748	1046.958	785.003
401.321	17.773	1046.306	784.558
402.336	17.771	1045.522	783.892
403.350	17.742	1045.103	783.372
404.365	17.722	1044.383	782.672
405.380	17.769	1043.463	782.129
406.394	17.773	1042.628	781.453
407.409	17.776	1042.340	781.182
408.423	17.898	1041.339	780.921
409.438	17.859	1040.709	780.203
410.453	17.946	1039.894	779.917
411.467	17.930	1039.717	779.646
412.482	17.912	1039.018	778.968
413.496	17.968	1038.097	778.464
414.511	18.049	1037.296	778.166
415.526	18.142	1037.006	778.301
416.540	18.058	1036.715	777.633
417.555	18.020	1036.268	777.054
418.569	18.144	1036.028	777.370
419.584	18.174	1035.138	776.769
420.599	18.072	1034.655	775.876
421.613	105.204	1321.716	1467.281
422.628	96.472	1363.507	1467.366
