DTS Sentinel unit serial number:	SN413079Multiplexer serial number:	ORYXHardware model number:	OX4-SRSoftware version number:	ORYX F/W v4.00 Oryx Data Collector v3.7.2.0data status	okinstallation	princeton_trtdifferential loss correction	single-endedforward channel	channel 2reverse channel	N/Adate	2019/09/18time	05:47:34forward acquisition time	60.00reverse acquisition time	0.00gamma	496.2192k internal	0.2349k external	0.2349temperature offset calibration	0.9985default loss term (dB/km)	0.3790temperature slope calibration	1.0000multiplexer offset coefficient	1.0000multiplexer slope coefficient	1.0000fibre end	0.00T internal ref (°C)	23.27T ext. ref 1 (°C)	0.19T ext. ref 2 (°C)	16.96length (m)	temperature (°C)	Stokes	anti-Stokes-747.200	-101.473	-0.218	-0.053
-746.185	114.424	0.202	0.245
-745.171	90.605	0.238	-0.267
-744.156	-42.041	-0.199	0.102
-743.142	-33.948	0.124	-0.068
-742.127	147.637	0.100	0.134
-741.112	751.308	0.099	0.266
-740.098	33.274	-0.249	0.215
-739.083	-164.052	-0.217	-0.010
-738.069	2.907	0.068	-0.049
-737.054	48.283	-0.240	0.225
-736.039	-200.000	-0.016	0.220
-735.025	-200.000	-0.054	0.579
-734.010	-95.260	0.228	0.061
-732.996	-200.000	0.062	-0.289
-731.981	52.001	-0.163	0.155
-730.966	3.945	0.075	0.055
-729.952	800.000	0.131	-0.402
-728.937	-29.550	-0.215	-0.123
-727.923	-200.000	-0.004	0.071
-726.908	-60.521	-0.212	0.090
-725.894	29.086	-0.018	-0.015
-724.879	-100.455	0.140	-0.035
-723.864	-200.000	0.007	0.311
-722.850	-41.243	-0.156	0.080
-721.835	144.596	0.054	-0.072
-720.821	-200.000	-0.032	-0.388
-719.806	-200.000	-0.027	0.244
-718.791	800.000	0.079	-0.260
-717.777	-104.389	0.324	0.075
-716.762	800.000	0.042	-0.118
-715.748	756.860	-0.038	-0.101
-714.733	800.000	-0.051	-0.165
-713.718	30.893	-0.205	-0.176
-712.704	800.000	0.131	-0.387
-711.689	-200.000	0.058	-0.258
-710.675	-39.406	-0.228	-0.119
-709.660	-70.059	-0.148	-0.056
-708.645	666.298	-0.182	-0.469
-707.631	-200.000	0.076	0.373
-706.616	152.106	-0.100	-0.136
-705.602	51.158	-0.116	0.109
-704.587	800.000	0.045	-0.128
-703.572	-200.000	0.082	0.360
-702.558	-200.000	-0.001	0.139
-701.543	800.000	0.019	-0.061
-700.529	-54.516	0.267	0.121
-699.514	800.000	-0.062	-0.209
-698.499	295.206	0.057	0.104
-697.485	183.822	0.023	0.034
-696.470	800.000	-0.030	0.104
-695.456	20.488	0.170	-0.137
-694.441	-67.776	0.151	-0.059
-693.426	-49.789	-0.213	0.101
-692.412	800.000	-0.048	-0.205
-691.397	40.417	-0.226	-0.203
-690.383	-75.778	-0.110	-0.039
-689.368	-200.000	-0.026	0.447
-688.354	15.308	0.174	-0.136
-687.339	703.808	-0.029	0.075
-686.324	170.121	-0.052	-0.074
-685.310	229.963	-0.091	-0.149
-684.295	-133.878	-0.173	0.021
-683.281	225.539	-0.197	0.318
-682.266	-38.830	0.219	-0.115
-681.251	-14.438	0.103	-0.066
-680.237	8.536	0.048	0.036
-679.222	-200.000	-0.071	-0.313
-678.208	-147.431	0.178	0.015
-677.193	800.000	0.100	-0.331
-676.178	197.973	0.269	-0.409
-675.164	-115.593	-0.325	-0.061
-674.149	9.797	-0.240	0.182
-673.135	-200.000	-0.030	0.256
-672.120	144.913	0.079	-0.106
-671.105	-55.522	-0.422	0.188
-670.091	-115.885	0.354	-0.066
-669.076	272.057	-0.262	-0.461
-668.062	0.261	-0.160	-0.114
-667.047	64.847	0.300	-0.301
-666.032	582.182	0.126	-0.307
-665.018	-79.913	-0.169	-0.056
-664.003	1.334	0.111	-0.080
-662.989	-23.593	-0.114	-0.068
-661.974	-131.400	-0.464	-0.061
-660.959	-136.776	0.083	-0.009
-659.945	308.423	0.040	0.075
-658.930	260.037	0.172	0.295
-657.916	52.514	0.127	-0.121
-656.901	161.017	0.143	-0.199
-655.886	-176.270	-0.181	-0.005
-654.872	94.785	-0.074	0.084
-653.857	152.111	0.049	0.067
-652.843	164.590	-0.195	0.274
-651.828	800.000	0.072	0.260
-650.814	66.813	0.208	-0.210
-649.799	-88.505	0.445	-0.132
-648.784	-178.326	0.298	-0.007
-647.770	-37.958	-0.197	-0.104
-646.755	800.000	0.067	-0.224
-645.741	-136.730	0.397	-0.046
-644.726	35.153	0.061	0.053
-643.711	497.436	-0.015	0.034
-642.697	-103.476	0.351	-0.082
-641.682	800.000	-0.085	-0.328
-640.668	-102.947	0.072	0.017
-639.653	296.946	-0.109	-0.199
-638.638	-112.948	-0.113	-0.022
-637.624	-10.228	-0.337	0.222
-636.609	800.000	-0.013	-0.046
-635.595	165.366	0.187	-0.263
-634.580	-83.924	-0.254	-0.080
-633.565	746.005	-0.110	-0.293
-632.551	-83.089	-0.145	-0.046
-631.536	14.250	-0.204	0.158
-630.522	-64.722	-0.116	0.047
-629.507	-79.488	0.151	-0.051
-628.492	-200.000	-0.047	-0.430
-627.478	45.835	0.207	-0.190
-626.463	-100.967	-0.267	-0.065
-625.449	48.660	-0.050	-0.046
-624.434	800.000	0.021	0.080
-623.419	642.405	0.181	0.459
-622.405	54.224	0.146	-0.140
-621.390	18.967	0.151	-0.120
-620.376	757.664	-0.123	-0.331
-619.361	-50.740	0.252	-0.118
-618.346	47.668	0.097	0.090
-617.332	239.406	0.077	0.127
-616.317	-112.398	0.131	-0.026
-615.303	315.221	0.134	-0.252
-614.288	-124.677	-0.354	-0.055
-613.273	-103.135	-0.128	-0.030
-612.259	33.759	0.136	0.118
-611.244	-73.165	0.108	0.039
-610.230	23.500	0.226	-0.185
-609.215	269.878	0.128	0.224
-608.201	-89.168	-0.319	-0.094
-607.186	-116.419	-0.153	0.028
-606.171	-120.119	0.120	-0.020
-605.157	19.502	-0.180	-0.143
-604.142	800.000	0.064	0.222
-603.128	800.000	-0.060	0.238
-602.113	-200.000	0.010	0.209
-601.098	93.441	0.258	0.290
-600.084	-157.901	0.069	0.004
-599.069	-200.000	-0.063	0.499
-598.055	-161.623	-0.149	0.008
-597.040	131.943	-0.166	-0.212
-596.025	800.000	-0.096	-0.385
-595.011	-156.924	0.063	-0.004
-593.996	-73.317	-0.166	-0.060
-592.982	-77.974	0.251	0.086
-591.967	71.093	0.016	-0.016
-590.952	40.553	0.100	0.089
-589.938	-58.427	0.220	-0.095
-588.923	-200.000	-0.039	0.339
-587.909	138.527	-0.239	-0.311
-586.894	-71.176	0.151	-0.056
-585.879	-200.000	-0.024	-0.107
-584.865	-41.071	-0.176	-0.090
-583.850	-92.420	-0.263	-0.073
-582.836	-94.019	-0.098	0.027
-581.821	19.468	0.164	-0.131
-580.806	255.269	0.157	-0.266
-579.792	166.242	0.278	-0.391
-578.777	-166.982	0.081	0.003
-577.763	-66.086	-0.109	-0.043
-576.748	-52.724	-0.503	0.230
-575.733	137.325	0.146	-0.190
-574.719	-200.000	-0.012	0.142
-573.704	800.000	0.080	-0.317
-572.690	-127.104	-0.284	-0.041
-571.675	79.706	-0.196	0.208
-570.661	-176.862	0.147	-0.004
-569.646	-37.092	0.121	0.064
-568.631	-156.659	-0.083	0.005
-567.617	800.000	-0.087	0.247
-566.602	471.063	0.066	0.148
-565.588	-200.000	0.023	0.241
-564.573	405.184	-0.069	-0.145
-563.558	109.949	-0.188	0.224
-562.544	-78.628	0.240	-0.081
-561.529	55.443	0.263	0.253
-560.515	-114.613	-0.315	0.060
-559.500	-200.000	-0.015	-0.176
-558.485	-116.936	-0.138	0.025
-557.471	94.830	-0.092	-0.104
-556.456	-200.000	-0.069	0.357
-555.442	-199.607	-0.470	0.002
-554.427	-120.263	0.296	0.050
-553.412	256.133	-0.083	-0.141
-552.398	-115.994	0.160	-0.029
-551.383	217.954	-0.189	-0.299
-550.369	-147.895	-0.303	-0.025
-549.354	206.079	-0.132	-0.204
-548.339	-33.905	0.300	0.164
-547.325	-94.003	-0.127	-0.035
-546.310	-21.478	0.165	-0.100
-545.296	636.555	0.041	-0.102
-544.281	204.102	-0.117	0.180
-543.266	-101.512	0.166	0.040
-542.252	123.387	-0.052	-0.065
-541.237	-157.892	-0.170	0.010
-540.223	-75.522	-0.252	0.089
-539.208	443.375	0.137	0.298
-538.193	-200.000	-0.037	-0.269
-537.179	89.235	-0.054	0.060
-536.164	259.798	-0.090	-0.154
-535.150	240.104	-0.135	-0.223
-534.135	-200.000	-0.032	-0.198
-533.121	37.843	0.126	-0.111
-532.106	800.000	0.043	-0.171
-531.091	407.831	0.092	-0.193
-530.077	-46.046	0.253	-0.124
-529.062	95.790	0.046	0.052
-528.048	159.598	0.057	0.079
-527.033	-56.152	-0.107	-0.047
-526.018	-31.851	0.170	-0.095
-525.004	690.125	-0.047	0.121
-523.989	-53.111	-0.280	-0.127
-522.975	581.134	-0.018	0.044
-521.960	98.591	0.202	0.230
-520.945	209.618	-0.125	-0.195
-519.931	26.878	0.228	0.190
-518.916	115.655	-0.037	0.045
-517.902	40.948	-0.156	-0.139
-516.887	-102.706	0.433	0.102
-515.872	-200.000	-0.001	-0.246
-514.858	17.707	-0.154	-0.121
-513.843	25.096	0.078	0.064
-512.829	403.768	0.116	-0.242
-511.814	-200.000	-0.051	-0.336
-510.799	-200.000	-0.105	0.482
-509.785	-128.314	-0.439	-0.062
-508.770	-35.668	0.199	-0.107
-507.756	800.000	-0.073	-0.254
-506.741	174.462	-0.156	0.223
-505.726	468.370	-0.137	0.305
-504.712	32.914	-0.178	-0.152
-503.697	800.000	-0.055	-0.203
-502.683	-200.000	-0.053	0.434
-501.668	312.832	0.117	0.217
-500.653	-172.620	-0.104	-0.003
-499.639	-193.494	0.518	-0.004
-498.624	-72.623	0.065	-0.024
-497.610	-59.441	-0.114	0.049
-496.595	-122.772	-0.088	0.014
-495.581	-134.824	0.266	0.032
-494.566	294.369	0.026	-0.047
-493.551	367.296	0.083	-0.166
-492.537	1.944	-0.153	-0.109
-491.522	122.004	0.185	-0.228
-490.508	-112.020	-0.686	0.137
-489.493	327.608	0.102	-0.193
-488.478	254.808	-0.157	0.266
-487.464	87.837	-0.211	-0.231
-486.449	-57.860	-0.200	0.086
-485.435	142.869	0.051	-0.067
-484.420	-27.882	0.385	-0.220
-483.405	-113.998	0.126	0.024
-482.391	-200.000	0.049	0.254
-481.376	-99.761	-0.250	-0.062
-480.362	596.254	0.063	-0.155
-479.347	-37.077	-0.220	-0.117
-478.332	18.394	0.141	-0.111
-477.318	-2.988	0.154	-0.106
-476.303	87.765	-0.022	0.024
-475.289	-56.309	0.163	-0.072
-474.274	384.893	0.066	-0.134
-473.259	-92.300	0.114	-0.032
-472.245	-30.814	-0.059	-0.033
-471.230	31.267	-0.141	-0.119
-470.216	-58.913	-0.178	0.076
-469.201	800.000	-0.024	0.073
-468.186	-130.043	-0.185	0.025
-467.172	-128.195	-0.147	-0.021
-466.157	13.157	0.185	0.141
-465.143	-164.270	0.257	-0.012
-464.128	142.713	-0.326	0.428
-463.113	100.030	0.074	0.085
-462.099	-22.775	-0.286	-0.171
-461.084	-30.048	0.274	0.154
-460.070	-110.420	0.450	0.092
-459.055	-200.000	-0.019	0.132
-458.040	800.000	-0.056	0.157
-457.026	267.408	-0.115	-0.198
-456.011	-116.517	0.082	-0.015
-454.997	-74.125	-0.106	-0.038
-453.982	-130.305	0.190	0.026
-452.968	-134.683	0.310	0.037
-451.953	19.041	0.050	0.040
-450.938	38.032	-0.333	-0.293
-449.924	62.872	0.232	-0.229
-448.909	136.393	0.131	-0.169
-447.895	-200.000	0.015	0.133
-446.880	-17.719	-0.112	-0.069
-445.865	800.000	0.053	-0.204
-444.851	77.300	0.178	-0.187
-443.836	331.297	-0.100	-0.191
-442.822	13.125	0.078	0.060
-441.807	40.794	-0.168	0.149
-440.792	241.419	-0.071	-0.117
-439.778	-200.000	0.007	-0.043
-438.763	97.677	0.099	-0.112
-437.749	-108.467	0.211	-0.045
-436.734	-134.286	-0.277	-0.034
-435.719	154.209	-0.262	-0.354
-434.705	-118.608	0.267	0.047
-433.690	12.876	0.098	0.075
-432.676	-200.000	0.027	-0.160
-431.661	-38.051	-0.122	0.064
-430.646	303.736	-0.266	-0.487
-429.632	39.964	0.153	0.136
-428.617	-200.000	0.093	0.407
-427.603	-88.922	-0.171	0.050
-426.588	98.358	-0.108	0.123
-425.573	680.018	-0.156	0.401
-424.559	154.685	-0.093	-0.126
-423.544	101.265	-0.094	0.108
-422.530	698.044	0.059	-0.154
-421.515	-15.931	-0.198	0.124
-420.500	-70.281	0.161	0.060
-419.486	115.826	-0.140	-0.169
-418.471	90.912	-0.040	-0.044
-417.457	-90.260	-0.136	-0.039
-416.442	800.000	0.114	-0.331
-415.428	-94.404	0.305	0.082
-414.413	27.740	-0.297	0.246
-413.398	442.883	0.092	0.199
-412.384	-63.403	-0.116	0.047
-411.369	197.942	-0.067	-0.101
-410.355	-187.245	-0.301	0.004
-409.340	-200.000	0.009	-0.098
-408.325	-200.000	-0.027	0.253
-407.311	-200.000	-0.037	-0.200
-406.296	800.000	0.087	0.340
-405.282	289.779	-0.086	0.155
-404.267	800.000	0.107	0.420
-403.252	-88.590	-0.078	0.023
-402.238	328.639	0.088	0.167
-401.223	632.900	0.078	0.194
-400.209	39.012	-0.099	-0.087
-399.194	800.000	-0.014	0.057
-398.179	131.736	0.154	-0.196
-397.165	451.978	-0.021	0.047
-396.150	45.926	-0.075	-0.068
-395.136	-18.682	0.279	-0.172
-394.121	-86.361	0.262	-0.079
-393.106	-72.068	0.183	0.067
-392.092	-200.000	0.010	-0.290
-391.077	-200.000	-0.028	0.151
-390.063	73.998	0.047	-0.048
-389.048	-107.932	-0.140	-0.030
-388.033	-86.378	-0.154	-0.047
-387.019	-27.576	0.331	-0.189
-386.004	-22.788	-0.066	0.039
-384.990	-111.210	-0.099	-0.020
-383.975	-151.558	-0.175	-0.013
-382.960	800.000	0.075	0.219
-381.946	-200.000	0.041	0.201
-380.931	543.348	-0.131	0.308
-379.917	800.000	-0.032	0.093
-378.902	22.591	-0.162	-0.131
-377.888	-200.000	-0.009	0.142
-376.873	143.993	-0.170	0.223
-375.858	-78.093	0.127	-0.043
-374.844	168.553	-0.059	0.083
-373.829	86.425	-0.103	-0.112
-372.815	-118.872	0.293	0.051
-371.800	35.232	-0.146	0.126
-370.785	-200.000	0.002	-0.214
-369.771	210.779	0.052	-0.080
-368.756	-104.990	0.267	-0.060
-367.742	44.795	0.116	0.105
-366.727	184.984	-0.021	-0.030
-365.712	154.902	-0.186	-0.252
-364.698	10.467	-0.335	-0.251
-363.683	72.262	0.142	0.145
-362.669	-20.080	-0.070	0.043
-361.654	-116.836	-0.315	0.057
-360.639	-135.523	0.210	-0.025
-359.625	10.380	-0.132	-0.099
-358.610	-128.215	0.382	-0.054
-357.596	-95.658	-0.145	-0.038
-356.581	131.637	-0.117	0.148
-355.566	-200.000	-0.035	-0.408
-354.552	242.862	0.299	0.492
-353.537	-168.284	0.159	-0.006
-352.523	27.913	-0.241	-0.200
-351.508	-99.710	0.150	-0.037
-350.493	53.125	-0.250	-0.235
-349.479	-200.000	0.003	0.170
-348.464	-69.286	0.083	-0.031
-347.450	345.246	0.113	0.219
-346.435	800.000	0.089	-0.257
-345.420	-125.516	0.275	0.041
-344.406	93.641	0.166	0.185
-343.391	-200.000	0.095	-0.447
-342.377	80.214	-0.109	-0.116
-341.362	42.989	-0.031	0.028
-340.348	-130.605	0.376	-0.050
-339.333	74.311	0.070	-0.073
-338.318	35.126	0.148	-0.128
-337.304	336.054	-0.110	-0.209
-336.289	-89.979	-0.254	-0.073
-335.275	800.000	-0.037	-0.111
-334.260	-128.274	0.429	-0.060
-333.245	159.355	0.054	-0.074
-332.231	30.599	-0.155	0.131
-331.216	-128.218	-0.346	0.049
-330.202	74.775	-0.056	0.058
-329.187	-46.789	-0.222	0.107
-328.172	-39.230	0.203	-0.105
-327.158	-170.695	0.215	0.007
-326.143	61.725	0.224	-0.219
-325.129	-1.824	-0.201	-0.139
-324.114	420.163	-0.093	-0.195
-323.099	740.071	-0.027	-0.071
-322.085	-71.038	0.063	-0.023
-321.070	142.946	-0.018	-0.024
-320.056	800.000	0.069	0.256
-319.041	-122.131	0.085	-0.014
-318.026	-200.000	0.023	-0.255
-317.012	-200.000	-0.029	-0.285
-315.997	-30.644	0.122	0.068
-314.983	-53.124	0.074	0.034
-313.968	-200.000	0.006	0.173
-312.953	-91.344	0.167	-0.047
-311.939	-73.356	-0.151	-0.054
-310.924	-93.260	-0.284	0.077
-309.910	367.403	-0.169	-0.335
-308.895	81.983	-0.143	0.152
-307.880	16.792	-0.106	0.082
-306.866	27.060	0.099	0.082
-305.851	800.000	-0.009	-0.026
-304.837	-20.471	-0.168	-0.101
-303.822	-33.093	0.110	-0.060
-302.807	-109.612	-0.405	-0.084
-301.793	-111.883	0.338	0.067
-300.778	-200.000	-0.026	-0.156
-299.764	-43.810	0.093	0.046
-298.749	39.896	-0.217	0.191
-297.735	-24.534	-0.149	-0.087
-296.720	48.243	0.173	-0.159
-295.705	800.000	0.031	-0.110
-294.691	180.903	-0.106	0.153
-293.676	-1.649	-0.096	-0.067
-292.662	206.859	0.072	0.111
-291.647	-163.748	0.171	0.008
-290.632	281.506	0.151	0.266
-289.618	-56.774	0.367	0.159
-288.603	-30.145	-0.438	0.244
-287.589	77.682	0.170	0.178
-286.574	-200.000	-0.036	-0.285
-285.559	800.000	-0.025	-0.101
-284.545	695.671	-0.184	0.475
-283.530	193.495	-0.085	0.127
-282.516	-105.166	0.504	-0.113
-281.501	-10.809	0.102	0.066
-280.486	127.708	-0.030	-0.037
-279.472	196.365	-0.114	-0.170
-278.457	800.000	-0.036	0.101
-277.443	-38.026	-0.334	0.174
-276.428	-108.780	0.209	-0.044
-275.413	433.754	-0.251	0.534
-274.399	90.443	-0.188	0.206
-273.384	69.449	0.097	-0.098
-272.370	-75.505	-0.375	0.131
-271.355	35.979	0.152	-0.131
-270.340	-26.450	0.228	-0.131
-269.326	800.000	-0.077	-0.292
-268.311	277.478	-0.118	-0.206
-267.297	-47.045	-0.509	0.244
-266.282	-200.000	0.007	0.048
-265.267	-200.000	-0.052	0.279
-264.253	-200.000	0.018	-0.139
-263.238	130.304	-0.112	-0.140
-262.224	-88.949	-0.080	-0.023
-261.209	-125.760	-0.302	-0.045
-260.195	800.000	-0.087	-0.283
-259.180	15.393	0.007	0.005
-258.165	-200.000	-0.001	0.157
-257.151	-74.245	0.495	0.175
-256.136	4.932	-0.146	0.105
-255.122	-86.659	0.183	0.055
-254.107	-5.675	-0.247	-0.166
-253.092	-86.616	0.111	0.033
-252.078	-77.093	-0.131	0.045
-251.063	193.665	-0.026	-0.039
-250.049	-108.650	-0.231	-0.049
-249.034	-143.852	0.013	-0.001
-248.019	800.000	0.085	-0.263
-247.005	-84.616	0.304	0.094
-245.990	-29.771	0.288	0.161
-244.976	-180.865	-0.328	-0.007
-243.961	192.023	-0.098	0.144
-242.946	100.004	-0.243	0.275
-241.932	-56.609	-0.301	-0.131
-240.917	-200.000	0.072	0.359
-239.903	800.000	0.071	-0.253
-238.888	46.429	-0.049	-0.045
-237.873	47.379	0.240	0.219
-236.859	167.105	-0.177	0.246
-235.844	800.000	0.025	0.106
-234.830	74.002	-0.118	-0.121
-233.815	460.373	-0.037	-0.081
-232.800	88.563	0.226	-0.246
-231.786	59.683	0.136	-0.132
-230.771	800.000	0.102	-0.307
-229.757	-168.589	-0.196	0.007
-228.742	-27.732	0.199	-0.113
-227.727	-28.389	-0.148	-0.083
-226.713	-139.547	-0.327	-0.034
-225.698	168.848	-0.055	-0.076
-224.684	-146.733	0.184	-0.016
-223.669	71.718	0.190	0.194
-222.655	152.493	-0.107	0.143
-221.640	-75.142	0.106	0.037
-220.625	84.850	0.098	0.105
-219.611	265.312	0.192	0.327
-218.596	-76.879	0.242	0.083
-217.582	800.000	0.109	0.352
-216.567	-200.000	-0.172	0.000
-215.552	800.000	-0.077	0.209
-214.538	800.000	0.097	0.283
-213.523	184.842	0.127	0.184
-212.509	-25.854	-0.071	0.041
-211.494	554.835	0.110	0.259
-210.479	-0.019	0.051	-0.036
-209.465	-118.335	-0.119	-0.021
-208.450	508.840	-0.056	-0.127
-207.436	-200.000	0.043	-0.215
-206.421	-200.000	-0.065	0.320
-205.406	352.788	-0.071	0.138
-204.392	-38.412	0.196	-0.101
-203.377	800.000	0.059	0.227
-202.363	119.237	0.184	0.222
-201.348	-102.029	0.481	0.113
-200.333	-67.178	-0.144	0.056
-199.319	7.880	0.194	0.142
-198.304	68.579	-0.197	-0.198
-197.290	-200.000	0.029	0.202
-196.275	-40.820	-0.173	0.088
-195.260	-200.000	-0.038	0.325
-194.246	-164.715	0.276	0.012
-193.231	-143.272	-0.267	0.025
-192.217	-10.006	-0.058	0.038
-191.202	73.572	0.053	-0.055
-190.187	6.032	-0.095	-0.069
-189.173	-12.541	0.079	0.050
-188.158	42.343	0.088	0.078
-187.144	-200.000	0.060	0.296
-186.129	2.689	-0.215	0.152
-185.114	30.466	-0.144	0.121
-184.100	-84.668	0.335	0.103
-183.085	109.593	0.064	-0.075
-182.071	-120.623	0.195	0.032
-181.056	-89.698	0.097	0.028
-180.042	-35.531	-0.121	-0.064
-179.027	-69.824	0.221	-0.083
-178.012	395.460	0.013	-0.027
-176.998	-118.095	-0.304	-0.053
-175.983	716.321	-0.043	0.111
-174.969	433.904	-0.014	-0.030
-173.954	-90.038	0.213	-0.061
-172.939	125.510	-0.063	0.077
-171.925	-169.992	0.267	-0.009
-170.910	-200.000	0.002	-0.150
-169.896	-200.000	0.010	0.111
-168.881	-94.374	-0.165	-0.044
-167.866	195.243	0.131	0.195
-166.852	-162.092	0.221	0.011
-165.837	38.900	-0.108	-0.095
-164.823	333.536	0.076	0.144
-163.808	257.184	-0.142	-0.238
-162.793	171.447	0.096	0.135
-161.779	-200.000	0.003	0.354
-160.764	-8.071	-0.174	0.115
-159.750	226.212	0.176	-0.278
-158.735	800.000	0.045	0.159
-157.720	800.000	0.043	0.123
-156.706	-115.566	0.323	0.059
-155.691	-200.000	-0.009	0.058
-154.677	-51.364	-0.069	0.031
-153.662	-184.519	0.130	-0.002
-152.647	-80.045	-0.051	0.017
-151.633	-200.000	0.004	-0.141
-150.618	-200.000	0.011	-0.098
-149.604	114.349	0.088	0.104
-148.589	92.230	0.146	-0.160
-147.574	519.159	-0.069	-0.158
-146.560	92.376	0.196	0.215
-145.545	-138.227	0.082	-0.009
-144.531	-172.830	-0.136	-0.004
-143.516	-53.731	-0.136	0.060
-142.502	-200.000	0.012	0.103
-141.487	-200.000	0.004	0.210
-140.472	-129.462	-0.238	-0.032
-139.458	-200.000	0.012	-0.426
-138.443	-200.000	0.000	0.053
-137.429	145.244	0.145	-0.189
-136.414	84.475	-0.206	-0.220
-135.399	-28.905	0.045	0.025
-134.385	161.930	0.139	-0.190
-133.370	-89.164	0.333	0.096
-132.356	238.407	-0.021	-0.034
-131.341	-200.000	0.017	-0.359
-130.326	-200.000	-0.051	-0.238
-129.312	-52.273	-0.248	0.112
-128.297	116.232	0.036	-0.043
-127.283	-200.000	-0.049	0.315
-126.268	164.786	-0.069	0.095
-125.253	800.000	-0.131	-0.365
-124.239	-53.893	-0.117	-0.052
-123.224	-200.000	-0.013	-0.151
-122.210	-200.000	-0.003	0.111
-121.195	3.337	0.404	0.287
-120.180	11.389	-0.040	-0.030
-119.166	-137.086	-0.095	0.011
-118.151	-200.000	0.015	-0.352
-117.137	-20.933	0.260	0.155
-116.122	91.199	0.091	-0.099
-115.107	-101.526	-0.188	-0.044
-114.093	-105.597	0.200	-0.044
-113.078	-28.802	-0.190	-0.106
-112.064	623.272	-0.095	-0.234
-111.049	800.000	0.020	0.075
-110.034	-200.000	-0.012	-0.397
-109.020	165.680	0.077	-0.107
-108.005	-138.374	0.067	-0.007
-106.991	188.280	-0.083	-0.121
-105.976	317.786	-0.040	0.073
-104.962	-120.380	0.245	0.041
-103.947	-200.000	0.068	-0.306
-102.932	-33.398	0.253	0.136
-101.918	77.079	-0.163	-0.169
-100.903	-88.280	-0.178	-0.052
-99.889	-152.948	-0.127	-0.009
-98.874	-41.017	0.068	-0.034
-97.859	-150.177	-0.401	-0.030
-96.845	800.000	-0.060	0.243
-95.830	800.000	0.106	0.393
-94.816	56.225	0.097	0.092
-93.801	-102.167	0.181	-0.042
-92.786	444.548	0.040	0.085
-91.772	2.177	0.240	0.169
-90.757	-17.765	-0.044	-0.027
-89.743	111.684	-0.120	-0.141
-88.728	-94.149	0.358	0.095
-87.713	800.000	0.121	0.335
-86.699	-200.000	-0.026	0.338
-85.684	140.371	-0.049	0.063
-84.670	78.068	0.044	0.046
-83.655	-200.000	0.049	-0.268
-82.640	-200.000	0.056	0.261
-81.626	-120.964	0.187	-0.031
-80.611	228.434	0.227	-0.360
-79.597	-200.000	-0.016	-0.313
-78.582	-72.801	0.200	0.072
-77.567	-104.088	0.193	0.044
-76.553	-200.000	-0.000	0.084
-75.538	-140.006	0.394	-0.040
-74.524	-119.460	-0.122	-0.021
-73.509	-200.000	0.073	-0.443
-72.494	34.720	-0.123	-0.105
-71.480	-55.910	0.102	-0.044
-70.465	-78.143	0.229	0.077
-69.451	-152.805	0.192	0.013
-68.436	205.170	0.110	0.166
-67.422	50.215	0.105	-0.096
-66.407	671.510	0.069	0.174
-65.392	18.403	0.149	-0.116
-64.378	-70.624	-0.359	0.132
-63.363	-63.111	-0.109	-0.044
-62.349	-200.000	-0.046	0.312
-61.334	1.677	-1.377	-0.964
-60.319	98.703	0.557	0.625
-59.305	800.000	-0.417	-1.384
-58.290	174.585	0.921	1.296
-57.276	420.909	0.716	1.492
-56.261	-200.000	125.100	657.323
-55.246	413.330	1580.056	3266.668
-54.232	140.737	2751.450	3533.613
-53.217	89.875	2310.169	2508.030
-52.203	32.572	1915.171	1609.205
-51.188	26.261	1710.821	1389.092
-50.173	24.176	1672.274	1342.054
-49.159	46.493	1740.872	1569.700
-48.144	43.733	1752.307	1558.728
-47.130	25.907	1704.577	1381.091
-46.115	23.429	1688.505	1349.182
-45.100	23.270	1683.653	1344.044
-44.086	23.217	1681.105	1341.552
-43.071	23.039	1679.394	1338.786
-42.057	23.144	1676.703	1337.388
-41.042	23.218	1674.686	1336.279
-40.027	23.281	1672.817	1335.209
-39.013	23.208	1670.676	1332.902
-37.998	23.166	1669.195	1331.351
-36.984	23.160	1668.590	1330.769
-35.969	23.268	1667.002	1330.264
-34.954	23.284	1665.369	1329.023
-33.940	23.214	1663.510	1326.964
-32.925	23.203	1661.761	1325.437
-31.911	23.189	1660.601	1324.353
-30.896	23.323	1658.378	1323.526
-29.881	23.287	1657.293	1322.340
-28.867	23.279	1655.631	1320.904
-27.852	23.331	1653.839	1319.811
-26.838	23.192	1653.196	1318.206
-25.823	23.248	1651.468	1317.196
-24.809	23.303	1650.081	1316.446
-23.794	23.233	1648.918	1314.945
-22.779	23.380	1647.074	1314.509
-21.765	23.295	1645.022	1312.192
-20.750	23.254	1643.454	1310.586
-19.736	23.291	1642.632	1310.152
-18.721	23.298	1641.371	1309.148
-17.706	23.276	1639.914	1307.770
-16.692	23.252	1638.107	1306.098
-15.677	23.268	1636.886	1305.192
-14.663	23.307	1635.493	1304.318
-13.648	23.327	1634.104	1303.302
-12.633	23.291	1632.436	1301.657
-11.619	23.248	1631.238	1300.337
-10.604	23.329	1629.642	1299.604
-9.590	23.272	1628.277	1298.044
-8.575	23.302	1626.844	1297.075
-7.560	23.296	1625.729	1296.085
-6.546	23.328	1624.507	1295.299
-5.531	23.363	1623.259	1294.508
-4.517	23.332	1622.690	1293.779
-3.502	23.296	1620.966	1292.090
-2.487	23.304	1619.637	1291.031
-1.473	22.916	1606.891	1278.017
-0.458	19.936	1586.861	1240.712
0.556	14.790	1588.214	1208.437
1.571	12.582	1611.256	1209.639
2.586	12.413	1623.288	1217.319
3.600	11.439	1569.579	1169.954
4.615	6.423	1461.787	1055.959
5.629	1.286	1403.198	980.425
6.644	0.354	1395.998	969.311
7.659	0.115	1395.624	967.435
8.673	0.136	1394.378	966.621
9.688	0.175	1392.422	965.427
10.702	0.047	1388.665	961.915
11.717	2.536	1392.118	980.169
12.731	9.359	1402.522	1031.275
13.746	15.033	1410.566	1073.594
14.761	16.633	1413.124	1085.719
15.775	16.141	1410.840	1080.711
16.790	15.214	1408.104	1072.592
17.804	14.466	1406.305	1066.343
18.819	14.022	1405.005	1062.428
19.834	13.819	1403.270	1059.724
20.848	13.715	1401.870	1057.906
21.863	13.336	1401.091	1054.808
22.877	13.304	1399.389	1053.233
23.892	13.196	1398.554	1051.825
24.907	13.122	1398.125	1050.934
25.921	13.214	1396.746	1050.392
26.936	13.217	1396.225	1049.924
27.950	13.253	1395.247	1049.325
28.965	13.268	1393.831	1048.261
29.980	13.257	1393.025	1047.496
30.994	13.373	1392.499	1047.739
32.009	13.422	1390.941	1046.789
33.023	13.397	1390.216	1045.988
34.038	13.390	1388.838	1044.818
35.053	13.356	1387.501	1043.507
36.067	13.340	1386.443	1042.518
37.082	13.364	1385.300	1041.717
38.096	13.273	1384.369	1040.353
39.111	13.402	1383.619	1040.508
40.126	13.338	1382.717	1039.333
41.140	13.292	1382.032	1038.438
42.155	13.167	1381.402	1037.089
43.169	13.192	1381.330	1037.095
44.184	13.192	1380.936	1036.713
45.199	13.195	1380.581	1036.371
46.213	13.287	1379.762	1036.241
47.228	13.294	1378.841	1035.505
48.242	13.336	1377.623	1034.757
49.257	13.241	1376.324	1033.099
50.271	13.345	1374.816	1032.525
51.286	13.353	1373.260	1031.314
52.301	13.321	1372.162	1030.200
53.315	13.244	1370.742	1028.559
54.330	13.227	1370.032	1027.834
55.344	13.255	1368.664	1026.886
56.359	13.263	1367.366	1025.874
57.374	13.129	1367.109	1024.760
58.388	13.146	1365.958	1023.910
59.403	13.154	1365.627	1023.622
60.417	13.213	1364.549	1023.089
61.432	13.152	1363.762	1022.031
62.447	12.945	1362.873	1019.991
63.461	13.108	1360.927	1019.452
64.476	13.158	1360.004	1018.977
65.490	13.101	1358.845	1017.673
66.505	13.113	1357.413	1016.581
67.520	13.119	1356.621	1015.935
68.534	13.137	1355.219	1014.905
69.549	13.111	1354.088	1013.811
70.563	13.073	1353.270	1012.874
71.578	13.049	1352.138	1011.791
72.593	12.989	1351.059	1010.525
73.607	13.031	1350.264	1010.102
74.622	12.930	1349.319	1008.683
75.636	13.078	1348.604	1008.966
76.651	13.087	1348.056	1008.523
77.666	13.150	1347.062	1008.072
78.680	13.075	1346.654	1007.223
79.695	13.064	1346.116	1006.666
80.709	13.124	1345.021	1006.122
81.724	13.261	1343.875	1006.007
82.739	13.115	1343.277	1004.585
83.753	13.139	1341.972	1003.664
84.768	13.175	1341.375	1003.349
85.782	13.307	1339.841	1002.910
86.797	13.242	1338.814	1001.659
87.812	13.133	1337.337	999.807
88.826	13.173	1335.908	998.890
89.841	13.271	1334.984	998.704
90.855	13.239	1334.037	997.716
91.870	13.292	1333.042	997.202
92.884	13.349	1332.244	996.859
93.899	13.381	1331.661	996.529
94.914	13.314	1330.761	995.362
95.928	13.446	1329.943	995.457
96.943	13.364	1328.765	993.997
97.957	13.351	1327.833	993.130
98.972	13.287	1326.967	992.014
99.987	13.363	1325.818	991.521
101.001	13.412	1324.714	990.899
102.016	13.325	1323.894	989.682
103.030	13.437	1322.853	989.482
104.045	13.466	1321.954	988.899
105.060	13.280	1320.530	986.637
106.074	13.163	1319.821	985.317
107.089	13.201	1317.989	984.090
108.103	13.199	1316.938	983.208
109.118	13.108	1315.550	981.544
110.133	13.122	1314.439	980.709
111.147	13.131	1313.178	979.736
112.162	13.240	1311.548	979.081
113.176	13.184	1310.940	978.209
114.191	13.337	1309.462	977.924
115.206	13.233	1308.533	976.526
116.220	13.174	1307.259	975.145
117.235	13.263	1306.127	974.734
118.249	13.274	1305.049	973.908
119.264	13.210	1303.814	972.528
120.279	13.258	1302.708	971.899
121.293	13.192	1301.584	970.584
122.308	13.283	1300.535	970.248
123.322	13.180	1299.736	968.964
124.337	13.342	1298.414	968.841
125.352	13.218	1297.530	967.370
126.366	13.209	1296.127	966.186
127.381	13.191	1294.679	964.920
128.395	13.223	1293.745	964.326
129.410	13.275	1292.898	963.907
130.424	13.191	1292.375	962.947
131.439	13.215	1291.304	962.202
132.454	13.343	1289.468	961.493
133.468	13.243	1289.104	960.554
134.483	13.210	1288.340	959.710
135.497	13.196	1287.392	958.835
136.512	13.272	1285.844	958.042
137.527	13.232	1284.482	956.709
138.541	13.227	1282.891	955.408
139.556	13.302	1281.698	954.869
140.570	13.282	1280.851	954.038
141.585	13.528	1279.172	954.120
142.600	13.457	1277.720	952.545
143.614	13.369	1277.692	951.932
144.629	13.457	1276.057	951.139
145.643	13.270	1275.716	949.722
146.658	13.413	1273.958	949.153
147.673	13.428	1272.169	947.820
148.687	13.390	1271.479	947.003
149.702	13.423	1269.822	945.874
150.716	13.375	1268.722	944.698
151.731	13.296	1267.704	943.409
152.746	13.356	1266.330	942.643
153.760	13.418	1265.318	942.159
154.775	13.366	1264.025	940.818
155.789	13.574	1262.799	941.004
156.804	13.386	1262.128	939.352
157.819	13.460	1261.393	939.143
158.833	13.622	1260.009	938.948
159.848	13.617	1259.059	938.130
160.862	13.550	1258.053	936.914
161.877	13.452	1256.953	935.460
162.892	13.480	1256.053	934.868
163.906	13.536	1254.966	934.290
164.921	13.514	1254.181	933.498
165.935	13.521	1252.992	932.571
166.950	13.538	1252.488	932.210
167.964	13.585	1251.791	931.869
168.979	13.489	1250.955	930.629
169.994	13.599	1250.086	930.518
171.008	13.650	1248.811	929.768
172.023	13.640	1248.423	929.345
173.037	13.658	1247.428	928.625
174.052	13.728	1246.151	927.978
175.067	13.662	1245.869	927.317
176.081	13.694	1244.629	926.491
177.096	13.639	1243.526	925.283
178.110	13.621	1242.704	924.490
179.125	13.785	1241.060	924.099
180.140	13.694	1239.994	922.714
181.154	13.661	1239.314	921.946
182.169	13.653	1237.845	920.726
183.183	13.801	1236.942	920.794
184.198	13.768	1235.725	919.622
185.213	13.780	1234.379	918.605
186.227	13.802	1233.351	917.883
187.242	13.955	1232.466	917.989
188.256	13.949	1231.520	917.171
189.271	13.875	1230.514	915.930
190.286	13.856	1229.442	914.950
191.300	13.667	1228.949	913.457
192.315	13.631	1228.077	912.532
193.329	13.697	1227.283	912.222
194.344	13.660	1227.051	911.766
195.359	13.751	1226.004	911.410
196.373	13.894	1225.436	911.690
197.388	13.992	1225.225	911.993
198.402	14.016	1224.186	911.269
199.417	14.004	1223.786	910.822
200.432	13.940	1223.161	909.927
201.446	14.165	1221.762	910.035
202.461	14.144	1220.964	909.246
203.475	14.160	1219.775	908.369
204.490	14.123	1218.486	907.127
205.504	14.009	1217.297	905.538
206.519	14.033	1216.424	904.939
207.534	14.070	1215.163	904.125
208.548	14.103	1214.017	903.371
209.563	14.099	1213.278	902.718
210.577	14.195	1212.534	902.608
211.592	14.233	1211.475	901.947
212.607	14.196	1210.421	900.881
213.621	14.182	1209.791	900.258
214.636	14.112	1209.177	899.343
215.650	14.122	1208.091	898.509
216.665	14.218	1207.227	898.304
217.680	14.203	1206.603	897.679
218.694	14.310	1205.385	897.271
219.709	14.391	1204.474	896.946
220.723	14.367	1203.157	895.756
221.738	14.324	1202.630	895.056
222.753	14.290	1202.420	894.637
223.767	14.339	1201.194	893.910
224.782	14.422	1200.660	893.878
225.796	14.432	1200.132	893.458
226.811	14.485	1199.321	893.061
227.826	14.443	1198.664	892.267
228.840	14.352	1198.229	891.376
229.855	14.402	1197.328	890.898
230.869	14.409	1196.450	890.199
231.884	14.401	1196.087	889.812
232.899	14.332	1195.009	888.561
233.913	14.385	1194.548	888.420
234.928	14.392	1193.308	887.460
235.942	14.395	1192.533	886.822
236.957	14.393	1191.717	886.125
237.972	14.469	1191.114	885.999
238.986	14.462	1190.154	885.169
240.001	14.522	1189.300	884.779
241.015	14.518	1188.240	883.888
242.030	14.455	1187.833	883.172
243.045	14.543	1187.348	883.203
244.059	14.512	1186.203	882.105
245.074	14.593	1185.551	881.974
246.088	14.542	1185.092	881.286
247.103	14.531	1184.458	880.675
248.117	14.632	1183.265	880.243
249.132	14.693	1182.313	879.777
250.147	14.729	1181.904	879.585
251.161	14.704	1181.354	878.966
252.176	14.842	1180.384	878.892
253.190	14.773	1179.864	878.067
254.205	14.825	1179.640	878.095
255.220	14.873	1178.432	877.369
256.234	14.942	1177.856	877.225
257.249	14.953	1177.337	876.820
258.263	14.966	1176.481	876.172
259.278	14.915	1175.663	875.219
260.293	14.895	1175.496	874.910
261.307	14.952	1175.151	874.876
262.322	15.139	1173.622	874.640
263.336	15.042	1173.364	873.860
264.351	14.983	1173.080	873.264
265.366	15.031	1172.394	872.926
266.380	15.085	1171.405	872.396
267.395	15.170	1170.302	871.939
268.409	15.110	1169.725	871.121
269.424	15.059	1168.940	870.194
270.439	15.143	1168.859	870.491
271.453	15.132	1167.811	869.576
272.468	15.069	1167.150	868.678
273.482	15.095	1166.101	867.956
274.497	15.120	1165.340	867.447
275.512	15.105	1164.858	866.930
276.526	15.176	1164.300	866.804
277.541	15.076	1163.203	865.395
278.555	15.238	1162.465	865.606
279.570	15.210	1161.720	864.830
280.585	15.252	1160.921	864.375
281.599	15.280	1159.973	863.738
282.614	15.290	1158.894	862.909
283.628	15.292	1157.940	862.134
284.643	15.353	1156.966	861.647
285.657	15.221	1156.430	860.492
286.672	15.266	1155.547	859.992
287.687	15.416	1154.148	859.639
288.701	15.347	1153.351	858.618
289.716	15.452	1152.421	858.388
290.730	15.425	1152.116	857.944
291.745	15.346	1151.501	857.006
292.760	15.475	1151.028	857.239
293.774	15.502	1150.104	856.616
294.789	15.488	1149.726	856.184
295.803	15.471	1149.047	855.519
296.818	15.497	1148.213	854.954
297.833	15.490	1147.434	854.261
298.847	15.459	1146.653	853.443
299.862	15.467	1146.112	853.007
300.876	15.575	1145.010	852.663
301.891	15.642	1144.113	852.258
302.906	15.558	1143.792	851.515
303.920	15.556	1143.260	851.035
304.935	15.657	1142.651	851.020
305.949	15.665	1141.863	850.398
306.964	15.706	1141.494	850.254
307.979	15.730	1140.187	849.326
308.993	15.773	1139.632	849.055
310.008	15.699	1139.288	848.350
311.022	15.774	1138.539	848.096
312.037	15.785	1137.048	846.965
313.052	15.876	1136.378	846.848
314.066	15.718	1135.514	845.338
315.081	15.805	1134.240	844.747
316.095	15.845	1133.636	844.426
317.110	15.696	1133.372	843.408
318.125	15.696	1132.462	842.653
319.139	15.687	1132.025	842.212
320.154	15.733	1131.095	841.676
321.168	15.667	1130.659	840.943
322.183	15.890	1129.611	841.205
323.197	15.721	1129.262	840.028
324.212	15.794	1128.842	840.004
325.227	15.849	1128.177	839.708
326.241	15.830	1127.629	839.134
327.256	15.878	1126.861	838.728
328.270	15.789	1125.721	837.358
329.285	15.875	1124.219	836.596
330.300	15.888	1123.807	836.278
331.314	15.912	1122.623	835.446
332.329	15.888	1121.649	834.527
333.343	15.810	1121.273	833.788
334.358	15.902	1120.404	833.521
335.373	15.944	1119.242	832.792
336.387	16.107	1118.047	832.633
337.402	15.983	1118.004	831.918
338.416	16.032	1117.116	831.426
339.431	16.060	1116.650	831.140
340.446	16.080	1116.010	830.691
341.460	16.133	1115.142	830.232
342.475	16.168	1114.243	829.659
343.489	16.187	1113.243	828.938
344.504	16.239	1112.742	828.744
345.519	16.260	1111.324	827.717
346.533	16.311	1110.660	827.403
347.548	16.221	1110.446	826.724
348.562	16.273	1109.455	826.169
349.577	16.263	1108.735	825.511
350.592	16.236	1107.898	824.685
351.606	16.233	1107.255	824.119
352.621	16.246	1106.483	823.535
353.635	16.218	1105.882	822.876
354.650	16.258	1105.038	822.371
355.665	16.320	1104.252	822.016
356.679	16.312	1104.112	821.799
357.694	16.350	1103.010	821.089
358.708	16.411	1102.412	820.869
359.723	16.371	1101.896	820.220
360.738	16.299	1101.473	819.483
361.752	16.352	1100.645	819.050
362.767	16.451	1100.122	819.070
363.781	16.436	1099.493	818.453
364.796	16.449	1098.770	817.905
365.810	16.611	1097.788	817.889
366.825	16.534	1097.578	817.285
367.840	16.497	1096.957	816.573
368.854	16.727	1096.311	817.131
369.869	16.626	1095.780	816.175
370.883	16.515	1095.475	815.342
371.898	16.670	1094.151	815.029
372.913	16.586	1093.567	814.116
373.927	16.454	1093.223	813.151
374.942	16.711	1092.412	813.715
375.956	16.667	1092.137	813.227
376.971	16.673	1091.547	812.745
377.986	16.691	1090.910	812.284
379.000	16.847	1090.136	812.383
380.015	16.878	1089.309	811.843
381.029	16.904	1088.683	811.427
382.044	16.816	1088.138	810.531
383.059	16.827	1087.410	809.966
384.073	16.845	1086.520	809.321
385.088	16.898	1085.607	808.820
386.102	17.057	1084.342	808.567
387.117	16.943	1083.981	807.681
388.132	16.806	1083.071	806.280
389.146	16.883	1082.357	806.043
390.161	16.898	1081.145	805.139
391.175	16.897	1081.006	804.960
392.190	16.925	1080.175	804.403
393.205	16.846	1079.558	803.497
394.219	17.022	1078.608	803.554
395.234	16.893	1077.785	802.261
396.248	16.940	1077.149	801.936
397.263	17.014	1075.553	801.029
398.278	17.039	1075.284	800.876
399.292	16.984	1074.355	799.852
400.307	16.920	1073.945	799.174
401.321	17.050	1072.777	798.848
402.336	16.964	1072.584	798.226
403.350	16.985	1071.965	797.796
404.365	17.004	1071.133	797.195
405.380	16.969	1070.609	796.569
406.394	17.103	1069.668	796.426
407.409	17.095	1068.924	795.767
408.423	17.115	1067.883	795.016
409.438	17.283	1067.562	795.490
410.453	17.183	1067.105	794.611
411.467	17.269	1065.812	793.980
412.482	17.248	1065.357	793.471
413.496	17.243	1064.845	792.997
414.511	17.284	1063.992	792.487
415.526	17.352	1063.470	792.342
416.540	17.491	1063.296	792.789
417.555	17.384	1062.541	791.661
418.569	17.372	1062.072	791.185
419.584	17.487	1061.637	791.326
420.599	17.413	1061.071	790.488
421.613	107.531	1331.746	1486.317
422.628	99.254	1371.113	1486.421
