DTS Sentinel unit serial number:	SN413079Multiplexer serial number:	ORYXHardware model number:	OX4-SRSoftware version number:	ORYX F/W v4.00 Oryx Data Collector v3.7.2.0data status	okinstallation	princeton_trtdifferential loss correction	single-endedforward channel	channel 2reverse channel	N/Adate	2019/09/11time	00:33:11forward acquisition time	60.00reverse acquisition time	0.00gamma	496.2192k internal	0.2332k external	0.2332temperature offset calibration	0.9942default loss term (dB/km)	0.3790temperature slope calibration	1.0000multiplexer offset coefficient	1.0000multiplexer slope coefficient	1.0000fibre end	0.00T internal ref (°C)	29.25T ext. ref 1 (°C)	-0.30T ext. ref 2 (°C)	22.98length (m)	temperature (°C)	Stokes	anti-Stokes-747.200	-125.570	-0.289	0.044
-746.185	-5.589	0.152	0.105
-745.171	-200.000	-0.005	-0.167
-744.156	-38.900	0.119	0.063
-743.142	-86.135	0.061	0.019
-742.127	102.478	0.141	0.166
-741.112	-87.968	-0.071	0.022
-740.098	250.033	0.281	0.479
-739.083	800.000	-0.044	-0.182
-738.069	-139.401	0.215	-0.023
-737.054	713.334	0.153	0.407
-736.039	139.301	-0.251	-0.332
-735.025	-171.221	0.439	0.015
-734.010	800.000	-0.075	-0.277
-732.996	106.118	-0.121	-0.144
-731.981	-67.557	0.221	0.087
-730.966	-19.047	-0.087	-0.054
-729.952	-82.938	0.107	-0.035
-728.937	-60.222	-0.163	-0.070
-727.923	-200.000	0.046	-0.247
-726.908	208.525	0.066	0.103
-725.894	-20.391	0.400	0.247
-724.879	13.928	0.177	-0.138
-723.864	800.000	0.140	0.433
-722.850	134.005	0.108	-0.141
-721.835	-200.000	0.035	0.000
-720.821	375.398	-0.096	0.196
-719.806	800.000	-0.093	-0.317
-718.791	-74.354	0.468	0.170
-717.777	-96.259	-0.180	-0.048
-716.762	-64.555	0.135	0.055
-715.748	-74.132	-0.244	0.089
-714.733	-200.000	-0.027	-0.374
-713.718	50.536	0.125	-0.118
-712.704	-200.000	0.060	0.284
-711.689	-96.797	-0.137	-0.036
-710.675	800.000	-0.052	0.157
-709.660	-95.866	0.153	0.041
-708.645	800.000	-0.048	-0.206
-707.631	800.000	0.088	-0.274
-706.616	800.000	-0.122	-0.467
-705.602	-127.739	-0.181	-0.026
-704.587	20.169	-0.308	-0.249
-703.572	248.931	0.127	-0.216
-702.558	0.717	0.328	-0.236
-701.543	33.954	-0.138	0.120
-700.529	800.000	-0.115	-0.350
-699.514	47.567	0.095	-0.089
-698.499	-154.352	0.180	-0.012
-697.485	-56.635	0.173	0.077
-696.470	-151.953	-0.374	-0.027
-695.456	-135.260	-0.123	0.015
-694.441	563.903	0.124	-0.303
-693.426	-104.888	0.242	-0.056
-692.412	800.000	-0.034	0.129
-691.397	-95.433	0.273	0.074
-690.383	141.374	-0.113	0.150
-689.368	525.941	-0.126	-0.299
-688.354	31.789	0.282	-0.243
-687.339	-200.000	0.009	0.217
-686.324	-200.000	-0.014	0.091
-685.310	-31.989	0.296	0.167
-684.295	359.745	0.164	0.329
-683.281	96.276	0.201	0.231
-682.266	-67.714	-0.233	-0.091
-681.251	-6.760	0.312	-0.213
-680.237	-67.004	0.169	-0.067
-679.222	162.828	-0.156	-0.220
-678.208	-200.000	-0.013	-0.092
-677.193	-10.794	-0.171	-0.113
-676.178	-55.054	0.123	-0.056
-675.164	52.610	0.066	0.064
-674.149	-158.925	-0.330	-0.019
-673.135	-48.097	-0.283	-0.137
-672.120	800.000	-0.103	-0.357
-671.105	296.541	-0.235	-0.432
-670.091	26.477	-0.096	0.080
-669.076	-159.954	0.189	0.010
-668.062	-158.573	-0.306	0.018
-667.047	365.660	0.041	0.082
-666.032	-86.930	0.194	-0.059
-665.018	-200.000	-0.018	0.206
-664.003	800.000	-0.055	0.241
-662.989	-6.501	0.174	-0.119
-661.974	128.270	-0.057	0.073
-660.959	24.270	-0.097	0.081
-659.945	162.233	-0.136	-0.191
-658.930	26.947	0.206	-0.174
-657.916	-200.000	-0.034	0.263
-656.901	208.628	0.139	0.218
-655.886	800.000	-0.093	0.275
-654.872	101.277	0.105	0.123
-653.857	-200.000	-0.041	-0.225
-652.843	16.013	0.248	0.196
-651.828	20.586	-0.259	0.210
-650.814	415.112	0.136	-0.291
-649.799	-200.000	0.022	-0.205
-648.784	-26.408	-0.397	0.234
-647.770	367.924	0.084	-0.171
-646.755	330.676	0.182	-0.352
-645.741	-27.336	0.135	-0.079
-644.726	189.142	0.090	-0.136
-643.711	-200.000	0.036	-0.180
-642.697	-200.000	0.048	-0.222
-641.682	-200.000	0.015	-0.258
-640.668	-58.056	-0.150	0.066
-639.653	-177.113	0.291	0.007
-638.638	800.000	-0.080	0.241
-637.624	324.549	-0.069	0.133
-636.609	-200.000	0.005	-0.162
-635.595	-21.793	-0.171	0.104
-634.580	-19.340	0.069	-0.043
-633.565	-200.000	0.047	-0.402
-632.551	-125.613	0.393	-0.060
-631.536	-118.592	0.206	0.037
-630.522	800.000	-0.132	-0.442
-629.507	365.741	0.078	0.158
-628.492	-79.560	0.108	-0.037
-627.478	-121.518	0.131	0.022
-626.463	-93.940	0.089	-0.024
-625.449	12.070	0.064	-0.049
-624.434	113.077	0.079	-0.096
-623.419	-200.000	-0.082	0.426
-622.405	800.000	-0.034	-0.096
-621.390	271.637	0.077	-0.136
-620.376	800.000	-0.071	-0.213
-619.361	73.425	0.161	-0.169
-618.346	-107.731	0.229	0.050
-617.332	356.784	-0.052	-0.103
-616.317	-200.000	-0.014	-0.315
-615.303	-59.435	0.443	-0.191
-614.288	630.535	0.016	0.040
-613.273	-173.642	-0.242	-0.007
-612.259	-29.024	0.203	-0.116
-611.244	-78.400	0.201	-0.069
-610.230	-113.446	0.052	0.010
-609.215	-4.878	0.015	0.010
-608.201	-107.012	-0.245	0.054
-607.186	-70.646	0.065	0.025
-606.171	87.635	0.106	0.118
-605.157	-46.283	-0.043	-0.021
-604.142	605.407	-0.009	-0.023
-603.128	-9.123	0.112	0.075
-602.113	-107.916	-0.246	-0.054
-601.098	-45.762	0.307	-0.152
-600.084	-120.561	0.331	-0.056
-599.069	-200.000	-0.038	0.253
-598.055	-200.000	-0.056	0.287
-597.040	800.000	-0.123	-0.362
-596.025	-129.046	-0.219	-0.031
-595.011	-100.893	-0.174	0.043
-593.996	696.638	0.080	0.210
-592.982	-200.000	0.025	0.231
-591.967	-200.000	-0.048	-0.318
-590.952	781.257	-0.081	-0.221
-589.938	-200.000	-0.005	0.128
-588.923	114.475	-0.166	-0.202
-587.909	294.828	-0.108	0.198
-586.894	800.000	-0.079	0.263
-585.879	800.000	0.041	0.156
-584.865	47.134	-0.149	0.139
-583.850	86.950	-0.056	0.062
-582.836	119.163	-0.015	0.019
-581.821	48.801	0.331	-0.310
-580.806	39.932	-0.072	-0.064
-579.792	113.682	-0.160	-0.195
-578.777	203.225	0.105	-0.162
-577.763	110.090	-0.222	0.267
-576.748	-200.000	0.054	-0.356
-575.733	-200.000	-0.068	-0.377
-574.719	-146.893	0.238	0.020
-573.704	800.000	0.050	-0.140
-572.690	800.000	-0.036	0.106
-571.675	-5.286	-0.244	0.168
-570.661	-54.223	0.137	-0.062
-569.646	-101.031	0.095	0.023
-568.631	-200.000	-0.006	-0.060
-567.617	-77.618	-0.115	0.040
-566.602	-125.156	-0.384	0.059
-565.588	-16.400	-0.151	0.096
-564.573	-64.404	-0.168	-0.068
-563.558	248.276	-0.150	0.254
-562.544	800.000	-0.086	0.240
-561.529	-200.000	-0.006	0.100
-560.515	-76.384	0.283	0.099
-559.500	-166.752	0.309	-0.013
-558.485	-35.595	-0.191	0.104
-557.471	-200.000	0.002	0.334
-556.456	514.451	-0.073	-0.170
-555.442	-200.000	-0.029	0.320
-554.427	11.037	0.257	0.196
-553.412	-107.447	-0.324	0.071
-552.398	13.015	0.204	-0.158
-551.383	-69.422	-0.024	0.009
-550.369	-44.799	0.152	-0.076
-549.354	-49.432	-0.320	-0.152
-548.339	-163.082	0.148	0.007
-547.325	-200.000	-0.014	0.146
-546.310	741.960	0.047	0.127
-545.296	324.231	-0.192	0.367
-544.281	-7.372	0.125	-0.085
-543.266	-26.610	0.254	-0.149
-542.252	-60.976	-0.375	0.158
-541.237	-154.561	0.194	-0.013
-540.223	469.991	-0.069	0.156
-539.208	-75.520	0.208	0.074
-538.193	800.000	-0.035	-0.133
-537.179	800.000	0.090	0.250
-536.164	800.000	0.030	-0.093
-535.150	-67.702	-0.107	0.042
-534.135	62.589	-0.077	-0.076
-533.121	-200.000	0.023	-0.289
-532.106	83.546	-0.258	-0.281
-531.091	33.465	0.156	0.135
-530.077	21.607	0.145	-0.118
-529.062	-200.000	0.048	0.279
-528.048	-0.328	-0.125	0.089
-527.033	526.142	0.046	-0.109
-526.018	385.215	-0.156	0.320
-525.004	237.079	0.070	-0.115
-523.989	-200.000	0.017	0.283
-522.975	-171.112	0.140	0.005
-521.960	-161.897	-0.132	-0.007
-520.945	-97.470	-0.035	-0.009
-519.931	68.470	0.060	-0.061
-518.916	439.973	0.054	-0.117
-517.902	334.455	-0.174	0.336
-516.887	-106.286	0.338	-0.076
-515.872	482.450	0.073	-0.165
-514.858	508.106	0.192	-0.445
-513.843	-82.973	-0.186	0.060
-512.829	88.062	-0.086	0.095
-511.814	122.913	0.081	-0.101
-510.799	31.031	0.020	-0.017
-509.785	46.315	0.160	-0.148
-508.770	-13.373	-0.133	0.086
-507.756	-200.000	0.004	-0.019
-506.741	-103.660	-0.224	-0.052
-505.726	-2.076	-0.297	0.208
-504.712	-200.000	0.015	-0.078
-503.697	-134.141	0.103	-0.013
-502.683	-67.839	0.331	0.129
-501.668	28.137	-0.105	0.088
-500.653	-200.000	0.014	-0.223
-499.639	-55.398	-0.171	0.076
-498.624	7.989	-0.161	0.120
-497.610	581.643	0.128	0.314
-496.595	154.920	-0.139	-0.191
-495.581	7.751	-0.039	0.029
-494.566	77.932	-0.295	0.313
-493.551	-104.570	0.237	0.054
-492.537	-121.347	0.163	0.027
-491.522	-200.000	-0.021	-0.249
-490.508	521.125	0.042	-0.099
-489.493	-200.000	0.003	0.332
-488.478	388.483	-0.164	0.339
-487.464	-87.921	-0.080	-0.024
-486.449	577.606	0.121	0.294
-485.435	-44.240	0.481	-0.240
-484.420	30.759	0.187	-0.159
-483.405	-136.555	0.033	-0.004
-482.391	289.323	0.138	-0.248
-481.376	-158.080	-0.328	0.019
-480.362	-156.126	0.191	-0.012
-479.347	-126.796	0.090	0.013
-478.332	-95.360	0.041	-0.011
-477.318	-51.245	0.268	-0.125
-476.303	800.000	0.112	0.365
-475.289	10.593	-0.374	-0.284
-474.274	57.371	0.347	-0.337
-473.259	-62.472	-0.191	0.079
-472.245	800.000	-0.041	-0.128
-471.230	-200.000	0.009	0.168
-470.216	-130.130	-0.296	-0.040
-469.201	-24.192	-0.343	0.204
-468.186	-95.633	0.153	-0.041
-467.172	-28.320	-0.039	-0.023
-466.157	89.058	0.105	-0.116
-465.143	77.571	-0.330	0.349
-464.128	43.413	0.184	-0.167
-463.113	-84.857	-0.090	0.028
-462.099	128.828	-0.186	0.236
-461.084	-65.789	-0.197	0.079
-460.070	-200.000	-0.062	0.287
-459.055	607.811	0.107	-0.266
-458.040	-200.000	-0.047	-0.235
-457.026	-88.200	0.032	0.010
-456.011	250.136	-0.063	0.106
-454.997	17.981	0.109	-0.087
-453.982	-32.580	-0.014	0.008
-452.968	-200.000	0.080	-0.415
-451.953	-200.000	0.047	-0.224
-450.938	-75.930	-0.284	0.100
-449.924	-108.246	0.163	0.035
-448.909	-159.392	-0.344	-0.019
-447.895	-58.777	-0.051	0.022
-446.880	-14.083	0.286	-0.183
-445.865	-146.961	0.174	-0.015
-444.851	-4.660	-0.166	-0.114
-443.836	-63.984	0.300	0.122
-442.822	325.727	-0.068	-0.129
-441.807	-200.000	0.071	-0.361
-440.792	324.115	0.062	0.117
-439.778	-200.000	0.024	0.230
-438.763	800.000	-0.042	0.130
-437.749	385.572	-0.041	0.085
-436.734	-200.000	-0.022	-0.515
-435.719	-200.000	0.008	-0.128
-434.705	-129.790	-0.210	0.029
-433.690	-135.445	0.161	0.019
-432.676	-200.000	-0.036	-0.323
-431.661	62.260	0.391	-0.387
-430.646	-200.000	0.039	-0.396
-429.632	488.143	0.070	-0.159
-428.617	296.020	-0.011	-0.021
-427.603	-144.955	-0.160	-0.015
-426.588	-34.917	0.399	0.216
-425.573	-200.000	0.034	0.225
-424.559	-102.181	-0.212	-0.051
-423.544	573.548	-0.091	-0.220
-422.530	-200.000	0.060	0.357
-421.515	-61.464	-0.293	-0.122
-420.500	800.000	-0.100	0.286
-419.486	-172.285	-0.196	0.006
-418.471	-134.870	0.265	-0.032
-417.457	-200.000	-0.015	0.087
-416.442	-110.200	-0.287	0.060
-415.428	12.377	-0.149	-0.114
-414.413	-49.103	0.287	0.136
-413.398	-84.426	0.100	-0.031
-412.384	5.528	-0.247	0.181
-411.369	189.155	-0.107	-0.160
-410.355	139.311	0.086	-0.112
-409.340	301.985	-0.149	-0.274
-408.325	-45.828	-0.305	-0.150
-407.311	-98.873	0.136	-0.034
-406.296	-24.600	0.153	0.091
-405.282	495.651	0.052	0.118
-404.267	0.895	0.283	-0.201
-403.252	-149.461	0.170	-0.013
-402.238	177.746	0.067	0.097
-401.223	-22.575	0.096	0.057
-400.209	128.853	0.068	0.086
-399.194	-75.458	-0.132	-0.047
-398.179	-100.965	-0.310	-0.075
-397.165	-34.009	-0.078	0.043
-396.150	800.000	-0.052	-0.145
-395.136	-56.418	-0.149	-0.066
-394.121	-69.004	0.198	-0.076
-393.106	800.000	0.024	-0.071
-392.092	125.566	0.148	0.186
-391.077	-194.680	-0.228	0.002
-390.063	-80.755	-0.364	-0.120
-389.048	-130.963	0.010	0.001
-388.033	-200.000	-0.184	0.000
-387.019	-37.488	-0.282	-0.150
-386.004	-98.719	-0.061	0.015
-384.990	-44.302	0.065	-0.032
-383.975	193.865	0.076	0.114
-382.960	130.758	0.100	0.127
-381.946	29.329	-0.279	0.235
-380.931	195.012	-0.062	-0.094
-379.917	-200.000	0.027	-0.155
-378.902	-59.877	-0.265	0.112
-377.888	105.782	0.138	-0.162
-376.873	290.756	-0.156	-0.281
-375.858	800.000	-0.063	0.230
-374.844	17.481	0.214	-0.168
-373.829	-2.268	0.333	0.231
-372.815	425.461	0.155	0.332
-371.800	-97.463	-0.138	-0.036
-370.785	800.000	-0.070	-0.222
-369.771	1.331	-0.149	0.106
-368.756	-200.000	0.019	0.488
-367.742	11.662	0.203	0.154
-366.727	402.144	0.069	0.144
-365.712	-182.122	-0.200	0.004
-364.698	4.780	-0.128	0.093
-363.683	60.528	-0.194	0.190
-362.669	242.791	0.103	0.170
-361.654	800.000	0.066	0.193
-360.639	-200.000	0.017	0.076
-359.625	-172.503	0.207	-0.006
-358.610	800.000	0.189	0.566
-357.596	-200.000	-0.006	-0.149
-356.581	-0.678	-0.098	-0.069
-355.566	-63.391	-0.376	-0.153
-354.552	-200.000	-0.049	0.238
-353.537	-138.247	0.290	0.032
-352.523	-79.033	-0.532	-0.179
-351.508	172.459	0.139	0.198
-350.493	366.273	-0.115	-0.230
-349.479	-4.274	0.445	-0.305
-348.464	-83.221	-0.235	-0.075
-347.450	-137.791	-0.164	-0.018
-346.435	-38.545	0.257	-0.135
-345.420	-200.000	0.012	-0.074
-344.406	324.445	0.229	-0.433
-343.391	800.000	-0.060	0.240
-342.377	-200.000	0.021	0.286
-341.362	26.239	0.116	-0.096
-340.348	67.462	0.114	0.116
-339.333	-64.524	-0.091	-0.036
-338.318	62.993	0.149	0.147
-337.304	-142.601	-0.069	-0.007
-336.289	800.000	-0.045	-0.175
-335.275	571.905	0.072	-0.174
-334.260	10.107	-0.131	0.098
-333.245	-200.000	0.015	-0.219
-332.231	158.300	0.226	0.310
-331.216	800.000	-0.048	0.186
-330.202	800.000	-0.063	-0.267
-329.187	-106.112	-0.147	0.033
-328.172	-146.409	0.039	0.003
-327.158	-87.128	0.233	-0.070
-326.143	-100.368	-0.295	0.072
-325.129	-40.425	-0.262	0.135
-324.114	-200.000	0.006	-0.065
-323.099	266.420	-0.075	-0.130
-322.085	-67.938	0.343	0.132
-321.070	81.114	0.183	0.196
-320.056	-110.038	0.186	-0.039
-319.041	-2.076	0.103	-0.071
-318.026	103.328	0.170	0.197
-317.012	-129.454	0.240	0.033
-315.997	800.000	0.084	-0.268
-314.983	275.641	-0.101	-0.178
-313.968	330.931	-0.107	-0.205
-312.953	-58.411	-0.137	0.059
-311.939	209.125	0.171	-0.266
-310.924	-107.947	0.458	-0.098
-309.910	800.000	0.035	0.105
-308.895	244.606	0.045	0.075
-307.880	115.601	-0.173	0.209
-306.866	-48.431	-0.117	-0.056
-305.851	-151.732	0.214	-0.016
-304.837	-112.228	0.204	0.041
-303.822	-60.491	0.230	-0.097
-302.807	-200.000	0.025	0.190
-301.793	-136.971	-0.236	0.027
-300.778	196.927	-0.117	-0.176
-299.764	-72.873	-0.123	0.045
-298.749	-45.153	0.322	-0.158
-297.735	121.816	-0.126	0.156
-296.720	-52.288	0.444	0.204
-295.705	710.686	0.163	0.426
-294.691	40.335	0.109	-0.097
-293.676	136.144	-0.039	0.051
-292.662	539.321	-0.155	-0.365
-291.647	9.109	-0.079	0.059
-290.632	33.763	0.079	0.068
-289.618	-44.555	-0.229	-0.113
-288.603	80.787	-0.046	-0.050
-287.589	-108.250	-0.182	0.039
-286.574	-99.598	0.122	0.030
-285.559	-200.000	-0.018	0.080
-284.545	-60.488	-0.073	-0.031
-283.530	-119.632	0.119	0.020
-282.516	141.631	0.140	0.183
-281.501	138.455	0.102	0.132
-280.486	-150.671	-0.091	0.007
-279.472	26.630	-0.071	0.058
-278.457	800.000	-0.086	0.317
-277.443	252.135	-0.070	0.117
-276.428	-116.121	-0.176	0.032
-275.413	-91.006	-0.202	-0.057
-274.399	-84.697	0.113	-0.035
-273.384	228.859	0.204	-0.329
-272.370	-95.361	-0.213	-0.056
-271.355	-166.263	0.359	-0.015
-270.340	129.491	0.175	-0.221
-269.326	-146.720	0.205	-0.018
-268.311	-200.000	0.007	-0.299
-267.297	161.258	-0.242	-0.334
-266.282	800.000	0.116	0.405
-265.267	88.575	0.122	0.134
-264.253	-200.000	-0.008	0.326
-263.238	-42.440	0.159	-0.080
-262.224	106.469	0.179	0.209
-261.209	-200.000	0.049	-0.216
-260.195	-91.802	-0.158	0.044
-259.180	-28.575	0.260	0.148
-258.165	-4.715	-0.213	-0.145
-257.151	207.388	-0.087	0.133
-256.136	-155.033	0.087	-0.006
-255.122	-200.000	-0.004	-0.390
-254.107	-200.000	0.024	-0.124
-253.092	-151.971	-0.037	-0.003
-252.078	-59.818	-0.109	-0.046
-251.063	260.013	0.029	-0.049
-250.049	800.000	0.045	0.146
-249.034	-13.663	-0.173	0.111
-248.019	183.189	-0.148	-0.216
-247.005	171.821	0.025	0.035
-245.990	-200.000	0.012	-0.255
-244.976	-100.568	-0.145	-0.035
-243.961	800.000	0.028	0.081
-242.946	-13.228	-0.279	-0.179
-241.932	-200.000	-0.042	0.330
-240.917	-137.293	0.048	-0.005
-239.903	800.000	0.125	-0.449
-238.888	-93.416	-0.126	0.035
-237.873	434.184	0.031	0.066
-236.859	-53.346	-0.154	0.070
-235.844	800.000	-0.078	0.312
-234.830	597.321	0.045	0.109
-233.815	-200.000	0.011	0.088
-232.800	575.724	-0.095	-0.229
-231.786	6.360	0.203	0.149
-230.771	800.000	0.066	-0.185
-229.757	-23.725	0.258	0.153
-228.742	-200.000	0.051	0.365
-227.727	-200.000	0.031	-0.157
-226.713	-8.915	-0.320	0.212
-225.698	-200.000	0.003	0.019
-224.684	24.665	-0.213	0.174
-223.669	-13.874	-0.182	-0.116
-222.655	-200.000	-0.050	-0.221
-221.640	-200.000	-0.011	0.140
-220.625	493.229	0.021	-0.047
-219.611	800.000	0.089	-0.315
-218.596	-200.000	0.013	0.474
-217.582	774.473	-0.077	0.206
-216.567	-3.543	0.036	0.025
-215.552	-150.831	-0.191	0.014
-214.538	-86.166	-0.291	0.089
-213.523	-132.826	0.271	-0.034
-212.509	426.628	-0.133	-0.282
-211.494	519.543	0.066	-0.151
-210.479	-96.421	-0.104	0.027
-209.465	14.602	-0.185	-0.142
-208.450	-136.883	-0.169	-0.019
-207.436	150.218	-0.062	-0.083
-206.421	-30.261	-0.288	-0.161
-205.406	800.000	-0.027	0.105
-204.392	-93.742	0.200	0.054
-203.377	800.000	-0.015	-0.049
-202.363	643.393	-0.116	0.292
-201.348	92.658	0.076	-0.084
-200.333	492.231	0.033	-0.074
-199.319	333.239	-0.050	-0.096
-198.304	-200.000	-0.081	-0.424
-197.290	800.000	0.141	0.392
-196.275	713.465	-0.069	0.181
-195.260	52.091	0.129	0.121
-194.246	-187.875	0.173	0.002
-193.231	-116.087	-0.087	0.016
-192.217	800.000	-0.050	0.204
-191.202	-88.692	0.163	-0.048
-190.187	-154.616	-0.443	-0.029
-189.173	-200.000	-0.001	0.042
-188.158	-200.000	0.015	0.144
-187.144	-33.586	0.122	-0.067
-186.129	-63.403	0.146	-0.059
-185.114	274.454	-0.045	0.079
-184.100	-13.625	0.177	0.113
-183.085	772.791	0.075	-0.202
-182.071	-200.000	0.033	-0.147
-181.056	180.356	-0.080	0.115
-180.042	-200.000	0.026	0.265
-179.027	-175.307	-0.122	0.003
-178.012	-48.167	-0.043	0.020
-176.998	138.387	0.138	-0.178
-175.983	-200.000	0.025	-0.141
-174.969	-26.681	-0.063	-0.036
-173.954	-88.807	0.205	0.060
-172.939	-118.025	-0.136	0.024
-171.925	-200.000	-0.027	-0.220
-170.910	-200.000	-0.009	0.336
-169.896	-200.000	0.044	0.224
-168.881	650.502	-0.049	0.122
-167.866	-200.000	0.010	0.188
-166.852	11.663	-0.087	0.065
-165.837	643.252	0.058	0.146
-164.823	-65.439	-0.323	0.128
-163.808	162.415	0.103	0.142
-162.793	-200.000	0.010	-0.095
-161.779	-63.388	-0.107	-0.043
-160.764	21.555	0.238	0.190
-159.750	-84.909	0.354	-0.109
-158.735	-63.874	-0.254	-0.102
-157.720	82.626	0.108	-0.115
-156.706	-96.809	0.149	-0.039
-155.691	97.275	-0.182	-0.205
-154.677	-9.816	-0.173	0.113
-153.662	180.295	0.020	0.029
-152.647	-120.308	-0.267	0.045
-151.633	162.023	-0.126	0.173
-150.618	-22.073	0.543	-0.324
-149.604	236.649	-0.218	-0.354
-148.589	-2.723	0.172	0.118
-147.574	-200.000	0.003	0.125
-146.560	39.582	-0.168	0.148
-145.545	31.962	0.184	-0.156
-144.531	297.337	0.243	0.438
-143.516	30.269	0.122	-0.102
-142.502	-80.122	-0.120	-0.039
-141.487	66.348	-0.037	0.037
-140.472	241.277	0.106	-0.174
-139.458	-101.958	-0.105	-0.025
-138.443	-147.373	-0.264	0.022
-137.429	12.742	-0.074	0.056
-136.414	351.929	-0.111	0.216
-135.399	-111.027	0.164	0.033
-134.385	479.071	0.043	-0.096
-133.370	155.608	-0.062	-0.084
-132.356	800.000	0.040	0.171
-131.341	-97.429	0.324	0.083
-130.326	-35.525	0.339	-0.181
-129.312	-100.595	0.062	-0.015
-128.297	-110.031	-0.135	0.028
-127.283	158.031	-0.249	0.340
-126.268	-200.000	-0.034	-0.163
-125.253	-162.767	-0.139	0.007
-124.239	-200.000	-0.012	0.112
-123.224	0.282	0.025	-0.017
-122.210	800.000	0.098	-0.303
-121.195	68.836	0.118	-0.119
-120.180	71.365	0.318	0.324
-119.166	92.364	-0.081	-0.090
-118.151	-113.317	-0.159	-0.031
-117.137	10.654	-0.082	-0.061
-116.122	119.872	-0.140	-0.170
-115.107	399.909	-0.155	-0.319
-114.093	116.316	0.110	-0.132
-113.078	-97.031	-0.024	0.006
-112.064	265.429	-0.209	0.357
-111.049	-200.000	-0.106	0.470
-110.034	-55.719	0.073	-0.032
-109.020	485.981	-0.049	0.110
-108.005	-125.177	-0.264	0.040
-106.991	214.852	-0.157	-0.244
-105.976	100.516	0.174	-0.198
-104.962	12.081	0.116	0.088
-103.947	260.323	-0.011	-0.018
-102.932	62.936	-0.210	-0.206
-101.918	-200.000	-0.013	-0.249
-100.903	-51.596	0.217	-0.099
-99.889	-200.000	-0.006	0.098
-98.874	-147.525	0.090	-0.007
-97.859	406.468	0.056	0.115
-96.845	-200.000	-0.037	0.415
-95.830	147.491	-0.090	-0.119
-94.816	-2.918	-0.145	0.100
-93.801	-27.519	-0.119	-0.068
-92.786	-85.837	-0.378	0.115
-91.772	366.315	-0.157	-0.311
-90.757	800.000	-0.063	-0.170
-89.743	-200.000	-0.007	-0.093
-88.728	-82.351	-0.203	-0.065
-87.713	-143.733	-0.095	0.009
-86.699	-146.118	-0.312	-0.027
-85.684	41.788	0.054	0.048
-84.670	34.147	0.188	0.161
-83.655	495.548	0.071	0.160
-82.640	-101.749	-0.247	-0.059
-81.626	800.000	0.122	-0.390
-80.611	-101.997	0.455	0.108
-79.597	800.000	-0.037	-0.147
-78.582	-66.011	0.099	-0.039
-77.567	-46.991	-0.273	-0.131
-76.553	202.388	0.167	-0.252
-75.538	120.620	-0.282	-0.343
-74.524	14.013	0.366	-0.279
-73.509	238.529	0.099	0.161
-72.494	-105.423	-0.373	0.083
-71.480	-200.000	0.007	-0.030
-70.465	326.634	-0.204	0.383
-69.451	800.000	0.010	0.039
-68.436	-200.000	-0.010	0.230
-67.422	-95.452	-0.155	0.041
-66.407	-132.412	0.290	-0.037
-65.392	-102.745	0.260	-0.061
-64.378	800.000	-0.118	-0.357
-63.363	89.250	-0.118	0.129
-62.349	-200.000	0.002	-0.108
-61.334	18.713	-1.293	-1.013
-60.319	126.509	0.488	0.605
-59.305	-200.000	-0.248	-1.241
-58.290	124.783	0.835	1.029
-57.276	287.979	0.766	1.358
-56.261	-200.000	107.278	621.691
-55.246	517.240	1511.969	3462.824
-54.232	175.245	2709.202	3843.734
-53.217	104.278	2293.227	2642.241
-52.203	38.490	1898.836	1657.529
-51.188	32.547	1685.599	1426.484
-50.173	29.900	1642.348	1370.254
-49.159	48.467	1697.055	1556.210
-48.144	48.729	1712.009	1571.835
-47.130	31.920	1669.464	1407.895
-46.115	29.328	1654.622	1376.013
-45.100	29.262	1649.294	1371.033
-44.086	29.169	1646.644	1368.086
-43.071	29.196	1644.261	1366.250
-42.057	29.160	1642.184	1364.203
-41.042	29.134	1640.030	1362.171
-40.027	29.119	1638.258	1360.535
-39.013	29.054	1636.099	1358.209
-37.998	29.088	1634.568	1357.133
-36.984	29.114	1633.413	1356.314
-35.969	29.164	1631.803	1355.289
-34.954	29.278	1629.972	1354.552
-33.940	29.291	1628.305	1353.208
-32.925	29.247	1626.262	1351.134
-31.911	29.296	1624.595	1350.056
-30.896	29.205	1623.267	1348.235
-29.881	29.168	1621.535	1346.469
-28.867	29.153	1620.325	1345.304
-27.852	29.178	1618.400	1343.831
-26.838	29.299	1616.647	1343.206
-25.823	29.369	1615.432	1342.649
-24.809	29.260	1614.661	1341.167
-23.794	29.326	1612.395	1339.708
-22.779	29.346	1610.900	1338.556
-21.765	29.200	1609.921	1336.630
-20.750	29.278	1607.809	1335.389
-19.736	29.224	1607.103	1334.358
-18.721	29.218	1605.425	1332.872
-17.706	29.249	1603.845	1331.729
-16.692	29.287	1602.234	1330.618
-15.677	29.326	1600.786	1329.638
-14.663	29.362	1599.498	1328.777
-13.648	29.308	1598.216	1327.269
-12.633	29.290	1596.597	1325.747
-11.619	29.327	1595.005	1324.639
-10.604	29.302	1593.403	1323.073
-9.590	29.342	1592.460	1322.524
-8.575	29.399	1591.213	1321.841
-7.560	29.301	1590.067	1320.141
-6.546	29.247	1589.352	1319.110
-5.531	29.257	1587.800	1317.834
-4.517	29.243	1587.105	1317.109
-3.502	29.345	1585.423	1316.389
-2.487	29.350	1584.195	1315.353
-1.473	28.936	1572.318	1302.506
-0.458	26.225	1552.476	1267.032
0.556	20.402	1554.115	1236.373
1.571	18.269	1578.450	1240.187
2.586	18.008	1592.178	1248.953
3.600	16.373	1539.447	1195.914
4.615	8.666	1430.587	1060.367
5.629	1.179	1367.077	965.660
6.644	-0.159	1358.850	951.292
7.659	-0.379	1358.167	949.337
8.673	-0.338	1356.919	948.645
9.688	-0.323	1354.412	946.899
10.702	-0.586	1351.797	943.332
11.717	2.506	1357.672	966.893
12.731	11.531	1375.068	1036.699
13.746	19.059	1387.580	1094.082
14.761	21.085	1389.776	1108.607
15.775	21.236	1390.331	1109.912
16.790	21.255	1389.913	1109.602
17.804	21.373	1389.200	1109.679
18.819	21.513	1389.104	1110.395
19.834	21.776	1387.982	1111.069
20.848	21.734	1387.172	1110.052
21.863	21.706	1386.431	1109.185
22.877	21.805	1385.338	1108.838
23.892	21.759	1384.460	1107.746
24.907	21.766	1383.615	1107.022
25.921	21.708	1383.137	1106.169
26.936	21.684	1382.435	1105.359
27.950	21.735	1380.813	1104.288
28.965	21.762	1379.443	1103.264
29.980	21.854	1377.911	1102.521
30.994	21.744	1376.758	1100.809
32.009	21.768	1376.075	1100.315
33.023	21.701	1375.249	1099.136
34.038	21.735	1373.836	1098.124
35.053	21.801	1372.828	1097.634
36.067	21.732	1371.809	1096.294
37.082	21.694	1371.055	1095.354
38.096	21.715	1370.173	1094.685
39.111	21.734	1369.449	1094.129
40.126	21.744	1369.048	1093.770
41.140	21.671	1368.244	1092.581
42.155	21.788	1367.594	1092.692
43.169	21.761	1367.533	1092.379
44.184	21.724	1367.313	1091.878
45.199	21.723	1367.070	1091.580
46.213	21.900	1366.208	1091.893
47.228	21.759	1365.526	1090.373
48.242	21.810	1363.877	1089.280
49.257	21.709	1363.045	1087.890
50.271	21.808	1360.876	1086.677
51.286	21.791	1360.197	1085.933
52.301	21.740	1358.976	1084.548
53.315	21.749	1358.063	1083.778
54.330	21.806	1357.383	1083.490
55.344	21.766	1355.855	1081.928
56.359	21.739	1354.704	1080.752
57.374	21.743	1354.171	1080.253
58.388	21.773	1354.032	1080.232
59.403	21.753	1353.577	1079.650
60.417	21.815	1352.238	1078.868
61.432	21.712	1351.803	1077.794
62.447	21.824	1350.774	1077.563
63.461	21.785	1349.527	1076.237
64.476	21.738	1348.998	1075.431
65.490	21.777	1347.862	1074.669
66.505	21.755	1346.130	1073.054
67.520	21.757	1345.057	1072.121
68.534	21.837	1343.388	1071.184
69.549	21.840	1342.969	1070.771
70.563	21.793	1341.741	1069.409
71.578	21.789	1340.856	1068.588
72.593	21.832	1339.644	1067.791
73.607	21.735	1339.351	1066.871
74.622	21.774	1338.755	1066.538
75.636	21.772	1337.639	1065.544
76.651	21.727	1337.264	1064.874
77.666	21.783	1337.108	1064.999
78.680	21.763	1336.353	1064.181
79.695	21.739	1334.953	1062.828
80.709	21.824	1333.953	1062.454
81.724	21.715	1333.459	1061.302
82.739	21.656	1332.507	1060.096
83.753	21.738	1331.384	1059.604
84.768	21.803	1330.288	1059.027
85.782	21.857	1328.943	1058.189
86.797	21.847	1327.806	1057.130
87.812	21.787	1326.850	1055.913
88.826	21.766	1325.909	1054.947
89.841	21.791	1324.622	1053.980
90.855	21.856	1323.369	1053.278
91.870	21.790	1322.958	1052.467
92.884	21.885	1322.230	1052.365
93.899	21.793	1321.323	1050.993
94.914	21.794	1320.564	1050.307
95.928	21.805	1319.982	1049.815
96.943	21.883	1319.143	1049.520
97.957	21.829	1317.940	1048.148
98.972	21.866	1317.414	1047.859
99.987	21.803	1316.340	1046.537
101.001	21.765	1315.725	1045.729
102.016	21.844	1314.310	1044.983
103.030	21.878	1313.766	1044.655
104.045	21.757	1313.132	1043.341
105.060	21.852	1311.872	1042.813
106.074	21.932	1310.696	1042.262
107.089	21.833	1309.793	1040.864
108.103	21.893	1308.509	1040.108
109.118	21.948	1307.140	1039.250
110.133	21.929	1306.507	1038.542
111.147	21.841	1305.636	1037.241
112.162	21.968	1303.920	1036.535
113.176	21.963	1303.310	1035.930
114.191	21.818	1302.686	1034.487
115.206	21.925	1301.147	1033.803
116.220	21.890	1299.943	1032.546
117.235	21.875	1299.084	1031.686
118.249	21.880	1298.236	1030.950
119.264	21.890	1296.981	1029.921
120.279	21.931	1296.602	1029.771
121.293	21.958	1295.380	1028.868
122.308	21.863	1294.932	1027.862
123.322	21.994	1293.680	1027.548
124.337	22.026	1292.667	1026.840
125.352	22.005	1292.075	1026.152
126.366	21.924	1291.014	1024.748
127.381	22.155	1289.731	1024.988
128.395	21.937	1289.101	1023.125
129.410	21.992	1287.964	1022.452
130.424	21.958	1287.109	1021.481
131.439	21.887	1286.640	1020.607
132.454	21.944	1285.499	1019.947
133.468	21.896	1284.917	1019.111
134.483	21.984	1284.229	1018.986
135.497	22.003	1283.205	1018.196
136.512	21.830	1282.733	1016.729
137.527	22.012	1280.817	1016.172
138.541	21.993	1279.311	1014.780
139.556	21.942	1278.204	1013.514
140.570	21.941	1277.639	1012.973
141.585	21.955	1276.175	1011.802
142.600	21.777	1275.529	1010.175
143.614	21.877	1274.286	1009.678
144.629	21.904	1273.405	1009.044
145.643	21.790	1272.410	1007.510
146.658	21.827	1271.384	1006.822
147.673	21.900	1270.274	1006.276
148.687	21.913	1269.168	1005.381
149.702	21.851	1268.104	1004.099
150.716	21.873	1267.267	1003.468
151.731	21.977	1265.767	1002.789
152.746	21.948	1265.183	1002.069
153.760	21.976	1263.855	1001.090
154.775	21.974	1262.803	1000.159
155.789	21.928	1261.782	999.000
156.804	22.011	1260.592	998.438
157.819	22.009	1260.222	998.049
158.833	21.925	1259.543	996.944
159.848	22.044	1258.380	996.611
160.862	21.963	1257.909	995.691
161.877	22.043	1256.879	995.237
162.892	22.042	1256.375	994.748
163.906	22.041	1255.347	993.840
164.921	22.138	1254.586	993.700
165.935	22.011	1254.058	992.473
166.950	22.082	1253.032	991.974
167.964	22.141	1252.461	991.765
168.979	22.104	1251.976	991.085
169.994	22.157	1251.372	990.822
171.008	22.028	1250.965	989.682
172.023	22.051	1249.532	988.592
173.037	22.091	1249.220	988.483
174.052	22.088	1248.209	987.575
175.067	22.118	1247.601	987.180
176.081	22.107	1246.563	986.208
177.096	22.146	1245.408	985.426
178.110	22.092	1245.176	984.854
179.125	22.172	1244.068	984.338
180.140	22.150	1242.980	983.263
181.154	22.163	1241.806	982.320
182.169	22.166	1240.487	981.207
183.183	22.128	1239.676	980.267
184.198	22.123	1239.186	979.767
185.213	22.122	1237.758	978.545
186.227	22.179	1236.903	978.099
187.242	22.211	1236.025	977.496
188.256	22.147	1235.222	976.422
189.271	22.060	1234.656	975.400
190.286	22.067	1233.820	974.696
191.300	22.016	1233.540	974.105
192.315	22.072	1233.089	973.971
193.329	22.145	1232.398	973.743
194.344	22.207	1231.785	973.520
195.359	22.179	1231.287	972.881
196.373	22.182	1230.639	972.302
197.388	22.111	1230.603	971.795
198.402	22.125	1230.019	971.323
199.417	22.191	1229.588	971.261
200.432	22.159	1228.904	970.462
201.446	22.127	1228.714	970.047
202.461	22.065	1227.840	968.930
203.475	22.143	1226.561	968.263
204.490	22.151	1225.974	967.757
205.504	22.130	1224.727	966.575
206.519	22.257	1223.427	966.159
207.534	22.261	1222.762	965.570
208.548	22.168	1221.738	964.167
209.563	22.171	1221.218	963.687
210.577	22.219	1220.371	963.197
211.592	22.118	1219.738	962.058
212.607	22.232	1219.070	962.072
213.621	22.306	1218.239	961.736
214.636	22.391	1216.943	961.091
215.650	22.214	1216.508	959.695
216.665	22.236	1215.320	958.794
217.680	22.174	1214.721	957.900
218.694	22.244	1213.874	957.527
219.709	22.449	1213.084	957.936
220.723	22.327	1212.563	956.776
221.738	22.367	1211.473	956.045
222.753	22.121	1211.379	954.555
223.767	22.247	1210.624	954.554
224.782	22.441	1209.841	954.906
225.796	22.511	1209.225	954.715
226.811	22.383	1208.615	953.457
227.826	22.353	1208.239	952.915
228.840	22.352	1207.868	952.530
229.855	22.411	1206.667	951.820
230.869	22.347	1206.390	951.169
231.884	22.366	1205.526	950.506
232.899	22.375	1204.469	949.638
233.913	22.370	1204.202	949.319
234.928	22.528	1203.784	949.756
235.942	22.399	1203.224	948.535
236.957	22.397	1202.172	947.609
237.972	22.528	1201.360	947.593
238.986	22.474	1201.023	946.950
240.001	22.486	1200.297	946.357
241.015	22.544	1199.845	946.233
242.030	22.508	1198.771	945.109
243.045	22.477	1198.083	944.314
244.059	22.508	1197.472	943.914
245.074	22.541	1196.478	943.225
246.088	22.597	1196.011	943.075
247.103	22.630	1194.750	942.172
248.117	22.635	1193.600	941.210
249.132	22.570	1193.472	940.676
250.147	22.541	1192.821	939.927
251.161	22.656	1191.781	939.638
252.176	22.459	1191.520	938.298
253.190	22.570	1190.922	938.334
254.205	22.674	1189.719	937.857
255.220	22.625	1189.100	937.026
256.234	22.622	1189.011	936.855
257.249	22.505	1188.467	935.725
258.263	22.583	1187.878	935.591
259.278	22.646	1187.453	935.510
260.293	22.588	1186.855	934.648
261.307	22.679	1185.841	934.248
262.322	22.679	1185.511	933.902
263.336	22.700	1184.736	933.321
264.351	22.659	1184.063	932.491
265.366	22.709	1183.554	932.276
266.380	22.622	1183.232	931.479
267.395	22.742	1181.916	930.994
268.409	22.638	1181.453	929.995
269.424	22.650	1181.129	929.721
270.439	22.713	1180.625	929.574
271.453	22.695	1179.907	928.834
272.468	22.698	1178.763	927.867
273.482	22.755	1178.129	927.585
274.497	22.693	1178.087	927.146
275.512	22.789	1177.493	927.096
276.526	22.682	1176.816	925.925
277.541	22.801	1176.088	925.892
278.555	22.821	1175.444	925.408
279.570	22.823	1174.386	924.506
280.585	22.960	1173.550	924.480
281.599	22.797	1172.790	922.947
282.614	22.759	1172.354	922.322
283.628	22.838	1170.990	921.579
284.643	22.843	1170.148	920.861
285.657	22.784	1169.576	920.025
286.672	22.911	1168.580	919.822
287.687	22.740	1167.810	918.241
288.701	22.795	1167.693	918.356
289.716	22.869	1166.728	917.899
290.730	22.979	1165.969	917.792
291.745	22.936	1165.461	917.091
292.760	22.990	1164.397	916.454
293.774	22.969	1163.945	915.904
294.789	23.065	1163.748	916.164
295.803	22.992	1163.094	915.195
296.818	22.912	1162.213	914.007
297.833	22.921	1162.093	913.876
298.847	22.946	1161.265	913.275
299.862	22.968	1160.242	912.503
300.876	23.009	1159.846	912.322
301.891	23.107	1158.827	911.942
302.906	23.167	1158.198	911.678
303.920	23.090	1157.459	910.618
304.935	23.117	1156.917	910.249
305.949	23.206	1156.187	910.053
306.964	23.123	1155.384	908.915
307.979	23.206	1154.999	908.956
308.993	23.117	1154.594	908.103
310.008	23.179	1153.879	907.774
311.022	23.149	1153.045	906.888
312.037	23.099	1151.794	905.565
313.052	23.171	1151.448	905.584
314.066	23.150	1150.432	904.597
315.081	23.114	1149.841	903.868
316.095	23.118	1149.717	903.712
317.110	23.128	1148.672	902.858
318.125	23.206	1147.927	902.590
319.139	23.183	1147.305	901.908
320.154	23.218	1146.885	901.675
321.168	23.162	1146.568	901.060
322.183	23.124	1145.717	900.118
323.197	23.087	1145.138	899.396
324.212	23.215	1144.286	899.299
325.227	23.201	1143.722	898.702
326.241	23.195	1143.760	898.625
327.256	23.173	1143.176	897.973
328.270	23.236	1141.935	897.240
329.285	23.276	1140.855	896.513
330.300	23.247	1140.056	895.657
331.314	23.284	1139.285	895.160
332.329	23.414	1138.307	894.972
333.343	23.440	1137.277	894.214
334.358	23.441	1137.011	893.932
335.373	23.407	1136.152	893.002
336.387	23.498	1135.445	892.829
337.402	23.497	1134.888	892.304
338.416	23.420	1134.530	891.559
339.431	23.444	1133.874	891.082
340.446	23.420	1133.291	890.427
341.460	23.518	1132.652	890.336
342.475	23.557	1131.931	889.884
343.489	23.444	1131.093	888.583
344.504	23.390	1130.158	887.497
345.519	23.459	1129.483	887.234
346.533	23.536	1128.167	886.508
347.548	23.426	1128.081	885.811
348.562	23.448	1127.294	885.229
349.577	23.582	1126.253	885.000
350.592	23.536	1125.384	884.006
351.606	23.559	1124.755	883.549
352.621	23.463	1124.585	882.859
353.635	23.564	1123.914	882.760
354.650	23.536	1123.159	881.948
355.665	23.536	1122.777	881.568
356.679	23.489	1122.500	881.040
357.694	23.574	1121.271	880.420
358.708	23.526	1120.490	879.493
359.723	23.523	1120.024	879.030
360.738	23.571	1119.006	878.392
361.752	23.657	1118.772	878.560
362.767	23.563	1118.523	877.819
363.781	23.695	1117.572	877.649
364.796	23.774	1117.312	877.755
365.810	23.638	1116.716	876.540
366.825	23.709	1115.927	876.193
367.840	23.748	1115.568	876.026
368.854	23.797	1114.890	875.660
369.869	23.711	1114.234	874.639
370.883	23.761	1113.355	874.117
371.898	23.763	1112.762	873.588
372.913	23.737	1112.168	872.914
373.927	23.779	1111.637	872.626
374.942	23.846	1111.101	872.456
375.956	23.792	1110.417	871.580
376.971	23.784	1110.123	871.232
377.986	23.766	1109.536	870.605
379.000	23.850	1109.113	870.609
380.015	23.915	1108.299	870.210
381.029	23.924	1107.553	869.589
382.044	23.818	1107.241	868.753
383.059	23.923	1106.512	868.617
384.073	24.016	1105.859	868.479
385.088	24.020	1104.694	867.506
386.102	23.944	1103.865	866.411
387.117	23.879	1103.341	865.606
388.132	23.881	1102.508	864.885
389.146	24.072	1101.364	864.837
390.161	23.859	1101.307	863.684
391.175	23.959	1100.417	863.392
392.190	23.997	1099.545	862.818
393.205	24.011	1099.109	862.466
394.219	24.033	1098.123	861.724
395.234	24.146	1097.475	861.684
396.248	23.957	1096.419	859.866
397.263	23.951	1095.933	859.382
398.278	23.963	1095.760	859.226
399.292	24.064	1094.455	858.614
400.307	24.111	1094.011	858.417
401.321	24.126	1093.649	858.130
402.336	24.039	1093.150	857.242
403.350	24.055	1092.328	856.601
404.365	24.110	1091.495	856.133
405.380	24.183	1090.587	855.697
406.394	24.253	1089.988	855.488
407.409	24.306	1089.068	854.941
408.423	24.330	1088.389	854.451
409.438	24.238	1087.863	853.519
410.453	24.341	1087.576	853.712
411.467	24.287	1086.308	852.385
412.482	24.299	1085.755	851.934
413.496	24.284	1085.027	851.213
414.511	24.302	1084.803	851.051
415.526	24.239	1084.264	850.249
416.540	24.248	1083.852	849.893
417.555	24.339	1083.059	849.630
418.569	24.243	1082.880	848.958
419.584	24.494	1081.875	849.288
420.599	24.364	1081.657	848.424
421.613	148.696	1401.713	1797.362
422.628	137.337	1448.299	1797.462
