DTS Sentinel unit serial number:	SN413079Multiplexer serial number:	ORYXHardware model number:	OX4-SRSoftware version number:	ORYX F/W v4.00 Oryx Data Collector v3.7.2.0data status	okinstallation	princeton_trtdifferential loss correction	single-endedforward channel	channel 2reverse channel	N/Adate	2019/09/13time	13:51:35forward acquisition time	60.00reverse acquisition time	0.00gamma	496.2192k internal	0.2314k external	0.2314temperature offset calibration	1.0206default loss term (dB/km)	0.3790temperature slope calibration	1.0000multiplexer offset coefficient	1.0000multiplexer slope coefficient	1.0000fibre end	0.00T internal ref (°C)	35.16T ext. ref 1 (°C)	4.57T ext. ref 2 (°C)	31.26length (m)	temperature (°C)	Stokes	anti-Stokes-747.200	800.000	-0.047	-0.172
-746.185	-198.365	-0.047	0.000
-745.171	800.000	-0.137	-0.432
-744.156	-97.442	-0.178	-0.047
-743.142	125.042	-0.198	0.252
-742.127	2.238	0.083	-0.061
-741.112	-103.227	-0.370	0.089
-740.098	800.000	-0.048	-0.157
-739.083	-158.143	0.376	0.022
-738.069	-200.000	0.047	0.266
-737.054	-6.820	0.146	-0.100
-736.039	-200.000	-0.042	-0.220
-735.025	-200.000	0.047	0.209
-734.010	-200.000	0.035	-0.234
-732.996	-25.149	0.152	0.091
-731.981	487.632	0.175	-0.404
-730.966	-87.693	0.292	-0.089
-729.952	67.490	-0.122	-0.127
-728.937	-66.182	-0.171	0.069
-727.923	-200.000	-0.024	0.267
-726.908	20.555	0.032	-0.026
-725.894	207.365	0.074	-0.117
-724.879	111.707	-0.090	0.110
-723.864	-200.000	0.061	0.345
-722.850	484.353	-0.056	0.129
-721.835	-72.876	-0.099	-0.037
-720.821	10.778	0.417	-0.323
-719.806	599.438	-0.113	0.285
-718.791	110.719	-0.199	-0.242
-717.777	-15.838	-0.171	0.110
-716.762	-25.849	0.098	0.059
-715.748	280.527	-0.233	-0.422
-714.733	-110.976	0.309	-0.064
-713.718	149.250	0.052	0.072
-712.704	-163.282	-0.234	0.011
-711.689	-200.000	-0.012	0.198
-710.675	12.478	0.280	0.218
-709.660	539.089	0.105	-0.252
-708.645	-191.298	-0.152	-0.002
-707.631	800.000	0.103	-0.314
-706.616	-74.995	-0.074	-0.027
-705.602	800.000	-0.072	-0.208
-704.587	492.844	0.033	-0.076
-703.572	-110.386	0.249	0.052
-702.558	140.751	0.214	-0.286
-701.543	92.998	-0.144	0.164
-700.529	-200.000	-0.034	0.271
-699.514	123.363	0.084	0.107
-698.499	613.335	0.084	-0.213
-697.485	-200.000	-0.013	0.086
-696.470	-200.000	-0.036	0.327
-695.456	-166.379	0.151	-0.006
-694.441	-21.661	-0.374	0.231
-693.426	-154.514	0.245	0.017
-692.412	698.920	0.052	-0.140
-691.397	-86.425	-0.314	0.098
-690.383	182.351	0.115	0.171
-689.368	-162.101	0.084	0.004
-688.354	620.444	0.199	-0.507
-687.339	-174.760	0.041	0.001
-686.324	-39.276	-0.328	-0.174
-685.310	736.652	0.118	-0.320
-684.295	-156.748	0.085	-0.005
-683.281	-34.303	-0.179	-0.099
-682.266	800.000	0.042	-0.123
-681.251	-9.524	-0.276	-0.186
-680.237	-200.000	-0.026	0.244
-679.222	-200.000	0.071	-0.318
-678.208	-200.000	0.017	-0.081
-677.193	-122.600	0.168	0.028
-676.178	158.865	0.068	-0.096
-675.164	-200.000	-0.081	0.361
-674.149	687.236	-0.069	0.181
-673.135	-18.051	-0.285	0.180
-672.120	70.406	0.105	-0.110
-671.105	-183.203	-0.241	0.004
-670.091	-137.484	0.080	0.009
-669.076	14.706	-0.182	-0.144
-668.062	-200.000	-0.039	-0.199
-667.047	800.000	-0.065	-0.221
-666.032	800.000	0.084	0.283
-665.018	35.539	-0.122	0.109
-664.003	-200.000	0.007	0.170
-662.989	49.243	-0.082	-0.078
-661.974	149.563	-0.107	-0.146
-660.959	-121.200	0.306	-0.052
-659.945	188.046	-0.227	-0.343
-658.930	118.966	-0.086	0.108
-657.916	497.581	-0.101	-0.235
-656.901	-40.737	0.217	-0.113
-655.886	-200.000	0.002	-0.076
-654.872	-22.617	-0.100	-0.061
-653.857	146.833	-0.140	-0.190
-652.843	-29.443	0.256	0.148
-651.828	-200.000	0.015	0.089
-650.814	6.059	0.130	0.097
-649.799	800.000	-0.037	-0.131
-648.784	707.291	-0.090	-0.240
-647.770	155.707	-0.203	-0.282
-646.755	-41.493	-0.154	-0.080
-645.741	-31.732	-0.150	0.085
-644.726	-200.000	-0.018	0.367
-643.711	7.514	-0.118	-0.089
-642.697	-200.000	0.004	-0.214
-641.682	75.333	0.202	-0.215
-640.668	11.999	-0.042	-0.033
-639.653	120.974	0.153	0.192
-638.638	-132.359	-0.161	-0.021
-637.624	25.681	0.217	0.182
-636.609	63.483	-0.142	-0.144
-635.595	-200.000	0.055	0.246
-634.580	-0.121	-0.117	-0.084
-633.565	-200.000	-0.076	0.350
-632.551	98.575	-0.269	-0.313
-631.536	576.715	-0.152	-0.375
-630.522	800.000	-0.123	0.445
-629.507	-30.055	-0.221	0.127
-628.492	-98.023	-0.114	-0.030
-627.478	800.000	-0.069	-0.290
-626.463	544.958	-0.071	-0.172
-625.449	-167.653	-0.269	-0.011
-624.434	159.242	0.111	0.156
-623.419	71.533	0.126	-0.132
-622.405	32.349	-0.317	0.276
-621.390	167.534	-0.198	-0.283
-620.376	-200.000	0.025	-0.154
-619.361	21.856	0.164	-0.135
-618.346	-200.000	-0.030	0.223
-617.332	-84.114	-0.149	0.048
-616.317	-200.000	0.056	-0.358
-615.303	-200.000	0.041	-0.241
-614.288	-22.372	0.322	-0.197
-613.273	325.460	0.176	0.339
-612.259	800.000	0.066	0.271
-611.244	-57.629	0.180	-0.079
-610.230	100.082	-0.069	-0.080
-609.215	19.404	-0.233	0.188
-608.201	241.238	-0.105	-0.176
-607.186	-74.804	0.153	0.055
-606.171	75.021	0.026	-0.028
-605.157	-200.000	-0.009	0.187
-604.142	-56.597	-0.203	0.091
-603.128	-82.996	-0.193	0.063
-602.113	11.978	0.106	0.082
-601.098	-200.000	0.014	0.184
-600.084	19.354	0.090	-0.073
-599.069	615.649	-0.085	-0.214
-598.055	-59.602	-0.080	0.035
-597.040	-200.000	-0.001	-0.372
-596.025	800.000	0.051	-0.177
-595.011	78.570	0.140	-0.150
-593.996	-44.895	0.299	0.150
-592.982	-99.851	0.117	-0.029
-591.967	25.666	-0.253	-0.212
-590.952	-84.997	-0.313	-0.099
-589.938	77.796	-0.139	0.149
-588.923	667.503	0.063	0.165
-587.909	-200.000	-0.047	-0.293
-586.894	-200.000	0.019	0.160
-585.879	81.565	0.210	-0.229
-584.865	3.779	0.135	-0.099
-583.850	727.829	-0.094	-0.253
-582.836	152.019	0.127	-0.175
-581.821	-3.312	-0.377	0.265
-580.806	131.436	0.140	-0.181
-579.792	152.065	-0.083	-0.114
-578.777	-200.000	-0.002	-0.312
-577.763	-94.748	0.177	-0.048
-576.748	800.000	-0.066	-0.193
-575.733	261.730	-0.034	0.059
-574.719	-187.661	0.094	0.001
-573.704	110.664	-0.179	0.216
-572.690	-28.711	0.254	0.147
-571.675	800.000	-0.028	0.105
-570.661	156.706	-0.218	-0.304
-569.646	142.279	0.078	0.104
-568.631	-61.792	0.197	0.083
-567.617	-200.000	0.035	0.323
-566.602	-97.430	-0.253	-0.066
-565.588	94.091	0.309	0.353
-564.573	800.000	-0.046	0.188
-563.558	-200.000	0.010	0.053
-562.544	-106.098	0.282	-0.064
-561.529	-163.882	-0.192	0.009
-560.515	-99.973	0.597	0.150
-559.500	-147.553	-0.262	-0.022
-558.485	4.779	0.135	0.100
-557.471	-5.084	-0.237	-0.164
-556.456	800.000	0.077	0.255
-555.442	286.453	0.088	-0.160
-554.427	-20.441	-0.053	-0.033
-553.412	-148.632	0.228	-0.019
-552.398	-67.654	-0.234	0.092
-551.383	-41.726	0.339	-0.175
-550.369	-52.747	0.183	0.085
-549.354	-6.904	-0.145	-0.099
-548.339	47.198	0.143	-0.134
-547.325	54.186	0.149	0.144
-546.310	59.664	0.086	0.085
-545.296	800.000	-0.017	0.065
-544.281	800.000	-0.076	-0.262
-543.266	-200.000	0.128	-0.000
-542.252	143.316	-0.153	0.205
-541.237	-18.677	0.072	0.045
-540.223	-59.469	0.112	0.049
-539.208	-200.000	-0.012	0.127
-538.193	-90.044	0.340	-0.100
-537.179	-200.000	-0.007	0.046
-536.164	5.173	0.112	0.083
-535.150	-200.000	-0.050	-0.274
-534.135	-200.000	0.051	-0.229
-533.121	45.284	0.261	0.242
-532.106	-53.161	0.092	-0.043
-531.091	-55.583	-0.200	0.090
-530.077	436.395	-0.121	0.264
-529.062	-96.643	0.119	-0.031
-528.048	800.000	0.077	0.267
-527.033	-69.881	-0.434	0.167
-526.018	-200.000	0.002	-0.240
-525.004	104.225	0.141	0.167
-523.989	-76.517	-0.114	-0.040
-522.975	-9.892	0.238	-0.159
-521.960	65.212	-0.106	0.108
-520.945	-200.000	0.004	0.171
-519.931	-158.373	-0.235	0.014
-518.916	-129.882	-0.382	0.053
-517.902	-66.512	-0.098	0.039
-516.887	-10.506	-0.255	0.170
-515.872	-200.000	-0.023	-0.149
-514.858	-200.000	-0.028	-0.195
-513.843	-200.000	-0.040	0.226
-512.829	155.642	0.127	0.176
-511.814	800.000	-0.061	0.191
-510.799	-200.000	0.034	-0.234
-509.785	15.975	-0.069	0.055
-508.770	6.759	-0.091	0.068
-507.756	-8.441	-0.124	0.084
-506.741	800.000	-0.021	0.073
-505.726	-143.138	0.252	-0.024
-504.712	-26.770	0.280	0.164
-503.697	-200.000	0.057	0.298
-502.683	-32.484	0.319	0.178
-501.668	317.800	-0.082	-0.156
-500.653	-132.802	0.277	0.036
-499.639	-2.542	0.063	0.044
-498.624	581.096	0.029	-0.071
-497.610	800.000	0.072	-0.285
-496.595	-200.000	-0.067	0.424
-495.581	589.775	-0.052	0.128
-494.566	-33.642	0.092	0.051
-493.551	10.248	-0.232	0.177
-492.537	-200.000	0.019	-0.189
-491.522	800.000	0.062	0.226
-490.508	-200.000	0.001	0.059
-489.493	-19.156	-0.154	0.096
-488.478	113.489	0.095	-0.116
-487.464	800.000	0.071	0.248
-486.449	-55.334	-0.253	-0.114
-485.435	31.573	-0.088	-0.076
-484.420	-110.693	0.164	0.034
-483.405	-200.000	0.035	0.215
-482.391	-200.000	0.005	-0.138
-481.376	800.000	0.042	-0.131
-480.362	-153.977	-0.178	0.012
-479.347	167.638	-0.015	-0.022
-478.332	-200.000	0.036	0.173
-477.318	160.937	-0.192	-0.270
-476.303	800.000	0.086	0.275
-475.289	-200.000	-0.009	0.121
-474.274	-108.037	-0.571	0.124
-473.259	-35.930	0.086	-0.046
-472.245	273.116	0.140	-0.248
-471.230	372.193	-0.135	-0.275
-470.216	800.000	0.065	-0.216
-469.201	-172.889	0.093	-0.003
-468.186	-105.592	0.047	0.011
-467.172	204.013	-0.058	0.091
-466.157	800.000	-0.083	0.287
-465.143	347.809	-0.169	0.334
-464.128	800.000	0.062	0.252
-463.113	50.241	0.066	0.062
-462.099	128.831	-0.113	0.144
-461.084	513.954	-0.018	0.041
-460.070	-200.000	-0.024	0.205
-459.055	-153.227	-0.409	0.029
-458.040	135.498	0.034	0.044
-457.026	-149.495	-0.102	-0.008
-456.011	105.067	0.127	0.150
-454.997	-95.427	0.471	-0.127
-453.982	676.928	-0.075	0.196
-452.968	-200.000	0.013	0.173
-451.953	390.264	0.072	-0.149
-450.938	800.000	0.030	0.122
-449.924	11.511	0.202	0.155
-448.909	-184.007	-0.500	-0.008
-447.895	-60.364	0.216	0.092
-446.880	-60.769	0.362	0.154
-445.865	2.281	0.295	0.213
-444.851	-89.994	-0.309	-0.090
-443.836	800.000	-0.060	-0.176
-442.822	-200.000	0.036	-0.216
-441.807	800.000	0.014	0.051
-440.792	351.060	0.192	-0.381
-439.778	-116.904	-0.334	-0.061
-438.763	800.000	-0.057	-0.163
-437.749	-200.000	-0.008	-0.100
-436.734	-7.731	-0.329	0.222
-435.719	45.689	-0.217	0.201
-434.705	800.000	0.079	0.307
-433.690	-138.247	0.277	0.031
-432.676	412.313	-0.067	0.142
-431.661	48.964	0.109	-0.102
-430.646	205.688	-0.036	0.057
-429.632	-200.000	-0.021	-0.305
-428.617	-200.000	-0.017	-0.239
-427.603	55.564	0.238	-0.231
-426.588	188.424	0.091	-0.136
-425.573	-100.612	0.260	-0.064
-424.559	-0.975	-0.023	0.016
-423.544	296.471	0.165	0.303
-422.530	-200.000	0.022	-0.244
-421.515	144.168	0.073	0.098
-420.500	697.847	-0.075	0.196
-419.486	-78.324	-0.218	-0.075
-418.471	428.697	-0.055	-0.119
-417.457	99.458	-0.149	0.172
-416.442	407.929	-0.122	0.258
-415.428	-70.644	0.303	0.115
-414.413	-136.295	0.273	-0.032
-413.398	-77.016	-0.269	-0.094
-412.384	209.988	-0.086	-0.135
-411.369	-116.492	-0.183	-0.034
-410.355	130.624	-0.061	-0.078
-409.340	-104.170	0.167	0.039
-408.325	-19.771	0.175	0.108
-407.311	564.400	0.105	-0.255
-406.296	119.284	-0.136	-0.169
-405.282	-50.336	-0.303	-0.143
-404.267	77.770	-0.026	0.027
-403.252	-123.524	-0.173	0.028
-402.238	42.906	0.191	0.174
-401.223	800.000	-0.045	-0.180
-400.209	132.549	-0.260	0.336
-399.194	685.109	-0.099	0.259
-398.179	71.268	-0.049	0.051
-397.165	-200.000	-0.003	-0.177
-396.150	30.480	0.260	0.222
-395.136	302.708	-0.204	0.377
-394.121	715.115	0.078	-0.206
-393.106	-200.000	0.035	-0.189
-392.092	-200.000	-0.030	-0.227
-391.077	-200.000	-0.005	-0.032
-390.063	-14.320	0.204	0.131
-389.048	-58.098	0.245	-0.107
-388.033	-200.000	0.050	0.362
-387.019	150.256	0.170	0.231
-386.004	-58.481	-0.275	0.119
-384.990	-28.805	0.231	0.133
-383.975	-200.000	-0.366	0.000
-382.960	127.986	-0.276	-0.351
-381.946	186.452	-0.133	0.197
-380.931	-67.089	0.257	0.101
-379.917	582.490	0.018	-0.043
-378.902	-200.000	0.004	0.108
-377.888	54.789	-0.159	-0.154
-376.873	-14.321	-0.280	0.180
-375.858	166.190	0.095	0.134
-374.844	-115.071	0.062	0.012
-373.829	144.198	-0.118	-0.157
-372.815	20.957	-0.169	0.137
-371.800	-72.918	-0.301	-0.111
-370.785	-127.141	-0.112	-0.016
-369.771	-200.000	0.002	0.185
-368.756	-94.075	0.219	-0.060
-367.742	67.513	-0.025	0.026
-366.727	-41.754	-0.199	0.102
-365.712	31.500	-0.228	0.196
-364.698	-200.000	-0.027	-0.144
-363.683	62.727	-0.184	0.184
-362.669	-182.302	-0.273	-0.005
-361.654	-200.000	0.078	-0.351
-360.639	0.507	0.189	0.135
-359.625	-76.436	-0.181	0.064
-358.610	70.268	-0.181	-0.186
-357.596	215.373	0.055	0.087
-356.581	-3.670	0.165	0.114
-355.566	435.005	0.041	0.090
-354.552	-200.000	-0.029	0.315
-353.537	193.139	-0.114	-0.172
-352.523	-132.853	0.097	-0.012
-351.508	192.087	0.044	0.066
-350.493	-37.946	-0.363	0.193
-349.479	-49.115	0.171	0.081
-348.464	22.239	-0.231	0.188
-347.450	179.711	0.186	-0.272
-346.435	800.000	-0.072	-0.252
-345.420	-88.773	-0.380	-0.112
-344.406	20.462	0.163	-0.132
-343.391	200.489	-0.150	-0.230
-342.377	800.000	0.040	-0.172
-341.362	-200.000	0.017	-0.204
-340.348	-200.000	0.053	0.268
-339.333	15.039	-0.247	-0.193
-338.318	-99.928	-0.152	-0.038
-337.304	-200.000	0.043	-0.455
-336.289	111.253	-0.074	-0.089
-335.275	-21.135	0.164	-0.100
-334.260	595.486	0.141	0.349
-333.245	-200.000	-0.059	0.573
-332.231	-108.162	0.056	0.012
-331.216	41.631	0.071	-0.064
-330.202	-129.709	-0.160	-0.022
-329.187	-58.162	0.131	-0.057
-328.172	137.330	0.079	-0.103
-327.158	-114.514	0.176	-0.034
-326.143	203.276	-0.098	-0.152
-325.129	800.000	-0.054	0.167
-324.114	271.475	-0.103	-0.180
-323.099	40.722	0.275	-0.247
-322.085	800.000	-0.073	0.288
-321.070	-110.904	-0.240	-0.049
-320.056	-136.773	-0.231	-0.027
-319.041	-9.567	0.357	0.237
-318.026	-21.065	-0.144	-0.088
-317.012	800.000	0.024	0.100
-315.997	-8.520	0.120	0.081
-314.983	800.000	0.037	-0.114
-313.968	-1.022	0.008	0.006
-312.953	-2.921	0.107	-0.075
-311.939	713.429	0.043	-0.114
-310.924	97.491	-0.104	-0.119
-309.910	-52.887	-0.139	0.064
-308.895	244.051	0.167	0.280
-307.880	-193.681	0.300	-0.003
-306.866	-1.515	0.018	-0.012
-305.851	800.000	-0.067	-0.213
-304.837	-200.000	-0.043	-0.268
-303.822	-88.279	-0.177	0.053
-302.807	248.109	-0.198	-0.334
-301.793	-102.496	-0.042	-0.010
-300.778	-61.832	0.163	0.068
-299.764	271.587	0.159	-0.280
-298.749	-175.176	0.170	-0.005
-297.735	263.435	0.210	-0.363
-296.720	-83.807	0.119	-0.038
-295.705	29.035	0.193	-0.163
-294.691	197.648	0.118	-0.179
-293.676	-200.000	-0.007	0.139
-292.662	-111.406	0.122	0.025
-291.647	9.020	0.046	-0.035
-290.632	92.048	-0.119	0.134
-289.618	-51.854	0.169	0.078
-288.603	-200.000	-0.003	-0.056
-287.589	-59.409	-0.229	0.098
-286.574	278.142	0.114	0.202
-285.559	-116.123	0.268	0.050
-284.545	800.000	-0.034	0.108
-283.530	-200.000	0.024	-0.219
-282.516	-200.000	-0.022	-0.236
-281.501	-171.154	0.345	-0.012
-280.486	800.000	0.009	0.024
-279.472	-13.337	-0.015	0.009
-278.457	-125.338	0.066	0.010
-277.443	-115.934	0.178	0.033
-276.428	-94.375	0.078	0.021
-275.413	577.806	-0.100	-0.243
-274.399	29.663	0.140	0.119
-273.384	-53.320	-0.217	0.099
-272.370	29.345	-0.078	0.066
-271.355	-139.465	-0.203	-0.022
-270.340	22.491	-0.242	-0.197
-269.326	-92.490	-0.385	-0.108
-268.311	-200.000	-0.008	-0.062
-267.297	364.083	-0.063	-0.126
-266.282	-40.609	0.190	0.098
-265.267	144.247	0.318	0.422
-264.253	231.716	-0.170	-0.277
-263.238	65.526	-0.021	0.021
-262.224	-200.000	0.029	0.137
-261.209	-20.811	0.254	0.155
-260.195	-200.000	0.008	-0.251
-259.180	212.368	-0.169	0.264
-258.165	-81.947	0.537	-0.174
-257.151	800.000	-0.088	-0.326
-256.136	111.997	0.113	-0.136
-255.122	365.589	0.150	0.300
-254.107	45.939	-0.172	-0.158
-253.092	102.531	0.091	-0.106
-252.078	-113.624	0.157	0.030
-251.063	14.011	-0.261	-0.202
-250.049	-130.898	-0.241	-0.032
-249.034	-27.013	0.091	0.053
-248.019	-118.661	-0.108	-0.019
-247.005	-143.657	0.484	-0.046
-245.990	-82.373	-0.130	0.042
-244.976	-148.155	0.436	0.036
-243.961	-9.454	-0.128	-0.085
-242.946	-144.615	-0.130	-0.012
-241.932	-200.000	0.018	0.096
-240.917	85.286	0.071	0.078
-239.903	-160.598	0.186	-0.010
-238.888	197.248	-0.066	-0.101
-237.873	3.556	0.367	0.266
-236.859	155.637	-0.019	-0.027
-235.844	84.179	0.043	-0.046
-234.830	-200.000	-0.017	0.146
-233.815	-156.821	0.217	-0.013
-232.800	99.160	0.225	-0.259
-231.786	52.469	-0.096	-0.091
-230.771	167.479	-0.173	-0.244
-229.757	-200.000	-0.040	-0.207
-228.742	80.876	0.145	-0.155
-227.727	-200.000	-0.012	0.123
-226.713	169.019	0.076	0.108
-225.698	50.489	-0.131	0.123
-224.684	-200.000	0.012	-0.164
-223.669	800.000	0.060	-0.192
-222.655	-151.633	0.180	0.013
-221.640	-45.343	0.090	-0.044
-220.625	139.219	-0.224	-0.293
-219.611	3.564	0.158	-0.115
-218.596	159.785	-0.127	0.175
-217.582	353.394	0.123	-0.242
-216.567	251.517	0.206	-0.348
-215.552	380.610	0.125	-0.254
-214.538	-124.296	0.088	0.014
-213.523	-4.049	-0.307	0.211
-212.509	760.716	0.125	-0.337
-211.494	-164.920	0.115	0.005
-210.479	16.851	-0.215	-0.169
-209.465	-77.201	-0.235	-0.081
-208.450	302.323	-0.064	0.118
-207.436	-46.850	-0.128	0.062
-206.421	800.000	0.064	-0.278
-205.406	-38.052	-0.325	0.171
-204.392	-87.388	0.526	-0.158
-203.377	123.160	-0.112	0.140
-202.363	114.328	0.207	-0.250
-201.348	800.000	-0.072	0.262
-200.333	-40.110	-0.128	-0.066
-199.319	-105.827	-0.172	-0.039
-198.304	-2.705	0.282	-0.196
-197.290	506.535	-0.051	0.118
-196.275	179.344	-0.018	0.027
-195.260	-200.000	0.029	0.489
-194.246	279.137	-0.047	0.083
-193.231	-200.000	0.008	0.063
-192.217	28.193	0.090	-0.076
-191.202	700.465	0.058	0.153
-190.187	26.451	-0.129	0.107
-189.173	344.146	0.050	0.097
-188.158	-114.471	0.115	0.022
-187.144	-70.018	0.060	-0.023
-186.129	-94.008	0.152	0.041
-185.114	61.006	-0.090	0.089
-184.100	-17.812	0.032	0.020
-183.085	-200.000	0.001	0.354
-182.071	-200.000	0.010	-0.126
-181.056	77.315	0.154	-0.163
-180.042	-200.000	-0.007	0.215
-179.027	176.466	0.189	0.272
-178.012	-66.296	-0.428	-0.169
-176.998	-142.445	-0.123	-0.012
-175.983	509.209	-0.122	0.281
-174.969	88.230	0.070	0.077
-173.954	448.793	0.123	0.268
-172.939	-200.000	0.005	0.166
-171.925	-39.776	0.282	0.146
-170.910	110.833	0.099	0.118
-169.896	190.299	-0.196	-0.292
-168.881	-200.000	-0.036	-0.231
-167.866	325.065	-0.028	-0.052
-166.852	-85.837	0.086	0.026
-165.837	266.103	0.066	0.113
-164.823	-10.380	0.434	-0.285
-163.808	135.956	-0.169	-0.218
-162.793	61.807	-0.209	-0.206
-161.779	-50.062	0.184	-0.086
-160.764	-200.000	-0.028	0.283
-159.750	-200.000	-0.036	-0.158
-158.735	-200.000	-0.013	0.083
-157.720	5.272	-0.447	0.327
-156.706	800.000	0.071	-0.255
-155.691	-55.414	0.179	0.080
-154.677	331.161	-0.014	0.027
-153.662	-200.000	0.008	-0.070
-152.647	-200.000	0.021	-0.295
-151.633	-121.900	-0.273	0.044
-150.618	5.825	-0.199	-0.146
-149.604	173.936	0.198	0.283
-148.589	-200.000	0.027	-0.352
-147.574	93.966	0.260	0.292
-146.560	331.903	-0.054	0.104
-145.545	50.471	-0.291	0.273
-144.531	-123.196	0.175	-0.028
-143.516	800.000	0.088	-0.295
-142.502	-121.547	0.249	0.041
-141.487	-20.588	0.098	0.060
-140.472	800.000	-0.132	-0.447
-139.458	800.000	-0.045	-0.149
-138.443	-49.896	0.089	0.042
-137.429	5.172	-0.197	0.144
-136.414	-85.470	-0.159	-0.049
-135.399	-200.000	-0.002	0.175
-134.385	800.000	0.069	-0.232
-133.370	-75.317	0.220	0.078
-132.356	-100.185	-0.233	0.057
-131.341	259.503	-0.108	0.184
-130.326	-40.980	-0.353	0.181
-129.312	800.000	0.073	0.200
-128.297	-124.830	-0.213	-0.033
-127.283	6.013	-0.161	-0.118
-126.268	10.102	0.114	0.086
-125.253	-47.051	-0.180	-0.087
-124.239	-6.248	0.073	-0.049
-123.224	-69.843	0.165	0.062
-122.210	-12.290	0.158	-0.102
-121.195	-104.346	0.067	0.015
-120.180	-200.000	0.000	0.054
-119.166	-37.954	0.088	-0.046
-118.151	-125.370	0.492	-0.074
-117.137	86.533	0.181	0.198
-116.122	-13.871	-0.198	0.127
-115.107	-64.766	0.244	-0.098
-114.093	725.317	-0.140	0.368
-113.078	7.043	0.307	0.226
-112.064	27.988	0.125	0.104
-111.049	100.564	-0.130	0.149
-110.034	-14.128	0.139	-0.089
-109.020	-52.740	0.424	0.193
-108.005	-45.882	0.036	-0.018
-106.991	800.000	0.025	0.083
-105.976	83.910	0.076	-0.082
-104.962	121.595	-0.065	-0.080
-103.947	-69.455	0.193	0.073
-102.932	65.935	0.122	-0.122
-101.918	800.000	0.149	0.551
-100.903	-200.000	0.040	-0.267
-99.889	613.818	-0.037	0.092
-98.874	-200.000	-0.050	0.479
-97.859	44.644	-0.051	-0.046
-96.845	784.097	-0.127	0.344
-95.830	428.324	-0.101	-0.215
-94.816	-156.173	-0.231	0.014
-93.801	-151.250	0.204	0.015
-92.786	-94.338	0.336	-0.091
-91.772	-105.596	0.280	-0.063
-90.757	-200.000	-0.023	-0.139
-89.743	117.339	-0.122	0.148
-88.728	10.733	-0.107	-0.081
-87.713	-63.331	-0.309	-0.126
-86.699	-150.384	-0.324	0.025
-85.684	137.612	0.095	0.123
-84.670	-151.334	-0.514	-0.038
-83.655	800.000	-0.157	0.512
-82.640	-109.636	-0.075	0.016
-81.626	-48.242	-0.035	0.017
-80.611	-200.000	0.002	0.064
-79.597	122.647	0.315	0.389
-78.582	-91.212	-0.351	-0.099
-77.567	800.000	0.091	0.343
-76.553	-200.000	0.018	-0.280
-75.538	46.081	0.004	0.004
-74.524	579.014	-0.079	0.191
-73.509	-13.972	-0.104	0.066
-72.494	-200.000	-0.008	0.253
-71.480	-42.809	-0.256	-0.129
-70.465	-200.000	0.002	-0.077
-69.451	-128.280	0.018	0.003
-68.436	800.000	-0.068	-0.240
-67.422	47.763	0.371	-0.342
-66.407	-200.000	0.022	-0.171
-65.392	584.355	0.054	-0.130
-64.378	-167.375	0.329	-0.013
-63.363	-42.344	-0.232	0.117
-62.349	-116.187	0.129	0.024
-61.334	87.445	-0.894	-0.977
-60.319	-200.000	0.109	0.550
-59.305	-200.000	0.075	-1.046
-58.290	273.484	0.572	0.998
-57.276	501.310	0.542	1.234
-56.261	-200.000	94.500	562.033
-55.246	649.131	1381.186	3486.503
-54.232	186.665	2610.047	3834.924
-53.217	117.624	2320.961	2818.084
-52.203	45.219	1932.732	1758.002
-51.188	38.589	1717.956	1511.630
-50.173	35.708	1672.490	1449.877
-49.159	52.190	1720.699	1618.099
-48.144	55.547	1738.221	1660.170
-47.130	38.203	1695.062	1488.311
-46.115	35.204	1679.497	1451.903
-45.100	34.982	1674.970	1446.256
-44.086	34.972	1672.556	1444.039
-43.071	35.032	1669.490	1441.788
-42.057	35.010	1667.397	1439.754
-41.042	34.991	1665.512	1437.932
-40.027	35.062	1663.378	1436.563
-39.013	35.086	1661.576	1435.132
-37.998	34.998	1659.726	1432.818
-36.984	35.077	1658.564	1432.344
-35.969	35.104	1657.095	1431.219
-34.954	35.162	1655.409	1430.146
-33.940	35.174	1653.840	1428.821
-32.925	35.176	1651.406	1426.675
-31.911	35.066	1650.556	1425.063
-30.896	35.167	1648.089	1423.626
-29.881	35.128	1646.995	1422.337
-28.867	35.098	1645.065	1420.391
-27.852	35.170	1643.508	1419.523
-26.838	35.146	1642.003	1417.989
-25.823	35.218	1640.539	1417.206
-24.809	35.273	1638.816	1416.065
-23.794	35.195	1638.184	1414.889
-22.779	35.145	1636.663	1413.149
-21.765	35.091	1634.610	1410.926
-20.750	35.155	1632.820	1409.790
-19.736	35.187	1631.733	1409.035
-18.721	35.274	1630.098	1408.202
-17.706	35.166	1628.409	1405.898
-16.692	35.193	1626.858	1404.701
-15.677	35.198	1625.046	1403.115
-14.663	35.248	1623.989	1402.517
-13.648	35.205	1622.695	1401.025
-12.633	35.184	1620.869	1399.243
-11.619	35.182	1619.409	1397.911
-10.604	35.205	1617.954	1396.769
-9.590	35.236	1616.686	1395.845
-8.575	35.210	1615.070	1394.202
-7.560	35.147	1614.126	1392.876
-6.546	35.167	1613.369	1392.310
-5.531	35.132	1612.114	1390.915
-4.517	35.190	1610.438	1389.839
-3.502	35.130	1610.006	1388.978
-2.487	35.268	1608.272	1388.426
-1.473	35.044	1596.431	1376.535
-0.458	32.256	1577.034	1339.918
0.556	30.706	1576.353	1303.404
1.571	27.703	1600.699	1302.016
2.586	26.449	1612.738	1302.674
3.600	23.092	1557.835	1234.816
4.615	14.073	1445.864	1087.248
5.629	6.140	1379.442	987.537
6.644	4.568	1371.079	971.642
7.659	4.551	1369.362	970.232
8.673	4.586	1368.824	969.987
9.688	4.575	1367.030	968.556
10.702	4.541	1365.041	966.855
11.717	8.328	1372.097	995.411
12.731	17.432	1387.863	1063.930
13.746	22.710	1396.903	1103.885
14.761	22.745	1395.148	1102.619
15.775	21.889	1393.165	1095.607
16.790	20.872	1390.067	1086.736
17.804	20.032	1388.199	1079.945
18.819	19.717	1386.963	1076.929
19.834	19.585	1385.479	1074.855
20.848	19.382	1384.964	1073.102
21.863	19.274	1383.099	1070.886
22.877	19.041	1382.298	1068.730
23.892	19.062	1380.955	1067.725
24.907	19.023	1380.618	1067.127
25.921	19.075	1379.166	1066.234
26.936	19.050	1378.545	1065.502
27.950	19.088	1377.548	1064.873
28.965	19.158	1377.116	1064.879
29.980	19.308	1375.509	1064.469
30.994	19.389	1374.856	1064.370
32.009	19.460	1373.271	1063.482
33.023	19.426	1372.404	1062.508
34.038	19.361	1370.723	1060.716
35.053	19.260	1369.425	1058.996
36.067	19.269	1368.085	1057.923
37.082	19.227	1367.836	1057.380
38.096	19.405	1366.511	1057.350
39.111	19.392	1365.896	1056.705
40.126	19.235	1364.915	1054.886
41.140	19.022	1363.516	1052.412
42.155	18.885	1362.983	1051.065
43.169	18.666	1363.402	1049.959
44.184	18.772	1362.635	1049.926
45.199	18.802	1362.410	1049.837
46.213	18.986	1361.932	1050.500
47.228	19.171	1360.905	1050.748
48.242	19.213	1360.051	1050.249
49.257	19.225	1358.485	1049.022
50.271	19.168	1357.128	1047.534
51.286	19.179	1356.175	1046.774
52.301	19.277	1354.453	1045.945
53.315	19.070	1353.295	1043.701
54.330	18.950	1352.480	1042.255
55.344	18.954	1351.076	1041.106
56.359	18.813	1350.420	1039.652
57.374	18.815	1349.470	1038.845
58.388	18.792	1348.679	1038.004
59.403	18.743	1348.319	1037.337
60.417	18.753	1346.956	1036.259
61.432	18.666	1345.986	1034.895
62.447	18.631	1345.583	1034.281
63.461	18.577	1344.218	1032.816
64.476	18.562	1343.053	1031.740
65.490	18.550	1342.038	1030.799
66.505	18.748	1340.035	1030.356
67.520	18.596	1339.210	1028.718
68.534	18.597	1338.163	1027.832
69.549	18.645	1337.347	1027.397
70.563	18.472	1336.443	1025.581
71.578	18.489	1334.594	1024.172
72.593	18.381	1333.892	1022.894
73.607	18.383	1333.427	1022.459
74.622	18.412	1332.618	1021.924
75.636	18.490	1332.212	1021.989
76.651	18.467	1331.240	1021.011
77.666	18.539	1330.809	1021.022
78.680	18.530	1330.384	1020.553
79.695	18.764	1329.376	1021.079
80.709	18.768	1328.706	1020.500
81.724	18.756	1328.151	1019.909
82.739	18.946	1327.065	1020.111
83.753	18.949	1327.151	1020.109
84.768	19.314	1326.003	1021.300
85.782	19.254	1325.008	1020.085
86.797	19.309	1323.334	1019.032
87.812	19.134	1322.654	1017.386
88.826	19.149	1321.510	1016.504
89.841	19.292	1320.483	1016.465
90.855	19.295	1319.462	1015.606
91.870	19.345	1318.682	1015.210
92.884	19.336	1318.427	1014.876
93.899	19.341	1317.055	1013.753
94.914	19.478	1316.372	1013.946
95.928	19.387	1315.840	1012.912
96.943	19.347	1314.643	1011.665
97.957	19.230	1314.181	1010.534
98.972	19.233	1312.929	1009.501
99.987	19.277	1311.707	1008.727
101.001	19.307	1310.602	1007.965
102.016	19.269	1309.823	1007.058
103.030	19.336	1308.750	1006.531
104.045	19.328	1308.072	1005.875
105.060	19.185	1306.538	1003.773
106.074	18.944	1304.868	1000.998
107.089	18.743	1303.551	998.733
108.103	18.608	1302.132	996.774
109.118	18.653	1300.927	996.024
110.133	18.672	1299.464	994.926
111.147	18.613	1298.811	993.992
112.162	18.707	1297.784	993.661
113.176	18.888	1295.978	993.242
114.191	18.831	1295.253	992.267
115.206	18.842	1294.519	991.683
116.220	18.756	1292.934	989.884
117.235	18.783	1292.282	989.452
118.249	18.736	1291.044	988.148
119.264	18.651	1289.977	986.751
120.279	18.671	1288.537	985.678
121.293	18.553	1287.665	984.248
122.308	18.395	1287.168	982.871
123.322	18.418	1285.798	981.873
124.337	18.469	1284.331	980.956
125.352	18.463	1283.316	980.058
126.366	18.485	1282.299	979.323
127.381	18.381	1281.709	978.190
128.395	18.359	1280.554	977.099
129.410	18.536	1279.173	976.964
130.424	18.632	1278.607	976.995
131.439	18.744	1277.851	976.967
132.454	18.760	1276.732	976.118
133.468	18.873	1276.060	976.159
134.483	18.718	1275.704	974.922
135.497	18.919	1274.347	974.934
136.512	18.848	1273.251	973.607
137.527	18.993	1271.691	973.152
138.541	18.849	1270.337	971.213
139.556	18.970	1269.262	970.990
140.570	18.986	1268.435	970.365
141.585	19.240	1267.207	970.766
142.600	19.117	1266.504	969.451
143.614	19.247	1265.518	969.339
144.629	19.367	1264.263	968.971
145.643	19.308	1263.540	967.998
146.658	19.244	1261.757	966.189
147.673	19.068	1260.637	964.261
148.687	18.970	1258.825	962.239
149.702	18.859	1257.579	960.583
150.716	18.848	1256.616	959.700
151.731	18.850	1255.234	958.567
152.746	18.825	1254.098	957.478
153.760	18.982	1252.728	957.224
154.775	18.935	1252.427	956.647
155.789	18.978	1251.372	955.993
156.804	19.202	1249.862	956.000
157.819	19.157	1249.218	955.170
158.833	19.284	1248.526	955.264
159.848	19.440	1246.976	954.854
160.862	19.302	1246.540	953.676
161.877	19.120	1245.049	951.441
162.892	18.882	1243.965	949.215
163.906	18.902	1242.688	948.266
164.921	18.923	1242.354	948.044
165.935	18.969	1241.016	947.192
166.950	18.969	1241.067	947.149
167.964	19.060	1239.782	946.585
168.979	19.043	1238.870	945.714
169.994	18.939	1238.102	944.472
171.008	19.051	1237.490	944.532
172.023	19.147	1236.754	944.415
173.037	19.323	1236.197	944.874
174.052	19.300	1234.921	943.689
175.067	19.043	1234.212	941.653
176.081	18.923	1232.727	939.782
177.096	18.958	1231.917	939.271
178.110	19.054	1230.623	938.729
179.125	18.976	1229.555	937.402
180.140	19.061	1228.457	936.949
181.154	19.185	1227.566	936.857
182.169	19.216	1226.433	936.080
183.183	19.465	1224.991	936.246
184.198	19.465	1223.967	935.385
185.213	19.287	1223.193	933.745
186.227	19.433	1222.292	933.762
187.242	19.455	1220.948	932.773
188.256	19.553	1220.418	932.813
189.271	19.443	1219.882	931.727
190.286	19.311	1218.249	929.687
191.300	18.993	1217.252	927.129
192.315	18.888	1216.106	925.613
193.329	18.961	1216.329	926.092
194.344	19.063	1215.006	925.553
195.359	19.100	1214.766	925.484
196.373	19.225	1214.246	925.680
197.388	19.259	1214.010	925.598
198.402	19.506	1213.729	926.629
199.417	19.636	1213.360	926.962
200.432	19.812	1212.822	927.413
201.446	19.809	1211.752	926.500
202.461	19.816	1211.368	926.162
203.475	19.845	1210.490	925.560
204.490	19.690	1208.534	923.159
205.504	19.494	1207.315	921.099
206.519	19.450	1206.204	919.935
207.534	19.349	1205.060	918.443
208.548	19.483	1204.248	918.457
209.563	19.477	1203.695	917.920
210.577	19.507	1202.530	917.109
211.592	19.665	1201.568	917.133
212.607	19.781	1200.928	917.182
213.621	19.744	1200.251	916.387
214.636	19.679	1199.573	915.440
215.650	19.826	1198.484	915.307
216.665	19.733	1197.700	914.135
217.680	19.978	1196.860	914.710
218.694	20.019	1196.058	914.231
219.709	19.841	1195.365	912.682
220.723	19.872	1194.429	912.052
221.738	19.820	1193.787	911.207
222.753	19.847	1192.926	910.610
223.767	19.904	1191.968	910.096
224.782	20.044	1192.023	910.796
225.796	20.065	1191.598	910.502
226.811	20.070	1190.799	909.833
227.826	19.950	1189.658	908.251
228.840	19.828	1189.273	907.239
229.855	19.775	1188.064	905.960
230.869	19.789	1187.387	905.437
231.884	19.738	1186.383	904.326
232.899	19.683	1185.637	903.389
233.913	19.609	1184.834	902.306
234.928	19.630	1184.063	901.751
235.942	19.520	1183.155	900.409
236.957	19.609	1182.450	900.255
237.972	19.512	1182.164	899.450
238.986	19.470	1181.119	898.358
240.001	19.617	1180.602	898.649
241.015	19.677	1179.414	897.976
242.030	19.727	1178.929	897.791
243.045	19.914	1178.260	898.170
244.059	19.903	1177.491	897.450
245.074	19.863	1176.796	896.634
246.088	19.977	1176.067	896.588
247.103	20.101	1175.427	896.661
248.117	20.063	1174.875	895.964
249.132	20.407	1174.237	897.175
250.147	20.563	1173.469	897.313
251.161	20.694	1172.954	897.519
252.176	20.715	1172.192	896.963
253.190	20.626	1171.946	896.237
254.205	20.757	1171.426	896.436
255.220	20.822	1170.495	895.979
256.234	20.731	1170.509	895.443
257.249	20.733	1169.237	894.401
258.263	20.834	1168.154	894.011
259.278	20.700	1167.856	893.013
260.293	20.731	1167.325	892.687
261.307	20.831	1166.825	892.741
262.322	20.898	1165.765	892.195
263.336	20.913	1165.370	891.888
264.351	20.881	1165.223	891.532
265.366	20.857	1164.417	890.717
266.380	20.863	1163.307	889.817
267.395	20.780	1162.683	888.838
268.409	20.647	1161.772	887.384
269.424	20.667	1161.153	886.933
270.439	20.567	1160.639	885.953
271.453	20.699	1159.577	885.738
272.468	20.597	1158.420	884.257
273.482	20.543	1158.010	883.590
274.497	20.561	1157.592	883.284
275.512	20.514	1156.564	882.183
276.526	20.556	1156.008	881.896
277.541	20.602	1154.994	881.278
278.555	20.519	1154.989	880.776
279.570	20.799	1154.170	881.487
280.585	20.920	1153.089	881.198
281.599	20.956	1152.368	880.749
282.614	20.859	1150.983	879.126
283.628	20.729	1149.846	877.524
284.643	20.705	1149.002	876.683
285.657	20.718	1148.310	876.139
286.672	20.702	1147.317	875.226
287.687	20.713	1146.172	874.330
288.701	20.812	1145.681	874.373
289.716	20.846	1145.027	873.969
290.730	20.843	1144.180	873.230
291.745	20.811	1143.828	872.725
292.760	20.893	1142.886	872.340
293.774	20.962	1142.589	872.379
294.789	21.044	1141.998	872.262
295.803	21.141	1141.140	872.011
296.818	20.833	1140.262	869.726
297.833	20.819	1139.461	868.970
298.847	20.893	1138.553	868.567
299.862	20.845	1138.324	868.079
300.876	20.893	1137.645	867.724
301.891	21.093	1136.619	867.859
302.906	21.083	1136.621	867.735
303.920	21.219	1136.153	867.973
304.935	21.248	1135.344	867.426
305.949	21.253	1134.522	866.744
306.964	21.358	1133.938	866.743
307.979	21.319	1132.945	865.712
308.993	21.233	1132.109	864.573
310.008	21.313	1131.700	864.578
311.022	21.407	1130.742	864.233
312.037	21.289	1129.687	862.769
313.052	21.236	1128.652	861.640
314.066	20.861	1128.137	859.324
315.081	20.850	1127.010	858.334
316.095	20.893	1125.942	857.656
317.110	20.760	1125.589	856.656
318.125	20.760	1124.884	856.047
319.139	20.886	1124.076	855.972
320.154	20.836	1123.575	855.273
321.168	20.814	1122.935	854.602
322.183	20.948	1121.988	854.462
323.197	20.961	1122.134	854.561
324.212	21.105	1121.054	854.368
325.227	21.094	1120.724	853.987
326.241	21.124	1119.684	853.263
327.256	21.031	1119.076	852.271
328.270	20.958	1118.165	851.147
329.285	20.966	1116.848	850.104
330.300	21.038	1115.836	849.612
331.314	20.953	1115.147	848.599
332.329	21.069	1114.079	848.275
333.343	21.074	1113.216	847.567
334.358	21.240	1112.735	847.932
335.373	21.264	1112.206	847.571
336.387	21.197	1111.508	846.640
337.402	21.316	1110.495	846.369
338.416	21.313	1110.200	846.052
339.431	21.440	1109.506	846.064
340.446	21.559	1108.944	846.138
341.460	21.610	1108.448	845.928
342.475	21.712	1107.806	845.859
343.489	21.894	1106.690	845.809
344.504	21.793	1106.085	844.783
345.519	21.891	1104.707	844.129
346.533	21.921	1104.183	843.797
347.548	21.931	1103.789	843.468
348.562	22.002	1102.688	842.897
349.577	21.728	1101.706	840.757
350.592	21.485	1101.122	839.071
351.606	21.440	1099.835	837.799
352.621	21.521	1098.785	837.314
353.635	21.352	1098.460	836.184
354.650	21.393	1097.915	835.888
355.665	21.408	1096.988	835.184
356.679	21.570	1096.879	835.799
357.694	21.538	1096.439	835.237
358.708	21.799	1095.356	835.582
359.723	21.689	1095.095	834.782
360.738	21.739	1093.899	834.039
361.752	21.659	1094.004	833.664
362.767	21.560	1093.319	832.597
363.781	21.767	1092.869	833.163
364.796	21.947	1091.850	833.167
365.810	21.902	1091.695	832.761
366.825	21.999	1091.372	832.903
367.840	22.158	1090.758	833.112
368.854	22.265	1089.957	832.933
369.869	22.267	1089.249	832.331
370.883	22.217	1088.274	831.274
371.898	22.162	1087.341	830.231
372.913	22.001	1086.869	829.033
373.927	22.071	1086.125	828.724
374.942	22.148	1086.202	829.073
375.956	22.191	1085.536	828.692
376.971	22.001	1084.962	827.285
377.986	22.153	1084.344	827.458
379.000	22.222	1083.994	827.445
380.015	22.402	1083.276	827.670
381.029	22.525	1082.376	827.483
382.044	22.392	1081.994	826.495
383.059	22.378	1081.099	825.671
384.073	22.480	1080.003	825.241
385.088	22.367	1079.248	824.061
386.102	22.446	1078.238	823.585
387.117	22.327	1077.155	822.129
388.132	22.126	1076.043	820.274
389.146	22.076	1075.305	819.401
390.161	22.174	1074.406	819.100
391.175	22.070	1074.269	818.442
392.190	22.166	1073.846	818.493
393.205	22.379	1072.674	818.516
394.219	22.282	1072.140	817.584
395.234	22.376	1071.031	817.105
396.248	22.229	1070.052	815.603
397.263	22.197	1068.833	814.457
398.278	22.140	1067.875	813.388
399.292	21.986	1067.180	812.076
400.307	21.974	1066.385	811.342
401.321	21.851	1066.295	810.634
402.336	21.881	1065.474	810.078
403.350	21.907	1065.119	809.856
404.365	21.991	1064.359	809.593
405.380	22.225	1063.527	809.968
406.394	22.320	1062.610	809.635
407.409	22.244	1062.208	808.908
408.423	22.463	1061.205	809.075
409.438	22.528	1060.604	808.844
410.453	22.648	1060.436	809.196
411.467	22.728	1059.627	808.875
412.482	22.755	1058.671	808.195
413.496	22.818	1058.422	808.224
414.511	22.800	1057.675	807.499
415.526	22.871	1057.343	807.501
416.540	22.926	1057.347	807.682
417.555	22.973	1056.514	807.189
418.569	22.928	1055.593	806.211
419.584	22.822	1055.433	805.534
420.599	22.694	1055.039	804.576
421.613	153.739	1400.523	1787.167
422.628	141.200	1450.876	1787.266
