DTS Sentinel unit serial number:	SN413079Multiplexer serial number:	ORYXHardware model number:	OX4-SRSoftware version number:	ORYX F/W v4.00 Oryx Data Collector v3.7.2.0data status	okinstallation	princeton_trtdifferential loss correction	single-endedforward channel	channel 2reverse channel	N/Adate	2019/09/13time	01:47:34forward acquisition time	60.00reverse acquisition time	0.00gamma	496.2192k internal	0.2334k external	0.2334temperature offset calibration	1.0176default loss term (dB/km)	0.3790temperature slope calibration	1.0000multiplexer offset coefficient	1.0000multiplexer slope coefficient	1.0000fibre end	0.00T internal ref (°C)	27.69T ext. ref 1 (°C)	3.82T ext. ref 2 (°C)	22.32length (m)	temperature (°C)	Stokes	anti-Stokes-747.200	26.102	-0.052	0.044
-746.185	-200.000	-0.011	0.062
-745.171	-200.000	0.028	0.255
-744.156	-200.000	0.004	0.296
-743.142	335.047	-0.095	0.185
-742.127	-21.262	-0.340	0.209
-741.112	-200.000	-0.001	-0.162
-740.098	-200.000	-0.107	0.485
-739.083	38.081	-0.037	-0.033
-738.069	69.575	-0.288	-0.298
-737.054	-61.834	0.311	0.131
-736.039	-37.492	-0.359	0.192
-735.025	-62.870	0.194	-0.081
-734.010	289.919	-0.190	-0.347
-732.996	31.963	-0.340	0.295
-731.981	-26.871	0.155	0.091
-730.966	195.453	-0.101	0.155
-729.952	-200.000	0.039	-0.200
-728.937	-200.000	-0.038	-0.339
-727.923	-168.719	-0.547	0.021
-726.908	173.975	0.133	-0.193
-725.894	142.483	0.029	0.038
-724.879	-98.089	0.225	-0.058
-723.864	-48.740	-0.146	0.070
-722.850	-200.000	-0.032	-0.160
-721.835	-43.822	0.130	0.066
-720.821	-74.756	-0.225	0.081
-719.806	-137.585	-0.417	0.047
-718.791	200.540	-0.122	0.188
-717.777	46.568	0.329	-0.307
-716.762	-200.000	0.022	-0.199
-715.748	-24.953	0.043	-0.026
-714.733	28.592	-0.193	0.164
-713.718	-200.000	-0.002	-0.092
-712.704	-200.000	-0.011	0.295
-711.689	800.000	-0.069	-0.244
-710.675	-200.000	0.042	-0.215
-709.660	-82.194	0.417	0.136
-708.645	-200.000	-0.030	-0.271
-707.631	215.271	-0.053	-0.085
-706.616	-200.000	-0.019	0.359
-705.602	67.198	-0.072	-0.073
-704.587	27.488	-0.261	0.220
-703.572	800.000	-0.046	0.146
-702.558	-11.282	-0.250	0.165
-701.543	-114.275	0.052	0.010
-700.529	-147.171	-0.250	-0.021
-699.514	88.786	0.229	-0.255
-698.499	-106.757	0.117	-0.026
-697.485	-200.000	-0.009	-0.047
-696.470	601.737	0.157	-0.391
-695.456	-34.166	-0.038	0.021
-694.441	800.000	0.010	-0.033
-693.426	800.000	-0.086	-0.249
-692.412	-52.360	-0.247	0.115
-691.397	-64.244	0.173	0.071
-690.383	305.285	0.152	0.283
-689.368	-50.093	-0.119	-0.057
-688.354	43.435	0.278	0.255
-687.339	26.363	0.091	-0.076
-686.324	130.023	0.150	-0.193
-685.310	137.629	-0.204	-0.268
-684.295	230.125	-0.171	-0.281
-683.281	-200.000	-0.021	-0.460
-682.266	800.000	0.047	-0.176
-681.251	70.957	-0.197	0.205
-680.237	800.000	0.061	-0.189
-679.222	-200.000	-0.036	0.406
-678.208	597.596	-0.195	-0.484
-677.193	163.440	-0.087	-0.123
-676.178	10.597	0.145	-0.111
-675.164	-68.425	0.050	-0.020
-674.149	-51.283	-0.093	-0.044
-673.135	-200.000	-0.031	-0.147
-672.120	-118.518	-0.110	-0.019
-671.105	190.493	-0.183	-0.276
-670.091	167.748	0.245	-0.349
-669.076	-75.851	-0.051	0.018
-668.062	800.000	-0.108	-0.354
-667.047	-200.000	0.005	-0.266
-666.032	-29.076	0.147	-0.084
-665.018	-140.551	-0.251	0.026
-664.003	104.388	0.252	-0.298
-662.989	-36.137	0.295	0.160
-661.974	-154.610	0.130	-0.009
-660.959	117.454	-0.153	-0.188
-659.945	800.000	0.035	-0.106
-658.930	106.395	0.164	0.195
-657.916	-200.000	-0.012	0.189
-656.901	-128.552	0.418	-0.059
-655.886	446.108	0.077	-0.170
-654.872	214.048	-0.122	0.194
-653.857	100.940	-0.058	-0.068
-652.843	-5.784	0.225	-0.154
-651.828	-179.986	0.183	-0.004
-650.814	800.000	-0.078	-0.227
-649.799	-160.448	-0.209	0.011
-648.784	-60.002	0.180	-0.077
-647.770	-130.319	0.301	-0.041
-646.755	-200.000	-0.026	0.118
-645.741	-200.000	-0.025	-0.181
-644.726	-119.677	-0.356	-0.062
-643.711	-200.000	0.014	-0.259
-642.697	-18.576	-0.122	-0.076
-641.682	-8.781	-0.177	-0.119
-640.668	-145.672	0.505	-0.045
-639.653	48.624	0.138	-0.129
-638.638	321.719	0.135	-0.257
-637.624	618.120	-0.107	0.269
-636.609	-43.840	-0.060	-0.030
-635.595	-110.408	0.122	-0.025
-634.580	-33.374	-0.019	-0.011
-633.565	105.271	0.115	-0.136
-632.551	-59.055	-0.225	-0.097
-631.536	70.285	-0.118	0.122
-630.522	800.000	-0.025	0.090
-629.507	738.487	-0.065	-0.176
-628.492	306.480	0.067	0.125
-627.478	-200.000	-0.004	0.022
-626.463	196.573	0.096	0.146
-625.449	800.000	-0.026	-0.114
-624.434	-200.000	-0.031	0.138
-623.419	800.000	0.024	-0.066
-622.405	-200.000	-0.054	-0.364
-621.390	-200.000	-0.023	0.225
-620.376	35.230	-0.207	-0.181
-619.361	-104.581	-0.173	0.040
-618.346	-41.999	0.254	-0.130
-617.332	-200.000	-0.026	0.203
-616.317	27.858	-0.091	0.077
-615.303	618.896	-0.020	-0.050
-614.288	105.019	0.209	0.247
-613.273	800.000	0.051	-0.143
-612.259	-155.581	0.254	0.016
-611.244	-143.727	0.685	-0.065
-610.230	-78.044	-0.193	0.066
-609.215	-16.958	-0.226	0.143
-608.201	800.000	-0.084	0.257
-607.186	-158.992	0.109	0.006
-606.171	-96.805	-0.380	0.100
-605.157	-5.117	-0.100	0.069
-604.142	138.522	-0.054	0.071
-603.128	-200.000	-0.010	-0.147
-602.113	-123.925	0.325	-0.051
-601.098	146.900	0.174	-0.233
-600.084	-200.000	0.045	-0.237
-599.069	-100.691	-0.138	-0.034
-598.055	-80.886	0.248	0.082
-597.040	-151.998	-0.306	0.022
-596.025	-200.000	0.026	0.221
-595.011	151.086	-0.115	0.156
-593.996	116.738	-0.186	-0.228
-592.982	-200.000	0.027	-0.138
-591.967	-23.582	0.174	0.104
-590.952	215.674	0.142	0.225
-589.938	-200.000	0.007	0.175
-588.923	-79.924	-0.173	0.058
-587.909	159.494	-0.034	-0.048
-586.894	-28.104	-0.006	-0.003
-585.879	-48.783	-0.137	-0.066
-584.865	229.377	-0.048	-0.079
-583.850	99.060	-0.112	-0.129
-582.836	-22.159	-0.075	-0.045
-581.821	11.857	0.220	0.168
-580.806	-181.700	0.251	0.005
-579.792	10.057	-0.091	-0.069
-578.777	-161.424	-0.283	-0.015
-577.763	-98.805	-0.042	-0.011
-576.748	60.328	-0.111	0.110
-575.733	-66.341	-0.213	-0.084
-574.719	311.248	0.133	0.248
-573.704	-91.092	0.259	-0.074
-572.690	-110.834	0.462	0.095
-571.675	133.354	-0.065	-0.084
-570.661	-141.697	0.230	0.023
-569.646	145.666	-0.073	-0.098
-568.631	26.774	0.271	-0.227
-567.617	-58.881	0.440	-0.190
-566.602	-200.000	-0.020	-0.273
-565.588	213.103	0.104	0.164
-564.573	433.206	0.131	0.285
-563.558	-7.861	-0.163	-0.110
-562.544	-104.790	0.042	-0.010
-561.529	-89.411	0.221	0.065
-560.515	-183.874	-0.208	0.004
-559.500	-200.000	-0.075	-0.439
-558.485	146.970	0.123	-0.165
-557.471	-85.237	0.359	-0.112
-556.456	168.233	0.072	0.103
-555.442	800.000	-0.087	0.319
-554.427	-107.014	0.455	-0.100
-553.412	-2.838	0.310	-0.216
-552.398	800.000	-0.055	0.160
-551.383	-200.000	0.026	0.198
-550.369	-118.853	0.190	-0.033
-549.354	29.530	0.264	-0.224
-548.339	800.000	0.037	0.123
-547.325	-147.483	-0.337	-0.028
-546.310	-125.817	-0.197	-0.030
-545.296	-200.000	0.018	-0.286
-544.281	-110.185	-0.105	-0.022
-543.266	800.000	0.059	0.165
-542.252	-54.808	-0.216	-0.097
-541.237	-200.000	0.087	0.435
-540.223	-200.000	-0.025	0.195
-539.208	139.725	-0.090	0.119
-538.193	-200.000	-0.002	0.362
-537.179	606.724	0.034	-0.085
-536.164	-118.987	0.357	0.062
-535.150	-14.512	0.326	0.209
-534.135	45.698	-0.230	0.212
-533.121	-53.734	-0.182	-0.083
-532.106	-29.062	-0.083	0.048
-531.091	275.457	0.055	-0.098
-530.077	-80.765	-0.085	0.028
-529.062	800.000	0.111	0.356
-528.048	150.585	0.059	0.079
-527.033	150.801	0.080	-0.108
-526.018	-200.000	0.063	-0.290
-525.004	-200.000	0.044	-0.218
-523.989	28.095	-0.167	-0.140
-522.975	110.985	-0.098	0.117
-521.960	-200.000	0.045	-0.391
-520.945	17.479	-0.025	-0.020
-519.931	71.335	-0.140	0.145
-518.916	-47.168	0.110	-0.053
-517.902	502.652	-0.143	0.329
-516.887	-65.580	-0.290	-0.116
-515.872	-73.478	0.392	-0.142
-514.858	-132.275	-0.159	0.021
-513.843	35.369	-0.167	-0.146
-512.829	40.373	-0.108	0.097
-511.814	-13.754	0.098	-0.063
-510.799	196.272	-0.015	0.022
-509.785	-32.022	0.207	0.116
-508.770	-37.907	0.262	-0.138
-507.756	141.907	0.047	0.062
-506.741	218.791	-0.063	0.101
-505.726	25.656	0.163	-0.135
-504.712	116.226	-0.174	0.212
-503.697	21.517	0.071	0.057
-502.683	-46.715	-0.197	0.096
-501.668	705.608	-0.068	0.178
-500.653	-50.430	-0.094	-0.044
-499.639	-29.576	-0.432	-0.246
-498.624	-33.260	-0.108	0.060
-497.610	-96.349	-0.293	-0.077
-496.595	96.300	-0.309	0.352
-495.581	-163.387	0.064	-0.003
-494.566	80.027	-0.068	-0.073
-493.551	-125.931	-0.220	-0.033
-492.537	-169.564	0.353	0.013
-491.522	-79.454	0.133	-0.045
-490.508	-140.402	0.147	0.015
-489.493	-68.069	-0.047	-0.018
-488.478	4.947	-0.128	-0.094
-487.464	424.231	-0.071	-0.152
-486.449	-29.327	-0.025	0.014
-485.435	-68.886	0.213	0.082
-484.420	800.000	0.058	0.193
-483.405	22.094	-0.059	-0.048
-482.391	-200.000	-0.022	-0.434
-481.376	244.260	0.130	0.217
-480.362	-65.886	0.095	0.038
-479.347	800.000	-0.024	0.088
-478.332	102.485	0.117	0.136
-477.318	84.789	0.111	0.121
-476.303	-200.000	0.007	-0.175
-475.289	800.000	-0.080	0.320
-474.274	442.760	0.119	-0.259
-473.259	-52.443	-0.097	0.045
-472.245	800.000	-0.122	0.435
-471.230	120.715	0.079	-0.098
-470.216	164.359	-0.176	-0.246
-469.201	-200.000	-0.030	-0.207
-468.186	-200.000	-0.038	0.218
-467.172	330.719	0.093	-0.178
-466.157	-45.152	-0.286	0.141
-465.143	29.961	0.117	-0.099
-464.128	460.446	-0.119	0.263
-463.113	594.570	0.039	0.096
-462.099	-200.000	0.016	0.172
-461.084	135.883	0.258	0.334
-460.070	-26.074	-0.165	-0.096
-459.055	189.096	0.092	-0.138
-458.040	75.628	-0.096	-0.101
-457.026	-44.803	-0.258	-0.128
-456.011	-5.987	-0.058	-0.040
-454.997	111.472	-0.132	0.158
-453.982	-105.167	0.211	-0.048
-452.968	506.159	-0.145	0.334
-451.953	122.066	0.124	0.154
-450.938	-200.000	-0.038	-0.248
-449.924	560.841	-0.091	0.218
-448.909	73.510	-0.073	-0.076
-447.895	800.000	0.073	0.224
-446.880	-186.080	-0.118	0.002
-445.865	800.000	-0.036	0.108
-444.851	155.169	-0.325	-0.445
-443.836	383.617	-0.128	-0.262
-442.822	800.000	-0.038	-0.115
-441.807	-96.002	0.166	-0.044
-440.792	-111.578	-0.205	0.041
-439.778	88.163	0.191	0.210
-438.763	126.882	0.168	0.212
-437.749	122.241	-0.028	0.035
-436.734	800.000	-0.089	0.337
-435.719	-25.803	0.248	0.145
-434.705	119.448	-0.138	-0.169
-433.690	-54.391	-0.171	-0.077
-432.676	-200.000	-0.018	-0.267
-431.661	-7.949	-0.320	0.214
-430.646	142.373	0.206	0.272
-429.632	138.570	-0.270	-0.352
-428.617	800.000	0.038	0.124
-427.603	-57.147	-0.297	0.130
-426.588	-99.752	0.406	0.101
-425.573	212.051	-0.266	0.416
-424.559	53.095	-0.060	-0.057
-423.544	800.000	0.038	0.126
-422.530	800.000	-0.073	-0.225
-421.515	-200.000	0.040	-0.263
-420.500	249.949	-0.093	0.157
-419.486	-63.929	-0.209	0.085
-418.471	800.000	0.166	0.504
-417.457	-90.430	0.118	-0.034
-416.442	321.189	0.090	0.169
-415.428	23.966	-0.211	0.173
-414.413	-55.033	0.132	0.059
-413.398	800.000	-0.069	-0.286
-412.384	167.412	0.248	-0.349
-411.369	296.705	-0.185	0.337
-410.355	590.611	-0.162	0.396
-409.340	800.000	0.074	0.204
-408.325	-27.731	-0.218	-0.126
-407.311	800.000	0.054	-0.163
-406.296	-79.613	-0.310	-0.104
-405.282	-200.000	0.000	-0.152
-404.267	93.223	0.152	-0.170
-403.252	-87.774	-0.207	-0.062
-402.238	196.304	-0.031	-0.047
-401.223	7.327	0.211	0.156
-400.209	-117.738	-0.104	0.018
-399.194	142.221	0.121	0.160
-398.179	-200.000	-0.022	0.412
-397.165	-200.000	-0.013	0.109
-396.150	-200.000	-0.076	0.418
-395.136	142.104	0.104	-0.137
-394.121	-64.426	0.158	-0.064
-393.106	-54.437	0.224	-0.101
-392.092	-164.709	-0.402	-0.018
-391.077	717.043	-0.025	0.066
-390.063	800.000	0.063	-0.230
-389.048	159.243	0.115	0.158
-388.033	169.912	-0.083	-0.118
-387.019	-60.937	0.172	-0.072
-386.004	180.871	0.117	0.170
-384.990	-121.227	-0.123	-0.020
-383.975	-14.780	0.049	0.031
-382.960	-192.976	-0.237	0.002
-381.946	-94.342	0.256	0.069
-380.931	800.000	-0.062	0.181
-379.917	-200.000	-0.016	0.234
-378.902	-200.000	-0.043	0.213
-377.888	-200.000	-0.047	-0.247
-376.873	-75.433	0.183	-0.065
-375.858	5.430	-0.232	0.169
-374.844	33.012	-0.155	0.133
-373.829	20.146	0.085	-0.068
-372.815	800.000	0.071	-0.194
-371.800	-200.000	0.012	-0.065
-370.785	67.767	-0.227	-0.230
-369.771	-52.906	-0.042	-0.019
-368.756	-141.429	0.174	-0.017
-367.742	16.335	-0.099	-0.078
-366.727	-123.718	-0.098	0.015
-365.712	39.595	0.241	-0.214
-364.698	363.752	-0.169	-0.337
-363.683	34.412	0.148	-0.128
-362.669	145.643	0.145	0.192
-361.654	-85.183	-0.252	0.078
-360.639	-145.201	0.212	0.019
-359.625	-103.439	0.051	0.012
-358.610	-57.174	0.188	-0.082
-357.596	-79.415	0.172	-0.057
-356.581	310.101	0.065	0.121
-355.566	-200.000	-0.030	-0.368
-354.552	431.332	0.046	-0.098
-353.537	-124.621	0.180	-0.028
-352.523	-73.431	-0.320	-0.116
-351.508	800.000	-0.054	0.201
-350.493	423.916	-0.038	-0.081
-349.479	-67.129	-0.234	-0.091
-348.464	-200.000	0.040	-0.231
-347.450	800.000	-0.081	0.266
-346.435	-152.125	-0.170	0.012
-345.420	337.248	0.173	0.334
-344.406	350.163	0.150	-0.294
-343.391	-78.984	-0.094	0.032
-342.377	525.369	-0.104	-0.242
-341.362	230.079	0.059	0.096
-340.348	75.386	0.091	-0.095
-339.333	800.000	-0.044	-0.128
-338.318	11.588	0.189	-0.143
-337.304	57.697	0.214	0.207
-336.289	-148.708	-0.154	0.012
-335.275	800.000	0.067	-0.200
-334.260	229.349	-0.164	-0.265
-333.245	-12.522	0.429	0.277
-332.231	-85.133	-0.403	0.125
-331.216	46.757	-0.162	0.149
-330.202	105.964	0.094	-0.110
-329.187	614.558	0.104	-0.259
-328.172	-88.500	0.313	0.092
-327.158	-200.000	0.000	-0.095
-326.143	-94.491	0.240	0.065
-325.129	-124.222	-0.157	-0.024
-324.114	-49.231	0.089	-0.042
-323.099	98.143	-0.140	0.160
-322.085	-122.553	-0.358	0.058
-321.070	58.187	-0.048	-0.047
-320.056	-26.332	-0.130	0.076
-319.041	-154.798	0.421	0.028
-318.026	197.802	0.069	0.104
-317.012	-6.577	0.035	0.024
-315.997	-139.667	-0.405	0.043
-314.983	-117.405	0.224	0.040
-313.968	-92.196	0.400	-0.112
-312.953	-80.674	-0.062	0.020
-311.939	11.830	-0.044	-0.033
-310.924	407.323	-0.058	-0.120
-309.910	-81.033	0.285	-0.093
-308.895	47.141	0.102	-0.094
-307.880	-28.620	0.084	-0.048
-306.866	464.338	0.126	0.279
-305.851	500.535	-0.030	-0.069
-304.837	800.000	0.072	-0.260
-303.822	-70.280	-0.278	0.104
-302.807	14.536	0.084	0.065
-301.793	41.257	-0.134	-0.120
-300.778	-175.595	0.258	0.007
-299.764	64.994	0.195	-0.194
-298.749	-154.313	-0.340	0.023
-297.735	161.184	-0.152	0.210
-296.720	-200.000	-0.015	0.106
-295.705	743.743	0.092	0.244
-294.691	-200.000	-0.007	-0.134
-293.676	11.219	-0.094	-0.071
-292.662	179.081	-0.106	0.153
-291.647	-200.000	-0.020	0.211
-290.632	279.078	0.112	-0.197
-289.618	-12.087	-0.269	-0.174
-288.603	-200.000	0.027	0.160
-287.589	-200.000	-0.042	-0.203
-286.574	-105.839	-0.502	-0.112
-285.559	-200.000	-0.032	-0.351
-284.545	74.137	0.239	-0.248
-283.530	38.141	-0.017	-0.015
-282.516	95.735	0.130	0.146
-281.501	-76.658	-0.242	-0.084
-280.486	234.607	-0.101	0.165
-279.472	800.000	-0.080	0.243
-278.457	800.000	0.085	-0.345
-277.443	-200.000	0.065	-0.370
-276.428	-102.748	-0.374	-0.088
-275.413	-85.150	-0.045	-0.014
-274.399	-47.737	-0.246	0.118
-273.384	800.000	0.076	0.223
-272.370	351.986	-0.025	-0.049
-271.355	172.076	0.056	0.079
-270.340	161.769	0.241	-0.333
-269.326	-37.359	0.224	-0.118
-268.311	21.297	-0.302	-0.242
-267.297	-15.593	0.108	-0.068
-266.282	155.376	0.198	0.268
-265.267	329.348	-0.141	-0.268
-264.253	-200.000	-0.036	-0.237
-263.238	-83.215	-0.236	0.075
-262.224	-81.549	-0.228	0.074
-261.209	-200.000	-0.014	-0.064
-260.195	-108.334	-0.114	-0.024
-259.180	-196.218	-0.179	0.001
-258.165	256.186	0.148	-0.250
-257.151	103.907	0.243	-0.281
-256.136	31.185	0.185	0.157
-255.122	296.203	-0.154	0.278
-254.107	-200.000	0.014	0.153
-253.092	617.704	-0.114	-0.282
-252.078	-109.836	0.277	-0.057
-251.063	494.243	-0.029	-0.066
-250.049	-200.000	-0.034	-0.279
-249.034	-200.000	0.007	-0.161
-248.019	-37.072	0.157	-0.083
-247.005	-94.930	0.276	0.074
-245.990	-59.802	0.048	-0.020
-244.976	-59.761	0.134	0.056
-243.961	52.778	-0.204	-0.192
-242.946	-200.000	0.012	0.194
-241.932	-200.000	-0.055	-0.364
-240.917	89.242	0.399	-0.438
-239.903	-195.336	0.113	0.001
-238.888	164.531	0.082	0.113
-237.873	-90.065	0.175	-0.050
-236.859	-9.881	0.212	-0.139
-235.844	800.000	-0.023	0.078
-234.830	800.000	0.091	0.369
-233.815	-16.993	-0.042	-0.026
-232.800	94.562	0.081	0.091
-231.786	800.000	0.086	0.267
-230.771	-27.318	-0.241	0.138
-229.757	-200.000	0.054	0.284
-228.742	171.997	-0.082	-0.116
-227.727	-87.906	0.270	-0.080
-226.713	-109.041	0.166	-0.035
-225.698	134.828	-0.135	-0.173
-224.684	-200.000	-0.069	-0.327
-223.669	-200.000	0.033	0.327
-222.655	110.602	-0.085	-0.100
-221.640	-124.056	-0.267	0.041
-220.625	800.000	-0.109	-0.352
-219.611	220.718	-0.109	0.173
-218.596	289.310	0.047	-0.085
-217.582	-132.493	-0.188	0.024
-216.567	-5.314	0.157	0.106
-215.552	-148.608	-0.124	-0.010
-214.538	-200.000	0.040	0.178
-213.523	-200.000	-0.035	0.178
-212.509	-32.023	0.336	0.185
-211.494	316.129	0.090	-0.167
-210.479	-200.000	-0.055	0.404
-209.465	-46.714	-0.096	0.046
-208.450	-109.928	-0.115	-0.024
-207.436	-12.967	-0.021	0.013
-206.421	0.090	-0.191	0.134
-205.406	27.512	-0.288	0.238
-204.392	-110.488	-0.286	0.058
-203.377	165.800	0.145	-0.201
-202.363	88.067	-0.157	-0.172
-201.348	146.588	-0.122	-0.162
-200.333	-108.727	0.277	0.058
-199.319	-163.570	-0.451	0.021
-198.304	-60.476	-0.239	0.100
-197.290	-73.624	0.209	-0.075
-196.275	-200.000	0.032	-0.160
-195.260	-126.571	0.194	0.028
-194.246	135.523	-0.095	0.121
-193.231	-134.802	0.160	0.019
-192.217	40.026	0.286	-0.253
-191.202	122.648	-0.143	-0.177
-190.187	70.113	0.068	-0.069
-189.173	73.510	0.055	0.056
-188.158	101.342	0.085	0.098
-187.144	-169.097	-0.379	0.014
-186.129	302.460	-0.127	-0.231
-185.114	120.449	-0.111	0.135
-184.100	629.456	-0.093	0.232
-183.085	169.429	-0.169	-0.238
-182.071	-145.731	0.156	0.014
-181.056	191.736	-0.111	0.164
-180.042	-84.855	0.269	0.083
-179.027	224.856	-0.130	0.207
-178.012	48.463	0.096	0.089
-176.998	-159.143	0.325	-0.018
-175.983	-81.667	-0.157	0.051
-174.969	-115.687	0.054	-0.010
-173.954	800.000	0.125	0.350
-172.939	-200.000	0.004	0.152
-171.925	173.443	0.126	0.178
-170.910	-6.932	0.158	0.105
-169.896	800.000	0.041	0.151
-168.881	82.095	-0.131	-0.140
-167.866	800.000	0.042	-0.115
-166.852	62.318	-0.219	0.215
-165.837	34.538	0.118	0.101
-164.823	543.712	-0.076	-0.178
-163.808	-44.734	0.133	0.065
-162.793	28.810	0.178	-0.148
-161.779	-200.000	0.048	0.247
-160.764	182.942	0.155	0.224
-159.750	22.600	0.161	-0.130
-158.735	-200.000	-0.048	-0.441
-157.720	-200.000	0.019	-0.137
-156.706	-50.398	0.405	-0.188
-155.691	50.261	-0.289	0.268
-154.677	-136.783	-0.302	0.034
-153.662	800.000	0.015	-0.056
-152.647	80.648	-0.050	-0.053
-151.633	-200.000	-0.050	-0.307
-150.618	-200.000	-0.009	0.112
-149.604	-19.223	0.263	0.161
-148.589	423.542	-0.055	-0.117
-147.574	318.768	-0.208	0.388
-146.560	-200.000	-0.046	0.351
-145.545	36.492	0.075	0.065
-144.531	-155.214	0.309	0.020
-143.516	-200.000	0.018	0.080
-142.502	-90.658	0.328	0.093
-141.487	-16.323	-0.219	0.137
-140.472	800.000	0.116	0.385
-139.458	64.765	-0.271	0.268
-138.443	320.622	0.047	0.087
-137.429	-131.971	-0.165	0.021
-136.414	14.588	-0.053	0.041
-135.399	-200.000	-0.022	0.177
-134.385	-53.018	0.159	0.072
-133.370	800.000	0.064	-0.179
-132.356	132.927	0.023	0.030
-131.341	438.678	0.012	-0.026
-130.326	483.188	0.094	0.210
-129.312	-86.583	0.079	0.024
-128.297	-200.000	0.033	0.257
-127.283	800.000	0.131	0.372
-126.268	-97.395	-0.096	0.024
-125.253	-200.000	-0.001	-0.094
-124.239	797.925	-0.096	0.261
-123.224	-92.066	0.211	0.058
-122.210	454.039	0.219	0.477
-121.195	341.964	0.046	-0.089
-120.180	-113.652	0.445	0.085
-119.166	-145.876	-0.322	0.028
-118.151	800.000	-0.042	-0.143
-117.137	381.449	-0.153	0.308
-116.122	61.578	0.130	-0.127
-115.107	156.651	-0.151	0.204
-114.093	235.855	-0.157	0.255
-113.078	-44.950	-0.346	-0.169
-112.064	-65.028	0.299	-0.118
-111.049	29.523	0.246	-0.206
-110.034	-139.578	0.209	0.022
-109.020	164.430	-0.116	-0.161
-108.005	-83.541	0.420	0.132
-106.991	-76.018	-0.235	0.081
-105.976	113.644	-0.039	0.046
-104.962	-61.377	0.345	-0.142
-103.947	-17.492	0.107	0.066
-102.932	156.897	-0.101	0.137
-101.918	6.189	0.119	0.087
-100.903	-141.650	-0.200	0.020
-99.889	-200.000	0.002	-0.023
-98.874	41.843	-0.192	0.171
-97.859	-135.924	0.023	0.003
-96.845	-21.718	-0.221	0.132
-95.830	67.181	-0.177	0.177
-94.816	-199.088	-0.414	-0.002
-93.801	153.869	-0.050	-0.068
-92.786	133.897	0.183	-0.232
-91.772	-143.181	-0.166	0.016
-90.757	-76.695	-0.107	-0.037
-89.743	-200.000	-0.026	0.180
-88.728	-27.242	0.422	-0.241
-87.713	800.000	-0.005	0.020
-86.699	-109.338	0.092	0.019
-85.684	20.876	0.212	-0.168
-84.670	183.156	-0.100	0.145
-83.655	484.588	0.089	-0.199
-82.640	512.651	0.222	-0.507
-81.626	-149.411	0.313	-0.024
-80.611	-47.993	0.045	0.022
-79.597	-200.000	-0.027	-0.285
-78.582	305.953	0.243	0.442
-77.567	800.000	-0.045	0.147
-76.553	179.308	-0.026	0.038
-75.538	-116.867	0.196	0.035
-74.524	-83.732	0.076	0.024
-73.509	8.603	-0.146	0.108
-72.494	-120.377	-0.234	-0.039
-71.480	250.485	0.224	0.373
-70.465	51.925	0.303	0.282
-69.451	12.692	0.252	-0.191
-68.436	-200.000	-0.031	0.164
-67.422	85.643	-0.158	-0.170
-66.407	64.153	0.073	0.072
-65.392	-200.000	-0.024	-0.225
-64.378	128.520	-0.036	-0.045
-63.363	36.831	-0.145	0.126
-62.349	406.146	0.154	-0.319
-61.334	11.038	-1.055	-0.789
-60.319	40.322	0.438	0.386
-59.305	-200.000	-0.212	-0.921
-58.290	494.315	0.508	1.140
-57.276	800.000	0.467	1.467
-56.261	-200.000	113.212	647.543
-55.246	542.098	1516.855	3538.519
-54.232	178.260	2691.690	3844.359
-53.217	103.417	2283.807	2621.539
-52.203	37.073	1891.225	1637.698
-51.188	30.914	1680.933	1409.136
-50.173	28.271	1639.289	1354.643
-49.159	49.710	1694.365	1561.838
-48.144	48.822	1708.513	1568.155
-47.130	30.455	1666.685	1393.528
-46.115	27.774	1652.140	1361.340
-45.100	27.593	1647.117	1355.806
-44.086	27.526	1644.576	1353.159
-43.071	27.646	1641.569	1351.520
-42.057	27.541	1639.326	1348.847
-41.042	27.540	1636.936	1346.819
-40.027	27.594	1635.406	1345.900
-39.013	27.477	1633.610	1343.505
-37.998	27.498	1631.729	1342.066
-36.984	27.533	1630.556	1341.302
-35.969	27.769	1628.713	1341.466
-34.954	27.714	1627.299	1339.850
-33.940	27.599	1625.514	1337.478
-32.925	27.728	1623.536	1336.747
-31.911	27.730	1621.948	1335.401
-30.896	27.661	1620.144	1333.360
-29.881	27.602	1618.888	1331.841
-28.867	27.725	1616.552	1330.763
-27.852	27.699	1615.532	1329.680
-26.838	27.664	1613.761	1327.913
-25.823	27.666	1612.664	1326.976
-24.809	27.699	1611.552	1326.247
-23.794	27.664	1609.790	1324.492
-22.779	27.682	1608.875	1323.813
-21.765	27.676	1606.774	1321.989
-20.750	27.732	1605.300	1321.131
-19.736	27.653	1603.894	1319.349
-18.721	27.699	1603.048	1318.929
-17.706	27.668	1601.351	1317.259
-16.692	27.748	1599.893	1316.587
-15.677	27.759	1598.267	1315.278
-14.663	27.873	1596.328	1314.445
-13.648	27.719	1595.802	1312.854
-12.633	27.715	1593.998	1311.292
-11.619	27.711	1592.528	1310.000
-10.604	27.668	1591.052	1308.429
-9.590	27.760	1589.678	1307.906
-8.575	27.814	1588.365	1307.155
-7.560	27.785	1587.321	1306.035
-6.546	27.769	1586.602	1305.278
-5.531	27.749	1585.570	1304.238
-4.517	27.632	1584.469	1302.442
-3.502	27.674	1583.209	1301.658
-2.487	27.840	1581.070	1301.027
-1.473	27.403	1569.670	1288.505
-0.458	24.520	1550.110	1252.213
0.556	22.782	1550.974	1221.101
1.571	20.293	1574.168	1221.752
2.586	19.894	1587.005	1228.771
3.600	17.838	1534.060	1173.546
4.615	10.992	1427.920	1048.289
5.629	4.848	1368.015	966.198
6.644	3.805	1360.087	954.079
7.659	3.758	1358.973	952.925
8.673	3.814	1358.235	952.667
9.688	3.883	1356.017	951.452
10.702	3.745	1353.115	948.483
11.717	6.727	1358.422	970.475
12.731	14.635	1372.944	1029.728
13.746	21.380	1383.416	1079.278
14.761	23.183	1385.921	1092.275
15.775	22.628	1383.885	1087.151
16.790	21.663	1381.664	1079.370
17.804	21.065	1379.786	1074.126
18.819	20.750	1378.846	1071.363
19.834	20.805	1377.757	1070.759
20.848	20.710	1377.210	1069.651
21.863	20.531	1376.390	1067.822
22.877	20.432	1374.959	1066.008
23.892	20.408	1374.023	1065.042
24.907	20.318	1372.838	1063.480
25.921	20.283	1372.568	1062.960
26.936	20.448	1370.693	1062.427
27.950	20.361	1370.162	1061.389
28.965	20.598	1369.080	1061.905
29.980	20.613	1368.369	1061.350
30.994	20.801	1367.565	1061.780
32.009	20.809	1366.294	1060.748
33.023	20.757	1365.087	1059.398
34.038	20.732	1363.749	1058.115
35.053	20.632	1362.444	1056.398
36.067	20.544	1361.222	1054.823
37.082	20.642	1360.104	1054.462
38.096	20.683	1359.704	1054.302
39.111	20.728	1358.489	1053.542
40.126	20.492	1357.909	1051.569
41.140	20.186	1356.639	1048.646
42.155	20.037	1355.696	1046.923
43.169	19.971	1356.021	1046.684
44.184	19.932	1355.568	1046.006
45.199	20.063	1355.819	1046.894
46.213	20.416	1354.880	1048.207
47.228	20.505	1354.382	1048.271
48.242	20.543	1352.851	1047.222
49.257	20.408	1351.594	1045.344
50.271	20.447	1349.969	1044.228
51.286	20.478	1348.548	1043.220
52.301	20.415	1347.781	1042.156
53.315	20.298	1346.369	1040.272
54.330	20.242	1345.346	1039.056
55.344	20.182	1344.000	1037.566
56.359	20.089	1343.097	1036.221
57.374	20.144	1341.483	1035.210
58.388	20.020	1340.957	1033.971
59.403	19.857	1341.604	1033.409
60.417	19.823	1340.193	1032.024
61.432	19.777	1338.981	1030.728
62.447	19.671	1337.986	1029.240
63.461	19.679	1336.908	1028.366
64.476	19.695	1335.934	1027.623
65.490	19.653	1334.707	1026.338
66.505	19.684	1333.410	1025.431
67.520	19.741	1332.025	1024.613
68.534	19.649	1331.416	1023.510
69.549	19.592	1329.985	1021.984
70.563	19.563	1328.527	1020.600
71.578	19.403	1327.939	1019.112
72.593	19.393	1326.977	1018.227
73.607	19.332	1326.194	1017.173
74.622	19.485	1325.359	1017.344
75.636	19.542	1324.718	1017.102
76.651	19.591	1324.123	1016.839
77.666	19.627	1323.864	1016.767
78.680	19.606	1323.645	1016.384
79.695	19.695	1322.771	1016.142
80.709	19.900	1322.044	1016.698
81.724	20.122	1321.308	1017.349
82.739	20.146	1320.888	1017.076
83.753	20.352	1320.213	1017.674
84.768	20.518	1319.447	1017.967
85.782	20.692	1318.580	1018.227
86.797	20.709	1317.535	1017.428
87.812	20.596	1315.614	1015.192
88.826	20.587	1314.689	1014.338
89.841	20.616	1313.922	1013.825
90.855	20.644	1313.082	1013.252
91.870	20.801	1311.944	1013.194
92.884	20.890	1311.597	1013.356
93.899	20.861	1311.210	1012.802
94.914	20.848	1310.433	1012.035
95.928	20.693	1309.745	1010.514
96.943	20.644	1308.592	1009.252
97.957	20.751	1307.305	1008.790
98.972	20.759	1306.175	1007.876
99.987	20.701	1305.517	1006.942
101.001	20.630	1305.008	1006.046
102.016	20.668	1303.646	1005.127
103.030	20.750	1303.001	1005.016
104.045	20.643	1302.061	1003.584
105.060	20.381	1300.613	1000.870
106.074	20.110	1298.675	997.732
107.089	19.842	1296.836	994.689
108.103	19.653	1295.869	992.770
109.118	19.656	1294.938	991.987
110.133	19.771	1293.268	991.281
111.147	19.699	1292.341	990.073
112.162	19.804	1290.871	989.458
113.176	19.861	1290.423	989.354
114.191	19.910	1289.088	988.519
115.206	19.923	1288.204	987.828
116.220	19.923	1286.527	986.459
117.235	19.927	1285.486	985.596
118.249	19.854	1284.868	984.618
119.264	19.659	1283.478	982.354
120.279	19.690	1282.150	981.430
121.293	19.446	1281.577	979.521
122.308	19.454	1280.124	978.365
123.322	19.365	1279.441	977.254
124.337	19.356	1278.528	976.421
125.352	19.361	1277.093	975.267
126.366	19.232	1276.052	973.654
127.381	19.366	1274.570	973.197
128.395	19.275	1273.835	972.033
129.410	19.290	1273.176	971.530
130.424	19.353	1272.645	971.391
131.439	19.707	1271.555	972.469
132.454	19.696	1270.919	971.831
133.468	19.810	1270.311	971.924
134.483	19.811	1269.742	971.407
135.497	19.906	1268.663	971.031
136.512	19.936	1267.508	970.226
137.527	19.905	1266.656	969.314
138.541	19.911	1265.365	968.276
139.556	20.059	1264.326	968.223
140.570	20.182	1263.084	967.874
141.585	20.233	1262.738	967.806
142.600	20.413	1261.423	967.713
143.614	20.519	1260.487	967.501
144.629	20.559	1259.948	967.223
145.643	20.563	1258.869	966.333
146.658	20.315	1257.278	963.650
147.673	20.251	1255.322	961.708
148.687	19.992	1254.569	959.612
149.702	19.943	1253.088	958.123
150.716	19.810	1251.743	956.275
151.731	19.807	1250.790	955.449
152.746	19.916	1249.272	954.805
153.760	19.917	1248.267	953.959
154.775	20.014	1247.779	954.032
155.789	20.213	1246.754	954.261
156.804	20.167	1246.341	953.609
157.819	20.234	1245.736	953.429
158.833	20.472	1244.325	953.573
159.848	20.565	1243.736	953.548
160.862	20.548	1242.786	952.636
161.877	20.174	1240.695	948.906
162.892	19.943	1239.680	946.783
163.906	19.867	1238.575	945.438
164.921	19.870	1237.913	944.865
165.935	19.853	1237.422	944.316
166.950	20.042	1236.969	944.915
167.964	20.220	1235.869	944.964
168.979	20.017	1235.454	943.454
169.994	19.966	1234.569	942.418
171.008	20.000	1233.967	942.060
172.023	20.161	1233.497	942.494
173.037	20.433	1233.009	943.514
174.052	20.345	1232.071	942.239
175.067	19.997	1230.323	938.930
176.081	19.873	1229.270	937.371
177.096	19.809	1228.396	936.276
178.110	19.808	1227.459	935.473
179.125	20.000	1225.951	935.279
180.140	20.136	1225.489	935.578
181.154	20.268	1224.412	935.386
182.169	20.371	1223.639	935.265
183.183	20.479	1222.395	934.814
184.198	20.548	1221.321	934.279
185.213	20.520	1220.181	933.178
186.227	20.585	1219.216	932.705
187.242	20.604	1218.477	932.155
188.256	20.744	1217.697	932.228
189.271	20.711	1216.817	931.297
190.286	20.467	1215.532	928.925
191.300	20.075	1214.133	925.682
192.315	19.902	1213.302	924.043
193.329	19.911	1212.972	923.756
194.344	19.918	1212.175	923.105
195.359	20.062	1211.523	923.293
196.373	20.105	1211.413	923.356
197.388	20.252	1210.837	923.617
198.402	20.632	1211.038	925.716
199.417	20.814	1210.465	926.164
200.432	20.964	1209.751	926.331
201.446	21.067	1209.299	926.449
202.461	21.181	1208.881	926.653
203.475	21.066	1207.780	925.117
204.490	20.735	1205.934	921.867
205.504	20.487	1204.387	919.295
206.519	20.425	1203.232	918.003
207.534	20.256	1202.610	916.552
208.548	20.373	1200.970	915.841
209.563	20.436	1200.573	915.788
210.577	20.430	1199.706	915.014
211.592	20.600	1198.846	915.172
212.607	20.849	1198.029	915.779
213.621	20.825	1197.418	915.100
214.636	20.721	1196.418	913.712
215.650	20.607	1196.197	912.862
216.665	20.798	1195.081	912.934
217.680	21.042	1194.384	913.595
218.694	21.078	1193.718	913.194
219.709	20.907	1192.896	911.592
220.723	20.900	1191.936	910.739
221.738	20.880	1191.365	910.119
222.753	20.853	1189.908	908.787
223.767	20.861	1189.920	908.753
224.782	21.049	1189.150	909.067
225.796	21.134	1189.090	909.382
226.811	21.144	1188.182	908.660
227.826	20.950	1186.829	906.536
228.840	20.708	1186.738	905.129
229.855	20.693	1186.039	904.437
230.869	20.844	1184.611	904.050
231.884	20.553	1184.250	902.187
232.899	20.587	1182.619	901.041
233.913	20.395	1182.372	899.775
234.928	20.388	1181.351	898.886
235.942	20.253	1180.670	897.590
236.957	20.258	1179.819	896.888
237.972	20.239	1179.086	896.155
238.986	20.342	1178.833	896.412
240.001	20.471	1177.786	896.201
241.015	20.357	1177.084	895.002
242.030	20.490	1176.398	895.085
243.045	20.720	1175.741	895.691
244.059	20.628	1175.143	894.685
245.074	20.692	1174.547	894.480
246.088	20.872	1173.680	894.667
247.103	20.934	1173.278	894.596
248.117	21.120	1172.337	894.754
249.132	21.406	1171.932	895.830
250.147	21.645	1171.565	896.696
251.161	21.800	1171.251	897.168
252.176	21.888	1170.376	896.870
253.190	21.894	1170.151	896.647
254.205	22.069	1169.455	896.930
255.220	22.074	1168.929	896.473
256.234	21.907	1168.133	894.929
257.249	21.812	1167.547	893.916
258.263	21.918	1166.506	893.583
259.278	21.933	1165.944	893.150
260.293	21.919	1165.908	892.968
261.307	22.067	1164.998	892.946
262.322	22.039	1164.493	892.340
263.336	22.021	1164.131	891.889
264.351	22.154	1163.003	891.622
265.366	21.937	1162.861	890.333
266.380	21.954	1162.169	889.810
267.395	21.892	1160.812	888.381
268.409	21.853	1160.156	887.600
269.424	21.707	1159.589	886.352
270.439	21.762	1158.671	885.848
271.453	21.662	1157.936	884.702
272.468	21.470	1157.219	883.110
273.482	21.453	1155.972	881.991
274.497	21.432	1155.782	881.666
275.512	21.584	1154.518	881.389
276.526	21.511	1153.942	880.501
277.541	21.527	1153.373	880.071
278.555	21.601	1153.317	880.320
279.570	21.757	1152.937	880.737
280.585	22.028	1152.028	881.326
281.599	21.969	1150.582	879.847
282.614	21.719	1149.828	877.942
283.628	21.769	1148.150	876.830
284.643	21.649	1147.370	875.557
285.657	21.594	1146.880	874.829
286.672	21.670	1145.583	874.143
287.687	21.718	1145.082	873.923
288.701	21.602	1144.334	872.696
289.716	21.675	1143.690	872.492
290.730	21.677	1143.038	871.927
291.745	21.799	1142.198	871.815
292.760	21.815	1141.596	871.359
293.774	21.921	1141.175	871.489
294.789	22.015	1140.895	871.663
295.803	21.990	1140.203	870.934
296.818	21.809	1138.591	868.726
297.833	21.643	1138.144	867.491
298.847	21.665	1137.371	866.932
299.862	21.804	1136.316	866.736
300.876	21.828	1135.764	866.357
301.891	21.864	1135.516	866.271
302.906	22.029	1135.165	866.740
303.920	22.134	1134.854	866.946
304.935	22.383	1134.359	867.715
305.949	22.504	1133.580	867.641
306.964	22.438	1132.793	866.637
307.979	22.281	1131.775	865.010
308.993	22.241	1131.066	864.194
310.008	22.307	1130.462	863.978
311.022	22.276	1129.911	863.331
312.037	22.261	1129.196	862.634
313.052	22.083	1127.575	860.450
314.066	21.865	1126.400	858.409
315.081	21.637	1125.593	856.604
316.095	21.465	1125.090	855.303
317.110	21.547	1124.173	854.932
318.125	21.617	1123.296	854.532
319.139	21.711	1122.505	854.311
320.154	21.710	1121.617	853.556
321.168	21.779	1121.285	853.564
322.183	21.682	1121.177	852.931
323.197	21.645	1120.940	852.497
324.212	21.837	1119.736	852.436
325.227	21.912	1119.008	852.174
326.241	21.775	1118.476	851.030
327.256	21.796	1117.511	850.319
328.270	21.679	1117.088	849.355
329.285	21.811	1115.625	848.807
330.300	21.809	1114.907	848.174
331.314	21.683	1114.043	846.836
332.329	21.770	1113.225	846.557
333.343	21.858	1112.418	846.295
334.358	21.831	1112.244	845.954
335.373	21.984	1111.702	846.209
336.387	22.173	1110.676	846.262
337.402	22.198	1110.013	845.801
338.416	22.370	1109.349	846.046
339.431	22.340	1109.026	845.581
340.446	22.669	1108.605	846.767
341.460	22.610	1108.071	846.003
342.475	22.794	1107.443	846.330
343.489	22.651	1106.402	844.775
344.504	22.973	1105.507	845.558
345.519	22.826	1104.897	844.313
346.533	22.982	1104.020	844.311
347.548	22.942	1103.624	843.744
348.562	22.877	1102.502	842.503
349.577	22.579	1101.568	840.292
350.592	22.426	1099.997	838.293
351.606	22.170	1099.182	836.376
352.621	22.196	1098.274	835.737
353.635	21.975	1097.663	834.148
354.650	21.981	1097.559	834.021
355.665	22.246	1096.340	834.279
356.679	22.362	1095.767	834.322
357.694	22.321	1095.795	834.072
358.708	22.508	1094.896	834.201
359.723	22.545	1094.832	834.252
360.738	22.546	1093.675	833.303
361.752	22.515	1093.303	832.798
362.767	22.413	1092.913	831.946
363.781	22.570	1092.124	832.013
364.796	22.635	1091.783	831.985
365.810	22.909	1091.480	832.976
366.825	23.152	1091.083	833.745
367.840	23.284	1090.692	833.995
368.854	23.336	1090.014	833.644
369.869	23.284	1089.063	832.598
370.883	23.149	1088.152	831.193
371.898	22.939	1087.297	829.481
372.913	22.966	1086.393	828.844
373.927	22.982	1086.270	828.755
374.942	23.260	1085.643	829.507
375.956	23.119	1085.209	828.440
376.971	22.964	1084.408	827.031
377.986	23.131	1084.101	827.504
379.000	23.287	1083.856	827.973
380.015	23.341	1083.182	827.636
381.029	23.423	1082.780	827.638
382.044	23.580	1081.620	827.413
383.059	23.293	1081.041	825.556
384.073	23.236	1080.095	824.495
385.088	23.389	1079.376	824.587
386.102	23.326	1078.308	823.406
387.117	23.020	1077.157	821.035
388.132	22.898	1076.098	819.585
389.146	22.917	1075.123	818.859
390.161	22.799	1074.469	817.740
391.175	22.794	1073.799	817.137
392.190	22.998	1073.064	817.451
393.205	23.221	1072.747	818.168
394.219	23.208	1072.174	817.595
395.234	22.945	1071.020	815.428
396.248	22.873	1069.772	814.078
397.263	22.840	1068.946	813.226
398.278	22.698	1068.154	811.895
399.292	22.607	1067.424	810.850
400.307	22.606	1066.579	810.131
401.321	22.669	1065.717	809.695
402.336	22.564	1065.176	808.729
403.350	22.466	1064.603	807.772
404.365	22.774	1063.671	808.408
405.380	22.800	1063.130	808.043
406.394	22.908	1062.823	808.231
407.409	23.045	1062.513	808.553
408.423	23.278	1061.754	808.966
409.438	23.432	1060.921	808.966
410.453	23.415	1060.636	808.599
411.467	23.490	1060.014	808.393
412.482	23.712	1059.066	808.608
413.496	23.796	1058.479	808.473
414.511	23.768	1058.153	808.027
415.526	23.829	1057.517	807.747
416.540	23.975	1057.112	808.029
417.555	23.979	1056.739	807.691
418.569	23.759	1056.207	806.211
419.584	23.692	1055.813	805.535
420.599	23.572	1055.202	804.454
421.613	157.038	1403.740	1797.814
422.628	144.237	1454.482	1797.895
