DTS Sentinel unit serial number:	SN413079Multiplexer serial number:	ORYXHardware model number:	OX4-SRSoftware version number:	ORYX F/W v4.00 Oryx Data Collector v3.7.2.0data status	okinstallation	princeton_trtdifferential loss correction	single-endedforward channel	channel 2reverse channel	N/Adate	2019/09/17time	06:51:35forward acquisition time	60.00reverse acquisition time	0.00gamma	496.2192k internal	0.2333k external	0.2333temperature offset calibration	0.9980default loss term (dB/km)	0.3790temperature slope calibration	1.0000multiplexer offset coefficient	1.0000multiplexer slope coefficient	1.0000fibre end	0.00T internal ref (°C)	27.69T ext. ref 1 (°C)	0.13T ext. ref 2 (°C)	21.02length (m)	temperature (°C)	Stokes	anti-Stokes-747.200	-137.886	-0.161	-0.018
-746.185	-87.846	0.179	-0.054
-745.171	160.701	-0.104	-0.146
-744.156	354.864	0.144	0.287
-743.142	-120.566	-0.426	0.073
-742.127	55.161	-0.177	0.172
-741.112	-127.324	0.009	0.001
-740.098	800.000	-0.061	0.200
-739.083	21.012	-0.295	-0.240
-738.069	-200.000	0.001	-0.245
-737.054	545.198	0.036	-0.088
-736.039	-200.000	0.001	-0.083
-735.025	-71.487	0.132	0.049
-734.010	800.000	-0.107	-0.389
-732.996	800.000	-0.053	-0.154
-731.981	100.647	0.157	-0.183
-730.966	800.000	0.066	-0.264
-729.952	284.554	-0.070	0.128
-728.937	167.621	0.168	-0.240
-727.923	-200.000	-0.061	-0.409
-726.908	-200.000	-0.052	-0.337
-725.894	-123.251	0.065	-0.011
-724.879	71.189	0.173	-0.180
-723.864	-10.916	-0.129	0.086
-722.850	-200.000	-0.005	-0.287
-721.835	-21.114	-0.336	-0.206
-720.821	800.000	-0.152	-0.622
-719.806	769.208	-0.092	0.251
-718.791	-200.000	0.000	-0.388
-717.777	-89.456	0.078	0.023
-716.762	206.255	0.098	-0.154
-715.748	81.671	-0.134	-0.145
-714.733	-41.955	-0.110	-0.057
-713.718	417.836	0.079	-0.169
-712.704	-144.830	0.210	0.019
-711.689	-200.000	0.049	-0.247
-710.675	7.711	-0.174	-0.131
-709.660	-200.000	0.014	0.161
-708.645	-200.000	-0.016	-0.128
-707.631	-87.071	0.302	0.092
-706.616	-200.000	-0.012	-0.160
-705.602	800.000	-0.048	0.175
-704.587	-200.000	-0.023	0.177
-703.572	-200.000	0.006	-0.556
-702.558	136.098	-0.191	-0.251
-701.543	-185.353	0.365	-0.006
-700.529	-2.348	0.131	-0.092
-699.514	46.182	0.141	-0.131
-698.499	-129.181	-0.233	0.033
-697.485	40.187	0.111	0.100
-696.470	-92.048	0.357	0.101
-695.456	800.000	0.097	-0.281
-694.441	135.681	0.162	-0.212
-693.426	-200.000	-0.003	-0.120
-692.412	7.250	-0.166	0.125
-691.397	33.276	0.091	-0.080
-690.383	-95.815	0.220	-0.059
-689.368	100.200	-0.024	0.028
-688.354	-105.667	-0.202	0.046
-687.339	99.010	-0.199	0.231
-686.324	270.757	0.166	-0.293
-685.310	293.616	-0.100	0.184
-684.295	-0.131	-0.253	-0.181
-683.281	-73.828	-0.138	0.050
-682.266	-87.878	-0.318	0.096
-681.251	244.022	0.122	-0.205
-680.237	-200.000	-0.017	0.240
-679.222	213.988	0.060	-0.096
-678.208	219.101	-0.197	-0.316
-677.193	-37.064	-0.079	0.042
-676.178	173.845	0.118	0.170
-675.164	800.000	0.076	0.255
-674.149	29.872	0.086	-0.074
-673.135	457.562	-0.081	-0.181
-672.120	94.714	0.135	0.154
-671.105	-90.722	0.327	-0.095
-670.091	190.466	0.113	-0.171
-669.076	733.764	-0.140	-0.377
-668.062	-44.908	-0.233	-0.117
-667.047	-147.733	0.217	0.018
-666.032	83.645	-0.224	-0.245
-665.018	123.924	-0.095	0.119
-664.003	-200.000	-0.013	0.166
-662.989	246.092	0.061	-0.103
-661.974	71.621	-0.103	0.107
-660.959	-10.108	-0.119	-0.079
-659.945	-75.314	0.089	0.032
-658.930	-200.000	0.025	-0.258
-657.916	-32.776	0.400	-0.223
-656.901	304.434	-0.132	0.246
-655.886	62.683	0.153	-0.154
-654.872	-76.934	0.212	-0.074
-653.857	140.953	0.149	-0.198
-652.843	489.204	0.074	0.169
-651.828	20.427	-0.350	-0.284
-650.814	800.000	0.051	0.214
-649.799	125.810	-0.038	0.049
-648.784	-133.879	-0.088	-0.011
-647.770	54.110	0.024	-0.023
-646.755	-181.540	0.114	0.002
-645.741	3.081	0.198	-0.144
-644.726	492.683	-0.144	0.330
-643.711	-36.851	-0.410	-0.221
-642.697	626.321	-0.216	-0.546
-641.682	-200.000	-0.039	0.213
-640.668	159.342	-0.084	0.116
-639.653	319.816	0.068	0.129
-638.638	741.682	-0.048	0.129
-637.624	221.497	-0.139	-0.224
-636.609	116.952	-0.234	-0.288
-635.595	-200.000	-0.039	-0.185
-634.580	-3.562	-0.177	0.123
-633.565	-4.500	-0.327	-0.226
-632.551	169.466	-0.108	0.155
-631.536	-108.213	-0.230	0.050
-630.522	-154.911	-0.272	0.018
-629.507	129.105	-0.155	-0.198
-628.492	211.241	0.163	-0.257
-627.478	77.538	-0.137	0.146
-626.463	-200.000	-0.037	-0.236
-625.449	188.567	-0.116	-0.174
-624.434	204.729	-0.062	0.096
-623.419	-158.932	0.054	0.003
-622.405	-200.000	-0.021	-0.161
-621.390	1.001	-0.111	-0.079
-620.376	-106.143	-0.240	-0.054
-619.361	-124.797	0.148	0.023
-618.346	-16.856	-0.132	-0.083
-617.332	283.301	-0.100	-0.180
-616.317	451.049	0.120	0.265
-615.303	1.590	0.042	0.030
-614.288	96.153	-0.084	-0.096
-613.273	97.668	0.028	0.032
-612.259	-200.000	-0.001	-0.050
-611.244	-200.000	0.029	-0.321
-610.230	300.949	-0.056	0.103
-609.215	544.156	-0.087	0.207
-608.201	367.245	0.036	-0.072
-607.186	136.448	0.173	0.226
-606.171	491.395	-0.082	0.189
-605.157	-37.958	-0.147	0.078
-604.142	-200.000	0.019	0.113
-603.128	-19.892	-0.184	0.113
-602.113	143.910	0.150	-0.199
-601.098	118.055	0.098	0.121
-600.084	-198.301	-0.128	0.001
-599.069	-114.162	0.475	0.092
-598.055	-200.000	0.040	0.302
-597.040	-21.137	0.118	-0.072
-596.025	358.763	-0.053	-0.105
-595.011	206.059	-0.144	0.224
-593.996	306.197	-0.160	0.298
-592.982	-44.739	0.246	-0.123
-591.967	-35.074	0.070	0.038
-590.952	41.115	0.187	-0.169
-589.938	162.210	0.139	0.194
-588.923	155.689	-0.097	0.133
-587.909	-200.000	0.004	-0.219
-586.894	110.364	0.048	0.058
-585.879	-110.701	-0.494	-0.102
-584.865	-200.000	0.083	0.371
-583.850	30.229	-0.168	-0.143
-582.836	-95.589	-0.154	-0.041
-581.821	-6.148	-0.146	-0.099
-580.806	-200.000	-0.050	0.226
-579.792	-55.065	-0.349	-0.157
-578.777	126.859	0.296	-0.374
-577.763	101.361	-0.056	0.065
-576.748	-128.074	0.154	-0.022
-575.733	-103.473	-0.132	-0.031
-574.719	-81.471	0.187	0.061
-573.704	426.440	-0.186	-0.402
-572.690	-1.828	0.159	0.112
-571.675	48.408	0.001	0.001
-570.661	-36.009	-0.340	0.184
-569.646	-200.000	0.016	-0.135
-568.631	-200.000	0.020	-0.318
-567.617	-124.344	0.356	-0.055
-566.602	-71.195	-0.308	0.115
-565.588	116.981	0.087	0.107
-564.573	-151.950	-0.523	-0.038
-563.558	358.735	-0.118	-0.235
-562.544	-153.441	0.299	0.021
-561.529	-200.000	-0.034	0.195
-560.515	-45.121	0.180	-0.089
-559.500	-200.000	-0.051	0.262
-558.485	-176.452	0.285	0.007
-557.471	116.993	-0.111	0.136
-556.456	-200.000	-0.112	0.617
-555.442	-107.190	-0.065	-0.014
-554.427	800.000	-0.061	0.225
-553.412	-190.866	-0.395	0.004
-552.398	800.000	-0.091	-0.264
-551.383	294.717	0.078	-0.141
-550.369	800.000	-0.151	-0.504
-549.354	-200.000	-0.029	-0.151
-548.339	57.331	0.218	-0.213
-547.325	800.000	0.054	0.173
-546.310	-5.036	-0.340	0.234
-545.296	-200.000	0.027	-0.336
-544.281	181.582	-0.114	-0.168
-543.266	-38.665	0.231	-0.121
-542.252	254.291	0.079	0.134
-541.237	398.762	0.183	-0.382
-540.223	-111.967	-0.307	0.062
-539.208	142.896	-0.131	0.173
-538.193	-23.829	0.330	0.197
-537.179	245.000	0.126	0.211
-536.164	54.416	-0.237	-0.228
-535.150	-14.849	0.196	-0.125
-534.135	800.000	-0.082	-0.283
-533.121	-4.863	-0.198	0.136
-532.106	800.000	0.109	-0.438
-531.091	-3.885	0.392	-0.272
-530.077	-79.013	-0.255	0.087
-529.062	237.068	0.059	0.097
-528.048	-200.000	-0.024	0.168
-527.033	-95.848	-0.202	-0.054
-526.018	-72.172	-0.114	-0.042
-525.004	-16.823	-0.079	0.050
-523.989	-200.000	-0.021	-0.141
-522.975	-135.194	-0.188	-0.023
-521.960	53.001	-0.092	-0.088
-520.945	-200.000	0.015	0.170
-519.931	-111.839	-0.202	0.041
-518.916	49.032	0.192	0.180
-517.902	-32.658	0.110	-0.061
-516.887	59.209	0.077	-0.075
-515.872	800.000	0.036	0.107
-514.858	-63.328	0.163	-0.067
-513.843	-10.686	-0.052	0.035
-512.829	177.361	-0.144	0.209
-511.814	-0.014	-0.247	0.176
-510.799	800.000	0.037	0.115
-509.785	-13.869	-0.197	-0.127
-508.770	84.558	-0.273	0.297
-507.756	200.528	-0.103	0.157
-506.741	780.684	0.061	0.167
-505.726	-200.000	0.046	0.425
-504.712	-200.000	-0.032	0.294
-503.697	521.764	-0.018	-0.043
-502.683	43.995	0.127	-0.116
-501.668	-161.361	0.179	-0.009
-500.653	-60.958	0.170	-0.071
-499.639	-80.121	0.285	0.095
-498.624	-103.664	-0.154	0.036
-497.610	1.467	-0.293	-0.210
-496.595	118.578	0.133	-0.164
-495.581	800.000	0.167	0.542
-494.566	-200.000	-0.023	0.313
-493.551	-200.000	-0.033	0.156
-492.537	800.000	0.032	-0.127
-491.522	-21.444	0.225	0.137
-490.508	528.539	0.078	-0.182
-489.493	-136.131	0.340	0.040
-488.478	-135.374	-0.168	0.020
-487.464	-6.412	0.261	0.177
-486.449	90.657	0.196	-0.219
-485.435	-200.000	0.006	-0.236
-484.420	160.839	-0.178	0.248
-483.405	30.954	-0.029	0.025
-482.391	800.000	-0.028	0.091
-481.376	200.925	-0.076	-0.116
-480.362	-200.000	0.010	-0.301
-479.347	303.957	0.115	-0.213
-478.332	618.754	-0.039	-0.097
-477.318	-2.732	-0.160	0.111
-476.303	-62.800	0.126	0.052
-475.289	-6.080	-0.045	-0.030
-474.274	-84.315	-0.279	-0.088
-473.259	142.943	0.239	0.317
-472.245	-97.541	0.411	0.106
-471.230	800.000	0.170	-0.489
-470.216	-200.000	-0.014	0.091
-469.201	-107.782	0.162	0.035
-468.186	414.366	0.115	-0.244
-467.172	524.772	-0.141	-0.331
-466.157	-13.375	0.165	0.107
-465.143	100.846	0.283	0.327
-464.128	800.000	0.078	-0.290
-463.113	800.000	0.128	0.445
-462.099	-98.570	0.343	0.087
-461.084	-80.768	-0.136	-0.045
-460.070	381.988	-0.042	-0.086
-459.055	-177.965	-0.127	-0.003
-458.040	-98.968	0.178	-0.045
-457.026	-2.515	0.342	-0.238
-456.011	-52.451	-0.069	-0.032
-454.997	70.531	-0.265	0.273
-453.982	490.174	0.051	0.115
-452.968	141.764	0.165	-0.217
-451.953	-63.649	0.128	0.052
-450.938	-200.000	0.011	-0.181
-449.924	-133.868	0.367	0.045
-448.909	57.043	0.202	-0.196
-447.895	328.573	-0.192	0.366
-446.880	-200.000	-0.001	0.276
-445.865	163.202	0.169	-0.236
-444.851	-30.015	-0.442	-0.250
-443.836	438.498	0.060	0.129
-442.822	-67.210	-0.419	0.164
-441.807	25.010	0.143	0.118
-440.792	77.795	-0.130	0.138
-439.778	-193.463	-0.293	0.003
-438.763	81.321	-0.083	-0.089
-437.749	-68.277	-0.206	-0.080
-436.734	-200.000	-0.013	-0.199
-435.719	-200.000	-0.004	0.065
-434.705	529.301	0.095	-0.222
-433.690	-30.338	-0.268	-0.151
-432.676	800.000	0.054	-0.167
-431.661	70.424	0.090	0.092
-430.646	318.559	-0.098	0.184
-429.632	-19.613	0.160	-0.098
-428.617	-153.121	0.289	0.020
-427.603	-130.074	0.129	-0.017
-426.588	-200.000	-0.043	0.295
-425.573	800.000	-0.077	0.215
-424.559	-200.000	-0.014	-0.070
-423.544	-200.000	0.058	0.420
-422.530	153.273	0.192	-0.261
-421.515	411.532	-0.044	-0.093
-420.500	-113.083	-0.210	-0.041
-419.486	56.931	-0.107	0.104
-418.471	-200.000	-0.029	-0.166
-417.457	-11.538	-0.092	0.060
-416.442	800.000	-0.059	-0.174
-415.428	118.570	-0.165	-0.202
-414.413	75.408	0.215	-0.225
-413.398	800.000	-0.108	-0.413
-412.384	-108.230	0.393	0.084
-411.369	339.378	0.112	0.217
-410.355	-54.331	-0.104	0.047
-409.340	-178.146	0.177	0.004
-408.325	-122.200	0.201	0.033
-407.311	-86.084	0.145	-0.044
-406.296	117.252	0.185	-0.225
-405.282	64.339	-0.123	0.123
-404.267	-16.718	0.161	-0.101
-403.252	800.000	-0.070	-0.239
-402.238	68.687	0.199	0.202
-401.223	150.736	-0.070	0.094
-400.209	-164.150	0.376	-0.017
-399.194	-200.000	0.011	-0.238
-398.179	578.242	-0.159	-0.385
-397.165	100.851	0.113	-0.131
-396.150	469.882	0.052	-0.115
-395.136	-57.312	-0.204	0.089
-394.121	800.000	-0.116	-0.363
-393.106	-3.199	0.202	-0.140
-392.092	800.000	-0.034	0.109
-391.077	-35.887	0.224	0.120
-390.063	-58.442	0.135	-0.058
-389.048	800.000	-0.038	-0.160
-388.033	46.511	0.185	0.170
-387.019	800.000	0.083	-0.346
-386.004	-200.000	0.044	-0.331
-384.990	566.959	0.035	0.085
-383.975	800.000	0.049	0.205
-382.960	-200.000	-0.046	-0.229
-381.946	-35.900	0.223	0.120
-380.931	176.468	0.048	0.069
-379.917	-50.195	-0.110	0.051
-378.902	413.453	0.051	-0.108
-377.888	-200.000	-0.007	-0.290
-376.873	-200.000	-0.012	0.066
-375.858	283.101	0.063	-0.113
-374.844	259.998	0.030	0.051
-373.829	131.157	-0.092	-0.117
-372.815	337.073	0.075	-0.144
-371.800	800.000	-0.100	0.289
-370.785	777.223	0.094	0.254
-369.771	51.371	0.258	0.243
-368.756	-133.100	-0.209	0.026
-367.742	800.000	0.045	-0.172
-366.727	-26.702	0.242	-0.140
-365.712	58.952	-0.193	0.188
-364.698	-200.000	0.027	0.150
-363.683	800.000	0.057	0.167
-362.669	524.976	0.037	0.085
-361.654	-93.504	0.460	0.126
-360.639	-142.614	0.136	-0.013
-359.625	-152.203	-0.254	0.018
-358.610	160.859	0.171	-0.237
-357.596	-125.962	-0.258	0.039
-356.581	554.742	0.061	0.144
-355.566	-76.326	-0.067	0.024
-354.552	-131.691	0.027	0.004
-353.537	-200.000	-0.014	0.101
-352.523	-63.409	-0.255	0.104
-351.508	-159.319	0.028	-0.002
-350.493	-123.587	0.138	0.022
-349.479	-110.796	-0.402	-0.082
-348.464	58.287	-0.150	-0.145
-347.450	-67.296	0.273	-0.106
-346.435	31.584	0.283	0.241
-345.420	-41.817	0.199	0.101
-344.406	105.443	0.044	-0.051
-343.391	-106.615	0.223	-0.049
-342.377	104.569	0.022	-0.025
-341.362	-75.126	-0.127	-0.045
-340.348	-29.426	0.126	0.071
-339.333	-73.105	-0.093	0.034
-338.318	-34.034	0.336	0.183
-337.304	-20.320	-0.140	-0.085
-336.289	-200.000	0.025	0.337
-335.275	317.760	-0.153	0.286
-334.260	800.000	0.031	-0.102
-333.245	328.620	-0.136	-0.258
-332.231	34.491	-0.116	-0.100
-331.216	-163.720	0.138	-0.006
-330.202	800.000	-0.064	-0.175
-329.187	237.623	0.121	-0.199
-328.172	152.256	-0.175	-0.236
-327.158	-200.000	0.047	0.387
-326.143	-152.827	0.078	0.005
-325.129	67.804	-0.200	-0.203
-324.114	216.156	-0.064	-0.101
-323.099	60.224	-0.105	0.102
-322.085	392.367	-0.114	0.233
-321.070	-120.529	0.332	-0.056
-320.056	-134.865	-0.202	-0.024
-319.041	800.000	-0.117	-0.366
-318.026	-41.890	0.110	0.056
-317.012	115.691	0.094	0.114
-315.997	797.758	0.052	0.142
-314.983	-98.529	0.164	-0.041
-313.968	-200.000	0.071	0.335
-312.953	293.734	0.050	-0.089
-311.939	-148.617	-0.397	0.032
-310.924	-200.000	-0.282	-0.001
-309.910	-200.000	0.064	0.494
-308.895	501.587	0.100	0.228
-307.880	-157.829	-0.266	-0.016
-306.866	-172.243	-0.214	0.007
-305.851	103.417	-0.060	-0.070
-304.837	-124.544	-0.078	-0.012
-303.822	-200.000	-0.026	-0.243
-302.807	503.278	-0.037	-0.084
-301.793	-28.345	0.083	0.048
-300.778	147.925	0.277	-0.369
-299.764	-46.789	0.166	-0.080
-298.749	-138.968	0.056	0.006
-297.735	-91.345	0.247	-0.070
-296.720	800.000	-0.067	0.246
-295.705	-200.000	-0.090	-0.423
-294.691	73.593	0.271	-0.281
-293.676	-113.192	-0.372	0.072
-292.662	-98.470	0.056	-0.014
-291.647	-43.377	-0.203	-0.101
-290.632	800.000	-0.071	0.236
-289.618	51.022	-0.125	0.117
-288.603	27.126	-0.075	0.062
-287.589	-200.000	0.029	-0.150
-286.574	180.618	0.182	0.263
-285.559	800.000	-0.027	0.078
-284.545	483.806	-0.128	0.287
-283.530	-83.719	-0.203	0.064
-282.516	-109.637	-0.273	-0.057
-281.501	232.195	-0.222	0.360
-280.486	-200.000	0.005	0.073
-279.472	-200.000	-0.025	-0.124
-278.457	303.937	-0.120	0.219
-277.443	782.182	0.134	0.363
-276.428	-200.000	0.070	-0.322
-275.413	-92.231	-0.199	-0.055
-274.399	42.184	-0.050	-0.045
-273.384	-175.142	0.336	0.009
-272.370	218.634	-0.143	0.225
-271.355	14.739	-0.046	0.035
-270.340	202.687	-0.099	-0.151
-269.326	-111.781	0.224	0.045
-268.311	174.179	-0.010	0.015
-267.297	154.280	-0.133	-0.180
-266.282	26.181	0.322	-0.265
-265.267	238.062	-0.068	0.111
-264.253	561.016	0.038	0.090
-263.238	-174.220	0.259	0.007
-262.224	595.369	0.069	-0.170
-261.209	196.223	0.066	0.099
-260.195	-123.671	0.272	0.043
-259.180	155.829	0.328	0.446
-258.165	-104.413	-0.334	-0.076
-257.151	390.054	-0.091	-0.186
-256.136	303.918	0.153	-0.280
-255.122	-7.495	-0.105	-0.070
-254.107	800.000	0.062	0.250
-253.092	26.182	0.200	0.165
-252.078	-130.818	0.161	-0.021
-251.063	-85.991	-0.086	0.026
-250.049	-95.618	-0.429	-0.113
-249.034	-84.869	0.249	0.077
-248.019	115.969	-0.181	-0.219
-247.005	-85.353	0.345	-0.106
-245.990	53.772	-0.156	-0.148
-244.976	-108.840	0.205	0.043
-243.961	-113.147	0.137	0.027
-242.946	-200.000	-0.024	-0.171
-241.932	-80.943	0.276	-0.090
-240.917	-178.887	-0.232	-0.005
-239.903	347.209	0.174	0.338
-238.888	257.492	0.047	-0.080
-237.873	-142.199	0.176	0.017
-236.859	250.205	0.115	-0.193
-235.844	-51.713	0.292	-0.134
-234.830	800.000	-0.024	-0.098
-233.815	88.637	-0.185	0.203
-232.800	-157.037	0.042	0.003
-231.786	-186.789	0.093	0.001
-230.771	232.392	0.112	-0.181
-229.757	165.598	0.156	0.217
-228.742	-39.830	-0.401	0.207
-227.727	-200.000	0.003	-0.148
-226.713	6.980	0.187	0.137
-225.698	-132.603	-0.145	0.018
-224.684	-7.314	0.077	-0.051
-223.669	194.509	-0.030	0.045
-222.655	55.951	0.090	-0.086
-221.640	53.969	-0.290	0.275
-220.625	-200.000	0.016	-0.073
-219.611	-25.104	-0.246	-0.144
-218.596	-160.297	0.092	-0.005
-217.582	-181.315	-0.514	-0.010
-216.567	618.612	0.129	-0.318
-215.552	800.000	0.038	-0.130
-214.538	-62.765	-0.070	0.029
-213.523	800.000	-0.112	-0.426
-212.509	-146.956	0.247	-0.021
-211.494	121.564	-0.332	0.408
-210.479	-62.330	-0.131	-0.054
-209.465	240.744	0.083	0.137
-208.450	209.751	0.241	0.372
-207.436	126.620	0.118	0.147
-206.421	169.045	-0.106	-0.149
-205.406	82.243	0.123	0.132
-204.392	-181.464	-0.300	-0.006
-203.377	-88.188	0.218	0.064
-202.363	-67.966	0.095	0.036
-201.348	11.433	0.083	-0.062
-200.333	302.330	0.124	0.226
-199.319	23.799	-0.198	0.161
-198.304	800.000	-0.052	-0.204
-197.290	171.950	-0.253	0.358
-196.275	800.000	0.044	0.177
-195.260	144.027	0.132	0.173
-194.246	202.454	-0.122	-0.186
-193.231	-200.000	0.019	0.203
-192.217	-62.715	0.125	0.051
-191.202	-200.000	-0.015	0.111
-190.187	211.654	0.098	-0.151
-189.173	213.463	0.059	0.092
-188.158	90.149	0.137	0.150
-187.144	-166.215	0.305	0.013
-186.129	409.512	-0.011	0.023
-185.114	-49.048	0.056	0.026
-184.100	-60.000	0.112	0.047
-183.085	-200.000	-0.039	-0.203
-182.071	800.000	0.080	-0.294
-181.056	-33.011	-0.126	-0.069
-180.042	47.535	-0.072	-0.066
-179.027	-178.265	0.345	0.008
-178.012	192.170	-0.247	0.367
-176.998	-41.975	-0.113	-0.057
-175.983	19.258	-0.111	-0.088
-174.969	225.544	-0.150	0.239
-173.954	-158.132	-0.350	0.020
-172.939	142.573	-0.160	0.209
-171.925	-53.888	-0.399	-0.179
-170.910	488.906	-0.126	-0.284
-169.896	96.856	0.344	-0.387
-168.881	-200.000	-0.060	-0.283
-167.866	-110.071	-0.455	-0.093
-166.852	17.197	-0.165	0.128
-165.837	800.000	-0.061	0.256
-164.823	556.495	-0.081	0.191
-163.808	127.649	0.157	0.196
-162.793	-128.585	-0.190	0.026
-161.779	-200.000	0.006	0.036
-160.764	-130.036	0.194	0.026
-159.750	-52.057	0.088	0.040
-158.735	-200.000	-0.026	0.137
-157.720	-101.432	0.286	-0.069
-156.706	-2.084	-0.209	-0.144
-155.691	114.253	-0.050	0.059
-154.677	-46.775	0.314	-0.151
-153.662	-200.000	-0.010	0.311
-152.647	-114.449	0.142	-0.027
-151.633	-46.536	0.275	-0.133
-150.618	15.456	0.225	0.173
-149.604	56.256	0.113	0.108
-148.589	401.233	-0.158	0.326
-147.574	-35.729	0.273	0.145
-146.560	17.354	0.267	0.208
-145.545	-98.255	0.342	-0.086
-144.531	749.589	-0.070	-0.187
-143.516	626.497	0.160	-0.397
-142.502	9.826	-0.097	-0.072
-141.487	200.127	0.123	-0.186
-140.472	-77.226	0.212	0.073
-139.458	800.000	-0.057	-0.166
-138.443	-91.611	0.239	0.067
-137.429	-83.309	-0.255	-0.080
-136.414	39.581	0.070	0.062
-135.399	5.444	0.182	-0.132
-134.385	-68.965	0.051	-0.019
-133.370	275.643	-0.068	0.118
-132.356	800.000	-0.037	0.117
-131.341	-189.159	-0.266	-0.003
-130.326	745.517	-0.034	0.089
-129.312	-41.826	0.278	0.140
-128.297	-20.268	-0.102	0.061
-127.283	404.972	-0.144	0.297
-126.268	-200.000	-0.032	0.146
-125.253	800.000	-0.054	-0.152
-124.239	-96.989	-0.358	-0.092
-123.224	63.909	0.186	-0.184
-122.210	102.790	0.279	0.321
-121.195	133.047	-0.103	0.131
-120.180	-200.000	0.012	-0.252
-119.166	205.963	0.112	0.171
-118.151	239.516	-0.062	-0.101
-117.137	-16.782	-0.227	-0.141
-116.122	26.901	0.233	-0.192
-115.107	-200.000	-0.066	-0.302
-114.093	-12.783	0.212	0.135
-113.078	-200.000	-0.060	-0.347
-112.064	800.000	-0.028	-0.083
-111.049	178.002	-0.142	0.204
-110.034	-157.955	0.070	-0.004
-109.020	-71.002	0.280	0.104
-108.005	213.874	-0.139	-0.216
-106.991	62.768	0.123	0.121
-105.976	-200.000	0.014	-0.109
-104.962	-200.000	0.005	0.334
-103.947	-190.546	-0.150	0.002
-102.932	7.205	0.008	-0.006
-101.918	15.499	-0.111	-0.086
-100.903	-41.912	0.495	0.249
-99.889	-200.000	0.044	0.342
-98.874	-125.752	0.228	0.034
-97.859	-200.000	-0.037	0.303
-96.845	-93.384	0.136	-0.037
-95.830	450.710	0.033	-0.072
-94.816	-142.110	-0.270	-0.026
-93.801	642.452	0.071	0.176
-92.786	-93.579	0.045	0.012
-91.772	-142.914	-0.054	-0.005
-90.757	516.123	-0.068	0.156
-89.743	53.726	-0.139	0.131
-88.728	-200.000	-0.036	0.443
-87.713	-90.180	-0.167	0.048
-86.699	-93.571	0.401	0.109
-85.684	172.764	-0.170	0.240
-84.670	-49.763	0.231	0.108
-83.655	102.129	-0.095	0.109
-82.640	34.569	0.421	0.361
-81.626	800.000	-0.041	-0.125
-80.611	-88.461	-0.055	0.016
-79.597	-200.000	0.029	-0.252
-78.582	-24.444	-0.243	-0.142
-77.567	-150.400	-0.180	-0.014
-76.553	113.734	-0.082	0.098
-75.538	152.095	0.177	-0.236
-74.524	141.558	-0.109	-0.142
-73.509	340.558	-0.066	0.126
-72.494	-200.000	0.009	0.188
-71.480	429.464	0.059	-0.125
-70.465	-151.433	0.220	0.016
-69.451	-45.156	-0.190	0.092
-68.436	-200.000	-0.009	0.239
-67.422	131.738	0.097	0.122
-66.407	800.000	-0.048	0.131
-65.392	151.135	0.205	0.273
-64.378	121.301	-0.025	0.031
-63.363	-200.000	-0.039	-0.234
-62.349	800.000	0.047	0.152
-61.334	47.448	-1.207	-1.101
-60.319	255.603	0.574	0.964
-59.305	800.000	-0.291	-0.964
-58.290	92.523	0.912	1.008
-57.276	-200.000	0.184	1.230
-56.261	-200.000	113.777	648.637
-55.246	474.451	1505.044	3324.318
-54.232	147.120	2675.602	3524.044
-53.217	97.201	2285.783	2567.565
-52.203	36.708	1897.715	1640.959
-51.188	30.821	1688.912	1415.755
-50.173	28.250	1647.591	1361.962
-49.159	50.106	1702.139	1572.668
-48.144	48.853	1716.238	1576.185
-47.130	30.451	1674.876	1400.976
-46.115	27.737	1660.490	1368.562
-45.100	27.506	1655.870	1362.969
-44.086	27.594	1653.041	1361.245
-43.071	27.555	1650.011	1358.402
-42.057	27.459	1648.330	1356.248
-41.042	27.523	1646.302	1355.002
-40.027	27.578	1644.062	1353.518
-39.013	27.558	1642.156	1351.743
-37.998	27.601	1640.655	1350.770
-36.984	27.601	1639.499	1349.768
-35.969	27.637	1637.886	1348.654
-34.954	27.649	1636.623	1347.652
-33.940	27.681	1634.458	1346.049
-32.925	27.740	1632.458	1344.784
-31.911	27.644	1631.201	1342.990
-30.896	27.652	1629.201	1341.343
-29.881	27.607	1627.985	1339.958
-28.867	27.678	1626.038	1338.824
-27.852	27.620	1624.279	1336.900
-26.838	27.631	1622.805	1335.713
-25.823	27.707	1621.475	1335.123
-24.809	27.706	1620.509	1334.265
-23.794	27.670	1619.451	1333.079
-22.779	27.725	1617.509	1331.832
-21.765	27.746	1615.884	1330.595
-20.750	27.669	1614.380	1328.740
-19.736	27.777	1612.850	1328.214
-18.721	27.704	1611.655	1326.644
-17.706	27.699	1610.074	1325.253
-16.692	27.713	1609.032	1324.446
-15.677	27.791	1607.514	1323.714
-14.663	27.776	1606.348	1322.592
-13.648	27.778	1604.448	1320.986
-12.633	27.732	1602.928	1319.349
-11.619	27.693	1601.598	1317.919
-10.604	27.688	1600.073	1316.577
-9.590	27.704	1598.830	1315.620
-8.575	27.823	1597.126	1315.022
-7.560	27.668	1596.502	1313.341
-6.546	27.790	1595.208	1313.102
-5.531	27.749	1594.209	1311.931
-4.517	27.802	1593.021	1311.279
-3.502	27.667	1592.261	1309.636
-2.487	27.790	1590.455	1308.979
-1.473	27.259	1578.492	1295.304
-0.458	24.089	1557.593	1255.786
0.556	18.575	1557.814	1221.205
1.571	16.030	1580.509	1220.481
2.586	15.507	1592.933	1226.149
3.600	14.394	1539.866	1177.335
4.615	8.131	1433.309	1054.459
5.629	1.533	1371.889	967.312
6.644	0.220	1364.170	953.480
7.659	0.139	1362.505	951.720
8.673	0.071	1361.902	950.782
9.688	0.080	1359.923	949.372
10.702	-0.084	1356.585	945.929
11.717	3.160	1361.720	969.897
12.731	10.864	1373.483	1027.021
13.746	16.405	1380.887	1067.570
14.761	17.259	1380.945	1072.911
15.775	16.316	1378.622	1065.067
16.790	15.257	1376.025	1056.295
17.804	14.431	1374.050	1049.489
18.819	14.043	1372.769	1045.977
19.834	13.767	1371.300	1043.027
20.848	13.633	1370.034	1041.131
21.863	13.408	1368.496	1038.460
22.877	13.246	1367.255	1036.412
23.892	13.260	1366.100	1035.531
24.907	13.083	1365.712	1034.035
25.921	13.202	1364.871	1034.054
26.936	13.202	1364.187	1033.445
27.950	13.219	1363.075	1032.618
28.965	13.335	1361.858	1032.328
29.980	13.404	1360.847	1031.901
30.994	13.438	1360.035	1031.403
32.009	13.430	1359.231	1030.650
33.023	13.390	1358.343	1029.639
34.038	13.271	1357.397	1028.093
35.053	13.324	1355.775	1027.103
36.067	13.306	1354.653	1026.049
37.082	13.343	1353.998	1025.693
38.096	13.335	1353.004	1024.798
39.111	13.398	1352.313	1024.573
40.126	13.281	1351.576	1023.199
41.140	13.338	1350.269	1022.471
42.155	13.171	1350.296	1021.374
43.169	13.081	1350.217	1020.663
44.184	13.052	1349.752	1020.040
45.199	13.147	1349.209	1020.129
46.213	13.167	1349.011	1020.011
47.228	13.191	1347.451	1018.894
48.242	13.239	1346.294	1018.219
49.257	13.329	1345.099	1017.781
50.271	13.249	1343.716	1016.151
51.286	13.400	1341.797	1015.538
52.301	13.337	1340.423	1014.023
53.315	13.290	1339.577	1013.006
54.330	13.202	1338.596	1011.638
55.344	13.225	1337.069	1010.533
56.359	13.221	1336.473	1009.968
57.374	13.170	1335.944	1009.166
58.388	13.241	1334.698	1008.571
59.403	13.148	1334.845	1008.025
60.417	13.082	1333.781	1006.731
61.432	13.156	1332.771	1006.328
62.447	13.118	1332.055	1005.466
63.461	13.044	1330.812	1003.991
64.476	13.233	1328.928	1003.626
65.490	13.130	1328.119	1002.302
66.505	13.195	1326.357	1001.282
67.520	13.173	1325.025	1000.053
68.534	13.140	1324.601	999.444
69.549	13.179	1323.721	998.926
70.563	13.252	1322.100	998.057
71.578	13.031	1321.161	995.926
72.593	13.035	1320.472	995.343
73.607	13.028	1319.877	994.762
74.622	12.910	1318.702	993.082
75.636	13.056	1317.852	993.230
76.651	12.949	1317.407	992.165
77.666	13.002	1316.952	992.048
78.680	13.039	1316.117	991.555
79.695	12.983	1315.565	990.720
80.709	13.052	1314.876	990.527
81.724	13.104	1313.909	990.018
82.739	13.124	1313.108	989.450
83.753	13.231	1311.969	989.143
84.768	13.282	1310.841	988.511
85.782	13.340	1309.749	987.948
86.797	13.343	1308.426	986.876
87.812	13.228	1307.427	985.353
88.826	13.271	1306.241	984.627
89.841	13.333	1304.826	983.843
90.855	13.309	1304.230	983.162
91.870	13.303	1303.349	982.379
92.884	13.257	1302.871	981.659
93.899	13.445	1301.610	981.734
94.914	13.361	1300.553	980.353
95.928	13.442	1299.944	980.284
96.943	13.467	1298.942	979.591
97.957	13.416	1298.210	978.650
98.972	13.360	1297.439	977.655
99.987	13.442	1295.888	976.884
101.001	13.297	1295.207	975.424
102.016	13.307	1294.521	974.881
103.030	13.323	1293.450	974.082
104.045	13.412	1292.686	973.948
105.060	13.392	1291.107	972.553
106.074	13.204	1290.097	970.599
107.089	13.203	1288.742	969.489
108.103	13.056	1287.966	967.957
109.118	13.134	1286.498	967.225
110.133	13.199	1284.726	966.188
111.147	13.281	1283.256	965.480
112.162	13.294	1282.035	964.549
113.176	13.207	1281.175	963.312
114.191	13.284	1280.283	963.002
115.206	13.203	1279.791	962.076
116.220	13.281	1278.340	961.355
117.235	13.269	1277.118	960.278
118.249	13.298	1275.995	959.519
119.264	13.267	1274.986	958.492
120.279	13.226	1273.689	957.197
121.293	13.263	1272.781	956.645
122.308	13.282	1271.649	955.816
123.322	13.142	1271.092	954.508
124.337	13.113	1270.048	953.472
125.352	13.198	1268.753	952.906
126.366	13.194	1267.759	952.052
127.381	13.146	1266.992	951.114
128.395	13.188	1265.833	950.401
129.410	13.175	1264.662	949.362
130.424	13.278	1263.969	949.348
131.439	13.329	1262.808	948.684
132.454	13.276	1261.776	947.522
133.468	13.285	1261.234	947.082
134.483	13.226	1260.275	945.941
135.497	13.168	1259.297	944.795
136.512	13.239	1257.746	943.953
137.527	13.335	1256.389	943.400
138.541	13.374	1254.702	942.270
139.556	13.280	1253.778	940.959
140.570	13.331	1252.910	940.515
141.585	13.392	1251.367	939.618
142.600	13.420	1250.520	939.057
143.614	13.435	1249.677	938.424
144.629	13.515	1248.278	937.747
145.643	13.290	1247.865	936.077
146.658	13.476	1245.908	935.578
147.673	13.318	1245.063	933.972
148.687	13.352	1243.278	932.740
149.702	13.282	1242.538	931.708
150.716	13.291	1241.748	931.085
151.731	13.333	1239.988	929.916
152.746	13.330	1238.688	928.844
153.760	13.453	1237.694	928.708
154.775	13.433	1236.531	927.637
155.789	13.481	1235.421	926.996
156.804	13.556	1234.080	926.325
157.819	13.537	1233.141	925.433
158.833	13.527	1232.725	924.982
159.848	13.529	1231.447	923.952
160.862	13.604	1230.536	923.603
161.877	13.505	1229.422	922.135
162.892	13.504	1228.407	921.288
163.906	13.436	1227.469	920.125
164.921	13.496	1226.325	919.519
165.935	13.479	1225.805	918.954
166.950	13.592	1224.866	918.796
167.964	13.619	1223.958	918.184
168.979	13.557	1223.799	917.638
169.994	13.625	1222.827	917.202
171.008	13.566	1221.696	915.951
172.023	13.571	1221.344	915.632
173.037	13.666	1220.571	915.497
174.052	13.685	1219.483	914.706
175.067	13.663	1218.294	913.606
176.081	13.707	1217.134	912.899
177.096	13.571	1217.016	911.983
178.110	13.616	1215.288	910.856
179.125	13.656	1214.004	910.034
180.140	13.725	1212.970	909.554
181.154	13.675	1212.050	908.509
182.169	13.705	1210.627	907.525
183.183	13.677	1209.433	906.398
184.198	13.718	1208.622	905.935
185.213	13.853	1207.215	905.535
186.227	13.827	1206.199	904.555
187.242	13.894	1205.041	903.968
188.256	13.924	1204.116	903.358
189.271	13.936	1203.282	902.718
190.286	13.815	1202.025	901.040
191.300	13.727	1201.172	899.842
192.315	13.671	1200.991	899.323
193.329	13.705	1200.285	898.898
194.344	13.712	1199.431	898.217
195.359	13.658	1199.721	898.060
196.373	13.853	1198.282	897.960
197.388	13.866	1197.952	897.705
198.402	13.828	1197.974	897.435
199.417	13.976	1196.821	897.290
200.432	14.059	1195.394	896.588
201.446	14.122	1194.480	896.163
202.461	14.059	1193.463	894.982
203.475	14.130	1192.664	894.688
204.490	14.069	1191.488	893.399
205.504	14.043	1190.637	892.540
206.519	13.925	1189.267	890.804
207.534	13.928	1188.025	889.809
208.548	13.997	1187.102	889.407
209.563	14.021	1186.294	888.852
210.577	14.096	1185.173	888.333
211.592	14.220	1184.428	888.361
212.607	14.080	1183.996	887.211
213.621	14.173	1183.114	886.969
214.636	14.093	1182.521	886.017
215.650	14.101	1181.491	885.213
216.665	14.183	1180.216	884.613
217.680	14.247	1179.322	884.201
218.694	14.220	1178.535	883.394
219.709	14.245	1177.874	882.952
220.723	14.342	1176.684	882.496
221.738	14.337	1176.028	881.898
222.753	14.286	1175.469	881.131
223.767	14.327	1175.001	880.919
224.782	14.526	1173.660	880.887
225.796	14.498	1173.254	880.358
226.811	14.476	1172.661	879.717
227.826	14.438	1172.186	879.084
228.840	14.336	1171.705	878.109
229.855	14.340	1171.190	877.663
230.869	14.383	1170.136	877.022
231.884	14.467	1169.097	876.607
232.899	14.405	1168.200	875.531
233.913	14.388	1167.761	875.040
234.928	14.328	1166.986	874.063
235.942	14.461	1165.929	873.890
236.957	14.433	1165.253	873.162
237.972	14.373	1164.682	872.344
238.986	14.311	1164.386	871.719
240.001	14.364	1163.468	871.234
241.015	14.426	1162.139	870.483
242.030	14.422	1161.847	870.168
243.045	14.409	1160.818	869.251
244.059	14.447	1160.288	868.974
245.074	14.496	1159.168	868.314
246.088	14.606	1158.458	868.278
247.103	14.548	1157.640	867.285
248.117	14.445	1157.011	866.203
249.132	14.624	1156.114	866.385
250.147	14.845	1155.313	866.856
251.161	14.707	1155.172	865.955
252.176	14.752	1154.280	865.442
253.190	14.793	1153.464	864.968
254.205	14.843	1153.032	864.827
255.220	14.835	1152.467	864.287
256.234	14.850	1151.547	863.594
257.249	14.928	1150.672	863.265
258.263	14.867	1150.414	862.679
259.278	14.987	1149.400	862.465
260.293	14.999	1148.791	861.990
261.307	14.973	1148.474	861.544
262.322	14.993	1148.193	861.360
263.336	15.165	1146.958	861.243
264.351	15.001	1146.818	860.217
265.366	15.131	1145.724	859.986
266.380	15.095	1145.307	859.414
267.395	15.061	1144.615	858.642
268.409	15.139	1143.407	858.060
269.424	14.927	1143.317	856.833
270.439	15.074	1142.133	856.622
271.453	15.150	1141.453	856.424
272.468	15.108	1140.403	855.343
273.482	15.125	1139.926	855.001
274.497	15.008	1139.820	854.248
275.512	15.003	1138.567	853.205
276.526	15.107	1138.126	853.329
277.541	15.051	1137.350	852.386
278.555	15.143	1136.867	852.418
279.570	15.118	1136.004	851.572
280.585	15.146	1135.268	851.086
281.599	15.261	1134.390	850.933
282.614	15.184	1133.429	849.748
283.628	15.316	1131.728	849.067
284.643	15.213	1131.037	847.953
285.657	15.313	1129.965	847.578
286.672	15.354	1129.167	847.112
287.687	15.202	1128.756	845.961
288.701	15.271	1127.978	845.650
289.716	15.314	1126.999	845.059
290.730	15.318	1126.564	844.678
291.745	15.301	1126.018	844.109
292.760	15.429	1125.132	844.011
293.774	15.420	1124.873	843.699
294.789	15.420	1123.934	842.918
295.803	15.387	1123.410	842.285
296.818	15.528	1122.353	842.127
297.833	15.464	1121.140	840.823
298.847	15.483	1120.869	840.639
299.862	15.482	1120.224	840.076
300.876	15.438	1119.577	839.297
301.891	15.505	1119.128	839.223
302.906	15.571	1118.268	838.831
303.920	15.602	1117.665	838.460
304.935	15.621	1116.761	837.803
305.949	15.651	1116.000	837.306
306.964	15.669	1115.651	837.060
307.979	15.678	1114.882	836.454
308.993	15.649	1114.221	835.738
310.008	15.688	1113.284	835.159
311.022	15.696	1112.770	834.736
312.037	15.714	1111.727	833.970
313.052	15.600	1111.128	832.880
314.066	15.677	1109.631	832.065
315.081	15.645	1108.835	831.239
316.095	15.637	1108.154	830.614
317.110	15.521	1108.001	829.854
318.125	15.650	1106.823	829.532
319.139	15.701	1106.151	829.210
320.154	15.698	1105.518	828.644
321.168	15.714	1104.718	828.049
322.183	15.780	1103.942	827.722
323.197	15.672	1103.693	826.930
324.212	15.765	1103.039	826.827
325.227	15.839	1102.760	826.907
326.241	15.645	1102.198	825.460
327.256	15.730	1101.260	825.099
328.270	15.700	1100.334	824.185
329.285	15.870	1099.020	823.962
330.300	15.735	1098.670	822.967
331.314	15.821	1097.588	822.501
332.329	15.853	1096.413	821.707
333.343	15.940	1094.928	820.946
334.358	15.843	1094.619	820.167
335.373	15.882	1094.353	820.086
336.387	15.953	1093.209	819.500
337.402	15.966	1092.160	818.703
338.416	15.963	1092.068	818.550
339.431	15.866	1092.002	817.957
340.446	16.062	1090.744	817.894
341.460	16.175	1089.810	817.667
342.475	16.149	1089.159	816.978
343.489	16.207	1088.321	816.559
344.504	16.081	1087.470	815.241
345.519	16.261	1086.139	815.037
346.533	16.274	1085.501	814.550
347.548	16.279	1084.846	814.011
348.562	16.161	1084.482	813.097
349.577	16.159	1083.735	812.457
350.592	16.304	1082.404	812.084
351.606	16.148	1081.981	810.942
352.621	16.187	1080.972	810.304
353.635	16.171	1080.575	809.859
354.650	16.178	1080.219	809.552
355.665	16.210	1079.043	808.753
356.679	16.169	1078.923	808.395
357.694	16.225	1078.301	808.124
358.708	16.390	1077.072	807.921
359.723	16.254	1076.769	806.971
360.738	16.353	1076.196	806.944
361.752	16.276	1075.778	806.195
362.767	16.408	1074.837	806.047
363.781	16.225	1074.895	805.146
364.796	16.351	1073.954	804.968
365.810	16.430	1073.353	804.825
366.825	16.517	1072.580	804.588
367.840	16.393	1072.696	804.015
368.854	16.624	1071.447	804.105
369.869	16.571	1070.691	803.212
370.883	16.531	1070.034	802.461
371.898	16.471	1069.231	801.501
372.913	16.464	1069.034	801.249
373.927	16.514	1068.434	800.965
374.942	16.532	1067.695	800.425
375.956	16.667	1066.913	800.410
376.971	16.620	1066.736	799.984
377.986	16.820	1065.934	800.255
379.000	16.743	1065.447	799.456
380.015	16.743	1064.664	798.796
381.029	16.815	1063.862	798.463
382.044	16.872	1063.366	798.291
383.059	16.758	1062.645	797.140
384.073	16.716	1061.769	796.216
385.088	16.710	1061.163	795.662
386.102	16.798	1060.323	795.377
387.117	16.761	1059.025	794.158
388.132	16.760	1057.940	793.272
389.146	16.756	1057.414	792.787
390.161	16.803	1056.685	792.388
391.175	16.799	1055.982	791.772
392.190	16.933	1055.164	791.716
393.205	17.018	1054.497	791.543
394.219	16.983	1053.802	790.788
395.234	16.953	1052.998	789.972
396.248	16.941	1051.827	788.970
397.263	16.877	1050.929	787.927
398.278	16.914	1050.160	787.456
399.292	16.793	1049.672	786.457
400.307	16.932	1048.857	786.424
401.321	16.875	1048.505	785.826
402.336	16.804	1048.143	785.153
403.350	16.888	1047.160	784.736
404.365	16.840	1046.462	783.922
405.380	16.990	1045.814	784.060
406.394	17.076	1045.004	783.781
407.409	16.963	1044.360	782.710
408.423	17.151	1043.296	782.707
409.438	17.150	1042.315	781.899
410.453	17.255	1042.023	782.095
411.467	17.156	1041.637	781.278
412.482	17.058	1041.293	780.500
413.496	17.206	1040.076	780.200
414.511	17.232	1039.480	779.802
415.526	17.255	1039.461	779.822
416.540	17.317	1038.697	779.468
417.555	17.383	1038.298	779.402
418.569	17.372	1037.731	778.854
419.584	17.217	1037.372	777.808
420.599	17.312	1036.897	777.815
421.613	104.975	1324.473	1476.234
422.628	96.259	1366.351	1476.344
