DTS Sentinel unit serial number:	SN413079Multiplexer serial number:	ORYXHardware model number:	OX4-SRSoftware version number:	ORYX F/W v4.00 Oryx Data Collector v3.7.2.0data status	okinstallation	princeton_trtdifferential loss correction	single-endedforward channel	channel 2reverse channel	N/Adate	2019/09/15time	09:27:34forward acquisition time	60.00reverse acquisition time	0.00gamma	496.2192k internal	0.2316k external	0.2316temperature offset calibration	1.0013default loss term (dB/km)	0.3790temperature slope calibration	1.0000multiplexer offset coefficient	1.0000multiplexer slope coefficient	1.0000fibre end	0.00T internal ref (°C)	33.67T ext. ref 1 (°C)	4.95T ext. ref 2 (°C)	30.25length (m)	temperature (°C)	Stokes	anti-Stokes-747.200	-22.974	0.107	-0.065
-746.185	-200.000	-0.002	0.045
-745.171	-41.639	0.229	-0.119
-744.156	-195.635	-0.200	-0.001
-743.142	383.419	0.085	0.176
-742.127	124.517	-0.167	0.213
-741.112	-200.000	-0.028	-0.223
-740.098	-200.000	-0.039	0.555
-739.083	-108.510	0.315	-0.069
-738.069	-50.794	-0.156	0.074
-737.054	-101.729	0.273	0.067
-736.039	39.312	-0.216	-0.196
-735.025	-200.000	-0.007	0.250
-734.010	-90.342	-0.149	0.044
-732.996	-141.350	0.065	0.007
-731.981	115.100	0.271	-0.334
-730.966	304.811	-0.177	-0.333
-729.952	800.000	-0.066	-0.210
-728.937	461.017	0.182	0.411
-727.923	800.000	0.035	-0.156
-726.908	800.000	-0.036	-0.114
-725.894	552.355	0.103	-0.250
-724.879	-85.267	0.204	-0.064
-723.864	-111.184	-0.285	-0.059
-722.850	-61.598	-0.083	0.035
-721.835	208.173	0.141	0.222
-720.821	138.071	-0.270	-0.358
-719.806	-200.000	-0.076	-0.378
-718.791	-157.055	0.185	-0.011
-717.777	-162.574	0.116	-0.006
-716.762	-23.180	0.296	-0.180
-715.748	-40.777	0.158	-0.083
-714.733	-145.033	-0.478	0.044
-713.718	800.000	-0.039	-0.139
-712.704	-114.056	0.069	-0.013
-711.689	-200.000	-0.035	-0.207
-710.675	-57.862	-0.227	-0.100
-709.660	21.129	-0.083	-0.068
-708.645	322.715	0.045	-0.088
-707.631	-200.000	-0.015	-0.119
-706.616	783.687	-0.062	-0.171
-705.602	100.420	-0.044	-0.052
-704.587	-200.000	-0.002	0.165
-703.572	63.053	-0.163	0.165
-702.558	-200.000	0.007	-0.054
-701.543	-39.222	0.050	-0.027
-700.529	12.242	-0.071	-0.056
-699.514	800.000	-0.066	0.212
-698.499	-169.987	0.371	0.013
-697.485	-129.239	0.188	0.027
-696.470	-104.919	0.167	-0.039
-695.456	241.363	0.094	-0.158
-694.441	-200.000	-0.013	0.092
-693.426	-128.422	-0.308	0.044
-692.412	-69.479	0.109	-0.042
-691.397	456.347	-0.055	-0.123
-690.383	71.825	0.050	-0.053
-689.368	355.996	-0.058	0.118
-688.354	-149.854	-0.139	0.011
-687.339	335.800	0.212	0.415
-686.324	800.000	-0.095	-0.293
-685.310	-200.000	0.010	0.339
-684.295	588.168	0.121	0.300
-683.281	39.171	-0.439	-0.396
-682.266	-200.000	0.031	0.413
-681.251	-41.637	-0.240	-0.125
-680.237	-116.455	0.131	-0.024
-679.222	17.225	0.160	-0.128
-678.208	-127.763	0.055	0.008
-677.193	136.126	-0.126	-0.166
-676.178	800.000	-0.057	-0.239
-675.164	-47.850	-0.474	-0.232
-674.149	182.488	0.212	0.316
-673.135	547.337	-0.071	0.172
-672.120	800.000	-0.100	0.309
-671.105	277.809	0.100	0.179
-670.091	-66.860	0.011	0.004
-669.076	71.672	-0.105	-0.110
-668.062	-31.621	-0.251	-0.142
-667.047	108.723	0.216	-0.261
-666.032	444.282	-0.063	-0.139
-665.018	665.897	-0.098	0.257
-664.003	-60.810	0.431	0.184
-662.989	-200.000	0.029	0.208
-661.974	-13.645	-0.217	-0.142
-660.959	370.341	0.088	-0.180
-659.945	33.032	0.212	0.186
-658.930	-200.000	-0.012	-0.421
-657.916	722.067	-0.134	-0.359
-656.901	-200.000	-0.013	-0.169
-655.886	629.334	0.121	-0.308
-654.872	-200.000	0.009	-0.168
-653.857	-81.209	0.324	0.108
-652.843	38.588	-0.051	-0.046
-651.828	25.758	-0.185	-0.155
-650.814	-200.000	-0.010	0.070
-649.799	-50.871	-0.155	-0.074
-648.784	-149.017	-0.212	-0.017
-647.770	286.175	0.130	0.236
-646.755	-69.813	-0.286	0.110
-645.741	148.027	0.137	-0.186
-644.726	-200.000	-0.002	0.017
-643.711	-61.813	-0.208	-0.088
-642.697	186.268	-0.224	0.336
-641.682	649.055	-0.033	-0.084
-640.668	-13.131	0.138	-0.090
-639.653	264.465	-0.088	-0.155
-638.638	-59.876	-0.045	0.020
-637.624	73.144	0.146	0.154
-636.609	-200.000	-0.009	0.110
-635.595	372.242	-0.089	-0.182
-634.580	241.140	0.180	-0.304
-633.565	-25.404	-0.183	-0.109
-632.551	800.000	-0.047	-0.151
-631.536	366.884	-0.195	-0.398
-630.522	172.454	0.141	-0.205
-629.507	-200.000	-0.012	0.084
-628.492	-1.209	-0.103	0.073
-627.478	-168.563	-0.128	0.005
-626.463	-68.677	-0.036	0.014
-625.449	-64.468	0.333	0.136
-624.434	-81.673	-0.246	-0.081
-623.419	-200.000	-0.000	0.290
-622.405	-92.232	-0.123	-0.035
-621.390	-200.000	0.036	0.166
-620.376	-6.621	0.098	-0.067
-619.361	-200.000	-0.031	0.316
-618.346	-200.000	0.028	-0.350
-617.332	800.000	0.086	-0.261
-616.317	78.504	-0.341	0.368
-615.303	-61.623	-0.281	0.119
-614.288	-200.000	0.028	-0.187
-613.273	-32.647	-0.374	-0.210
-612.259	271.662	-0.025	-0.044
-611.244	17.402	-0.180	0.144
-610.230	800.000	-0.069	-0.264
-609.215	-38.208	-0.159	-0.085
-608.201	-200.000	0.005	0.038
-607.186	21.716	0.156	-0.128
-606.171	54.177	0.125	-0.121
-605.157	-200.000	-0.022	-0.163
-604.142	-111.802	-0.230	0.047
-603.128	-200.000	0.099	-0.462
-602.113	45.879	-0.026	0.024
-601.098	65.310	0.050	-0.051
-600.084	-41.371	0.163	0.085
-599.069	153.448	0.228	0.314
-598.055	-14.210	0.071	-0.046
-597.040	-117.930	0.146	0.026
-596.025	-6.581	-0.381	-0.261
-595.011	-137.120	0.282	0.032
-593.996	-120.535	0.134	0.023
-592.982	177.360	-0.174	0.255
-591.967	-200.000	-0.003	0.334
-590.952	53.344	0.112	0.108
-589.938	-29.100	0.196	0.113
-588.923	-102.227	0.542	0.131
-587.909	-200.000	0.021	0.106
-586.894	-111.521	-0.406	-0.083
-585.879	17.624	0.201	-0.161
-584.865	-38.468	-0.088	-0.047
-583.850	-45.811	0.047	0.023
-582.836	225.008	-0.220	-0.359
-581.821	315.643	-0.012	0.023
-580.806	-100.501	0.104	0.026
-579.792	800.000	-0.067	-0.260
-578.777	-83.912	-0.326	-0.104
-577.763	-178.228	0.220	0.005
-576.748	220.419	-0.129	0.208
-575.733	-200.000	-0.006	0.286
-574.719	-114.244	0.130	0.025
-573.704	1.754	0.134	0.097
-572.690	234.993	0.125	0.207
-571.675	800.000	-0.122	-0.367
-570.661	-200.000	0.118	0.671
-569.646	-200.000	-0.061	-0.280
-568.631	153.698	0.297	-0.409
-567.617	22.750	0.210	0.173
-566.602	372.367	0.057	-0.117
-565.588	-62.713	-0.258	0.108
-564.573	-137.229	-0.425	-0.049
-563.558	64.689	0.063	0.064
-562.544	279.079	0.142	0.254
-561.529	-55.973	0.170	-0.076
-560.515	-106.280	-0.405	-0.091
-559.500	-139.263	0.089	-0.010
-558.485	-20.352	-0.338	-0.209
-557.471	556.308	0.058	-0.140
-556.456	-83.555	-0.071	0.023
-555.442	-82.226	0.145	-0.047
-554.427	-11.153	-0.172	-0.114
-553.412	-7.418	0.141	-0.096
-552.398	-200.000	0.003	-0.232
-551.383	417.412	0.031	0.066
-550.369	-29.101	0.175	-0.101
-549.354	71.349	0.145	-0.151
-548.339	-96.077	0.349	-0.093
-547.325	800.000	-0.030	0.129
-546.310	800.000	-0.027	-0.096
-545.296	-59.796	0.457	-0.197
-544.281	-200.000	0.023	0.119
-543.266	538.505	0.042	0.101
-542.252	649.761	-0.022	-0.057
-541.237	-200.000	0.007	-0.109
-540.223	-200.000	-0.001	0.207
-539.208	-41.308	0.218	0.113
-538.193	79.464	-0.124	0.133
-537.179	-26.399	-0.070	-0.042
-536.164	506.864	0.023	0.054
-535.150	171.210	-0.227	0.328
-534.135	-121.338	0.302	-0.051
-533.121	-168.068	0.262	0.010
-532.106	27.333	-0.216	-0.183
-531.091	59.684	-0.231	0.229
-530.077	743.755	0.106	0.287
-529.062	-200.000	0.057	0.323
-528.048	-200.000	-0.006	-0.075
-527.033	598.435	0.125	-0.311
-526.018	-103.286	0.206	-0.049
-525.004	800.000	-0.084	-0.234
-523.989	123.048	0.186	-0.233
-522.975	145.818	0.138	-0.185
-521.960	-200.000	-0.006	0.123
-520.945	89.335	0.252	-0.282
-519.931	64.900	-0.216	0.219
-518.916	-43.092	0.362	0.184
-517.902	-77.695	-0.173	-0.060
-516.887	-58.420	-0.106	0.046
-515.872	-37.939	-0.282	0.150
-514.858	222.805	-0.181	0.293
-513.843	29.600	-0.144	-0.123
-512.829	42.910	-0.059	0.054
-511.814	186.937	-0.099	0.148
-510.799	-51.858	0.180	-0.084
-509.785	-88.723	0.123	0.037
-508.770	-5.359	-0.056	-0.039
-507.756	539.385	-0.033	-0.078
-506.741	-99.442	0.166	-0.042
-505.726	-157.191	-0.137	0.008
-504.712	-200.000	0.025	0.197
-503.697	-200.000	0.029	-0.195
-502.683	-1.164	-0.239	0.169
-501.668	-56.744	0.047	0.021
-500.653	-200.000	-0.014	0.232
-499.639	-15.347	-0.071	0.045
-498.624	61.052	0.315	-0.313
-497.610	-200.000	-0.004	0.122
-496.595	-87.334	0.428	-0.130
-495.581	-200.000	-0.001	-0.022
-494.566	38.926	-0.102	-0.091
-493.551	-112.299	0.322	-0.065
-492.537	-130.812	-0.137	0.018
-491.522	-200.000	-0.016	-0.117
-490.508	-200.000	0.028	0.244
-489.493	114.850	-0.130	-0.159
-488.478	540.582	-0.138	0.329
-487.464	-114.995	0.157	0.030
-486.449	-76.892	-0.334	0.117
-485.435	-158.363	0.392	0.023
-484.420	66.349	0.281	0.286
-483.405	243.697	-0.070	-0.118
-482.391	800.000	0.023	-0.075
-481.376	55.404	0.165	0.160
-480.362	-200.000	0.027	-0.242
-479.347	-36.247	-0.067	0.036
-478.332	-73.609	0.241	-0.088
-477.318	-166.269	0.168	-0.007
-476.303	87.828	-0.112	-0.125
-475.289	-122.730	0.310	-0.050
-474.274	-90.673	-0.171	0.050
-473.259	-200.000	-0.072	-0.456
-472.245	-200.000	-0.176	0.001
-471.230	-145.073	0.614	-0.056
-470.216	-87.131	-0.199	0.061
-469.201	363.545	0.172	0.346
-468.186	-53.920	-0.273	0.125
-467.172	-87.669	0.395	0.119
-466.157	-77.764	-0.130	0.045
-465.143	-149.228	-0.187	-0.015
-464.128	800.000	0.065	-0.249
-463.113	61.476	0.030	-0.030
-462.099	-200.000	-0.048	-0.454
-461.084	63.873	0.167	0.168
-460.070	311.474	0.209	-0.393
-459.055	162.049	0.146	-0.204
-458.040	85.297	-0.181	0.199
-457.026	-130.278	-0.227	0.031
-456.011	-60.351	-0.165	0.070
-454.997	697.270	-0.040	0.106
-453.982	-72.089	0.049	-0.018
-452.968	56.557	-0.369	-0.360
-451.953	-200.000	-0.007	-0.158
-450.938	-62.608	0.242	-0.101
-449.924	181.856	0.085	0.125
-448.909	-90.872	0.396	-0.114
-447.895	394.588	0.076	-0.158
-446.880	138.126	0.216	-0.284
-445.865	200.042	-0.137	-0.211
-444.851	-46.017	-0.123	-0.060
-443.836	800.000	-0.147	-0.463
-442.822	-200.000	-0.030	-0.284
-441.807	20.663	0.187	0.151
-440.792	-125.424	-0.220	0.034
-439.778	-83.071	-0.429	0.138
-438.763	13.859	-0.234	-0.182
-437.749	-200.000	0.026	0.127
-436.734	-16.778	0.235	0.149
-435.719	-200.000	-0.027	-0.199
-434.705	-200.000	0.005	-0.083
-433.690	-200.000	0.014	0.074
-432.676	-129.876	0.185	0.025
-431.661	535.246	-0.064	-0.152
-430.646	-38.628	-0.104	0.055
-429.632	30.626	-0.168	0.144
-428.617	512.930	-0.038	0.089
-427.603	-180.765	-0.101	-0.002
-426.588	800.000	-0.037	-0.142
-425.573	-100.947	0.201	0.049
-424.559	800.000	-0.074	-0.216
-423.544	621.980	-0.086	-0.218
-422.530	800.000	0.034	-0.097
-421.515	46.333	0.254	-0.236
-420.500	2.314	0.341	0.246
-419.486	-114.142	-0.280	0.054
-418.471	-132.060	0.156	0.020
-417.457	-23.887	-0.291	0.174
-416.442	800.000	0.016	-0.066
-415.428	93.917	0.170	0.193
-414.413	-132.011	-0.246	-0.032
-413.398	-68.236	0.215	0.084
-412.384	186.611	-0.213	-0.317
-411.369	210.544	-0.155	-0.243
-410.355	-127.937	-0.174	0.025
-409.340	-30.204	0.129	0.073
-408.325	201.657	0.049	0.076
-407.311	117.238	0.202	-0.249
-406.296	-127.216	-0.061	-0.009
-405.282	-59.824	-0.178	0.076
-404.267	488.196	-0.037	0.084
-403.252	-200.000	0.004	-0.027
-402.238	-200.000	0.005	-0.074
-401.223	250.785	-0.108	-0.184
-400.209	-176.141	0.230	-0.006
-399.194	-200.000	-0.001	0.148
-398.179	21.569	-0.138	-0.113
-397.165	102.401	0.176	-0.205
-396.150	-189.995	-0.156	-0.002
-395.136	-127.944	0.312	-0.045
-394.121	97.226	0.135	-0.155
-393.106	-79.339	0.143	0.048
-392.092	-150.959	-0.183	0.014
-391.077	19.035	0.191	-0.153
-390.063	242.648	-0.116	0.194
-389.048	170.196	0.108	0.155
-388.033	-200.000	-0.014	0.119
-387.019	572.122	0.110	0.268
-386.004	-200.000	-0.003	-0.040
-384.990	-96.550	-0.032	-0.008
-383.975	-17.370	0.237	0.149
-382.960	203.409	-0.080	0.123
-381.946	84.215	-0.147	0.161
-380.931	-187.373	0.012	0.000
-379.917	800.000	-0.068	0.280
-378.902	524.067	0.148	0.347
-377.888	-39.700	0.227	0.118
-376.873	193.998	0.179	0.271
-375.858	198.433	-0.106	0.162
-374.844	66.762	0.187	0.190
-373.829	-145.637	0.038	0.003
-372.815	800.000	-0.051	0.210
-371.800	88.079	-0.143	0.159
-370.785	-200.000	0.005	-0.189
-369.771	-200.000	-0.003	0.023
-368.756	412.839	-0.074	-0.157
-367.742	-16.566	0.518	-0.327
-366.727	-114.236	-0.238	-0.046
-365.712	-123.685	-0.254	0.040
-364.698	-127.655	0.189	-0.027
-363.683	73.947	0.272	0.284
-362.669	320.150	0.137	0.260
-361.654	715.110	-0.146	0.386
-360.639	800.000	0.128	-0.367
-359.625	41.044	0.429	0.387
-358.610	-125.781	-0.074	-0.011
-357.596	-14.857	0.219	-0.140
-356.581	373.497	0.123	0.250
-355.566	-200.000	-0.003	0.242
-354.552	9.522	-0.262	0.198
-353.537	73.308	-0.149	0.156
-352.523	-34.500	0.280	0.153
-351.508	-69.328	0.079	-0.030
-350.493	-85.476	-0.104	0.032
-349.479	107.892	-0.305	-0.363
-348.464	322.601	0.111	0.210
-347.450	-200.000	0.010	0.202
-346.435	-185.495	-0.088	0.001
-345.420	-60.331	-0.307	-0.130
-344.406	800.000	-0.054	0.149
-343.391	328.354	0.148	-0.284
-342.377	-111.627	-0.342	0.069
-341.362	-93.438	-0.235	-0.065
-340.348	-200.000	-0.003	-0.499
-339.333	207.412	0.096	-0.150
-338.318	-161.843	-0.311	0.016
-337.304	117.504	-0.254	0.312
-336.289	-130.576	-0.255	-0.034
-335.275	-94.015	-0.144	-0.039
-334.260	-11.450	-0.027	0.018
-333.245	-68.959	0.371	-0.142
-332.231	-134.310	0.229	-0.028
-331.216	-34.623	0.294	0.160
-330.202	-116.203	-0.355	-0.066
-329.187	-21.190	-0.210	0.128
-328.172	800.000	-0.018	-0.050
-327.158	58.068	0.058	0.057
-326.143	598.468	0.107	0.265
-325.129	-200.000	0.019	-0.160
-324.114	19.263	-0.227	-0.182
-323.099	-164.879	-0.312	-0.014
-322.085	-102.441	0.143	-0.034
-321.070	-25.658	-0.297	-0.174
-320.056	-173.276	-0.176	0.005
-319.041	-200.000	0.017	-0.260
-318.026	298.147	0.134	-0.246
-317.012	-59.688	0.038	-0.016
-315.997	81.939	-0.197	0.213
-314.983	-156.429	-0.534	-0.033
-313.968	-22.349	-0.258	-0.156
-312.953	5.215	-0.261	-0.191
-311.939	3.077	-0.308	0.223
-310.924	-78.085	-0.121	-0.041
-309.910	-83.164	0.159	-0.051
-308.895	800.000	0.075	-0.266
-307.880	-84.721	0.207	0.065
-306.866	-200.000	0.038	0.171
-305.851	221.923	-0.105	-0.169
-304.837	-18.213	-0.142	0.089
-303.822	-68.211	0.338	-0.131
-302.807	-200.000	-0.001	0.066
-301.793	396.924	-0.072	-0.150
-300.778	-190.307	-0.161	-0.002
-299.764	26.222	-0.059	-0.049
-298.749	-135.695	0.238	0.028
-297.735	183.227	-0.117	0.172
-296.720	105.779	-0.108	-0.128
-295.705	-51.363	0.277	-0.129
-294.691	-32.548	0.150	0.083
-293.676	800.000	-0.061	0.262
-292.662	-142.936	-0.129	0.012
-291.647	-200.000	-0.025	-0.220
-290.632	364.666	-0.138	0.276
-289.618	730.880	-0.129	0.342
-288.603	65.803	0.046	0.046
-287.589	734.237	0.073	-0.195
-286.574	-32.142	-0.036	-0.020
-285.559	-158.605	0.259	-0.015
-284.545	465.606	-0.133	0.296
-283.530	106.306	0.074	0.087
-282.516	-141.654	0.090	-0.009
-281.501	-96.335	-0.173	0.046
-280.486	159.968	0.061	0.085
-279.472	66.885	-0.093	0.094
-278.457	-132.717	0.156	-0.020
-277.443	103.032	0.062	0.072
-276.428	800.000	-0.080	0.312
-275.413	-200.000	0.006	0.250
-274.399	656.044	0.073	0.187
-273.384	-88.268	-0.132	-0.039
-272.370	-98.190	0.055	0.014
-271.355	-131.352	0.299	-0.039
-270.340	191.758	-0.107	-0.160
-269.326	436.267	-0.112	-0.242
-268.311	499.700	-0.065	0.149
-267.297	-200.000	-0.016	0.095
-266.282	-153.502	-0.463	0.032
-265.267	341.841	0.202	0.392
-264.253	-69.395	0.308	0.117
-263.238	800.000	0.069	-0.232
-262.224	-76.818	0.328	-0.114
-261.209	-175.583	-0.232	0.006
-260.195	159.339	-0.117	0.161
-259.180	800.000	0.083	0.303
-258.165	-58.290	0.275	-0.119
-257.151	-200.000	0.001	0.082
-256.136	40.318	-0.152	-0.136
-255.122	-127.245	-0.290	-0.042
-254.107	800.000	-0.055	-0.187
-253.092	280.847	0.136	0.241
-252.078	-200.000	0.051	0.222
-251.063	89.581	0.122	-0.135
-250.049	-24.153	0.114	-0.067
-249.034	-5.124	0.071	-0.048
-248.019	800.000	0.085	0.321
-247.005	-27.156	0.278	-0.161
-245.990	591.922	-0.105	-0.257
-244.976	-200.000	-0.025	-0.166
-243.961	-125.184	-0.161	-0.024
-242.946	78.237	0.141	0.149
-241.932	-200.000	0.022	0.160
-240.917	58.725	-0.135	-0.131
-239.903	453.079	0.068	0.149
-238.888	-103.634	0.099	0.023
-237.873	-200.000	0.036	-0.215
-236.859	3.347	0.248	-0.180
-235.844	-122.017	-0.150	0.024
-234.830	-168.503	-0.262	-0.010
-233.815	-34.845	-0.181	0.098
-232.800	490.812	0.133	-0.303
-231.786	59.111	-0.100	-0.098
-230.771	-79.852	0.277	-0.093
-229.757	12.074	0.240	0.183
-228.742	-162.897	0.132	0.006
-227.727	-128.494	-0.126	0.018
-226.713	-200.000	-0.018	-0.228
-225.698	297.031	-0.164	-0.299
-224.684	188.165	0.170	0.252
-223.669	578.282	-0.089	-0.215
-222.655	800.000	0.031	0.129
-221.640	109.144	0.277	-0.329
-220.625	143.171	0.208	0.275
-219.611	620.258	0.080	0.199
-218.596	91.415	-0.107	-0.120
-217.582	-200.000	-0.059	0.278
-216.567	0.866	-0.338	0.241
-215.552	570.659	0.072	0.175
-214.538	541.805	-0.036	0.085
-213.523	-68.260	0.180	0.069
-212.509	-155.017	-0.150	0.010
-211.494	-106.001	-0.219	0.049
-210.479	53.663	-0.208	-0.198
-209.465	-182.985	0.144	0.003
-208.450	440.406	-0.196	0.425
-207.436	38.449	-0.270	0.239
-206.421	-200.000	0.058	0.274
-205.406	800.000	0.025	0.073
-204.392	20.009	-0.161	0.128
-203.377	-200.000	0.003	0.058
-202.363	23.424	0.157	-0.128
-201.348	800.000	-0.146	0.437
-200.333	-170.307	-0.187	-0.007
-199.319	4.545	-0.087	-0.064
-198.304	40.434	0.294	-0.262
-197.290	668.876	-0.079	-0.203
-196.275	-168.390	0.113	-0.004
-195.260	781.245	0.057	-0.156
-194.246	-16.008	-0.246	-0.155
-193.231	269.146	0.135	0.235
-192.217	-82.299	-0.201	0.065
-191.202	132.886	0.201	-0.257
-190.187	26.940	0.098	0.082
-189.173	-118.118	-0.362	-0.064
-188.158	-112.513	0.353	0.070
-187.144	243.794	0.043	0.071
-186.129	119.048	0.220	0.270
-185.114	-15.791	0.220	-0.139
-184.100	13.359	0.428	-0.329
-183.085	-61.217	0.155	-0.065
-182.071	800.000	-0.060	-0.197
-181.056	178.013	-0.092	0.133
-180.042	76.183	-0.103	-0.108
-179.027	-55.135	0.106	0.047
-178.012	-200.000	-0.017	-0.077
-176.998	800.000	0.074	-0.263
-175.983	28.245	0.169	0.141
-174.969	-200.000	-0.008	0.064
-173.954	18.538	-0.050	-0.040
-172.939	-131.879	-0.122	-0.016
-171.925	-82.711	-0.224	-0.072
-170.910	-22.083	0.195	-0.117
-169.896	322.513	0.147	-0.278
-168.881	38.052	-0.307	-0.270
-167.866	-111.414	0.122	0.025
-166.852	200.850	0.063	0.096
-165.837	-111.597	-0.482	-0.097
-164.823	-13.011	0.148	0.095
-163.808	-60.235	-0.446	0.188
-162.793	438.755	-0.014	-0.030
-161.779	215.812	-0.208	0.327
-160.764	-112.944	0.563	-0.110
-159.750	-95.601	-0.241	0.064
-158.735	566.351	-0.089	0.213
-157.720	10.686	-0.122	-0.092
-156.706	-30.984	-0.123	-0.068
-155.691	-152.067	0.078	-0.006
-154.677	-125.672	0.231	-0.035
-153.662	163.117	-0.172	0.239
-152.647	-56.589	-0.084	-0.037
-151.633	-53.352	0.070	-0.032
-150.618	-50.458	-0.234	0.109
-149.604	58.132	0.151	-0.146
-148.589	67.008	0.169	-0.171
-147.574	-125.879	0.405	-0.060
-146.560	91.866	-0.252	0.281
-145.545	-109.542	0.312	-0.065
-144.531	34.118	0.220	0.190
-143.516	122.124	0.193	-0.238
-142.502	123.162	0.192	-0.238
-141.487	-200.000	-0.049	0.213
-140.472	-143.823	0.183	0.017
-139.458	-73.889	-0.064	-0.023
-138.443	244.441	-0.064	-0.106
-137.429	190.714	-0.188	-0.280
-136.414	-36.514	0.078	-0.042
-135.399	-158.699	0.146	-0.008
-134.385	14.269	0.172	0.132
-133.370	-200.000	-0.226	0.000
-132.356	-138.131	0.355	0.039
-131.341	534.849	0.234	-0.548
-130.326	6.246	-0.263	-0.193
-129.312	-200.000	-0.110	-0.503
-128.297	-153.673	0.149	0.010
-127.283	-55.282	0.120	-0.053
-126.268	800.000	-0.070	0.233
-125.253	4.654	-0.093	0.067
-124.239	800.000	-0.068	0.265
-123.224	-69.138	-0.342	-0.130
-122.210	263.359	0.107	-0.184
-121.195	670.468	0.101	0.259
-120.180	5.068	0.332	-0.242
-119.166	288.009	0.183	-0.327
-118.151	-200.000	0.009	0.046
-117.137	-32.892	-0.162	0.089
-116.122	53.997	-0.189	-0.179
-115.107	-83.441	0.092	-0.029
-114.093	-198.824	0.331	0.002
-113.078	85.604	-0.277	0.300
-112.064	69.213	-0.178	-0.181
-111.049	-112.025	0.279	-0.056
-110.034	170.994	0.089	-0.126
-109.020	800.000	-0.045	0.187
-108.005	-200.000	0.054	0.250
-106.991	163.332	0.189	0.262
-105.976	2.629	-0.360	0.258
-104.962	246.888	0.075	-0.125
-103.947	-113.710	0.211	0.041
-102.932	-199.063	-0.137	-0.001
-101.918	-85.130	-0.181	-0.056
-100.903	800.000	0.111	0.354
-99.889	-25.771	0.229	-0.133
-98.874	6.410	0.256	-0.188
-97.859	-139.353	0.332	0.035
-96.845	176.988	0.068	-0.098
-95.830	800.000	-0.106	-0.316
-94.816	800.000	0.058	0.225
-93.801	-49.966	-0.157	0.073
-92.786	800.000	0.005	-0.021
-91.772	-19.509	-0.125	0.076
-90.757	800.000	0.092	-0.281
-89.743	-200.000	0.011	-0.254
-88.728	-200.000	0.002	0.394
-87.713	-200.000	0.024	-0.124
-86.699	689.991	-0.127	0.329
-85.684	-156.245	0.228	0.014
-84.670	468.561	-0.097	-0.215
-83.655	256.341	0.145	-0.246
-82.640	800.000	0.090	-0.257
-81.626	426.398	0.168	-0.358
-80.611	97.859	-0.137	0.156
-79.597	-26.924	0.220	-0.127
-78.582	800.000	-0.073	-0.220
-77.567	-200.000	0.108	-0.550
-76.553	-148.761	0.106	0.008
-75.538	-155.824	-0.139	-0.009
-74.524	-13.100	0.362	0.232
-73.509	-200.000	0.006	-0.122
-72.494	800.000	0.097	-0.415
-71.480	30.011	0.098	0.083
-70.465	-138.287	-0.379	-0.041
-69.451	23.421	-0.162	0.131
-68.436	-200.000	0.059	-0.466
-67.422	-44.712	-0.153	-0.075
-66.407	6.774	0.149	-0.110
-65.392	-159.584	-0.301	0.016
-64.378	-4.639	0.365	0.249
-63.363	35.887	0.095	-0.082
-62.349	-200.000	0.038	0.275
-61.334	85.619	-0.847	-0.917
-60.319	-132.663	0.215	0.027
-59.305	-200.000	0.002	-0.842
-58.290	196.589	0.548	0.823
-57.276	504.787	0.719	1.641
-56.261	-200.000	97.785	581.862
-55.246	622.415	1418.162	3520.048
-54.232	183.697	2633.443	3839.210
-53.217	114.027	2314.774	2775.407
-52.203	43.031	1924.911	1730.727
-51.188	36.883	1712.372	1492.392
-50.173	34.064	1668.086	1432.547
-49.159	51.949	1716.596	1611.133
-48.144	54.890	1733.917	1649.749
-47.130	36.709	1689.881	1471.237
-46.115	33.701	1674.792	1435.334
-45.100	33.512	1670.028	1429.761
-44.086	33.438	1667.556	1427.034
-43.071	33.521	1664.966	1425.387
-42.057	33.533	1662.288	1423.124
-41.042	33.609	1659.815	1421.526
-40.027	33.528	1658.114	1419.404
-39.013	33.552	1656.221	1417.902
-37.998	33.513	1654.339	1415.946
-36.984	33.556	1653.189	1415.231
-35.969	33.673	1651.737	1414.804
-34.954	33.742	1650.007	1413.779
-33.940	33.664	1648.785	1412.093
-32.925	33.658	1646.664	1410.174
-31.911	33.664	1644.666	1408.456
-30.896	33.674	1642.839	1406.908
-29.881	33.642	1641.358	1405.347
-28.867	33.801	1638.840	1404.312
-27.852	33.704	1637.735	1402.592
-26.838	33.698	1636.438	1401.381
-25.823	33.758	1634.653	1400.238
-24.809	33.741	1633.747	1399.284
-23.794	33.711	1631.906	1397.431
-22.779	33.682	1630.838	1396.244
-21.765	33.658	1629.346	1394.735
-20.750	33.644	1627.551	1393.038
-19.736	33.779	1625.665	1392.360
-18.721	33.833	1623.787	1391.093
-17.706	33.639	1623.065	1388.998
-16.692	33.692	1621.308	1387.832
-15.677	33.550	1620.353	1385.920
-14.663	33.651	1618.593	1385.094
-13.648	33.728	1617.027	1384.263
-12.633	33.647	1615.718	1382.497
-11.619	33.685	1613.894	1381.157
-10.604	33.664	1612.265	1379.554
-9.590	33.687	1611.593	1379.093
-8.575	33.682	1610.490	1378.056
-7.560	33.699	1608.637	1376.542
-6.546	33.706	1607.425	1375.500
-5.531	33.707	1606.450	1374.621
-4.517	33.715	1605.440	1373.757
-3.502	33.698	1603.813	1372.186
-2.487	33.793	1602.849	1371.991
-1.473	33.592	1591.593	1360.867
-0.458	31.215	1572.988	1328.017
0.556	26.667	1573.176	1296.054
1.571	24.309	1597.336	1298.695
2.586	23.663	1610.509	1304.544
3.600	20.921	1556.867	1241.476
4.615	12.893	1446.904	1100.324
5.629	6.249	1382.784	1008.974
6.644	5.157	1374.650	995.990
7.659	4.947	1373.388	993.643
8.673	4.848	1372.111	992.006
9.688	4.848	1370.690	990.888
10.702	4.802	1367.446	988.160
11.717	7.944	1374.178	1012.957
12.731	15.511	1387.523	1071.136
13.746	19.459	1393.197	1100.661
14.761	18.657	1390.323	1093.183
15.775	17.477	1388.195	1083.908
16.790	16.468	1384.928	1074.847
17.804	15.725	1382.455	1068.112
18.819	15.201	1381.340	1063.834
19.834	14.911	1379.656	1060.601
20.848	14.625	1379.119	1058.282
21.863	14.375	1377.691	1055.507
22.877	14.286	1376.690	1054.084
23.892	14.332	1375.767	1053.577
24.907	14.162	1374.654	1051.554
25.921	14.322	1373.671	1051.721
26.936	14.303	1372.759	1050.813
27.950	14.323	1371.855	1050.150
28.965	14.395	1371.147	1049.970
29.980	14.427	1370.080	1049.264
30.994	14.556	1368.617	1048.861
32.009	14.639	1367.523	1048.450
33.023	14.491	1366.205	1046.419
34.038	14.447	1365.022	1045.141
35.053	14.460	1363.520	1043.982
36.067	14.544	1362.114	1043.341
37.082	14.469	1361.182	1042.065
38.096	14.475	1360.441	1041.439
39.111	14.556	1359.402	1041.062
40.126	14.450	1358.881	1039.909
41.140	14.203	1357.868	1037.497
42.155	14.216	1357.419	1037.145
43.169	14.236	1357.047	1036.897
44.184	14.186	1356.957	1036.425
45.199	14.164	1356.498	1035.847
46.213	14.314	1355.980	1036.292
47.228	14.399	1354.726	1035.769
48.242	14.360	1353.801	1034.726
49.257	14.392	1351.910	1033.392
50.271	14.308	1350.801	1031.928
51.286	14.450	1349.301	1031.569
52.301	14.447	1347.958	1030.432
53.315	14.355	1347.314	1029.284
54.330	14.256	1345.964	1027.552
55.344	14.293	1344.981	1026.935
56.359	14.269	1343.953	1025.910
57.374	14.173	1343.423	1024.825
58.388	14.074	1342.213	1023.203
59.403	14.167	1341.761	1023.340
60.417	14.176	1340.609	1022.428
61.432	14.187	1339.983	1021.924
62.447	14.102	1339.080	1020.622
63.461	14.051	1337.940	1019.355
64.476	14.117	1336.703	1018.727
65.490	14.046	1335.762	1017.480
66.505	14.034	1334.630	1016.454
67.520	14.213	1332.734	1016.013
68.534	14.201	1331.639	1015.020
69.549	14.068	1331.435	1013.963
70.563	14.173	1329.547	1013.077
71.578	14.061	1328.626	1011.603
72.593	14.072	1327.330	1010.594
73.607	13.972	1327.054	1009.684
74.622	13.881	1326.443	1008.580
75.636	14.015	1325.403	1008.508
76.651	13.963	1324.860	1007.692
77.666	14.068	1324.386	1007.877
78.680	14.031	1324.253	1007.463
79.695	13.950	1323.433	1006.260
80.709	14.093	1322.436	1006.280
81.724	14.237	1321.464	1006.320
82.739	14.283	1320.634	1005.877
83.753	14.260	1320.049	1005.207
84.768	14.474	1318.778	1005.438
85.782	14.409	1318.145	1004.475
86.797	14.395	1316.518	1003.062
87.812	14.384	1315.487	1002.119
88.826	14.434	1313.861	1001.092
89.841	14.313	1313.401	999.932
90.855	14.410	1312.197	999.504
91.870	14.409	1311.734	999.058
92.884	14.547	1310.263	998.673
93.899	14.548	1309.755	998.205
94.914	14.536	1309.233	997.651
95.928	14.561	1308.066	996.819
96.943	14.568	1306.980	995.944
97.957	14.520	1306.340	995.087
98.972	14.445	1305.526	993.927
99.987	14.384	1304.351	992.582
101.001	14.511	1302.788	992.060
102.016	14.394	1302.216	990.844
103.030	14.517	1301.291	990.781
104.045	14.527	1300.266	989.971
105.060	14.328	1299.312	987.980
106.074	14.269	1297.828	986.414
107.089	14.166	1296.643	984.815
108.103	14.159	1295.326	983.685
109.118	14.150	1293.803	982.392
110.133	14.185	1292.397	981.444
111.147	14.162	1291.075	980.216
112.162	14.256	1289.645	979.596
113.176	14.232	1289.295	979.101
114.191	14.262	1288.028	978.233
115.206	14.283	1286.722	977.275
116.220	14.316	1285.542	976.486
117.235	14.221	1284.549	975.089
118.249	14.218	1283.442	974.144
119.264	14.108	1282.830	972.951
120.279	14.111	1281.430	971.820
121.293	14.138	1280.380	971.095
122.308	14.204	1279.208	970.506
123.322	14.069	1278.645	969.204
124.337	14.108	1277.528	968.503
125.352	14.162	1276.107	967.655
126.366	14.106	1274.801	966.254
127.381	14.052	1274.104	965.323
128.395	14.104	1273.313	964.939
129.410	14.204	1272.201	964.589
130.424	14.213	1271.284	963.861
131.439	14.296	1270.613	963.751
132.454	14.268	1269.583	962.721
133.468	14.275	1268.896	962.153
134.483	14.295	1267.907	961.439
135.497	14.321	1267.029	960.833
136.512	14.208	1265.959	959.290
137.527	14.187	1264.540	958.008
138.541	14.350	1263.084	957.753
139.556	14.368	1261.849	956.838
140.570	14.406	1260.503	955.950
141.585	14.481	1259.302	955.383
142.600	14.483	1258.544	954.739
143.614	14.518	1257.716	954.227
144.629	14.613	1256.441	953.717
145.643	14.544	1255.531	952.545
146.658	14.454	1253.670	950.535
147.673	14.369	1252.517	949.093
148.687	14.421	1251.310	948.393
149.702	14.296	1250.057	946.646
150.716	14.259	1249.077	945.613
151.731	14.270	1247.549	944.435
152.746	14.411	1246.439	944.309
153.760	14.380	1244.830	942.832
154.775	14.470	1243.788	942.470
155.789	14.532	1243.057	942.183
156.804	14.502	1241.755	940.943
157.819	14.558	1240.916	940.539
158.833	14.543	1239.731	939.475
159.848	14.699	1239.259	939.910
160.862	14.641	1238.465	938.896
161.877	14.443	1237.069	936.645
162.892	14.461	1236.063	935.900
163.906	14.398	1235.358	934.930
164.921	14.475	1234.316	934.492
165.935	14.431	1233.881	933.830
166.950	14.533	1233.041	933.682
167.964	14.558	1231.719	932.742
168.979	14.537	1231.407	932.305
169.994	14.602	1230.216	931.682
171.008	14.525	1229.955	930.974
172.023	14.628	1228.729	930.537
173.037	14.652	1228.301	930.267
174.052	14.683	1227.420	929.690
175.067	14.612	1225.994	928.128
176.081	14.546	1225.208	927.087
177.096	14.487	1224.467	926.117
178.110	14.605	1223.362	925.852
179.125	14.604	1221.889	924.652
180.140	14.581	1220.812	923.624
181.154	14.630	1219.828	923.074
182.169	14.655	1218.535	922.148
183.183	14.708	1217.713	921.737
184.198	14.770	1216.439	921.034
185.213	14.738	1215.129	919.785
186.227	14.770	1214.077	919.084
187.242	14.721	1213.341	918.174
188.256	14.904	1212.050	918.121
189.271	14.855	1210.913	916.910
190.286	14.782	1209.959	915.706
191.300	14.665	1208.864	914.155
192.315	14.548	1208.245	912.967
193.329	14.621	1207.420	912.660
194.344	14.568	1207.004	911.978
195.359	14.698	1206.212	912.008
196.373	14.884	1205.793	912.626
197.388	14.860	1205.856	912.464
198.402	14.951	1205.576	912.668
199.417	15.070	1204.679	912.557
200.432	15.134	1203.577	911.991
201.446	15.154	1202.445	911.159
202.461	15.242	1201.624	910.935
203.475	15.203	1200.471	909.769
204.490	15.144	1199.384	908.542
205.504	15.048	1198.112	906.981
206.519	14.993	1197.206	905.915
207.534	14.990	1195.981	904.893
208.548	15.093	1194.581	904.309
209.563	15.066	1193.942	903.600
210.577	15.059	1193.159	902.889
211.592	15.130	1192.210	902.475
212.607	15.079	1192.103	902.037
213.621	15.197	1191.012	901.771
214.636	15.109	1190.034	900.473
215.650	15.025	1189.345	899.420
216.665	15.121	1187.862	898.737
217.680	15.253	1187.532	899.116
218.694	15.323	1186.238	898.434
219.709	15.243	1186.156	897.863
220.723	15.336	1184.857	897.296
221.738	15.375	1184.222	896.942
222.753	15.335	1183.348	895.990
223.767	15.326	1182.876	895.504
224.782	15.462	1181.937	895.441
225.796	15.499	1181.406	895.156
226.811	15.450	1180.760	894.327
227.826	15.405	1179.738	893.235
228.840	15.334	1179.463	892.570
229.855	15.416	1178.238	892.000
230.869	15.399	1177.515	891.280
231.884	15.367	1176.356	890.154
232.899	15.378	1175.811	889.724
233.913	15.377	1175.023	889.043
234.928	15.363	1174.302	888.346
235.942	15.206	1173.768	887.028
236.957	15.274	1172.689	886.496
237.972	15.353	1172.051	886.354
238.986	15.222	1171.547	885.200
240.001	15.265	1171.140	885.044
241.015	15.468	1169.583	884.856
242.030	15.443	1169.149	884.321
243.045	15.326	1168.922	883.451
244.059	15.475	1167.775	883.292
245.074	15.443	1166.889	882.374
246.088	15.520	1166.565	882.457
247.103	15.498	1165.518	881.473
248.117	15.538	1165.012	881.219
249.132	15.753	1164.247	881.691
250.147	15.756	1163.480	881.047
251.161	15.948	1162.345	881.113
252.176	15.943	1161.921	880.692
253.190	16.042	1161.154	880.547
254.205	15.911	1161.068	879.722
255.220	15.941	1160.402	879.293
256.234	15.881	1159.749	878.410
257.249	15.991	1158.958	878.304
258.263	16.008	1158.159	877.711
259.278	16.024	1157.584	877.281
260.293	16.019	1157.176	876.866
261.307	16.118	1156.310	876.650
262.322	15.935	1156.100	875.459
263.336	16.063	1155.254	875.409
264.351	16.046	1154.575	874.728
265.366	16.076	1153.842	874.252
266.380	16.090	1153.167	873.732
267.395	16.079	1152.305	872.946
268.409	16.098	1151.620	872.448
269.424	16.105	1150.891	871.854
270.439	16.119	1150.348	871.438
271.453	16.095	1149.816	870.835
272.468	16.062	1148.746	869.775
273.482	16.111	1147.952	869.352
274.497	16.092	1147.348	868.717
275.512	16.142	1146.484	868.246
276.526	16.086	1145.872	867.420
277.541	16.150	1145.261	867.205
278.555	16.139	1144.875	866.781
279.570	16.261	1143.938	866.622
280.585	16.311	1142.938	866.045
281.599	16.278	1142.020	865.103
282.614	16.204	1141.243	864.061
283.628	16.220	1140.052	863.163
284.643	16.235	1139.624	862.838
285.657	16.263	1138.409	861.987
286.672	16.296	1137.315	861.249
287.687	16.221	1136.768	860.374
288.701	16.284	1135.965	860.015
289.716	16.343	1134.917	859.444
290.730	16.317	1133.968	858.515
291.745	16.352	1133.486	858.255
292.760	16.371	1132.948	857.865
293.774	16.435	1132.600	857.854
294.789	16.456	1132.433	857.758
295.803	16.531	1131.536	857.385
296.818	16.422	1130.242	855.775
297.833	16.224	1129.907	854.440
298.847	16.372	1129.074	854.485
299.862	16.432	1128.034	853.924
300.876	16.431	1127.290	853.284
301.891	16.516	1126.760	853.236
302.906	16.537	1126.012	852.699
303.920	16.630	1125.346	852.585
304.935	16.676	1124.768	852.306
305.949	16.730	1124.189	852.065
306.964	16.814	1123.257	851.704
307.979	16.685	1122.838	850.664
308.993	16.681	1122.276	850.141
310.008	16.707	1121.660	849.730
311.022	16.826	1120.412	849.304
312.037	16.699	1119.711	848.061
313.052	16.787	1118.489	847.504
314.066	16.647	1117.522	845.995
315.081	16.549	1116.759	844.855
316.095	16.577	1116.280	844.557
317.110	16.591	1115.657	844.080
318.125	16.555	1115.185	843.468
319.139	16.593	1114.140	842.791
320.154	16.530	1114.045	842.334
321.168	16.609	1113.002	841.864
322.183	16.673	1112.187	841.492
323.197	16.650	1111.724	840.950
324.212	16.760	1111.201	841.024
325.227	16.720	1110.206	839.998
326.241	16.669	1109.953	839.484
327.256	16.640	1109.427	838.866
328.270	16.744	1107.849	838.113
329.285	16.708	1106.972	837.199
330.300	16.723	1106.227	836.636
331.314	16.844	1105.179	836.365
332.329	16.679	1104.274	834.790
333.343	16.758	1103.491	834.516
334.358	16.818	1102.745	834.173
335.373	16.890	1101.940	833.844
336.387	16.874	1101.371	833.264
337.402	16.897	1100.811	832.876
338.416	17.057	1099.769	832.799
339.431	17.026	1099.375	832.274
340.446	17.062	1098.687	831.856
341.460	17.132	1098.156	831.725
342.475	17.074	1097.393	830.791
343.489	17.085	1096.539	830.124
344.504	17.194	1095.736	829.977
345.519	17.269	1094.765	829.530
346.533	17.345	1093.883	829.159
347.548	17.281	1093.268	828.309
348.562	17.258	1092.214	827.326
349.577	17.156	1091.563	826.265
350.592	17.129	1090.522	825.273
351.606	17.202	1089.805	825.011
352.621	17.158	1089.024	824.130
353.635	17.154	1088.194	823.410
354.650	17.005	1088.100	822.546
355.665	17.152	1087.116	822.443
356.679	17.173	1086.564	822.053
357.694	17.215	1086.198	821.907
358.708	17.238	1085.534	821.439
359.723	17.217	1084.495	820.479
360.738	17.322	1083.938	820.496
361.752	17.225	1083.665	819.744
362.767	17.284	1083.076	819.510
363.781	17.280	1082.363	818.882
364.796	17.363	1081.845	818.817
365.810	17.430	1081.442	818.760
366.825	17.586	1080.492	818.722
367.840	17.536	1080.176	818.168
368.854	17.579	1079.709	817.950
369.869	17.578	1078.683	817.094
370.883	17.543	1077.632	816.058
371.898	17.568	1076.773	815.455
372.913	17.596	1076.313	815.168
373.927	17.542	1075.988	814.590
374.942	17.621	1075.856	814.798
375.956	17.565	1075.062	813.855
376.971	17.626	1074.528	813.672
377.986	17.576	1074.146	813.073
379.000	17.786	1073.364	813.410
380.015	17.758	1072.738	812.730
381.029	17.734	1072.215	812.147
382.044	17.728	1071.009	811.133
383.059	17.798	1070.848	811.273
384.073	17.869	1069.699	810.666
385.088	17.799	1069.020	809.748
386.102	17.740	1068.321	808.867
387.117	17.738	1067.092	807.856
388.132	17.696	1066.207	806.916
389.146	17.784	1065.314	806.586
390.161	17.665	1064.554	805.378
391.175	17.734	1063.858	805.101
392.190	17.738	1063.487	804.769
393.205	17.897	1062.458	804.670
394.219	17.782	1061.942	803.668
395.234	17.872	1060.647	803.036
396.248	17.882	1059.742	802.331
397.263	17.874	1058.709	801.441
398.278	17.790	1058.130	800.537
399.292	17.777	1057.557	799.971
400.307	17.727	1056.703	799.021
401.321	17.838	1056.247	799.122
402.336	17.758	1055.692	798.258
403.350	17.821	1054.765	797.780
404.365	17.827	1054.217	797.324
405.380	17.901	1053.320	796.919
406.394	17.813	1052.585	795.885
407.409	17.935	1051.807	795.792
408.423	18.159	1051.259	796.354
409.438	18.205	1050.275	795.749
410.453	18.136	1050.000	795.151
411.467	18.301	1049.098	795.166
412.482	18.281	1048.567	794.599
413.496	18.260	1048.100	794.078
414.511	18.239	1047.450	793.417
415.526	18.241	1047.133	793.117
416.540	18.405	1046.435	793.276
417.555	18.252	1046.222	792.337
418.569	18.292	1045.591	791.972
419.584	18.396	1045.101	792.011
420.599	18.153	1044.790	790.583
421.613	147.870	1401.070	1791.731
422.628	135.316	1452.958	1791.827
