DTS Sentinel unit serial number:	SN413079Multiplexer serial number:	ORYXHardware model number:	OX4-SRSoftware version number:	ORYX F/W v4.00 Oryx Data Collector v3.7.2.0data status	okinstallation	princeton_trtdifferential loss correction	single-endedforward channel	channel 2reverse channel	N/Adate	2019/09/16time	04:19:35forward acquisition time	60.00reverse acquisition time	0.00gamma	496.2192k internal	0.2335k external	0.2335temperature offset calibration	0.9977default loss term (dB/km)	0.3790temperature slope calibration	1.0000multiplexer offset coefficient	1.0000multiplexer slope coefficient	1.0000fibre end	0.00T internal ref (°C)	27.31T ext. ref 1 (°C)	10.81T ext. ref 2 (°C)	21.39length (m)	temperature (°C)	Stokes	anti-Stokes-747.200	77.515	0.174	0.186
-746.185	59.258	-0.101	0.100
-745.171	-185.242	-0.022	0.000
-744.156	53.760	-0.106	0.103
-743.142	-85.590	-0.157	-0.049
-742.127	800.000	-0.057	0.200
-741.112	173.633	0.097	0.140
-740.098	11.407	0.169	0.130
-739.083	285.587	0.114	-0.206
-738.069	44.940	-0.338	0.313
-737.054	770.447	-0.084	-0.230
-736.039	15.663	-0.200	-0.158
-735.025	-148.243	0.170	-0.014
-734.010	800.000	-0.123	-0.406
-732.996	-40.002	-0.168	-0.088
-731.981	82.911	0.084	-0.092
-730.966	19.099	-0.107	0.086
-729.952	-17.239	-0.043	-0.027
-728.937	19.291	-0.068	-0.055
-727.923	89.329	-0.190	0.213
-726.908	216.128	-0.053	0.085
-725.894	-79.827	-0.194	-0.066
-724.879	-30.703	0.213	-0.121
-723.864	800.000	-0.110	0.338
-722.850	729.122	0.154	-0.414
-721.835	92.570	0.101	-0.114
-720.821	4.150	-0.234	-0.172
-719.806	5.442	-0.171	-0.127
-718.791	-190.548	-0.132	-0.001
-717.777	-200.000	-0.011	-0.255
-716.762	-146.376	-0.119	0.010
-715.748	633.519	-0.086	0.219
-714.733	-143.456	-0.196	-0.019
-713.718	800.000	0.129	-0.358
-712.704	-200.000	-0.022	-0.175
-711.689	142.765	0.050	-0.067
-710.675	-63.848	-0.162	-0.067
-709.660	103.106	0.132	-0.155
-708.645	800.000	-0.140	0.410
-707.631	-200.000	-0.008	-0.290
-706.616	93.892	-0.182	0.207
-705.602	119.752	0.162	0.201
-704.587	385.347	-0.098	0.202
-703.572	-96.303	0.324	0.086
-702.558	70.189	0.083	-0.086
-701.543	-59.135	-0.254	-0.110
-700.529	-200.000	0.014	-0.111
-699.514	266.731	-0.075	0.131
-698.499	-200.000	-0.007	0.182
-697.485	800.000	-0.026	-0.091
-696.470	-11.658	0.103	0.068
-695.456	-27.502	0.223	0.130
-694.441	-179.214	0.430	-0.010
-693.426	135.749	-0.095	-0.123
-692.412	-200.000	-0.028	-0.154
-691.397	-71.176	0.165	0.062
-690.383	104.833	0.320	0.378
-689.368	-100.163	0.180	0.045
-688.354	-200.000	0.016	-0.339
-687.339	-200.000	0.010	-0.132
-686.324	-200.000	-0.006	0.300
-685.310	294.279	0.079	-0.145
-684.295	443.724	-0.142	0.312
-683.281	800.000	0.021	-0.088
-682.266	-53.307	0.110	0.051
-681.251	-110.455	-0.283	0.059
-680.237	800.000	0.097	0.384
-679.222	24.314	-0.093	-0.077
-678.208	182.225	0.131	-0.193
-677.193	-200.000	0.005	-0.095
-676.178	131.743	0.126	-0.163
-675.164	800.000	0.048	-0.144
-674.149	171.110	-0.107	-0.154
-673.135	-1.918	0.139	0.098
-672.120	800.000	0.009	0.027
-671.105	-200.000	0.013	-0.171
-670.091	82.141	0.038	-0.041
-669.076	40.364	-0.276	0.249
-668.062	-86.277	-0.070	0.022
-667.047	-118.626	0.320	0.057
-666.032	-11.239	0.092	-0.061
-665.018	800.000	0.122	0.451
-664.003	-12.073	-0.120	0.079
-662.989	-71.022	-0.079	-0.030
-661.974	-200.000	0.024	-0.202
-660.959	-200.000	0.013	-0.092
-659.945	-200.000	0.016	-0.105
-658.930	-58.598	-0.326	-0.142
-657.916	-2.449	-0.339	-0.238
-656.901	203.213	-0.120	-0.186
-655.886	304.979	-0.135	0.251
-654.872	268.122	-0.191	-0.335
-653.857	72.131	-0.080	0.084
-652.843	-200.000	-0.056	0.330
-651.828	32.084	-0.069	0.060
-650.814	-200.000	0.012	0.064
-649.799	193.864	0.125	0.189
-648.784	45.087	-0.121	0.111
-647.770	-83.817	-0.244	0.078
-646.755	-74.586	0.051	-0.018
-645.741	-137.573	0.061	0.007
-644.726	-200.000	-0.012	-0.330
-643.711	-19.030	0.194	0.121
-642.697	197.354	0.100	-0.153
-641.682	-120.978	-0.333	-0.056
-640.668	-155.466	-0.413	0.027
-639.653	-71.149	0.432	0.163
-638.638	226.923	0.081	0.131
-637.624	798.525	-0.060	-0.164
-636.609	-52.409	-0.121	-0.056
-635.595	217.984	0.105	0.168
-634.580	-119.841	0.237	0.041
-633.565	-200.000	0.002	-0.162
-632.551	800.000	0.046	0.201
-631.536	358.839	0.095	-0.190
-630.522	16.035	-0.137	-0.108
-629.507	-98.847	-0.256	0.065
-628.492	-160.036	-0.261	0.014
-627.478	-154.577	-0.088	-0.006
-626.463	-88.181	-0.287	-0.086
-625.449	-102.543	0.262	-0.063
-624.434	-120.190	0.189	0.032
-623.419	-3.508	-0.303	0.211
-622.405	120.666	0.045	-0.056
-621.390	-200.000	-0.002	0.151
-620.376	-200.000	-0.035	0.241
-619.361	-148.485	-0.300	0.025
-618.346	-200.000	0.051	-0.247
-617.332	-155.940	-0.263	-0.017
-616.317	-130.066	0.140	-0.019
-615.303	-56.265	0.266	0.118
-614.288	132.981	0.024	0.030
-613.273	-200.000	0.010	-0.157
-612.259	-81.474	0.019	0.006
-611.244	32.456	0.036	-0.031
-610.230	-133.005	-0.267	0.034
-609.215	22.822	0.049	0.040
-608.201	-200.000	0.001	-0.127
-607.186	218.751	0.072	0.115
-606.171	6.114	-0.221	-0.164
-605.157	-200.000	0.058	0.258
-604.142	-43.920	-0.199	0.100
-603.128	-71.915	-0.317	-0.118
-602.113	200.540	0.216	0.331
-601.098	111.293	0.041	0.050
-600.084	-6.064	-0.241	-0.164
-599.069	-200.000	0.087	0.481
-598.055	-200.000	0.059	-0.284
-597.040	12.079	-0.041	-0.031
-596.025	-33.590	-0.274	-0.151
-595.011	366.945	0.047	0.094
-593.996	2.981	-0.042	-0.031
-592.982	46.095	-0.101	0.093
-591.967	-195.689	-0.471	-0.003
-590.952	128.458	-0.073	-0.093
-589.938	800.000	-0.068	0.209
-588.923	140.120	-0.145	0.192
-587.909	800.000	-0.052	0.157
-586.894	-10.887	-0.176	-0.116
-585.879	21.193	-0.245	0.198
-584.865	-200.000	-0.044	0.375
-583.850	-93.608	0.421	0.116
-582.836	242.602	0.097	-0.163
-581.821	-200.000	-0.004	0.119
-580.806	249.343	0.165	0.279
-579.792	-44.671	0.314	-0.157
-578.777	-72.279	0.387	-0.143
-577.763	-21.901	-0.090	-0.055
-576.748	28.227	-0.314	-0.265
-575.733	23.688	0.085	0.070
-574.719	207.139	0.153	-0.238
-573.704	114.203	-0.098	-0.119
-572.690	463.096	-0.085	-0.189
-571.675	-14.206	-0.232	-0.149
-570.661	-191.128	0.192	0.002
-569.646	54.108	-0.097	-0.093
-568.631	-62.392	0.268	-0.111
-567.617	12.805	0.228	0.176
-566.602	-116.597	0.283	-0.052
-565.588	-200.000	-0.012	-0.139
-564.573	-92.811	0.187	0.052
-563.558	800.000	0.031	0.086
-562.544	744.152	0.093	0.250
-561.529	42.090	0.121	0.110
-560.515	-103.016	-0.091	0.022
-559.500	-118.184	0.197	-0.035
-558.485	-200.000	-0.020	0.129
-557.471	169.410	0.152	-0.216
-556.456	-106.722	0.207	0.046
-555.442	-73.484	0.370	0.135
-554.427	288.203	-0.177	0.319
-553.412	-200.000	0.025	-0.241
-552.398	463.061	-0.063	-0.141
-551.383	175.228	0.079	-0.114
-550.369	-114.553	-0.131	0.025
-549.354	48.715	-0.124	-0.116
-548.339	800.000	0.083	-0.265
-547.325	-122.375	-0.361	-0.059
-546.310	-84.265	0.168	-0.053
-545.296	126.991	-0.089	-0.113
-544.281	-92.077	-0.108	-0.031
-543.266	-200.000	-0.024	0.138
-542.252	-141.574	0.210	-0.021
-541.237	-78.205	0.191	-0.065
-540.223	83.426	0.139	0.151
-539.208	108.328	-0.130	-0.154
-538.193	165.679	-0.305	-0.430
-537.179	-46.140	0.137	-0.067
-536.164	-200.000	0.024	-0.117
-535.150	-144.527	0.147	0.014
-534.135	-200.000	-0.013	-0.335
-533.121	169.032	0.150	-0.214
-532.106	6.590	0.063	0.047
-531.091	-200.000	0.064	-0.298
-530.077	-200.000	0.027	0.278
-529.062	32.516	-0.100	-0.086
-528.048	-64.731	-0.252	-0.102
-527.033	211.537	0.067	0.105
-526.018	-56.485	-0.130	-0.058
-525.004	-76.935	0.205	0.072
-523.989	220.665	0.095	0.152
-522.975	-200.000	0.021	-0.283
-521.960	-69.787	0.080	-0.031
-520.945	361.406	-0.103	0.205
-519.931	-200.000	0.061	-0.661
-518.916	-69.524	0.414	-0.158
-517.902	-200.000	0.021	0.199
-516.887	800.000	-0.058	0.232
-515.872	-116.586	-0.196	0.036
-514.858	-85.972	-0.141	-0.043
-513.843	-121.743	-0.245	0.040
-512.829	-125.918	-0.176	0.026
-511.814	195.583	-0.158	-0.239
-510.799	-5.602	0.143	0.097
-509.785	137.343	-0.195	-0.254
-508.770	-45.061	0.304	-0.150
-507.756	-200.000	0.007	0.210
-506.741	-200.000	0.003	0.052
-505.726	-200.000	0.020	-0.357
-504.712	73.531	-0.066	0.069
-503.697	149.655	-0.161	0.217
-502.683	-56.005	-0.100	0.045
-501.668	41.132	0.109	-0.098
-500.653	-59.252	-0.036	0.016
-499.639	90.047	-0.273	0.304
-498.624	800.000	-0.037	0.128
-497.610	-200.000	-0.010	-0.055
-496.595	-2.910	-0.103	-0.072
-495.581	-104.329	0.261	-0.060
-494.566	15.629	-0.275	-0.215
-493.551	-200.000	0.007	0.188
-492.537	-10.630	-0.239	-0.158
-491.522	-52.641	0.189	-0.087
-490.508	68.052	-0.097	0.099
-489.493	663.718	0.020	-0.052
-488.478	-28.978	0.193	0.110
-487.464	-200.000	-0.043	0.365
-486.449	273.837	-0.037	0.064
-485.435	-88.496	-0.164	0.049
-484.420	125.815	0.307	0.386
-483.405	-136.069	0.394	-0.046
-482.391	-181.984	0.158	0.003
-481.376	-200.000	0.006	0.065
-480.362	308.537	-0.098	0.181
-479.347	-200.000	-0.013	-0.479
-478.332	-79.034	0.269	-0.091
-477.318	51.204	0.155	-0.146
-476.303	622.929	-0.105	-0.262
-475.289	-200.000	0.007	0.060
-474.274	-104.924	-0.202	-0.046
-473.259	-56.816	0.088	0.039
-472.245	-138.874	-0.262	0.028
-471.230	-200.000	0.051	0.256
-470.216	106.063	0.063	0.074
-469.201	-200.000	0.081	0.357
-468.186	222.950	0.101	-0.162
-467.172	290.386	-0.017	0.031
-466.157	-38.002	-0.133	0.070
-465.143	200.243	0.085	-0.129
-464.128	800.000	0.065	-0.221
-463.113	-141.245	-0.371	0.038
-462.099	-84.358	0.103	0.033
-461.084	800.000	0.136	-0.499
-460.070	185.000	0.096	0.141
-459.055	75.743	0.103	0.108
-458.040	31.907	0.100	-0.085
-457.026	84.361	0.155	0.169
-456.011	12.367	-0.315	-0.241
-454.997	-200.000	0.033	-0.168
-453.982	-41.699	-0.173	-0.088
-452.968	246.140	-0.179	-0.299
-451.953	-200.000	-0.033	0.220
-450.938	-87.560	-0.450	-0.135
-449.924	-142.918	-0.094	-0.009
-448.909	-200.000	0.012	-0.476
-447.895	-124.416	0.099	-0.015
-446.880	220.914	0.118	-0.188
-445.865	-137.940	-0.264	-0.029
-444.851	-120.161	0.291	-0.050
-443.836	-200.000	0.043	0.337
-442.822	121.547	0.152	-0.189
-441.807	-86.862	-0.139	0.042
-440.792	-108.970	-0.264	0.056
-439.778	-74.959	0.208	0.074
-438.763	623.762	-0.128	-0.321
-437.749	-51.681	-0.087	-0.040
-436.734	22.011	-0.168	-0.136
-435.719	-200.000	-0.027	0.143
-434.705	53.319	0.260	0.248
-433.690	176.860	-0.291	0.420
-432.676	-25.428	0.332	-0.195
-431.661	-200.000	-0.049	-0.306
-430.646	17.375	0.177	-0.139
-429.632	370.238	-0.048	-0.097
-428.617	-200.000	-0.008	0.102
-427.603	-18.294	0.191	-0.118
-426.588	-200.000	-0.014	0.293
-425.573	233.295	0.125	0.205
-424.559	-171.850	-0.345	0.011
-423.544	-110.888	-0.183	0.037
-422.530	136.731	0.112	0.145
-421.515	-165.433	0.386	0.017
-420.500	74.470	-0.138	0.144
-419.486	800.000	0.110	0.304
-418.471	204.695	-0.043	0.066
-417.457	-200.000	0.020	0.245
-416.442	514.115	0.137	-0.316
-415.428	386.044	0.057	-0.116
-414.413	-13.613	-0.217	0.140
-413.398	-200.000	0.006	-0.148
-412.384	-145.380	0.212	-0.019
-411.369	142.756	0.225	-0.297
-410.355	-25.616	-0.127	0.074
-409.340	-200.000	-0.025	0.180
-408.325	-98.271	-0.467	0.119
-407.311	0.564	-0.074	-0.053
-406.296	-200.000	-0.030	-0.170
-405.282	24.875	-0.118	0.097
-404.267	800.000	0.033	0.102
-403.252	-108.219	0.160	-0.034
-402.238	-73.414	-0.147	-0.053
-401.223	332.643	0.096	-0.183
-400.209	-135.525	-0.114	0.013
-399.194	-82.353	-0.445	-0.143
-398.179	318.227	-0.157	-0.294
-397.165	242.310	0.118	0.196
-396.150	8.377	-0.062	0.046
-395.136	-200.000	-0.007	-0.086
-394.121	30.695	0.241	-0.205
-393.106	43.513	0.046	0.041
-392.092	-200.000	-0.002	0.151
-391.077	-190.453	0.318	0.003
-390.063	-200.000	0.050	0.457
-389.048	-200.000	0.013	0.148
-388.033	154.054	-0.199	-0.270
-387.019	258.828	-0.072	0.123
-386.004	25.949	-0.053	-0.044
-384.990	-33.064	0.015	0.008
-383.975	94.507	-0.110	-0.124
-382.960	235.816	-0.108	0.176
-381.946	-140.976	0.285	0.029
-380.931	465.905	-0.052	0.116
-379.917	71.521	-0.280	-0.288
-378.902	278.594	0.140	-0.247
-377.888	135.714	0.050	-0.065
-376.873	-43.856	0.437	-0.218
-375.858	361.401	0.067	-0.133
-374.844	-48.394	0.213	0.102
-373.829	-103.362	-0.300	-0.070
-372.815	800.000	-0.095	0.320
-371.800	-158.734	-0.302	-0.017
-370.785	-104.522	0.238	-0.054
-369.771	-200.000	0.012	0.236
-368.756	-16.766	0.296	0.185
-367.742	800.000	0.057	-0.242
-366.727	32.002	-0.123	0.105
-365.712	256.191	0.104	0.177
-364.698	-34.176	0.145	-0.079
-363.683	800.000	0.016	0.066
-362.669	262.741	0.131	-0.224
-361.654	-200.000	0.017	-0.308
-360.639	327.224	0.149	-0.284
-359.625	-200.000	0.012	0.426
-358.610	788.017	0.032	0.086
-357.596	55.358	-0.135	-0.130
-356.581	-24.683	0.211	0.124
-355.566	800.000	0.017	0.059
-354.552	-171.938	-0.304	-0.010
-353.537	-200.000	-0.003	-0.031
-352.523	-200.000	-0.033	0.154
-351.508	157.638	0.065	-0.089
-350.493	136.247	0.145	-0.187
-349.479	-53.382	-0.030	-0.014
-348.464	33.231	0.155	-0.133
-347.450	121.199	0.056	-0.069
-346.435	-35.357	-0.250	-0.134
-345.420	-11.840	-0.069	0.045
-344.406	18.361	0.158	-0.125
-343.391	105.731	0.183	0.214
-342.377	-200.000	0.060	-0.325
-341.362	-200.000	0.001	-0.052
-340.348	-52.165	-0.238	0.109
-339.333	88.183	-0.197	-0.216
-338.318	-91.087	0.213	-0.061
-337.304	631.013	-0.018	0.045
-336.289	169.847	0.068	0.096
-335.275	-91.816	-0.160	0.045
-334.260	295.544	0.172	0.312
-333.245	94.046	0.068	-0.077
-332.231	-200.000	0.039	-0.262
-331.216	-60.266	-0.044	-0.019
-330.202	-200.000	-0.030	0.165
-329.187	-200.000	-0.050	0.442
-328.172	-149.384	0.279	-0.022
-327.158	-99.443	-0.203	0.051
-326.143	-200.000	0.006	0.181
-325.129	-50.971	0.061	-0.028
-324.114	-108.790	0.091	0.019
-323.099	-116.054	-0.563	-0.104
-322.085	161.632	0.166	-0.229
-321.070	782.720	-0.092	-0.250
-320.056	103.063	-0.398	0.461
-319.041	43.593	-0.151	-0.136
-318.026	800.000	0.024	-0.093
-317.012	-25.089	0.217	0.127
-315.997	-143.567	-0.167	-0.016
-314.983	-200.000	0.006	-0.052
-313.968	140.510	-0.238	0.310
-312.953	132.909	0.308	0.393
-311.939	-134.260	0.013	-0.002
-310.924	167.500	0.204	0.286
-309.910	-14.567	-0.256	-0.163
-308.895	190.746	-0.243	0.361
-307.880	-200.000	-0.000	-0.207
-306.866	-73.792	0.211	0.076
-305.851	227.068	-0.009	-0.014
-304.837	-200.000	-0.002	0.025
-303.822	342.114	0.043	-0.083
-302.807	-94.938	0.154	0.041
-301.793	126.888	0.086	0.107
-300.778	-182.392	-0.119	-0.002
-299.764	-64.124	0.304	0.122
-298.749	-200.000	-0.027	-0.210
-297.735	800.000	0.035	-0.106
-296.720	-121.491	-0.333	0.055
-295.705	-6.372	0.095	-0.064
-294.691	43.530	-0.027	-0.024
-293.676	35.165	0.156	-0.135
-292.662	800.000	-0.053	0.197
-291.647	3.315	-0.186	0.134
-290.632	-49.632	0.108	0.051
-289.618	-153.614	0.222	0.015
-288.603	-44.960	-0.341	0.168
-287.589	-53.459	-0.095	-0.043
-286.574	-75.230	0.236	0.083
-285.559	143.292	-0.199	0.261
-284.545	800.000	-0.072	-0.247
-283.530	28.432	-0.119	0.099
-282.516	-109.466	0.121	0.025
-281.501	191.898	0.140	0.208
-280.486	751.856	0.113	-0.301
-279.472	-200.000	0.022	-0.184
-278.457	-44.274	0.177	0.088
-277.443	28.535	-0.093	0.078
-276.428	257.315	-0.138	0.234
-275.413	208.550	0.113	0.174
-274.399	362.884	0.110	0.217
-273.384	273.327	0.144	0.251
-272.370	-36.212	0.255	0.136
-271.355	-123.552	-0.308	0.048
-270.340	1.249	0.111	-0.079
-269.326	-200.000	-0.044	-0.235
-268.311	20.676	0.124	0.099
-267.297	469.873	0.087	-0.192
-266.282	132.789	0.115	0.146
-265.267	-39.859	-0.250	-0.129
-264.253	91.308	0.246	0.272
-263.238	150.167	0.185	0.248
-262.224	-200.000	0.071	-0.348
-261.209	298.245	0.160	0.290
-260.195	-200.000	-0.013	0.114
-259.180	40.182	0.094	0.083
-258.165	3.849	0.200	0.144
-257.151	800.000	0.067	0.237
-256.136	158.172	-0.222	-0.303
-255.122	-46.900	-0.390	-0.188
-254.107	-200.000	0.005	0.175
-253.092	-200.000	0.006	-0.187
-252.078	-163.893	0.202	-0.009
-251.063	230.114	-0.142	-0.228
-250.049	-200.000	0.014	-0.280
-249.034	-200.000	-0.061	0.407
-248.019	-200.000	-0.028	0.296
-247.005	9.099	0.185	0.138
-245.990	263.168	0.077	0.131
-244.976	4.891	-0.028	0.020
-243.961	249.636	0.164	-0.274
-242.946	191.045	0.092	-0.136
-241.932	800.000	0.053	0.220
-240.917	241.910	-0.134	0.221
-239.903	-6.376	0.175	-0.117
-238.888	-12.025	0.087	0.056
-237.873	-4.436	-0.111	-0.076
-236.859	-187.492	0.281	-0.004
-235.844	-200.000	0.049	-0.227
-234.830	159.281	0.059	0.081
-233.815	115.849	0.091	0.110
-232.800	62.048	-0.118	-0.115
-231.786	-133.445	0.086	0.011
-230.771	331.505	-0.115	0.219
-229.757	-200.000	-0.001	0.148
-228.742	-200.000	0.047	-0.307
-227.727	46.071	0.097	-0.089
-226.713	800.000	-0.042	-0.129
-225.698	-200.000	0.063	0.305
-224.684	800.000	-0.131	0.362
-223.669	-130.025	-0.222	0.030
-222.655	23.153	0.172	0.139
-221.640	74.018	0.143	0.147
-220.625	79.052	-0.185	-0.195
-219.611	160.757	0.087	0.120
-218.596	322.925	-0.055	0.104
-217.582	800.000	-0.045	0.184
-216.567	32.703	-0.241	-0.205
-215.552	-200.000	-0.034	-0.312
-214.538	-200.000	0.064	-0.281
-213.523	195.090	-0.158	-0.236
-212.509	-78.864	-0.065	-0.022
-211.494	-200.000	0.026	-0.455
-210.479	-166.361	-0.108	0.004
-209.465	800.000	0.093	0.344
-208.450	131.586	0.297	0.375
-207.436	158.964	-0.213	-0.291
-206.421	-70.136	0.157	0.059
-205.406	148.210	-0.175	-0.233
-204.392	5.351	-0.228	0.165
-203.377	-90.317	0.250	-0.071
-202.363	13.999	0.120	0.092
-201.348	-66.528	-0.379	-0.148
-200.333	-200.000	0.039	-0.233
-199.319	-154.476	-0.236	-0.016
-198.304	-159.364	0.300	0.016
-197.290	-200.000	-0.021	0.110
-196.275	7.414	-0.360	0.265
-195.260	-200.000	-0.008	0.038
-194.246	-200.000	0.050	0.284
-193.231	800.000	-0.061	-0.167
-192.217	630.352	-0.184	-0.457
-191.202	-200.000	0.031	-0.176
-190.187	43.568	0.216	-0.195
-189.173	-200.000	-0.007	-0.188
-188.158	-163.753	-0.077	-0.004
-187.144	98.328	0.296	0.335
-186.129	758.146	0.091	0.243
-185.114	2.552	-0.206	0.146
-184.100	713.141	0.056	-0.145
-183.085	-78.363	0.134	-0.045
-182.071	-31.020	-0.121	-0.067
-181.056	-72.398	0.286	0.104
-180.042	-200.000	0.003	0.118
-179.027	6.070	-0.226	0.164
-178.012	-149.989	-0.118	0.009
-176.998	185.512	-0.102	0.149
-175.983	-58.232	-0.350	0.150
-174.969	3.926	-0.201	-0.144
-173.954	-23.923	-0.224	-0.132
-172.939	-200.000	-0.037	-0.399
-171.925	-200.000	0.048	-0.241
-170.910	-72.989	0.378	0.136
-169.896	472.901	-0.141	-0.311
-168.881	-174.217	0.158	0.005
-167.866	800.000	0.038	0.137
-166.852	-141.280	-0.213	0.021
-165.837	800.000	0.084	-0.272
-164.823	-40.524	-0.014	-0.007
-163.808	-122.906	0.167	0.026
-162.793	-200.000	0.022	0.217
-161.779	67.365	0.215	0.215
-160.764	-159.230	0.265	-0.015
-159.750	34.002	-0.191	-0.163
-158.735	-154.109	0.208	0.014
-157.720	-106.536	-0.347	-0.076
-156.706	341.108	-0.241	0.461
-155.691	13.797	-0.065	-0.049
-154.677	-140.450	-0.087	-0.009
-153.662	-73.210	-0.070	0.025
-152.647	-50.907	0.327	-0.151
-151.633	35.282	0.198	-0.171
-150.618	-200.000	-0.002	0.046
-149.604	137.893	0.063	0.081
-148.589	66.620	-0.372	-0.371
-147.574	-104.861	0.312	0.070
-146.560	800.000	-0.047	0.132
-145.545	-200.000	0.020	0.164
-144.531	800.000	0.078	0.249
-143.516	-110.612	-0.436	0.089
-142.502	359.910	0.138	-0.270
-141.487	-200.000	0.050	-0.312
-140.472	114.945	-0.214	0.256
-139.458	21.619	0.225	0.179
-138.443	256.588	-0.137	-0.230
-137.429	-138.707	0.065	0.007
-136.414	-200.000	0.015	-0.125
-135.399	83.749	0.129	0.138
-134.385	-167.872	0.168	-0.006
-133.370	-195.043	0.398	0.003
-132.356	-200.000	0.039	-0.419
-131.341	576.135	0.108	-0.258
-130.326	77.986	0.222	-0.232
-129.312	476.930	-0.005	0.010
-128.297	-67.207	0.187	-0.072
-127.283	-52.415	-0.224	0.101
-126.268	-172.908	0.192	0.006
-125.253	-87.932	0.283	0.083
-124.239	-128.439	-0.353	0.049
-123.224	83.163	-0.065	-0.070
-122.210	800.000	-0.100	0.278
-121.195	-200.000	0.061	0.501
-120.180	800.000	-0.060	0.185
-119.166	18.021	0.484	-0.378
-118.151	-200.000	-0.032	-0.219
-117.137	800.000	-0.052	-0.185
-116.122	-200.000	0.011	-0.061
-115.107	-94.042	0.163	-0.044
-114.093	-200.000	-0.041	0.374
-113.078	-120.600	0.102	0.017
-112.064	800.000	0.045	0.141
-111.049	-112.328	-0.490	0.096
-110.034	800.000	0.045	0.169
-109.020	-200.000	-0.017	0.122
-108.005	-49.013	-0.019	-0.009
-106.991	-55.045	-0.235	-0.104
-105.976	350.647	0.131	-0.254
-104.962	-85.575	0.049	-0.015
-103.947	-45.087	-0.341	0.166
-102.932	-67.323	0.189	0.073
-101.918	271.817	-0.148	-0.255
-100.903	-200.000	-0.050	-0.298
-99.889	43.238	-0.094	0.084
-98.874	-140.961	-0.403	0.041
-97.859	-200.000	-0.015	0.090
-96.845	77.329	0.110	0.115
-95.830	-200.000	-0.016	-0.115
-94.816	313.480	-0.086	0.158
-93.801	800.000	-0.089	0.308
-92.786	-133.508	-0.221	0.027
-91.772	-200.000	0.005	-0.138
-90.757	158.043	0.190	-0.258
-89.743	693.963	-0.033	0.085
-88.728	165.307	0.038	-0.052
-87.713	800.000	-0.068	-0.284
-86.699	-138.824	-0.227	0.024
-85.684	22.231	0.230	0.184
-84.670	-104.393	-0.281	-0.064
-83.655	-200.000	-0.004	-0.341
-82.640	-91.561	0.161	-0.045
-81.626	70.033	-0.184	0.186
-80.611	143.502	0.115	-0.150
-79.597	-54.432	-0.038	-0.017
-78.582	143.929	0.096	0.125
-77.567	42.187	0.061	0.054
-76.553	-105.213	-0.041	-0.009
-75.538	2.770	0.232	-0.165
-74.524	-25.838	-0.092	0.053
-73.509	-200.000	0.047	-0.338
-72.494	-108.912	-0.176	-0.037
-71.480	-75.241	-0.587	-0.205
-70.465	800.000	0.072	0.287
-69.451	-200.000	0.015	0.393
-68.436	-200.000	0.005	-0.234
-67.422	79.010	0.286	-0.299
-66.407	184.387	-0.094	0.137
-65.392	203.965	-0.210	0.318
-64.378	-2.762	-0.298	-0.204
-63.363	-200.000	-0.000	-0.171
-62.349	87.043	-0.185	0.200
-61.334	40.012	-1.097	-0.964
-60.319	143.705	0.419	0.547
-59.305	536.904	-0.457	-1.062
-58.290	317.638	0.737	1.363
-57.276	519.886	0.688	1.578
-56.261	-200.000	114.515	643.381
-55.246	468.920	1508.740	3313.131
-54.232	146.324	2684.164	3524.327
-53.217	96.344	2290.130	2562.218
-52.203	36.177	1902.592	1639.226
-51.188	30.397	1695.062	1416.433
-50.173	27.972	1653.819	1363.839
-49.159	49.416	1708.446	1571.937
-48.144	48.243	1722.477	1575.914
-47.130	30.036	1681.237	1401.926
-46.115	27.377	1667.465	1370.392
-45.100	27.275	1661.748	1364.877
-44.086	27.191	1659.524	1362.369
-43.071	27.174	1656.746	1359.905
-42.057	27.136	1654.422	1357.660
-41.042	27.170	1652.499	1356.280
-40.027	27.262	1650.378	1355.171
-39.013	27.207	1648.356	1353.047
-37.998	27.148	1647.147	1351.560
-36.984	27.206	1645.895	1350.914
-35.969	27.242	1644.233	1349.759
-34.954	27.404	1642.672	1349.625
-33.940	27.313	1640.694	1347.274
-32.925	27.274	1638.925	1345.478
-31.911	27.296	1637.296	1344.253
-30.896	27.264	1635.740	1342.687
-29.881	27.282	1634.200	1341.498
-28.867	27.345	1632.096	1340.186
-27.852	27.334	1630.964	1339.119
-26.838	27.297	1629.632	1337.699
-25.823	27.305	1628.079	1336.435
-24.809	27.277	1626.873	1335.181
-23.794	27.375	1625.222	1334.497
-22.779	27.315	1623.973	1332.980
-21.765	27.399	1622.334	1332.192
-20.750	27.234	1620.724	1329.612
-19.736	27.306	1619.927	1329.435
-18.721	27.294	1618.217	1327.891
-17.706	27.305	1616.919	1326.850
-16.692	27.361	1615.214	1325.807
-15.677	27.301	1613.979	1324.305
-14.663	27.384	1612.472	1323.621
-13.648	27.425	1610.832	1322.519
-12.633	27.372	1609.509	1320.991
-11.619	27.376	1607.669	1319.462
-10.604	27.395	1606.553	1318.628
-9.590	27.371	1605.221	1317.311
-8.575	27.328	1603.991	1315.941
-7.560	27.461	1602.486	1315.615
-6.546	27.318	1601.629	1313.823
-5.531	27.342	1600.321	1312.874
-4.517	27.373	1599.305	1312.208
-3.502	27.315	1598.559	1311.124
-2.487	27.411	1596.368	1309.966
-1.473	27.013	1584.712	1297.506
-0.458	24.125	1565.481	1261.290
0.556	18.956	1566.659	1230.128
1.571	16.763	1590.039	1232.440
2.586	16.422	1602.798	1239.718
3.600	15.927	1552.858	1197.466
4.615	13.748	1454.877	1107.280
5.629	11.353	1400.848	1050.655
6.644	10.831	1393.916	1042.019
7.659	10.815	1393.068	1041.191
8.673	10.801	1391.620	1039.922
9.688	10.792	1389.717	1038.356
10.702	10.707	1386.660	1035.435
11.717	11.718	1387.576	1042.473
12.731	14.524	1392.298	1063.851
13.746	16.990	1396.425	1082.666
14.761	17.624	1395.742	1086.086
15.775	16.647	1393.657	1078.144
16.790	15.686	1390.382	1069.411
17.804	14.822	1388.147	1062.103
18.819	14.275	1387.320	1057.903
19.834	13.951	1385.936	1054.697
20.848	13.786	1384.669	1052.596
21.863	13.569	1383.511	1050.245
22.877	13.406	1381.945	1047.934
23.892	13.381	1381.252	1047.154
24.907	13.388	1380.215	1046.318
25.921	13.421	1379.344	1045.776
26.936	13.412	1378.450	1044.951
27.950	13.466	1377.639	1044.579
28.965	13.487	1376.440	1043.717
29.980	13.591	1374.767	1043.008
30.994	13.563	1374.033	1042.182
32.009	13.671	1372.742	1041.788
33.023	13.669	1371.455	1040.709
34.038	13.631	1370.199	1039.423
35.053	13.451	1369.203	1037.450
36.067	13.490	1368.397	1036.993
37.082	13.572	1366.798	1036.201
38.096	13.587	1365.675	1035.354
39.111	13.601	1365.040	1034.867
40.126	13.545	1363.992	1033.631
41.140	13.394	1363.415	1032.159
42.155	13.443	1362.670	1031.812
43.169	13.341	1362.772	1031.156
44.184	13.338	1362.120	1030.558
45.199	13.381	1361.845	1030.527
46.213	13.351	1361.039	1029.633
47.228	13.429	1360.270	1029.449
48.242	13.578	1358.810	1029.181
49.257	13.437	1357.437	1027.173
50.271	13.504	1355.951	1026.371
51.286	13.398	1354.981	1024.893
52.301	13.549	1353.604	1024.695
53.315	13.396	1352.690	1022.964
54.330	13.357	1351.344	1021.617
55.344	13.432	1350.161	1021.093
56.359	13.350	1349.290	1019.840
57.374	13.405	1348.363	1019.387
58.388	13.309	1347.927	1018.373
59.403	13.264	1346.904	1017.234
60.417	13.319	1346.373	1017.082
61.432	13.270	1345.276	1015.866
62.447	13.249	1344.468	1015.032
63.461	13.176	1343.291	1013.611
64.476	13.190	1342.182	1012.769
65.490	13.183	1341.423	1012.062
66.505	13.261	1339.267	1010.821
67.520	13.217	1338.557	1009.928
68.534	13.314	1337.152	1009.374
69.549	13.221	1336.657	1008.342
70.563	13.265	1335.373	1007.551
71.578	13.136	1334.367	1005.920
72.593	13.097	1333.720	1005.103
73.607	13.141	1332.982	1004.724
74.622	13.200	1331.643	1003.987
75.636	13.089	1331.447	1003.075
76.651	13.141	1330.290	1002.429
77.666	13.192	1329.902	1002.358
78.680	13.156	1329.661	1001.870
79.695	13.235	1328.362	1001.283
80.709	13.254	1327.956	1001.001
81.724	13.381	1326.851	1000.846
82.739	13.370	1325.912	999.986
83.753	13.387	1325.345	999.573
84.768	13.458	1324.121	998.989
85.782	13.524	1323.112	998.534
86.797	13.485	1321.718	997.161
87.812	13.403	1320.633	995.761
88.826	13.410	1319.334	994.739
89.841	13.464	1318.440	994.296
90.855	13.546	1317.290	993.834
91.870	13.446	1316.717	992.712
92.884	13.467	1316.068	992.261
93.899	13.634	1314.743	992.177
94.914	13.526	1314.284	991.097
95.928	13.597	1313.460	990.814
96.943	13.575	1312.112	989.578
97.957	13.486	1311.335	988.372
98.972	13.527	1310.468	987.876
99.987	13.598	1308.731	986.903
101.001	13.579	1307.909	986.080
102.016	13.496	1307.134	984.917
103.030	13.532	1306.314	984.423
104.045	13.617	1305.136	983.957
105.060	13.546	1303.866	982.486
106.074	13.424	1302.474	980.632
107.089	13.373	1301.338	979.386
108.103	13.284	1300.419	978.080
109.118	13.358	1298.424	976.933
110.133	13.317	1297.427	975.851
111.147	13.410	1295.652	974.982
112.162	13.353	1294.854	973.955
113.176	13.393	1293.759	973.282
114.191	13.336	1292.855	972.179
115.206	13.396	1291.641	971.537
116.220	13.378	1290.424	970.426
117.235	13.360	1289.982	969.907
118.249	13.314	1288.250	968.244
119.264	13.310	1287.119	967.285
120.279	13.276	1286.493	966.532
121.293	13.323	1285.018	965.615
122.308	13.326	1283.968	964.758
123.322	13.274	1282.861	963.537
124.337	13.272	1282.014	962.802
125.352	13.336	1280.667	962.076
126.366	13.346	1279.366	961.074
127.381	13.368	1278.216	960.252
128.395	13.346	1277.367	959.401
129.410	13.365	1276.355	958.667
130.424	13.392	1275.291	957.941
131.439	13.420	1274.452	957.389
132.454	13.467	1273.756	957.051
133.468	13.337	1272.998	955.647
134.483	13.487	1271.898	955.599
135.497	13.389	1270.902	954.206
136.512	13.473	1269.732	953.725
137.527	13.376	1268.523	952.173
138.541	13.441	1266.467	950.918
139.556	13.441	1265.396	950.032
140.570	13.449	1264.332	949.196
141.585	13.501	1263.900	949.086
142.600	13.548	1262.011	947.854
143.614	13.547	1261.249	947.188
144.629	13.745	1259.859	947.190
145.643	13.690	1259.300	946.375
146.658	13.631	1257.962	944.947
147.673	13.574	1256.465	943.415
148.687	13.408	1255.653	941.775
149.702	13.445	1254.369	940.942
150.716	13.419	1252.737	939.488
151.731	13.469	1251.142	938.494
152.746	13.579	1250.310	938.407
153.760	13.523	1249.401	937.324
154.775	13.551	1248.121	936.439
155.789	13.698	1247.148	936.458
156.804	13.616	1246.264	935.251
157.819	13.610	1245.292	934.405
158.833	13.754	1244.140	934.264
159.848	13.899	1242.561	933.811
160.862	13.734	1242.119	932.470
161.877	13.649	1240.897	930.996
162.892	13.581	1239.733	929.658
163.906	13.599	1238.920	929.067
164.921	13.688	1237.290	928.258
165.935	13.601	1237.274	927.680
166.950	13.738	1236.201	927.559
167.964	13.701	1235.678	926.877
168.979	13.742	1234.850	926.403
169.994	13.603	1234.617	925.372
171.008	13.784	1233.175	925.216
172.023	13.836	1232.241	924.724
173.037	13.829	1231.427	923.992
174.052	13.895	1230.463	923.555
175.067	13.822	1229.599	922.420
176.081	13.758	1228.844	921.417
177.096	13.732	1227.764	920.378
178.110	13.775	1226.355	919.481
179.125	13.818	1225.442	918.953
180.140	13.765	1223.892	917.417
181.154	13.837	1222.896	916.988
182.169	13.786	1222.229	916.121
183.183	13.964	1220.727	915.899
184.198	13.941	1219.628	914.863
185.213	13.916	1218.066	913.475
186.227	13.945	1216.907	912.685
187.242	14.018	1216.642	912.803
188.256	13.968	1215.903	911.893
189.271	14.089	1214.417	911.366
190.286	13.869	1213.825	909.634
191.300	13.745	1212.396	907.801
192.315	13.682	1212.128	907.180
193.329	13.788	1211.208	906.988
194.344	13.715	1210.986	906.345
195.359	13.856	1210.200	906.443
196.373	13.993	1209.445	906.549
197.388	14.031	1209.282	906.551
198.402	14.001	1208.726	905.890
199.417	14.186	1208.152	906.387
200.432	14.176	1207.130	905.485
201.446	14.261	1206.412	905.329
202.461	14.249	1205.475	904.484
203.475	14.259	1204.705	903.881
204.490	14.199	1203.460	902.537
205.504	14.206	1201.858	901.298
206.519	14.170	1200.747	900.189
207.534	14.139	1200.010	899.389
208.548	14.234	1198.797	898.915
209.563	14.201	1197.734	897.859
210.577	14.123	1197.193	896.952
211.592	14.336	1196.556	897.541
212.607	14.311	1195.812	896.772
213.621	14.217	1195.006	895.582
214.636	14.303	1193.407	894.769
215.650	14.268	1192.757	894.014
216.665	14.405	1191.903	894.026
217.680	14.450	1190.738	893.315
218.694	14.371	1190.214	892.420
219.709	14.490	1189.495	892.438
220.723	14.518	1188.832	892.013
221.738	14.467	1188.107	891.116
222.753	14.504	1186.945	890.367
223.767	14.453	1186.752	889.869
224.782	14.466	1186.137	889.398
225.796	14.567	1185.115	889.092
226.811	14.585	1184.640	888.753
227.826	14.505	1183.712	887.551
228.840	14.498	1182.764	886.724
229.855	14.587	1181.971	886.523
230.869	14.438	1181.440	885.259
231.884	14.548	1180.172	884.815
232.899	14.414	1179.955	883.861
233.913	14.539	1179.023	883.749
234.928	14.461	1178.228	882.661
235.942	14.479	1177.694	882.279
236.957	14.426	1177.026	881.417
237.972	14.475	1175.990	880.825
238.986	14.528	1175.158	880.401
240.001	14.547	1174.567	879.980
241.015	14.523	1173.952	879.315
242.030	14.626	1172.496	878.689
243.045	14.613	1171.982	878.157
244.059	14.695	1171.043	877.808
245.074	14.719	1170.552	877.488
246.088	14.812	1169.647	877.221
247.103	14.612	1169.332	875.857
248.117	14.782	1168.232	875.846
249.132	14.832	1167.534	875.511
250.147	14.898	1166.775	875.206
251.161	14.945	1166.207	874.950
252.176	14.966	1165.685	874.589
253.190	15.094	1164.995	874.666
254.205	15.004	1164.494	873.741
255.220	15.049	1163.912	873.463
256.234	15.029	1163.154	872.712
257.249	14.988	1162.372	871.831
258.263	15.172	1161.330	871.932
259.278	15.111	1161.119	871.377
260.293	15.102	1160.352	870.679
261.307	15.089	1160.552	870.686
262.322	15.148	1159.175	869.883
263.336	15.119	1158.722	869.314
264.351	15.149	1158.042	868.884
265.366	15.230	1157.053	868.482
266.380	15.329	1156.473	868.483
267.395	15.201	1155.656	867.129
268.409	15.168	1154.608	866.096
269.424	15.235	1154.177	866.042
270.439	15.278	1153.307	865.538
271.453	15.175	1152.826	864.568
272.468	15.248	1151.905	864.177
273.482	15.139	1151.273	863.062
274.497	15.250	1150.559	863.024
275.512	15.251	1149.968	862.512
276.526	15.172	1149.346	861.563
277.541	15.319	1148.130	861.329
278.555	15.324	1147.754	860.997
279.570	15.304	1147.159	860.370
280.585	15.452	1146.292	860.401
281.599	15.447	1145.027	859.351
282.614	15.414	1144.377	858.619
283.628	15.412	1143.668	857.999
284.643	15.415	1142.534	857.087
285.657	15.530	1141.660	856.946
286.672	15.360	1140.880	855.417
287.687	15.380	1139.690	854.550
288.701	15.432	1138.914	854.158
289.716	15.546	1138.336	854.228
290.730	15.570	1137.445	853.604
291.745	15.485	1137.011	852.774
292.760	15.510	1136.358	852.334
293.774	15.602	1135.476	852.065
294.789	15.685	1134.965	852.027
295.803	15.743	1134.647	852.007
296.818	15.482	1133.784	849.963
297.833	15.567	1132.969	849.707
298.847	15.621	1131.872	849.081
299.862	15.694	1130.938	848.674
300.876	15.665	1130.652	848.236
301.891	15.638	1130.119	847.624
302.906	15.663	1129.510	847.221
303.920	15.745	1129.016	847.188
304.935	15.765	1128.317	846.687
305.949	15.874	1127.220	846.339
306.964	15.912	1126.614	845.998
307.979	15.877	1125.610	844.996
308.993	15.857	1124.981	844.347
310.008	15.907	1124.228	843.958
311.022	15.921	1123.552	843.448
312.037	15.856	1122.371	842.159
313.052	15.825	1121.901	841.580
314.066	15.803	1120.841	840.598
315.081	15.719	1120.212	839.631
316.095	15.811	1119.490	839.475
317.110	15.761	1118.477	838.394
318.125	15.765	1117.778	837.816
319.139	15.830	1117.069	837.535
320.154	15.844	1116.312	836.961
321.168	15.824	1115.590	836.244
322.183	15.926	1114.732	836.036
323.197	15.825	1114.722	835.451
324.212	15.863	1114.025	835.045
325.227	15.971	1113.061	834.785
326.241	15.846	1112.622	833.762
327.256	15.900	1111.487	833.107
328.270	15.942	1110.870	832.773
329.285	15.853	1110.062	831.658
330.300	15.906	1109.008	831.055
331.314	15.977	1107.862	830.473
332.329	15.959	1107.386	829.954
333.343	15.858	1106.573	828.775
334.358	16.004	1105.659	828.733
335.373	16.122	1104.775	828.577
336.387	16.100	1103.902	827.742
337.402	16.072	1103.279	827.063
338.416	16.110	1102.366	826.490
339.431	16.172	1101.711	826.234
340.446	16.110	1101.473	825.676
341.460	16.139	1101.187	825.530
342.475	16.126	1100.100	824.578
343.489	16.343	1098.634	824.467
344.504	16.363	1097.947	823.978
345.519	16.331	1097.105	823.118
346.533	16.328	1096.410	822.505
347.548	16.426	1095.576	822.285
348.562	16.449	1094.880	821.804
349.577	16.441	1093.714	820.816
350.592	16.220	1093.508	819.515
351.606	16.242	1092.749	818.980
352.621	16.274	1091.956	818.469
353.635	16.254	1091.139	817.687
354.650	16.378	1090.169	817.487
355.665	16.402	1089.625	817.122
356.679	16.371	1089.164	816.554
357.694	16.338	1088.561	815.874
358.708	16.563	1087.750	816.280
359.723	16.437	1086.973	815.017
360.738	16.384	1086.504	814.338
361.752	16.405	1086.442	814.318
362.767	16.425	1085.759	813.830
363.781	16.502	1084.948	813.521
364.796	16.493	1084.603	813.146
365.810	16.552	1083.859	812.802
366.825	16.669	1082.809	812.502
367.840	16.684	1082.719	812.434
368.854	16.806	1082.124	812.502
369.869	16.685	1081.516	811.395
370.883	16.643	1080.397	810.283
371.898	16.702	1079.372	809.726
372.913	16.733	1079.192	809.665
373.927	16.749	1078.538	809.178
374.942	16.771	1078.213	808.971
375.956	16.743	1077.792	808.449
376.971	16.867	1076.966	808.351
377.986	16.856	1076.413	807.808
379.000	16.896	1076.017	807.632
380.015	16.880	1075.260	806.916
381.029	16.914	1074.547	806.470
382.044	16.923	1074.020	806.046
383.059	16.933	1073.144	805.363
384.073	17.024	1072.245	805.050
385.088	17.019	1071.334	804.272
386.102	16.970	1070.306	803.196
387.117	16.886	1069.159	801.869
388.132	16.927	1068.485	801.484
389.146	16.887	1067.780	800.696
390.161	16.850	1067.023	799.885
391.175	16.986	1066.524	800.083
392.190	17.044	1065.790	799.730
393.205	17.127	1064.862	799.356
394.219	17.004	1064.239	798.241
395.234	16.918	1063.412	797.146
396.248	16.913	1062.428	796.312
397.263	16.989	1061.170	795.654
398.278	16.892	1061.106	795.082
399.292	16.842	1060.234	794.124
400.307	16.985	1059.119	793.889
401.321	16.955	1058.700	793.361
402.336	16.980	1058.154	792.999
403.350	16.969	1057.605	792.466
404.365	17.002	1056.543	791.756
405.380	17.093	1055.410	791.263
406.394	17.096	1055.102	790.975
407.409	17.197	1054.246	790.732
408.423	17.145	1054.148	790.349
409.438	17.327	1053.179	790.396
410.453	17.213	1052.826	789.532
411.467	17.281	1051.781	788.995
412.482	17.301	1051.478	788.792
413.496	17.296	1050.577	788.020
414.511	17.466	1049.557	787.972
415.526	17.446	1049.358	787.659
416.540	17.499	1049.023	787.586
417.555	17.535	1048.162	787.037
418.569	17.549	1047.453	786.497
419.584	17.551	1047.425	786.417
420.599	17.618	1046.609	786.045
421.613	105.056	1325.236	1476.614
422.628	96.608	1365.791	1476.729
