DTS Sentinel unit serial number:	SN413079Multiplexer serial number:	ORYXHardware model number:	OX4-SRSoftware version number:	ORYX F/W v4.00 Oryx Data Collector v3.7.2.0data status	okinstallation	princeton_trtdifferential loss correction	single-endedforward channel	channel 2reverse channel	N/Adate	2019/09/13time	06:31:34forward acquisition time	60.00reverse acquisition time	0.00gamma	496.2192k internal	0.2337k external	0.2337temperature offset calibration	1.0196default loss term (dB/km)	0.3790temperature slope calibration	1.0000multiplexer offset coefficient	1.0000multiplexer slope coefficient	1.0000fibre end	0.00T internal ref (°C)	26.06T ext. ref 1 (°C)	4.10T ext. ref 2 (°C)	20.64length (m)	temperature (°C)	Stokes	anti-Stokes-747.200	-1.127	0.021	-0.015
-746.185	-43.515	-0.082	0.042
-745.171	62.754	0.358	-0.359
-744.156	44.176	-0.204	0.188
-743.142	-102.534	0.152	-0.036
-742.127	21.172	-0.154	0.125
-741.112	-65.540	0.138	-0.056
-740.098	60.550	-0.079	-0.079
-739.083	-106.079	-0.309	0.070
-738.069	-7.275	-0.189	0.128
-737.054	-200.000	-0.030	-0.194
-736.039	67.743	0.210	0.216
-735.025	-118.546	0.308	-0.055
-734.010	522.384	-0.158	-0.373
-732.996	-123.979	0.147	-0.023
-731.981	28.154	-0.008	0.007
-730.966	-134.580	-0.145	-0.018
-729.952	-32.658	0.061	0.034
-728.937	800.000	-0.101	-0.435
-727.923	-30.505	0.155	-0.088
-726.908	356.269	-0.181	-0.362
-725.894	800.000	0.065	0.205
-724.879	-103.492	-0.223	-0.053
-723.864	-59.726	-0.172	-0.074
-722.850	-200.000	0.029	-0.367
-721.835	-96.781	0.188	0.049
-720.821	-94.096	0.095	0.026
-719.806	46.269	-0.267	-0.248
-718.791	-78.253	-0.305	-0.105
-717.777	266.898	-0.087	0.153
-716.762	-62.265	0.280	-0.117
-715.748	-10.725	0.303	0.201
-714.733	-38.126	-0.198	0.105
-713.718	-16.279	-0.034	-0.022
-712.704	-181.442	-0.299	0.006
-711.689	125.024	-0.193	-0.243
-710.675	-154.684	0.199	0.013
-709.660	592.287	0.136	-0.336
-708.645	188.903	0.140	-0.211
-707.631	446.027	0.169	-0.373
-706.616	-54.730	-0.271	-0.123
-705.602	-93.893	-0.045	-0.012
-704.587	-123.037	0.282	-0.045
-703.572	-117.866	-0.156	-0.028
-702.558	-200.000	-0.037	-0.459
-701.543	-96.620	-0.100	-0.026
-700.529	-126.375	-0.285	0.043
-699.514	-27.180	0.133	0.078
-698.499	78.423	0.210	0.225
-697.485	21.158	-0.371	-0.302
-696.470	-11.682	-0.089	-0.059
-695.456	-200.000	-0.002	0.088
-694.441	-43.936	0.118	-0.059
-693.426	800.000	-0.041	-0.115
-692.412	-95.820	-0.115	-0.031
-691.397	800.000	-0.045	-0.179
-690.383	-55.310	-0.077	-0.035
-689.368	-34.841	-0.166	0.091
-688.354	420.436	0.106	0.228
-687.339	44.905	0.091	-0.084
-686.324	-12.315	-0.242	0.158
-685.310	-200.000	-0.012	-0.274
-684.295	-10.200	-0.168	0.112
-683.281	-69.458	0.182	-0.070
-682.266	-200.000	-0.075	-0.447
-681.251	-29.948	0.063	-0.036
-680.237	-13.177	-0.136	0.088
-679.222	-173.046	-0.305	-0.009
-678.208	-181.932	-0.401	-0.008
-677.193	-161.014	0.086	-0.005
-676.178	277.915	-0.101	-0.181
-675.164	110.019	-0.053	-0.064
-674.149	-101.151	0.222	-0.054
-673.135	679.665	-0.049	-0.128
-672.120	38.106	0.167	0.149
-671.105	279.547	0.061	-0.110
-670.091	-188.493	-0.481	-0.006
-669.076	96.825	0.156	0.179
-668.062	-55.712	-0.136	0.061
-667.047	-95.271	0.105	0.028
-666.032	250.709	0.020	0.034
-665.018	-18.593	-0.017	-0.011
-664.003	-1.049	-0.138	0.098
-662.989	800.000	-0.056	0.162
-661.974	15.535	-0.079	0.062
-660.959	-184.157	0.432	-0.007
-659.945	-200.000	-0.043	0.270
-658.930	42.120	-0.126	0.115
-657.916	635.442	-0.038	-0.097
-656.901	-82.630	0.102	-0.033
-655.886	-200.000	-0.003	-0.052
-654.872	-143.337	0.494	-0.047
-653.857	-90.041	0.347	-0.101
-652.843	-200.000	0.019	-0.324
-651.828	126.979	-0.145	0.184
-650.814	-16.256	0.242	0.154
-649.799	-30.871	0.343	-0.194
-648.784	2.974	0.193	0.140
-647.770	-103.705	0.141	0.033
-646.755	-133.379	0.227	-0.029
-645.741	800.000	0.081	-0.284
-644.726	-200.000	0.001	-0.082
-643.711	112.207	0.121	-0.146
-642.697	253.404	-0.046	0.078
-641.682	-66.606	-0.209	0.083
-640.668	-42.609	-0.092	-0.047
-639.653	545.033	0.077	-0.184
-638.638	-200.000	0.048	0.236
-637.624	-69.779	-0.370	-0.141
-636.609	-40.852	0.192	0.099
-635.595	-200.000	0.025	0.150
-634.580	-90.388	0.179	-0.052
-633.565	456.622	0.087	-0.193
-632.551	257.171	-0.138	-0.237
-631.536	-81.193	0.208	-0.069
-630.522	214.022	0.201	0.318
-629.507	800.000	-0.086	0.300
-628.492	577.998	-0.097	0.236
-627.478	39.319	-0.182	-0.163
-626.463	443.381	0.088	-0.192
-625.449	-124.421	0.403	-0.063
-624.434	-200.000	0.079	-0.384
-623.419	-200.000	0.035	0.288
-622.405	196.946	-0.119	0.181
-621.390	-200.000	-0.015	-0.129
-620.376	-200.000	0.042	-0.215
-619.361	-104.113	0.443	-0.103
-618.346	158.473	-0.123	-0.171
-617.332	-121.723	0.097	0.016
-616.317	-200.000	-0.064	-0.294
-615.303	-83.560	-0.073	0.023
-614.288	327.586	0.111	-0.213
-613.273	-50.446	-0.404	0.190
-612.259	786.578	-0.079	0.217
-611.244	180.853	-0.109	0.160
-610.230	-90.930	-0.091	-0.026
-609.215	45.269	0.130	0.120
-608.201	222.625	0.080	-0.128
-607.186	226.640	0.114	0.184
-606.171	-173.124	0.321	-0.010
-605.157	-138.280	0.124	0.014
-604.142	-118.466	0.078	0.014
-603.128	-68.392	0.135	-0.052
-602.113	-42.623	-0.120	-0.061
-601.098	24.530	0.217	-0.179
-600.084	546.953	-0.068	-0.162
-599.069	42.444	-0.009	-0.008
-598.055	-200.000	-0.006	-0.106
-597.040	-32.700	-0.299	0.166
-596.025	111.869	-0.265	-0.320
-595.011	-200.000	-0.014	-0.084
-593.996	147.323	0.277	-0.372
-592.982	-170.186	0.229	0.008
-591.967	-42.956	-0.258	-0.131
-590.952	-159.584	-0.288	0.016
-589.938	210.956	-0.135	-0.212
-588.923	800.000	-0.073	-0.299
-587.909	114.869	-0.156	0.190
-586.894	-124.182	0.607	0.095
-585.879	-200.000	0.032	-0.146
-584.865	231.490	0.122	0.200
-583.850	-74.983	-0.122	0.044
-582.836	-135.808	0.162	-0.019
-581.821	-37.736	-0.115	-0.061
-580.806	-154.111	-0.073	-0.005
-579.792	-62.400	0.136	0.056
-578.777	-39.706	-0.237	-0.124
-577.763	-42.364	0.156	0.080
-576.748	-54.802	-0.144	0.065
-575.733	-96.400	0.315	-0.083
-574.719	-75.890	0.314	-0.111
-573.704	800.000	-0.106	-0.365
-572.690	69.678	0.106	-0.108
-571.675	-112.390	-0.195	0.039
-570.661	-200.000	0.054	-0.258
-569.646	128.536	-0.095	0.121
-568.631	208.083	-0.109	0.170
-567.617	74.963	0.262	0.275
-566.602	286.892	-0.109	0.196
-565.588	-132.130	0.173	0.022
-564.573	-200.000	-0.015	0.119
-563.558	20.111	-0.031	0.025
-562.544	35.938	0.207	-0.181
-561.529	101.030	-0.216	0.250
-560.515	-10.698	-0.249	-0.164
-559.500	800.000	0.011	-0.045
-558.485	-14.185	0.093	0.060
-557.471	152.490	-0.224	0.305
-556.456	-200.000	-0.055	0.259
-555.442	-55.410	0.150	-0.067
-554.427	-91.301	-0.144	0.041
-553.412	-47.261	0.174	-0.084
-552.398	26.818	-0.254	-0.212
-551.383	-15.059	-0.405	-0.259
-550.369	620.438	-0.043	-0.108
-549.354	69.906	-0.162	0.166
-548.339	108.497	0.036	0.043
-547.325	-200.000	-0.068	0.316
-546.310	-200.000	-0.026	0.340
-545.296	800.000	0.072	-0.263
-544.281	211.040	-0.202	0.317
-543.266	169.094	0.103	0.146
-542.252	-200.000	-0.054	0.522
-541.237	-80.721	0.208	0.069
-540.223	-79.284	-0.370	0.125
-539.208	-64.983	-0.142	-0.057
-538.193	40.605	-0.223	0.200
-537.179	-200.000	-0.043	0.210
-536.164	237.103	-0.086	-0.141
-535.150	-24.766	-0.075	0.044
-534.135	-84.007	-0.470	0.149
-533.121	-200.000	0.009	0.159
-532.106	-83.760	-0.208	-0.066
-531.091	130.764	-0.171	0.218
-530.077	-200.000	0.096	0.439
-529.062	385.210	-0.097	0.199
-528.048	800.000	0.044	0.186
-527.033	-200.000	-0.020	-0.226
-526.018	41.288	-0.224	0.202
-525.004	800.000	0.009	-0.033
-523.989	-98.833	-0.146	0.037
-522.975	-91.648	0.143	-0.041
-521.960	623.278	0.024	0.061
-520.945	800.000	-0.039	0.154
-519.931	800.000	-0.071	-0.302
-518.916	72.924	0.163	0.170
-517.902	663.666	0.045	0.115
-516.887	-141.272	-0.178	-0.018
-515.872	387.296	-0.120	0.247
-514.858	-200.000	-0.024	-0.179
-513.843	-3.756	-0.142	0.098
-512.829	456.718	0.100	0.220
-511.814	-80.515	-0.097	0.032
-510.799	93.836	0.246	-0.277
-509.785	68.622	0.113	-0.116
-508.770	-200.000	0.076	-0.415
-507.756	150.434	-0.088	0.119
-506.741	193.771	0.082	0.123
-505.726	53.543	0.295	-0.281
-504.712	-6.917	0.064	-0.043
-503.697	412.434	-0.085	-0.179
-502.683	-118.750	0.400	-0.070
-501.668	17.899	0.131	-0.104
-500.653	-200.000	0.025	0.174
-499.639	-200.000	-0.002	-0.260
-498.624	-200.000	-0.073	0.396
-497.610	-200.000	0.027	0.217
-496.595	21.402	-0.087	0.070
-495.581	-47.161	-0.078	-0.038
-494.566	-200.000	0.034	0.524
-493.551	182.990	0.059	0.086
-492.537	474.902	0.050	0.112
-491.522	-130.249	-0.264	-0.036
-490.508	568.718	-0.065	0.156
-489.493	-125.409	0.105	0.016
-488.478	295.176	0.081	0.147
-487.464	187.752	0.081	-0.121
-486.449	28.944	-0.176	-0.148
-485.435	-52.997	0.249	-0.114
-484.420	-15.889	-0.324	-0.205
-483.405	8.521	0.081	-0.061
-482.391	-200.000	0.030	-0.182
-481.376	800.000	-0.019	0.069
-480.362	-147.902	0.012	0.001
-479.347	-108.839	0.190	0.040
-478.332	-200.000	-0.010	-0.297
-477.318	-111.094	-0.270	-0.055
-476.303	-8.928	0.078	0.052
-475.289	-24.610	0.110	0.065
-474.274	-48.171	0.174	0.084
-473.259	-127.238	-0.269	0.039
-472.245	-200.000	0.002	-0.270
-471.230	103.401	0.343	-0.400
-470.216	-169.289	0.115	-0.004
-469.201	12.167	0.231	0.177
-468.186	7.298	0.146	-0.108
-467.172	25.589	-0.117	0.096
-466.157	201.083	0.066	-0.100
-465.143	-25.980	0.167	-0.098
-464.128	-33.120	-0.278	-0.153
-463.113	800.000	0.060	0.173
-462.099	-40.077	-0.205	-0.106
-461.084	126.201	0.115	-0.145
-460.070	-150.003	0.517	-0.040
-459.055	-35.689	-0.062	-0.033
-458.040	162.945	0.057	0.079
-457.026	-82.180	0.260	-0.084
-456.011	800.000	0.038	0.164
-454.997	-154.683	0.431	0.028
-453.982	23.425	0.126	-0.103
-452.968	62.646	-0.065	0.065
-451.953	-165.118	0.096	0.004
-450.938	591.555	-0.059	0.143
-449.924	366.752	-0.228	-0.457
-448.909	-127.399	0.063	0.009
-447.895	-16.663	-0.165	-0.104
-446.880	-151.051	-0.243	-0.018
-445.865	800.000	-0.103	-0.369
-444.851	524.192	-0.174	-0.407
-443.836	309.284	0.005	0.010
-442.822	-200.000	0.017	0.098
-441.807	294.651	-0.089	0.161
-440.792	800.000	-0.076	-0.255
-439.778	106.134	-0.156	-0.183
-438.763	-91.103	-0.286	-0.081
-437.749	100.033	0.281	0.323
-436.734	-90.570	-0.224	-0.064
-435.719	55.404	0.121	-0.116
-434.705	-97.847	-0.089	0.023
-433.690	-159.963	0.122	0.007
-432.676	-153.309	0.068	0.005
-431.661	800.000	0.023	-0.090
-430.646	-55.941	-0.148	-0.065
-429.632	-200.000	-0.012	0.364
-428.617	448.145	-0.071	-0.154
-427.603	44.295	-0.147	0.133
-426.588	107.023	-0.167	0.197
-425.573	-174.159	-0.229	0.007
-424.559	-72.150	0.253	0.093
-423.544	-146.428	0.458	-0.040
-422.530	-200.000	-0.031	0.163
-421.515	344.847	0.060	0.118
-420.500	62.189	0.125	0.124
-419.486	-68.359	-0.310	-0.119
-418.471	-6.782	0.219	0.148
-417.457	452.225	0.107	0.235
-416.442	800.000	-0.056	-0.160
-415.428	54.521	0.200	0.191
-414.413	800.000	0.009	0.039
-413.398	-200.000	0.018	-0.120
-412.384	-200.000	0.036	0.321
-411.369	-200.000	0.045	0.211
-410.355	-140.809	-0.234	-0.024
-409.340	-137.867	0.120	0.013
-408.325	20.752	0.090	0.072
-407.311	-157.495	-0.258	-0.015
-406.296	238.227	0.095	0.157
-405.282	207.932	0.182	0.282
-404.267	71.122	0.086	0.088
-403.252	-107.855	-0.278	0.060
-402.238	-52.487	-0.284	0.130
-401.223	-170.114	-0.108	0.004
-400.209	800.000	-0.036	-0.149
-399.194	-200.000	0.017	0.198
-398.179	-166.271	0.282	-0.012
-397.165	-131.659	-0.127	0.017
-396.150	800.000	-0.029	0.111
-395.136	157.921	0.132	0.181
-394.121	-113.793	0.166	-0.032
-393.106	-39.491	-0.286	0.149
-392.092	-55.433	0.134	0.059
-391.077	800.000	0.158	0.446
-390.063	-200.000	0.044	-0.348
-389.048	-93.611	0.077	0.021
-388.033	-200.000	0.015	0.068
-387.019	242.139	-0.022	-0.036
-386.004	190.925	-0.131	-0.195
-384.990	800.000	0.007	0.023
-383.975	-112.654	0.133	-0.026
-382.960	-200.000	-0.009	0.387
-381.946	384.465	-0.021	-0.042
-380.931	-128.776	0.250	-0.035
-379.917	-63.949	-0.213	-0.086
-378.902	-200.000	-0.037	-0.313
-377.888	-4.836	-0.126	-0.086
-376.873	429.040	-0.129	-0.275
-375.858	-200.000	0.062	0.397
-374.844	-32.678	-0.221	0.122
-373.829	-127.675	-0.160	0.023
-372.815	23.663	0.413	-0.337
-371.800	166.495	0.186	-0.261
-370.785	92.429	-0.099	-0.110
-369.771	9.065	0.226	0.169
-368.756	-53.483	0.195	0.088
-367.742	-200.000	-0.028	-0.184
-366.727	614.551	-0.134	0.332
-365.712	-18.914	-0.026	-0.016
-364.698	365.020	0.087	0.173
-363.683	800.000	0.087	-0.294
-362.669	-115.056	-0.205	-0.038
-361.654	3.585	-0.036	0.026
-360.639	159.327	-0.073	0.100
-359.625	187.970	0.283	0.418
-358.610	-200.000	-0.375	0.001
-357.596	-200.000	0.017	-0.083
-356.581	156.569	0.048	-0.065
-355.566	-200.000	-0.003	0.221
-354.552	-134.506	0.192	-0.023
-353.537	211.036	-0.012	-0.019
-352.523	747.737	0.080	-0.213
-351.508	36.213	-0.210	-0.183
-350.493	22.868	-0.074	0.060
-349.479	-57.246	0.170	0.074
-348.464	-172.332	0.176	-0.006
-347.450	17.920	-0.097	0.076
-346.435	800.000	-0.049	-0.192
-345.420	-104.275	0.319	-0.073
-344.406	-200.000	-0.039	-0.248
-343.391	142.043	-0.122	0.159
-342.377	-151.663	0.079	0.006
-341.362	-26.133	-0.104	0.060
-340.348	-200.000	-0.074	0.368
-339.333	-200.000	0.003	0.208
-338.318	443.984	-0.197	0.428
-337.304	800.000	0.073	0.257
-336.289	96.662	0.042	0.048
-335.275	-9.140	-0.337	0.223
-334.260	-147.236	-0.235	-0.020
-333.245	78.704	-0.259	-0.274
-332.231	800.000	-0.036	-0.132
-331.216	-64.432	-0.084	-0.034
-330.202	48.686	-0.136	0.126
-329.187	-97.452	-0.250	0.064
-328.172	-200.000	0.050	-0.225
-327.158	174.364	0.120	-0.171
-326.143	800.000	0.131	0.410
-325.129	-10.484	0.073	0.048
-324.114	-99.432	-0.173	0.043
-323.099	-200.000	-0.024	-0.272
-322.085	-56.155	0.124	0.055
-321.070	568.344	-0.040	-0.095
-320.056	311.247	0.079	0.145
-319.041	341.982	-0.110	0.212
-318.026	-185.151	0.333	0.005
-317.012	-62.926	-0.270	0.110
-315.997	-200.000	-0.010	-0.061
-314.983	-107.552	0.276	0.060
-313.968	-200.000	-0.026	0.185
-312.953	-122.366	-0.406	0.065
-311.939	39.270	0.230	0.203
-310.924	-152.770	0.185	-0.013
-309.910	70.343	-0.021	-0.021
-308.895	800.000	-0.044	-0.168
-307.880	50.728	-0.095	-0.089
-306.866	-89.044	0.354	0.103
-305.851	800.000	-0.111	0.404
-304.837	-145.818	0.535	-0.047
-303.822	170.909	-0.069	-0.098
-302.807	34.812	-0.064	0.056
-301.793	-200.000	0.002	-0.054
-300.778	44.414	-0.226	-0.205
-299.764	-111.856	-0.339	-0.068
-298.749	800.000	-0.079	0.262
-297.735	-35.717	-0.050	-0.027
-296.720	512.554	-0.098	-0.225
-295.705	637.071	-0.120	-0.301
-294.691	-200.000	-0.019	-0.272
-293.676	114.944	0.092	0.111
-292.662	800.000	-0.059	0.251
-291.647	-200.000	0.183	0.000
-290.632	-17.561	0.253	0.157
-289.618	19.159	0.149	-0.118
-288.603	86.680	0.134	-0.146
-287.589	-41.622	0.143	0.072
-286.574	-2.108	-0.365	-0.253
-285.559	-95.712	0.202	0.053
-284.545	-200.000	-0.140	0.000
-283.530	740.039	-0.122	-0.322
-282.516	46.424	-0.068	-0.063
-281.501	-200.000	0.018	-0.313
-280.486	800.000	-0.135	0.511
-279.472	579.310	0.099	0.240
-278.457	-16.940	0.199	0.124
-277.443	-200.000	-0.026	-0.112
-276.428	77.244	-0.256	-0.268
-275.413	-149.955	-0.163	0.013
-274.399	156.610	0.085	-0.116
-273.384	245.364	0.126	-0.208
-272.370	114.316	0.119	-0.143
-271.355	72.601	0.213	-0.219
-270.340	73.425	-0.277	0.286
-269.326	-41.361	-0.061	-0.031
-268.311	-78.920	0.177	0.059
-267.297	-13.837	-0.273	-0.174
-266.282	95.116	-0.103	-0.115
-265.267	-200.000	-0.065	-0.283
-264.253	-106.829	0.404	0.088
-263.238	191.222	0.110	0.163
-262.224	-27.375	0.158	-0.091
-261.209	119.184	-0.177	-0.216
-260.195	-65.769	0.453	-0.178
-259.180	-21.457	-0.201	0.121
-258.165	396.505	0.119	0.245
-257.151	57.409	-0.155	0.149
-256.136	-40.150	-0.293	0.150
-255.122	-154.394	0.084	0.006
-254.107	-113.548	-0.186	0.036
-253.092	-148.674	0.058	-0.005
-252.078	375.539	-0.204	-0.410
-251.063	-112.080	0.165	0.033
-250.049	-79.631	0.337	-0.112
-249.034	-28.894	-0.493	0.279
-248.019	800.000	-0.029	0.116
-247.005	60.077	-0.100	-0.097
-245.990	-106.329	0.137	0.030
-244.976	-33.067	0.154	-0.084
-243.961	26.631	0.123	-0.102
-242.946	800.000	-0.040	0.114
-241.932	-126.065	-0.349	0.052
-240.917	800.000	0.049	0.149
-239.903	93.082	0.085	-0.095
-238.888	800.000	0.020	-0.063
-237.873	-200.000	-0.051	-0.368
-236.859	12.901	-0.025	0.019
-235.844	-116.180	-0.151	0.028
-234.830	-65.323	-0.251	-0.099
-233.815	-168.603	-0.220	-0.008
-232.800	800.000	0.111	-0.342
-231.786	-97.535	-0.376	-0.096
-230.771	800.000	-0.054	-0.196
-229.757	-200.000	-0.055	-0.371
-228.742	607.091	0.041	-0.100
-227.727	-29.782	-0.017	0.010
-226.713	800.000	-0.033	0.098
-225.698	-200.000	-0.012	-0.246
-224.684	-132.650	0.280	-0.035
-223.669	-189.582	0.124	0.001
-222.655	-161.940	-0.112	0.006
-221.640	-129.479	-0.438	0.060
-220.625	-11.547	-0.175	0.113
-219.611	-179.300	-0.385	-0.008
-218.596	-105.043	0.289	0.065
-217.582	297.850	-0.054	-0.098
-216.567	800.000	-0.079	0.277
-215.552	19.105	-0.134	0.106
-214.538	-165.944	0.389	-0.016
-213.523	325.887	-0.225	-0.422
-212.509	800.000	0.090	-0.348
-211.494	-6.429	0.175	0.117
-210.479	-34.303	0.146	-0.079
-209.465	-36.396	0.251	-0.133
-208.450	-12.307	-0.032	0.021
-207.436	116.156	0.197	-0.237
-206.421	-164.861	-0.217	0.010
-205.406	-200.000	0.031	-0.138
-204.392	800.000	0.049	0.178
-203.377	91.218	-0.178	0.196
-202.363	-200.000	-0.002	0.015
-201.348	-175.884	0.139	-0.004
-200.333	-37.188	-0.172	0.090
-199.319	-38.185	0.174	0.090
-198.304	-200.000	0.069	-0.337
-197.290	573.866	0.066	-0.159
-196.275	650.279	-0.093	0.233
-195.260	-200.000	-0.019	0.252
-194.246	338.418	-0.079	0.151
-193.231	-175.887	0.093	-0.002
-192.217	275.676	0.082	0.143
-191.202	376.068	-0.055	0.109
-190.187	307.422	-0.073	-0.133
-189.173	111.918	0.203	-0.241
-188.158	-172.843	-0.221	0.007
-187.144	702.013	0.009	0.025
-186.129	-6.851	-0.269	-0.180
-185.114	-200.000	0.056	0.321
-184.100	-96.591	-0.015	0.004
-183.085	-74.971	0.098	-0.034
-182.071	-200.000	0.348	-0.002
-181.056	-114.374	-0.179	0.034
-180.042	-29.989	0.122	0.068
-179.027	203.710	0.046	0.070
-178.012	-200.000	0.016	0.214
-176.998	-127.976	0.030	-0.004
-175.983	800.000	0.040	-0.117
-174.969	513.786	-0.037	0.084
-173.954	-96.289	0.208	-0.054
-172.939	433.615	0.040	0.086
-171.925	157.964	0.119	0.162
-170.910	535.226	-0.074	0.173
-169.896	-47.772	-0.044	0.021
-168.881	-76.653	-0.130	-0.045
-167.866	-200.000	0.062	-0.320
-166.852	-59.673	0.240	-0.101
-165.837	800.000	0.079	-0.284
-164.823	-67.325	0.127	-0.049
-163.808	800.000	-0.087	0.328
-162.793	-50.551	0.117	-0.054
-161.779	116.754	-0.039	-0.047
-160.764	30.361	-0.104	0.087
-159.750	238.125	-0.120	0.196
-158.735	260.687	0.070	0.119
-157.720	-180.607	-0.481	-0.010
-156.706	-18.668	0.183	-0.112
-155.691	620.387	0.091	-0.223
-154.677	101.420	0.209	-0.238
-153.662	434.560	-0.067	0.142
-152.647	-61.718	0.255	-0.105
-151.633	800.000	-0.109	-0.327
-150.618	116.883	-0.135	-0.162
-149.604	-200.000	0.014	-0.099
-148.589	-123.103	-0.101	-0.016
-147.574	141.711	0.085	0.110
-146.560	-134.594	0.116	0.014
-145.545	-136.811	-0.254	0.029
-144.531	-186.837	0.277	0.004
-143.516	125.982	0.198	-0.245
-142.502	-134.700	-0.239	-0.029
-141.487	-124.252	0.258	0.040
-140.472	-40.340	-0.366	-0.187
-139.458	-88.238	-0.180	-0.053
-138.443	4.949	0.322	-0.232
-137.429	276.620	-0.087	-0.152
-136.414	-7.367	-0.186	0.123
-135.399	240.061	0.106	0.173
-134.385	46.660	-0.227	-0.206
-133.370	-110.275	0.269	-0.055
-132.356	38.283	0.033	-0.029
-131.341	-47.458	-0.354	-0.169
-130.326	-45.188	0.352	-0.171
-129.312	-89.614	0.182	-0.052
-128.297	544.161	0.046	0.108
-127.283	97.090	-0.318	0.358
-126.268	-200.000	0.007	0.570
-125.253	-114.861	0.339	-0.063
-124.239	800.000	-0.056	0.229
-123.224	-87.877	0.218	0.064
-122.210	147.475	-0.209	0.276
-121.195	-200.000	-0.043	-0.351
-120.180	-110.910	-0.434	-0.087
-119.166	-106.050	0.418	0.092
-118.151	98.155	-0.095	0.107
-117.137	319.913	0.056	-0.104
-116.122	-200.000	-0.013	0.219
-115.107	-200.000	-0.056	-0.364
-114.093	128.464	-0.294	0.367
-113.078	114.810	0.237	-0.283
-112.064	276.146	0.109	0.190
-111.049	625.755	0.220	-0.543
-110.034	-40.254	0.211	0.108
-109.020	-20.411	0.234	0.141
-108.005	-200.000	0.004	-0.166
-106.991	725.828	-0.059	0.154
-105.976	-141.720	0.189	-0.019
-104.962	40.542	0.168	0.148
-103.947	26.962	0.059	0.049
-102.932	370.516	0.057	0.113
-101.918	-92.412	0.102	-0.028
-100.903	48.720	0.184	0.169
-99.889	108.657	-0.087	-0.102
-98.874	-200.000	-0.014	0.219
-97.859	38.597	0.285	0.249
-96.845	800.000	-0.032	0.114
-95.830	556.769	0.101	-0.238
-94.816	-200.000	-0.024	0.219
-93.801	60.860	-0.254	-0.247
-92.786	-25.882	0.290	0.167
-91.772	-81.437	0.218	0.070
-90.757	735.637	-0.215	0.564
-89.743	-200.000	0.017	0.109
-88.728	-200.000	0.062	0.388
-87.713	-171.140	-0.159	0.005
-86.699	-63.788	-0.184	-0.074
-85.684	-181.786	-0.423	-0.008
-84.670	-128.585	0.069	0.010
-83.655	95.592	-0.077	-0.086
-82.640	-110.601	-0.176	0.036
-81.626	-200.000	0.005	0.052
-80.611	437.745	-0.043	-0.091
-79.597	110.574	0.048	-0.057
-78.582	281.851	0.087	0.152
-77.567	-200.000	-0.020	0.166
-76.553	208.700	0.204	0.311
-75.538	-44.063	0.183	0.090
-74.524	800.000	0.063	-0.187
-73.509	-200.000	0.016	0.394
-72.494	-200.000	0.004	-0.132
-71.480	217.852	0.210	0.328
-70.465	19.407	-0.067	-0.052
-69.451	-44.409	0.272	0.133
-68.436	-200.000	-0.002	-0.255
-67.422	-200.000	-0.039	0.475
-66.407	-37.248	-0.168	-0.088
-65.392	800.000	0.052	0.185
-64.378	74.264	-0.116	-0.119
-63.363	-28.854	-0.119	0.067
-62.349	800.000	0.070	0.191
-61.334	0.508	-1.140	-0.796
-60.319	109.710	0.631	0.740
-59.305	271.291	-0.627	-1.079
-58.290	256.775	0.805	1.351
-57.276	-200.000	0.187	1.420
-56.261	-200.000	117.721	641.286
-55.246	480.903	1555.432	3448.254
-54.232	172.678	2732.726	3843.625
-53.217	97.582	2297.133	2578.691
-52.203	35.042	1902.215	1627.401
-51.188	29.124	1697.100	1406.814
-50.173	26.732	1656.178	1354.976
-49.159	46.530	1714.562	1554.056
-48.144	45.558	1727.796	1558.590
-47.130	28.657	1684.134	1392.302
-46.115	26.058	1670.199	1361.143
-45.100	25.998	1664.905	1356.330
-44.086	25.919	1662.861	1354.013
-43.071	25.835	1660.543	1351.443
-42.057	25.869	1657.736	1349.359
-41.042	25.935	1655.664	1348.111
-40.027	25.937	1653.536	1346.338
-39.013	25.857	1651.636	1344.142
-37.998	25.873	1650.360	1343.170
-36.984	25.837	1649.241	1341.942
-35.969	25.924	1647.807	1341.368
-34.954	26.112	1645.533	1340.857
-33.940	26.054	1643.961	1339.098
-32.925	26.010	1642.750	1337.731
-31.911	26.146	1640.763	1337.064
-30.896	26.010	1639.246	1334.770
-29.881	26.037	1637.654	1333.619
-28.867	26.060	1636.070	1332.444
-27.852	26.095	1634.361	1331.258
-26.838	26.099	1633.203	1330.294
-25.823	26.117	1631.833	1329.259
-24.809	26.085	1630.604	1327.970
-23.794	26.021	1629.384	1326.453
-22.779	26.127	1627.140	1325.349
-21.765	26.082	1626.211	1324.212
-20.750	26.061	1624.030	1322.226
-19.736	26.115	1623.003	1321.738
-18.721	26.073	1621.517	1320.165
-17.706	26.066	1620.094	1318.902
-16.692	26.053	1618.449	1317.417
-15.677	26.202	1616.775	1317.092
-14.663	26.170	1615.245	1315.559
-13.648	26.193	1613.697	1314.411
-12.633	26.143	1612.001	1312.616
-11.619	26.195	1611.101	1312.211
-10.604	26.114	1609.298	1310.097
-9.590	26.083	1608.529	1309.193
-8.575	26.116	1606.929	1308.083
-7.560	26.095	1605.697	1306.871
-6.546	26.096	1604.385	1305.763
-5.531	26.037	1603.503	1304.565
-4.517	26.066	1602.658	1304.035
-3.502	26.097	1600.960	1302.823
-2.487	26.169	1599.468	1302.077
-1.473	25.726	1587.732	1289.299
-0.458	22.858	1568.729	1253.494
0.556	21.288	1569.908	1221.194
1.571	19.016	1593.209	1223.069
2.586	18.412	1605.989	1228.442
3.600	16.808	1551.265	1175.359
4.615	10.620	1444.734	1054.455
5.629	5.029	1385.960	976.535
6.644	4.019	1378.648	965.002
7.659	4.052	1377.288	964.175
8.673	4.085	1376.792	963.944
9.688	4.235	1374.437	963.143
10.702	3.991	1371.952	959.803
11.717	6.672	1376.596	979.630
12.731	14.033	1389.759	1034.897
13.746	20.647	1400.861	1084.446
14.761	22.550	1403.212	1098.041
15.775	21.968	1401.390	1092.891
16.790	21.212	1398.602	1085.923
17.804	20.360	1396.792	1079.126
18.819	20.167	1395.232	1076.628
19.834	20.125	1394.364	1075.606
20.848	20.037	1393.841	1074.558
21.863	19.879	1392.857	1072.725
22.877	19.812	1391.337	1071.047
23.892	19.772	1390.239	1069.857
24.907	19.688	1389.665	1068.803
25.921	19.657	1388.719	1067.786
26.936	19.742	1387.309	1067.136
27.950	19.775	1386.434	1066.572
28.965	19.802	1385.839	1066.186
29.980	19.918	1385.043	1066.194
30.994	20.047	1383.893	1066.005
32.009	20.165	1382.820	1065.812
33.023	20.062	1381.715	1064.231
34.038	19.971	1380.444	1062.600
35.053	19.907	1378.879	1060.909
36.067	19.824	1377.933	1059.578
37.082	19.869	1377.111	1059.130
38.096	19.933	1376.081	1058.634
39.111	19.934	1375.186	1057.858
40.126	19.814	1374.382	1056.416
41.140	19.637	1373.049	1054.219
42.155	19.438	1372.411	1052.418
43.169	19.292	1372.376	1051.412
44.184	19.277	1372.327	1051.189
45.199	19.323	1371.956	1051.093
46.213	19.530	1371.166	1051.651
47.228	19.712	1370.620	1052.248
48.242	19.751	1369.528	1051.555
49.257	19.817	1368.149	1050.807
50.271	19.768	1366.557	1049.192
51.286	19.718	1365.748	1048.176
52.301	19.695	1364.387	1046.895
53.315	19.554	1363.316	1045.132
54.330	19.441	1361.759	1043.160
55.344	19.446	1360.941	1042.473
56.359	19.398	1359.707	1041.144
57.374	19.441	1358.571	1040.440
58.388	19.296	1357.993	1039.035
59.403	19.089	1357.777	1037.527
60.417	19.206	1356.633	1037.265
61.432	19.163	1355.862	1036.327
62.447	18.998	1355.097	1034.656
63.461	19.072	1353.422	1033.731
64.476	19.043	1352.572	1032.815
65.490	19.111	1351.403	1032.239
66.505	19.043	1349.863	1030.568
67.520	19.156	1348.515	1030.123
68.534	19.101	1347.569	1028.978
69.549	19.017	1346.857	1027.844
70.563	18.927	1345.960	1026.529
71.578	18.902	1344.332	1025.050
72.593	18.785	1343.734	1023.805
73.607	18.765	1343.065	1023.085
74.622	18.850	1341.865	1022.587
75.636	18.910	1341.301	1022.422
76.651	18.890	1340.858	1021.874
77.666	18.913	1340.865	1021.928
78.680	19.029	1339.944	1021.825
79.695	19.128	1339.293	1021.823
80.709	19.344	1338.082	1022.094
81.724	19.399	1337.922	1022.204
82.739	19.453	1337.123	1021.824
83.753	19.694	1336.222	1022.469
84.768	19.853	1335.582	1022.830
85.782	19.966	1334.621	1022.670
86.797	19.922	1333.357	1021.351
87.812	19.804	1332.244	1019.715
88.826	19.728	1330.863	1018.118
89.841	19.961	1329.513	1018.367
90.855	20.013	1328.808	1018.045
91.870	19.917	1328.635	1017.258
92.884	20.011	1327.473	1016.825
93.899	20.104	1326.730	1016.716
94.914	20.002	1326.495	1015.845
95.928	20.064	1325.452	1015.319
96.943	19.919	1324.631	1013.754
97.957	19.920	1323.258	1012.619
98.972	19.972	1321.966	1011.845
99.987	19.940	1321.330	1011.082
101.001	19.938	1320.475	1010.328
102.016	19.938	1319.648	1009.602
103.030	19.917	1318.595	1008.586
104.045	19.960	1317.565	1007.960
105.060	19.789	1316.450	1006.025
106.074	19.483	1314.570	1002.722
107.089	19.091	1313.017	999.171
108.103	19.142	1311.537	998.250
109.118	19.163	1310.111	997.201
110.133	19.119	1308.978	995.997
111.147	19.202	1307.536	995.286
112.162	19.203	1306.537	994.444
113.176	19.255	1305.694	994.016
114.191	19.368	1304.576	993.728
115.206	19.274	1303.594	992.349
116.220	19.320	1302.136	991.420
117.235	19.216	1301.142	989.979
118.249	19.083	1299.851	988.144
119.264	19.145	1298.589	987.451
120.279	18.931	1297.958	985.659
121.293	18.967	1296.558	984.711
122.308	18.965	1295.414	983.747
123.322	18.771	1294.568	981.908
124.337	18.737	1293.375	980.724
125.352	18.845	1291.965	980.180
126.366	18.728	1291.249	978.887
127.381	18.756	1290.117	978.099
128.395	18.723	1289.057	977.020
129.410	18.847	1288.274	977.045
130.424	18.947	1287.989	977.310
131.439	19.145	1287.109	977.683
132.454	19.318	1285.723	977.524
133.468	19.158	1285.444	976.321
134.483	19.284	1284.690	976.374
135.497	19.267	1283.638	975.393
136.512	19.215	1282.742	974.330
137.527	19.311	1281.509	973.853
138.541	19.344	1280.089	972.871
139.556	19.547	1278.739	972.904
140.570	19.598	1277.551	972.201
141.585	19.599	1276.694	971.466
142.600	19.577	1276.276	970.939
143.614	19.898	1275.048	971.722
144.629	19.869	1274.676	971.189
145.643	19.801	1273.268	969.649
146.658	19.668	1271.745	967.658
147.673	19.533	1270.469	965.846
148.687	19.337	1269.339	963.808
149.702	19.301	1267.494	962.121
150.716	19.360	1266.090	961.298
151.731	19.325	1264.784	960.026
152.746	19.287	1264.226	959.306
153.760	19.381	1262.965	958.790
154.775	19.459	1261.943	958.362
155.789	19.637	1260.451	958.131
156.804	19.621	1259.722	957.402
157.819	19.655	1259.158	957.080
158.833	19.817	1258.833	957.644
159.848	19.871	1258.400	957.529
160.862	19.830	1256.541	955.804
161.877	19.480	1255.098	952.687
162.892	19.354	1253.798	950.924
163.906	19.237	1253.268	949.789
164.921	19.290	1252.131	949.136
165.935	19.386	1251.324	948.971
166.950	19.584	1250.786	949.566
167.964	19.395	1250.391	948.144
168.979	19.489	1249.157	947.638
169.994	19.512	1248.403	947.112
171.008	19.428	1248.169	946.388
172.023	19.535	1247.150	946.119
173.037	19.794	1246.601	947.036
174.052	19.729	1245.697	945.914
175.067	19.501	1244.033	943.317
176.081	19.260	1243.238	941.314
177.096	19.329	1242.088	940.737
178.110	19.449	1241.245	940.668
179.125	19.419	1240.267	939.680
180.140	19.541	1239.035	939.330
181.154	19.634	1238.147	939.081
182.169	19.705	1237.043	938.547
183.183	19.785	1235.941	938.060
184.198	19.793	1234.923	937.246
185.213	19.893	1233.662	936.748
186.227	19.831	1232.823	935.692
187.242	20.009	1231.810	935.800
188.256	20.069	1231.196	935.580
189.271	20.053	1230.006	934.505
190.286	19.797	1228.860	932.173
191.300	19.477	1227.223	929.123
192.315	19.292	1226.727	927.673
193.329	19.393	1225.807	927.435
194.344	19.452	1225.558	927.483
195.359	19.490	1225.091	927.253
196.373	19.591	1224.618	927.355
197.388	19.747	1224.533	928.042
198.402	19.996	1224.222	929.065
199.417	20.238	1223.561	929.777
200.432	20.246	1222.934	929.258
201.446	20.295	1222.556	929.153
202.461	20.465	1221.785	929.395
203.475	20.499	1220.386	928.429
204.490	20.013	1219.619	925.169
205.504	19.979	1217.678	923.431
206.519	19.800	1216.651	921.621
207.534	19.768	1215.176	920.253
208.548	19.871	1214.132	919.925
209.563	19.891	1213.544	919.505
210.577	19.843	1212.700	918.531
211.592	19.965	1212.059	918.612
212.607	20.123	1211.651	919.057
213.621	20.116	1210.600	918.143
214.636	20.176	1209.294	917.387
215.650	20.026	1209.235	916.469
216.665	20.267	1207.665	916.470
217.680	20.355	1207.392	916.647
218.694	20.372	1206.377	915.886
219.709	20.348	1205.336	914.886
220.723	20.346	1204.603	914.240
221.738	20.362	1203.549	913.440
222.753	20.241	1203.234	912.484
223.767	20.247	1202.477	911.863
224.782	20.537	1201.972	912.923
225.796	20.551	1201.389	912.474
226.811	20.556	1200.456	911.709
227.826	20.419	1199.242	909.990
228.840	20.265	1198.811	908.773
229.855	20.291	1198.316	908.458
230.869	20.153	1197.836	907.288
231.884	20.263	1196.269	906.598
232.899	20.066	1195.165	904.650
233.913	19.966	1194.664	903.668
234.928	19.907	1193.913	902.713
235.942	19.736	1193.442	901.385
236.957	19.815	1192.556	901.048
237.972	19.876	1191.592	900.556
238.986	19.839	1191.136	899.942
240.001	19.954	1190.012	899.609
241.015	20.059	1189.184	899.449
242.030	20.156	1188.665	899.480
243.045	20.219	1187.892	899.143
244.059	20.245	1187.457	898.870
245.074	20.286	1186.356	898.168
246.088	20.413	1185.844	898.358
247.103	20.512	1185.139	898.258
248.117	20.636	1184.505	898.335
249.132	20.764	1183.970	898.513
250.147	21.004	1183.800	899.541
251.161	21.257	1183.022	900.173
252.176	21.182	1182.380	899.223
253.190	21.341	1181.930	899.617
254.205	21.269	1181.877	899.129
255.220	21.308	1181.150	898.695
256.234	21.437	1179.568	898.074
257.249	21.307	1179.424	897.221
258.263	21.212	1178.685	896.091
259.278	21.282	1177.766	895.670
260.293	21.256	1177.788	895.474
261.307	21.385	1176.918	895.396
262.322	21.418	1176.688	895.310
263.336	21.376	1175.561	894.157
264.351	21.358	1175.186	893.702
265.366	21.472	1174.585	893.748
266.380	21.480	1173.658	893.006
267.395	21.305	1172.735	891.332
268.409	21.078	1172.064	889.582
269.424	21.171	1170.744	888.977
270.439	21.261	1170.247	888.980
271.453	21.128	1169.295	887.498
272.468	21.019	1168.199	886.038
273.482	20.950	1167.463	885.049
274.497	20.940	1167.358	884.839
275.512	20.909	1166.751	884.145
276.526	21.069	1165.326	883.799
277.541	21.046	1164.967	883.328
278.555	21.154	1164.571	883.499
279.570	21.259	1164.343	883.779
280.585	21.399	1163.607	883.851
281.599	21.401	1162.418	882.878
282.614	21.264	1161.037	881.061
283.628	21.226	1159.340	879.503
284.643	21.128	1158.773	878.501
285.657	21.257	1157.752	878.301
286.672	21.112	1157.170	877.050
287.687	21.183	1156.327	876.689
288.701	21.237	1155.449	876.221
289.716	21.244	1154.682	875.596
290.730	21.202	1154.080	874.850
291.745	21.240	1153.533	874.549
292.760	21.323	1153.089	874.550
293.774	21.349	1152.492	874.148
294.789	21.589	1152.222	875.069
295.803	21.352	1151.309	873.113
296.818	21.217	1150.126	871.464
297.833	21.261	1149.220	870.921
298.847	21.349	1148.759	870.933
299.862	21.270	1147.936	869.840
300.876	21.353	1146.739	869.268
301.891	21.358	1146.707	869.190
302.906	21.469	1146.581	869.568
303.920	21.695	1145.870	870.076
304.935	21.658	1145.471	869.512
305.949	21.885	1144.559	869.870
306.964	21.888	1143.501	869.004
307.979	21.719	1142.999	867.710
308.993	21.563	1142.295	866.325
310.008	21.673	1141.450	866.153
311.022	21.811	1140.505	866.039
312.037	21.761	1139.961	865.301
313.052	21.625	1138.872	863.730
314.066	21.403	1137.674	861.649
315.081	21.091	1137.014	859.538
316.095	21.081	1136.255	858.839
317.110	21.199	1135.146	858.502
318.125	21.227	1134.703	858.231
319.139	21.181	1133.766	857.223
320.154	21.285	1132.981	857.062
321.168	21.237	1132.626	856.480
322.183	21.189	1132.033	855.723
323.197	21.234	1131.757	855.656
324.212	21.366	1130.793	855.498
325.227	21.329	1130.762	855.221
326.241	21.338	1130.144	854.721
327.256	21.382	1128.860	853.889
328.270	21.143	1128.091	852.063
329.285	21.354	1126.799	852.043
330.300	21.364	1125.811	851.267
331.314	21.264	1124.997	850.090
332.329	21.449	1123.503	849.784
333.343	21.496	1123.270	849.762
334.358	21.528	1122.307	849.116
335.373	21.630	1121.910	849.232
336.387	21.728	1121.222	849.112
337.402	21.596	1120.762	848.048
338.416	21.808	1120.141	848.531
339.431	21.858	1119.416	848.147
340.446	21.949	1119.300	848.427
341.460	22.024	1118.653	848.221
342.475	22.219	1117.386	848.127
343.489	22.179	1116.766	847.387
344.504	22.337	1115.770	847.321
345.519	22.331	1115.388	846.925
346.533	22.448	1114.218	846.525
347.548	22.494	1113.563	846.173
348.562	22.366	1112.602	844.754
349.577	22.141	1111.579	842.821
350.592	21.875	1110.524	840.673
351.606	21.854	1109.612	839.807
352.621	21.701	1109.132	838.639
353.635	21.916	1107.827	838.607
354.650	21.728	1107.650	837.500
355.665	21.834	1107.132	837.540
356.679	21.882	1106.407	837.145
357.694	21.914	1106.138	837.022
358.708	22.050	1105.548	837.147
359.723	22.029	1104.864	836.454
360.738	22.079	1104.411	836.276
361.752	22.058	1103.475	835.394
362.767	21.962	1102.954	834.471
363.781	22.020	1102.925	834.651
364.796	22.262	1102.118	835.115
365.810	22.397	1101.971	835.571
366.825	22.417	1101.562	835.282
367.840	22.598	1101.078	835.698
368.854	22.672	1100.477	835.518
369.869	22.658	1099.423	834.580
370.883	22.612	1098.294	833.431
371.898	22.493	1097.773	832.398
372.913	22.303	1097.380	831.129
373.927	22.398	1096.771	831.041
374.942	22.587	1096.033	831.300
375.956	22.673	1095.179	830.987
376.971	22.475	1094.974	829.824
377.986	22.588	1094.330	829.794
379.000	22.699	1093.846	829.877
380.015	22.802	1093.719	830.193
381.029	22.794	1093.221	829.703
382.044	22.866	1092.129	829.140
383.059	22.812	1091.044	827.988
384.073	22.791	1090.359	827.296
385.088	22.738	1089.404	826.251
386.102	22.754	1088.446	825.525
387.117	22.606	1087.223	823.835
388.132	22.415	1086.347	822.204
389.146	22.415	1085.285	821.329
390.161	22.444	1084.553	820.836
391.175	22.341	1084.083	819.926
392.190	22.556	1083.542	820.448
393.205	22.799	1082.790	820.935
394.219	22.670	1081.981	819.652
395.234	22.566	1080.279	817.806
396.248	22.370	1079.505	816.238
397.263	22.427	1078.596	815.745
398.278	22.400	1077.943	815.052
399.292	22.215	1077.050	813.450
400.307	22.130	1076.517	812.582
401.321	22.189	1075.829	812.264
402.336	22.124	1075.429	811.588
403.350	22.256	1074.183	811.186
404.365	22.312	1073.769	811.058
405.380	22.391	1072.949	810.732
406.394	22.418	1072.627	810.543
407.409	22.727	1071.936	811.368
408.423	22.901	1071.142	811.496
409.438	22.895	1070.957	811.254
410.453	23.017	1069.829	810.889
411.467	23.156	1069.281	811.041
412.482	23.326	1068.865	811.429
413.496	23.228	1068.383	810.542
414.511	23.138	1068.070	809.825
415.526	23.353	1067.395	810.223
416.540	23.419	1067.078	810.213
417.555	23.338	1066.521	809.347
418.569	23.264	1065.753	808.358
419.584	23.265	1065.130	807.819
420.599	23.264	1064.858	807.535
421.613	158.304	1404.690	1798.732
422.628	145.742	1454.175	1798.810
