DTS Sentinel unit serial number:	SN413079Multiplexer serial number:	ORYXHardware model number:	OX4-SRSoftware version number:	ORYX F/W v4.00 Oryx Data Collector v3.7.2.0data status	okinstallation	princeton_trtdifferential loss correction	single-endedforward channel	channel 2reverse channel	N/Adate	2019/09/14time	16:47:34forward acquisition time	60.00reverse acquisition time	0.00gamma	496.2192k internal	0.2306k external	0.2306temperature offset calibration	1.0120default loss term (dB/km)	0.3790temperature slope calibration	1.0000multiplexer offset coefficient	1.0000multiplexer slope coefficient	1.0000fibre end	0.00T internal ref (°C)	38.00T ext. ref 1 (°C)	5.00T ext. ref 2 (°C)	33.82length (m)	temperature (°C)	Stokes	anti-Stokes-747.200	800.000	-0.125	0.398
-746.185	-13.453	0.163	0.108
-745.171	54.736	0.219	-0.215
-744.156	-38.925	0.025	-0.013
-743.142	24.092	0.041	0.034
-742.127	-169.747	-0.113	-0.004
-741.112	-99.905	0.261	0.066
-740.098	-38.810	0.117	0.063
-739.083	-71.011	0.262	-0.100
-738.069	-72.780	-0.246	0.092
-737.054	-11.222	-0.358	-0.240
-736.039	-116.479	-0.326	-0.061
-735.025	244.329	0.050	0.085
-734.010	800.000	-0.021	0.061
-732.996	-66.157	-0.077	0.031
-731.981	24.578	0.369	-0.311
-730.966	-46.812	-0.431	-0.214
-729.952	-200.000	-0.005	-0.034
-728.937	270.682	-0.131	-0.234
-727.923	151.368	-0.063	0.087
-726.908	6.471	-0.283	-0.213
-725.894	-89.509	-0.452	-0.135
-724.879	-185.759	0.073	-0.001
-723.864	-70.826	0.126	-0.048
-722.850	800.000	0.036	-0.150
-721.835	674.967	0.042	-0.111
-720.821	-128.372	-0.253	0.037
-719.806	78.033	0.112	0.121
-718.791	-109.474	-0.442	-0.095
-717.777	-127.220	0.062	-0.009
-716.762	193.539	-0.104	-0.161
-715.748	-98.825	-0.356	0.092
-714.733	-26.570	0.295	-0.175
-713.718	788.630	-0.036	0.099
-712.704	282.731	0.120	0.218
-711.689	11.102	-0.256	0.199
-710.675	-20.316	-0.156	0.098
-709.660	20.271	-0.597	-0.490
-708.645	-43.198	-0.159	-0.082
-707.631	-32.158	0.438	0.249
-706.616	-28.819	-0.101	-0.059
-705.602	-71.597	0.429	-0.163
-704.587	-71.041	0.128	-0.049
-703.572	-188.351	0.372	0.005
-702.558	-85.865	0.088	-0.028
-701.543	-28.680	-0.098	-0.057
-700.529	26.775	0.204	-0.174
-699.514	-76.691	0.078	0.028
-698.499	-168.628	0.309	0.012
-697.485	217.185	-0.107	0.172
-696.470	-179.847	0.085	0.002
-695.456	606.632	0.052	-0.132
-694.441	22.746	-0.069	0.057
-693.426	260.937	0.185	0.325
-692.412	-200.000	0.030	-0.201
-691.397	-181.409	0.187	0.004
-690.383	800.000	0.039	-0.150
-689.368	-200.000	0.018	-0.186
-688.354	-43.695	-0.121	-0.062
-687.339	470.365	0.099	-0.225
-686.324	-78.305	0.110	0.038
-685.310	800.000	0.080	-0.302
-684.295	-200.000	0.001	0.033
-683.281	-68.082	-0.078	-0.031
-682.266	18.934	0.089	0.073
-681.251	-73.028	0.127	-0.047
-680.237	251.548	-0.145	-0.250
-679.222	290.920	-0.108	0.199
-678.208	-200.000	0.057	0.272
-677.193	324.635	0.057	0.110
-676.178	-6.562	0.213	-0.147
-675.164	56.823	0.111	-0.110
-674.149	429.629	-0.123	-0.269
-673.135	668.871	-0.047	-0.123
-672.120	362.074	-0.061	-0.124
-671.105	-200.000	0.017	0.116
-670.091	42.276	-0.060	-0.055
-669.076	-200.000	0.020	0.432
-668.062	-175.854	0.304	0.008
-667.047	65.038	-0.222	-0.227
-666.032	616.802	-0.083	-0.212
-665.018	77.964	-0.131	-0.141
-664.003	-48.795	-0.110	0.054
-662.989	-118.009	0.146	0.026
-661.974	285.522	0.105	0.193
-660.959	373.483	0.117	0.242
-659.945	497.239	0.035	0.082
-658.930	352.928	0.220	-0.442
-657.916	-180.189	-0.559	-0.012
-656.901	283.214	-0.124	-0.227
-655.886	2.055	-0.206	-0.151
-654.872	-127.655	0.297	-0.044
-653.857	16.763	-0.140	0.113
-652.843	326.353	0.143	-0.277
-651.828	158.708	0.083	-0.118
-650.814	300.594	-0.093	-0.174
-649.799	44.552	-0.176	-0.164
-648.784	208.390	-0.113	-0.180
-647.770	42.874	-0.217	-0.200
-646.755	65.274	0.126	-0.129
-645.741	-60.373	-0.190	0.082
-644.726	173.483	-0.137	-0.200
-643.711	-34.561	0.142	-0.079
-642.697	-61.328	0.290	0.124
-641.682	275.984	0.095	0.171
-640.668	-200.000	0.033	-0.324
-639.653	800.000	-0.032	-0.143
-638.638	462.987	-0.081	0.184
-637.624	-106.122	0.186	0.042
-636.609	387.572	0.035	-0.073
-635.595	-90.832	0.147	0.043
-634.580	-182.222	0.306	0.006
-633.565	-97.968	-0.407	0.106
-632.551	-200.000	-0.001	-0.093
-631.536	-200.000	0.008	-0.133
-630.522	95.222	0.206	-0.237
-629.507	128.336	-0.098	0.127
-628.492	179.028	0.130	-0.193
-627.478	156.802	-0.061	-0.085
-626.463	-101.265	0.225	-0.056
-625.449	108.288	0.129	0.155
-624.434	-200.000	0.037	0.218
-623.419	-69.124	-0.313	0.122
-622.405	-200.000	-0.059	-0.289
-621.390	30.315	0.189	0.163
-620.376	-200.000	0.001	-0.051
-619.361	-200.000	0.026	0.122
-618.346	134.296	0.093	-0.122
-617.332	-21.180	-0.193	-0.120
-616.317	-199.091	-0.301	0.002
-615.303	-200.000	0.072	0.380
-614.288	800.000	0.027	-0.079
-613.273	-21.317	-0.119	0.073
-612.259	-0.422	-0.147	0.105
-611.244	-77.767	0.286	-0.100
-610.230	800.000	0.058	-0.168
-609.215	-139.956	0.166	-0.018
-608.201	-153.173	0.245	0.017
-607.186	-12.642	-0.377	0.249
-606.171	-85.030	0.082	-0.026
-605.157	590.559	-0.139	0.347
-604.142	-200.000	0.009	0.208
-603.128	-153.501	-0.012	0.001
-602.113	-14.634	-0.335	-0.218
-601.098	-106.652	-0.088	-0.020
-600.084	50.564	0.044	0.042
-599.069	104.749	-0.172	0.205
-598.055	-200.000	0.011	-0.073
-597.040	147.914	-0.061	-0.083
-596.025	-167.058	0.269	-0.011
-595.011	-200.000	0.015	-0.083
-593.996	-148.451	-0.185	0.015
-592.982	88.982	0.112	-0.126
-591.967	-102.294	-0.101	0.025
-590.952	-4.904	-0.190	-0.132
-589.938	-110.462	-0.182	0.038
-588.923	59.169	-0.017	-0.017
-587.909	-192.679	-0.413	-0.004
-586.894	-9.471	-0.275	0.186
-585.879	-51.782	-0.142	0.067
-584.865	229.939	-0.008	0.014
-583.850	-200.000	0.031	-0.327
-582.836	342.225	0.155	-0.307
-581.821	800.000	0.051	-0.169
-580.806	-17.970	0.128	-0.081
-579.792	204.440	-0.208	0.326
-578.777	35.088	0.138	-0.122
-577.763	-200.000	0.019	0.160
-576.748	-71.668	-0.121	-0.046
-575.733	-102.308	0.132	0.032
-574.719	-200.000	0.054	-0.298
-573.704	148.999	0.196	-0.268
-572.690	166.903	0.065	-0.093
-571.675	-200.000	-0.024	0.185
-570.661	60.152	0.063	0.063
-569.646	513.899	-0.078	0.185
-568.631	85.464	-0.173	0.192
-567.617	-118.610	0.200	0.036
-566.602	-91.155	-0.041	0.012
-565.588	-50.560	-0.179	-0.085
-564.573	38.948	0.213	-0.192
-563.558	-200.000	0.012	0.187
-562.544	-90.099	0.150	-0.044
-561.529	-8.450	0.059	0.040
-560.515	-74.262	0.475	-0.174
-559.500	-139.113	0.107	-0.012
-558.485	320.038	-0.003	0.005
-557.471	-177.872	-0.361	-0.009
-556.456	800.000	0.057	-0.243
-555.442	640.741	0.062	0.159
-554.427	-4.801	0.159	-0.111
-553.412	-95.710	-0.242	0.065
-552.398	-14.612	-0.284	0.184
-551.383	-57.944	-0.263	-0.116
-550.369	88.053	-0.128	0.143
-549.354	800.000	-0.070	0.201
-548.339	800.000	-0.096	0.383
-547.325	-200.000	-0.006	0.057
-546.310	14.920	-0.238	0.188
-545.296	-200.000	0.015	-0.303
-544.281	-141.530	-0.249	-0.025
-543.266	-200.000	-0.040	0.409
-542.252	-18.965	0.242	0.152
-541.237	32.487	-0.146	0.127
-540.223	-110.668	-0.302	-0.063
-539.208	140.046	-0.071	-0.094
-538.193	-75.279	0.027	0.010
-537.179	170.853	-0.152	-0.220
-536.164	-80.037	0.147	-0.050
-535.150	-117.894	-0.374	-0.068
-534.135	-94.214	-0.225	-0.062
-533.121	-78.276	0.238	-0.082
-532.106	-200.000	-0.017	-0.092
-531.091	-200.000	0.045	0.256
-530.077	800.000	-0.055	0.187
-529.062	-147.389	0.076	-0.007
-528.048	-137.597	-0.072	-0.008
-527.033	106.103	0.071	0.085
-526.018	-61.216	-0.253	0.108
-525.004	258.909	0.159	-0.276
-523.989	-13.060	-0.053	-0.035
-522.975	-90.218	0.320	0.094
-521.960	230.044	0.108	0.178
-520.945	94.092	-0.242	-0.276
-519.931	745.259	-0.039	-0.105
-518.916	-200.000	0.058	0.380
-517.902	98.904	-0.100	-0.116
-516.887	-102.396	0.232	0.056
-515.872	-200.000	-0.000	0.222
-514.858	32.861	0.283	0.247
-513.843	-85.458	-0.032	-0.010
-512.829	-105.583	0.123	-0.028
-511.814	-146.796	0.049	0.004
-510.799	56.627	-0.134	-0.131
-509.785	-31.031	-0.139	-0.079
-508.770	-42.924	-0.068	-0.035
-507.756	-200.000	-0.001	0.138
-506.741	19.664	0.116	-0.094
-505.726	164.293	-0.066	-0.094
-504.712	181.391	-0.197	0.291
-503.697	192.787	-0.210	-0.320
-502.683	263.156	-0.037	-0.064
-501.668	800.000	-0.060	0.182
-500.653	352.212	-0.157	-0.314
-499.639	587.018	-0.033	-0.082
-498.624	-200.000	-0.009	-0.053
-497.610	-32.239	0.320	-0.180
-496.595	12.634	-0.125	-0.097
-495.581	-200.000	0.016	0.349
-494.566	163.743	-0.154	-0.218
-493.551	88.720	0.345	-0.386
-492.537	55.512	-0.144	0.140
-491.522	22.108	-0.111	0.091
-490.508	-1.591	-0.069	0.049
-489.493	-96.468	0.067	-0.018
-488.478	212.237	-0.059	-0.094
-487.464	-71.506	-0.118	-0.044
-486.449	10.903	-0.132	-0.101
-485.435	-108.701	0.450	0.097
-484.420	217.121	-0.149	0.238
-483.405	-134.950	-0.366	-0.045
-482.391	413.314	-0.089	-0.190
-481.376	-163.365	-0.162	-0.008
-480.362	437.252	-0.056	-0.123
-479.347	-37.963	-0.319	0.171
-478.332	800.000	0.011	0.041
-477.318	-12.699	0.307	0.201
-476.303	-200.000	-0.061	0.345
-475.289	-200.000	-0.048	-0.229
-474.274	32.086	-0.204	0.177
-473.259	750.413	0.166	0.451
-472.245	50.593	0.061	0.058
-471.230	-200.000	0.106	-0.789
-470.216	-200.000	-0.018	-0.239
-469.201	-200.000	0.013	0.089
-468.186	-103.975	-0.181	0.043
-467.172	-200.000	-0.032	-0.311
-466.157	170.499	0.051	-0.073
-465.143	87.609	-0.117	-0.131
-464.128	-78.953	0.181	0.062
-463.113	-200.000	0.008	-0.104
-462.099	-162.387	0.582	0.029
-461.084	29.023	-0.206	-0.176
-460.070	-200.000	0.001	-0.131
-459.055	-200.000	0.035	-0.288
-458.040	76.632	-0.022	0.023
-457.026	30.225	-0.057	-0.049
-456.011	358.602	-0.075	0.151
-454.997	15.337	-0.107	0.085
-453.982	-40.726	-0.218	0.113
-452.968	445.453	0.060	-0.132
-451.953	-72.507	-0.433	-0.161
-450.938	-178.124	0.303	0.007
-449.924	146.692	-0.213	0.287
-448.909	46.665	-0.102	0.095
-447.895	-200.000	0.004	-0.047
-446.880	97.254	0.089	0.103
-445.865	365.839	-0.178	0.360
-444.851	-94.565	0.383	-0.105
-443.836	800.000	0.095	0.288
-442.822	302.328	0.103	0.192
-441.807	34.453	-0.069	-0.061
-440.792	64.324	0.246	-0.249
-439.778	42.353	0.399	0.364
-438.763	-75.072	-0.384	-0.138
-437.749	-200.000	-0.030	0.139
-436.734	578.034	0.105	-0.259
-435.719	-32.937	-0.130	0.073
-434.705	111.831	-0.179	-0.217
-433.690	97.642	0.287	-0.332
-432.676	45.237	0.161	-0.149
-431.661	374.990	0.085	0.175
-430.646	800.000	-0.050	0.201
-429.632	-200.000	0.002	-0.056
-428.617	-200.000	-0.036	0.171
-427.603	300.784	-0.106	0.197
-426.588	-200.000	-0.038	-0.217
-425.573	19.457	-0.452	0.365
-424.559	-200.000	0.042	0.186
-423.544	-200.000	0.005	0.090
-422.530	319.329	0.136	-0.260
-421.515	-79.747	-0.314	-0.106
-420.500	147.839	-0.056	0.076
-419.486	-76.607	0.261	-0.092
-418.471	86.349	-0.430	-0.476
-417.457	304.892	-0.115	-0.214
-416.442	16.448	-0.163	-0.129
-415.428	-105.434	0.412	-0.094
-414.413	-200.000	-0.058	-0.279
-413.398	-84.447	-0.337	-0.107
-412.384	168.589	0.057	0.081
-411.369	-200.000	0.044	0.220
-410.355	-107.084	-0.172	-0.038
-409.340	-112.056	-0.241	0.049
-408.325	308.102	-0.171	0.321
-407.311	-200.000	-0.009	0.120
-406.296	-44.531	-0.184	-0.092
-405.282	-200.000	0.012	-0.197
-404.267	800.000	-0.044	0.148
-403.252	-8.292	-0.243	-0.164
-402.238	68.445	0.120	-0.124
-401.223	-200.000	0.021	0.136
-400.209	48.306	0.060	0.056
-399.194	-90.974	-0.298	0.086
-398.179	-200.000	0.004	0.116
-397.165	-200.000	-0.027	0.155
-396.150	111.142	0.234	0.283
-395.136	-200.000	0.006	-0.071
-394.121	-200.000	0.013	0.302
-393.106	-86.827	0.298	0.091
-392.092	275.779	0.075	-0.133
-391.077	-40.585	0.239	-0.124
-390.063	800.000	0.082	-0.286
-389.048	-116.174	0.113	-0.021
-388.033	-200.000	-0.008	0.222
-387.019	349.132	-0.115	-0.228
-386.004	-110.446	-0.354	0.074
-384.990	-200.000	-0.017	-0.138
-383.975	0.477	0.158	-0.114
-382.960	260.837	0.184	0.319
-381.946	-137.632	0.211	0.024
-380.931	-98.369	-0.353	-0.091
-379.917	-16.213	0.286	-0.182
-378.902	62.125	0.069	-0.069
-377.888	-60.324	0.319	0.136
-376.873	-71.161	-0.230	0.086
-375.858	-41.370	0.465	0.240
-374.844	-178.986	-0.230	0.005
-373.829	-195.337	0.169	0.001
-372.815	-68.241	0.231	-0.090
-371.800	-200.000	0.006	0.088
-370.785	-132.582	0.129	0.017
-369.771	-200.000	-0.013	0.155
-368.756	760.888	-0.103	-0.280
-367.742	-72.551	-0.277	0.103
-366.727	-40.952	-0.256	0.133
-365.712	800.000	-0.088	-0.365
-364.698	-200.000	-0.020	-0.243
-363.683	-200.000	0.068	0.558
-362.669	-105.766	0.419	0.095
-361.654	-135.269	0.350	-0.042
-360.639	800.000	-0.114	0.449
-359.625	800.000	-0.080	-0.223
-358.610	-146.806	0.191	0.016
-357.596	47.391	-0.117	-0.110
-356.581	-89.118	0.329	-0.098
-355.566	-200.000	-0.043	0.322
-354.552	800.000	0.041	-0.164
-353.537	44.557	-0.360	-0.332
-352.523	-200.000	-0.024	-0.111
-351.508	-200.000	-0.008	-0.101
-350.493	-200.000	0.022	-0.139
-349.479	-159.240	-0.104	-0.006
-348.464	97.045	-0.156	0.180
-347.450	-200.000	-0.022	-0.423
-346.435	114.956	0.090	-0.110
-345.420	-134.337	0.259	-0.032
-344.406	-161.434	0.442	-0.023
-343.391	-200.000	0.031	0.231
-342.377	625.646	-0.012	0.030
-341.362	-77.339	-0.213	-0.074
-340.348	-69.772	0.154	-0.059
-339.333	248.736	-0.085	0.145
-338.318	271.787	-0.065	0.115
-337.304	213.295	0.102	-0.161
-336.289	162.598	-0.084	0.117
-335.275	-104.279	0.123	0.029
-334.260	800.000	-0.048	-0.138
-333.245	-17.743	0.134	0.084
-332.231	-200.000	0.016	0.138
-331.216	221.882	0.086	0.138
-330.202	-200.000	0.012	0.330
-329.187	-109.292	-0.199	-0.042
-328.172	47.052	0.232	-0.216
-327.158	-200.000	-0.007	0.178
-326.143	206.662	0.031	0.049
-325.129	-200.000	0.016	0.085
-324.114	-21.321	-0.053	-0.032
-323.099	649.661	-0.045	0.115
-322.085	800.000	0.055	-0.203
-321.070	-99.842	0.164	0.041
-320.056	-75.528	-0.269	0.096
-319.041	-140.391	-0.298	-0.031
-318.026	52.613	-0.014	-0.014
-317.012	3.836	-0.120	-0.088
-315.997	-112.778	0.134	-0.027
-314.983	-44.963	0.361	-0.180
-313.968	71.522	0.173	-0.179
-312.953	-200.000	0.005	-0.256
-311.939	66.694	-0.233	-0.237
-310.924	-57.997	0.023	0.010
-309.910	800.000	0.140	-0.463
-308.895	139.159	0.219	0.288
-307.880	193.264	0.217	0.328
-306.866	296.137	0.060	0.110
-305.851	199.532	-0.136	0.209
-304.837	135.041	0.189	-0.245
-303.822	168.406	0.157	0.224
-302.807	-200.000	-0.098	-0.466
-301.793	49.671	-0.097	0.092
-300.778	-52.135	-0.218	0.101
-299.764	-200.000	0.024	0.128
-298.749	-95.202	-0.168	0.045
-297.735	70.665	-0.137	-0.142
-296.720	800.000	0.033	-0.134
-295.705	-94.674	0.387	0.105
-294.691	-200.000	-0.005	0.332
-293.676	-160.719	0.237	-0.013
-292.662	126.018	-0.175	-0.221
-291.647	-84.339	-0.312	0.099
-290.632	101.829	0.051	0.060
-289.618	800.000	0.071	-0.286
-288.603	535.850	-0.075	0.179
-287.589	-200.000	-0.015	-0.101
-286.574	19.485	-0.377	0.303
-285.559	-96.743	-0.146	-0.038
-284.545	-141.931	0.140	-0.014
-283.530	-112.746	-0.132	0.026
-282.516	88.972	0.117	-0.130
-281.501	-94.597	-0.140	0.038
-280.486	-200.000	0.036	-0.208
-279.472	342.859	0.035	0.069
-278.457	-3.902	0.080	0.055
-277.443	-22.375	-0.283	-0.171
-276.428	-87.503	0.070	0.021
-275.413	315.805	-0.031	0.059
-274.399	83.609	0.139	0.152
-273.384	-200.000	-0.016	-0.273
-272.370	-86.918	-0.248	0.075
-271.355	-81.135	0.295	-0.097
-270.340	-94.352	-0.322	0.088
-269.326	-190.405	0.244	-0.003
-268.311	361.674	-0.163	-0.327
-267.297	-181.227	0.225	0.004
-266.282	800.000	0.135	-0.411
-265.267	-74.786	0.162	0.058
-264.253	-200.000	0.007	-0.185
-263.238	-105.933	-0.371	-0.083
-262.224	35.321	0.165	0.144
-261.209	-43.362	0.143	-0.072
-260.195	-200.000	-0.006	0.311
-259.180	-159.575	-0.078	0.004
-258.165	-140.043	-0.506	0.053
-257.151	-123.798	-0.049	-0.008
-256.136	800.000	0.076	-0.223
-255.122	-200.000	-0.038	0.244
-254.107	800.000	-0.073	0.251
-253.092	205.066	0.104	0.161
-252.078	-42.061	0.056	0.029
-251.063	-32.856	0.152	0.084
-250.049	800.000	0.028	-0.091
-249.034	214.819	0.175	-0.276
-248.019	33.343	-0.330	0.286
-247.005	-200.000	-0.006	0.204
-245.990	-24.059	-0.304	0.181
-244.976	-200.000	0.009	0.140
-243.961	203.531	0.070	0.108
-242.946	-90.272	-0.290	0.084
-241.932	-163.356	0.235	-0.011
-240.917	75.015	0.196	0.206
-239.903	-200.000	0.031	-0.161
-238.888	-135.306	0.270	0.032
-237.873	-25.084	0.059	-0.035
-236.859	114.420	0.103	0.125
-235.844	-1.544	0.251	0.176
-234.830	-125.831	-0.272	-0.041
-233.815	-200.000	0.084	-0.464
-232.800	-6.683	0.228	-0.155
-231.786	-142.931	-0.226	-0.022
-230.771	-200.000	0.018	0.202
-229.757	-21.769	0.346	-0.210
-228.742	-200.000	-0.019	-0.291
-227.727	69.587	0.268	0.275
-226.713	-23.661	0.283	-0.169
-225.698	-68.393	-0.257	0.100
-224.684	-27.933	0.135	0.078
-223.669	55.203	0.169	0.163
-222.655	-36.759	0.102	0.054
-221.640	-96.274	0.394	0.104
-220.625	800.000	0.048	-0.199
-219.611	616.630	0.148	0.370
-218.596	560.926	0.006	0.014
-217.582	-42.562	-0.311	-0.158
-216.567	800.000	-0.091	0.342
-215.552	-107.800	0.113	-0.025
-214.538	-200.000	0.006	0.061
-213.523	-200.000	-0.019	0.247
-212.509	631.378	0.130	0.329
-211.494	555.850	0.109	0.263
-210.479	421.403	0.084	-0.179
-209.465	-77.061	0.350	-0.122
-208.450	-46.507	0.079	-0.039
-207.436	403.780	-0.111	-0.232
-206.421	-109.696	0.211	-0.044
-205.406	20.941	0.121	-0.097
-204.392	800.000	0.038	0.145
-203.377	-113.385	-0.541	0.106
-202.363	-118.416	-0.238	0.042
-201.348	-128.610	-0.046	0.006
-200.333	-111.474	-0.134	0.027
-199.319	-2.686	-0.223	-0.155
-198.304	468.780	-0.099	0.221
-197.290	-6.828	-0.276	0.187
-196.275	-200.000	0.010	0.075
-195.260	626.619	0.035	0.087
-194.246	-132.749	-0.317	-0.040
-193.231	800.000	-0.045	0.142
-192.217	-200.000	0.010	-0.150
-191.202	-52.676	0.360	-0.165
-190.187	111.327	0.083	-0.100
-189.173	-140.659	0.280	-0.029
-188.158	-26.728	0.284	0.165
-187.144	-200.000	0.031	0.314
-186.129	220.636	-0.107	-0.171
-185.114	551.296	0.065	-0.154
-184.100	238.643	-0.167	0.276
-183.085	-141.506	-0.272	-0.027
-182.071	47.621	0.140	-0.130
-181.056	-74.285	0.183	-0.066
-180.042	7.337	-0.150	0.112
-179.027	-190.756	0.078	0.001
-178.012	800.000	-0.086	-0.260
-176.998	17.869	0.094	0.074
-175.983	-41.393	-0.293	-0.150
-174.969	-150.971	0.465	0.035
-173.954	-200.000	-0.024	0.112
-172.939	-200.000	0.044	0.207
-171.925	285.866	-0.140	-0.251
-170.910	800.000	-0.059	-0.245
-169.896	-16.335	-0.194	0.122
-168.881	-95.240	-0.296	0.079
-167.866	-171.257	0.399	-0.013
-166.852	-98.246	0.209	0.053
-165.837	-200.000	0.013	0.057
-164.823	-70.504	0.226	0.085
-163.808	-200.000	-0.001	-0.445
-162.793	-60.214	0.360	-0.153
-161.779	-31.891	0.239	-0.133
-160.764	230.091	-0.158	0.257
-159.750	-119.407	0.206	0.036
-158.735	-200.000	0.007	-0.043
-157.720	-141.964	0.172	-0.017
-156.706	-92.729	-0.188	0.052
-155.691	-75.772	0.167	-0.059
-154.677	-165.537	0.094	0.004
-153.662	88.623	0.093	-0.103
-152.647	-128.515	0.256	0.036
-151.633	-104.137	-0.277	0.064
-150.618	-200.000	-0.017	-0.155
-149.604	-131.637	0.167	0.022
-148.589	-19.753	-0.183	-0.113
-147.574	800.000	0.068	-0.230
-146.560	800.000	0.067	0.192
-145.545	-14.557	-0.322	0.206
-144.531	-165.810	-0.217	0.009
-143.516	800.000	0.045	0.153
-142.502	-200.000	0.095	-0.549
-141.487	-35.009	-0.157	-0.085
-140.472	797.574	-0.060	-0.164
-139.458	64.525	-0.099	0.099
-138.443	-97.750	-0.140	-0.036
-137.429	22.419	-0.212	0.172
-136.414	137.752	0.054	0.070
-135.399	-200.000	-0.000	-0.249
-134.385	162.659	-0.170	0.237
-133.370	-44.046	-0.233	-0.116
-132.356	-79.290	-0.284	-0.096
-131.341	6.191	-0.354	-0.261
-130.326	286.730	0.192	-0.345
-129.312	-75.320	0.059	-0.021
-128.297	-200.000	0.057	0.304
-127.283	-77.336	-0.195	-0.067
-126.268	-60.226	0.249	0.105
-125.253	25.521	-0.076	0.063
-124.239	800.000	0.074	0.298
-123.224	-65.802	0.103	0.041
-122.210	135.406	-0.182	0.234
-121.195	73.812	0.219	0.228
-120.180	-32.460	-0.097	0.054
-119.166	-200.000	-0.032	0.258
-118.151	-200.000	0.017	0.251
-117.137	60.598	0.113	0.111
-116.122	320.062	-0.126	0.237
-115.107	188.469	-0.106	0.157
-114.093	186.584	0.160	-0.236
-113.078	800.000	-0.043	-0.150
-112.064	-200.000	0.027	-0.257
-111.049	53.575	-0.153	-0.145
-110.034	34.931	0.182	0.158
-109.020	800.000	0.098	0.414
-108.005	-57.773	-0.216	-0.094
-106.991	-89.479	-0.206	-0.060
-105.976	-88.359	-0.066	0.020
-104.962	-200.000	0.000	0.338
-103.947	800.000	0.027	0.085
-102.932	-57.083	-0.129	0.056
-101.918	-200.000	-0.025	0.195
-100.903	800.000	0.060	-0.169
-99.889	257.689	0.138	-0.235
-98.874	-23.969	0.021	-0.013
-97.859	1.797	-0.148	0.106
-96.845	-44.713	0.251	0.124
-95.830	800.000	-0.087	0.282
-94.816	43.076	-0.140	0.127
-93.801	-46.988	-0.086	-0.041
-92.786	800.000	-0.015	-0.066
-91.772	800.000	0.051	0.156
-90.757	-4.782	-0.155	0.106
-89.743	-200.000	-0.013	-0.340
-88.728	-27.586	-0.190	0.109
-87.713	-21.884	-0.243	0.146
-86.699	142.847	0.151	-0.199
-85.684	-200.000	0.034	-0.498
-84.670	86.282	0.250	-0.273
-83.655	-93.429	0.121	0.033
-82.640	-200.000	0.000	0.222
-81.626	-76.147	-0.303	-0.106
-80.611	-142.518	0.239	-0.023
-79.597	-200.000	-0.085	0.415
-78.582	6.624	-0.283	0.209
-77.567	800.000	0.059	-0.169
-76.553	-70.411	-0.182	0.069
-75.538	-200.000	0.010	-0.173
-74.524	-46.196	0.281	0.137
-73.509	-200.000	-0.002	-0.218
-72.494	-48.669	0.107	0.051
-71.480	304.206	0.103	-0.189
-70.465	106.605	-0.354	0.417
-69.451	800.000	0.074	-0.311
-68.436	-143.244	-0.031	-0.003
-67.422	87.789	0.055	0.061
-66.407	114.174	0.079	0.095
-65.392	-103.279	-0.101	0.024
-64.378	-200.000	0.008	-0.191
-63.363	-83.396	0.301	0.096
-62.349	800.000	0.052	-0.147
-61.334	1.884	-0.877	-0.626
-60.319	443.623	-0.235	0.510
-59.305	-200.000	-0.190	-1.295
-58.290	67.560	0.723	0.732
-57.276	748.361	0.574	1.534
-56.261	-200.000	85.626	497.268
-55.246	541.392	1374.904	3243.844
-54.232	185.743	2598.539	3823.420
-53.217	113.749	2341.181	2816.788
-52.203	46.795	1953.189	1796.726
-51.188	40.993	1742.728	1557.793
-50.173	38.352	1697.013	1496.695
-49.159	52.859	1739.421	1646.720
-48.144	56.966	1757.601	1695.676
-47.130	41.050	1717.100	1535.084
-46.115	38.023	1702.461	1498.730
-45.100	37.875	1697.929	1493.550
-44.086	37.874	1695.023	1490.930
-43.071	37.849	1692.616	1488.559
-42.057	37.842	1689.944	1486.096
-41.042	37.815	1688.005	1484.127
-40.027	37.909	1686.101	1483.111
-39.013	37.876	1683.915	1480.881
-37.998	37.822	1682.272	1478.962
-36.984	37.856	1680.920	1477.971
-35.969	37.994	1679.672	1477.865
-34.954	38.031	1677.724	1476.373
-33.940	37.976	1676.190	1474.545
-32.925	38.016	1674.168	1473.015
-31.911	38.045	1672.157	1471.401
-30.896	38.101	1670.351	1470.173
-29.881	38.006	1668.986	1468.206
-28.867	37.923	1667.628	1466.328
-27.852	38.039	1665.862	1465.588
-26.838	38.051	1664.890	1464.764
-25.823	38.009	1663.235	1462.930
-24.809	38.055	1661.481	1461.677
-23.794	38.066	1660.520	1460.854
-22.779	38.072	1658.776	1459.308
-21.765	37.950	1657.707	1457.401
-20.750	37.981	1655.706	1455.811
-19.736	38.045	1654.243	1454.946
-18.721	38.079	1652.792	1453.867
-17.706	38.013	1651.316	1452.021
-16.692	38.012	1649.878	1450.687
-15.677	38.000	1648.567	1449.387
-14.663	38.004	1647.323	1448.267
-13.648	38.027	1646.016	1447.234
-12.633	38.090	1644.191	1446.037
-11.619	38.021	1642.647	1444.107
-10.604	37.954	1641.312	1442.385
-9.590	38.057	1639.693	1441.665
-8.575	38.077	1638.360	1440.581
-7.560	38.116	1637.184	1439.777
-6.546	38.003	1636.079	1437.915
-5.531	37.895	1635.173	1436.267
-4.517	37.935	1633.760	1435.268
-3.502	37.975	1632.909	1434.751
-2.487	38.138	1631.052	1434.265
-1.473	37.892	1619.358	1422.131
-0.458	35.270	1599.685	1385.872
0.556	32.266	1598.628	1349.108
1.571	29.523	1622.156	1348.835
2.586	28.530	1635.640	1352.611
3.600	24.787	1580.607	1280.253
4.615	14.741	1465.565	1119.951
5.629	6.437	1396.709	1013.974
6.644	5.103	1387.689	998.803
7.659	5.033	1386.033	997.073
8.673	4.868	1385.208	995.339
9.688	4.997	1383.305	994.704
10.702	4.912	1380.679	992.191
11.717	8.377	1388.070	1019.563
12.731	17.195	1404.054	1087.921
13.746	21.811	1410.341	1122.311
14.761	20.664	1406.950	1112.185
15.775	19.514	1404.118	1102.506
16.790	18.343	1402.046	1093.312
17.804	17.498	1399.285	1085.675
18.819	17.151	1398.124	1082.470
19.834	16.794	1396.890	1079.144
20.848	16.660	1395.278	1076.949
21.863	16.404	1394.149	1074.358
22.877	16.325	1393.040	1072.903
23.892	16.311	1391.643	1071.642
24.907	16.324	1391.206	1071.296
25.921	16.261	1390.535	1070.283
26.936	16.288	1389.487	1069.553
27.950	16.338	1388.749	1069.206
28.965	16.440	1387.374	1068.702
29.980	16.678	1385.613	1068.751
30.994	16.667	1385.179	1068.252
32.009	16.607	1384.209	1067.032
33.023	16.646	1382.909	1066.180
34.038	16.621	1381.190	1064.603
35.053	16.439	1379.604	1062.144
36.067	16.400	1379.381	1061.630
37.082	16.488	1378.155	1061.145
38.096	16.535	1377.183	1060.603
39.111	16.526	1375.978	1059.522
40.126	16.480	1375.411	1058.702
41.140	16.230	1374.235	1056.140
42.155	16.235	1373.403	1055.439
43.169	16.198	1373.499	1055.187
44.184	16.177	1373.200	1054.732
45.199	16.270	1372.813	1054.926
46.213	16.282	1372.333	1054.534
47.228	16.399	1371.251	1054.342
48.242	16.435	1369.985	1053.498
49.257	16.368	1368.512	1051.859
50.271	16.370	1367.372	1050.897
51.286	16.439	1366.127	1050.280
52.301	16.441	1364.593	1049.019
53.315	16.397	1363.353	1047.702
54.330	16.333	1362.155	1046.292
55.344	16.207	1360.940	1044.486
56.359	16.227	1360.260	1043.996
57.374	16.152	1359.272	1042.682
58.388	15.959	1358.937	1041.136
59.403	16.118	1357.605	1041.007
60.417	16.067	1357.459	1040.486
61.432	16.089	1356.405	1039.725
62.447	16.064	1355.154	1038.521
63.461	16.029	1353.891	1037.241
64.476	15.897	1353.167	1035.784
65.490	16.064	1351.962	1035.796
66.505	16.090	1350.302	1034.590
67.520	16.054	1348.668	1033.027
68.534	16.093	1347.612	1032.365
69.549	16.159	1346.334	1031.702
70.563	15.994	1346.044	1030.376
71.578	16.021	1344.423	1029.214
72.593	15.958	1343.462	1028.000
73.607	15.899	1342.936	1027.150
74.622	15.871	1342.172	1026.300
75.636	15.940	1341.531	1026.140
76.651	15.871	1341.153	1025.341
77.666	15.862	1340.802	1024.928
78.680	15.919	1339.587	1024.256
79.695	15.952	1339.102	1023.996
80.709	16.157	1337.784	1024.141
81.724	16.171	1336.905	1023.459
82.739	16.258	1336.208	1023.362
83.753	16.282	1335.546	1022.914
84.768	16.422	1334.530	1022.889
85.782	16.520	1333.678	1022.740
86.797	16.427	1332.186	1020.946
87.812	16.316	1331.144	1019.383
88.826	16.396	1329.814	1018.758
89.841	16.406	1328.616	1017.810
90.855	16.473	1327.732	1017.448
91.870	16.504	1326.806	1016.831
92.884	16.505	1325.887	1016.047
93.899	16.449	1325.617	1015.411
94.914	16.509	1324.280	1014.660
95.928	16.614	1323.542	1014.630
96.943	16.531	1322.422	1013.188
97.957	16.488	1321.892	1012.433
98.972	16.465	1320.534	1011.169
99.987	16.567	1319.432	1010.841
101.001	16.525	1318.399	1009.712
102.016	16.473	1317.522	1008.639
103.030	16.409	1316.980	1007.754
104.045	16.454	1315.442	1006.756
105.060	16.386	1314.380	1005.451
106.074	16.292	1313.057	1003.788
107.089	16.088	1312.041	1001.714
108.103	16.110	1310.363	1000.473
109.118	16.097	1308.869	999.168
110.133	16.108	1307.856	998.368
111.147	16.157	1306.512	997.548
112.162	16.086	1304.903	995.807
113.176	16.139	1303.992	995.337
114.191	16.191	1303.127	994.895
115.206	16.224	1301.692	993.910
116.220	16.194	1300.813	992.975
117.235	16.153	1299.589	991.711
118.249	16.239	1298.497	991.294
119.264	16.105	1297.597	989.729
120.279	16.051	1296.250	988.299
121.293	16.128	1294.835	987.588
122.308	16.111	1294.007	986.765
123.322	16.031	1292.918	985.383
124.337	15.956	1292.333	984.409
125.352	15.974	1291.377	983.703
126.366	15.868	1290.586	982.391
127.381	16.061	1289.003	982.223
128.395	16.098	1287.914	981.525
129.410	16.050	1287.668	980.969
130.424	16.111	1286.555	980.391
131.439	16.055	1285.807	979.407
132.454	16.156	1284.428	978.855
133.468	16.326	1283.343	978.927
134.483	16.343	1282.438	978.251
135.497	16.292	1281.933	977.484
136.512	16.240	1280.809	976.241
137.527	16.244	1279.819	975.420
138.541	16.277	1278.045	974.175
139.556	16.353	1276.551	973.385
140.570	16.362	1276.150	973.048
141.585	16.356	1274.862	971.945
142.600	16.384	1273.754	971.176
143.614	16.396	1272.826	970.449
144.629	16.579	1271.097	970.093
145.643	16.464	1270.599	968.969
146.658	16.519	1268.727	967.771
147.673	16.284	1267.857	965.675
148.687	16.317	1266.192	964.512
149.702	16.289	1265.072	963.412
150.716	16.233	1263.413	961.747
151.731	16.320	1262.344	961.346
152.746	16.320	1261.222	960.403
153.760	16.346	1260.140	959.644
154.775	16.469	1259.098	959.462
155.789	16.526	1257.900	958.785
156.804	16.350	1257.077	957.080
157.819	16.411	1256.157	956.641
158.833	16.516	1255.486	956.634
159.848	16.748	1254.031	956.756
160.862	16.577	1253.377	955.203
161.877	16.460	1252.295	953.636
162.892	16.344	1250.975	951.895
163.906	16.368	1250.192	951.350
164.921	16.330	1249.510	950.530
165.935	16.405	1248.302	949.949
166.950	16.382	1247.413	949.060
167.964	16.454	1246.610	948.771
168.979	16.429	1246.229	948.253
169.994	16.508	1245.114	947.767
171.008	16.387	1244.293	946.379
172.023	16.599	1243.639	946.984
173.037	16.645	1242.957	946.640
174.052	16.574	1242.163	945.550
175.067	16.510	1240.741	944.032
176.081	16.487	1239.688	943.018
177.096	16.359	1239.365	941.974
178.110	16.474	1237.981	941.480
179.125	16.363	1236.708	939.809
180.140	16.479	1235.490	939.445
181.154	16.547	1234.350	938.874
182.169	16.658	1232.713	938.162
183.183	16.787	1231.364	937.767
184.198	16.748	1230.784	937.026
185.213	16.746	1229.222	935.742
186.227	16.766	1228.310	935.072
187.242	16.651	1227.573	933.798
188.256	16.872	1225.845	933.618
189.271	16.797	1225.476	932.838
190.286	16.698	1223.791	930.933
191.300	16.406	1223.376	928.930
192.315	16.339	1222.849	928.079
193.329	16.473	1221.692	927.851
194.344	16.534	1220.992	927.571
195.359	16.646	1220.521	927.747
196.373	16.702	1220.093	927.645
197.388	16.757	1219.852	927.682
198.402	16.864	1219.544	927.954
199.417	16.961	1218.866	927.883
200.432	17.066	1218.153	927.833
201.446	16.889	1217.429	926.236
202.461	17.105	1216.051	926.282
203.475	17.157	1214.841	925.562
204.490	17.013	1213.711	923.834
205.504	16.778	1212.622	921.647
206.519	16.943	1210.976	921.210
207.534	16.947	1210.203	920.564
208.548	16.922	1208.764	919.248
209.563	16.829	1208.428	918.412
210.577	16.860	1207.551	917.830
211.592	17.069	1206.158	917.820
212.607	17.086	1205.918	917.650
213.621	17.041	1204.884	916.535
214.636	16.977	1204.461	915.787
215.650	17.047	1203.458	915.322
216.665	17.170	1201.692	914.560
217.680	17.092	1201.259	913.730
218.694	17.209	1200.853	913.972
219.709	17.240	1199.547	913.063
220.723	17.253	1198.853	912.525
221.738	17.227	1198.232	911.831
222.753	17.213	1197.502	911.118
223.767	17.222	1196.660	910.445
224.782	17.349	1196.035	910.568
225.796	17.426	1195.485	910.481
226.811	17.311	1195.166	909.541
227.826	17.243	1194.006	908.218
228.840	17.141	1193.444	907.165
229.855	17.312	1192.389	907.193
230.869	17.255	1191.797	906.361
231.884	17.230	1190.992	905.535
232.899	17.271	1189.977	904.903
233.913	17.176	1188.871	903.472
234.928	17.211	1188.345	903.180
235.942	17.092	1187.905	902.132
236.957	17.176	1186.780	901.643
237.972	17.210	1186.175	901.288
238.986	17.162	1185.719	900.606
240.001	17.149	1184.954	899.875
241.015	17.277	1183.893	899.668
242.030	17.253	1183.076	898.841
243.045	17.299	1182.431	898.514
244.059	17.288	1181.465	897.641
245.074	17.349	1180.820	897.397
246.088	17.424	1180.129	897.187
247.103	17.504	1179.091	896.739
248.117	17.368	1178.863	895.771
249.132	17.616	1178.059	896.386
250.147	17.758	1177.515	896.636
251.161	17.809	1176.323	895.920
252.176	17.942	1175.653	896.029
253.190	18.059	1174.740	895.867
254.205	17.927	1174.800	895.143
255.220	17.858	1174.441	894.424
256.234	17.943	1173.611	894.161
257.249	17.977	1172.629	893.512
258.263	17.960	1172.096	892.937
259.278	17.908	1171.384	892.044
260.293	17.908	1170.863	891.567
261.307	17.972	1170.434	891.499
262.322	18.078	1169.619	891.350
263.336	18.087	1168.916	890.781
264.351	18.010	1168.591	890.053
265.366	18.083	1167.654	889.641
266.380	18.052	1167.242	889.086
267.395	17.986	1166.171	887.851
268.409	18.008	1165.454	887.338
269.424	18.005	1164.847	886.782
270.439	18.063	1163.973	886.340
271.453	17.996	1163.096	885.249
272.468	17.992	1161.959	884.282
273.482	17.922	1161.461	883.461
274.497	17.976	1160.748	883.120
275.512	17.960	1160.213	882.553
276.526	17.964	1159.488	881.944
277.541	17.982	1158.764	881.407
278.555	17.932	1158.183	880.631
279.570	18.178	1157.464	881.272
280.585	18.188	1156.797	880.741
281.599	18.241	1155.449	879.911
282.614	18.187	1154.864	879.106
283.628	18.133	1153.455	877.681
284.643	18.114	1152.757	876.974
285.657	18.092	1152.045	876.243
286.672	18.171	1150.864	875.670
287.687	18.108	1150.228	874.785
288.701	18.189	1149.187	874.335
289.716	18.224	1148.456	873.878
290.730	18.152	1147.975	873.067
291.745	18.241	1147.203	872.858
292.760	18.245	1146.675	872.399
293.774	18.406	1145.755	872.438
294.789	18.529	1145.445	872.755
295.803	18.349	1145.010	871.426
296.818	18.248	1144.400	870.374
297.833	18.352	1143.035	869.785
298.847	18.307	1142.025	868.711
299.862	18.375	1141.591	868.653
300.876	18.279	1140.889	867.554
301.891	18.458	1140.532	868.111
302.906	18.533	1139.718	867.794
303.920	18.587	1138.990	867.435
304.935	18.595	1138.369	866.929
305.949	18.806	1137.441	867.211
306.964	18.688	1137.177	866.337
307.979	18.632	1136.193	865.226
308.993	18.461	1136.253	864.333
310.008	18.691	1134.920	864.404
311.022	18.721	1134.022	863.794
312.037	18.709	1132.959	862.846
313.052	18.585	1132.106	861.496
314.066	18.522	1131.162	860.389
315.081	18.502	1130.503	859.708
316.095	18.348	1129.908	858.410
317.110	18.437	1128.916	858.026
318.125	18.517	1128.099	857.729
319.139	18.461	1127.564	856.965
320.154	18.552	1126.830	856.786
321.168	18.482	1126.395	856.032
322.183	18.544	1125.934	855.912
323.197	18.595	1125.306	855.615
324.212	18.680	1124.084	855.033
325.227	18.641	1123.647	854.430
326.241	18.535	1123.268	853.540
327.256	18.572	1122.118	852.775
328.270	18.633	1121.397	852.451
329.285	18.586	1120.241	851.266
330.300	18.595	1119.605	850.751
331.314	18.576	1118.357	849.634
332.329	18.587	1117.800	849.192
333.343	18.684	1116.835	848.861
334.358	18.813	1116.060	848.838
335.373	18.827	1115.531	848.427
336.387	18.869	1114.321	847.638
337.402	18.817	1114.034	847.091
338.416	18.790	1113.501	846.478
339.431	18.869	1112.706	846.184
340.446	19.026	1111.875	846.252
341.460	19.215	1111.128	846.538
342.475	19.048	1110.522	845.183
343.489	19.074	1109.552	844.493
344.504	19.126	1108.540	843.906
345.519	19.200	1107.977	843.762
346.533	19.193	1107.217	843.075
347.548	19.311	1106.271	842.857
348.562	19.197	1105.662	841.762
349.577	19.217	1104.746	841.091
350.592	19.086	1104.103	839.886
351.606	18.961	1103.249	838.550
352.621	18.919	1102.768	837.907
353.635	19.004	1101.645	837.392
354.650	18.944	1101.370	836.819
355.665	18.969	1100.704	836.359
356.679	19.078	1099.713	836.063
357.694	19.103	1099.070	835.620
358.708	19.215	1098.555	835.698
359.723	19.188	1097.983	835.059
360.738	19.133	1097.413	834.284
361.752	19.291	1096.691	834.427
362.767	19.209	1096.298	833.657
363.781	19.273	1095.231	833.083
364.796	19.344	1094.979	833.161
365.810	19.383	1094.566	832.963
366.825	19.472	1093.848	832.772
367.840	19.507	1093.190	832.364
368.854	19.522	1092.902	832.142
369.869	19.587	1091.964	831.666
370.883	19.563	1090.826	830.612
371.898	19.406	1090.126	829.253
372.913	19.454	1089.572	828.985
373.927	19.491	1089.211	828.818
374.942	19.468	1088.842	828.350
375.956	19.625	1088.250	828.581
376.971	19.591	1087.369	827.677
377.986	19.721	1086.470	827.538
379.000	19.566	1086.340	826.627
380.015	19.685	1085.898	826.783
381.029	19.738	1085.215	826.447
382.044	19.735	1084.414	825.749
383.059	19.739	1083.419	824.934
384.073	19.666	1082.679	823.953
385.088	19.836	1082.108	824.256
386.102	19.696	1080.854	822.561
387.117	19.650	1080.098	821.693
388.132	19.619	1078.873	820.542
389.146	19.641	1078.160	820.030
390.161	19.655	1077.626	819.619
391.175	19.691	1076.585	818.923
392.190	19.779	1075.855	818.715
393.205	19.796	1075.460	818.420
394.219	19.814	1074.466	817.679
395.234	19.795	1073.370	816.680
396.248	19.788	1072.166	815.660
397.263	19.633	1071.229	814.144
398.278	19.582	1070.888	813.572
399.292	19.551	1070.205	812.836
400.307	19.698	1069.414	812.853
401.321	19.625	1068.894	812.044
402.336	19.683	1067.777	811.398
403.350	19.721	1067.118	811.005
404.365	19.811	1066.465	810.857
405.380	19.824	1065.849	810.375
406.394	19.759	1065.116	809.442
407.409	19.828	1064.554	809.267
408.423	19.971	1063.911	809.374
409.438	19.969	1063.180	808.737
410.453	20.103	1062.597	808.850
411.467	20.018	1061.946	807.888
412.482	20.089	1061.306	807.660
413.496	20.233	1060.424	807.584
414.511	20.150	1060.037	806.833
415.526	20.166	1059.895	806.731
416.540	20.315	1058.901	806.592
417.555	20.311	1058.619	806.287
418.569	20.236	1057.795	805.240
419.584	20.257	1057.413	804.975
420.599	20.165	1057.050	804.200
421.613	147.518	1399.008	1776.160
422.628	135.454	1448.836	1776.303
