DTS Sentinel unit serial number:	SN413079Multiplexer serial number:	ORYXHardware model number:	OX4-SRSoftware version number:	ORYX F/W v4.00 Oryx Data Collector v3.7.2.0data status	okinstallation	princeton_trtdifferential loss correction	single-endedforward channel	channel 2reverse channel	N/Adate	2019/09/16time	07:35:34forward acquisition time	60.00reverse acquisition time	0.00gamma	496.2192k internal	0.2333k external	0.2333temperature offset calibration	0.9982default loss term (dB/km)	0.3790temperature slope calibration	1.0000multiplexer offset coefficient	1.0000multiplexer slope coefficient	1.0000fibre end	0.00T internal ref (°C)	27.75T ext. ref 1 (°C)	11.66T ext. ref 2 (°C)	24.29length (m)	temperature (°C)	Stokes	anti-Stokes-747.200	247.427	-0.157	-0.267
-746.185	589.603	-0.137	0.340
-745.171	-123.163	0.245	0.039
-744.156	-200.000	0.005	0.126
-743.142	104.209	-0.201	-0.237
-742.127	-200.000	0.017	0.219
-741.112	-200.000	-0.011	-0.147
-740.098	37.355	-0.181	0.162
-739.083	-117.721	0.058	0.010
-738.069	-200.000	0.028	0.468
-737.054	-122.414	-0.035	-0.006
-736.039	800.000	0.063	0.178
-735.025	-154.737	-0.381	0.025
-734.010	118.867	-0.076	-0.094
-732.996	-200.000	0.005	0.184
-731.981	-105.487	-0.133	0.030
-730.966	-38.336	0.041	-0.022
-729.952	-61.692	-0.282	0.119
-728.937	-79.276	0.203	-0.069
-727.923	800.000	-0.045	-0.139
-726.908	-6.297	-0.183	-0.125
-725.894	48.467	-0.119	0.112
-724.879	-73.063	0.080	0.030
-723.864	800.000	0.035	0.140
-722.850	438.425	-0.056	-0.124
-721.835	2.471	-0.090	-0.065
-720.821	-105.984	0.278	0.063
-719.806	800.000	-0.049	0.208
-718.791	-55.905	-0.265	0.119
-717.777	-200.000	0.014	-0.152
-716.762	-75.533	0.164	0.058
-715.748	-39.371	-0.065	-0.034
-714.733	-200.000	0.001	0.241
-713.718	142.922	-0.241	-0.322
-712.704	-59.433	-0.110	0.048
-711.689	-145.361	0.131	0.012
-710.675	79.337	-0.136	-0.147
-709.660	800.000	0.093	-0.354
-708.645	16.220	-0.041	0.032
-707.631	-144.568	0.246	0.023
-706.616	-84.733	-0.404	-0.128
-705.602	229.816	0.179	0.294
-704.587	800.000	-0.080	0.274
-703.572	238.050	-0.173	-0.288
-702.558	131.237	0.091	-0.118
-701.543	-151.906	0.271	0.020
-700.529	800.000	-0.036	-0.117
-699.514	-200.000	0.017	0.410
-698.499	47.927	-0.316	0.297
-697.485	120.667	-0.105	-0.131
-696.470	201.317	-0.189	-0.292
-695.456	-90.441	-0.083	-0.024
-694.441	-200.000	-0.064	0.399
-693.426	-200.000	-0.019	0.351
-692.412	-4.829	0.228	-0.158
-691.397	-129.531	-0.236	-0.033
-690.383	193.020	0.181	0.274
-689.368	-200.000	-0.041	0.191
-688.354	-78.316	0.163	0.056
-687.339	-200.000	-0.016	0.127
-686.324	-32.906	0.109	0.061
-685.310	800.000	0.114	-0.354
-684.295	-200.000	-0.009	-0.243
-683.281	32.990	0.183	-0.159
-682.266	800.000	-0.102	0.352
-681.251	-59.807	-0.080	-0.034
-680.237	528.005	0.027	0.064
-679.222	280.141	-0.157	0.282
-678.208	800.000	-0.019	-0.083
-677.193	-167.475	-0.070	-0.003
-676.178	-145.767	0.253	0.023
-675.164	-101.426	-0.149	0.036
-674.149	-64.546	-0.266	-0.108
-673.135	800.000	0.047	-0.203
-672.120	800.000	-0.153	0.427
-671.105	-200.000	0.009	0.114
-670.091	62.682	-0.306	0.307
-669.076	4.907	-0.249	-0.184
-668.062	247.917	-0.023	0.038
-667.047	144.559	-0.086	-0.115
-666.032	-44.202	0.342	-0.172
-665.018	-200.000	0.030	0.135
-664.003	222.301	-0.093	0.151
-662.989	471.092	-0.063	0.143
-661.974	-200.000	-0.006	-0.034
-660.959	-49.846	0.187	-0.089
-659.945	633.862	0.063	-0.159
-658.930	85.987	-0.115	0.127
-657.916	-200.000	-0.036	-0.410
-656.901	-128.695	-0.213	0.030
-655.886	473.727	-0.107	0.242
-654.872	-200.000	-0.075	0.654
-653.857	68.708	0.048	-0.049
-652.843	-200.000	-0.008	-0.129
-651.828	800.000	-0.120	-0.431
-650.814	62.604	-0.079	-0.079
-649.799	124.771	-0.175	0.220
-648.784	-132.480	0.113	-0.015
-647.770	-166.076	-0.165	0.007
-646.755	105.035	0.076	0.090
-645.741	93.716	-0.147	-0.166
-644.726	-200.000	0.028	-0.190
-643.711	128.835	-0.137	-0.175
-642.697	-44.964	-0.021	-0.011
-641.682	168.947	0.056	-0.080
-640.668	-86.803	-0.257	0.079
-639.653	-138.040	0.173	-0.019
-638.638	-191.999	0.123	0.001
-637.624	115.883	0.059	-0.072
-636.609	800.000	0.066	-0.245
-635.595	-200.000	0.017	0.112
-634.580	163.281	-0.009	0.013
-633.565	40.852	-0.145	-0.131
-632.551	692.103	-0.033	-0.088
-631.536	-200.000	0.003	-0.462
-630.522	-200.000	0.046	-0.359
-629.507	-200.000	0.011	-0.240
-628.492	166.800	-0.094	0.133
-627.478	-200.000	0.024	-0.145
-626.463	159.841	-0.024	0.033
-625.449	-57.628	0.081	0.035
-624.434	-112.091	-0.167	-0.034
-623.419	800.000	-0.073	-0.210
-622.405	-130.977	0.132	-0.018
-621.390	-8.995	-0.179	0.120
-620.376	-165.533	-0.337	0.015
-619.361	-1.806	0.031	0.022
-618.346	-7.675	-0.131	-0.089
-617.332	-200.000	0.024	0.388
-616.317	-27.038	-0.227	-0.133
-615.303	-39.271	0.120	0.063
-614.288	113.860	0.168	0.205
-613.273	29.905	-0.303	0.258
-612.259	-200.000	-0.002	0.133
-611.244	800.000	-0.113	-0.371
-610.230	800.000	0.040	0.126
-609.215	501.575	-0.152	0.350
-608.201	206.131	-0.111	-0.173
-607.186	20.711	-0.061	0.049
-606.171	-200.000	-0.025	-0.238
-605.157	281.938	0.171	-0.306
-604.142	5.882	-0.123	-0.091
-603.128	190.907	-0.120	-0.181
-602.113	-200.000	0.015	0.181
-601.098	-89.022	-0.279	-0.083
-600.084	-200.000	-0.008	0.273
-599.069	-1.810	-0.164	-0.115
-598.055	-145.198	0.057	-0.005
-597.040	68.373	-0.148	-0.151
-596.025	116.478	-0.223	-0.274
-595.011	25.523	0.103	0.086
-593.996	-136.705	0.158	0.018
-592.982	9.338	0.199	0.150
-591.967	596.695	0.080	0.198
-590.952	-105.402	0.332	-0.075
-589.938	125.587	-0.154	0.194
-588.923	22.115	0.226	0.185
-587.909	32.164	-0.271	0.234
-586.894	-113.875	0.421	-0.082
-585.879	-83.652	-0.327	-0.104
-584.865	2.105	0.134	0.097
-583.850	642.326	-0.015	-0.039
-582.836	-20.579	-0.207	0.127
-581.821	96.566	-0.141	0.161
-580.806	-7.188	-0.156	-0.106
-579.792	800.000	-0.015	0.046
-578.777	145.481	-0.083	-0.111
-577.763	800.000	0.098	0.284
-576.748	-200.000	-0.005	0.028
-575.733	-147.841	0.219	-0.018
-574.719	115.095	-0.137	-0.167
-573.704	-141.800	-0.203	-0.020
-572.690	-45.555	-0.065	0.032
-571.675	-55.344	-0.170	0.076
-570.661	35.632	-0.304	-0.267
-569.646	-200.000	-0.020	-0.120
-568.631	-200.000	-0.004	-0.083
-567.617	-122.924	-0.234	0.038
-566.602	-200.000	0.020	-0.221
-565.588	128.396	-0.142	0.180
-564.573	167.153	-0.163	0.231
-563.558	-200.000	0.007	0.132
-562.544	774.200	0.036	0.097
-561.529	800.000	-0.072	0.268
-560.515	-200.000	0.012	-0.250
-559.500	-95.094	-0.359	-0.097
-558.485	-200.000	0.031	0.241
-557.471	52.036	0.207	0.197
-556.456	608.442	-0.062	-0.153
-555.442	-194.633	-0.321	0.003
-554.427	1.994	-0.246	0.177
-553.412	-38.273	0.122	0.065
-552.398	716.769	-0.080	-0.212
-551.383	-37.007	0.235	-0.126
-550.369	-126.377	0.135	0.020
-549.354	-103.617	-0.295	0.069
-548.339	-8.353	0.132	-0.089
-547.325	32.528	-0.168	0.145
-546.310	334.592	0.183	0.354
-545.296	-158.543	-0.342	-0.020
-544.281	243.062	-0.082	-0.137
-543.266	-15.370	0.175	-0.111
-542.252	-43.965	-0.102	-0.051
-541.237	490.962	-0.116	-0.265
-540.223	-200.000	0.053	-0.358
-539.208	-36.259	-0.286	-0.154
-538.193	199.889	-0.035	0.053
-537.179	-200.000	-0.038	-0.168
-536.164	149.767	0.212	-0.286
-535.150	235.057	0.103	0.170
-534.135	643.878	-0.040	0.102
-533.121	-176.318	-0.205	-0.005
-532.106	-112.243	-0.067	0.013
-531.091	-67.333	0.132	-0.052
-530.077	53.146	0.196	-0.187
-529.062	-200.000	0.030	-0.198
-528.048	380.300	0.077	0.158
-527.033	226.174	-0.112	0.181
-526.018	536.458	0.041	0.098
-525.004	800.000	0.054	-0.195
-523.989	-200.000	-0.021	-0.302
-522.975	15.038	-0.310	0.242
-521.960	-200.000	0.053	0.456
-520.945	84.466	-0.100	0.109
-519.931	296.635	0.061	-0.111
-518.916	659.118	0.013	-0.033
-517.902	-112.155	0.599	-0.120
-516.887	220.882	-0.116	0.186
-515.872	-101.984	0.178	-0.043
-514.858	-183.668	-0.374	-0.006
-513.843	-0.114	-0.126	0.089
-512.829	-61.556	-0.231	-0.097
-511.814	-42.389	-0.258	-0.131
-510.799	-200.000	0.073	-0.359
-509.785	689.280	0.030	0.077
-508.770	-63.133	0.451	-0.185
-507.756	800.000	-0.016	0.059
-506.741	-26.495	0.099	0.058
-505.726	-12.105	0.065	-0.043
-504.712	383.214	-0.070	-0.144
-503.697	-200.000	-0.058	0.333
-502.683	-200.000	-0.041	0.200
-501.668	-10.160	-0.306	0.202
-500.653	-200.000	0.026	0.296
-499.639	-126.882	0.073	-0.011
-498.624	2.207	-0.187	-0.135
-497.610	-36.417	-0.271	-0.145
-496.595	-200.000	-0.036	-0.314
-495.581	275.638	-0.059	-0.104
-494.566	626.557	-0.042	-0.106
-493.551	-122.942	-0.385	0.062
-492.537	-47.733	-0.417	-0.202
-491.522	800.000	0.036	-0.099
-490.508	-25.744	0.246	0.144
-489.493	800.000	0.136	-0.565
-488.478	32.090	0.037	0.032
-487.464	-96.681	-0.506	0.133
-486.449	800.000	-0.042	0.162
-485.435	-87.975	0.112	0.034
-484.420	800.000	0.149	0.470
-483.405	-72.960	-0.082	-0.030
-482.391	800.000	0.062	-0.172
-481.376	-94.021	0.130	0.036
-480.362	-200.000	-0.004	-0.091
-479.347	-75.294	-0.243	-0.086
-478.332	170.520	-0.056	-0.080
-477.318	-200.000	0.049	0.240
-476.303	-81.681	-0.052	0.017
-475.289	800.000	0.068	0.208
-474.274	-8.072	0.364	-0.244
-473.259	-69.904	-0.238	0.090
-472.245	-8.731	0.195	0.130
-471.230	-200.000	-0.028	0.168
-470.216	800.000	0.087	0.260
-469.201	-200.000	-0.007	-0.266
-468.186	-166.791	-0.109	0.004
-467.172	-14.988	-0.319	-0.203
-466.157	271.332	-0.083	-0.145
-465.143	-137.656	0.259	0.029
-464.128	-55.407	0.197	-0.088
-463.113	-1.998	-0.177	-0.123
-462.099	-60.845	0.136	-0.057
-461.084	295.753	0.017	-0.031
-460.070	41.790	-0.110	0.099
-459.055	73.447	0.178	-0.186
-458.040	691.557	0.083	0.217
-457.026	-200.000	-0.018	-0.184
-456.011	-76.291	-0.327	0.114
-454.997	-200.000	0.304	0.000
-453.982	78.798	-0.009	0.009
-452.968	-30.642	-0.209	-0.118
-451.953	-45.791	-0.103	-0.051
-450.938	157.993	-0.054	0.074
-449.924	701.020	0.090	0.235
-448.909	241.160	-0.035	0.058
-447.895	-200.000	0.006	-0.193
-446.880	149.970	-0.182	0.246
-445.865	50.082	0.253	-0.237
-444.851	800.000	-0.006	0.024
-443.836	-200.000	0.034	0.172
-442.822	-115.399	-0.226	0.042
-441.807	-36.532	0.118	0.063
-440.792	185.921	0.101	-0.150
-439.778	113.167	0.089	0.108
-438.763	172.361	0.150	-0.214
-437.749	-79.792	0.161	0.054
-436.734	730.647	-0.111	-0.295
-435.719	-34.203	-0.208	-0.113
-434.705	-24.961	-0.251	0.148
-433.690	-78.353	-0.173	0.059
-432.676	524.210	-0.130	-0.304
-431.661	25.640	0.020	0.017
-430.646	-54.781	0.170	-0.076
-429.632	-16.917	-0.107	-0.067
-428.617	-38.989	-0.130	-0.068
-427.603	-85.813	-0.285	-0.088
-426.588	92.551	0.070	0.078
-425.573	35.572	-0.183	0.160
-424.559	0.793	-0.065	0.046
-423.544	17.135	0.049	-0.039
-422.530	-150.833	0.183	-0.014
-421.515	105.976	0.293	0.345
-420.500	43.932	0.192	-0.174
-419.486	-117.999	-0.122	0.022
-418.471	800.000	0.076	-0.260
-417.457	-58.905	0.304	-0.130
-416.442	-46.379	-0.192	-0.094
-415.428	-97.094	-0.158	0.041
-414.413	-96.205	-0.182	-0.048
-413.398	-51.112	0.078	0.036
-412.384	-200.000	-0.105	-0.674
-411.369	-12.721	-0.152	-0.098
-410.355	-200.000	-0.053	0.393
-409.340	800.000	0.060	0.170
-408.325	280.479	0.010	-0.018
-407.311	-195.709	-0.144	-0.001
-406.296	-88.274	-0.114	-0.034
-405.282	-200.000	0.038	0.569
-404.267	-131.826	0.457	0.059
-403.252	121.166	-0.181	0.223
-402.238	-9.559	0.179	0.119
-401.223	47.761	0.132	0.122
-400.209	301.998	0.246	-0.450
-399.194	34.362	0.213	0.184
-398.179	-133.049	-0.242	-0.031
-397.165	126.980	0.072	0.091
-396.150	-100.125	0.114	0.028
-395.136	296.159	0.161	-0.293
-394.121	-182.807	0.284	0.005
-393.106	508.158	-0.007	-0.015
-392.092	-93.553	0.195	0.054
-391.077	157.365	-0.051	0.070
-390.063	-142.173	0.340	0.033
-389.048	800.000	-0.047	0.156
-388.033	-200.000	0.006	0.122
-387.019	17.296	-0.109	0.086
-386.004	219.070	-0.119	-0.189
-384.990	65.170	0.160	-0.160
-383.975	-83.948	-0.194	-0.061
-382.960	-200.000	-0.043	0.273
-381.946	-200.000	0.014	0.299
-380.931	-200.000	-0.223	0.000
-379.917	800.000	-0.086	-0.303
-378.902	280.714	0.105	0.187
-377.888	-122.853	0.304	0.049
-376.873	800.000	-0.060	0.171
-375.858	108.122	-0.112	0.132
-374.844	800.000	0.029	-0.116
-373.829	-107.548	-0.370	-0.080
-372.815	160.528	-0.034	0.047
-371.800	18.945	0.190	0.151
-370.785	-200.000	-0.039	0.402
-369.771	-79.036	0.173	0.058
-368.756	-74.486	-0.107	-0.038
-367.742	166.072	-0.110	-0.155
-366.727	-40.403	0.281	-0.145
-365.712	-27.711	-0.034	-0.019
-364.698	591.348	-0.054	-0.133
-363.683	257.306	-0.173	0.295
-362.669	652.704	0.112	0.284
-361.654	562.064	-0.060	-0.143
-360.639	-200.000	-0.022	-0.222
-359.625	169.915	0.103	0.145
-358.610	414.955	-0.064	0.135
-357.596	-200.000	-0.006	-0.503
-356.581	565.596	-0.060	0.145
-355.566	-146.046	0.239	-0.021
-354.552	-74.667	-0.251	-0.089
-353.537	314.901	0.073	-0.137
-352.523	-156.020	0.246	0.015
-351.508	354.589	-0.084	-0.165
-350.493	-200.000	-0.013	-0.161
-349.479	592.937	0.132	0.324
-348.464	-200.000	0.062	-0.320
-347.450	-151.805	0.133	0.010
-346.435	-200.000	-0.102	0.442
-345.420	349.605	-0.117	0.229
-344.406	-149.642	-0.175	-0.014
-343.391	42.587	0.083	0.074
-342.377	209.292	0.138	-0.214
-341.362	-188.481	0.328	0.004
-340.348	-200.000	0.147	0.000
-339.333	315.992	-0.162	-0.302
-338.318	-30.569	0.115	0.065
-337.304	800.000	-0.116	0.379
-336.289	672.758	0.048	0.123
-335.275	599.340	-0.149	0.365
-334.260	64.961	-0.239	-0.239
-333.245	71.974	-0.045	0.046
-332.231	-174.370	-0.182	0.005
-331.216	192.964	0.106	0.158
-330.202	800.000	0.101	-0.309
-329.187	240.411	0.254	0.419
-328.172	-152.975	-0.317	0.022
-327.158	-200.000	-0.010	0.098
-326.143	-93.582	-0.055	0.015
-325.129	-129.662	0.127	0.017
-324.114	53.367	-0.147	-0.139
-323.099	-74.948	0.055	0.019
-322.085	287.947	0.107	-0.191
-321.070	42.891	-0.175	0.157
-320.056	24.791	-0.150	0.123
-319.041	-0.982	0.019	0.013
-318.026	-200.000	0.055	0.241
-317.012	-200.000	0.039	-0.224
-315.997	-102.949	0.076	0.018
-314.983	-55.506	-0.062	0.028
-313.968	-200.000	0.004	0.078
-312.953	-200.000	-0.002	-0.013
-311.939	-23.450	0.231	0.137
-310.924	-200.000	-0.002	0.208
-309.910	-77.799	0.145	-0.050
-308.895	-159.876	-0.203	0.011
-307.880	10.984	0.468	-0.353
-306.866	14.714	-0.054	0.042
-305.851	-200.000	0.071	0.349
-304.837	-155.520	0.318	-0.020
-303.822	60.792	0.079	-0.078
-302.807	-152.735	-0.178	0.012
-301.793	-200.000	0.018	-0.135
-300.778	-114.415	0.271	0.052
-299.764	69.281	0.300	0.305
-298.749	-200.000	0.017	0.144
-297.735	102.790	0.015	-0.018
-296.720	-200.000	0.040	0.221
-295.705	-200.000	-0.031	-0.303
-294.691	13.347	-0.112	0.086
-293.676	88.268	-0.182	-0.200
-292.662	-176.653	0.213	0.005
-291.647	-86.470	0.230	-0.070
-290.632	800.000	-0.021	0.082
-289.618	-200.000	-0.011	0.141
-288.603	-14.872	-0.348	-0.221
-287.589	84.453	-0.175	-0.189
-286.574	-92.901	-0.293	0.081
-285.559	800.000	0.061	-0.191
-284.545	619.290	-0.177	0.440
-283.530	-146.291	0.411	-0.036
-282.516	-126.139	0.076	-0.011
-281.501	-107.950	-0.130	0.028
-280.486	-38.782	-0.176	0.092
-279.472	-153.965	0.344	-0.023
-278.457	-99.162	0.059	0.015
-277.443	-111.924	0.412	0.082
-276.428	-59.501	-0.195	0.083
-275.413	-126.560	-0.170	-0.025
-274.399	800.000	-0.076	0.255
-273.384	6.684	-0.342	-0.251
-272.370	-113.517	0.362	0.070
-271.355	-200.000	0.024	0.302
-270.340	-81.656	-0.229	-0.074
-269.326	-200.000	0.010	-0.341
-268.311	95.184	0.196	0.220
-267.297	-126.195	0.046	0.007
-266.282	10.992	0.091	-0.069
-265.267	-42.026	0.146	-0.074
-264.253	800.000	-0.042	-0.163
-263.238	-64.628	0.285	-0.114
-262.224	-59.357	0.213	0.090
-261.209	313.785	-0.105	-0.194
-260.195	-200.000	0.058	-0.259
-259.180	800.000	-0.023	0.087
-258.165	-25.780	0.132	-0.077
-257.151	114.657	-0.221	-0.266
-256.136	800.000	-0.012	-0.046
-255.122	-200.000	0.020	0.162
-254.107	-72.684	0.308	-0.112
-253.092	-176.638	0.041	0.001
-252.078	-200.000	-0.042	0.375
-251.063	-200.000	-0.046	0.237
-250.049	175.950	0.241	0.345
-249.034	-97.055	-0.250	-0.065
-248.019	-200.000	-0.018	-0.388
-247.005	132.935	-0.063	-0.081
-245.990	-200.000	-0.014	0.326
-244.976	-118.105	-0.088	-0.016
-243.961	169.378	0.094	-0.133
-242.946	28.675	-0.166	-0.139
-241.932	31.980	0.110	-0.094
-240.917	-59.883	0.055	0.023
-239.903	800.000	-0.055	0.159
-238.888	92.513	0.138	0.154
-237.873	-107.681	-0.029	-0.006
-236.859	-119.648	-0.083	-0.014
-235.844	-200.000	-0.069	0.357
-234.830	245.109	0.157	0.260
-233.815	552.012	0.099	0.234
-232.800	-145.485	0.312	0.028
-231.786	-200.000	-0.002	0.080
-230.771	-75.229	-0.175	0.062
-229.757	-200.000	0.050	0.283
-228.742	47.841	0.098	-0.090
-227.727	-200.000	-0.042	0.327
-226.713	8.402	0.161	-0.119
-225.698	204.215	-0.151	-0.231
-224.684	-134.026	0.269	0.033
-223.669	670.723	-0.113	0.288
-222.655	-200.000	-0.025	-0.140
-221.640	617.367	0.085	-0.209
-220.625	436.698	-0.115	-0.246
-219.611	141.818	0.174	-0.227
-218.596	50.827	-0.144	0.135
-217.582	-98.936	-0.336	-0.084
-216.567	-89.859	0.354	0.102
-215.552	118.154	-0.130	0.158
-214.538	11.934	-0.107	-0.081
-213.523	26.131	0.261	0.215
-212.509	441.328	0.091	0.196
-211.494	-53.370	-0.129	0.058
-210.479	-200.000	-0.016	-0.228
-209.465	-109.406	-0.416	0.087
-208.450	-132.603	0.326	0.041
-207.436	-131.751	0.113	0.015
-206.421	800.000	0.089	0.327
-205.406	-82.763	-0.156	-0.050
-204.392	269.286	0.059	-0.102
-203.377	-61.594	0.023	0.010
-202.363	58.066	0.086	-0.083
-201.348	-200.000	-0.085	0.387
-200.333	-200.000	-0.015	-0.435
-199.319	197.808	0.074	-0.112
-198.304	36.103	-0.044	0.038
-197.290	-200.000	0.161	0.000
-196.275	-200.000	-0.023	-0.179
-195.260	133.835	0.020	0.026
-194.246	800.000	0.057	-0.193
-193.231	-200.000	0.004	0.338
-192.217	-145.214	0.102	0.009
-191.202	-194.175	0.318	0.003
-190.187	574.862	-0.102	-0.244
-189.173	15.793	0.309	0.239
-188.158	-36.534	0.048	-0.026
-187.144	-4.034	-0.179	-0.122
-186.129	-87.432	-0.368	-0.110
-185.114	156.713	0.184	-0.250
-184.100	-200.000	0.005	-0.072
-183.085	800.000	0.057	-0.175
-182.071	-200.000	0.024	0.131
-181.056	-75.387	0.196	0.069
-180.042	-200.000	0.031	0.239
-179.027	261.945	0.177	0.301
-178.012	-200.000	0.050	-0.230
-176.998	30.748	0.106	-0.089
-175.983	502.104	-0.073	0.166
-174.969	-12.254	0.185	0.119
-173.954	-94.751	0.230	0.061
-172.939	157.311	0.119	-0.161
-171.925	-13.903	0.380	0.242
-170.910	83.480	0.146	-0.156
-169.896	-69.464	0.459	-0.173
-168.881	11.779	-0.257	-0.194
-167.866	143.689	0.090	0.117
-166.852	-61.974	0.190	-0.078
-165.837	-119.120	-0.175	-0.030
-164.823	-127.279	0.185	-0.027
-163.808	-200.000	0.035	-0.213
-162.793	65.574	-0.204	-0.203
-161.779	-9.699	-0.082	-0.054
-160.764	800.000	0.014	-0.040
-159.750	-67.424	0.265	-0.102
-158.735	-121.428	-0.085	0.014
-157.720	84.975	-0.098	0.105
-156.706	28.110	-0.130	-0.108
-155.691	-107.477	0.293	-0.063
-154.677	58.641	-0.256	-0.247
-153.662	-95.033	0.206	-0.055
-152.647	800.000	-0.050	0.185
-151.633	-200.000	0.038	-0.351
-150.618	-24.461	0.280	0.164
-149.604	-72.967	0.362	0.131
-148.589	38.637	-0.261	-0.229
-147.574	631.006	0.104	-0.259
-146.560	145.999	0.304	0.400
-145.545	-200.000	0.030	0.351
-144.531	12.532	-0.063	0.048
-143.516	85.851	-0.203	0.219
-142.502	166.474	0.164	-0.228
-141.487	236.177	-0.220	-0.358
-140.472	800.000	0.067	-0.200
-139.458	-152.029	0.100	0.007
-138.443	-200.000	-0.022	0.184
-137.429	-99.328	0.460	-0.114
-136.414	-92.111	0.086	0.024
-135.399	-200.000	-0.084	-0.497
-134.385	709.338	0.080	-0.208
-133.370	144.199	-0.199	-0.261
-132.356	4.864	0.289	-0.209
-131.341	-200.000	-0.072	0.393
-130.326	-65.363	0.250	-0.099
-129.312	57.054	-0.142	-0.136
-128.297	-35.327	-0.068	0.037
-127.283	-7.075	0.122	0.081
-126.268	-31.045	-0.165	-0.092
-125.253	-200.000	0.040	0.331
-124.239	-110.417	-0.142	-0.029
-123.224	538.278	-0.130	0.304
-122.210	142.540	0.076	0.099
-121.195	-200.000	0.030	0.215
-120.180	800.000	0.119	-0.442
-119.166	800.000	-0.076	0.314
-118.151	441.607	0.117	-0.250
-117.137	242.496	-0.001	-0.002
-116.122	800.000	-0.052	0.223
-115.107	800.000	0.037	0.106
-114.093	61.633	0.295	0.288
-113.078	148.102	-0.110	-0.146
-112.064	339.486	-0.149	0.285
-111.049	-200.000	-0.001	-0.046
-110.034	62.878	0.043	0.042
-109.020	-200.000	0.084	0.375
-108.005	-200.000	-0.005	-0.144
-106.991	224.614	0.036	0.058
-105.976	-72.830	0.302	0.109
-104.962	270.234	-0.105	0.181
-103.947	63.677	-0.278	-0.274
-102.932	-151.216	-0.394	0.029
-101.918	-116.351	-0.199	-0.036
-100.903	-200.000	0.009	0.047
-99.889	1.538	0.118	0.083
-98.874	800.000	-0.133	0.365
-97.859	161.765	-0.208	-0.285
-96.845	5.675	0.101	-0.073
-95.830	-48.811	0.292	-0.137
-94.816	148.929	-0.197	-0.261
-93.801	89.482	0.134	-0.146
-92.786	-10.023	-0.141	0.092
-91.772	41.758	-0.155	0.138
-90.757	800.000	0.071	0.206
-89.743	-200.000	0.007	0.099
-88.728	-135.396	0.085	0.010
-87.713	-70.953	0.114	-0.042
-86.699	-131.037	0.149	-0.019
-85.684	179.892	-0.235	0.338
-84.670	800.000	0.120	0.484
-83.655	-119.214	-0.313	-0.053
-82.640	800.000	-0.072	0.218
-81.626	12.582	0.069	-0.052
-80.611	-200.000	-0.004	0.068
-79.597	-7.779	0.177	-0.117
-78.582	15.944	0.205	-0.158
-77.567	-48.202	0.158	-0.075
-76.553	574.208	-0.064	-0.153
-75.538	-99.513	-0.106	-0.026
-74.524	800.000	-0.068	0.208
-73.509	-72.292	0.219	-0.079
-72.494	800.000	-0.056	0.156
-71.480	284.402	-0.169	0.298
-70.465	-200.000	-0.002	-0.144
-69.451	-57.863	0.201	-0.086
-68.436	-200.000	0.026	0.359
-67.422	100.421	0.125	0.142
-66.407	67.350	-0.182	0.181
-65.392	800.000	-0.115	0.331
-64.378	2.699	0.376	-0.267
-63.363	482.728	0.065	0.145
-62.349	-28.646	0.218	-0.123
-61.334	58.386	-1.057	-1.015
-60.319	800.000	0.204	0.632
-59.305	800.000	-0.277	-1.049
-58.290	360.616	0.720	1.411
-57.276	254.016	0.686	1.147
-56.261	-200.000	111.751	622.537
-55.246	458.621	1509.073	3284.671
-54.232	145.381	2689.985	3524.554
-53.217	97.583	2298.158	2584.220
-52.203	36.809	1906.475	1648.878
-51.188	30.896	1694.932	1420.930
-50.173	28.405	1652.585	1366.818
-49.159	48.980	1706.234	1567.522
-48.144	48.457	1720.745	1576.839
-47.130	30.565	1679.353	1405.139
-46.115	27.807	1664.990	1372.362
-45.100	27.720	1659.801	1367.384
-44.086	27.641	1657.318	1364.692
-43.071	27.618	1654.629	1362.251
-42.057	27.607	1652.126	1360.053
-41.042	27.605	1650.139	1358.352
-40.027	27.583	1648.381	1356.684
-39.013	27.609	1646.243	1355.063
-37.998	27.583	1644.619	1353.482
-36.984	27.606	1643.611	1352.766
-35.969	27.759	1641.623	1352.213
-34.954	27.720	1640.519	1350.957
-33.940	27.691	1638.612	1349.121
-32.925	27.691	1636.574	1347.389
-31.911	27.726	1634.873	1346.195
-30.896	27.756	1633.142	1344.934
-29.881	27.744	1632.009	1343.859
-28.867	27.695	1630.020	1341.813
-27.852	27.697	1628.576	1340.586
-26.838	27.740	1626.631	1339.247
-25.823	27.707	1625.419	1337.954
-24.809	27.758	1624.414	1337.447
-23.794	27.759	1623.092	1336.314
-22.779	27.727	1621.714	1334.888
-21.765	27.756	1620.054	1333.678
-20.750	27.625	1618.491	1331.385
-19.736	27.766	1616.900	1331.051
-18.721	27.815	1615.786	1330.440
-17.706	27.844	1614.017	1329.139
-16.692	27.807	1612.311	1327.413
-15.677	27.805	1611.439	1326.626
-14.663	27.889	1609.784	1325.825
-13.648	27.835	1608.624	1324.427
-12.633	27.938	1606.611	1323.463
-11.619	27.839	1605.414	1321.706
-10.604	27.816	1603.526	1319.930
-9.590	27.778	1602.522	1318.780
-8.575	27.895	1601.316	1318.578
-7.560	27.756	1600.601	1316.936
-6.546	27.812	1599.036	1316.000
-5.531	27.808	1597.750	1314.862
-4.517	27.807	1597.035	1314.213
-3.502	27.817	1596.123	1313.477
-2.487	27.900	1593.838	1312.143
-1.473	27.776	1582.481	1301.857
-0.458	25.410	1563.974	1269.879
0.556	20.827	1566.087	1243.111
1.571	18.817	1590.882	1248.092
2.586	18.575	1604.237	1256.682
3.600	18.050	1553.754	1213.307
4.615	15.191	1454.623	1116.765
5.629	12.339	1398.989	1055.652
6.644	11.740	1392.387	1046.743
7.659	11.637	1391.090	1045.016
8.673	11.656	1389.885	1044.143
9.688	11.597	1387.802	1042.112
10.702	11.515	1385.089	1039.458
11.717	12.969	1386.535	1049.709
12.731	16.063	1391.629	1073.202
13.746	17.858	1393.809	1086.218
14.761	17.744	1392.354	1084.268
15.775	16.698	1390.573	1076.138
16.790	15.700	1387.238	1067.134
17.804	14.902	1384.919	1060.193
18.819	14.454	1383.364	1056.074
19.834	14.188	1382.294	1053.480
20.848	13.937	1380.898	1050.736
21.863	13.745	1379.315	1048.223
22.877	13.419	1378.894	1045.754
23.892	13.516	1377.520	1045.230
24.907	13.430	1376.901	1044.123
25.921	13.443	1375.658	1043.172
26.936	13.490	1374.892	1042.791
27.950	13.560	1374.043	1042.496
28.965	13.610	1372.882	1041.842
29.980	13.677	1371.401	1041.043
30.994	13.744	1370.353	1040.578
32.009	13.893	1368.787	1040.231
33.023	13.746	1367.791	1038.458
34.038	13.807	1366.153	1037.505
35.053	13.552	1365.576	1035.385
36.067	13.694	1364.063	1035.030
37.082	13.604	1363.396	1033.873
38.096	13.745	1362.066	1033.648
39.111	13.737	1361.269	1032.904
40.126	13.611	1360.544	1031.476
41.140	13.476	1359.773	1029.965
42.155	13.395	1358.843	1028.664
43.169	13.454	1358.871	1028.962
44.184	13.458	1358.306	1028.465
45.199	13.384	1358.300	1027.908
46.213	13.544	1357.315	1028.070
47.228	13.608	1356.045	1027.414
48.242	13.612	1355.048	1026.591
49.257	13.592	1353.336	1025.079
50.271	13.543	1352.232	1023.851
51.286	13.599	1350.594	1022.863
52.301	13.611	1349.474	1022.000
53.315	13.448	1349.030	1020.569
54.330	13.461	1347.880	1019.687
55.344	13.439	1346.195	1018.189
56.359	13.500	1345.458	1017.914
57.374	13.438	1344.760	1016.915
58.388	13.435	1343.827	1016.098
59.403	13.321	1343.291	1014.907
60.417	13.358	1342.346	1014.330
61.432	13.375	1341.178	1013.460
62.447	13.411	1340.441	1013.034
63.461	13.372	1338.877	1011.527
64.476	13.335	1338.251	1010.738
65.490	13.283	1336.907	1009.316
66.505	13.334	1335.526	1008.493
67.520	13.446	1334.361	1008.208
68.534	13.487	1333.182	1007.478
69.549	13.415	1332.174	1006.187
70.563	13.332	1331.398	1005.006
71.578	13.245	1330.360	1003.609
72.593	13.328	1329.105	1003.077
73.607	13.257	1328.688	1002.241
74.622	13.204	1327.972	1001.291
75.636	13.243	1327.051	1000.745
76.651	13.196	1326.179	999.712
77.666	13.230	1325.650	999.432
78.680	13.334	1324.928	999.428
79.695	13.297	1324.257	998.609
80.709	13.296	1323.486	997.936
81.724	13.393	1322.723	997.856
82.739	13.506	1321.250	997.336
83.753	13.543	1321.136	997.385
84.768	13.597	1320.281	996.977
85.782	13.576	1318.846	995.679
86.797	13.595	1317.429	994.636
87.812	13.514	1316.064	993.029
88.826	13.503	1315.154	992.189
89.841	13.566	1314.258	991.801
90.855	13.680	1313.334	991.703
91.870	13.524	1312.717	990.214
92.884	13.592	1311.832	989.867
93.899	13.673	1310.462	989.229
94.914	13.717	1310.246	989.241
95.928	13.710	1309.055	988.209
96.943	13.685	1308.017	987.190
97.957	13.604	1307.191	985.999
98.972	13.691	1305.656	985.270
99.987	13.586	1304.874	983.970
101.001	13.612	1303.829	983.249
102.016	13.546	1303.355	982.412
103.030	13.645	1301.927	981.834
104.045	13.602	1301.305	981.027
105.060	13.636	1300.000	980.153
106.074	13.478	1298.404	977.930
107.089	13.332	1297.306	976.158
108.103	13.431	1295.981	975.659
109.118	13.322	1294.648	973.925
110.133	13.379	1293.402	973.240
111.147	13.374	1292.268	972.266
112.162	13.494	1290.400	971.481
113.176	13.464	1289.395	970.466
114.191	13.615	1288.480	970.571
115.206	13.536	1287.518	969.300
116.220	13.491	1286.299	968.033
117.235	13.467	1285.060	966.876
118.249	13.448	1284.301	966.108
119.264	13.448	1282.982	965.029
120.279	13.386	1281.803	963.697
121.293	13.395	1280.865	962.957
122.308	13.337	1279.710	961.669
123.322	13.425	1278.865	961.462
124.337	13.318	1277.889	960.021
125.352	13.461	1276.459	959.691
126.366	13.444	1275.687	958.924
127.381	13.416	1274.814	958.024
128.395	13.396	1273.499	956.833
129.410	13.391	1272.631	956.066
130.424	13.469	1271.713	955.745
131.439	13.506	1270.429	954.910
132.454	13.469	1269.651	954.023
133.468	13.565	1268.964	953.977
134.483	13.491	1268.322	952.983
135.497	13.539	1267.207	952.339
136.512	13.539	1265.761	951.167
137.527	13.518	1264.280	949.852
138.541	13.446	1263.029	948.414
139.556	13.475	1261.714	947.507
140.570	13.636	1260.406	947.365
141.585	13.579	1259.678	946.408
142.600	13.651	1258.372	945.753
143.614	13.661	1257.632	945.170
144.629	13.736	1256.073	944.340
145.643	13.816	1255.079	943.967
146.658	13.663	1253.969	942.176
147.673	13.476	1252.888	940.222
148.687	13.604	1251.564	939.871
149.702	13.629	1250.123	938.843
150.716	13.643	1248.468	937.600
151.731	13.597	1247.782	936.743
152.746	13.702	1245.914	935.850
153.760	13.620	1245.124	934.708
154.775	13.810	1244.120	934.944
155.789	13.791	1243.039	933.942
156.804	13.720	1242.047	932.717
157.819	13.689	1241.099	931.746
158.833	13.784	1239.802	931.223
159.848	13.971	1238.719	931.376
160.862	13.770	1238.051	929.664
161.877	13.813	1236.959	929.006
162.892	13.749	1235.677	927.598
163.906	13.711	1234.807	926.653
164.921	13.641	1234.228	925.748
165.935	13.756	1233.622	925.852
166.950	13.693	1232.445	924.537
167.964	13.753	1231.816	924.313
168.979	13.752	1231.081	923.677
169.994	13.846	1229.929	923.251
171.008	13.815	1229.556	922.721
172.023	13.985	1228.063	922.460
173.037	13.818	1227.948	921.368
174.052	14.042	1226.616	921.528
175.067	13.772	1225.607	919.193
176.081	13.751	1224.655	918.282
177.096	13.826	1224.040	918.154
178.110	13.845	1222.765	917.218
179.125	13.886	1221.527	916.435
180.140	13.952	1220.512	915.959
181.154	13.967	1219.106	914.906
182.169	14.031	1217.820	914.210
183.183	14.041	1217.108	913.649
184.198	14.068	1216.039	912.915
185.213	14.051	1214.878	911.868
186.227	14.043	1213.693	910.854
187.242	13.959	1213.098	909.866
188.256	14.136	1212.004	909.935
189.271	14.159	1210.463	908.824
190.286	14.075	1209.719	907.724
191.300	13.970	1209.003	906.533
192.315	13.910	1208.333	905.626
193.329	13.894	1207.760	905.029
194.344	13.952	1206.934	904.647
195.359	14.058	1206.703	904.969
196.373	14.059	1206.004	904.371
197.388	14.126	1205.610	904.362
198.402	14.185	1205.309	904.375
199.417	14.381	1204.436	904.704
200.432	14.463	1203.263	904.187
201.446	14.358	1202.469	902.941
202.461	14.403	1201.421	902.318
203.475	14.364	1200.568	901.388
204.490	14.283	1199.418	900.006
205.504	14.372	1198.271	899.546
206.519	14.368	1196.622	898.209
207.534	14.218	1196.079	896.912
208.548	14.243	1194.870	896.060
209.563	14.392	1193.926	896.074
210.577	14.324	1193.235	895.112
211.592	14.325	1192.281	894.324
212.607	14.530	1191.348	894.645
213.621	14.582	1190.221	893.996
214.636	14.403	1189.711	892.578
215.650	14.304	1189.219	891.594
216.665	14.546	1187.947	891.857
217.680	14.565	1186.957	891.137
218.694	14.428	1186.453	889.947
219.709	14.459	1185.884	889.607
220.723	14.574	1184.574	889.162
221.738	14.476	1184.065	888.175
222.753	14.573	1182.863	887.711
223.767	14.543	1182.658	887.320
224.782	14.581	1181.710	886.734
225.796	14.719	1181.133	886.958
226.811	14.713	1180.524	886.386
227.826	14.682	1179.807	885.606
228.840	14.711	1178.836	884.953
229.855	14.610	1178.405	884.019
230.869	14.731	1177.281	883.736
231.884	14.651	1176.711	882.808
232.899	14.683	1175.834	882.237
233.913	14.586	1175.246	881.208
234.928	14.618	1174.495	880.735
235.942	14.624	1173.672	880.073
236.957	14.674	1172.886	879.668
237.972	14.665	1171.958	878.849
238.986	14.717	1171.170	878.452
240.001	14.651	1170.473	877.506
241.015	14.663	1169.714	876.921
242.030	14.682	1169.006	876.413
243.045	14.597	1168.357	875.402
244.059	14.802	1167.528	875.778
245.074	14.801	1166.932	875.250
246.088	14.783	1165.979	874.363
247.103	14.799	1165.415	873.943
248.117	14.961	1164.339	873.905
249.132	15.022	1163.758	873.713
250.147	15.054	1162.930	873.180
251.161	15.161	1162.522	873.355
252.176	15.139	1161.408	872.327
253.190	15.206	1161.100	872.364
254.205	15.204	1160.669	871.956
255.220	15.198	1159.764	871.166
256.234	15.218	1159.037	870.648
257.249	15.173	1158.581	869.996
258.263	15.158	1157.731	869.203
259.278	15.208	1157.311	869.070
260.293	15.150	1156.814	868.318
261.307	15.199	1156.279	868.093
262.322	15.454	1155.126	868.471
263.336	15.420	1154.494	867.739
264.351	15.439	1153.764	867.215
265.366	15.410	1153.470	866.769
266.380	15.435	1152.373	865.997
267.395	15.310	1151.872	864.897
268.409	15.344	1151.134	864.442
269.424	15.288	1150.703	863.753
270.439	15.251	1149.989	862.952
271.453	15.404	1148.849	862.804
272.468	15.220	1148.103	861.221
273.482	15.384	1147.526	861.558
274.497	15.285	1146.950	860.537
275.512	15.350	1146.029	860.104
276.526	15.284	1145.680	859.427
277.541	15.375	1144.745	859.120
278.555	15.395	1144.181	858.721
279.570	15.541	1143.257	858.696
280.585	15.486	1142.705	857.928
281.599	15.509	1141.572	857.118
282.614	15.492	1140.451	856.114
283.628	15.508	1139.163	855.150
284.643	15.456	1138.814	854.551
285.657	15.474	1137.700	853.729
286.672	15.453	1136.936	852.972
287.687	15.541	1135.801	852.494
288.701	15.514	1135.103	851.755
289.716	15.476	1134.378	850.947
290.730	15.576	1133.725	850.886
291.745	15.609	1132.906	850.363
292.760	15.614	1132.164	849.757
293.774	15.795	1131.269	849.927
294.789	15.723	1130.956	849.252
295.803	15.791	1130.184	848.941
296.818	15.620	1129.706	847.641
297.833	15.651	1129.023	847.209
298.847	15.694	1127.901	846.512
299.862	15.779	1127.288	846.405
300.876	15.783	1126.771	845.962
301.891	15.821	1126.026	845.516
302.906	15.849	1125.153	844.926
303.920	15.802	1124.834	844.379
304.935	15.960	1123.904	844.397
305.949	16.020	1122.943	843.900
306.964	15.943	1122.848	843.370
307.979	15.958	1121.915	842.666
308.993	16.047	1120.859	842.247
310.008	15.875	1120.548	841.079
311.022	15.935	1119.771	840.721
312.037	15.955	1118.793	840.009
313.052	15.951	1117.800	839.172
314.066	15.871	1116.972	838.075
315.081	15.865	1116.179	837.376
316.095	15.912	1115.196	836.802
317.110	15.813	1114.608	835.793
318.125	15.917	1113.808	835.635
319.139	15.918	1112.864	834.859
320.154	15.904	1112.400	834.366
321.168	15.915	1111.933	833.996
322.183	15.982	1110.996	833.552
323.197	15.928	1110.260	832.661
324.212	16.049	1110.162	833.110
325.227	16.123	1109.204	832.683
326.241	15.972	1108.921	831.649
327.256	16.144	1107.741	831.543
328.270	15.964	1107.324	830.269
329.285	15.971	1106.214	829.394
330.300	16.140	1104.820	829.106
331.314	16.015	1104.068	827.855
332.329	16.074	1103.486	827.638
333.343	16.118	1102.350	826.924
334.358	16.285	1101.296	826.882
335.373	16.238	1100.614	826.068
336.387	16.170	1100.236	825.377
337.402	16.247	1099.310	824.984
338.416	16.142	1099.075	824.220
339.431	16.216	1098.024	823.724
340.446	16.313	1097.442	823.685
341.460	16.355	1097.040	823.515
342.475	16.478	1095.921	823.202
343.489	16.388	1095.159	822.119
344.504	16.520	1093.930	821.767
345.519	16.448	1093.252	820.834
346.533	16.517	1092.586	820.594
347.548	16.603	1092.251	820.687
348.562	16.653	1090.709	819.700
349.577	16.607	1090.103	818.948
350.592	16.518	1089.625	818.085
351.606	16.497	1088.705	817.225
352.621	16.348	1088.142	816.008
353.635	16.370	1087.282	815.398
354.650	16.520	1086.861	815.734
355.665	16.446	1086.205	814.810
356.679	16.509	1085.625	814.608
357.694	16.524	1084.890	814.054
358.708	16.609	1083.919	813.663
359.723	16.641	1083.575	813.490
360.738	16.619	1083.102	812.957
361.752	16.595	1082.578	812.373
362.767	16.668	1081.716	812.007
363.781	16.622	1081.385	811.467
364.796	16.724	1080.316	811.081
365.810	16.837	1079.550	810.976
366.825	16.687	1079.648	810.258
367.840	16.879	1078.822	810.487
368.854	16.784	1078.274	809.547
369.869	16.881	1077.708	809.514
370.883	16.866	1076.721	808.630
371.898	16.968	1075.795	808.347
372.913	16.810	1075.131	807.024
373.927	16.896	1075.083	807.329
374.942	16.878	1074.623	806.827
375.956	17.008	1073.893	806.824
376.971	17.016	1073.314	806.357
377.986	16.813	1072.757	804.902
379.000	17.040	1072.190	805.483
380.015	17.009	1071.964	805.096
381.029	17.054	1071.201	804.663
382.044	17.104	1070.120	804.019
383.059	17.153	1069.119	803.427
384.073	17.114	1068.517	802.720
385.088	17.158	1067.456	802.059
386.102	17.181	1066.580	801.436
387.117	17.129	1065.541	800.338
388.132	17.114	1064.959	799.760
389.146	16.955	1064.771	798.798
390.161	17.077	1063.251	798.165
391.175	17.055	1062.660	797.546
392.190	17.176	1062.255	797.738
393.205	17.140	1061.676	797.067
394.219	17.147	1060.955	796.485
395.234	17.139	1059.627	795.380
396.248	17.162	1058.902	794.875
397.263	17.128	1057.605	793.670
398.278	17.044	1057.444	793.085
399.292	17.051	1056.461	792.312
400.307	17.028	1056.189	791.933
401.321	16.975	1055.645	791.207
402.336	17.076	1054.614	790.836
403.350	17.038	1053.851	790.016
404.365	17.099	1053.319	789.831
405.380	17.232	1052.396	789.685
406.394	17.203	1051.754	789.001
407.409	17.368	1050.911	789.064
408.423	17.316	1050.162	788.189
409.438	17.359	1049.418	787.763
410.453	17.429	1049.072	787.757
411.467	17.524	1048.127	787.414
412.482	17.361	1047.659	786.243
413.496	17.499	1046.731	786.111
414.511	17.505	1046.301	785.747
415.526	17.683	1045.950	786.237
416.540	17.505	1045.816	785.246
417.555	17.616	1044.666	784.823
418.569	17.597	1044.780	784.753
419.584	17.646	1043.856	784.214
420.599	17.649	1043.024	783.531
421.613	105.208	1324.598	1476.755
422.628	96.657	1365.597	1476.852
