DTS Sentinel unit serial number:	SN413079Multiplexer serial number:	ORYXHardware model number:	OX4-SRSoftware version number:	ORYX F/W v4.00 Oryx Data Collector v3.7.2.0data status	okinstallation	princeton_trtdifferential loss correction	single-endedforward channel	channel 2reverse channel	N/Adate	2019/09/19time	11:51:34forward acquisition time	60.00reverse acquisition time	0.00gamma	496.2192k internal	0.2339k external	0.2339temperature offset calibration	1.0011default loss term (dB/km)	0.3790temperature slope calibration	1.0000multiplexer offset coefficient	1.0000multiplexer slope coefficient	1.0000fibre end	0.00T internal ref (°C)	25.83T ext. ref 1 (°C)	0.82T ext. ref 2 (°C)	21.75length (m)	temperature (°C)	Stokes	anti-Stokes-747.200	-59.612	-0.079	0.034
-746.185	621.846	-0.086	0.217
-745.171	170.480	-0.179	-0.257
-744.156	421.700	0.136	0.292
-743.142	53.596	0.094	0.090
-742.127	800.000	0.052	0.194
-741.112	-116.373	-0.136	-0.025
-740.098	429.983	-0.043	-0.093
-739.083	282.820	0.121	-0.217
-738.069	242.137	0.124	0.208
-737.054	311.944	-0.181	-0.341
-736.039	129.067	-0.156	0.200
-735.025	-200.000	0.037	0.215
-734.010	-115.798	0.072	0.014
-732.996	290.143	-0.071	-0.129
-731.981	-200.000	0.002	-0.116
-730.966	-118.112	-0.164	0.029
-729.952	-117.479	-0.269	-0.049
-728.937	196.238	-0.161	0.245
-727.923	-6.739	-0.191	-0.130
-726.908	-33.036	-0.239	-0.133
-725.894	-200.000	0.002	-0.138
-724.879	204.729	0.041	0.064
-723.864	241.059	-0.120	-0.202
-722.850	-48.204	0.256	0.124
-721.835	115.377	-0.228	0.279
-720.821	-105.959	0.146	-0.033
-719.806	-200.000	-0.027	0.396
-718.791	562.192	-0.165	-0.401
-717.777	-139.467	0.107	-0.011
-716.762	-117.988	0.292	-0.052
-715.748	97.605	0.133	-0.153
-714.733	571.689	0.101	0.247
-713.718	379.646	-0.064	0.130
-712.704	182.673	0.160	0.236
-711.689	-167.011	0.187	0.008
-710.675	-200.000	-0.030	-0.447
-709.660	800.000	-0.033	-0.109
-708.645	27.284	-0.185	0.155
-707.631	559.437	0.110	0.265
-706.616	-200.000	0.046	0.318
-705.602	15.510	-0.194	0.152
-704.587	-18.556	0.176	-0.110
-703.572	-200.000	0.032	0.395
-702.558	313.082	0.035	0.066
-701.543	-26.584	-0.254	0.149
-700.529	-98.278	0.081	-0.021
-699.514	50.254	0.142	0.134
-698.499	800.000	-0.035	0.097
-697.485	48.597	-0.146	0.137
-696.470	-158.202	0.270	0.016
-695.456	214.348	-0.173	0.274
-694.441	276.689	0.018	-0.032
-693.426	-156.288	-0.412	0.026
-692.412	-24.989	0.266	0.158
-691.397	287.043	-0.121	-0.218
-690.383	-200.000	0.034	-0.154
-689.368	-200.000	-0.051	-0.395
-688.354	800.000	-0.026	0.099
-687.339	-110.019	-0.270	-0.057
-686.324	-200.000	0.041	0.370
-685.310	-29.359	-0.180	0.103
-684.295	263.378	0.108	0.189
-683.281	265.391	0.096	0.168
-682.266	126.332	-0.059	-0.075
-681.251	390.880	-0.214	0.445
-680.237	800.000	-0.102	0.294
-679.222	296.076	0.120	0.221
-678.208	800.000	-0.064	-0.273
-677.193	-200.000	-0.004	-0.169
-676.178	-118.091	0.118	0.021
-675.164	577.116	-0.056	0.137
-674.149	695.847	-0.159	-0.417
-673.135	800.000	0.076	-0.253
-672.120	-84.625	-0.153	-0.048
-671.105	105.831	-0.159	-0.189
-670.091	-200.000	-0.013	-0.076
-669.076	-200.000	0.289	-0.001
-668.062	2.706	0.176	-0.128
-667.047	-40.440	-0.140	0.073
-666.032	49.460	-0.202	-0.190
-665.018	-200.000	-0.029	-0.195
-664.003	-14.181	-0.140	-0.090
-662.989	-200.000	0.022	-0.286
-661.974	403.733	-0.125	-0.263
-660.959	-10.329	0.133	-0.088
-659.945	503.787	0.138	-0.319
-658.930	34.011	0.217	-0.189
-657.916	-200.000	0.009	0.158
-656.901	800.000	0.040	-0.141
-655.886	99.485	0.161	-0.186
-654.872	-31.692	-0.251	-0.141
-653.857	-23.772	-0.241	0.144
-652.843	100.977	0.049	0.056
-651.828	26.226	-0.286	0.238
-650.814	-148.718	0.321	0.026
-649.799	-200.000	0.027	0.188
-648.784	-21.331	0.175	-0.107
-647.770	200.407	0.123	-0.189
-646.755	36.348	-0.127	-0.112
-645.741	-74.580	-0.157	-0.057
-644.726	366.972	0.070	0.141
-643.711	509.434	0.057	0.133
-642.697	-200.000	-0.032	0.166
-641.682	324.792	-0.078	-0.149
-640.668	-200.000	0.060	-0.318
-639.653	-200.000	-0.043	-0.201
-638.638	188.116	0.240	0.359
-637.624	143.567	-0.157	-0.208
-636.609	800.000	-0.032	0.131
-635.595	-200.000	0.025	-0.317
-634.580	-200.000	-0.014	-0.177
-633.565	269.076	-0.049	0.085
-632.551	800.000	-0.052	0.209
-631.536	170.041	0.143	0.204
-630.522	23.836	-0.063	-0.052
-629.507	-65.762	-0.091	-0.037
-628.492	57.682	0.100	-0.098
-627.478	-100.723	-0.420	0.103
-626.463	800.000	-0.015	0.061
-625.449	431.479	0.180	0.389
-624.434	101.661	0.229	0.267
-623.419	800.000	-0.078	0.256
-622.405	66.459	-0.151	-0.153
-621.390	228.075	-0.116	0.189
-620.376	-43.980	0.165	0.083
-619.361	54.852	0.319	0.307
-618.346	8.270	-0.071	-0.053
-617.332	-200.000	0.003	-0.145
-616.317	-138.976	-0.147	-0.016
-615.303	-47.848	-0.140	-0.068
-614.288	-69.884	0.167	0.063
-613.273	238.839	0.074	0.123
-612.259	228.499	-0.118	-0.193
-611.244	-18.840	0.183	-0.114
-610.230	133.542	-0.207	-0.267
-609.215	-138.862	-0.154	-0.017
-608.201	-194.571	-0.251	-0.002
-607.186	-103.410	-0.163	0.038
-606.171	645.525	0.094	-0.240
-605.157	-10.319	0.150	0.099
-604.142	-200.000	-0.034	0.184
-603.128	545.766	-0.051	-0.121
-602.113	-200.000	0.015	-0.183
-601.098	59.039	-0.153	0.150
-600.084	-200.000	0.003	-0.087
-599.069	-94.010	0.111	-0.030
-598.055	-110.529	-0.261	0.054
-597.040	-200.000	-0.015	-0.069
-596.025	-200.000	-0.035	0.243
-595.011	-174.274	0.064	0.002
-593.996	384.781	-0.198	0.407
-592.982	-31.052	0.058	0.032
-591.967	95.625	-0.095	-0.108
-590.952	97.003	-0.150	0.171
-589.938	-142.468	-0.225	0.022
-588.923	-164.715	-0.427	0.019
-587.909	-200.000	-0.031	0.203
-586.894	-88.242	0.227	-0.068
-585.879	800.000	-0.087	0.297
-584.865	80.193	-0.125	-0.134
-583.850	-62.677	0.280	-0.116
-582.836	157.765	0.119	0.164
-581.821	422.045	-0.215	-0.460
-580.806	40.500	-0.184	-0.165
-579.792	-80.030	0.224	-0.075
-578.777	90.685	0.133	-0.149
-577.763	800.000	-0.047	-0.185
-576.748	-18.320	-0.094	0.059
-575.733	9.215	-0.201	0.152
-574.719	-157.783	-0.112	-0.007
-573.704	-200.000	0.027	0.194
-572.690	561.633	0.057	0.138
-571.675	38.335	-0.021	0.019
-570.661	800.000	-0.025	0.073
-569.646	62.029	0.039	0.039
-568.631	31.563	-0.155	0.133
-567.617	-70.235	-0.091	-0.034
-566.602	-15.288	0.220	-0.140
-565.588	-200.000	-0.016	0.100
-564.573	-79.933	-0.117	-0.039
-563.558	124.769	0.237	0.297
-562.544	-200.000	0.045	0.223
-561.529	-200.000	-0.006	-0.037
-560.515	199.173	-0.151	-0.230
-559.500	307.524	0.147	0.273
-558.485	626.464	0.078	0.195
-557.471	-60.681	0.343	0.145
-556.456	23.727	-0.111	0.091
-555.442	800.000	-0.073	-0.295
-554.427	-146.998	0.114	-0.010
-553.412	-85.045	-0.138	0.043
-552.398	149.250	0.127	-0.171
-551.383	-200.000	0.013	-0.278
-550.369	-184.019	0.066	0.001
-549.354	-172.662	0.239	-0.007
-548.339	-194.820	-0.414	-0.003
-547.325	26.208	-0.058	0.048
-546.310	-140.229	-0.446	-0.047
-545.296	-98.872	-0.227	0.057
-544.281	235.932	0.122	-0.201
-543.266	-85.809	-0.207	-0.064
-542.252	-55.455	0.125	-0.056
-541.237	22.227	0.099	-0.080
-540.223	-91.080	-0.236	0.067
-539.208	-200.000	-0.042	0.435
-538.193	241.758	0.043	-0.072
-537.179	-48.717	0.225	-0.108
-536.164	404.797	0.040	-0.084
-535.150	-163.072	0.311	0.015
-534.135	478.452	-0.133	0.300
-533.121	421.890	-0.086	0.182
-532.106	380.902	0.123	0.251
-531.091	569.719	0.079	-0.191
-530.077	371.257	0.025	0.051
-529.062	-181.210	0.298	0.006
-528.048	-99.024	0.042	0.011
-527.033	800.000	0.079	0.240
-526.018	-200.000	-0.006	0.139
-525.004	47.329	0.185	-0.172
-523.989	-51.041	-0.060	0.028
-522.975	-84.256	0.063	-0.020
-521.960	-85.655	0.131	0.041
-520.945	359.641	-0.036	-0.072
-519.931	106.355	0.100	-0.118
-518.916	-123.613	-0.386	-0.061
-517.902	800.000	0.156	-0.541
-516.887	270.917	0.077	-0.134
-515.872	-103.869	0.020	0.005
-514.858	22.542	-0.374	0.304
-513.843	259.309	0.131	-0.224
-512.829	-200.000	-0.026	0.117
-511.814	-78.453	0.035	0.012
-510.799	125.913	0.034	-0.042
-509.785	-105.669	-0.272	0.061
-508.770	150.488	-0.260	-0.351
-507.756	-200.000	-0.032	0.277
-506.741	-200.000	0.013	0.247
-505.726	-200.000	0.016	-0.297
-504.712	205.436	0.114	0.175
-503.697	-66.016	0.279	0.111
-502.683	-102.931	0.161	-0.038
-501.668	52.558	0.028	0.027
-500.653	800.000	0.076	0.265
-499.639	-107.860	-0.238	0.051
-498.624	488.344	0.117	-0.265
-497.610	-143.588	-0.067	-0.006
-496.595	-153.193	-0.547	0.038
-495.581	131.060	0.172	0.219
-494.566	195.933	-0.179	0.270
-493.551	800.000	0.058	0.244
-492.537	-200.000	-0.001	-0.031
-491.522	18.665	0.207	-0.164
-490.508	-105.315	-0.181	-0.041
-489.493	250.581	0.094	-0.159
-488.478	-200.000	0.002	-0.207
-487.464	-132.201	0.343	-0.044
-486.449	-200.000	-0.015	-0.257
-485.435	501.047	0.073	-0.168
-484.420	63.665	-0.242	0.241
-483.405	-200.000	0.026	-0.146
-482.391	-200.000	-0.012	0.072
-481.376	-59.937	-0.188	0.080
-480.362	361.561	0.115	-0.228
-479.347	-50.972	0.158	0.074
-478.332	-193.720	-0.117	0.001
-477.318	-86.341	-0.293	-0.090
-476.303	-200.000	-0.012	0.080
-475.289	216.710	0.130	0.206
-474.274	-105.581	-0.143	0.032
-473.259	-31.426	-0.083	-0.047
-472.245	-161.845	-0.261	0.013
-471.230	-54.664	-0.433	-0.194
-470.216	-2.826	-0.177	-0.123
-469.201	-163.844	-0.107	-0.005
-468.186	-80.912	0.292	0.096
-467.172	673.356	0.075	-0.192
-466.157	-25.900	-0.239	-0.139
-465.143	37.725	-0.154	0.135
-464.128	-62.206	0.282	0.117
-463.113	-110.564	0.114	0.023
-462.099	270.973	0.236	-0.412
-461.084	-26.101	-0.034	-0.020
-460.070	800.000	0.030	0.114
-459.055	-80.857	0.424	0.139
-458.040	-200.000	-0.007	0.079
-457.026	41.602	0.170	0.153
-456.011	-50.100	-0.144	-0.068
-454.997	-200.000	0.055	-0.367
-453.982	78.782	0.387	-0.411
-452.968	-26.618	0.144	0.084
-451.953	-101.142	-0.224	0.054
-450.938	-69.444	-0.152	0.058
-449.924	-99.259	0.196	-0.049
-448.909	696.965	-0.122	-0.317
-447.895	-200.000	0.014	-0.071
-446.880	88.893	-0.280	0.309
-445.865	800.000	-0.066	-0.215
-444.851	800.000	0.101	-0.333
-443.836	-151.476	-0.165	0.012
-442.822	-164.188	0.184	-0.008
-441.807	158.913	-0.132	-0.181
-440.792	71.864	-0.157	0.162
-439.778	800.000	-0.067	0.218
-438.763	-97.557	-0.370	0.095
-437.749	-200.000	-0.007	-0.122
-436.734	-190.286	-0.183	0.002
-435.719	800.000	0.139	0.538
-434.705	205.145	-0.047	0.072
-433.690	-200.000	-0.002	0.190
-432.676	800.000	-0.012	0.037
-431.661	391.199	0.048	-0.099
-430.646	348.693	-0.160	-0.312
-429.632	800.000	0.083	-0.259
-428.617	-200.000	-0.006	0.232
-427.603	440.046	0.091	-0.196
-426.588	800.000	-0.021	0.067
-425.573	-200.000	0.028	-0.327
-424.559	-200.000	0.036	-0.228
-423.544	83.111	0.091	-0.098
-422.530	800.000	-0.069	0.228
-421.515	36.760	-0.176	-0.154
-420.500	800.000	-0.010	0.037
-419.486	800.000	-0.149	-0.584
-418.471	9.406	-0.106	0.079
-417.457	-200.000	0.009	-0.056
-416.442	-47.031	-0.204	-0.098
-415.428	-66.720	0.064	-0.025
-414.413	110.292	-0.113	0.135
-413.398	-200.000	-0.019	0.114
-412.384	346.898	-0.196	-0.383
-411.369	-12.651	-0.221	-0.143
-410.355	84.429	0.237	0.256
-409.340	-79.879	-0.065	0.022
-408.325	511.989	0.117	0.270
-407.311	160.149	0.160	-0.220
-406.296	119.617	0.165	-0.202
-405.282	-1.005	0.192	0.135
-404.267	58.878	0.020	-0.019
-403.252	52.907	-0.200	0.189
-402.238	259.861	-0.140	-0.240
-401.223	-113.625	-0.090	0.017
-400.209	-81.423	-0.292	-0.095
-399.194	-200.000	-0.068	0.530
-398.179	-134.073	-0.326	-0.040
-397.165	-200.000	-0.037	-0.277
-396.150	178.757	0.157	-0.227
-395.136	-49.320	0.253	-0.120
-394.121	206.574	-0.090	-0.139
-393.106	-200.000	-0.027	-0.377
-392.092	94.736	-0.094	0.106
-391.077	-76.278	0.164	0.057
-390.063	461.274	0.027	0.059
-389.048	-191.182	-0.472	-0.005
-388.033	18.870	-0.317	-0.251
-387.019	-200.000	-0.023	-0.134
-386.004	-200.000	0.057	0.362
-384.990	90.807	0.110	0.122
-383.975	-200.000	-0.057	0.504
-382.960	178.455	-0.121	0.175
-381.946	178.843	0.070	0.102
-380.931	92.743	0.045	-0.050
-379.917	176.993	-0.095	0.137
-378.902	-200.000	-0.039	0.176
-377.888	60.885	-0.180	0.177
-376.873	110.101	0.365	0.434
-375.858	-200.000	-0.010	0.151
-374.844	-123.486	0.433	-0.068
-373.829	158.081	0.089	-0.122
-372.815	172.385	0.172	-0.244
-371.800	32.045	-0.134	0.114
-370.785	-139.978	-0.298	0.031
-369.771	168.848	-0.193	-0.272
-368.756	-135.488	0.171	0.020
-367.742	447.474	0.067	0.146
-366.727	-64.186	-0.224	0.090
-365.712	-21.569	0.337	-0.203
-364.698	17.356	0.049	0.039
-363.683	-38.537	-0.150	0.078
-362.669	222.632	-0.235	-0.375
-361.654	800.000	0.081	-0.295
-360.639	-122.021	-0.036	-0.006
-359.625	-138.874	0.341	0.037
-358.610	-94.520	0.301	0.081
-357.596	97.086	0.379	0.429
-356.581	-200.000	-0.023	-0.188
-355.566	-111.327	0.320	-0.065
-354.552	800.000	0.145	0.412
-353.537	-200.000	0.029	0.129
-352.523	31.700	0.117	0.100
-351.508	96.464	0.109	0.124
-350.493	-81.087	-0.071	-0.023
-349.479	800.000	0.046	-0.172
-348.464	82.923	-0.114	-0.122
-347.450	800.000	0.069	-0.217
-346.435	-86.386	-0.145	-0.044
-345.420	-200.000	0.008	0.037
-344.406	-53.358	-0.139	0.063
-343.391	-200.000	0.004	-0.155
-342.377	-116.443	-0.122	0.022
-341.362	636.062	0.071	-0.178
-340.348	-200.000	0.052	0.312
-339.333	-200.000	-0.010	0.089
-338.318	-16.519	0.249	-0.156
-337.304	800.000	-0.126	0.360
-336.289	-136.966	-0.107	0.012
-335.275	96.501	0.222	-0.251
-334.260	468.279	-0.093	-0.205
-333.245	-57.170	-0.215	-0.094
-332.231	800.000	0.069	-0.239
-331.216	-200.000	-0.022	-0.360
-330.202	215.249	0.059	0.092
-329.187	18.291	0.211	-0.167
-328.172	17.799	0.010	0.008
-327.158	141.218	0.034	-0.044
-326.143	51.103	-0.187	0.175
-325.129	66.210	-0.149	-0.150
-324.114	202.993	0.085	-0.130
-323.099	-167.751	-0.427	0.017
-322.085	-71.216	0.167	-0.062
-321.070	511.668	0.118	0.272
-320.056	-200.000	0.019	-0.222
-319.041	-200.000	-0.001	0.181
-318.026	-73.168	-0.168	-0.061
-317.012	44.339	-0.325	0.295
-315.997	-200.000	0.092	0.453
-314.983	800.000	-0.055	0.203
-313.968	2.494	0.095	-0.068
-312.953	800.000	-0.086	0.250
-311.939	149.976	0.171	0.228
-310.924	275.227	-0.080	0.140
-309.910	-200.000	0.013	-0.329
-308.895	-200.000	0.013	0.081
-307.880	-67.170	0.447	0.173
-306.866	-83.361	0.307	-0.097
-305.851	113.630	-0.152	-0.182
-304.837	-167.031	0.312	-0.013
-303.822	-38.788	0.217	-0.113
-302.807	-23.071	-0.301	-0.179
-301.793	-17.332	0.176	-0.109
-300.778	51.709	-0.155	-0.145
-299.764	-76.257	0.317	0.110
-298.749	-43.199	-0.050	-0.025
-297.735	137.091	-0.132	0.170
-296.720	117.265	-0.240	-0.290
-295.705	-76.422	0.252	-0.087
-294.691	-25.334	-0.353	-0.206
-293.676	270.705	0.178	0.309
-292.662	57.964	0.117	0.113
-291.647	215.042	0.020	0.031
-290.632	135.763	-0.084	-0.107
-289.618	542.361	-0.133	0.312
-288.603	-112.358	0.193	0.038
-287.589	-200.000	0.064	-0.290
-286.574	2.964	0.118	-0.084
-285.559	-200.000	-0.017	-0.450
-284.545	238.516	-0.131	0.214
-283.530	-23.060	-0.135	-0.080
-282.516	243.636	0.117	-0.194
-281.501	-3.558	0.073	-0.050
-280.486	-167.440	-0.228	-0.009
-279.472	-6.264	0.158	0.106
-278.457	-200.000	-0.052	-0.472
-277.443	333.125	-0.098	0.186
-276.428	-200.000	-0.004	0.139
-275.413	800.000	-0.020	0.080
-274.399	-52.353	0.255	0.116
-273.384	148.546	0.121	0.161
-272.370	-73.248	0.234	-0.084
-271.355	-16.077	0.086	0.054
-270.340	387.195	0.077	0.156
-269.326	-75.900	0.281	-0.098
-268.311	-200.000	-0.005	-0.186
-267.297	-53.266	-0.171	-0.077
-266.282	-13.821	-0.083	0.053
-265.267	-200.000	0.004	-0.050
-264.253	-28.648	0.340	-0.193
-263.238	202.758	0.013	-0.019
-262.224	-5.276	-0.180	0.122
-261.209	-84.888	-0.117	0.036
-260.195	-200.000	-0.033	0.367
-259.180	-95.003	0.083	-0.022
-258.165	73.903	-0.323	-0.333
-257.151	-200.000	-0.040	0.179
-256.136	-200.000	-0.027	0.140
-255.122	-200.000	0.019	0.272
-254.107	653.758	-0.027	0.068
-253.092	-200.000	-0.010	0.256
-252.078	181.903	-0.163	0.236
-251.063	-128.757	0.162	-0.022
-250.049	289.877	0.160	-0.285
-249.034	208.826	-0.062	-0.096
-248.019	-200.000	0.029	0.154
-247.005	191.412	-0.084	0.125
-245.990	-90.441	0.419	0.119
-244.976	90.273	-0.148	-0.163
-243.961	-83.294	0.130	-0.041
-242.946	154.807	-0.208	-0.282
-241.932	15.162	-0.195	0.150
-240.917	43.353	-0.143	-0.129
-239.903	-93.942	0.315	0.085
-238.888	-80.156	0.016	-0.005
-237.873	423.879	0.148	0.313
-236.859	800.000	-0.027	-0.087
-235.844	424.325	-0.129	0.272
-234.830	-200.000	0.060	0.290
-233.815	-200.000	-0.078	-0.458
-232.800	-200.000	0.006	-0.193
-231.786	-153.493	0.177	0.012
-230.771	-28.374	-0.156	-0.088
-229.757	613.181	0.069	-0.170
-228.742	-32.297	0.243	0.133
-227.727	800.000	0.052	0.204
-226.713	-200.000	-0.014	0.077
-225.698	224.359	-0.085	0.135
-224.684	-200.000	0.051	0.238
-223.669	-28.365	0.242	0.138
-222.655	179.762	0.175	-0.252
-221.640	165.264	-0.136	-0.189
-220.625	310.264	-0.227	0.418
-219.611	-106.224	0.245	0.054
-218.596	-190.136	0.481	-0.005
-217.582	29.903	-0.204	0.170
-216.567	89.683	-0.146	-0.160
-215.552	193.975	-0.088	-0.131
-214.538	-36.726	0.143	-0.075
-213.523	-200.000	-0.010	0.150
-212.509	-200.000	0.017	0.119
-211.494	-58.474	0.336	-0.143
-210.479	73.405	-0.237	-0.244
-209.465	242.454	-0.081	-0.133
-208.450	38.690	-0.176	-0.154
-207.436	-200.000	0.018	-0.128
-206.421	-124.644	-0.293	-0.045
-205.406	296.610	0.088	0.158
-204.392	146.052	0.070	-0.092
-203.377	4.902	0.247	0.178
-202.363	-40.188	-0.143	0.073
-201.348	-75.848	-0.086	0.030
-200.333	-34.522	-0.304	0.163
-199.319	-73.047	-0.015	0.006
-198.304	-80.177	0.144	-0.047
-197.290	273.631	-0.021	0.036
-196.275	147.809	0.099	0.131
-195.260	-200.000	-0.023	-0.346
-194.246	260.576	-0.045	-0.077
-193.231	-200.000	-0.009	0.134
-192.217	235.764	0.206	0.334
-191.202	88.607	0.257	-0.280
-190.187	-10.528	-0.114	0.074
-189.173	-34.160	0.112	-0.060
-188.158	34.892	0.090	-0.078
-187.144	-154.433	-0.382	0.025
-186.129	-200.000	0.022	0.199
-185.114	164.421	0.136	0.188
-184.100	-200.000	0.007	-0.124
-183.085	16.279	0.201	0.156
-182.071	389.540	0.048	0.098
-181.056	19.870	-0.026	-0.020
-180.042	800.000	-0.048	-0.197
-179.027	-26.141	0.195	-0.112
-178.012	-200.000	0.008	-0.093
-176.998	-88.330	0.131	-0.038
-175.983	557.550	-0.087	0.206
-174.969	800.000	-0.065	-0.214
-173.954	-178.281	-0.202	-0.005
-172.939	800.000	-0.050	-0.180
-171.925	167.450	-0.107	0.150
-170.910	10.621	0.053	-0.039
-169.896	14.343	0.320	-0.245
-168.881	52.050	-0.104	-0.097
-167.866	800.000	0.040	0.140
-166.852	37.519	0.113	-0.099
-165.837	-36.941	0.268	0.141
-164.823	-200.000	0.011	-0.086
-163.808	112.195	-0.300	0.356
-162.793	366.782	0.136	0.270
-161.779	737.030	-0.190	-0.501
-160.764	122.813	0.055	-0.068
-159.750	518.530	0.101	0.232
-158.735	-28.312	-0.047	-0.026
-157.720	-134.223	-0.223	-0.027
-156.706	28.152	0.350	0.290
-155.691	-138.347	0.169	0.018
-154.677	-7.538	0.140	0.093
-153.662	800.000	-0.050	-0.193
-152.647	-200.000	0.047	-0.577
-151.633	-200.000	0.003	0.106
-150.618	-38.422	0.151	0.078
-149.604	87.437	0.213	0.231
-148.589	13.860	-0.068	-0.052
-147.574	12.859	0.233	-0.176
-146.560	-200.000	0.009	-0.235
-145.545	-70.991	-0.171	-0.063
-144.531	-62.247	-0.048	-0.020
-143.516	36.044	0.123	0.106
-142.502	-25.912	0.298	0.172
-141.487	-5.114	0.244	-0.164
-140.472	-83.692	0.094	0.029
-139.458	-80.863	0.027	0.009
-138.443	-179.418	-0.381	0.008
-137.429	-72.281	0.263	0.096
-136.414	-200.000	-0.016	-0.084
-135.399	-92.279	0.229	0.063
-134.385	15.179	-0.104	0.080
-133.370	74.983	-0.060	-0.062
-132.356	290.943	-0.226	-0.403
-131.341	-200.000	-0.034	0.152
-130.326	141.005	0.126	0.163
-129.312	800.000	0.122	0.351
-128.297	-44.353	-0.325	0.159
-127.283	113.562	0.206	0.245
-126.268	64.356	0.315	-0.311
-125.253	17.510	-0.343	-0.267
-124.239	564.494	0.118	-0.280
-123.224	158.836	-0.131	0.179
-122.210	640.119	0.073	-0.182
-121.195	-200.000	0.005	0.215
-120.180	-6.889	-0.229	-0.152
-119.166	-104.765	0.330	-0.074
-118.151	660.947	0.197	0.496
-117.137	-200.000	0.011	-0.248
-116.122	-52.959	0.312	-0.141
-115.107	91.466	0.134	0.148
-114.093	54.901	0.316	0.298
-113.078	179.559	0.162	0.232
-112.064	-30.401	-0.140	0.078
-111.049	-33.917	0.085	-0.046
-110.034	-164.037	-0.087	-0.004
-109.020	209.595	-0.191	0.293
-108.005	353.574	0.168	-0.327
-106.991	-17.990	-0.032	-0.020
-105.976	-111.109	0.104	-0.021
-104.962	72.954	0.225	0.230
-103.947	-136.916	0.413	0.046
-102.932	-6.425	-0.158	0.106
-101.918	-200.000	-0.033	0.395
-100.903	13.228	-0.386	0.293
-99.889	50.814	0.080	0.074
-98.874	-30.977	-0.373	-0.206
-97.859	123.650	0.188	-0.230
-96.845	341.862	-0.148	-0.283
-95.830	-112.118	0.274	-0.054
-94.816	-200.000	0.008	0.203
-93.801	-29.119	0.097	0.054
-92.786	800.000	0.072	-0.199
-91.772	-200.000	-0.071	0.337
-90.757	-9.083	0.163	0.107
-89.743	386.676	-0.054	-0.109
-88.728	-56.715	0.169	0.073
-87.713	-200.000	-0.009	0.114
-86.699	-64.672	0.113	-0.045
-85.684	777.729	-0.136	0.364
-84.670	-128.047	-0.095	0.013
-83.655	15.270	0.133	0.102
-82.640	-200.000	-0.032	-0.144
-81.626	-45.441	-0.301	0.146
-80.611	73.546	-0.119	-0.122
-79.597	800.000	0.053	0.189
-78.582	-200.000	0.030	0.376
-77.567	800.000	-0.075	-0.301
-76.553	-156.659	-0.269	0.016
-75.538	-84.512	-0.151	-0.047
-74.524	-200.000	0.395	0.000
-73.509	6.567	-0.159	0.115
-72.494	-61.358	0.229	-0.094
-71.480	239.586	0.032	-0.052
-70.465	-48.970	-0.098	0.046
-69.451	13.518	-0.175	-0.133
-68.436	82.488	-0.047	0.050
-67.422	663.177	0.073	0.183
-66.407	-149.523	-0.336	-0.026
-65.392	-7.484	-0.082	0.054
-64.378	-105.794	0.179	0.040
-63.363	236.723	0.162	0.262
-62.349	-102.301	-0.036	0.008
-61.334	45.391	-1.025	-0.923
-60.319	56.766	0.584	0.556
-59.305	800.000	-0.363	-1.018
-58.290	97.398	1.213	1.360
-57.276	680.296	0.668	1.697
-56.261	-200.000	116.703	615.702
-55.246	412.518	1549.633	3214.765
-54.232	139.543	2747.429	3531.314
-53.217	91.984	2331.822	2562.551
-52.203	34.781	1934.427	1651.477
-51.188	28.896	1724.938	1427.053
-50.173	26.521	1683.561	1374.746
-49.159	46.371	1740.920	1575.550
-48.144	44.948	1754.903	1577.145
-47.130	28.404	1711.560	1411.972
-46.115	25.857	1697.441	1380.772
-45.100	25.707	1691.868	1375.039
-44.086	25.675	1689.830	1373.083
-43.071	25.679	1686.634	1370.464
-42.057	25.691	1684.258	1368.569
-41.042	25.649	1682.636	1366.881
-40.027	25.651	1680.508	1365.114
-39.013	25.678	1678.355	1363.517
-37.998	25.655	1676.924	1362.122
-36.984	25.624	1675.918	1361.014
-35.969	25.799	1674.323	1360.990
-34.954	25.806	1672.813	1359.762
-33.940	25.818	1670.564	1357.972
-32.925	25.818	1669.095	1356.721
-31.911	25.747	1667.413	1354.768
-30.896	25.803	1665.216	1353.347
-29.881	25.754	1664.092	1352.013
-28.867	25.781	1662.666	1351.006
-27.852	25.813	1661.150	1349.961
-26.838	25.891	1658.949	1348.704
-25.823	25.886	1657.922	1347.776
-24.809	25.900	1656.790	1346.907
-23.794	25.845	1655.488	1345.381
-22.779	25.825	1653.685	1343.712
-21.765	25.920	1651.876	1342.901
-20.750	25.903	1650.297	1341.435
-19.736	25.898	1649.051	1340.331
-18.721	25.878	1647.591	1338.945
-17.706	25.921	1645.800	1337.759
-16.692	25.829	1644.642	1336.077
-15.677	25.861	1643.261	1335.142
-14.663	25.840	1641.563	1333.554
-13.648	25.873	1640.673	1333.022
-12.633	25.829	1639.137	1331.398
-11.619	25.943	1636.870	1330.339
-10.604	25.951	1635.382	1329.140
-9.590	25.892	1634.068	1327.582
-8.575	25.987	1632.133	1326.657
-7.560	25.793	1632.041	1325.103
-6.546	25.769	1631.027	1324.050
-5.531	25.863	1629.403	1323.370
-4.517	25.835	1628.122	1322.074
-3.502	25.844	1626.793	1321.005
-2.487	25.884	1625.752	1320.405
-1.473	25.696	1613.830	1309.298
-0.458	23.111	1595.086	1275.426
0.556	18.626	1597.261	1245.151
1.571	16.294	1621.323	1246.605
2.586	15.841	1634.327	1253.116
3.600	14.837	1580.435	1204.455
4.615	8.511	1469.870	1077.575
5.629	2.100	1407.606	990.354
6.644	0.869	1399.968	976.952
7.659	0.836	1398.591	975.691
8.673	0.859	1397.835	975.227
9.688	0.725	1395.779	972.842
10.702	0.574	1392.401	969.433
11.717	3.659	1396.732	992.207
12.731	10.796	1407.353	1045.733
13.746	15.933	1414.662	1084.226
14.761	17.212	1415.904	1093.316
15.775	16.673	1413.847	1088.168
16.790	15.653	1411.390	1079.635
17.804	14.899	1408.830	1072.741
18.819	14.457	1407.780	1069.013
19.834	14.311	1406.435	1066.962
20.848	13.980	1405.106	1063.744
21.863	13.721	1403.959	1061.125
22.877	13.533	1402.897	1059.022
23.892	13.413	1401.646	1057.219
24.907	13.517	1400.854	1057.194
25.921	13.594	1399.744	1056.756
26.936	13.536	1399.344	1055.989
27.950	13.657	1397.990	1055.645
28.965	13.630	1396.995	1054.625
29.980	13.784	1395.939	1054.712
30.994	13.747	1395.037	1053.704
32.009	13.762	1393.936	1052.877
33.023	13.748	1393.182	1052.121
34.038	13.779	1391.423	1050.897
35.053	13.721	1390.569	1049.792
36.067	13.743	1389.227	1048.826
37.082	13.736	1388.574	1048.200
38.096	13.724	1387.665	1047.342
39.111	13.720	1386.891	1046.639
40.126	13.593	1386.388	1045.368
41.140	13.577	1385.252	1044.315
42.155	13.626	1384.444	1043.925
43.169	13.557	1384.802	1043.666
44.184	13.603	1384.394	1043.556
45.199	13.599	1383.786	1042.983
46.213	13.637	1383.019	1042.552
47.228	13.634	1381.890	1041.589
48.242	13.638	1380.841	1040.728
49.257	13.720	1379.183	1039.901
50.271	13.655	1378.142	1038.620
51.286	13.685	1376.954	1037.820
52.301	13.654	1375.514	1036.450
53.315	13.587	1374.556	1035.215
54.330	13.612	1373.701	1034.637
55.344	13.542	1372.170	1032.956
56.359	13.627	1371.062	1032.557
57.374	13.582	1370.626	1031.858
58.388	13.405	1369.740	1030.002
59.403	13.441	1369.372	1029.852
60.417	13.552	1368.169	1029.550
61.432	13.465	1367.462	1028.383
62.447	13.423	1366.209	1027.092
63.461	13.421	1365.001	1026.081
64.476	13.522	1364.030	1025.886
65.490	13.453	1362.587	1024.283
66.505	13.623	1360.463	1023.648
67.520	13.570	1359.924	1022.823
68.534	13.611	1358.424	1021.857
69.549	13.498	1357.685	1020.510
70.563	13.500	1356.411	1019.480
71.578	13.414	1355.267	1017.997
72.593	13.364	1354.723	1017.194
73.607	13.400	1353.791	1016.623
74.622	13.390	1352.756	1015.692
75.636	13.479	1351.818	1015.449
76.651	13.515	1351.076	1015.022
77.666	13.427	1350.964	1014.308
78.680	13.441	1350.327	1013.828
79.695	13.447	1349.419	1013.090
80.709	13.537	1348.443	1012.819
81.724	13.533	1347.884	1012.282
82.739	13.541	1346.739	1011.382
83.753	13.552	1345.965	1010.782
84.768	13.577	1344.870	1010.019
85.782	13.734	1343.374	1009.764
86.797	13.681	1342.208	1008.475
87.812	13.544	1340.764	1006.468
88.826	13.596	1339.806	1005.979
89.841	13.590	1338.996	1005.244
90.855	13.647	1337.602	1004.452
91.870	13.696	1336.716	1003.994
92.884	13.599	1336.006	1002.786
93.899	13.712	1334.954	1002.589
94.914	13.673	1334.432	1001.872
95.928	13.807	1333.017	1001.532
96.943	13.737	1332.276	1000.464
97.957	13.680	1331.646	999.563
98.972	13.678	1330.395	998.520
99.987	13.655	1329.064	997.294
101.001	13.676	1328.431	996.859
102.016	13.668	1327.297	995.868
103.030	13.808	1326.086	995.712
104.045	13.755	1324.895	994.412
105.060	13.709	1323.954	993.346
106.074	13.611	1322.742	991.762
107.089	13.580	1321.398	990.481
108.103	13.608	1320.182	989.648
109.118	13.539	1318.868	988.166
110.133	13.618	1317.214	987.310
111.147	13.598	1316.332	986.439
112.162	13.600	1314.735	985.166
113.176	13.681	1313.764	984.835
114.191	13.638	1312.496	983.542
115.206	13.621	1311.869	982.881
116.220	13.699	1309.900	981.783
117.235	13.583	1309.483	980.700
118.249	13.576	1308.199	979.607
119.264	13.649	1306.818	978.920
120.279	13.603	1305.719	977.737
121.293	13.633	1304.804	977.144
122.308	13.623	1303.670	976.149
123.322	13.606	1302.671	975.211
124.337	13.485	1301.931	973.861
125.352	13.617	1299.850	972.991
126.366	13.614	1299.385	972.542
127.381	13.491	1298.202	970.851
128.395	13.564	1297.120	970.383
129.410	13.623	1295.788	969.646
130.424	13.592	1295.272	968.993
131.439	13.750	1293.962	968.847
132.454	13.806	1292.686	968.137
133.468	13.628	1292.547	966.904
134.483	13.611	1291.476	965.920
135.497	13.622	1290.813	965.401
136.512	13.645	1289.286	964.311
137.527	13.677	1287.387	962.988
138.541	13.647	1286.111	961.777
139.556	13.678	1284.371	960.567
140.570	13.609	1283.866	959.704
141.585	13.682	1282.625	959.118
142.600	13.683	1281.547	958.234
143.614	13.727	1280.159	957.360
144.629	13.836	1278.758	956.861
145.643	13.800	1277.896	955.924
146.658	13.771	1276.571	954.677
147.673	13.681	1275.373	953.179
148.687	13.769	1274.230	952.750
149.702	13.803	1272.452	951.529
150.716	13.695	1271.245	949.924
151.731	13.716	1270.373	949.309
152.746	13.802	1269.180	948.823
153.760	13.794	1268.097	947.889
154.775	13.847	1266.551	946.947
155.789	13.795	1265.862	946.055
156.804	13.824	1264.628	945.210
157.819	13.966	1263.108	944.802
158.833	13.991	1262.424	944.345
159.848	13.910	1261.709	943.271
160.862	13.923	1260.506	942.358
161.877	13.788	1259.881	941.042
162.892	13.833	1258.347	940.069
163.906	13.894	1257.440	939.653
164.921	13.898	1256.970	939.240
165.935	13.974	1255.561	938.537
166.950	13.891	1255.039	937.595
167.964	13.988	1254.086	937.345
168.979	13.901	1253.499	936.334
169.994	13.901	1252.824	935.745
171.008	13.967	1251.530	935.067
172.023	14.064	1250.476	934.746
173.037	14.086	1249.709	934.213
174.052	14.014	1249.185	933.335
175.067	14.057	1247.786	932.446
176.081	13.963	1246.760	931.072
177.096	13.944	1246.221	930.480
178.110	14.019	1244.862	929.800
179.125	13.969	1243.782	928.632
180.140	13.990	1242.651	927.823
181.154	14.094	1241.498	927.463
182.169	14.078	1240.114	926.258
183.183	14.181	1238.400	925.469
184.198	14.148	1237.671	924.659
185.213	14.191	1236.511	923.945
186.227	14.172	1235.033	922.654
187.242	14.260	1234.260	922.482
188.256	14.213	1233.501	921.573
189.271	14.232	1232.129	920.574
190.286	14.096	1231.481	919.256
191.300	14.125	1230.941	918.934
192.315	14.076	1230.083	917.940
193.329	14.120	1229.233	917.465
194.344	14.105	1229.171	917.259
195.359	14.217	1228.370	917.197
196.373	14.234	1227.526	916.576
197.388	14.223	1227.265	916.238
198.402	14.381	1226.288	916.301
199.417	14.364	1225.441	915.493
200.432	14.362	1224.883	914.981
201.446	14.460	1223.892	914.701
202.461	14.499	1222.842	914.049
203.475	14.374	1222.296	912.872
204.490	14.459	1220.546	911.953
205.504	14.340	1219.656	910.552
206.519	14.510	1217.892	910.084
207.534	14.451	1216.802	908.866
208.548	14.331	1216.480	907.895
209.563	14.372	1215.668	907.433
210.577	14.519	1214.319	907.145
211.592	14.483	1213.226	906.050
212.607	14.556	1212.607	905.903
213.621	14.529	1211.716	905.013
214.636	14.592	1210.572	904.420
215.650	14.580	1210.053	903.886
216.665	14.547	1208.860	902.735
217.680	14.599	1207.944	902.255
218.694	14.569	1207.357	901.574
219.709	14.753	1206.352	901.737
220.723	14.652	1205.424	900.419
221.738	14.673	1204.742	899.945
222.753	14.612	1204.253	899.171
223.767	14.679	1203.512	898.898
224.782	14.636	1202.567	897.882
225.796	14.813	1202.192	898.474
226.811	14.731	1201.628	897.533
227.826	14.663	1200.963	896.590
228.840	14.795	1199.990	896.491
229.855	14.652	1199.456	895.244
230.869	14.776	1198.472	895.096
231.884	14.673	1198.117	894.201
232.899	14.626	1197.106	893.116
233.913	14.714	1196.719	893.221
234.928	14.653	1195.577	891.960
235.942	14.758	1194.459	891.612
236.957	14.745	1193.851	891.009
237.972	14.776	1192.822	890.324
238.986	14.785	1192.023	889.700
240.001	14.834	1191.641	889.594
241.015	14.734	1190.982	888.493
242.030	14.833	1189.923	888.149
243.045	14.837	1189.087	887.469
244.059	14.896	1188.023	886.908
245.074	15.028	1187.224	886.934
246.088	15.011	1186.592	886.294
247.103	14.943	1185.683	885.174
248.117	14.976	1185.012	884.771
249.132	15.036	1184.097	884.328
250.147	15.115	1183.910	884.527
251.161	15.226	1182.504	883.985
252.176	15.257	1181.438	883.274
253.190	15.223	1181.122	882.776
254.205	15.201	1180.678	882.250
255.220	15.116	1180.770	881.798
256.234	15.212	1179.381	881.183
257.249	15.279	1178.664	880.923
258.263	15.196	1178.498	880.283
259.278	15.216	1177.584	879.628
260.293	15.350	1176.684	879.580
261.307	15.246	1176.566	878.873
262.322	15.239	1176.048	878.370
263.336	15.265	1175.337	877.894
264.351	15.419	1174.363	877.898
265.366	15.462	1173.387	877.313
266.380	15.353	1173.342	876.633
267.395	15.368	1172.121	875.720
268.409	15.318	1171.587	874.986
269.424	15.448	1170.869	875.051
270.439	15.350	1170.363	874.082
271.453	15.447	1169.703	874.016
272.468	15.470	1168.533	873.188
273.482	15.521	1167.253	872.416
274.497	15.381	1167.285	871.634
275.512	15.518	1166.340	871.567
276.526	15.610	1165.828	871.585
277.541	15.544	1164.577	870.230
278.555	15.488	1164.370	869.707
279.570	15.529	1163.513	869.204
280.585	15.488	1162.926	868.474
281.599	15.528	1161.887	867.826
282.614	15.650	1160.855	867.610
283.628	15.522	1159.838	866.112
284.643	15.633	1158.719	865.773
285.657	15.780	1157.651	865.654
286.672	15.613	1156.930	864.182
287.687	15.792	1155.648	864.068
288.701	15.669	1155.094	862.942
289.716	15.723	1154.493	862.694
290.730	15.744	1153.599	862.060
291.745	15.738	1153.789	862.091
292.760	15.770	1152.877	861.501
293.774	15.879	1151.570	861.002
294.789	15.797	1151.331	860.331
295.803	15.835	1150.737	860.001
296.818	15.850	1150.011	859.462
297.833	15.902	1148.701	858.671
298.847	15.761	1148.663	857.846
299.862	15.770	1147.242	856.760
300.876	15.859	1146.540	856.608
301.891	15.860	1146.274	856.339
302.906	15.928	1145.268	855.861
303.920	15.945	1144.658	855.415
304.935	16.111	1143.681	855.450
305.949	16.118	1143.286	855.116
306.964	16.103	1142.189	854.145
307.979	16.074	1141.382	853.314
308.993	15.996	1141.059	852.607
310.008	16.149	1140.375	852.792
311.022	16.042	1139.551	851.560
312.037	16.032	1138.819	850.889
313.052	16.080	1137.715	850.229
314.066	16.100	1136.897	849.644
315.081	16.116	1136.118	849.067
316.095	16.045	1135.140	847.903
317.110	16.021	1134.502	847.230
318.125	16.123	1133.675	847.049
319.139	16.103	1133.473	846.725
320.154	16.005	1132.710	845.587
321.168	16.142	1131.603	845.375
322.183	16.164	1131.110	845.041
323.197	16.075	1130.721	844.227
324.212	16.133	1129.882	843.820
325.227	16.206	1129.566	843.875
326.241	16.207	1128.746	843.191
327.256	16.226	1128.074	842.711
328.270	16.176	1127.180	841.717
329.285	16.277	1126.149	841.376
330.300	16.231	1125.290	840.430
331.314	16.297	1124.013	839.731
332.329	16.267	1123.175	838.883
333.343	16.300	1122.322	838.333
334.358	16.422	1121.195	838.025
335.373	16.256	1120.795	836.825
336.387	16.471	1119.682	836.989
337.402	16.323	1119.117	835.760
338.416	16.422	1118.401	835.637
339.431	16.413	1118.122	835.311
340.446	16.455	1117.180	834.741
341.460	16.613	1116.425	834.882
342.475	16.575	1115.491	833.923
343.489	16.438	1114.895	832.729
344.504	16.549	1113.907	832.464
345.519	16.685	1112.721	832.173
346.533	16.594	1112.246	831.295
347.548	16.753	1111.480	831.430
348.562	16.599	1110.818	830.107
349.577	16.657	1109.905	829.634
350.592	16.597	1109.201	828.742
351.606	16.658	1108.326	828.311
352.621	16.636	1107.949	827.851
353.635	16.623	1107.082	827.067
354.650	16.575	1106.356	826.218
355.665	16.572	1105.582	825.552
356.679	16.756	1104.828	825.811
357.694	16.760	1104.285	825.353
358.708	16.772	1103.633	824.851
359.723	16.770	1102.896	824.214
360.738	16.789	1102.177	823.699
361.752	16.724	1101.760	822.996
362.767	16.721	1101.087	822.409
363.781	16.794	1100.786	822.467
364.796	16.712	1100.352	821.672
365.810	16.800	1099.218	821.180
366.825	17.004	1098.306	821.412
367.840	16.901	1098.111	820.694
368.854	17.020	1097.361	820.638
369.869	17.005	1096.666	819.973
370.883	16.932	1096.092	819.115
371.898	16.914	1095.430	818.462
372.913	16.918	1094.724	817.880
373.927	16.951	1094.226	817.598
374.942	17.035	1093.361	817.282
375.956	17.120	1092.793	817.197
376.971	17.093	1092.114	816.484
377.986	17.108	1091.791	816.244
379.000	17.165	1091.332	816.103
380.015	17.178	1090.405	815.397
381.029	17.247	1089.892	815.275
382.044	17.256	1089.479	814.936
383.059	17.099	1088.955	813.722
384.073	17.205	1088.015	813.454
385.088	17.233	1087.122	812.846
386.102	17.287	1085.792	812.037
387.117	17.153	1084.968	810.712
388.132	17.114	1084.227	809.898
389.146	17.276	1083.122	809.777
390.161	17.311	1082.350	809.295
391.175	17.232	1082.063	808.633
392.190	17.323	1081.237	808.375
393.205	17.304	1080.470	807.638
394.219	17.272	1079.475	806.670
395.234	17.318	1078.613	806.172
396.248	17.350	1077.646	805.530
397.263	17.328	1076.648	804.610
398.278	17.236	1076.027	803.641
399.292	17.286	1075.456	803.379
400.307	17.313	1074.600	802.794
401.321	17.350	1074.018	802.465
402.336	17.373	1073.100	801.814
403.350	17.386	1072.436	801.311
404.365	17.435	1071.610	800.851
405.380	17.386	1070.943	800.053
406.394	17.401	1070.279	799.557
407.409	17.545	1069.372	799.482
408.423	17.508	1068.909	798.897
409.438	17.469	1068.495	798.330
410.453	17.549	1067.683	798.028
411.467	17.514	1066.906	797.215
412.482	17.601	1065.964	796.846
413.496	17.711	1065.349	796.832
414.511	17.695	1064.811	796.284
415.526	17.641	1064.569	795.779
416.540	17.762	1063.536	795.502
417.555	17.847	1063.076	795.483
418.569	17.750	1063.043	794.934
419.584	17.858	1062.424	794.905
420.599	17.880	1061.641	794.351
421.613	107.111	1329.208	1483.717
422.628	98.914	1368.171	1483.797
