DTS Sentinel unit serial number:	SN413079Multiplexer serial number:	ORYXHardware model number:	OX4-SRSoftware version number:	ORYX F/W v4.00 Oryx Data Collector v3.7.2.0data status	okinstallation	princeton_trtdifferential loss correction	single-endedforward channel	channel 2reverse channel	N/Adate	2019/09/13time	18:27:35forward acquisition time	60.00reverse acquisition time	0.00gamma	496.2192k internal	0.2320k external	0.2320temperature offset calibration	1.0195default loss term (dB/km)	0.3790temperature slope calibration	1.0000multiplexer offset coefficient	1.0000multiplexer slope coefficient	1.0000fibre end	0.00T internal ref (°C)	33.52T ext. ref 1 (°C)	4.29T ext. ref 2 (°C)	26.51length (m)	temperature (°C)	Stokes	anti-Stokes-747.200	96.416	0.195	0.225
-746.185	664.741	-0.066	0.173
-745.171	746.993	-0.041	0.111
-744.156	129.025	0.067	0.086
-743.142	-45.066	0.316	0.159
-742.127	-79.882	-0.263	0.089
-741.112	-60.633	-0.125	-0.054
-740.098	-200.000	-0.024	0.286
-739.083	668.261	-0.176	-0.459
-738.069	78.249	0.144	0.155
-737.054	-52.535	-0.049	0.023
-736.039	-160.441	-0.241	0.013
-735.025	145.185	0.126	0.170
-734.010	484.398	-0.144	-0.332
-732.996	-200.000	0.412	-0.002
-731.981	-200.000	0.043	-0.252
-730.966	-86.545	-0.138	0.043
-729.952	-16.620	0.260	0.166
-728.937	137.030	-0.140	-0.185
-727.923	-22.452	0.073	-0.045
-726.908	-200.000	0.020	-0.196
-725.894	-143.523	-0.126	-0.012
-724.879	46.486	0.196	-0.184
-723.864	-161.663	-0.193	-0.010
-722.850	72.011	0.148	0.156
-721.835	9.344	-0.126	0.096
-720.821	-116.818	-0.123	-0.023
-719.806	-200.000	-0.066	-0.494
-718.791	161.036	-0.021	0.030
-717.777	200.485	-0.115	-0.179
-716.762	-158.566	-0.164	-0.010
-715.748	-96.947	-0.118	0.031
-714.733	310.956	0.116	-0.219
-713.718	-200.000	-0.010	-0.233
-712.704	-105.167	-0.194	-0.045
-711.689	-200.000	-0.234	0.001
-710.675	183.183	0.059	-0.088
-709.660	-200.000	-0.041	-0.423
-708.645	108.882	-0.136	-0.164
-707.631	279.581	0.162	-0.292
-706.616	800.000	0.011	0.048
-705.602	12.973	0.130	0.102
-704.587	439.489	-0.264	0.581
-703.572	-37.127	0.266	0.144
-702.558	-125.204	0.153	0.024
-701.543	-114.363	0.645	0.125
-700.529	-130.366	-0.270	0.037
-699.514	-200.000	-0.009	-0.072
-698.499	-200.000	-0.008	-0.130
-697.485	361.373	-0.129	0.262
-696.470	-100.043	-0.101	0.025
-695.456	221.608	0.081	-0.132
-694.441	155.772	-0.135	-0.188
-693.426	-63.395	0.057	-0.024
-692.412	-152.546	-0.223	0.016
-691.397	151.411	0.068	-0.093
-690.383	800.000	0.008	-0.033
-689.368	-156.189	0.371	0.024
-688.354	-27.368	-0.165	-0.097
-687.339	-200.000	0.015	-0.112
-686.324	-200.000	-0.003	0.063
-685.310	402.281	0.064	0.135
-684.295	-200.000	0.052	-0.230
-683.281	209.629	-0.116	-0.184
-682.266	29.972	-0.180	-0.155
-681.251	115.620	-0.088	0.108
-680.237	-161.327	0.220	-0.011
-679.222	-200.000	0.049	-0.293
-678.208	-200.000	0.000	0.330
-677.193	-200.000	-0.008	0.040
-676.178	-13.958	-0.262	0.171
-675.164	46.455	-0.282	0.264
-674.149	433.075	-0.102	0.222
-673.135	-200.000	0.025	-0.214
-672.120	-56.413	-0.263	0.118
-671.105	-200.000	-0.047	-0.225
-670.091	759.075	-0.144	0.394
-669.076	-59.162	-0.206	-0.090
-668.062	800.000	-0.095	-0.315
-667.047	-200.000	0.031	0.221
-666.032	160.331	-0.044	-0.061
-665.018	253.028	-0.088	0.152
-664.003	-28.727	-0.250	0.145
-662.989	409.644	0.132	-0.283
-661.974	87.041	0.285	-0.317
-660.959	-42.775	-0.205	-0.105
-659.945	22.102	0.381	-0.313
-658.930	-22.066	-0.075	0.046
-657.916	60.068	0.102	-0.101
-656.901	98.423	-0.155	-0.181
-655.886	-79.075	-0.245	0.084
-654.872	-132.794	0.174	0.022
-653.857	350.637	-0.102	0.204
-652.843	69.945	0.177	-0.184
-651.828	29.522	-0.213	-0.182
-650.814	-200.000	0.006	-0.314
-649.799	-99.424	-0.140	-0.036
-648.784	6.057	0.202	0.151
-647.770	-102.415	0.194	-0.047
-646.755	3.131	0.155	0.114
-645.741	800.000	-0.097	-0.326
-644.726	-142.662	0.228	-0.022
-643.711	278.280	0.114	0.204
-642.697	-200.000	0.008	0.062
-641.682	-200.000	0.025	0.249
-640.668	-87.148	-0.040	-0.012
-639.653	266.093	0.077	0.135
-638.638	136.236	0.146	-0.192
-637.624	-200.000	-0.067	-0.320
-636.609	-50.013	-0.173	0.083
-635.595	646.015	0.109	-0.280
-634.580	142.735	0.095	-0.127
-633.565	-200.000	-0.013	-0.110
-632.551	561.765	-0.171	-0.416
-631.536	16.848	0.073	-0.058
-630.522	-200.000	-0.009	-0.070
-629.507	-169.962	-0.142	-0.005
-628.492	-93.857	0.314	-0.087
-627.478	-188.754	-0.235	0.003
-626.463	369.744	-0.125	0.255
-625.449	-42.470	-0.081	0.041
-624.434	544.573	0.055	-0.132
-623.419	-200.000	-0.012	-0.274
-622.405	135.074	-0.211	0.276
-621.390	-69.511	-0.288	-0.111
-620.376	-6.308	-0.168	0.116
-619.361	-32.251	-0.122	0.069
-618.346	118.349	-0.170	-0.212
-617.332	-120.490	0.284	0.048
-616.317	800.000	-0.004	-0.015
-615.303	66.714	-0.242	-0.248
-614.288	152.005	-0.028	-0.038
-613.273	6.047	0.378	0.282
-612.259	3.603	-0.183	-0.134
-611.244	269.502	0.108	0.192
-610.230	26.462	-0.141	-0.119
-609.215	-115.540	0.222	-0.042
-608.201	217.753	-0.158	-0.253
-607.186	76.276	-0.066	0.070
-606.171	-200.000	0.015	-0.290
-605.157	-200.000	-0.014	0.280
-604.142	800.000	0.028	0.085
-603.128	-200.000	0.010	0.093
-602.113	-46.075	-0.339	-0.168
-601.098	-200.000	0.236	-0.001
-600.084	-48.471	-0.176	0.085
-599.069	54.302	0.198	0.191
-598.055	-172.434	-0.376	-0.012
-597.040	-49.580	-0.190	0.091
-596.025	-114.691	0.107	-0.021
-595.011	9.295	-0.049	-0.037
-593.996	179.206	-0.065	0.096
-592.982	582.783	-0.087	-0.214
-591.967	800.000	-0.120	-0.358
-590.952	-124.190	0.145	0.023
-589.938	-200.000	-0.026	-0.468
-588.923	87.722	-0.251	-0.279
-587.909	-200.000	0.005	-0.062
-586.894	140.953	0.126	0.167
-585.879	-77.093	0.296	-0.104
-584.865	-37.545	-0.174	-0.093
-583.850	-79.894	0.067	-0.023
-582.836	-77.563	0.060	-0.021
-581.821	-200.000	-0.020	-0.201
-580.806	219.155	0.111	0.178
-579.792	800.000	0.128	-0.407
-578.777	-50.696	0.138	0.065
-577.763	76.128	-0.122	-0.130
-576.748	404.325	-0.096	-0.203
-575.733	45.317	-0.232	-0.215
-574.719	34.637	0.285	-0.250
-573.704	-200.000	0.011	0.390
-572.690	400.750	0.040	-0.084
-571.675	223.531	0.113	0.183
-570.661	-106.426	-0.359	0.081
-569.646	36.614	0.017	0.015
-568.631	800.000	-0.051	0.174
-567.617	154.875	0.096	0.133
-566.602	205.772	-0.208	-0.325
-565.588	800.000	0.047	-0.153
-564.573	60.078	0.093	-0.092
-563.558	161.524	0.131	0.184
-562.544	-119.394	-0.251	0.044
-561.529	-137.671	0.468	0.053
-560.515	-200.000	-0.039	-0.215
-559.500	-8.967	0.338	0.227
-558.485	-60.522	0.109	-0.046
-557.471	104.045	-0.393	0.464
-556.456	157.907	0.223	0.310
-555.442	800.000	-0.046	-0.201
-554.427	800.000	0.084	-0.306
-553.412	-89.728	-0.064	0.019
-552.398	-200.000	0.050	0.294
-551.383	334.282	-0.173	-0.335
-550.369	429.476	0.064	0.138
-549.354	-200.000	-0.013	0.202
-548.339	-33.143	-0.244	-0.136
-547.325	-200.000	-0.008	-0.269
-546.310	-200.000	-0.027	0.192
-545.296	1.964	0.340	0.246
-544.281	-200.000	-0.014	0.121
-543.266	-200.000	0.014	0.441
-542.252	-184.756	-0.356	-0.006
-541.237	139.338	-0.121	0.159
-540.223	-126.909	-0.079	0.012
-539.208	-200.000	-0.019	-0.170
-538.193	-67.047	-0.187	-0.074
-537.179	86.732	0.250	0.276
-536.164	40.615	-0.094	0.085
-535.150	800.000	0.069	-0.240
-534.135	800.000	0.003	-0.012
-533.121	800.000	0.046	-0.162
-532.106	446.205	0.117	-0.258
-531.091	420.953	0.125	-0.268
-530.077	-60.582	-0.325	0.138
-529.062	78.353	0.153	0.163
-528.048	46.850	0.025	0.024
-527.033	-141.872	-0.194	-0.019
-526.018	-78.890	-0.272	0.093
-525.004	800.000	-0.048	-0.201
-523.989	-9.217	-0.422	0.283
-522.975	-200.000	-0.032	0.151
-521.960	-7.258	0.220	-0.149
-520.945	12.426	-0.217	0.168
-519.931	66.521	-0.216	0.220
-518.916	-56.780	0.079	0.035
-517.902	606.278	0.101	0.252
-516.887	-43.571	0.091	-0.046
-515.872	0.280	0.168	-0.120
-514.858	-146.592	-0.382	-0.033
-513.843	459.586	0.025	-0.056
-512.829	800.000	0.102	0.373
-511.814	63.410	-0.198	0.199
-510.799	-80.952	0.282	0.094
-509.785	42.025	0.114	0.104
-508.770	20.615	-0.139	0.113
-507.756	242.879	-0.132	-0.221
-506.741	22.929	0.463	-0.380
-505.726	-62.521	-0.130	-0.054
-504.712	290.120	0.049	0.088
-503.697	-116.620	0.095	-0.017
-502.683	800.000	0.040	-0.151
-501.668	133.327	0.017	-0.022
-500.653	7.531	0.087	-0.065
-499.639	-122.771	-0.098	-0.016
-498.624	95.199	0.101	-0.115
-497.610	-200.000	0.026	-0.114
-496.595	96.109	-0.191	-0.219
-495.581	87.888	0.049	0.054
-494.566	-34.601	0.307	0.168
-493.551	78.087	-0.089	-0.095
-492.537	800.000	0.102	-0.344
-491.522	800.000	-0.107	-0.334
-490.508	-200.000	-0.008	-0.122
-489.493	-99.004	0.038	0.010
-488.478	78.622	-0.294	0.314
-487.464	144.906	-0.235	-0.314
-486.449	800.000	-0.079	-0.271
-485.435	180.504	-0.029	0.043
-484.420	50.677	-0.115	-0.109
-483.405	-32.814	0.085	-0.047
-482.391	32.094	0.233	0.201
-481.376	129.982	-0.144	-0.185
-480.362	320.103	-0.114	-0.216
-479.347	-83.280	0.237	0.076
-478.332	-97.279	-0.264	0.069
-477.318	117.529	-0.142	-0.174
-476.303	-77.474	0.282	-0.098
-475.289	7.578	0.216	0.162
-474.274	44.613	-0.131	0.121
-473.259	-138.270	0.081	-0.009
-472.245	800.000	0.053	-0.205
-471.230	-49.784	-0.318	-0.151
-470.216	800.000	0.058	-0.233
-469.201	245.498	-0.022	-0.036
-468.186	-144.711	0.272	0.025
-467.172	9.009	-0.143	-0.108
-466.157	281.960	0.078	0.140
-465.143	46.520	0.204	-0.189
-464.128	-71.427	-0.065	0.024
-463.113	-200.000	-0.016	-0.166
-462.099	47.917	0.011	-0.011
-461.084	800.000	0.097	0.273
-460.070	-200.000	-0.006	-0.055
-459.055	-87.293	0.554	0.168
-458.040	-200.000	0.002	0.094
-457.026	736.507	-0.019	-0.051
-456.011	-200.000	0.015	-0.190
-454.997	-91.372	0.168	0.048
-453.982	-56.949	0.090	-0.040
-452.968	113.076	-0.110	-0.133
-451.953	-200.000	-0.099	-0.464
-450.938	200.266	0.211	-0.325
-449.924	-200.000	0.045	0.511
-448.909	-200.000	0.005	-0.210
-447.895	-16.989	-0.314	0.198
-446.880	-200.000	-0.016	-0.092
-445.865	-200.000	0.024	0.137
-444.851	-26.699	0.081	0.048
-443.836	614.484	-0.031	0.077
-442.822	531.636	-0.041	0.097
-441.807	670.497	0.016	0.042
-440.792	-91.512	0.197	0.056
-439.778	184.248	-0.101	0.149
-438.763	-169.281	-0.155	0.006
-437.749	-183.207	-0.203	-0.004
-436.734	-200.000	-0.027	0.243
-435.719	20.630	-0.245	-0.198
-434.705	-200.000	0.006	0.119
-433.690	214.782	0.086	0.136
-432.676	9.006	0.297	-0.224
-431.661	-131.113	-0.229	0.030
-430.646	-200.000	0.007	-0.091
-429.632	-200.000	0.007	0.052
-428.617	-200.000	-0.015	-0.232
-427.603	159.393	-0.102	0.142
-426.588	306.223	0.128	-0.237
-425.573	298.217	0.080	0.147
-424.559	5.490	-0.245	0.180
-423.544	-140.718	0.159	0.016
-422.530	282.180	0.139	-0.249
-421.515	119.496	-0.183	0.226
-420.500	84.151	0.116	0.127
-419.486	-200.000	-0.051	-0.228
-418.471	-128.408	0.112	-0.016
-417.457	-54.167	0.099	-0.045
-416.442	-104.366	-0.158	-0.037
-415.428	75.137	0.059	0.062
-414.413	306.485	-0.165	-0.307
-413.398	-200.000	-0.007	0.121
-412.384	-45.334	-0.045	-0.022
-411.369	-200.000	0.016	-0.160
-410.355	-72.609	0.292	-0.107
-409.340	-26.551	-0.248	0.145
-408.325	800.000	-0.025	0.107
-407.311	110.865	-0.044	0.053
-406.296	-152.118	-0.151	0.011
-405.282	48.413	0.075	0.070
-404.267	329.570	-0.182	0.349
-403.252	48.591	-0.107	0.100
-402.238	56.243	0.114	-0.111
-401.223	-200.000	0.001	0.250
-400.209	-52.293	-0.141	0.065
-399.194	-111.366	-0.280	0.057
-398.179	-200.000	-0.076	0.498
-397.165	6.407	0.187	0.138
-396.150	12.164	0.407	0.312
-395.136	-174.923	0.186	-0.005
-394.121	333.456	-0.166	0.321
-393.106	-103.615	0.264	0.062
-392.092	190.274	0.223	-0.334
-391.077	800.000	-0.017	-0.069
-390.063	-124.097	0.134	0.021
-389.048	31.588	-0.291	-0.250
-388.033	-126.266	-0.499	0.074
-387.019	-149.283	-0.151	-0.012
-386.004	148.781	0.088	-0.118
-384.990	190.375	-0.185	0.276
-383.975	800.000	0.097	0.301
-382.960	-30.030	0.281	-0.159
-381.946	101.331	-0.372	-0.432
-380.931	78.855	0.107	-0.114
-379.917	-25.151	0.250	-0.148
-378.902	800.000	0.065	-0.245
-377.888	-105.732	0.234	0.053
-376.873	364.057	0.027	-0.054
-375.858	321.971	-0.122	0.232
-374.844	30.951	0.150	-0.128
-373.829	800.000	0.087	-0.254
-372.815	122.563	-0.059	-0.074
-371.800	326.900	-0.151	-0.289
-370.785	117.558	-0.232	0.285
-369.771	-40.556	0.194	-0.100
-368.756	-22.858	-0.084	-0.050
-367.742	800.000	-0.025	-0.084
-366.727	404.362	0.033	0.069
-365.712	-200.000	0.008	-0.160
-364.698	-150.540	0.255	-0.019
-363.683	-127.632	0.412	0.059
-362.669	22.091	-0.116	-0.095
-361.654	61.005	0.087	0.086
-360.639	-70.757	-0.243	-0.091
-359.625	-152.508	0.151	0.011
-358.610	-200.000	-0.007	0.285
-357.596	-200.000	0.058	0.413
-356.581	-200.000	-0.037	0.307
-355.566	54.289	-0.202	0.194
-354.552	-85.340	-0.098	-0.030
-353.537	20.009	-0.201	-0.162
-352.523	-200.000	0.007	-0.369
-351.508	275.562	0.186	-0.329
-350.493	193.645	-0.037	-0.055
-349.479	-84.653	0.241	-0.076
-348.464	800.000	-0.089	0.253
-347.450	-19.039	0.120	-0.074
-346.435	-68.827	-0.211	0.081
-345.420	-83.018	0.200	-0.064
-344.406	202.934	-0.154	0.237
-343.391	558.246	0.089	-0.215
-342.377	72.217	-0.203	0.210
-341.362	-86.583	0.236	-0.072
-340.348	-47.386	0.114	0.055
-339.333	-200.000	0.028	0.473
-338.318	800.000	0.046	-0.186
-337.304	-4.236	-0.207	0.143
-336.289	-61.945	0.125	0.052
-335.275	-200.000	0.077	0.520
-334.260	582.585	-0.016	0.039
-333.245	800.000	-0.079	0.290
-332.231	-62.170	-0.159	0.066
-331.216	140.414	0.165	0.217
-330.202	-200.000	0.015	0.144
-329.187	-40.022	0.326	-0.169
-328.172	100.671	0.172	-0.199
-327.158	27.373	0.099	0.083
-326.143	383.312	-0.074	0.151
-325.129	395.750	0.141	0.293
-324.114	800.000	-0.071	0.247
-323.099	67.295	0.125	0.127
-322.085	289.980	0.088	-0.159
-321.070	25.410	-0.148	0.123
-320.056	352.315	0.037	-0.073
-319.041	213.431	0.134	-0.211
-318.026	-79.433	0.312	0.105
-317.012	95.986	-0.091	0.104
-315.997	-95.086	-0.267	0.072
-314.983	80.432	0.070	-0.075
-313.968	628.675	0.060	-0.152
-312.953	218.040	-0.090	0.143
-311.939	-40.437	0.026	0.013
-310.924	3.054	-0.111	-0.080
-309.910	-138.214	-0.112	-0.012
-308.895	-76.482	0.171	0.060
-307.880	413.677	0.042	0.089
-306.866	729.011	0.010	-0.025
-305.851	194.953	-0.130	-0.197
-304.837	607.191	0.083	0.205
-303.822	40.178	0.327	0.292
-302.807	-180.695	-0.303	-0.006
-301.793	-89.476	-0.220	0.064
-300.778	-120.863	-0.180	0.030
-299.764	800.000	-0.086	-0.243
-298.749	-200.000	0.012	-0.374
-297.735	-50.195	-0.211	-0.099
-296.720	-200.000	-0.068	0.350
-295.705	-44.278	0.298	-0.149
-294.691	-49.775	0.304	-0.144
-293.676	301.637	0.089	0.163
-292.662	800.000	-0.033	-0.117
-291.647	197.046	-0.090	0.136
-290.632	-118.188	-0.185	0.033
-289.618	173.419	-0.025	0.036
-288.603	-29.339	-0.157	-0.089
-287.589	-135.843	0.196	-0.023
-286.574	-20.157	0.390	-0.239
-285.559	-75.725	0.041	0.014
-284.545	-82.687	0.211	0.068
-283.530	34.404	-0.388	-0.337
-282.516	-124.451	0.093	-0.014
-281.501	22.799	0.154	-0.126
-280.486	51.977	-0.265	0.251
-279.472	256.764	0.092	0.157
-278.457	800.000	-0.069	-0.208
-277.443	289.846	-0.043	0.078
-276.428	263.018	-0.205	0.354
-275.413	455.673	0.086	0.190
-274.399	189.492	0.010	0.015
-273.384	132.771	0.293	0.376
-272.370	618.178	0.090	0.225
-271.355	63.635	0.051	0.050
-270.340	-59.080	-0.140	-0.060
-269.326	-158.750	-0.128	-0.007
-268.311	14.029	0.129	0.100
-267.297	54.212	-0.079	-0.075
-266.282	-96.634	0.022	0.006
-265.267	-137.649	0.311	-0.035
-264.253	11.942	-0.174	0.133
-263.238	128.139	0.211	0.266
-262.224	106.644	-0.082	0.096
-261.209	45.886	0.314	-0.288
-260.195	-142.824	-0.356	0.034
-259.180	-86.819	0.228	0.069
-258.165	-41.565	0.087	0.045
-257.151	195.239	0.254	0.383
-256.136	12.738	-0.064	0.049
-255.122	6.251	0.375	0.276
-254.107	53.506	-0.111	0.105
-253.092	800.000	-0.120	-0.370
-252.078	27.859	-0.148	0.124
-251.063	383.045	0.103	0.209
-250.049	-200.000	-0.040	0.230
-249.034	102.781	-0.091	0.106
-248.019	19.642	-0.085	-0.068
-247.005	-200.000	-0.030	0.461
-245.990	-143.655	0.303	0.029
-244.976	111.676	0.084	-0.100
-243.961	800.000	0.095	-0.317
-242.946	327.872	-0.146	-0.278
-241.932	800.000	-0.119	-0.446
-240.917	12.688	0.162	-0.124
-239.903	-102.932	-0.346	-0.081
-238.888	800.000	0.068	0.197
-237.873	655.413	-0.044	0.113
-236.859	242.507	-0.049	-0.081
-235.844	-14.410	0.134	-0.085
-234.830	123.105	-0.206	-0.256
-233.815	6.831	0.411	-0.303
-232.800	541.922	0.119	-0.282
-231.786	-37.374	-0.282	0.149
-230.771	-40.049	0.017	0.009
-229.757	139.002	0.104	0.135
-228.742	800.000	-0.130	-0.381
-227.727	191.779	-0.083	-0.123
-226.713	800.000	0.087	0.361
-225.698	800.000	0.085	-0.270
-224.684	25.015	-0.084	0.069
-223.669	800.000	-0.065	-0.260
-222.655	107.111	-0.053	0.062
-221.640	-85.613	-0.042	-0.013
-220.625	800.000	0.051	-0.188
-219.611	113.747	0.123	0.148
-218.596	252.599	-0.174	0.294
-217.582	465.325	0.051	0.113
-216.567	-120.126	0.110	0.019
-215.552	800.000	-0.085	0.270
-214.538	84.980	0.201	0.218
-213.523	-200.000	-0.040	-0.188
-212.509	800.000	0.040	-0.128
-211.494	-62.640	0.285	0.117
-210.479	800.000	-0.035	-0.142
-209.465	-182.812	0.345	0.006
-208.450	182.551	0.098	0.143
-207.436	-49.738	-0.255	-0.120
-206.421	-100.244	0.213	-0.052
-205.406	383.908	0.193	-0.393
-204.392	-116.379	-0.137	0.025
-203.377	-80.543	0.185	-0.061
-202.363	-21.186	0.157	-0.095
-201.348	-107.582	-0.305	-0.066
-200.333	91.551	0.050	-0.056
-199.319	-143.767	0.121	0.011
-198.304	5.723	-0.283	0.207
-197.290	92.966	-0.123	0.137
-196.275	-200.000	-0.019	-0.210
-195.260	60.796	0.244	-0.239
-194.246	11.037	-0.221	-0.167
-193.231	-19.659	-0.286	0.175
-192.217	-97.403	0.335	-0.086
-191.202	-13.369	-0.132	0.085
-190.187	-100.960	-0.315	0.077
-189.173	-200.000	-0.021	0.402
-188.158	-200.000	0.021	0.159
-187.144	-44.882	0.162	0.080
-186.129	-129.397	0.244	0.034
-185.114	337.939	-0.141	-0.272
-184.100	-200.000	-0.021	-0.167
-183.085	92.125	0.069	0.077
-182.071	-50.787	-0.064	0.030
-181.056	148.989	0.098	0.131
-180.042	97.354	-0.143	0.163
-179.027	-161.014	0.370	-0.019
-178.012	54.858	-0.169	-0.162
-176.998	54.678	-0.158	-0.151
-175.983	644.890	0.048	-0.122
-174.969	138.958	0.071	0.092
-173.954	-200.000	-0.042	-0.247
-172.939	-16.147	-0.151	0.095
-171.925	-51.064	-0.170	0.079
-170.910	-86.778	-0.152	-0.046
-169.896	17.562	0.377	0.296
-168.881	14.860	-0.191	-0.148
-167.866	-175.304	-0.235	-0.006
-166.852	315.729	0.030	0.055
-165.837	438.784	0.027	-0.059
-164.823	-49.718	-0.088	0.041
-163.808	-200.000	-0.019	0.111
-162.793	111.795	-0.159	0.189
-161.779	-79.361	-0.239	0.080
-160.764	-118.283	-0.104	0.018
-159.750	-200.000	0.011	-0.144
-158.735	-200.000	-0.034	0.156
-157.720	800.000	-0.067	0.283
-156.706	398.024	-0.071	0.146
-155.691	-169.822	-0.246	-0.009
-154.677	134.460	0.146	-0.187
-153.662	-200.000	-0.053	-0.320
-152.647	-50.006	-0.314	0.147
-151.633	-10.745	0.219	-0.143
-150.618	-200.000	-0.008	0.113
-149.604	-200.000	-0.011	-0.300
-148.589	-178.973	0.283	-0.006
-147.574	253.875	-0.085	-0.143
-146.560	146.367	0.029	0.039
-145.545	-69.428	0.223	-0.084
-144.531	192.245	-0.129	0.192
-143.516	52.358	-0.118	0.111
-142.502	567.046	0.055	0.132
-141.487	61.047	0.174	-0.170
-140.472	-32.392	0.177	-0.098
-139.458	-200.000	0.024	0.136
-138.443	30.945	-0.063	-0.053
-137.429	-200.000	0.075	0.332
-136.414	-31.034	-0.239	-0.133
-135.399	468.355	-0.035	-0.078
-134.385	-200.000	-0.013	-0.116
-133.370	-61.720	0.160	0.066
-132.356	-133.588	-0.446	0.055
-131.341	-108.282	-0.105	0.022
-130.326	800.000	0.132	0.368
-129.312	-39.809	-0.062	-0.032
-128.297	800.000	0.041	-0.141
-127.283	-200.000	-0.011	-0.241
-126.268	68.541	0.162	-0.164
-125.253	-41.826	-0.180	0.091
-124.239	339.021	-0.083	-0.159
-123.224	-134.289	-0.163	0.020
-122.210	-200.000	0.008	-0.242
-121.195	-81.096	0.045	0.015
-120.180	91.582	0.028	0.031
-119.166	-146.339	-0.356	-0.031
-118.151	34.229	0.149	-0.128
-117.137	406.829	0.063	0.132
-116.122	-27.725	-0.134	-0.077
-115.107	-200.000	-0.019	0.303
-114.093	48.399	0.225	0.208
-113.078	-157.458	0.323	0.019
-112.064	-200.000	-0.018	0.122
-111.049	-29.734	0.050	-0.028
-110.034	-200.000	-0.018	0.107
-109.020	-66.267	-0.083	-0.032
-108.005	677.673	0.099	-0.253
-106.991	-34.645	-0.197	-0.106
-105.976	-200.000	0.030	0.191
-104.962	-13.691	-0.116	0.074
-103.947	800.000	0.061	0.262
-102.932	-90.963	-0.293	-0.083
-101.918	293.147	0.216	-0.389
-100.903	800.000	0.035	0.099
-99.889	229.998	0.086	0.139
-98.874	-200.000	0.008	-0.234
-97.859	800.000	-0.090	0.303
-96.845	-54.922	0.467	0.208
-95.830	-183.533	-0.005	0.000
-94.816	505.089	-0.112	0.256
-93.801	462.567	0.033	0.074
-92.786	-0.508	-0.174	-0.122
-91.772	-26.264	0.410	-0.238
-90.757	124.716	-0.194	-0.241
-89.743	-117.140	0.220	0.040
-88.728	-43.962	-0.291	-0.144
-87.713	-200.000	0.029	-0.125
-86.699	208.515	0.246	-0.379
-85.684	800.000	-0.040	0.118
-84.670	800.000	0.074	0.236
-83.655	239.335	0.103	0.169
-82.640	-74.826	0.289	0.102
-81.626	-31.727	-0.196	0.108
-80.611	534.255	-0.029	-0.069
-79.597	-200.000	0.017	0.213
-78.582	-59.584	-0.210	0.089
-77.567	-54.816	-0.106	0.047
-76.553	-31.080	0.114	0.063
-75.538	800.000	-0.025	0.086
-74.524	83.246	-0.242	0.259
-73.509	-30.073	0.102	0.057
-72.494	-115.358	0.156	0.029
-71.480	800.000	0.067	-0.246
-70.465	-76.217	0.325	0.113
-69.451	-133.337	0.304	-0.038
-68.436	280.434	-0.027	0.047
-67.422	29.867	-0.373	0.313
-66.407	-200.000	-0.004	0.039
-65.392	157.496	0.193	-0.262
-64.378	-181.229	0.327	-0.006
-63.363	-200.000	0.065	-0.390
-62.349	-55.608	0.081	-0.036
-61.334	12.806	-1.124	-0.855
-60.319	-19.484	0.537	0.328
-59.305	800.000	-0.305	-1.180
-58.290	210.758	0.886	1.370
-57.276	800.000	0.619	1.864
-56.261	-200.000	96.673	572.921
-55.246	637.076	1386.901	3467.606
-54.232	194.844	2571.430	3840.736
-53.217	112.983	2276.932	2716.112
-52.203	42.920	1901.834	1706.232
-51.188	36.826	1693.830	1473.377
-50.173	34.060	1649.521	1414.243
-49.159	51.151	1695.224	1582.510
-48.144	52.898	1711.921	1611.183
-47.130	36.349	1672.436	1450.948
-46.115	33.561	1658.354	1417.859
-45.100	33.470	1652.658	1412.258
-44.086	33.383	1650.527	1409.728
-43.071	33.404	1647.569	1407.303
-42.057	33.349	1645.053	1404.691
-41.042	33.464	1643.085	1403.806
-40.027	33.351	1641.424	1401.495
-39.013	33.333	1639.434	1399.609
-37.998	33.418	1637.614	1398.625
-36.984	33.370	1636.727	1397.462
-35.969	33.581	1634.935	1397.426
-34.954	33.579	1633.316	1395.976
-33.940	33.499	1631.846	1394.074
-32.925	33.462	1630.133	1392.286
-31.911	33.473	1628.726	1391.110
-30.896	33.505	1626.247	1389.170
-29.881	33.479	1624.678	1387.586
-28.867	33.470	1622.941	1385.978
-27.852	33.612	1621.381	1385.629
-26.838	33.584	1619.705	1383.942
-25.823	33.488	1618.725	1382.344
-24.809	33.614	1616.653	1381.440
-23.794	33.495	1615.711	1379.715
-22.779	33.531	1614.320	1378.735
-21.765	33.523	1612.343	1376.936
-20.750	33.502	1611.278	1375.812
-19.736	33.508	1609.762	1374.511
-18.721	33.544	1608.406	1373.560
-17.706	33.573	1606.649	1372.213
-16.692	33.420	1605.573	1370.131
-15.677	33.568	1604.144	1369.926
-14.663	33.538	1602.490	1368.244
-13.648	33.469	1601.306	1366.680
-12.633	33.581	1599.233	1365.669
-11.619	33.524	1597.900	1364.063
-10.604	33.639	1596.276	1363.454
-9.590	33.538	1595.079	1361.646
-8.575	33.576	1593.856	1360.824
-7.560	33.647	1592.667	1360.262
-6.546	33.590	1591.830	1359.084
-5.531	33.552	1590.773	1357.859
-4.517	33.558	1589.330	1356.612
-3.502	33.637	1588.036	1356.019
-2.487	33.607	1586.719	1354.630
-1.473	33.053	1574.536	1340.245
-0.458	29.442	1552.929	1296.486
0.556	26.952	1551.039	1254.834
1.571	23.919	1572.321	1250.643
2.586	22.947	1584.184	1253.080
3.600	19.884	1530.841	1189.756
4.615	12.003	1422.649	1055.023
5.629	5.412	1360.157	967.901
6.644	4.307	1352.195	955.352
7.659	4.218	1350.718	953.674
8.673	4.307	1349.849	953.522
9.688	4.328	1348.477	952.600
10.702	4.376	1345.531	950.726
11.717	7.145	1350.592	971.222
12.731	14.922	1364.710	1029.326
13.746	21.077	1374.252	1074.459
14.761	22.005	1374.900	1080.588
15.775	21.233	1372.796	1074.093
16.790	20.154	1370.525	1065.592
17.804	19.326	1368.109	1058.538
18.819	19.088	1366.304	1055.588
19.834	18.836	1366.010	1053.724
20.848	18.725	1364.643	1051.892
21.863	18.516	1363.439	1049.597
22.877	18.361	1362.328	1047.699
23.892	18.425	1361.222	1047.145
24.907	18.302	1360.643	1045.858
25.921	18.425	1359.264	1045.451
26.936	18.467	1358.496	1045.027
27.950	18.505	1357.457	1044.365
28.965	18.532	1356.774	1043.912
29.980	18.643	1355.869	1043.800
30.994	18.725	1354.497	1043.149
32.009	18.787	1354.183	1043.190
33.023	18.734	1352.329	1041.348
34.038	18.584	1351.717	1039.877
35.053	18.580	1349.964	1038.413
36.067	18.531	1349.026	1037.302
37.082	18.506	1348.547	1036.694
38.096	18.616	1347.590	1036.530
39.111	18.699	1346.558	1036.142
40.126	18.523	1345.426	1034.119
41.140	18.329	1344.357	1032.036
42.155	18.165	1343.631	1030.403
43.169	18.059	1343.937	1029.904
44.184	18.131	1343.052	1029.571
45.199	18.168	1343.053	1029.700
46.213	18.308	1342.229	1029.823
47.228	18.444	1341.668	1030.115
48.242	18.541	1340.252	1029.523
49.257	18.535	1338.591	1028.119
50.271	18.451	1337.727	1026.860
51.286	18.460	1336.447	1025.844
52.301	18.377	1335.794	1024.750
53.315	18.365	1333.935	1023.163
54.330	18.242	1332.980	1021.607
55.344	18.201	1331.827	1020.387
56.359	18.305	1330.476	1019.882
57.374	18.198	1330.053	1018.833
58.388	18.149	1328.631	1017.360
59.403	18.114	1328.661	1017.086
60.417	18.183	1327.869	1016.796
61.432	18.007	1327.023	1015.013
62.447	17.984	1325.893	1013.924
63.461	17.817	1325.180	1012.301
64.476	17.958	1323.889	1012.057
65.490	18.075	1322.223	1011.388
66.505	18.003	1321.053	1009.979
67.520	17.956	1319.777	1008.633
68.534	17.962	1318.919	1007.923
69.549	18.050	1317.798	1007.500
70.563	17.986	1316.506	1006.046
71.578	17.871	1315.447	1004.470
72.593	17.770	1314.802	1003.296
73.607	17.785	1313.773	1002.512
74.622	17.809	1313.072	1002.028
75.636	17.817	1312.452	1001.514
76.651	17.855	1311.869	1001.203
77.666	17.856	1311.351	1000.720
78.680	18.003	1311.126	1001.325
79.695	17.981	1310.234	1000.427
80.709	18.136	1309.288	1000.522
81.724	18.208	1308.533	1000.275
82.739	18.249	1307.798	999.866
83.753	18.329	1306.981	999.623
84.768	18.465	1306.460	999.926
85.782	18.586	1305.286	999.644
86.797	18.561	1303.937	998.377
87.812	18.408	1302.807	996.533
88.826	18.466	1301.653	995.901
89.841	18.603	1300.682	995.867
90.855	18.599	1299.617	994.941
91.870	18.507	1298.951	993.809
92.884	18.640	1298.007	993.766
93.899	18.663	1297.031	993.064
94.914	18.831	1296.276	993.374
95.928	18.715	1295.738	992.201
96.943	18.669	1294.760	991.100
97.957	18.635	1293.728	990.025
98.972	18.571	1292.872	988.910
99.987	18.654	1291.432	988.204
101.001	18.625	1290.559	987.277
102.016	18.570	1289.788	986.288
103.030	18.635	1289.296	986.197
104.045	18.541	1288.295	984.806
105.060	18.589	1286.240	983.422
106.074	18.282	1284.890	980.545
107.089	17.971	1283.823	977.859
108.103	17.952	1282.750	976.851
109.118	17.999	1281.147	975.810
110.133	18.027	1279.937	974.964
111.147	18.058	1278.369	973.857
112.162	18.124	1277.076	973.165
113.176	18.120	1276.535	972.642
114.191	18.250	1275.691	972.654
115.206	18.260	1274.553	971.754
116.220	18.216	1272.937	970.188
117.235	18.200	1271.785	969.132
118.249	18.107	1271.009	967.931
119.264	18.104	1269.817	966.920
120.279	17.991	1269.151	965.686
121.293	17.945	1267.651	964.203
122.308	17.862	1267.024	963.173
123.322	17.931	1265.855	962.587
124.337	17.715	1265.228	960.805
125.352	17.884	1263.675	960.495
126.366	17.811	1262.380	959.010
127.381	17.865	1261.511	958.572
128.395	17.808	1260.748	957.588
129.410	17.892	1259.646	957.136
130.424	18.005	1258.650	956.927
131.439	18.083	1257.771	956.610
132.454	18.018	1257.396	955.879
133.468	18.134	1256.113	955.468
134.483	18.192	1255.544	955.275
135.497	18.166	1254.626	954.345
136.512	18.133	1253.305	953.074
137.527	18.134	1251.751	951.809
138.541	18.239	1250.526	951.380
139.556	18.328	1249.466	950.985
140.570	18.376	1248.664	950.556
141.585	18.390	1247.306	949.512
142.600	18.530	1246.161	949.332
143.614	18.526	1245.522	948.740
144.629	18.563	1244.511	948.091
145.643	18.538	1243.804	947.331
146.658	18.485	1242.011	945.590
147.673	18.356	1240.610	943.731
148.687	18.256	1239.322	942.112
149.702	18.205	1237.880	940.656
150.716	18.184	1236.523	939.423
151.731	18.177	1235.461	938.496
152.746	18.279	1234.473	938.222
153.760	18.367	1233.550	937.918
154.775	18.358	1232.316	936.850
155.789	18.438	1231.637	936.686
156.804	18.581	1230.129	936.238
157.819	18.535	1229.361	935.318
158.833	18.562	1228.527	934.751
159.848	18.707	1228.205	935.211
160.862	18.782	1226.569	934.293
161.877	18.534	1225.036	931.692
162.892	18.281	1224.007	929.458
163.906	18.137	1223.908	928.518
164.921	18.206	1222.759	927.938
165.935	18.315	1222.014	927.879
166.950	18.356	1221.527	927.651
167.964	18.361	1220.922	927.136
168.979	18.360	1219.875	926.251
169.994	18.339	1218.776	925.221
171.008	18.413	1218.185	925.094
172.023	18.580	1217.362	925.285
173.037	18.629	1217.140	925.298
174.052	18.593	1215.973	924.139
175.067	18.390	1214.766	922.048
176.081	18.385	1213.644	921.084
177.096	18.270	1213.143	920.004
178.110	18.341	1211.582	919.120
179.125	18.426	1210.295	918.517
180.140	18.554	1208.981	918.125
181.154	18.475	1208.345	917.138
182.169	18.657	1207.211	917.171
183.183	18.693	1206.191	916.508
184.198	18.692	1205.257	915.709
185.213	18.765	1204.305	915.294
186.227	18.697	1203.020	913.874
187.242	18.855	1202.054	913.904
188.256	18.788	1201.296	912.889
189.271	18.899	1200.220	912.578
190.286	18.634	1198.987	910.153
191.300	18.362	1197.695	907.650
192.315	18.238	1196.950	906.350
193.329	18.253	1196.470	905.987
194.344	18.319	1196.114	905.989
195.359	18.534	1195.292	906.422
196.373	18.493	1194.995	905.899
197.388	18.640	1194.943	906.557
198.402	18.876	1194.316	907.245
199.417	18.986	1193.803	907.354
200.432	19.131	1193.087	907.498
201.446	19.038	1192.958	906.828
202.461	19.200	1191.549	906.531
203.475	19.252	1190.413	905.856
204.490	18.885	1189.390	903.072
205.504	18.833	1187.722	901.453
206.519	18.851	1186.838	900.795
207.534	18.847	1185.561	899.724
208.548	18.873	1184.529	899.000
209.563	18.846	1183.963	898.349
210.577	18.858	1183.369	897.882
211.592	18.893	1182.493	897.320
212.607	19.038	1181.765	897.442
213.621	19.123	1180.748	897.035
214.636	18.945	1179.940	895.415
215.650	19.037	1179.306	895.333
216.665	19.158	1178.442	895.227
217.680	19.242	1177.379	894.778
218.694	19.270	1176.426	894.118
219.709	19.294	1175.658	893.581
220.723	19.270	1174.698	892.645
221.738	19.203	1174.510	892.081
222.753	19.110	1173.474	890.732
223.767	19.092	1173.094	890.271
224.782	19.461	1172.201	891.422
225.796	19.421	1171.578	890.664
226.811	19.484	1170.635	890.190
227.826	19.152	1170.232	888.094
228.840	19.125	1169.370	887.222
229.855	19.140	1168.392	886.481
230.869	19.188	1167.715	886.133
231.884	19.120	1166.828	885.032
232.899	19.060	1165.962	883.990
233.913	19.026	1165.446	883.345
234.928	18.909	1164.527	881.972
235.942	18.865	1163.757	881.085
236.957	18.886	1163.217	880.706
237.972	18.968	1162.758	880.698
238.986	19.023	1161.714	880.114
240.001	19.078	1160.998	879.773
241.015	19.168	1159.958	879.366
242.030	19.205	1159.037	878.779
243.045	19.216	1158.850	878.614
244.059	19.248	1158.149	878.170
245.074	19.284	1157.160	877.526
246.088	19.370	1156.583	877.446
247.103	19.384	1155.992	876.991
248.117	19.556	1155.225	877.206
249.132	19.659	1154.810	877.336
250.147	19.800	1154.429	877.687
251.161	19.961	1153.532	877.744
252.176	19.954	1152.891	877.140
253.190	19.964	1152.480	876.800
254.205	20.065	1151.899	876.794
255.220	20.164	1151.063	876.580
256.234	20.182	1150.201	875.939
257.249	20.003	1149.646	874.531
258.263	20.031	1148.882	874.014
259.278	19.938	1148.631	873.278
260.293	20.071	1147.941	873.348
261.307	20.081	1147.451	872.950
262.322	20.081	1146.898	872.449
263.336	20.144	1146.162	872.130
264.351	20.088	1146.006	871.651
265.366	20.212	1144.665	871.177
266.380	20.180	1143.996	870.430
267.395	20.087	1143.276	869.340
268.409	20.065	1142.304	868.415
269.424	20.134	1141.440	868.027
270.439	19.979	1141.023	866.853
271.453	19.965	1140.556	866.353
272.468	19.928	1139.232	865.087
273.482	19.833	1138.555	864.021
274.497	19.924	1138.216	864.144
275.512	19.886	1137.475	863.311
276.526	19.960	1136.710	863.024
277.541	19.929	1136.140	862.361
278.555	20.014	1135.884	862.515
279.570	20.073	1135.139	862.164
280.585	20.242	1133.990	862.056
281.599	20.215	1133.578	861.534
282.614	20.067	1132.140	859.631
283.628	20.010	1130.916	858.342
284.643	20.026	1129.944	857.610
285.657	20.093	1128.867	857.047
286.672	20.239	1127.887	856.944
287.687	20.208	1127.089	856.110
288.701	20.107	1126.650	855.205
289.716	20.196	1125.770	854.898
290.730	20.182	1125.035	854.195
291.745	20.198	1124.248	853.604
292.760	20.154	1124.184	853.263
293.774	20.236	1123.448	853.030
294.789	20.396	1122.925	853.346
295.803	20.424	1122.111	852.786
296.818	20.216	1121.415	851.163
297.833	20.223	1120.406	850.358
298.847	20.257	1119.689	849.904
299.862	20.234	1119.329	849.441
300.876	20.198	1118.720	848.730
301.891	20.394	1118.198	849.218
302.906	20.586	1116.973	849.148
303.920	20.527	1117.177	848.941
304.935	20.720	1115.823	848.779
305.949	20.684	1115.585	848.348
306.964	20.738	1114.552	847.750
307.979	20.546	1113.835	846.195
308.993	20.573	1113.041	845.649
310.008	20.609	1112.685	845.476
311.022	20.677	1111.925	845.153
312.037	20.651	1111.040	844.279
313.052	20.465	1110.161	842.635
314.066	20.390	1108.575	840.993
315.081	20.218	1107.901	839.577
316.095	20.257	1107.048	839.044
317.110	20.227	1106.995	838.784
318.125	20.327	1105.640	838.169
319.139	20.257	1105.358	837.539
320.154	20.270	1104.351	836.767
321.168	20.313	1103.782	836.469
322.183	20.164	1103.640	835.569
323.197	20.299	1102.993	835.655
324.212	20.411	1101.864	835.266
325.227	20.446	1101.532	835.109
326.241	20.484	1100.829	834.681
327.256	20.482	1099.922	833.914
328.270	20.413	1099.271	833.011
329.285	20.414	1098.097	832.055
330.300	20.481	1097.365	831.749
331.314	20.303	1096.457	830.132
332.329	20.390	1095.712	829.914
333.343	20.530	1094.718	829.757
334.358	20.541	1094.149	829.303
335.373	20.575	1093.846	829.162
336.387	20.616	1092.981	828.627
337.402	20.652	1092.227	828.156
338.416	20.727	1091.462	827.857
339.431	20.866	1090.712	827.876
340.446	20.900	1090.908	828.115
341.460	21.068	1089.682	827.907
342.475	21.075	1089.018	827.363
343.489	21.126	1088.228	826.931
344.504	21.174	1087.054	826.191
345.519	21.242	1086.219	825.807
346.533	21.228	1085.892	825.420
347.548	21.209	1085.332	824.828
348.562	21.334	1083.877	824.243
349.577	21.003	1083.120	822.031
350.592	20.968	1082.026	820.966
351.606	20.876	1081.327	819.927
352.621	20.810	1080.815	819.156
353.635	20.802	1080.088	818.494
354.650	20.760	1079.689	817.922
355.665	20.908	1078.876	817.930
356.679	20.961	1078.111	817.526
357.694	20.901	1077.637	816.815
358.708	21.130	1076.855	817.222
359.723	21.042	1076.532	816.490
360.738	21.188	1075.610	816.401
361.752	21.071	1075.326	815.567
362.767	21.050	1075.034	815.174
363.781	21.023	1074.265	814.394
364.796	21.301	1073.777	815.248
365.810	21.330	1073.418	815.041
366.825	21.406	1073.031	815.031
367.840	21.546	1072.146	814.939
368.854	21.671	1071.382	814.865
369.869	21.596	1071.001	814.155
370.883	21.453	1070.151	812.771
371.898	21.438	1069.258	811.952
372.913	21.328	1068.806	811.027
373.927	21.499	1068.120	811.226
374.942	21.484	1067.753	810.805
375.956	21.509	1067.240	810.461
376.971	21.571	1066.287	809.953
377.986	21.481	1066.122	809.339
379.000	21.674	1065.660	809.811
380.015	21.841	1065.095	810.081
381.029	21.806	1064.190	809.159
382.044	21.777	1063.930	808.755
383.059	21.675	1063.299	807.734
384.073	21.759	1062.111	807.148
385.088	21.784	1061.094	806.419
386.102	21.769	1060.199	805.598
387.117	21.748	1059.321	804.760
388.132	21.528	1058.192	802.826
389.146	21.437	1057.650	801.924
390.161	21.505	1056.702	801.449
391.175	21.410	1056.357	800.677
392.190	21.528	1055.640	800.605
393.205	21.680	1054.651	800.478
394.219	21.746	1053.610	799.921
395.234	21.584	1052.944	798.601
396.248	21.531	1052.073	797.632
397.263	21.591	1050.731	796.817
398.278	21.378	1050.610	795.684
399.292	21.441	1049.929	795.383
400.307	21.307	1048.881	793.911
401.321	21.308	1048.350	793.444
402.336	21.391	1047.309	792.960
403.350	21.440	1046.532	792.527
404.365	21.460	1046.281	792.356
405.380	21.597	1045.672	792.447
406.394	21.717	1044.780	792.242
407.409	21.855	1043.843	792.086
408.423	21.787	1043.731	791.623
409.438	21.933	1042.773	791.485
410.453	21.960	1042.162	791.072
411.467	22.020	1041.421	790.710
412.482	22.036	1040.745	790.200
413.496	22.051	1040.785	790.225
414.511	22.129	1039.868	789.813
415.526	22.272	1039.431	790.050
416.540	22.269	1039.789	790.241
417.555	22.327	1038.761	789.650
418.569	22.120	1038.097	788.145
419.584	22.122	1037.385	787.546
420.599	22.133	1036.855	787.123
421.613	155.479	1400.878	1793.635
422.628	142.205	1453.900	1793.749
