DTS Sentinel unit serial number:	SN413079Multiplexer serial number:	ORYXHardware model number:	OX4-SRSoftware version number:	ORYX F/W v4.00 Oryx Data Collector v3.7.2.0data status	okinstallation	princeton_trtdifferential loss correction	single-endedforward channel	channel 2reverse channel	N/Adate	2019/09/15time	22:59:34forward acquisition time	60.00reverse acquisition time	0.00gamma	496.2192k internal	0.2336k external	0.2336temperature offset calibration	0.9951default loss term (dB/km)	0.3790temperature slope calibration	1.0000multiplexer offset coefficient	1.0000multiplexer slope coefficient	1.0000fibre end	0.00T internal ref (°C)	28.62T ext. ref 1 (°C)	8.97T ext. ref 2 (°C)	22.19length (m)	temperature (°C)	Stokes	anti-Stokes-747.200	135.236	0.279	0.364
-746.185	-200.000	-0.049	0.334
-745.171	193.634	0.141	-0.214
-744.156	17.063	-0.219	0.174
-743.142	112.462	0.108	0.131
-742.127	-93.050	0.228	-0.064
-741.112	-200.000	-0.008	-0.238
-740.098	-98.846	-0.288	0.073
-739.083	-200.000	0.033	0.308
-738.069	-200.000	-0.066	0.317
-737.054	-200.000	0.039	-0.367
-736.039	-123.757	-0.273	0.043
-735.025	221.547	-0.115	0.185
-734.010	-200.000	-0.074	-0.324
-732.996	112.476	-0.081	-0.099
-731.981	308.844	0.165	0.309
-730.966	-200.000	-0.059	-0.351
-729.952	-120.442	-0.165	-0.028
-728.937	349.059	-0.061	-0.121
-727.923	-200.000	-0.027	0.193
-726.908	-113.783	-0.289	-0.057
-725.894	-200.000	0.053	0.264
-724.879	800.000	0.038	-0.129
-723.864	-69.420	-0.362	-0.139
-722.850	-185.078	-0.098	-0.002
-721.835	-200.000	0.007	-0.121
-720.821	-200.000	-0.000	-0.073
-719.806	-10.293	-0.102	0.068
-718.791	-79.121	0.048	0.016
-717.777	795.110	-0.111	0.306
-716.762	270.691	0.140	-0.247
-715.748	55.349	0.123	-0.120
-714.733	-42.281	0.225	0.115
-713.718	7.128	0.060	-0.045
-712.704	-200.000	-0.072	0.325
-711.689	-73.477	-0.397	0.145
-710.675	26.620	-0.166	0.140
-709.660	-200.000	-0.029	0.143
-708.645	49.733	-0.230	0.217
-707.631	158.906	-0.176	0.245
-706.616	41.050	0.077	0.070
-705.602	-79.080	0.174	0.059
-704.587	17.521	-0.176	0.140
-703.572	-60.141	0.157	0.067
-702.558	67.454	0.263	-0.269
-701.543	40.153	-0.295	-0.266
-700.529	374.859	0.171	0.349
-699.514	-138.515	-0.281	-0.031
-698.499	-164.441	0.044	-0.002
-697.485	102.409	0.213	-0.249
-696.470	167.242	-0.150	0.214
-695.456	-43.237	-0.051	-0.026
-694.441	227.370	0.091	0.149
-693.426	244.739	-0.054	0.091
-692.412	-200.000	-0.030	0.152
-691.397	-200.000	-0.035	-0.163
-690.383	179.112	0.068	0.100
-689.368	84.907	0.218	-0.239
-688.354	-87.158	-0.080	-0.024
-687.339	7.404	0.055	-0.041
-686.324	-200.000	0.025	0.210
-685.310	-54.511	-0.251	0.114
-684.295	322.058	0.148	0.283
-683.281	411.431	0.073	0.155
-682.266	647.731	0.044	0.113
-681.251	479.166	0.067	-0.153
-680.237	591.172	-0.077	0.191
-679.222	800.000	-0.041	0.180
-678.208	411.165	0.109	-0.232
-677.193	-200.000	-0.028	-0.324
-676.178	800.000	-0.011	-0.044
-675.164	248.143	-0.096	0.163
-674.149	519.818	-0.170	0.398
-673.135	62.729	0.306	-0.306
-672.120	-200.000	-0.039	-0.216
-671.105	-64.675	0.331	-0.135
-670.091	355.154	-0.050	-0.100
-669.076	-99.936	0.178	0.044
-668.062	98.779	0.020	0.023
-667.047	24.195	-0.100	-0.083
-666.032	-15.213	0.081	0.052
-665.018	69.121	-0.144	-0.148
-664.003	-118.397	0.433	0.077
-662.989	-30.512	-0.154	-0.087
-661.974	40.477	0.286	0.258
-660.959	-200.000	0.012	-0.058
-659.945	110.820	-0.141	0.170
-658.930	-67.373	0.067	-0.026
-657.916	-200.000	0.063	-0.361
-656.901	-45.944	-0.167	-0.082
-655.886	-4.032	-0.097	0.068
-654.872	-14.057	-0.128	-0.083
-653.857	418.418	0.170	0.364
-652.843	-200.000	0.067	-0.411
-651.828	88.749	0.012	0.013
-650.814	-200.000	-0.016	0.424
-649.799	-176.730	0.131	0.003
-648.784	-200.000	0.072	-0.341
-647.770	795.130	-0.085	-0.234
-646.755	-200.000	0.002	-0.236
-645.741	142.134	0.133	0.177
-644.726	95.769	-0.113	0.129
-643.711	-200.000	0.054	-0.256
-642.697	-200.000	0.016	0.260
-641.682	61.136	-0.139	-0.139
-640.668	137.090	-0.157	-0.205
-639.653	452.351	-0.033	-0.073
-638.638	-200.000	-0.023	0.129
-637.624	-27.841	-0.086	-0.050
-636.609	-10.920	-0.072	0.048
-635.595	-17.923	0.112	-0.070
-634.580	-200.000	-0.004	-0.026
-633.565	755.452	-0.081	0.220
-632.551	601.188	-0.085	-0.211
-631.536	-99.869	-0.193	-0.048
-630.522	228.961	-0.144	0.235
-629.507	99.730	0.093	-0.108
-628.492	255.189	0.128	-0.220
-627.478	493.645	0.106	0.243
-626.463	-200.000	-0.012	0.270
-625.449	-200.000	-0.050	-0.225
-624.434	298.398	-0.141	-0.259
-623.419	-200.000	0.024	0.547
-622.405	-24.097	0.210	-0.126
-621.390	800.000	0.028	-0.077
-620.376	-114.151	-0.377	-0.073
-619.361	-200.000	0.009	0.110
-618.346	-47.260	-0.357	0.174
-617.332	-200.000	0.013	0.163
-616.317	-165.062	0.109	-0.005
-615.303	200.171	0.169	-0.259
-614.288	135.801	0.407	-0.530
-613.273	662.997	0.038	0.098
-612.259	-200.000	-0.001	0.223
-611.244	-131.925	-0.233	0.030
-610.230	-127.609	-0.278	0.040
-609.215	-163.701	0.301	-0.014
-608.201	-169.512	0.205	0.007
-607.186	-200.000	-0.039	0.218
-606.171	800.000	-0.047	-0.132
-605.157	54.353	-0.032	-0.030
-604.142	-117.609	-0.347	-0.063
-603.128	216.430	-0.115	0.183
-602.113	200.431	-0.158	0.243
-601.098	-200.000	0.014	-0.146
-600.084	-200.000	0.002	-0.098
-599.069	-25.631	0.340	0.200
-598.055	-127.192	-0.375	-0.055
-597.040	-200.000	-0.005	-0.293
-596.025	800.000	0.056	-0.238
-595.011	-145.270	0.275	-0.025
-593.996	-77.705	0.201	0.069
-592.982	-200.000	-0.038	-0.303
-591.967	-103.910	0.346	0.081
-590.952	-141.529	0.249	0.025
-589.938	-48.781	-0.120	-0.058
-588.923	-22.228	-0.111	-0.067
-587.909	-200.000	0.013	-0.288
-586.894	-38.532	-0.157	0.083
-585.879	-200.000	0.003	-0.144
-584.865	122.916	0.275	0.344
-583.850	-200.000	-0.031	0.597
-582.836	125.689	-0.031	0.039
-581.821	-200.000	0.006	0.268
-580.806	-81.302	-0.063	-0.021
-579.792	-200.000	0.024	0.181
-578.777	523.677	-0.100	-0.235
-577.763	628.170	-0.048	-0.122
-576.748	-200.000	0.018	-0.091
-575.733	-98.308	0.184	0.047
-574.719	726.894	-0.053	-0.140
-573.704	-95.399	-0.339	-0.091
-572.690	-200.000	-0.022	0.252
-571.675	-200.000	-0.003	0.081
-570.661	141.212	-0.224	-0.296
-569.646	-13.075	-0.250	-0.162
-568.631	-137.276	0.266	0.030
-567.617	83.252	0.099	0.107
-566.602	-81.634	-0.311	-0.102
-565.588	-91.492	0.241	-0.068
-564.573	-200.000	0.033	0.303
-563.558	111.051	-0.175	-0.210
-562.544	100.054	0.116	-0.134
-561.529	246.185	-0.157	0.264
-560.515	-200.000	0.049	0.273
-559.500	217.517	-0.062	-0.099
-558.485	-82.234	0.280	-0.091
-557.471	-44.762	0.053	-0.026
-556.456	454.756	-0.205	0.452
-555.442	157.842	0.112	0.155
-554.427	357.752	-0.093	0.185
-553.412	-119.521	-0.118	0.020
-552.398	-200.000	-0.003	-0.106
-551.383	132.248	-0.238	-0.306
-550.369	-200.000	-0.022	0.295
-549.354	105.597	-0.210	-0.247
-548.339	-47.479	-0.425	-0.206
-547.325	-110.144	0.250	0.052
-546.310	42.204	-0.182	-0.165
-545.296	341.925	0.056	-0.110
-544.281	229.284	-0.328	-0.534
-543.266	24.968	0.188	-0.155
-542.252	58.342	-0.092	-0.090
-541.237	16.176	0.220	-0.173
-540.223	-121.442	-0.204	0.034
-539.208	-138.195	-0.143	-0.016
-538.193	800.000	-0.088	-0.244
-537.179	-126.441	-0.227	-0.034
-536.164	93.614	0.067	0.076
-535.150	-20.353	-0.194	-0.119
-534.135	208.715	-0.058	-0.091
-533.121	-62.245	-0.164	0.068
-532.106	84.534	-0.204	-0.222
-531.091	-75.841	-0.284	-0.100
-530.077	540.322	-0.164	-0.388
-529.062	626.477	0.191	-0.481
-528.048	-115.310	0.323	0.061
-527.033	-200.000	-0.007	-0.233
-526.018	800.000	0.076	-0.234
-525.004	146.986	-0.014	-0.018
-523.989	-123.570	0.253	-0.040
-522.975	405.119	-0.017	0.036
-521.960	123.763	-0.233	-0.291
-520.945	90.776	0.171	-0.191
-519.931	109.661	0.218	-0.260
-518.916	-200.000	-0.073	0.421
-517.902	800.000	0.025	-0.075
-516.887	208.431	-0.161	-0.250
-515.872	-200.000	-0.017	-0.083
-514.858	-49.520	0.225	0.107
-513.843	-77.958	0.136	0.047
-512.829	210.690	0.138	0.215
-511.814	142.547	-0.241	0.318
-510.799	50.481	0.087	0.082
-509.785	50.993	-0.223	0.211
-508.770	-103.734	-0.280	0.065
-507.756	-137.589	0.183	0.021
-506.741	32.558	-0.234	-0.201
-505.726	133.328	0.158	-0.204
-504.712	14.514	0.325	-0.252
-503.697	-57.357	0.093	-0.041
-502.683	-42.519	0.302	0.153
-501.668	-200.000	-0.001	-0.079
-500.653	-200.000	0.001	0.070
-499.639	-161.449	0.279	0.014
-498.624	-50.842	0.083	0.039
-497.610	64.446	0.059	-0.059
-496.595	-45.836	-0.087	0.043
-495.581	800.000	-0.108	-0.316
-494.566	-200.000	-0.011	0.056
-493.551	-200.000	-0.063	0.326
-492.537	-29.566	-0.043	0.025
-491.522	-200.000	0.020	-0.230
-490.508	-26.270	-0.126	-0.073
-489.493	165.379	0.068	0.095
-488.478	-133.050	0.123	-0.016
-487.464	-7.096	-0.149	0.100
-486.449	-200.000	0.033	-0.392
-485.435	-200.000	-0.015	0.201
-484.420	-157.073	0.016	-0.001
-483.405	-200.000	-0.024	-0.173
-482.391	634.490	-0.079	-0.198
-481.376	800.000	0.114	-0.359
-480.362	82.881	0.074	-0.080
-479.347	744.907	-0.056	-0.151
-478.332	165.633	-0.147	-0.207
-477.318	84.431	0.156	-0.170
-476.303	154.503	0.084	-0.115
-475.289	-200.000	0.034	0.162
-474.274	307.434	0.081	0.150
-473.259	-200.000	0.014	-0.077
-472.245	-60.507	0.019	-0.008
-471.230	377.025	0.077	-0.155
-470.216	62.312	-0.175	-0.174
-469.201	-110.576	0.312	0.064
-468.186	244.595	0.126	-0.211
-467.172	-200.000	0.007	-0.163
-466.157	-59.680	-0.178	0.076
-465.143	-9.603	0.159	-0.105
-464.128	18.834	-0.153	-0.122
-463.113	109.197	-0.189	0.225
-462.099	800.000	-0.067	0.201
-461.084	-200.000	-0.042	0.250
-460.070	-81.625	0.166	0.054
-459.055	38.278	-0.040	-0.035
-458.040	337.323	0.102	0.196
-457.026	-200.000	-0.028	-0.212
-456.011	-200.000	-0.054	-0.403
-454.997	-199.975	0.167	0.001
-453.982	-154.804	0.238	-0.016
-452.968	-93.001	-0.234	-0.065
-451.953	425.033	0.132	0.282
-450.938	-200.000	-0.037	-0.237
-449.924	-200.000	-0.035	0.221
-448.909	497.557	0.087	-0.198
-447.895	-200.000	-0.006	0.090
-446.880	302.465	0.158	-0.290
-445.865	800.000	0.125	0.406
-444.851	-66.430	-0.208	-0.082
-443.836	63.344	-0.113	-0.112
-442.822	-200.000	-0.010	-0.074
-441.807	800.000	-0.078	0.333
-440.792	113.460	-0.192	0.231
-439.778	187.208	0.137	-0.202
-438.763	-200.000	0.011	-0.124
-437.749	-16.533	-0.266	0.167
-436.734	-58.364	-0.397	0.171
-435.719	800.000	-0.068	0.189
-434.705	-200.000	0.033	-0.326
-433.690	147.654	-0.117	0.157
-432.676	-200.000	0.065	0.355
-431.661	-144.158	-0.180	0.017
-430.646	-152.323	0.283	-0.020
-429.632	360.949	-0.103	-0.205
-428.617	-11.369	0.238	0.156
-427.603	452.951	0.033	0.073
-426.588	800.000	-0.069	0.193
-425.573	207.891	0.173	-0.268
-424.559	113.250	-0.137	-0.165
-423.544	532.941	-0.137	0.321
-422.530	-44.819	0.198	0.098
-421.515	-200.000	0.049	-0.249
-420.500	-200.000	-0.038	-0.197
-419.486	800.000	-0.049	0.171
-418.471	92.946	-0.181	-0.203
-417.457	-135.181	-0.089	-0.011
-416.442	8.057	-0.198	0.147
-415.428	458.534	0.018	0.041
-414.413	-200.000	-0.007	-0.101
-413.398	-200.000	0.036	-0.232
-412.384	114.251	-0.034	-0.041
-411.369	-113.649	0.203	0.039
-410.355	-121.643	0.072	0.012
-409.340	28.756	0.317	0.266
-408.325	137.976	-0.093	-0.120
-407.311	-52.929	0.339	-0.155
-406.296	244.267	0.118	0.197
-405.282	800.000	-0.081	0.288
-404.267	-200.000	-0.039	0.330
-403.252	-82.650	0.268	0.086
-402.238	-37.121	0.183	-0.097
-401.223	-200.000	0.022	-0.293
-400.209	42.948	0.072	0.065
-399.194	-165.828	0.234	0.010
-398.179	-200.000	-0.005	0.050
-397.165	63.632	-0.136	0.135
-396.150	440.848	-0.066	-0.143
-395.136	-200.000	-0.007	0.058
-394.121	413.946	0.184	-0.387
-393.106	-142.466	-0.074	-0.007
-392.092	90.516	-0.330	0.366
-391.077	-44.639	-0.055	-0.027
-390.063	-92.065	0.065	-0.018
-389.048	-15.046	-0.104	-0.066
-388.033	732.453	-0.043	0.113
-387.019	480.262	-0.119	0.267
-386.004	-99.510	0.241	-0.060
-384.990	-129.186	-0.243	0.034
-383.975	-32.396	0.468	-0.259
-382.960	20.994	-0.084	-0.067
-381.946	800.000	-0.011	-0.045
-380.931	-163.958	-0.086	-0.004
-379.917	-200.000	-0.101	-0.440
-378.902	397.484	0.120	-0.247
-377.888	-200.000	0.048	-0.319
-376.873	-126.473	-0.160	-0.024
-375.858	-79.871	0.022	-0.007
-374.844	29.238	0.264	0.222
-373.829	-99.897	-0.147	0.036
-372.815	-200.000	0.057	0.326
-371.800	27.485	0.255	-0.212
-370.785	240.629	0.077	-0.127
-369.771	468.891	0.161	0.357
-368.756	296.749	0.004	-0.008
-367.742	-200.000	0.023	-0.126
-366.727	-89.679	0.252	-0.073
-365.712	12.281	-0.180	0.137
-364.698	-200.000	0.017	0.147
-363.683	800.000	-0.117	0.333
-362.669	-86.394	-0.141	0.043
-361.654	14.469	-0.096	0.074
-360.639	-5.916	0.158	0.107
-359.625	-51.552	0.211	0.097
-358.610	-102.072	-0.143	-0.034
-357.596	-86.047	-0.304	-0.093
-356.581	137.954	-0.101	0.131
-355.566	24.075	0.372	0.303
-354.552	-40.543	0.203	0.104
-353.537	218.149	-0.128	-0.203
-352.523	-64.376	0.257	-0.104
-351.508	-40.925	-0.132	0.068
-350.493	800.000	0.069	-0.266
-349.479	194.693	-0.038	-0.057
-348.464	207.412	-0.035	-0.053
-347.450	-28.808	-0.308	0.175
-346.435	-40.701	0.392	-0.201
-345.420	-5.963	0.120	0.081
-344.406	-200.000	0.004	0.114
-343.391	-60.493	-0.037	0.015
-342.377	83.756	0.215	0.232
-341.362	800.000	-0.037	-0.108
-340.348	-14.438	-0.172	-0.109
-339.333	53.272	0.138	0.130
-338.318	25.634	0.075	-0.062
-337.304	-92.933	0.132	0.037
-336.289	-200.000	-0.011	0.308
-335.275	-200.000	0.002	-0.093
-334.260	-19.741	0.252	-0.154
-333.245	416.384	-0.205	0.432
-332.231	202.291	0.252	-0.384
-331.216	-85.928	-0.381	0.116
-330.202	-33.610	0.153	-0.084
-329.187	-42.501	-0.192	0.096
-328.172	24.996	-0.366	-0.300
-327.158	-200.000	-0.020	0.159
-326.143	207.132	0.142	-0.219
-325.129	434.878	-0.035	-0.076
-324.114	-150.595	-0.357	-0.027
-323.099	-200.000	-0.007	0.034
-322.085	645.041	0.112	0.283
-321.070	90.646	-0.150	-0.166
-320.056	-160.942	0.053	-0.003
-319.041	-154.517	0.205	-0.014
-318.026	691.211	0.039	-0.102
-317.012	-166.179	0.395	-0.017
-315.997	-200.000	0.021	-0.281
-314.983	-200.000	-0.018	-0.293
-313.968	-200.000	0.049	0.229
-312.953	800.000	0.061	-0.174
-311.939	-200.000	0.029	0.151
-310.924	-124.142	0.096	-0.015
-309.910	257.123	-0.156	0.264
-308.895	-72.065	-0.482	-0.177
-307.880	409.451	0.044	0.093
-306.866	65.806	0.195	0.196
-305.851	-66.246	-0.117	-0.046
-304.837	177.019	-0.125	-0.180
-303.822	-19.316	0.055	-0.034
-302.807	-200.000	-0.078	0.435
-301.793	64.293	-0.066	0.066
-300.778	135.041	0.187	-0.240
-299.764	-44.427	-0.217	0.107
-298.749	-95.793	0.210	0.055
-297.735	-99.398	0.213	0.053
-296.720	62.421	-0.093	0.092
-295.705	-22.753	-0.289	0.172
-294.691	49.543	-0.052	0.049
-293.676	800.000	-0.042	-0.145
-292.662	-193.130	0.027	0.000
-291.647	-200.000	-0.021	-0.122
-290.632	178.765	0.128	0.185
-289.618	-200.000	0.005	0.058
-288.603	-200.000	-0.030	-0.206
-287.589	380.094	-0.062	-0.126
-286.574	75.203	0.092	0.096
-285.559	98.719	0.068	-0.078
-284.545	-142.088	-0.353	-0.035
-283.530	-137.324	0.068	0.008
-282.516	8.184	0.304	0.225
-281.501	64.281	-0.256	0.254
-280.486	-200.000	0.042	0.311
-279.472	305.526	0.107	0.197
-278.457	800.000	-0.068	0.284
-277.443	246.497	-0.241	0.400
-276.428	-200.000	-0.006	0.315
-275.413	-164.528	0.280	-0.013
-274.399	-200.000	0.010	0.160
-273.384	288.902	0.039	0.069
-272.370	-64.440	-0.206	-0.083
-271.355	341.515	0.088	-0.170
-270.340	147.627	0.120	-0.159
-269.326	409.060	0.125	-0.261
-268.311	-10.868	-0.221	0.144
-267.297	386.274	0.090	-0.184
-266.282	-106.121	0.251	-0.056
-265.267	-10.786	0.062	0.040
-264.253	427.334	-0.078	0.165
-263.238	-130.783	0.227	-0.030
-262.224	800.000	-0.103	0.307
-261.209	134.348	0.181	0.231
-260.195	-151.409	-0.076	0.006
-259.180	-4.108	0.059	0.040
-258.165	-200.000	0.011	0.091
-257.151	800.000	-0.013	0.045
-256.136	-145.474	-0.269	0.024
-255.122	48.659	0.108	0.100
-254.107	-200.000	-0.270	-0.001
-253.092	800.000	0.074	0.287
-252.078	-86.351	0.021	0.006
-251.063	110.329	-0.206	-0.243
-250.049	-49.769	0.346	0.162
-249.034	-60.672	0.299	-0.125
-248.019	-57.059	0.152	0.066
-247.005	200.870	-0.015	-0.023
-245.990	-118.799	0.296	-0.051
-244.976	-200.000	-0.067	0.423
-243.961	95.559	0.009	0.010
-242.946	-181.550	-0.181	0.003
-241.932	-88.963	0.172	0.050
-240.917	-19.885	-0.342	0.208
-239.903	60.428	-0.202	-0.197
-238.888	-109.898	-0.100	0.021
-237.873	102.727	0.328	0.378
-236.859	-200.000	0.016	0.112
-235.844	-62.163	-0.441	-0.181
-234.830	306.990	-0.109	0.200
-233.815	48.601	0.052	-0.048
-232.800	545.682	0.137	-0.324
-231.786	36.665	-0.075	0.065
-230.771	-159.389	0.411	0.023
-229.757	272.671	-0.134	-0.234
-228.742	27.420	0.236	0.196
-227.727	-87.591	0.065	-0.019
-226.713	-34.386	-0.244	0.132
-225.698	-200.000	-0.022	0.195
-224.684	78.746	0.049	0.052
-223.669	716.987	0.091	-0.238
-222.655	-64.442	-0.303	0.121
-221.640	800.000	0.037	-0.138
-220.625	-147.863	-0.091	-0.008
-219.611	-173.988	-0.275	0.008
-218.596	-200.000	-0.282	0.001
-217.582	45.504	-0.157	-0.143
-216.567	-200.000	-0.002	-0.195
-215.552	-114.184	0.139	0.026
-214.538	167.591	0.179	-0.250
-213.523	-110.477	-0.172	-0.035
-212.509	-87.272	-0.187	-0.056
-211.494	96.031	0.194	0.218
-210.479	-82.888	0.222	0.070
-209.465	1.010	-0.233	0.164
-208.450	96.818	0.164	-0.185
-207.436	-87.404	0.263	-0.079
-206.421	-55.641	-0.158	0.069
-205.406	-82.902	-0.258	0.082
-204.392	-200.000	-0.050	0.391
-203.377	-37.159	0.230	-0.121
-202.363	800.000	-0.057	0.226
-201.348	-176.046	-0.116	-0.003
-200.333	25.232	0.051	0.042
-199.319	6.380	-0.199	-0.145
-198.304	-50.171	-0.283	-0.131
-197.290	-65.826	0.126	0.050
-196.275	-200.000	-0.052	0.315
-195.260	367.366	0.204	0.405
-194.246	-7.760	0.432	0.287
-193.231	-200.000	-0.043	0.371
-192.217	-38.258	-0.131	0.068
-191.202	157.327	0.144	0.196
-190.187	16.085	0.085	-0.066
-189.173	-107.250	0.013	0.003
-188.158	-41.486	-0.185	-0.093
-187.144	-200.000	0.029	0.166
-186.129	184.393	0.045	-0.065
-185.114	-24.911	-0.122	-0.071
-184.100	-144.612	0.305	-0.028
-183.085	79.419	0.154	0.163
-182.071	291.251	-0.249	0.445
-181.056	145.448	0.216	-0.284
-180.042	222.133	-0.144	-0.228
-179.027	800.000	-0.059	0.174
-178.012	126.813	0.178	0.222
-176.998	89.192	0.122	-0.134
-175.983	-64.128	0.302	0.121
-174.969	-29.541	-0.288	-0.162
-173.954	45.957	0.137	-0.125
-172.939	-200.000	-0.003	0.080
-171.925	-200.000	0.044	0.203
-170.910	27.185	-0.092	0.076
-169.896	-200.000	-0.072	-0.331
-168.881	67.196	0.309	-0.310
-167.866	-69.475	-0.278	-0.105
-166.852	-83.267	-0.521	-0.164
-165.837	63.506	0.199	0.196
-164.823	-129.189	-0.256	-0.035
-163.808	800.000	0.048	-0.198
-162.793	-200.000	0.009	0.360
-161.779	800.000	0.036	-0.145
-160.764	-91.338	0.154	0.043
-159.750	800.000	-0.072	-0.225
-158.735	36.289	-0.072	-0.062
-157.720	73.062	-0.169	-0.173
-156.706	-113.536	0.464	-0.089
-155.691	800.000	0.022	-0.082
-154.677	800.000	-0.043	0.182
-153.662	-35.146	-0.088	-0.047
-152.647	3.921	0.198	0.142
-151.633	-87.596	0.034	-0.010
-150.618	-200.000	0.045	0.356
-149.604	-89.906	0.212	0.061
-148.589	-49.418	-0.089	0.042
-147.574	-68.837	0.073	-0.028
-146.560	27.642	-0.112	0.092
-145.545	-103.299	0.326	-0.076
-144.531	-5.949	-0.246	0.165
-143.516	474.404	-0.205	-0.453
-142.502	-200.000	-0.035	-0.229
-141.487	282.731	0.139	0.245
-140.472	698.822	-0.096	0.248
-139.458	-93.553	0.270	0.073
-138.443	-83.153	-0.127	0.040
-137.429	27.560	0.238	-0.196
-136.414	228.766	-0.145	-0.231
-135.399	85.687	-0.401	0.432
-134.385	800.000	0.053	0.194
-133.370	14.098	0.233	0.178
-132.356	720.780	-0.124	0.324
-131.341	-200.000	0.010	0.160
-130.326	459.995	-0.041	-0.091
-129.312	238.223	-0.224	0.364
-128.297	41.564	-0.213	0.189
-127.283	-78.605	0.306	-0.103
-126.268	-112.091	-0.353	0.070
-125.253	202.002	0.039	-0.059
-124.239	-200.000	-0.024	0.236
-123.224	35.633	0.078	0.067
-122.210	758.855	-0.107	0.284
-121.195	-200.000	-0.029	0.275
-120.180	-57.888	0.177	-0.076
-119.166	123.920	0.110	-0.135
-118.151	-200.000	0.002	-0.167
-117.137	-64.411	-0.355	-0.142
-116.122	312.797	-0.167	-0.307
-115.107	207.915	0.013	-0.020
-114.093	-200.000	0.029	0.302
-113.078	704.616	-0.056	-0.145
-112.064	-124.625	0.052	-0.008
-111.049	35.513	-0.146	0.126
-110.034	341.051	0.161	0.308
-109.020	117.308	-0.088	0.106
-108.005	-133.584	0.245	-0.030
-106.991	-118.756	0.090	0.015
-105.976	144.748	-0.115	-0.151
-104.962	33.835	-0.101	-0.086
-103.947	-8.189	0.339	-0.224
-102.932	40.849	0.040	-0.035
-101.918	93.250	0.219	0.242
-100.903	234.708	0.146	0.235
-99.889	-82.136	0.049	0.016
-98.874	17.614	0.213	0.166
-97.859	-200.000	0.036	-0.305
-96.845	-26.193	-0.391	0.225
-95.830	201.205	-0.171	-0.258
-94.816	94.921	-0.185	-0.206
-93.801	171.743	0.127	-0.179
-92.786	800.000	-0.075	0.218
-91.772	215.846	0.212	0.329
-90.757	43.684	0.213	0.191
-89.743	-56.215	0.423	0.184
-88.728	-132.180	0.149	-0.019
-87.713	79.697	0.061	0.064
-86.699	449.856	-0.062	0.133
-85.684	372.897	-0.141	-0.280
-84.670	82.574	0.086	-0.092
-83.655	135.877	0.166	-0.211
-82.640	-200.000	-0.034	0.182
-81.626	433.822	0.070	0.150
-80.611	96.663	0.217	-0.243
-79.597	-70.424	-0.023	-0.009
-78.582	-200.000	0.050	0.258
-77.567	800.000	-0.030	0.107
-76.553	51.405	-0.142	-0.132
-75.538	204.132	-0.072	0.109
-74.524	-83.613	-0.156	0.049
-73.509	246.644	0.110	-0.181
-72.494	41.453	-0.161	0.143
-71.480	130.035	0.226	0.283
-70.465	-81.224	0.333	-0.107
-69.451	11.180	-0.080	0.060
-68.436	-16.210	-0.036	0.022
-67.422	-200.000	0.008	0.124
-66.407	-73.866	-0.146	0.052
-65.392	-110.324	-0.293	0.060
-64.378	800.000	0.049	0.178
-63.363	-200.000	0.041	-0.201
-62.349	-171.292	0.409	-0.013
-61.334	114.140	-0.914	-1.088
-60.319	-25.081	1.012	0.586
-59.305	531.753	-0.410	-0.949
-58.290	150.087	0.741	0.983
-57.276	-200.000	0.310	1.784
-56.261	-200.000	109.955	638.399
-55.246	489.254	1484.424	3317.186
-54.232	150.125	2656.048	3523.376
-53.217	100.848	2268.836	2578.850
-52.203	37.735	1885.132	1636.692
-51.188	31.717	1677.104	1410.865
-50.173	29.291	1634.764	1357.352
-49.159	50.396	1688.687	1560.452
-48.144	50.819	1703.296	1577.041
-47.130	31.467	1662.707	1396.665
-46.115	28.711	1648.022	1363.840
-45.100	28.505	1643.267	1358.328
-44.086	28.500	1640.301	1355.778
-43.071	28.450	1638.292	1353.695
-42.057	28.445	1635.674	1351.445
-41.042	28.439	1633.907	1349.890
-40.027	28.462	1632.041	1348.460
-39.013	28.516	1629.857	1347.001
-37.998	28.470	1628.564	1345.536
-36.984	28.536	1626.880	1344.582
-35.969	28.565	1625.629	1343.703
-34.954	28.562	1624.577	1342.761
-33.940	28.502	1623.011	1340.976
-32.925	28.589	1620.844	1339.766
-31.911	28.630	1619.149	1338.606
-30.896	28.650	1617.055	1336.972
-29.881	28.638	1615.523	1335.564
-28.867	28.594	1614.130	1334.039
-27.852	28.602	1612.506	1332.700
-26.838	28.586	1610.759	1331.086
-25.823	28.580	1610.310	1330.621
-24.809	28.654	1608.402	1329.531
-23.794	28.596	1607.531	1328.335
-22.779	28.680	1605.772	1327.439
-21.765	28.591	1603.889	1325.185
-20.750	28.653	1602.459	1324.400
-19.736	28.668	1601.424	1323.602
-18.721	28.710	1599.973	1322.649
-17.706	28.630	1598.688	1320.959
-16.692	28.674	1596.973	1319.803
-15.677	28.699	1595.847	1319.005
-14.663	28.697	1594.489	1317.814
-13.648	28.664	1593.244	1316.493
-12.633	28.699	1590.934	1314.785
-11.619	28.681	1589.809	1313.677
-10.604	28.594	1588.578	1311.981
-9.590	28.719	1587.045	1311.554
-8.575	28.701	1585.857	1310.395
-7.560	28.750	1584.675	1309.713
-6.546	28.710	1583.716	1308.584
-5.531	28.713	1582.726	1307.738
-4.517	28.650	1581.763	1306.443
-3.502	28.650	1580.745	1305.548
-2.487	28.716	1579.442	1304.888
-1.473	28.366	1566.833	1291.954
-0.458	25.273	1547.755	1254.590
0.556	19.474	1548.806	1222.576
1.571	17.067	1572.261	1223.648
2.586	16.593	1585.020	1230.029
3.600	15.816	1534.183	1185.001
4.615	12.748	1436.746	1089.381
5.629	9.677	1381.220	1027.635
6.644	9.098	1374.558	1018.916
7.659	8.998	1373.183	1017.171
8.673	8.955	1372.344	1016.186
9.688	8.819	1370.134	1013.603
10.702	8.783	1367.273	1011.168
11.717	10.321	1369.144	1022.178
12.731	13.965	1375.961	1050.248
13.746	16.831	1379.913	1071.318
14.761	17.139	1379.826	1073.104
15.775	16.373	1376.775	1065.803
16.790	15.183	1374.125	1056.158
17.804	14.356	1371.901	1049.152
18.819	13.937	1370.310	1045.209
19.834	13.668	1368.876	1042.331
20.848	13.505	1367.754	1040.357
21.863	13.254	1366.372	1037.642
22.877	13.079	1365.425	1035.729
23.892	13.066	1364.236	1034.654
24.907	12.996	1363.885	1033.859
25.921	13.041	1362.405	1032.926
26.936	13.127	1361.792	1032.908
27.950	13.206	1360.680	1032.469
28.965	13.181	1359.567	1031.375
29.980	13.314	1358.673	1031.437
30.994	13.321	1357.356	1030.387
32.009	13.310	1356.108	1029.279
33.023	13.335	1354.834	1028.381
34.038	13.303	1353.708	1027.235
35.053	13.209	1352.600	1025.721
36.067	13.233	1351.528	1024.962
37.082	13.228	1350.044	1023.717
38.096	13.289	1349.326	1023.459
39.111	13.288	1348.714	1022.899
40.126	13.214	1347.663	1021.553
41.140	13.009	1346.788	1019.533
42.155	13.022	1345.997	1018.928
43.169	12.996	1346.034	1018.706
44.184	12.963	1345.779	1018.217
45.199	12.891	1345.417	1017.408
46.213	13.104	1344.811	1018.172
47.228	13.218	1343.396	1017.717
48.242	13.169	1342.478	1016.625
49.257	13.028	1341.665	1015.053
50.271	13.144	1339.737	1014.216
51.286	13.115	1338.587	1013.081
52.301	13.156	1337.048	1012.074
53.315	13.058	1336.224	1010.766
54.330	13.059	1334.616	1009.466
55.344	12.950	1333.772	1008.068
56.359	13.151	1332.500	1008.248
57.374	13.037	1331.958	1007.052
58.388	12.920	1331.284	1005.738
59.403	12.888	1330.917	1005.176
60.417	12.989	1330.039	1005.039
61.432	12.991	1328.798	1004.025
62.447	12.894	1327.844	1002.626
63.461	12.803	1327.281	1001.561
64.476	12.841	1326.236	1000.915
65.490	12.899	1324.694	1000.014
66.505	12.882	1323.445	998.879
67.520	12.876	1322.251	997.856
68.534	12.880	1321.254	997.035
69.549	12.945	1320.125	996.487
70.563	12.914	1319.372	995.647
71.578	12.839	1318.024	994.086
72.593	12.842	1317.193	993.389
73.607	12.797	1316.534	992.532
74.622	12.782	1316.103	992.031
75.636	12.789	1315.163	991.276
76.651	12.828	1314.236	990.727
77.666	12.813	1314.099	990.444
78.680	12.871	1313.499	990.255
79.695	12.881	1312.627	989.571
80.709	12.948	1312.190	989.554
81.724	12.936	1311.254	988.685
82.739	13.012	1310.226	988.280
83.753	13.117	1309.158	988.017
84.768	13.100	1308.555	987.371
85.782	13.248	1307.314	987.229
86.797	13.105	1306.225	985.468
87.812	13.192	1304.780	984.813
88.826	13.161	1303.668	983.696
89.841	13.170	1302.204	982.559
90.855	13.239	1301.058	982.017
91.870	13.250	1300.380	981.485
92.884	13.133	1300.104	980.494
93.899	13.192	1299.105	980.004
94.914	13.227	1298.224	979.464
95.928	13.280	1297.786	979.361
96.943	13.162	1296.814	977.839
97.957	13.146	1295.873	976.952
98.972	13.168	1294.579	976.015
99.987	13.292	1293.159	975.590
101.001	13.202	1292.298	974.324
102.016	13.109	1291.645	973.200
103.030	13.223	1290.733	973.096
104.045	13.098	1290.270	971.925
105.060	13.059	1288.765	970.475
106.074	13.143	1287.059	969.600
107.089	12.928	1285.954	967.422
108.103	12.915	1284.446	966.126
109.118	12.919	1283.479	965.332
110.133	13.037	1281.802	964.678
111.147	12.948	1280.707	963.249
112.162	13.040	1279.391	962.708
113.176	13.042	1278.011	961.596
114.191	12.994	1277.556	960.891
115.206	13.004	1276.432	960.017
116.220	13.085	1274.834	959.202
117.235	13.101	1273.627	958.305
118.249	13.032	1272.806	957.200
119.264	12.968	1271.725	955.933
120.279	12.968	1270.538	954.955
121.293	13.013	1269.625	954.447
122.308	12.993	1268.118	953.114
123.322	12.912	1267.473	952.076
124.337	12.887	1266.837	951.367
125.352	12.995	1265.336	950.779
126.366	12.906	1264.099	949.257
127.381	12.944	1263.087	948.631
128.395	12.943	1262.310	947.957
129.410	13.050	1261.301	947.726
130.424	13.010	1260.178	946.569
131.439	13.052	1259.353	946.110
132.454	13.103	1258.394	945.594
133.468	13.107	1257.333	944.737
134.483	13.131	1256.642	944.271
135.497	13.100	1255.881	943.440
136.512	12.992	1254.728	941.876
137.527	13.030	1253.282	940.923
138.541	13.138	1251.719	940.281
139.556	13.021	1250.773	938.822
140.570	13.217	1249.578	938.955
141.585	13.216	1248.482	938.041
142.600	13.304	1246.890	937.261
143.614	13.336	1246.133	936.789
144.629	13.272	1245.498	935.868
145.643	13.290	1244.478	935.120
146.658	13.201	1242.846	933.312
147.673	13.160	1241.498	931.982
148.687	13.219	1240.511	931.493
149.702	13.156	1238.892	929.838
150.716	13.258	1237.209	929.069
151.731	13.136	1236.482	927.756
152.746	13.229	1235.199	927.233
153.760	13.240	1234.452	926.652
154.775	13.256	1233.368	925.846
155.789	13.279	1231.889	924.778
156.804	13.352	1230.955	924.407
157.819	13.255	1230.521	923.456
158.833	13.420	1229.140	923.260
159.848	13.402	1228.398	922.520
160.862	13.439	1227.314	921.828
161.877	13.278	1226.077	919.922
162.892	13.269	1224.798	918.833
163.906	13.272	1224.790	918.763
164.921	13.226	1223.698	917.606
165.935	13.263	1222.430	916.780
166.950	13.326	1221.678	916.481
167.964	13.411	1220.816	916.228
168.979	13.273	1220.641	915.250
169.994	13.431	1219.276	915.018
171.008	13.453	1218.835	914.729
172.023	13.474	1218.087	914.205
173.037	13.482	1217.251	913.535
174.052	13.529	1216.159	912.898
175.067	13.415	1215.376	911.598
176.081	13.380	1214.483	910.657
177.096	13.371	1213.485	909.777
178.110	13.458	1212.195	909.209
179.125	13.531	1210.569	908.311
180.140	13.498	1209.872	907.527
181.154	13.480	1208.777	906.526
182.169	13.476	1207.588	905.533
183.183	13.480	1206.529	904.678
184.198	13.533	1205.209	903.901
185.213	13.629	1203.926	903.379
186.227	13.641	1203.335	902.921
187.242	13.552	1202.132	901.457
188.256	13.671	1201.130	901.269
189.271	13.725	1200.200	900.787
190.286	13.518	1199.209	898.841
191.300	13.434	1198.222	897.566
192.315	13.388	1197.503	896.696
193.329	13.440	1196.926	896.467
194.344	13.509	1196.055	896.111
195.359	13.613	1196.147	896.662
196.373	13.633	1195.391	896.122
197.388	13.762	1194.800	896.301
198.402	13.772	1194.599	896.124
199.417	13.851	1193.827	895.888
200.432	13.845	1193.206	895.313
201.446	13.903	1192.572	895.070
202.461	13.893	1191.112	893.843
203.475	13.979	1190.005	893.392
204.490	13.822	1189.093	891.788
205.504	13.839	1187.819	890.846
206.519	13.878	1186.483	889.972
207.534	13.862	1185.643	889.179
208.548	13.724	1184.724	887.673
209.563	13.868	1183.870	887.722
210.577	13.912	1183.028	887.246
211.592	13.892	1182.179	886.425
212.607	13.993	1181.214	886.163
213.621	14.000	1180.106	885.290
214.636	13.912	1179.264	884.111
215.650	13.982	1178.800	884.056
216.665	13.952	1177.557	882.890
217.680	14.206	1176.685	883.506
218.694	14.185	1175.570	882.479
219.709	14.108	1175.375	881.844
220.723	14.116	1174.620	881.245
221.738	14.097	1174.208	880.758
222.753	14.118	1173.178	880.018
223.767	14.161	1172.465	879.629
224.782	14.224	1171.838	879.417
225.796	14.223	1171.346	878.966
226.811	14.216	1170.768	878.417
227.826	14.169	1169.631	877.237
228.840	14.219	1168.952	876.914
229.855	14.090	1168.592	875.885
230.869	14.159	1167.551	875.389
231.884	14.154	1166.723	874.667
232.899	14.212	1165.481	873.964
233.913	14.177	1165.112	873.423
234.928	14.020	1164.175	871.819
235.942	14.062	1163.287	871.298
236.957	14.110	1163.009	871.268
237.972	14.168	1161.839	870.615
238.986	14.137	1161.666	870.246
240.001	14.119	1161.016	869.588
241.015	14.227	1159.949	869.277
242.030	14.199	1158.994	868.340
243.045	14.287	1158.585	868.412
244.059	14.434	1157.033	867.937
245.074	14.338	1157.102	867.412
246.088	14.416	1156.027	866.935
247.103	14.399	1155.321	866.243
248.117	14.460	1154.453	865.830
249.132	14.486	1153.823	865.417
250.147	14.573	1153.016	865.186
251.161	14.647	1152.446	865.068
252.176	14.632	1151.841	864.456
253.190	14.738	1150.948	864.261
254.205	14.681	1150.642	863.660
255.220	14.671	1150.216	863.209
256.234	14.775	1149.331	863.010
257.249	14.747	1148.440	862.119
258.263	14.762	1147.781	861.622
259.278	14.730	1147.385	861.085
260.293	14.836	1146.939	861.221
261.307	14.921	1146.047	860.915
262.322	14.758	1145.843	859.847
263.336	14.928	1144.909	859.942
264.351	14.893	1144.444	859.335
265.366	14.974	1143.821	859.209
266.380	14.982	1142.771	858.384
267.395	14.894	1142.041	857.309
268.409	14.851	1141.443	856.565
269.424	14.746	1141.108	855.701
270.439	14.866	1140.118	855.495
271.453	14.858	1139.330	854.786
272.468	14.897	1138.561	854.334
273.482	14.859	1137.563	853.314
274.497	14.916	1137.108	853.188
275.512	14.915	1136.387	852.568
276.526	14.955	1135.500	852.032
277.541	14.725	1135.559	850.827
278.555	14.900	1134.545	850.885
279.570	14.958	1133.447	850.279
280.585	15.100	1132.552	850.253
281.599	15.112	1131.714	849.613
282.614	15.024	1130.875	848.462
283.628	15.149	1129.534	848.012
284.643	15.103	1128.972	847.283
285.657	15.011	1128.039	846.043
286.672	15.012	1126.926	845.136
287.687	15.156	1125.742	844.902
288.701	15.175	1125.119	844.453
289.716	15.086	1124.769	843.667
290.730	15.235	1123.958	843.737
291.745	15.135	1123.293	842.656
292.760	15.069	1123.049	842.070
293.774	15.215	1122.444	842.275
294.789	15.210	1122.035	841.866
295.803	15.200	1121.353	841.234
296.818	15.195	1120.576	840.547
297.833	15.246	1119.153	839.661
298.847	15.256	1118.459	839.119
299.862	15.307	1117.777	838.786
300.876	15.361	1117.260	838.594
301.891	15.397	1116.428	838.077
302.906	15.464	1115.539	837.670
303.920	15.548	1115.205	837.762
304.935	15.539	1114.432	837.066
305.949	15.553	1113.981	836.718
306.964	15.532	1113.250	835.990
307.979	15.506	1112.451	835.187
308.993	15.340	1111.991	833.945
310.008	15.469	1111.336	834.022
311.022	15.552	1110.100	833.429
312.037	15.504	1109.606	832.751
313.052	15.538	1108.870	832.293
314.066	15.436	1107.559	830.727
315.081	15.385	1107.202	830.136
316.095	15.288	1106.271	828.886
317.110	15.497	1105.347	829.151
318.125	15.392	1105.093	828.367
319.139	15.525	1104.008	828.136
320.154	15.466	1103.322	827.260
321.168	15.537	1102.351	826.809
322.183	15.574	1101.758	826.473
323.197	15.497	1101.662	825.945
324.212	15.609	1100.657	825.672
325.227	15.489	1100.298	824.739
326.241	15.496	1100.105	824.555
327.256	15.591	1098.974	824.100
328.270	15.572	1097.688	822.970
329.285	15.518	1097.014	822.131
330.300	15.540	1096.127	821.500
331.314	15.559	1094.604	820.376
332.329	15.591	1093.837	819.885
333.343	15.587	1093.526	819.563
334.358	15.592	1092.885	819.034
335.373	15.672	1091.597	818.383
336.387	15.709	1090.796	817.890
337.402	15.750	1090.114	817.505
338.416	15.774	1089.985	817.456
339.431	15.663	1089.055	816.146
340.446	15.912	1088.133	816.588
341.460	15.902	1087.642	816.098
342.475	15.890	1086.894	815.407
343.489	15.978	1086.057	815.134
344.504	15.941	1085.143	814.199
345.519	16.017	1084.305	813.866
346.533	16.090	1083.246	813.352
347.548	16.133	1082.663	813.047
348.562	16.115	1081.710	812.173
349.577	16.064	1081.091	811.392
350.592	15.921	1080.422	810.127
351.606	15.894	1079.352	809.126
352.621	15.856	1079.115	808.694
353.635	15.899	1078.552	808.406
354.650	16.042	1077.683	808.372
355.665	16.072	1076.852	807.820
356.679	16.054	1076.392	807.316
357.694	16.110	1075.674	806.976
358.708	16.033	1075.149	806.139
359.723	16.221	1074.424	806.424
360.738	16.074	1074.168	805.460
361.752	16.061	1073.521	804.841
362.767	16.111	1072.972	804.595
363.781	16.186	1072.292	804.370
364.796	16.199	1071.686	803.906
365.810	16.164	1071.308	803.385
366.825	16.329	1070.784	803.707
367.840	16.459	1069.749	803.477
368.854	16.426	1069.218	802.853
369.869	16.431	1068.378	802.175
370.883	16.459	1067.546	801.609
371.898	16.336	1066.809	800.402
372.913	16.302	1066.185	799.705
373.927	16.321	1066.161	799.705
374.942	16.367	1065.604	799.432
375.956	16.513	1065.014	799.612
376.971	16.386	1064.440	798.509
377.986	16.406	1063.907	798.134
379.000	16.493	1063.311	798.026
380.015	16.611	1062.621	797.995
381.029	16.555	1062.015	797.202
382.044	16.608	1061.405	796.926
383.059	16.581	1060.514	796.059
384.073	16.621	1059.864	795.690
385.088	16.601	1058.976	794.855
386.102	16.628	1057.868	794.080
387.117	16.630	1056.971	793.350
388.132	16.551	1056.296	792.403
389.146	16.527	1055.183	791.381
390.161	16.545	1054.612	790.970
391.175	16.629	1054.148	790.946
392.190	16.630	1053.365	790.292
393.205	16.667	1052.263	789.565
394.219	16.747	1051.680	789.432
395.234	16.756	1050.961	788.865
396.248	16.715	1049.633	787.607
397.263	16.640	1048.738	786.520
398.278	16.731	1048.261	786.511
399.292	16.696	1047.628	785.807
400.307	16.624	1046.953	784.895
401.321	16.641	1046.376	784.474
402.336	16.689	1045.514	783.982
403.350	16.639	1044.816	783.157
404.365	16.706	1044.015	782.796
405.380	16.698	1043.240	782.109
406.394	16.690	1042.616	781.534
407.409	16.820	1042.357	781.871
408.423	16.821	1041.586	781.229
409.438	16.769	1041.027	780.500
410.453	17.040	1039.926	780.851
411.467	17.056	1039.418	780.475
412.482	17.081	1038.662	779.955
413.496	17.142	1037.941	779.622
414.511	17.000	1037.555	778.614
415.526	16.938	1037.626	778.311
416.540	17.054	1036.959	778.277
417.555	17.312	1036.053	778.710
418.569	17.201	1035.487	777.709
419.584	17.161	1034.634	776.813
420.599	17.133	1034.981	776.876
421.613	104.504	1323.739	1475.502
422.628	95.774	1365.752	1475.594
