DTS Sentinel unit serial number:	SN413079Multiplexer serial number:	ORYXHardware model number:	OX4-SRSoftware version number:	ORYX F/W v4.00 Oryx Data Collector v3.7.2.0data status	okinstallation	princeton_trtdifferential loss correction	single-endedforward channel	channel 2reverse channel	N/Adate	2019/09/16time	06:51:35forward acquisition time	60.00reverse acquisition time	0.00gamma	496.2192k internal	0.2334k external	0.2334temperature offset calibration	0.9978default loss term (dB/km)	0.3790temperature slope calibration	1.0000multiplexer offset coefficient	1.0000multiplexer slope coefficient	1.0000fibre end	0.00T internal ref (°C)	27.37T ext. ref 1 (°C)	11.46T ext. ref 2 (°C)	21.77length (m)	temperature (°C)	Stokes	anti-Stokes-747.200	-78.843	-0.307	-0.105
-746.185	-38.426	-0.223	0.119
-745.171	-86.818	0.211	-0.065
-744.156	-152.072	-0.210	0.015
-743.142	800.000	0.065	-0.263
-742.127	-200.000	0.009	0.357
-741.112	800.000	-0.048	0.200
-740.098	-175.173	-0.188	0.005
-739.083	-140.138	0.135	-0.014
-738.069	-200.000	-0.016	0.141
-737.054	-163.401	0.150	0.007
-736.039	-121.179	-0.371	0.062
-735.025	-95.190	0.217	0.059
-734.010	72.672	0.074	0.078
-732.996	800.000	-0.064	-0.183
-731.981	-2.741	-0.252	-0.177
-730.966	800.000	0.031	0.105
-729.952	668.645	0.118	0.306
-728.937	174.915	0.219	-0.318
-727.923	-200.000	0.022	0.107
-726.908	187.940	-0.064	-0.096
-725.894	-32.112	0.262	-0.147
-724.879	120.796	-0.059	0.074
-723.864	-97.585	0.290	0.076
-722.850	-50.070	0.073	-0.035
-721.835	-102.792	-0.112	-0.027
-720.821	607.765	0.064	0.160
-719.806	-104.236	0.209	0.049
-718.791	-200.000	0.074	-0.436
-717.777	-124.176	-0.274	-0.043
-716.762	-96.802	0.158	-0.042
-715.748	-13.583	-0.021	0.013
-714.733	-16.139	-0.186	0.119
-713.718	22.388	-0.309	-0.253
-712.704	37.046	-0.211	0.187
-711.689	-125.108	0.123	-0.019
-710.675	112.575	-0.058	0.071
-709.660	-135.943	0.488	0.058
-708.645	25.980	0.231	-0.193
-707.631	64.190	0.140	-0.141
-706.616	800.000	0.101	-0.443
-705.602	447.547	-0.018	-0.039
-704.587	-139.016	0.122	0.013
-703.572	-33.798	0.156	-0.086
-702.558	395.940	0.162	0.339
-701.543	800.000	0.069	-0.243
-700.529	165.577	0.027	-0.039
-699.514	229.627	0.043	-0.071
-698.499	115.912	0.031	0.038
-697.485	18.804	-0.329	0.264
-696.470	-64.951	-0.199	0.081
-695.456	-200.000	0.002	-0.147
-694.441	800.000	0.041	-0.161
-693.426	-200.000	-0.004	-0.065
-692.412	-80.505	0.201	0.067
-691.397	365.060	-0.073	0.147
-690.383	800.000	-0.171	-0.593
-689.368	-63.532	-0.266	-0.110
-688.354	-133.451	0.049	0.006
-687.339	76.697	-0.078	0.083
-686.324	238.502	0.055	-0.092
-685.310	310.736	0.096	0.181
-684.295	27.660	-0.219	0.185
-683.281	-81.060	0.174	0.058
-682.266	800.000	0.080	0.276
-681.251	90.822	0.124	0.139
-680.237	-25.212	0.117	-0.069
-679.222	147.757	0.070	-0.095
-678.208	800.000	0.209	-0.616
-677.193	800.000	0.044	-0.175
-676.178	154.694	0.075	-0.103
-675.164	57.430	-0.086	-0.084
-674.149	9.401	-0.052	-0.039
-673.135	-200.000	-0.057	-0.288
-672.120	800.000	-0.066	0.278
-671.105	-11.980	0.076	-0.050
-670.091	605.149	-0.077	-0.193
-669.076	728.573	0.135	0.361
-668.062	277.942	-0.029	-0.051
-667.047	0.275	0.293	-0.210
-666.032	11.658	0.166	0.127
-665.018	-39.641	-0.094	0.049
-664.003	24.532	-0.077	0.064
-662.989	42.227	-0.223	-0.203
-661.974	656.447	-0.117	0.301
-660.959	77.972	0.051	-0.055
-659.945	-48.522	-0.211	-0.102
-658.930	-74.674	0.312	0.112
-657.916	707.993	-0.030	-0.078
-656.901	110.626	-0.232	-0.280
-655.886	800.000	0.102	-0.443
-654.872	56.628	-0.073	0.072
-653.857	-20.457	-0.243	-0.149
-652.843	92.961	0.105	0.119
-651.828	-115.160	-0.328	-0.062
-650.814	-200.000	-0.036	0.210
-649.799	-139.734	0.362	0.038
-648.784	7.414	-0.347	0.259
-647.770	-54.212	-0.071	-0.032
-646.755	-100.956	-0.426	0.105
-645.741	800.000	-0.099	-0.309
-644.726	-200.000	0.026	-0.145
-643.711	-124.484	-0.272	0.042
-642.697	179.320	-0.095	0.140
-641.682	145.102	-0.095	-0.127
-640.668	247.909	0.155	-0.262
-639.653	-200.000	0.088	0.499
-638.638	-200.000	0.002	-0.186
-637.624	12.009	-0.029	0.023
-636.609	526.515	-0.089	-0.210
-635.595	-200.000	0.023	-0.331
-634.580	65.302	-0.079	0.080
-633.565	-62.128	0.118	0.049
-632.551	-81.602	-0.473	-0.155
-631.536	-200.000	0.061	0.271
-630.522	-49.390	-0.174	0.083
-629.507	169.013	0.110	-0.157
-628.492	800.000	0.118	0.346
-627.478	231.227	-0.083	0.136
-626.463	-12.114	0.090	-0.059
-625.449	-169.780	0.244	0.009
-624.434	800.000	0.034	0.098
-623.419	66.244	0.188	0.190
-622.405	-155.081	-0.239	-0.016
-621.390	-200.000	0.000	0.356
-620.376	800.000	0.041	0.177
-619.361	507.324	0.112	0.261
-618.346	-38.447	0.325	-0.172
-617.332	-200.000	-0.018	-0.082
-616.317	124.671	-0.041	-0.051
-615.303	-200.000	0.009	-0.184
-614.288	-35.209	0.196	-0.107
-613.273	44.044	0.163	-0.149
-612.259	800.000	-0.079	-0.267
-611.244	138.838	0.129	0.170
-610.230	800.000	0.050	-0.200
-609.215	26.802	0.247	-0.207
-608.201	-94.049	-0.247	-0.068
-607.186	74.176	-0.169	0.177
-606.171	-200.000	0.033	0.194
-605.157	-26.043	-0.072	0.042
-604.142	179.569	0.098	-0.144
-603.128	746.182	-0.077	-0.208
-602.113	-103.774	-0.406	0.095
-601.098	-76.400	-0.242	-0.085
-600.084	223.935	0.114	0.184
-599.069	-143.692	-0.368	0.035
-598.055	72.430	0.189	0.197
-597.040	150.778	0.101	0.137
-596.025	-32.598	-0.079	0.044
-595.011	279.754	0.120	-0.214
-593.996	240.231	-0.119	-0.198
-592.982	10.241	0.098	-0.074
-591.967	-192.094	-0.283	0.003
-590.952	176.667	-0.172	-0.250
-589.938	38.510	0.297	-0.264
-588.923	-93.492	-0.345	0.095
-587.909	650.533	-0.052	0.132
-586.894	-4.778	0.224	-0.155
-585.879	78.651	0.222	-0.237
-584.865	-75.321	-0.452	-0.161
-583.850	-200.000	0.058	0.318
-582.836	-134.634	0.059	0.007
-581.821	-80.003	-0.139	-0.047
-580.806	16.007	0.313	-0.247
-579.792	521.361	-0.065	0.153
-578.777	-67.602	-0.287	0.112
-577.763	127.908	-0.055	0.070
-576.748	-200.000	-0.028	-0.363
-575.733	16.306	0.265	-0.209
-574.719	59.307	0.179	0.176
-573.704	272.667	-0.090	0.159
-572.690	-200.000	0.067	0.375
-571.675	85.962	-0.031	-0.035
-570.661	800.000	0.106	-0.430
-569.646	234.671	0.255	0.419
-568.631	129.086	-0.074	-0.094
-567.617	296.539	-0.120	-0.220
-566.602	-90.311	-0.159	-0.046
-565.588	13.326	-0.258	-0.199
-564.573	329.229	0.072	0.138
-563.558	-77.255	0.077	0.027
-562.544	398.757	-0.209	0.436
-561.529	136.645	-0.251	-0.327
-560.515	-200.000	0.042	0.459
-559.500	-50.321	-0.278	0.131
-558.485	-19.013	0.170	-0.106
-557.471	-47.287	-0.118	-0.057
-556.456	50.149	-0.179	-0.169
-555.442	-51.505	-0.131	0.061
-554.427	-96.258	-0.140	-0.037
-553.412	262.999	0.105	0.183
-552.398	97.808	0.082	0.094
-551.383	387.781	-0.122	0.251
-550.369	-171.242	-0.446	-0.015
-549.354	221.894	-0.176	0.282
-548.339	-200.000	0.018	0.583
-547.325	-200.000	0.071	-0.367
-546.310	298.170	0.148	0.272
-545.296	-200.000	-0.017	-0.084
-544.281	106.574	0.089	0.105
-543.266	-200.000	-0.005	-0.056
-542.252	-116.561	0.106	0.019
-541.237	-50.330	0.161	0.076
-540.223	-3.271	-0.190	-0.132
-539.208	-67.888	0.287	-0.112
-538.193	-200.000	-0.018	0.136
-537.179	192.857	0.240	-0.361
-536.164	800.000	-0.033	-0.132
-535.150	-151.992	-0.159	-0.012
-534.135	82.928	0.178	-0.192
-533.121	-45.253	0.280	-0.138
-532.106	-9.277	0.184	-0.122
-531.091	158.691	0.052	0.072
-530.077	195.811	-0.094	0.142
-529.062	800.000	-0.025	-0.085
-528.048	-200.000	-0.041	0.263
-527.033	-64.769	0.125	-0.051
-526.018	-71.971	-0.187	-0.069
-525.004	-200.000	0.047	-0.225
-523.989	42.352	-0.303	-0.274
-522.975	194.466	0.143	-0.216
-521.960	-200.000	-0.030	0.249
-520.945	-200.000	-0.015	0.177
-519.931	-200.000	0.143	0.000
-518.916	-10.184	0.230	-0.152
-517.902	139.633	0.089	0.116
-516.887	800.000	0.069	0.276
-515.872	-200.000	0.000	0.123
-514.858	-146.567	-0.041	-0.004
-513.843	128.286	0.213	0.270
-512.829	130.983	0.154	-0.197
-511.814	-118.358	0.163	-0.029
-510.799	-112.172	0.149	0.030
-509.785	468.212	0.086	-0.191
-508.770	6.776	-0.211	-0.157
-507.756	29.347	0.214	0.181
-506.741	800.000	-0.039	0.135
-505.726	800.000	-0.034	-0.141
-504.712	488.203	-0.108	0.245
-503.697	56.930	-0.199	-0.193
-502.683	91.033	-0.107	-0.119
-501.668	103.017	-0.206	-0.240
-500.653	-92.294	0.326	0.091
-499.639	315.688	-0.218	-0.409
-498.624	7.327	-0.175	0.130
-497.610	-65.677	0.073	-0.029
-496.595	246.220	-0.111	0.186
-495.581	-157.588	-0.085	0.005
-494.566	121.822	0.087	0.108
-493.551	-200.000	-0.011	-0.081
-492.537	46.474	-0.305	0.281
-491.522	-12.265	0.185	-0.121
-490.508	-4.317	0.316	0.218
-489.493	-165.937	-0.300	0.013
-488.478	111.025	-0.111	0.133
-487.464	-117.418	0.294	0.053
-486.449	216.352	0.173	-0.273
-485.435	-200.000	-0.008	0.250
-484.420	-15.006	-0.218	0.139
-483.405	-200.000	0.000	-0.569
-482.391	-200.000	0.046	-0.401
-481.376	194.503	0.234	-0.353
-480.362	-9.945	0.043	0.029
-479.347	325.089	0.101	-0.191
-478.332	800.000	-0.075	0.308
-477.318	-200.000	0.015	-0.129
-476.303	266.734	-0.102	-0.176
-475.289	-48.655	0.194	0.093
-474.274	147.249	-0.178	-0.238
-473.259	-155.377	-0.215	0.014
-472.245	-57.768	-0.207	0.090
-471.230	-200.000	0.012	-0.190
-470.216	71.917	-0.051	-0.053
-469.201	200.008	-0.389	-0.594
-468.186	48.700	-0.209	-0.195
-467.172	-79.578	-0.187	-0.063
-466.157	800.000	-0.023	-0.077
-465.143	466.926	-0.050	-0.112
-464.128	249.793	-0.259	-0.438
-463.113	800.000	0.032	0.103
-462.099	-116.967	-0.067	-0.012
-461.084	-200.000	0.018	-0.157
-460.070	-102.060	0.218	-0.052
-459.055	180.154	0.093	0.135
-458.040	-114.660	-0.119	-0.023
-457.026	8.665	0.021	0.016
-456.011	-179.180	-0.266	-0.006
-454.997	-30.769	-0.126	0.071
-453.982	-104.095	0.106	-0.024
-452.968	42.877	-0.061	0.055
-451.953	-79.080	-0.162	0.055
-450.938	-49.278	0.040	0.019
-449.924	-200.000	-0.014	-0.167
-448.909	11.768	-0.163	0.124
-447.895	66.045	-0.220	-0.222
-446.880	-124.735	-0.323	-0.050
-445.865	-200.000	-0.049	-0.342
-444.851	-200.000	-0.024	-0.208
-443.836	-122.983	-0.186	-0.030
-442.822	-43.377	-0.236	-0.119
-441.807	245.928	-0.030	-0.050
-440.792	29.357	0.094	0.079
-439.778	-29.682	0.097	0.055
-438.763	-59.307	0.115	0.049
-437.749	17.007	-0.070	0.055
-436.734	21.147	0.138	-0.111
-435.719	-200.000	-0.012	-0.308
-434.705	-147.881	-0.180	0.015
-433.690	-200.000	0.012	0.131
-432.676	39.231	-0.099	-0.088
-431.661	-91.836	-0.047	0.013
-430.646	293.977	-0.257	-0.466
-429.632	367.854	0.050	0.100
-428.617	-15.552	0.350	-0.222
-427.603	-200.000	-0.015	0.299
-426.588	113.412	0.120	0.144
-425.573	-66.621	0.091	0.036
-424.559	800.000	0.013	-0.042
-423.544	-200.000	0.003	-0.107
-422.530	53.666	-0.165	0.157
-421.515	-10.854	-0.152	-0.100
-420.500	-87.193	-0.359	0.108
-419.486	22.119	0.038	0.031
-418.471	-93.823	0.148	0.040
-417.457	-200.000	0.039	0.177
-416.442	97.689	-0.112	-0.128
-415.428	422.375	0.139	0.296
-414.413	-33.167	0.179	-0.099
-413.398	43.607	-0.327	0.297
-412.384	-45.767	-0.102	0.050
-411.369	98.023	-0.113	-0.129
-410.355	-17.644	-0.124	0.078
-409.340	-200.000	-0.016	-0.272
-408.325	105.660	0.173	-0.203
-407.311	-74.378	-0.210	0.075
-406.296	-200.000	0.010	-0.128
-405.282	-21.314	-0.102	0.061
-404.267	-157.947	-0.167	-0.010
-403.252	-51.334	0.245	-0.114
-402.238	310.486	-0.129	0.239
-401.223	602.112	0.170	0.418
-400.209	-145.283	-0.337	-0.030
-399.194	105.801	0.108	0.127
-398.179	800.000	-0.012	-0.044
-397.165	-93.806	0.540	0.147
-396.150	-155.236	0.072	0.005
-395.136	-57.844	-0.174	0.076
-394.121	169.875	-0.233	0.330
-393.106	-58.546	0.344	0.148
-392.092	43.672	-0.312	-0.283
-391.077	800.000	-0.143	-0.412
-390.063	-200.000	0.037	-0.264
-389.048	155.793	0.113	-0.155
-388.033	139.721	0.081	-0.106
-387.019	-200.000	-0.019	-0.130
-386.004	17.863	0.118	0.093
-384.990	-53.212	0.166	-0.075
-383.975	-200.000	-0.039	-0.295
-382.960	-173.153	0.080	0.002
-381.946	-40.950	-0.118	0.060
-380.931	-200.000	-0.004	-0.130
-379.917	141.319	-0.197	-0.258
-378.902	-93.214	-0.067	-0.019
-377.888	-200.000	0.051	0.277
-376.873	800.000	0.051	-0.221
-375.858	158.463	-0.082	-0.113
-374.844	800.000	-0.057	-0.197
-373.829	-200.000	0.008	0.262
-372.815	342.706	-0.118	0.229
-371.800	-176.047	0.279	0.007
-370.785	53.701	0.095	-0.091
-369.771	45.288	-0.197	0.180
-368.756	118.038	0.181	0.221
-367.742	-80.964	0.149	0.049
-366.727	-200.000	0.050	0.227
-365.712	-20.822	-0.069	0.042
-364.698	-160.317	0.283	-0.015
-363.683	-200.000	-0.004	-0.345
-362.669	47.025	0.082	-0.075
-361.654	313.391	-0.190	-0.353
-360.639	-14.186	0.139	-0.089
-359.625	800.000	-0.043	0.163
-358.610	-200.000	-0.117	-0.001
-357.596	345.624	-0.027	-0.052
-356.581	-160.910	0.220	0.011
-355.566	23.460	0.085	0.069
-354.552	-11.672	-0.150	0.097
-353.537	-189.458	-0.190	-0.002
-352.523	525.142	0.148	-0.344
-351.508	-114.910	0.233	-0.044
-350.493	-114.954	-0.217	0.041
-349.479	-200.000	0.011	0.104
-348.464	-200.000	-0.035	0.353
-347.450	114.020	0.120	-0.144
-346.435	203.527	-0.201	-0.307
-345.420	-136.119	0.111	-0.013
-344.406	474.370	-0.073	-0.163
-343.391	-200.000	-0.067	0.306
-342.377	-82.542	0.120	-0.038
-341.362	704.909	0.053	0.140
-340.348	36.497	-0.131	-0.114
-339.333	67.276	-0.148	-0.149
-338.318	742.166	-0.088	0.233
-337.304	-108.202	-0.047	0.010
-336.289	211.750	0.172	-0.268
-335.275	-200.000	-0.009	-0.149
-334.260	800.000	0.071	0.278
-333.245	150.709	-0.067	0.090
-332.231	133.163	-0.258	-0.329
-331.216	66.506	0.274	0.276
-330.202	-161.409	0.239	0.012
-329.187	172.252	-0.037	0.053
-328.172	128.412	0.106	0.133
-327.158	-102.738	0.359	0.084
-326.143	237.144	0.092	-0.151
-325.129	-200.000	0.024	0.134
-324.114	-200.000	-0.052	0.351
-323.099	-200.000	0.019	-0.138
-322.085	53.021	-0.189	0.179
-321.070	-26.371	0.161	-0.093
-320.056	-141.776	0.212	0.021
-319.041	332.343	-0.046	0.088
-318.026	800.000	-0.069	0.200
-317.012	92.605	0.269	0.300
-315.997	-186.405	-0.049	-0.001
-314.983	0.652	0.066	0.047
-313.968	-76.240	-0.174	0.061
-312.953	98.211	0.091	0.104
-311.939	-51.247	-0.275	0.127
-310.924	-35.534	0.220	0.118
-309.910	-102.983	0.149	-0.035
-308.895	-155.139	-0.188	-0.012
-307.880	-179.557	-0.404	-0.009
-306.866	-110.150	-0.317	-0.065
-305.851	-200.000	-0.011	-0.097
-304.837	800.000	-0.071	-0.229
-303.822	-127.549	-0.056	0.008
-302.807	-31.754	-0.033	-0.018
-301.793	177.538	0.082	0.118
-300.778	-130.025	-0.216	-0.029
-299.764	87.511	0.033	-0.036
-298.749	-140.869	-0.099	-0.010
-297.735	163.694	0.051	0.071
-296.720	-200.000	0.013	-0.346
-295.705	-132.514	0.474	-0.060
-294.691	-200.000	0.002	0.265
-293.676	59.571	-0.190	0.185
-292.662	-136.474	0.255	-0.029
-291.647	-200.000	0.006	0.091
-290.632	800.000	0.058	0.232
-289.618	15.269	-0.102	0.079
-288.603	800.000	0.064	-0.191
-287.589	-200.000	0.014	-0.181
-286.574	800.000	-0.073	0.274
-285.559	624.982	0.087	-0.216
-284.545	489.237	-0.086	-0.194
-283.530	-83.415	0.237	0.075
-282.516	-124.287	-0.165	0.025
-281.501	800.000	0.021	-0.061
-280.486	-74.095	-0.382	0.137
-279.472	142.466	-0.237	0.310
-278.457	74.582	0.135	-0.140
-277.443	85.186	0.261	-0.283
-276.428	71.988	-0.122	-0.125
-275.413	98.730	0.306	-0.348
-274.399	-32.113	0.071	-0.039
-273.384	-200.000	0.003	0.143
-272.370	286.452	-0.046	0.081
-271.355	166.909	0.154	0.216
-270.340	420.655	0.055	-0.116
-269.326	212.267	-0.024	-0.037
-268.311	-200.000	-0.056	-0.269
-267.297	-200.000	0.019	0.245
-266.282	-200.000	0.049	0.283
-265.267	-108.000	-0.171	-0.037
-264.253	-200.000	-0.008	-0.112
-263.238	521.789	0.052	-0.119
-262.224	-200.000	0.308	-0.001
-261.209	-148.947	0.158	-0.013
-260.195	-83.791	0.379	-0.119
-259.180	90.004	0.166	0.183
-258.165	-42.017	0.428	0.216
-257.151	-20.109	-0.171	-0.104
-256.136	-39.191	-0.163	0.084
-255.122	229.281	-0.099	0.160
-254.107	-10.280	0.163	-0.107
-253.092	77.933	0.315	-0.331
-252.078	103.995	-0.256	-0.297
-251.063	-67.689	-0.117	-0.045
-250.049	322.113	-0.059	-0.110
-249.034	-62.148	0.098	-0.040
-248.019	-75.591	-0.149	-0.052
-247.005	-200.000	0.029	0.444
-245.990	24.161	-0.144	-0.117
-244.976	15.161	0.108	-0.083
-243.961	-200.000	-0.023	0.246
-242.946	-86.493	-0.179	-0.054
-241.932	800.000	0.046	0.193
-240.917	35.790	0.185	0.161
-239.903	268.450	0.091	0.157
-238.888	-156.802	-0.251	-0.015
-237.873	97.610	-0.076	-0.086
-236.859	-200.000	0.057	0.294
-235.844	-102.133	0.220	-0.052
-234.830	-65.242	0.273	-0.108
-233.815	149.963	0.247	0.330
-232.800	297.774	-0.056	-0.102
-231.786	337.541	-0.179	0.344
-230.771	188.305	0.076	-0.112
-229.757	-101.930	0.195	0.046
-228.742	800.000	0.051	0.156
-227.727	12.899	-0.128	-0.098
-226.713	193.025	-0.208	-0.310
-225.698	-82.936	0.142	-0.045
-224.684	-136.725	0.427	-0.048
-223.669	-105.049	0.333	0.075
-222.655	-200.000	-0.040	0.287
-221.640	603.379	0.070	0.172
-220.625	-200.000	-0.006	-0.171
-219.611	-11.987	-0.065	-0.042
-218.596	-200.000	0.025	0.143
-217.582	-119.009	0.091	-0.016
-216.567	302.764	0.142	0.259
-215.552	-95.186	0.166	-0.044
-214.538	127.230	-0.055	-0.068
-213.523	78.785	-0.074	0.078
-212.509	-200.000	-0.020	-0.257
-211.494	-59.874	0.300	-0.126
-210.479	-98.623	-0.284	-0.071
-209.465	100.829	-0.099	0.114
-208.450	110.544	-0.077	0.091
-207.436	182.795	-0.194	0.282
-206.421	127.088	0.217	-0.271
-205.406	27.856	0.204	0.169
-204.392	45.859	-0.072	0.066
-203.377	-99.578	-0.341	-0.084
-202.363	-200.000	0.001	0.081
-201.348	301.284	-0.106	-0.192
-200.333	-200.000	-0.027	-0.136
-199.319	800.000	-0.062	-0.266
-198.304	-37.300	-0.396	0.208
-197.290	-83.102	0.043	0.014
-196.275	-134.858	-0.320	0.038
-195.260	10.941	0.128	0.096
-194.246	123.970	0.088	0.109
-193.231	-23.660	0.205	0.121
-192.217	7.856	0.161	-0.118
-191.202	315.268	0.080	-0.149
-190.187	-18.091	0.090	-0.055
-189.173	-200.000	-0.006	-0.120
-188.158	24.050	0.248	0.201
-187.144	-137.311	0.143	0.016
-186.129	34.646	0.300	0.258
-185.114	-22.366	-0.118	0.071
-184.100	104.105	0.288	0.333
-183.085	-120.763	0.256	0.042
-182.071	800.000	-0.061	-0.174
-181.056	222.743	0.146	-0.231
-180.042	73.319	0.047	0.049
-179.027	245.614	0.168	0.279
-178.012	206.943	-0.269	-0.412
-176.998	327.812	-0.171	-0.322
-175.983	800.000	0.098	0.324
-174.969	61.413	0.131	0.128
-173.954	-83.790	0.187	0.059
-172.939	-98.135	-0.187	0.047
-171.925	800.000	-0.054	0.183
-170.910	61.964	0.102	0.099
-169.896	17.843	0.251	-0.197
-168.881	23.810	0.198	0.160
-167.866	50.272	0.109	-0.101
-166.852	800.000	0.074	0.214
-165.837	-83.796	0.168	0.053
-164.823	-200.000	0.000	0.187
-163.808	800.000	0.063	0.249
-162.793	-200.000	-0.007	0.238
-161.779	-90.340	-0.335	-0.095
-160.764	-200.000	0.011	0.188
-159.750	-200.000	-0.033	0.240
-158.735	-169.240	-0.028	-0.001
-157.720	47.770	-0.054	-0.049
-156.706	359.288	0.247	0.485
-155.691	156.814	0.109	-0.148
-154.677	354.709	-0.121	-0.236
-153.662	228.627	-0.113	-0.180
-152.647	800.000	-0.082	0.251
-151.633	800.000	0.085	0.236
-150.618	-200.000	-0.043	0.228
-149.604	492.994	0.073	0.163
-148.589	5.616	-0.175	-0.127
-147.574	363.811	0.152	-0.301
-146.560	659.299	-0.093	-0.236
-145.545	-65.782	0.345	0.135
-144.531	800.000	0.035	-0.124
-143.516	794.239	-0.028	-0.077
-142.502	65.770	0.115	0.115
-141.487	-15.488	-0.140	-0.088
-140.472	-200.000	0.012	-0.101
-139.458	-135.183	0.124	-0.015
-138.443	-3.867	0.105	-0.072
-137.429	35.561	0.228	-0.197
-136.414	800.000	-0.089	0.284
-135.399	-133.807	-0.249	-0.030
-134.385	-53.196	0.253	0.114
-133.370	18.002	0.138	0.108
-132.356	-8.214	0.306	0.202
-131.341	56.018	0.169	-0.161
-130.326	312.033	-0.130	-0.239
-129.312	800.000	0.053	-0.146
-128.297	-42.653	0.310	-0.155
-127.283	-153.180	0.364	0.025
-126.268	-58.793	0.258	-0.109
-125.253	192.594	-0.292	-0.433
-124.239	12.248	-0.067	-0.050
-123.224	134.627	-0.240	0.305
-122.210	-146.453	0.146	0.013
-121.195	14.985	0.270	0.208
-120.180	-163.082	0.153	-0.007
-119.166	-47.285	0.347	-0.166
-118.151	-94.443	0.193	-0.052
-117.137	380.558	0.134	-0.270
-116.122	-107.738	0.181	0.039
-115.107	-200.000	-0.040	0.248
-114.093	-65.495	0.249	-0.098
-113.078	-40.387	-0.175	0.089
-112.064	-200.000	-0.023	0.241
-111.049	-200.000	-0.014	0.265
-110.034	-196.225	0.114	0.001
-109.020	800.000	0.115	-0.326
-108.005	-200.000	0.009	-0.315
-106.991	-90.593	0.155	0.044
-105.976	-100.650	-0.141	-0.034
-104.962	329.926	0.220	0.414
-103.947	224.332	-0.114	-0.181
-102.932	800.000	-0.035	0.097
-101.918	800.000	0.094	0.278
-100.903	-200.000	-0.009	0.148
-99.889	84.925	0.093	-0.100
-98.874	-200.000	-0.007	0.315
-97.859	-62.941	-0.272	0.110
-96.845	-101.044	-0.179	-0.043
-95.830	-3.140	-0.091	-0.062
-94.816	755.783	-0.017	-0.046
-93.801	-200.000	-0.025	-0.478
-92.786	800.000	-0.076	-0.300
-91.772	-200.000	-0.032	-0.182
-90.757	800.000	-0.069	-0.223
-89.743	54.557	0.096	0.091
-88.728	-60.231	0.079	0.033
-87.713	69.114	-0.190	-0.192
-86.699	-32.869	-0.174	0.095
-85.684	237.419	-0.065	-0.106
-84.670	-87.510	0.243	-0.072
-83.655	-200.000	0.008	-0.270
-82.640	800.000	0.022	-0.080
-81.626	-200.000	0.017	-0.195
-80.611	-134.209	-0.316	-0.038
-79.597	238.379	0.141	-0.230
-78.582	-200.000	0.011	-0.113
-77.567	185.445	0.086	-0.125
-76.553	-161.283	0.348	0.018
-75.538	-171.029	0.258	-0.009
-74.524	-58.790	-0.086	0.036
-73.509	-50.115	0.214	-0.099
-72.494	448.064	0.110	0.238
-71.480	196.844	0.030	-0.045
-70.465	-83.444	0.181	0.057
-69.451	-59.573	0.203	-0.085
-68.436	800.000	-0.049	0.165
-67.422	-15.802	0.046	0.029
-66.407	-61.990	-0.181	-0.074
-65.392	-200.000	0.004	-0.163
-64.378	143.052	0.152	-0.198
-63.363	800.000	-0.077	-0.308
-62.349	16.455	0.191	0.147
-61.334	144.508	-0.730	-0.954
-60.319	41.520	0.697	0.617
-59.305	800.000	-0.357	-1.171
-58.290	164.460	0.841	1.161
-57.276	153.717	1.054	1.413
-56.261	-200.000	114.293	643.998
-55.246	463.913	1513.533	3309.337
-54.232	145.314	2690.230	3523.005
-53.217	96.660	2295.605	2571.870
-52.203	36.446	1905.867	1644.703
-51.188	30.510	1697.296	1419.478
-50.173	28.010	1655.579	1365.876
-49.159	49.963	1710.677	1578.456
-48.144	48.646	1724.338	1581.027
-47.130	30.166	1683.350	1404.988
-46.115	27.495	1668.932	1372.797
-45.100	27.308	1663.944	1367.232
-44.086	27.345	1660.993	1365.034
-43.071	27.235	1658.786	1362.342
-42.057	27.209	1656.236	1359.997
-41.042	27.228	1654.535	1358.693
-40.027	27.271	1652.122	1356.977
-39.013	27.247	1650.529	1355.432
-37.998	27.190	1649.017	1353.717
-36.984	27.366	1647.582	1353.793
-35.969	27.402	1645.745	1352.493
-34.954	27.412	1644.280	1351.312
-33.940	27.410	1642.291	1349.608
-32.925	27.352	1640.935	1348.012
-31.911	27.380	1639.053	1346.620
-30.896	27.388	1636.695	1344.690
-29.881	27.314	1636.206	1343.689
-28.867	27.333	1634.054	1342.008
-27.852	27.422	1631.909	1340.849
-26.838	27.325	1631.313	1339.592
-25.823	27.312	1629.603	1338.038
-24.809	27.413	1628.692	1337.980
-23.794	27.394	1627.189	1336.551
-22.779	27.354	1625.222	1334.591
-21.765	27.341	1624.017	1333.450
-20.750	27.378	1622.477	1332.407
-19.736	27.421	1621.014	1331.465
-18.721	27.361	1620.065	1330.193
-17.706	27.443	1618.168	1329.185
-16.692	27.326	1617.130	1327.420
-15.677	27.373	1615.674	1326.522
-14.663	27.474	1613.687	1325.572
-13.648	27.407	1612.686	1324.207
-12.633	27.468	1611.103	1323.300
-11.619	27.371	1609.407	1321.145
-10.604	27.447	1608.097	1320.571
-9.590	27.485	1606.600	1319.567
-8.575	27.452	1605.125	1318.066
-7.560	27.500	1604.070	1317.488
-6.546	27.396	1603.485	1316.206
-5.531	27.337	1602.530	1314.946
-4.517	27.372	1601.127	1313.994
-3.502	27.423	1600.086	1313.454
-2.487	27.524	1598.320	1312.679
-1.473	27.089	1586.389	1299.715
-0.458	24.326	1566.960	1264.192
0.556	19.232	1568.438	1233.662
1.571	17.034	1592.640	1236.588
2.586	16.689	1604.889	1243.449
3.600	16.345	1554.678	1201.996
4.615	14.253	1457.383	1112.703
5.629	12.003	1403.529	1056.992
6.644	11.489	1396.457	1048.272
7.659	11.474	1394.899	1046.913
8.673	11.453	1393.814	1045.873
9.688	11.425	1392.280	1044.449
10.702	11.413	1389.090	1041.886
11.717	12.291	1389.882	1047.996
12.731	14.933	1394.240	1068.086
13.746	17.305	1397.342	1085.528
14.761	17.614	1397.348	1087.408
15.775	16.666	1395.315	1079.689
16.790	15.636	1392.400	1070.774
17.804	14.837	1389.970	1063.732
18.819	14.368	1387.850	1059.034
19.834	14.052	1387.116	1056.370
20.848	13.804	1385.773	1053.683
21.863	13.685	1384.456	1051.833
22.877	13.423	1383.368	1049.253
23.892	13.377	1382.392	1048.125
24.907	13.465	1380.930	1047.480
25.921	13.538	1380.195	1047.290
26.936	13.420	1379.991	1046.302
27.950	13.488	1378.746	1045.694
28.965	13.458	1377.780	1044.675
29.980	13.692	1376.230	1044.884
30.994	13.668	1374.962	1043.677
32.009	13.758	1373.704	1043.195
33.023	13.770	1372.094	1041.959
34.038	13.618	1371.480	1040.443
35.053	13.609	1370.409	1039.483
36.067	13.595	1369.295	1038.456
37.082	13.493	1368.523	1037.141
38.096	13.556	1367.093	1036.360
39.111	13.745	1366.100	1036.696
40.126	13.577	1365.115	1034.809
41.140	13.422	1364.616	1033.373
42.155	13.370	1364.348	1032.752
43.169	13.410	1364.197	1032.797
44.184	13.372	1363.498	1031.943
45.199	13.385	1363.298	1031.777
46.213	13.484	1362.395	1031.623
47.228	13.553	1361.329	1031.152
48.242	13.466	1360.438	1029.847
49.257	13.513	1358.683	1028.719
50.271	13.471	1356.765	1026.916
51.286	13.425	1356.433	1026.287
52.301	13.499	1354.782	1025.404
53.315	13.484	1353.274	1024.081
54.330	13.481	1352.327	1023.251
55.344	13.404	1351.281	1021.897
56.359	13.499	1350.285	1021.641
57.374	13.437	1349.405	1020.501
58.388	13.368	1348.873	1019.582
59.403	13.325	1348.512	1018.957
60.417	13.305	1347.737	1018.157
61.432	13.347	1346.493	1017.381
62.447	13.183	1346.019	1015.925
63.461	13.289	1344.410	1015.275
64.476	13.214	1343.774	1014.245
65.490	13.231	1342.363	1013.193
66.505	13.122	1341.334	1011.659
67.520	13.339	1339.798	1011.736
68.534	13.387	1338.883	1011.251
69.549	13.299	1337.831	1009.832
70.563	13.272	1336.767	1008.772
71.578	13.167	1336.050	1007.501
72.593	13.250	1334.805	1006.983
73.607	13.244	1333.801	1006.096
74.622	13.220	1333.154	1005.374
75.636	13.209	1332.457	1004.690
76.651	13.194	1331.424	1003.733
77.666	13.222	1331.096	1003.568
78.680	13.272	1330.523	1003.348
79.695	13.351	1329.531	1002.993
80.709	13.247	1329.062	1001.917
81.724	13.309	1328.425	1001.724
82.739	13.462	1326.975	1001.467
83.753	13.445	1326.412	1000.854
84.768	13.434	1325.867	1000.287
85.782	13.535	1324.573	999.832
86.797	13.422	1323.036	997.904
87.812	13.412	1321.762	996.795
88.826	13.395	1320.836	995.903
89.841	13.459	1319.820	995.435
90.855	13.481	1318.742	994.663
91.870	13.554	1317.929	994.403
92.884	13.545	1316.922	993.498
93.899	13.587	1316.109	993.050
94.914	13.599	1315.327	992.444
95.928	13.676	1314.245	991.999
96.943	13.538	1313.688	990.668
97.957	13.557	1312.824	990.040
98.972	13.573	1311.328	988.925
99.987	13.504	1310.249	987.612
101.001	13.542	1309.300	987.034
102.016	13.511	1308.681	986.295
103.030	13.568	1307.817	985.896
104.045	13.527	1306.619	984.658
105.060	13.500	1305.335	983.446
106.074	13.405	1304.425	982.108
107.089	13.442	1302.394	980.713
108.103	13.370	1301.264	979.348
109.118	13.384	1299.887	978.309
110.133	13.341	1298.721	977.094
111.147	13.375	1297.195	976.055
112.162	13.338	1296.359	975.125
113.176	13.436	1294.995	974.589
114.191	13.441	1293.707	973.562
115.206	13.490	1292.973	973.209
116.220	13.441	1291.648	971.841
117.235	13.300	1290.984	970.428
118.249	13.435	1289.411	969.949
119.264	13.416	1288.094	968.765
120.279	13.423	1287.431	968.220
121.293	13.378	1286.570	967.222
122.308	13.348	1285.220	965.950
123.322	13.291	1284.233	964.789
124.337	13.291	1283.441	964.106
125.352	13.418	1282.118	963.770
126.366	13.328	1280.843	962.201
127.381	13.368	1279.883	961.627
128.395	13.237	1278.803	959.971
129.410	13.327	1277.847	959.688
130.424	13.352	1277.277	959.321
131.439	13.398	1276.096	958.616
132.454	13.414	1275.407	958.106
133.468	13.383	1274.342	957.040
134.483	13.542	1273.395	957.168
135.497	13.448	1272.481	955.849
136.512	13.448	1270.821	954.522
137.527	13.475	1269.409	953.530
138.541	13.407	1268.163	952.116
139.556	13.461	1266.668	951.219
140.570	13.533	1265.684	950.810
141.585	13.547	1265.036	950.323
142.600	13.586	1263.761	949.502
143.614	13.641	1262.774	948.990
144.629	13.674	1261.923	948.456
145.643	13.622	1260.540	947.039
146.658	13.535	1259.556	945.717
147.673	13.485	1257.904	944.108
148.687	13.573	1256.977	943.830
149.702	13.509	1255.562	942.317
150.716	13.638	1253.626	941.519
151.731	13.435	1253.087	939.877
152.746	13.649	1251.517	939.831
153.760	13.644	1250.645	939.061
154.775	13.677	1249.253	938.124
155.789	13.696	1248.324	937.448
156.804	13.803	1247.267	937.174
157.819	13.675	1246.146	935.528
158.833	13.786	1245.475	935.565
159.848	13.834	1244.354	934.914
160.862	13.696	1243.986	933.774
161.877	13.720	1242.332	932.585
162.892	13.704	1241.057	931.460
163.906	13.719	1240.444	931.002
164.921	13.636	1239.684	929.878
165.935	13.654	1238.820	929.251
166.950	13.687	1238.196	928.887
167.964	13.696	1237.613	928.419
168.979	13.634	1236.648	927.266
169.994	13.692	1235.855	926.915
171.008	13.699	1235.064	926.274
172.023	13.771	1234.095	925.871
173.037	13.891	1233.209	925.790
174.052	13.852	1232.318	924.824
175.067	13.765	1231.030	923.291
176.081	13.694	1230.048	922.077
177.096	13.701	1229.021	921.268
178.110	13.749	1228.230	920.859
179.125	13.782	1227.190	920.176
180.140	13.790	1226.119	919.339
181.154	13.865	1224.356	918.350
182.169	13.922	1223.277	917.774
183.183	14.013	1221.980	917.225
184.198	14.019	1220.795	916.287
185.213	14.008	1220.112	915.629
186.227	13.998	1218.684	914.422
187.242	13.898	1218.317	913.517
188.256	14.024	1217.148	913.253
189.271	14.048	1215.917	912.379
190.286	13.869	1214.673	910.382
191.300	13.741	1214.611	909.555
192.315	13.702	1213.805	908.658
193.329	13.740	1212.844	908.067
194.344	13.905	1211.700	908.030
195.359	13.934	1211.548	907.994
196.373	13.934	1210.961	907.473
197.388	14.064	1210.570	907.809
198.402	14.135	1210.207	907.847
199.417	14.134	1209.457	907.197
200.432	14.339	1208.306	907.369
201.446	14.268	1207.505	906.302
202.461	14.338	1206.321	905.714
203.475	14.297	1205.496	904.791
204.490	14.219	1204.444	903.497
205.504	14.108	1203.307	901.964
206.519	14.121	1201.903	900.901
207.534	14.126	1200.966	900.150
208.548	14.289	1199.750	900.036
209.563	14.301	1198.556	899.125
210.577	14.269	1198.103	898.537
211.592	14.343	1197.547	898.439
212.607	14.383	1196.528	897.808
213.621	14.344	1195.568	896.800
214.636	14.364	1195.085	896.465
215.650	14.274	1194.082	895.152
216.665	14.401	1193.124	895.035
217.680	14.509	1192.093	894.762
218.694	14.400	1191.208	893.432
219.709	14.364	1190.777	892.837
220.723	14.413	1190.029	892.462
221.738	14.382	1189.270	891.647
222.753	14.453	1188.074	891.051
223.767	14.481	1187.854	890.955
224.782	14.508	1187.046	890.417
225.796	14.578	1186.443	890.261
226.811	14.467	1185.705	889.036
227.826	14.429	1185.061	888.268
228.840	14.632	1184.235	888.653
229.855	14.559	1183.423	887.578
230.869	14.619	1182.570	887.180
231.884	14.583	1181.746	886.291
232.899	14.547	1181.124	885.555
233.913	14.525	1180.445	884.850
234.928	14.543	1179.630	884.254
235.942	14.507	1178.891	883.435
236.957	14.517	1178.072	882.793
237.972	14.627	1177.407	882.802
238.986	14.603	1176.554	881.953
240.001	14.585	1176.012	881.374
241.015	14.589	1175.045	880.595
242.030	14.661	1174.419	880.426
243.045	14.576	1173.525	879.232
244.059	14.683	1172.517	878.959
245.074	14.731	1171.803	878.598
246.088	14.757	1171.203	878.212
247.103	14.653	1170.799	877.280
248.117	14.809	1169.948	877.385
249.132	14.908	1169.104	877.195
250.147	15.014	1168.200	876.994
251.161	14.905	1167.856	876.090
252.176	15.034	1167.108	876.126
253.190	15.066	1166.537	875.785
254.205	15.097	1165.687	875.234
255.220	15.139	1165.395	875.153
256.234	15.195	1164.263	874.519
257.249	15.159	1163.830	873.927
258.263	15.149	1163.144	873.284
259.278	15.140	1162.382	872.587
260.293	15.257	1161.725	872.628
261.307	15.166	1161.333	871.783
262.322	15.170	1160.856	871.365
263.336	15.256	1159.872	870.998
264.351	15.191	1159.320	870.170
265.366	15.238	1158.652	869.835
266.380	15.292	1157.869	869.449
267.395	15.189	1156.846	868.069
268.409	15.183	1156.248	867.514
269.424	15.333	1155.601	867.729
270.439	15.363	1154.743	867.163
271.453	15.169	1154.273	865.732
272.468	15.336	1153.058	865.607
273.482	15.282	1152.562	864.879
274.497	15.332	1152.172	864.764
275.512	15.262	1151.329	863.694
276.526	15.343	1150.633	863.516
277.541	15.379	1149.401	862.698
278.555	15.401	1148.827	862.305
279.570	15.400	1148.358	861.873
280.585	15.542	1147.397	861.805
281.599	15.557	1146.352	861.020
282.614	15.438	1145.678	859.825
283.628	15.406	1144.592	858.774
284.643	15.391	1143.628	857.895
285.657	15.359	1142.694	856.954
286.672	15.423	1141.841	856.569
287.687	15.435	1140.648	855.657
288.701	15.484	1140.196	855.489
289.716	15.432	1139.454	854.595
290.730	15.541	1138.730	854.532
291.745	15.449	1138.296	853.661
292.760	15.550	1137.453	853.466
293.774	15.621	1136.553	853.078
294.789	15.660	1136.599	853.233
295.803	15.610	1136.035	852.479
296.818	15.512	1134.854	851.025
297.833	15.654	1134.017	851.039
298.847	15.547	1133.573	850.087
299.862	15.550	1132.613	849.310
300.876	15.583	1132.052	848.982
301.891	15.680	1131.223	848.771
302.906	15.773	1130.660	848.742
303.920	15.764	1129.836	848.005
304.935	15.774	1129.671	847.855
305.949	15.967	1128.131	847.595
306.964	16.028	1127.323	847.221
307.979	15.919	1127.097	846.427
308.993	15.922	1126.451	845.881
310.008	15.919	1125.347	844.964
311.022	15.889	1124.970	844.459
312.037	15.832	1124.036	843.396
313.052	15.945	1122.658	842.852
314.066	15.811	1121.927	841.561
315.081	15.684	1121.457	840.495
316.095	15.746	1120.750	840.204
317.110	15.984	1119.538	840.408
318.125	15.786	1119.040	838.974
319.139	15.787	1118.553	838.534
320.154	15.829	1117.401	837.808
321.168	15.865	1116.968	837.591
322.183	15.949	1116.321	837.445
323.197	15.832	1116.240	836.728
324.212	15.905	1115.184	836.227
325.227	15.948	1114.497	835.854
326.241	16.018	1113.614	835.463
327.256	15.937	1113.090	834.597
328.270	15.990	1111.995	833.962
329.285	15.978	1111.252	833.273
330.300	15.956	1110.394	832.445
331.314	15.951	1109.407	831.605
332.329	15.886	1108.303	830.384
333.343	15.977	1107.412	830.095
334.358	15.962	1106.923	829.581
335.373	15.991	1106.164	829.080
336.387	16.079	1105.237	828.746
337.402	16.088	1104.395	828.085
338.416	16.207	1103.612	828.008
339.431	16.192	1103.689	827.918
340.446	16.254	1102.668	827.384
341.460	16.356	1101.847	827.192
342.475	16.385	1100.932	826.575
343.489	16.328	1100.420	825.840
344.504	16.370	1099.362	825.177
345.519	16.440	1098.489	824.789
346.533	16.250	1098.165	823.549
347.548	16.380	1097.173	823.365
348.562	16.464	1095.962	822.791
349.577	16.532	1095.307	822.559
350.592	16.362	1094.355	820.944
351.606	16.219	1094.189	820.050
352.621	16.343	1093.179	819.822
353.635	16.338	1092.805	819.448
354.650	16.411	1091.754	818.941
355.665	16.356	1091.317	818.275
356.679	16.314	1090.799	817.611
357.694	16.331	1090.298	817.246
358.708	16.480	1089.177	817.052
359.723	16.553	1088.559	816.867
360.738	16.491	1088.248	816.263
361.752	16.413	1087.510	815.259
362.767	16.411	1087.064	814.843
363.781	16.553	1086.436	814.985
364.796	16.580	1085.888	814.631
365.810	16.553	1085.327	814.012
366.825	16.585	1084.644	813.581
367.840	16.788	1083.790	813.841
368.854	16.735	1083.870	813.575
369.869	16.750	1082.900	812.850
370.883	16.699	1081.848	811.742
371.898	16.711	1080.800	810.940
372.913	16.802	1080.083	810.768
373.927	16.774	1080.026	810.518
374.942	16.803	1079.207	809.970
375.956	16.787	1079.129	809.762
376.971	16.902	1078.324	809.638
377.986	16.910	1077.840	809.240
379.000	16.864	1077.130	808.417
380.015	16.883	1076.585	808.028
381.029	16.891	1075.898	807.479
382.044	16.933	1075.377	807.213
383.059	17.002	1074.654	806.929
384.073	16.982	1073.781	806.106
385.088	17.070	1072.510	805.499
386.102	17.024	1072.050	804.866
387.117	16.996	1070.983	803.861
388.132	17.083	1069.646	803.195
389.146	16.956	1069.192	802.181
390.161	16.856	1068.878	801.403
391.175	16.992	1067.640	801.046
392.190	16.949	1067.282	800.505
393.205	17.082	1066.272	800.303
394.219	17.070	1065.486	799.587
395.234	16.978	1064.945	798.676
396.248	16.969	1063.896	797.777
397.263	16.925	1063.094	796.898
398.278	17.015	1062.114	796.515
399.292	16.947	1061.555	795.708
400.307	16.965	1060.929	795.251
401.321	16.975	1060.074	794.586
402.336	17.020	1059.421	794.237
403.350	17.002	1058.805	793.623
404.365	17.098	1058.022	793.412
405.380	17.035	1057.587	792.724
406.394	17.112	1056.610	792.280
407.409	17.177	1056.082	792.117
408.423	17.200	1055.493	791.712
409.438	17.456	1054.321	791.955
410.453	17.256	1054.117	790.801
411.467	17.263	1053.381	790.212
412.482	17.435	1052.682	790.415
413.496	17.427	1051.945	789.753
414.511	17.407	1051.089	788.951
415.526	17.590	1051.080	789.721
416.540	17.567	1050.332	788.984
417.555	17.551	1050.110	788.672
418.569	17.533	1049.348	787.946
419.584	17.424	1048.697	786.883
420.599	17.565	1048.225	787.114
421.613	104.668	1325.602	1475.220
422.628	96.277	1365.971	1475.334
