DTS Sentinel unit serial number:	SN413079Multiplexer serial number:	ORYXHardware model number:	OX4-SRSoftware version number:	ORYX F/W v4.00 Oryx Data Collector v3.7.2.0data status	okinstallation	princeton_trtdifferential loss correction	single-endedforward channel	channel 2reverse channel	N/Adate	2019/09/17time	23:59:35forward acquisition time	60.00reverse acquisition time	0.00gamma	496.2192k internal	0.2349k external	0.2349temperature offset calibration	0.9985default loss term (dB/km)	0.3790temperature slope calibration	1.0000multiplexer offset coefficient	1.0000multiplexer slope coefficient	1.0000fibre end	0.00T internal ref (°C)	23.87T ext. ref 1 (°C)	0.16T ext. ref 2 (°C)	17.30length (m)	temperature (°C)	Stokes	anti-Stokes-747.200	-200.000	-0.022	0.203
-746.185	23.227	-0.173	0.142
-745.171	-161.702	-0.168	-0.009
-744.156	-5.956	-0.239	0.163
-743.142	-200.000	-0.036	-0.244
-742.127	-158.397	-0.306	0.018
-741.112	800.000	0.058	0.224
-740.098	120.855	-0.230	0.286
-739.083	1.444	0.189	0.136
-738.069	296.594	-0.130	0.238
-737.054	-200.000	0.021	-0.339
-736.039	-105.519	-0.429	-0.097
-735.025	18.203	0.297	-0.236
-734.010	-3.847	-0.173	0.120
-732.996	714.579	-0.007	0.019
-731.981	365.208	-0.023	-0.045
-730.966	253.451	0.099	-0.170
-729.952	108.594	-0.247	-0.295
-728.937	-200.000	0.060	0.294
-727.923	-68.882	-0.123	-0.047
-726.908	119.780	0.156	0.193
-725.894	60.587	0.195	-0.193
-724.879	-147.610	0.248	-0.021
-723.864	800.000	0.095	-0.401
-722.850	-85.273	0.389	-0.121
-721.835	800.000	-0.095	0.344
-720.821	177.015	0.129	-0.188
-719.806	66.479	-0.074	-0.075
-718.791	32.441	-0.142	0.123
-717.777	62.769	-0.160	0.160
-716.762	-200.000	0.046	0.209
-715.748	-24.729	0.261	0.155
-714.733	111.881	0.127	0.153
-713.718	800.000	0.050	-0.139
-712.704	-200.000	0.123	-0.000
-711.689	63.683	0.179	-0.180
-710.675	-25.791	-0.325	-0.191
-709.660	139.887	0.158	-0.208
-708.645	-63.263	0.287	0.118
-707.631	-174.147	0.187	-0.005
-706.616	-161.558	0.097	-0.005
-705.602	-200.000	0.045	-0.199
-704.587	-104.711	-0.084	-0.019
-703.572	177.834	0.129	0.187
-702.558	477.199	0.106	-0.239
-701.543	605.021	0.124	-0.307
-700.529	-110.267	-0.269	0.056
-699.514	108.343	-0.104	-0.124
-698.499	-176.011	-0.176	0.005
-697.485	40.526	-0.100	-0.090
-696.470	99.556	-0.114	-0.131
-695.456	-200.000	-0.045	-0.318
-694.441	-10.350	0.214	0.142
-693.426	-80.007	-0.177	-0.059
-692.412	106.248	0.343	-0.405
-691.397	-200.000	-0.066	-0.372
-690.383	299.976	-0.218	-0.400
-689.368	229.713	-0.117	-0.190
-688.354	182.233	-0.197	-0.289
-687.339	-33.735	0.226	0.124
-686.324	21.741	-0.156	-0.127
-685.310	285.027	-0.141	-0.254
-684.295	-27.164	-0.306	-0.178
-683.281	120.563	0.158	0.195
-682.266	-67.168	-0.109	-0.043
-681.251	-102.571	0.180	-0.043
-680.237	249.147	0.105	-0.177
-679.222	248.151	0.023	-0.038
-678.208	-200.000	-0.040	0.192
-677.193	-79.484	0.258	-0.087
-676.178	800.000	-0.043	-0.147
-675.164	80.080	-0.105	-0.112
-674.149	-5.630	0.167	0.114
-673.135	-86.565	0.112	0.034
-672.120	-200.000	-0.065	-0.365
-671.105	-93.573	-0.133	-0.037
-670.091	800.000	-0.113	-0.472
-669.076	143.783	0.072	0.096
-668.062	69.786	-0.193	0.198
-667.047	-200.000	-0.024	-0.656
-666.032	-76.748	0.213	-0.074
-665.018	-160.226	-0.142	-0.008
-664.003	-200.000	0.003	-0.082
-662.989	-200.000	-0.023	-0.328
-661.974	-30.940	-0.106	-0.060
-660.959	147.907	-0.026	-0.036
-659.945	596.161	-0.139	0.343
-658.930	12.244	0.315	0.242
-657.916	-200.000	0.035	0.249
-656.901	-29.889	-0.254	-0.144
-655.886	396.283	-0.167	-0.347
-654.872	-119.587	-0.389	-0.067
-653.857	356.568	-0.070	-0.138
-652.843	-200.000	-0.002	-0.175
-651.828	56.606	-0.155	-0.150
-650.814	256.575	-0.152	-0.259
-649.799	-161.745	-0.306	-0.016
-648.784	55.677	0.298	0.287
-647.770	-169.688	-0.019	-0.001
-646.755	-190.952	-0.266	-0.003
-645.741	-160.947	-0.087	-0.005
-644.726	-200.000	0.085	0.451
-643.711	32.852	0.065	-0.056
-642.697	-105.805	0.284	-0.064
-641.682	-162.041	-0.100	-0.005
-640.668	738.679	-0.056	-0.148
-639.653	152.349	0.191	-0.259
-638.638	80.227	0.342	0.366
-637.624	-200.000	-0.029	0.256
-636.609	-200.000	-0.001	0.232
-635.595	-135.218	0.129	0.015
-634.580	-200.000	0.061	-0.268
-633.565	413.432	-0.152	-0.322
-632.551	-200.000	-0.029	-0.137
-631.536	-52.573	-0.398	0.183
-630.522	307.773	-0.041	-0.076
-629.507	-69.607	0.144	-0.055
-628.492	72.058	-0.043	-0.045
-627.478	-147.415	-0.397	0.033
-626.463	800.000	-0.130	-0.474
-625.449	363.981	0.170	-0.340
-624.434	-65.588	-0.161	0.064
-623.419	117.429	0.177	0.217
-622.405	-70.221	0.061	-0.023
-621.390	-200.000	0.027	-0.247
-620.376	44.706	0.141	-0.129
-619.361	-7.435	-0.177	-0.119
-618.346	800.000	0.051	-0.161
-617.332	6.067	0.403	-0.297
-616.317	783.877	0.041	-0.112
-615.303	45.709	0.178	0.164
-614.288	-107.031	0.252	-0.055
-613.273	42.139	0.024	-0.021
-612.259	-25.603	0.146	-0.086
-611.244	800.000	-0.019	0.072
-610.230	386.931	-0.134	-0.274
-609.215	-192.062	0.381	-0.004
-608.201	17.002	0.199	-0.156
-607.186	139.332	0.244	0.318
-606.171	-200.000	0.020	-0.419
-605.157	338.959	0.080	0.155
-604.142	-7.560	0.235	-0.158
-603.128	65.657	-0.045	-0.045
-602.113	117.901	0.036	0.045
-601.098	114.881	-0.185	-0.224
-600.084	-111.469	0.180	0.036
-599.069	-40.916	-0.559	0.287
-598.055	28.740	-0.335	0.282
-597.040	-200.000	0.015	0.278
-596.025	80.236	-0.191	-0.204
-595.011	-46.342	0.105	-0.051
-593.996	-80.260	-0.142	0.047
-592.982	-137.414	0.217	0.024
-591.967	373.236	0.136	0.274
-590.952	-200.000	0.002	-0.219
-589.938	130.765	-0.162	-0.206
-588.923	-65.589	-0.323	0.129
-587.909	-200.000	-0.021	-0.262
-586.894	123.556	-0.170	-0.212
-585.879	-200.000	-0.018	-0.208
-584.865	-2.720	0.146	0.102
-583.850	800.000	-0.044	-0.135
-582.836	-20.341	0.146	0.089
-581.821	-99.162	-0.247	0.062
-580.806	57.195	-0.272	-0.263
-579.792	-51.805	-0.047	-0.022
-578.777	5.465	-0.114	0.083
-577.763	5.429	-0.248	0.182
-576.748	-200.000	0.061	0.331
-575.733	800.000	0.033	0.114
-574.719	736.042	-0.056	0.149
-573.704	57.269	-0.164	0.159
-572.690	69.886	0.161	0.164
-571.675	528.535	-0.299	0.700
-570.661	286.628	-0.061	0.110
-569.646	-83.664	0.158	-0.050
-568.631	-170.771	-0.398	-0.014
-567.617	-200.000	-0.027	0.171
-566.602	153.438	-0.140	-0.190
-565.588	-161.309	-0.160	0.008
-564.573	-73.708	-0.048	-0.017
-563.558	-116.255	-0.304	-0.056
-562.544	0.135	-0.344	0.243
-561.529	-200.000	-0.011	0.250
-560.515	-152.221	-0.084	-0.006
-559.500	336.037	0.182	-0.351
-558.485	-13.531	-0.252	0.162
-557.471	103.240	-0.117	-0.136
-556.456	-118.394	-0.301	-0.053
-555.442	-15.588	0.370	-0.234
-554.427	-157.804	-0.125	0.007
-553.412	614.143	-0.050	-0.123
-552.398	30.068	-0.338	0.285
-551.383	-170.928	-0.139	-0.005
-550.369	-200.000	0.013	-0.107
-549.354	55.950	-0.166	-0.159
-548.339	1.792	-0.262	0.187
-547.325	-88.025	0.175	-0.052
-546.310	-31.218	-0.202	-0.113
-545.296	101.488	-0.260	-0.300
-544.281	-200.000	0.026	-0.336
-543.266	198.812	0.042	-0.064
-542.252	550.923	0.142	0.337
-541.237	456.582	0.127	0.280
-540.223	-150.375	-0.139	-0.011
-539.208	-30.894	-0.082	-0.046
-538.193	-200.000	0.016	-0.210
-537.179	43.594	0.186	-0.169
-536.164	800.000	0.150	-0.535
-535.150	-5.711	-0.297	-0.201
-534.135	516.125	-0.112	0.260
-533.121	-140.400	-0.331	-0.034
-532.106	165.207	-0.090	-0.126
-531.091	-170.214	0.274	-0.010
-530.077	-180.454	-0.062	-0.001
-529.062	-33.601	0.319	0.174
-528.048	8.180	-0.188	0.140
-527.033	-53.870	-0.223	0.101
-526.018	-30.479	0.261	0.147
-525.004	-200.000	-0.046	0.269
-523.989	61.960	-0.220	0.217
-522.975	40.768	0.097	0.087
-521.960	420.301	0.041	-0.086
-520.945	-75.570	-0.205	0.072
-519.931	495.594	0.079	0.180
-518.916	-200.000	-0.005	0.117
-517.902	-62.350	0.287	-0.118
-516.887	-84.219	-0.189	-0.059
-515.872	18.808	-0.304	0.241
-514.858	-19.588	0.089	0.055
-513.843	203.922	-0.024	0.037
-512.829	-200.000	-0.055	-0.270
-511.814	8.435	0.136	-0.101
-510.799	-157.387	-0.345	-0.021
-509.785	107.174	0.089	0.105
-508.770	-200.000	0.008	-0.267
-507.756	524.491	0.066	0.154
-506.741	28.574	0.333	-0.279
-505.726	-200.000	-0.002	-0.097
-504.712	565.778	-0.044	0.105
-503.697	-182.004	-0.201	0.004
-502.683	577.887	-0.022	-0.054
-501.668	-133.186	-0.186	-0.023
-500.653	800.000	-0.120	-0.412
-499.639	3.991	0.133	-0.096
-498.624	133.691	0.026	0.033
-497.610	179.733	-0.175	-0.253
-496.595	270.064	-0.036	0.063
-495.581	689.257	0.080	-0.207
-494.566	800.000	0.026	-0.090
-493.551	-200.000	0.006	0.026
-492.537	-131.750	0.154	-0.020
-491.522	-32.412	-0.173	0.095
-490.508	142.480	0.088	-0.116
-489.493	19.329	-0.088	-0.070
-488.478	-165.705	-0.197	-0.008
-487.464	-200.000	-0.014	-0.152
-486.449	388.690	0.128	-0.263
-485.435	578.525	0.083	0.201
-484.420	-200.000	0.018	-0.177
-483.405	214.553	-0.293	-0.459
-482.391	-143.207	0.342	0.033
-481.376	-91.005	0.163	-0.046
-480.362	-35.771	0.071	-0.038
-479.347	103.098	-0.134	0.155
-478.332	-200.000	0.002	-0.032
-477.318	50.796	-0.370	-0.346
-476.303	-194.554	0.390	-0.003
-475.289	-130.488	-0.112	-0.015
-474.274	339.570	0.165	0.318
-473.259	274.858	-0.087	-0.152
-472.245	-85.683	0.440	0.135
-471.230	49.897	-0.088	0.082
-470.216	-200.000	-0.102	0.488
-469.201	126.984	-0.009	-0.011
-468.186	-200.000	0.011	0.059
-467.172	-113.394	0.160	0.031
-466.157	445.710	-0.082	0.178
-465.143	36.926	-0.035	-0.031
-464.128	800.000	0.067	0.221
-463.113	-67.058	0.110	-0.043
-462.099	-132.090	-0.356	0.046
-461.084	223.818	-0.078	0.124
-460.070	-22.715	0.151	0.090
-459.055	55.486	0.121	0.116
-458.040	181.751	0.035	0.051
-457.026	-125.930	0.162	-0.024
-456.011	117.825	-0.174	-0.211
-454.997	60.132	0.156	0.152
-453.982	419.225	-0.084	0.178
-452.968	17.218	0.254	0.199
-451.953	800.000	0.073	0.314
-450.938	800.000	0.008	0.021
-449.924	-172.463	0.136	-0.004
-448.909	-150.395	0.282	0.021
-447.895	-173.544	0.352	0.010
-446.880	-135.371	0.388	0.046
-445.865	-138.221	0.111	-0.012
-444.851	637.138	0.095	-0.238
-443.836	-200.000	-0.014	0.487
-442.822	556.300	0.086	-0.204
-441.807	642.764	0.046	-0.116
-440.792	306.642	-0.229	-0.421
-439.778	-200.000	-0.006	0.113
-438.763	-200.000	-0.053	0.301
-437.749	-70.792	-0.115	-0.043
-436.734	-200.000	0.010	-0.252
-435.719	-151.789	-0.249	-0.018
-434.705	-78.068	0.212	-0.072
-433.690	800.000	-0.116	-0.337
-432.676	163.012	0.216	-0.300
-431.661	61.844	0.114	0.112
-430.646	123.167	0.220	-0.271
-429.632	177.000	-0.242	-0.348
-428.617	47.997	0.113	-0.105
-427.603	-104.257	-0.578	0.132
-426.588	-171.908	-0.469	-0.015
-425.573	192.893	-0.099	0.147
-424.559	390.262	0.146	0.298
-423.544	-200.000	-0.042	0.463
-422.530	-81.980	0.118	0.038
-421.515	50.151	-0.371	0.346
-420.500	95.824	-0.233	-0.262
-419.486	-200.000	0.021	-0.368
-418.471	71.056	-0.093	-0.095
-417.457	222.656	0.211	-0.335
-416.442	367.916	0.174	-0.347
-415.428	14.544	-0.084	-0.064
-414.413	271.050	0.077	-0.133
-413.398	-200.000	0.007	0.161
-412.384	-121.329	-0.269	-0.044
-411.369	-93.505	0.272	0.074
-410.355	-200.000	-0.049	0.272
-409.340	-123.616	-0.150	0.023
-408.325	-113.639	0.423	-0.081
-407.311	4.588	-0.348	-0.252
-406.296	-200.000	0.015	0.079
-405.282	-200.000	-0.024	-0.336
-404.267	20.239	-0.184	-0.146
-403.252	800.000	-0.058	0.203
-402.238	-31.504	0.040	-0.022
-401.223	397.783	-0.223	-0.459
-400.209	-55.178	-0.245	-0.109
-399.194	800.000	-0.033	0.093
-398.179	-200.000	-0.010	-0.157
-397.165	-102.343	0.258	-0.061
-396.150	-58.233	0.196	0.084
-395.136	-67.657	0.110	0.042
-394.121	800.000	0.080	-0.316
-393.106	-140.689	-0.273	0.028
-392.092	-44.139	0.313	0.155
-391.077	-200.000	0.000	-0.224
-390.063	107.920	0.073	-0.086
-389.048	240.487	0.142	0.234
-388.033	-0.455	-0.276	-0.193
-387.019	54.789	0.192	0.182
-386.004	-113.098	-0.077	0.015
-384.990	800.000	-0.076	0.266
-383.975	-132.327	0.499	-0.063
-382.960	179.445	-0.207	0.298
-381.946	39.406	-0.063	0.056
-380.931	-200.000	-0.033	-0.527
-379.917	-200.000	-0.027	-0.436
-378.902	-200.000	-0.005	0.141
-377.888	203.316	0.076	0.115
-376.873	-138.223	-0.191	-0.021
-375.858	-52.451	0.207	0.094
-374.844	-113.616	0.287	-0.055
-373.829	-200.000	0.022	0.146
-372.815	800.000	0.084	0.331
-371.800	366.400	0.070	-0.138
-370.785	-200.000	0.064	0.477
-369.771	-146.802	-0.204	-0.017
-368.756	-200.000	0.030	0.180
-367.742	40.154	-0.240	-0.212
-366.727	-200.000	0.014	-0.111
-365.712	-200.000	-0.005	0.163
-364.698	800.000	0.117	0.327
-363.683	-104.198	-0.093	-0.021
-362.669	-200.000	0.002	0.234
-361.654	-147.055	0.129	0.011
-360.639	800.000	0.064	0.218
-359.625	135.583	0.327	0.418
-358.610	-24.079	0.119	-0.070
-357.596	32.431	0.201	0.171
-356.581	-200.000	-0.023	-0.132
-355.566	-118.824	0.071	0.012
-354.552	181.735	0.237	0.344
-353.537	15.822	-0.228	-0.176
-352.523	98.125	0.276	-0.312
-351.508	-26.575	0.119	0.068
-350.493	800.000	0.035	0.103
-349.479	-200.000	-0.078	-0.476
-348.464	-96.063	0.339	0.089
-347.450	-77.966	0.135	-0.046
-346.435	-98.039	0.055	0.014
-345.420	-21.260	-0.193	0.116
-344.406	800.000	0.041	0.161
-343.391	60.818	-0.163	0.159
-342.377	800.000	-0.065	0.208
-341.362	-1.964	0.082	0.057
-340.348	18.691	-0.087	-0.068
-339.333	-5.898	-0.006	0.004
-338.318	133.156	0.261	-0.332
-337.304	-56.233	0.351	-0.154
-336.289	309.967	0.106	0.194
-335.275	112.052	-0.059	-0.070
-334.260	-129.354	-0.180	0.025
-333.245	116.038	0.118	0.142
-332.231	364.874	0.046	0.091
-331.216	-51.194	0.282	0.130
-330.202	-143.020	0.184	-0.017
-329.187	76.010	-0.176	-0.183
-328.172	269.934	-0.152	0.262
-327.158	-200.000	-0.013	0.066
-326.143	-200.000	0.044	0.257
-325.129	-150.156	0.155	0.012
-324.114	60.110	0.113	-0.109
-323.099	121.074	-0.228	-0.279
-322.085	-94.697	-0.156	0.042
-321.070	-65.582	0.094	0.037
-320.056	-200.000	0.024	-0.113
-319.041	371.475	0.091	0.182
-318.026	-79.997	-0.104	-0.034
-317.012	721.995	0.038	-0.099
-315.997	20.990	-0.219	-0.174
-314.983	800.000	-0.081	-0.225
-313.968	-152.278	0.312	0.022
-312.953	402.202	-0.109	0.225
-311.939	39.439	0.132	-0.116
-310.924	-51.331	-0.289	0.133
-309.910	800.000	-0.034	0.113
-308.895	-105.675	0.439	-0.098
-307.880	-6.770	-0.167	0.112
-306.866	37.383	0.138	0.120
-305.851	800.000	-0.031	0.119
-304.837	183.094	-0.067	0.097
-303.822	53.099	0.025	0.023
-302.807	-200.000	0.021	0.203
-301.793	57.483	-0.296	-0.284
-300.778	-93.722	-0.227	0.061
-299.764	-116.452	0.142	0.026
-298.749	800.000	0.041	-0.140
-297.735	-187.439	0.064	-0.001
-296.720	-39.496	0.351	0.181
-295.705	-200.000	0.006	0.201
-294.691	-200.000	-0.088	0.566
-293.676	-20.628	0.166	-0.100
-292.662	120.323	0.264	0.321
-291.647	173.248	0.105	-0.148
-290.632	-105.100	0.076	0.017
-289.618	-200.000	0.018	-0.209
-288.603	-48.858	-0.338	-0.159
-287.589	-82.275	0.165	0.053
-286.574	751.617	0.013	0.035
-285.559	800.000	-0.022	0.088
-284.545	294.124	-0.030	-0.054
-283.530	-17.944	-0.104	-0.064
-282.516	-12.103	0.109	-0.070
-281.501	-200.000	-0.027	0.232
-280.486	-109.582	-0.243	0.050
-279.472	657.055	-0.068	0.172
-278.457	-58.511	0.208	-0.089
-277.443	-82.490	-0.157	-0.050
-276.428	-71.214	0.231	-0.085
-275.413	-151.957	0.565	-0.040
-274.399	800.000	0.065	-0.265
-273.384	-50.100	0.277	0.129
-272.370	-0.362	-0.217	-0.151
-271.355	-200.000	-0.021	-0.362
-270.340	253.995	-0.190	0.318
-269.326	-200.000	0.015	-0.313
-268.311	-116.688	0.213	0.038
-267.297	738.502	-0.175	-0.461
-266.282	-200.000	0.018	-0.078
-265.267	800.000	0.049	-0.138
-264.253	148.843	0.053	0.071
-263.238	43.501	0.123	-0.110
-262.224	98.048	0.139	-0.157
-261.209	-100.721	-0.185	-0.045
-260.195	-10.288	-0.116	-0.076
-259.180	800.000	-0.043	0.145
-258.165	-200.000	-0.002	-0.104
-257.151	-79.014	-0.253	0.084
-256.136	288.578	0.031	0.055
-255.122	-75.202	-0.129	0.045
-254.107	84.492	0.116	0.124
-253.092	-134.664	-0.308	0.037
-252.078	9.747	0.197	-0.147
-251.063	-0.681	0.166	-0.115
-250.049	800.000	0.064	-0.247
-249.034	29.198	-0.079	0.065
-248.019	-23.368	0.218	0.128
-247.005	-161.577	-0.392	-0.020
-245.990	14.680	0.086	0.066
-244.976	-200.000	0.020	0.204
-243.961	183.112	-0.192	0.277
-242.946	43.184	-0.084	0.075
-241.932	260.345	-0.119	-0.201
-240.917	505.921	-0.081	0.184
-239.903	351.242	-0.128	0.247
-238.888	-200.000	-0.002	-0.208
-237.873	60.303	0.109	0.105
-236.859	800.000	0.079	-0.229
-235.844	-43.625	0.132	-0.065
-234.830	800.000	-0.129	-0.532
-233.815	-80.528	0.342	-0.112
-232.800	-39.324	0.136	0.070
-231.786	412.009	0.053	-0.110
-230.771	567.937	0.057	0.137
-229.757	95.366	-0.035	0.040
-228.742	21.431	0.142	0.113
-227.727	-200.000	-0.008	-0.126
-226.713	1.693	-0.246	-0.173
-225.698	-200.000	0.002	-0.230
-224.684	800.000	-0.071	0.241
-223.669	-200.000	0.022	0.144
-222.655	-26.056	-0.115	0.066
-221.640	-200.000	0.011	0.061
-220.625	70.462	0.113	0.114
-219.611	-69.440	0.194	0.073
-218.596	183.421	0.066	-0.096
-217.582	43.255	-0.085	0.076
-216.567	682.560	-0.022	0.057
-215.552	-142.819	-0.305	-0.029
-214.538	123.918	0.103	-0.127
-213.523	800.000	-0.029	0.121
-212.509	-200.000	0.048	-0.346
-211.494	800.000	-0.082	0.310
-210.479	7.901	0.126	-0.093
-209.465	-89.114	0.108	0.031
-208.450	-33.010	0.144	0.078
-207.436	-48.288	0.148	0.070
-206.421	60.837	0.242	0.235
-205.406	-200.000	0.006	0.059
-204.392	-89.759	0.305	0.087
-203.377	-200.000	-0.016	-0.485
-202.363	82.133	-0.222	0.235
-201.348	-200.000	0.043	0.444
-200.333	-152.216	0.055	0.004
-199.319	164.215	0.160	0.220
-198.304	-56.976	-0.117	-0.051
-197.290	-194.119	-0.340	0.003
-196.275	800.000	0.080	0.225
-195.260	-200.000	-0.008	0.106
-194.246	-200.000	0.002	0.092
-193.231	-194.227	-0.305	0.002
-192.217	-200.000	-0.018	-0.117
-191.202	4.984	0.168	0.121
-190.187	375.951	-0.106	-0.212
-189.173	95.754	0.143	-0.159
-188.158	-155.366	0.196	-0.012
-187.144	-200.000	-0.005	-0.136
-186.129	667.158	-0.016	-0.041
-185.114	135.867	0.169	0.215
-184.100	-150.454	-0.175	-0.013
-183.085	-200.000	0.040	-0.172
-182.071	-53.017	-0.170	-0.077
-181.056	-51.951	-0.140	-0.064
-180.042	58.125	-0.087	0.083
-179.027	-200.000	0.081	0.447
-178.012	285.246	0.167	0.295
-176.998	16.432	-0.064	-0.050
-175.983	-147.292	0.124	0.010
-174.969	-57.069	0.118	-0.051
-173.954	-200.000	0.075	-0.397
-172.939	331.576	-0.098	0.186
-171.925	-16.874	0.131	0.081
-170.910	800.000	0.063	-0.211
-169.896	-74.570	-0.163	0.057
-168.881	-199.524	0.252	-0.001
-167.866	800.000	-0.101	-0.309
-166.852	-93.522	0.380	-0.103
-165.837	352.480	-0.109	-0.212
-164.823	-39.058	-0.198	-0.102
-163.808	-200.000	-0.044	0.337
-162.793	275.706	-0.212	0.367
-161.779	-102.079	-0.229	0.054
-160.764	-174.649	-0.456	0.013
-159.750	-200.000	-0.041	0.204
-158.735	-129.931	0.267	-0.036
-157.720	179.518	-0.090	0.128
-156.706	73.116	-0.021	-0.021
-155.691	-200.000	-0.020	-0.324
-154.677	157.737	-0.240	0.324
-153.662	-200.000	-0.006	-0.033
-152.647	800.000	-0.060	0.248
-151.633	67.967	0.077	-0.077
-150.618	153.596	0.173	-0.232
-149.604	26.094	0.195	0.159
-148.589	-200.000	-0.016	-0.305
-147.574	428.890	-0.054	-0.114
-146.560	397.925	0.072	0.147
-145.545	-143.077	0.100	0.009
-144.531	14.400	0.022	-0.017
-143.516	-200.000	-0.048	0.292
-142.502	-200.000	-0.000	-0.116
-141.487	-102.717	-0.038	-0.009
-140.472	-105.065	-0.097	-0.022
-139.458	-75.031	0.133	0.046
-138.443	118.997	0.126	0.151
-137.429	-143.506	0.087	0.008
-136.414	-168.542	-0.253	0.009
-135.399	542.964	0.039	0.090
-134.385	-57.789	-0.172	0.073
-133.370	60.976	-0.125	0.121
-132.356	-15.294	-0.267	-0.166
-131.341	800.000	0.051	-0.209
-130.326	188.186	0.226	0.329
-129.312	800.000	0.048	0.133
-128.297	-194.448	0.217	0.002
-127.283	-145.779	0.227	-0.020
-126.268	703.129	0.051	-0.131
-125.253	-190.900	0.454	0.005
-124.239	-200.000	-0.029	0.184
-123.224	-200.000	-0.004	0.062
-122.210	800.000	-0.043	0.152
-121.195	-85.999	0.137	0.041
-120.180	29.833	-0.101	0.084
-119.166	-55.653	0.259	-0.113
-118.151	224.703	0.153	-0.242
-117.137	800.000	-0.093	-0.296
-116.122	-200.000	-0.006	-0.103
-115.107	-139.789	0.258	-0.027
-114.093	-14.020	0.276	0.174
-113.078	561.336	0.114	0.268
-112.064	-200.000	0.230	0.000
-111.049	-32.733	-0.074	-0.040
-110.034	-23.186	-0.175	0.103
-109.020	-82.117	-0.296	-0.094
-108.005	-42.021	0.124	-0.062
-106.991	240.462	-0.091	0.147
-105.976	-10.140	0.106	0.069
-104.962	27.117	0.125	-0.102
-103.947	118.112	0.103	0.124
-102.932	-133.889	0.371	-0.045
-101.918	-200.000	-0.057	0.318
-100.903	-146.305	-0.128	0.011
-99.889	25.598	0.042	-0.034
-98.874	-10.006	0.059	-0.038
-97.859	-176.806	-0.010	-0.000
-96.845	29.614	-0.201	-0.166
-95.830	-7.699	0.044	-0.029
-94.816	246.697	0.128	-0.211
-93.801	-58.449	0.123	-0.052
-92.786	325.655	0.046	-0.085
-91.772	557.839	0.098	-0.230
-90.757	800.000	-0.118	-0.419
-89.743	800.000	0.068	0.226
-88.728	59.659	0.097	-0.093
-87.713	-48.157	0.162	0.076
-86.699	297.800	0.245	0.437
-85.684	584.459	0.034	-0.082
-84.670	-200.000	0.022	-0.251
-83.655	-200.000	0.026	-0.306
-82.640	-39.589	0.476	0.242
-81.626	-71.311	-0.253	0.092
-80.611	-200.000	-0.040	0.307
-79.597	-200.000	-0.006	-0.097
-78.582	99.757	0.158	0.178
-77.567	81.706	-0.159	-0.167
-76.553	69.652	-0.123	-0.123
-75.538	-30.807	0.232	-0.128
-74.524	-74.203	-0.333	0.117
-73.509	-14.159	0.122	-0.077
-72.494	-200.000	0.022	0.188
-71.480	40.943	-0.047	0.041
-70.465	69.374	0.112	0.112
-69.451	114.608	-0.144	0.170
-68.436	-106.948	-0.177	0.038
-67.422	3.760	-0.240	-0.171
-66.407	289.153	-0.061	0.107
-65.392	51.539	0.141	0.130
-64.378	-82.371	0.304	0.096
-63.363	-44.346	-0.153	-0.075
-62.349	435.557	-0.103	0.218
-61.334	12.311	-1.633	-1.224
-60.319	1.047	0.736	0.514
-59.305	398.149	-0.547	-1.113
-58.290	444.286	0.652	1.391
-57.276	381.769	0.659	1.315
-56.261	-200.000	123.268	654.641
-55.246	444.212	1535.713	3275.721
-54.232	148.504	2691.951	3534.805
-53.217	92.361	2274.544	2492.706
-52.203	32.817	1892.171	1592.128
-51.188	26.886	1689.867	1376.988
-50.173	24.699	1651.628	1329.526
-49.159	46.008	1719.490	1546.947
-48.144	43.842	1731.113	1540.885
-47.130	26.437	1682.939	1367.731
-46.115	24.073	1667.914	1337.725
-45.100	23.826	1662.702	1331.643
-44.086	23.781	1660.170	1329.222
-43.071	23.730	1657.895	1326.971
-42.057	23.748	1655.607	1325.217
-41.042	23.703	1654.539	1323.977
-40.027	23.716	1652.159	1322.111
-39.013	23.839	1649.759	1321.059
-37.998	23.717	1648.700	1319.246
-36.984	23.777	1647.432	1318.628
-35.969	23.856	1645.793	1317.847
-34.954	23.899	1644.179	1316.826
-33.940	23.854	1643.031	1315.518
-32.925	23.753	1641.363	1313.381
-31.911	23.844	1639.579	1312.574
-30.896	23.844	1637.649	1310.976
-29.881	23.892	1636.284	1310.184
-28.867	23.879	1634.208	1308.378
-27.852	23.835	1633.083	1307.099
-26.838	23.834	1631.974	1306.156
-25.823	23.874	1630.478	1305.198
-24.809	23.884	1628.938	1303.988
-23.794	23.841	1628.509	1303.279
-22.779	23.862	1626.944	1302.126
-21.765	23.907	1624.245	1300.243
-20.750	23.841	1623.143	1298.830
-19.736	23.918	1621.669	1298.160
-18.721	23.991	1620.212	1297.475
-17.706	23.887	1619.026	1295.717
-16.692	23.958	1617.252	1294.759
-15.677	23.940	1616.114	1293.666
-14.663	23.962	1614.377	1292.388
-13.648	23.916	1613.953	1291.662
-12.633	23.916	1612.311	1290.296
-11.619	23.977	1610.345	1289.115
-10.604	23.900	1609.000	1287.426
-9.590	23.904	1607.630	1286.306
-8.575	23.900	1606.464	1285.299
-7.560	24.002	1604.825	1284.667
-6.546	23.933	1604.213	1283.631
-5.531	23.858	1603.226	1282.249
-4.517	23.914	1602.023	1281.638
-3.502	23.907	1600.449	1280.277
-2.487	23.956	1598.914	1279.355
-1.473	23.544	1586.779	1266.653
-0.458	20.395	1568.158	1229.477
0.556	15.302	1569.644	1197.993
1.571	12.960	1593.849	1199.350
2.586	12.734	1605.760	1206.549
3.600	11.642	1551.901	1158.243
4.615	6.430	1446.382	1044.895
5.629	1.224	1388.128	969.518
6.644	0.248	1380.606	957.975
7.659	0.191	1379.385	956.682
8.673	0.112	1378.622	955.561
9.688	0.099	1376.383	953.845
10.702	-0.006	1373.263	950.935
11.717	2.647	1376.464	969.871
12.731	9.470	1386.770	1020.418
13.746	15.374	1395.556	1064.354
14.761	16.814	1397.447	1074.843
15.775	16.157	1395.575	1069.143
16.790	15.231	1393.078	1061.277
17.804	14.454	1389.976	1053.911
18.819	14.121	1388.659	1050.717
19.834	13.878	1387.675	1048.343
20.848	13.615	1386.604	1045.782
21.863	13.496	1384.878	1043.639
22.877	13.119	1383.864	1040.405
23.892	13.221	1382.944	1040.265
24.907	13.149	1382.563	1039.430
25.921	13.264	1381.056	1038.927
26.936	13.216	1380.346	1037.999
27.950	13.160	1379.680	1037.055
28.965	13.214	1378.756	1036.608
29.980	13.341	1377.308	1036.225
30.994	13.418	1376.888	1036.302
32.009	13.445	1375.455	1035.301
33.023	13.444	1374.522	1034.500
34.038	13.365	1373.795	1033.363
35.053	13.388	1372.120	1032.161
36.067	13.381	1370.951	1031.141
37.082	13.331	1370.015	1030.035
38.096	13.392	1368.889	1029.478
39.111	13.397	1368.306	1028.980
40.126	13.319	1367.561	1027.846
41.140	13.274	1366.258	1026.494
42.155	13.201	1366.330	1026.004
43.169	13.176	1366.239	1025.691
44.184	13.148	1365.881	1025.159
45.199	13.179	1365.407	1024.901
46.213	13.183	1364.704	1024.308
47.228	13.237	1364.000	1024.025
48.242	13.303	1362.628	1023.312
49.257	13.304	1361.094	1022.077
50.271	13.289	1359.824	1020.942
51.286	13.222	1358.257	1019.262
52.301	13.239	1357.514	1018.718
53.315	13.248	1355.885	1017.458
54.330	13.265	1355.057	1016.854
55.344	13.356	1353.275	1015.985
56.359	13.265	1352.494	1014.750
57.374	13.205	1351.897	1013.847
58.388	13.034	1351.164	1012.154
59.403	13.067	1350.634	1011.875
60.417	13.142	1349.890	1011.684
61.432	13.057	1349.023	1010.424
62.447	13.124	1347.458	1009.571
63.461	13.148	1346.100	1008.615
64.476	13.115	1345.454	1007.836
65.490	13.101	1344.062	1006.621
66.505	13.141	1342.471	1005.582
67.520	13.240	1340.743	1004.800
68.534	13.107	1340.005	1003.350
69.549	13.183	1338.989	1002.964
70.563	13.101	1338.135	1001.739
71.578	13.124	1336.791	1000.783
72.593	13.052	1335.768	999.491
73.607	13.060	1335.293	999.100
74.622	12.982	1334.475	997.922
75.636	13.080	1334.031	998.096
76.651	13.012	1333.181	996.959
77.666	13.094	1332.134	996.583
78.680	13.039	1331.892	995.984
79.695	13.031	1331.289	995.400
80.709	13.138	1330.181	995.124
81.724	13.004	1329.956	994.062
82.739	13.105	1328.566	993.544
83.753	13.251	1327.697	993.682
84.768	13.263	1326.345	992.653
85.782	13.216	1325.425	991.594
86.797	13.342	1323.521	990.841
87.812	13.245	1322.295	989.254
88.826	13.287	1321.329	988.692
89.841	13.283	1320.584	988.023
90.855	13.258	1319.510	986.988
91.870	13.220	1318.885	986.206
92.884	13.294	1317.698	985.673
93.899	13.314	1316.738	984.981
94.914	13.328	1316.341	984.685
95.928	13.349	1314.979	983.705
96.943	13.341	1314.409	983.141
97.957	13.360	1313.450	982.449
98.972	13.386	1311.940	981.389
99.987	13.353	1311.145	980.508
101.001	13.268	1309.975	979.043
102.016	13.339	1309.313	978.887
103.030	13.250	1308.641	977.767
104.045	13.331	1307.719	977.469
105.060	13.374	1306.492	976.719
106.074	13.266	1305.407	975.189
107.089	13.195	1303.745	973.444
108.103	13.158	1302.632	972.305
109.118	13.183	1301.356	971.413
110.133	13.145	1299.913	970.027
111.147	13.233	1298.625	969.496
112.162	13.283	1297.082	968.553
113.176	13.307	1296.036	967.827
114.191	13.300	1295.268	967.126
115.206	13.194	1294.230	965.648
116.220	13.246	1293.010	964.953
117.235	13.307	1291.649	964.210
118.249	13.178	1291.166	963.011
119.264	13.274	1289.690	962.382
120.279	13.233	1288.464	961.147
121.293	13.188	1287.826	960.325
122.308	13.262	1286.214	959.467
123.322	13.171	1285.653	958.432
124.337	13.108	1284.675	957.256
125.352	13.218	1283.154	956.672
126.366	13.097	1282.481	955.390
127.381	13.197	1280.770	954.607
128.395	13.178	1279.929	953.784
129.410	13.166	1279.044	952.970
130.424	13.282	1278.318	953.015
131.439	13.280	1277.042	951.969
132.454	13.276	1276.615	951.546
133.468	13.284	1275.311	950.531
134.483	13.332	1274.660	950.237
135.497	13.294	1273.305	948.927
136.512	13.314	1272.066	948.036
137.527	13.263	1270.939	946.817
138.541	13.166	1269.613	945.192
139.556	13.390	1267.600	944.890
140.570	13.352	1267.439	944.467
141.585	13.358	1265.900	943.272
142.600	13.410	1264.623	942.536
143.614	13.464	1264.051	942.331
144.629	13.438	1262.866	941.217
145.643	13.581	1261.425	940.870
146.658	13.346	1260.631	938.865
147.673	13.396	1259.494	938.219
148.687	13.359	1258.085	936.875
149.702	13.393	1256.706	935.957
150.716	13.281	1255.582	934.404
151.731	13.400	1254.180	933.951
152.746	13.377	1253.235	933.032
153.760	13.441	1251.415	931.958
154.775	13.477	1250.857	931.658
155.789	13.398	1250.244	930.681
156.804	13.506	1248.773	930.105
157.819	13.428	1247.854	928.902
158.833	13.554	1246.890	928.807
159.848	13.570	1245.440	927.736
160.862	13.614	1244.325	927.070
161.877	13.459	1243.659	925.625
162.892	13.471	1242.424	924.689
163.906	13.483	1241.649	924.102
164.921	13.563	1240.328	923.481
165.935	13.569	1239.407	922.748
166.950	13.657	1238.876	922.760
167.964	13.637	1238.278	922.120
168.979	13.690	1237.161	921.503
169.994	13.592	1236.494	920.379
171.008	13.555	1235.486	919.345
172.023	13.695	1235.029	919.699
173.037	13.832	1233.601	919.310
174.052	13.663	1233.238	918.024
175.067	13.580	1232.301	916.784
176.081	13.610	1231.331	916.149
177.096	13.656	1230.696	915.848
178.110	13.608	1229.248	914.425
179.125	13.672	1228.004	913.774
180.140	13.749	1226.912	913.304
181.154	13.753	1225.210	911.979
182.169	13.759	1224.798	911.624
183.183	13.814	1223.463	910.854
184.198	13.829	1222.271	909.968
185.213	13.833	1221.351	909.221
186.227	13.844	1220.102	908.273
187.242	13.943	1218.698	907.690
188.256	13.928	1217.957	906.974
189.271	13.940	1216.898	906.170
190.286	13.829	1215.849	904.706
191.300	13.654	1215.878	903.694
192.315	13.674	1214.673	902.827
193.329	13.731	1213.913	902.488
194.344	13.734	1213.231	901.921
195.359	13.803	1212.447	901.630
196.373	13.910	1211.914	901.738
197.388	13.835	1211.803	901.167
198.402	14.071	1210.769	901.599
199.417	14.095	1210.287	901.291
200.432	14.263	1209.002	901.164
201.446	14.121	1208.400	899.866
202.461	14.043	1207.801	898.919
203.475	14.213	1206.529	898.809
204.490	14.115	1205.192	897.205
205.504	14.071	1203.889	895.917
206.519	14.150	1202.520	895.247
207.534	14.123	1201.965	894.610
208.548	14.190	1200.447	893.759
209.563	14.105	1200.245	893.077
210.577	14.124	1198.908	892.103
211.592	14.182	1198.242	891.839
212.607	14.213	1197.446	891.331
213.621	14.094	1196.929	890.234
214.636	14.253	1196.043	890.343
215.650	14.288	1194.526	889.323
216.665	14.167	1193.994	888.202
217.680	14.263	1193.013	887.906
218.694	14.423	1191.650	887.668
219.709	14.331	1191.109	886.693
220.723	14.247	1190.811	885.949
221.738	14.341	1189.993	885.760
222.753	14.449	1188.801	885.367
223.767	14.377	1188.498	884.684
224.782	14.330	1188.029	884.006
225.796	14.469	1187.247	884.080
226.811	14.606	1185.969	883.779
227.826	14.377	1185.592	882.208
228.840	14.476	1185.114	882.295
229.855	14.447	1183.994	881.232
230.869	14.440	1182.900	880.301
231.884	14.403	1182.560	879.774
232.899	14.308	1181.548	878.445
233.913	14.436	1181.125	878.726
234.928	14.423	1180.358	878.013
235.942	14.393	1179.575	877.194
236.957	14.369	1178.637	876.291
237.972	14.536	1177.586	876.308
238.986	14.409	1177.335	875.378
240.001	14.442	1176.504	874.858
241.015	14.514	1175.473	874.389
242.030	14.439	1174.998	873.566
243.045	14.490	1173.963	872.988
244.059	14.492	1173.325	872.443
245.074	14.688	1172.329	872.652
246.088	14.536	1171.942	871.490
247.103	14.724	1170.675	871.454
248.117	14.692	1170.239	870.883
249.132	14.857	1169.067	870.797
250.147	14.788	1168.510	869.946
251.161	14.821	1168.260	869.852
252.176	14.829	1167.399	869.175
253.190	14.807	1167.226	868.859
254.205	14.886	1166.572	868.701
255.220	14.861	1166.035	868.094
256.234	14.892	1165.203	867.561
257.249	14.895	1164.112	866.685
258.263	14.932	1163.491	866.343
259.278	14.914	1162.730	865.605
260.293	15.013	1161.689	865.263
261.307	15.024	1161.637	865.206
262.322	15.030	1160.906	864.615
263.336	15.141	1160.264	864.635
264.351	15.092	1159.584	863.796
265.366	15.150	1158.944	863.545
266.380	15.121	1158.061	862.661
267.395	15.119	1157.114	861.868
268.409	15.207	1156.567	861.835
269.424	15.118	1156.529	861.276
270.439	15.040	1155.661	860.154
271.453	15.015	1154.978	859.436
272.468	15.192	1153.409	859.104
273.482	15.070	1153.253	858.287
274.497	15.155	1152.882	858.370
275.512	15.135	1151.957	857.502
276.526	15.235	1151.070	857.277
277.541	15.159	1150.205	856.168
278.555	15.112	1149.856	855.592
279.570	15.348	1148.576	855.771
280.585	15.315	1148.195	855.243
281.599	15.256	1147.432	854.296
282.614	15.198	1146.536	853.259
283.628	15.220	1145.141	852.258
284.643	15.287	1144.432	851.992
285.657	15.266	1143.559	851.160
286.672	15.300	1142.936	850.793
287.687	15.298	1141.685	849.777
288.701	15.386	1140.922	849.582
289.716	15.369	1140.067	848.785
290.730	15.331	1139.446	848.056
291.745	15.345	1139.134	847.818
292.760	15.487	1137.815	847.480
293.774	15.541	1137.286	847.282
294.789	15.566	1136.837	846.996
295.803	15.373	1136.621	845.788
296.818	15.491	1135.472	845.451
297.833	15.479	1134.650	844.706
298.847	15.469	1134.418	844.407
299.862	15.494	1133.407	843.707
300.876	15.577	1132.603	843.448
301.891	15.608	1131.711	842.867
302.906	15.533	1131.514	842.268
303.920	15.645	1130.501	842.000
304.935	15.685	1129.680	841.517
305.949	15.699	1129.130	841.103
306.964	15.663	1128.353	840.268
307.979	15.694	1127.919	840.025
308.993	15.805	1126.841	839.705
310.008	15.765	1126.338	839.056
311.022	15.705	1125.319	837.922
312.037	15.845	1124.402	837.861
313.052	15.752	1123.459	836.622
314.066	15.737	1122.510	835.766
315.081	15.704	1121.685	834.917
316.095	15.712	1120.916	834.308
317.110	15.709	1120.563	833.955
318.125	15.798	1119.767	833.730
319.139	15.715	1119.272	832.880
320.154	15.696	1118.688	832.276
321.168	15.827	1118.013	832.349
322.183	15.827	1117.240	831.702
323.197	15.746	1116.567	830.726
324.212	15.792	1115.658	830.200
325.227	15.827	1115.907	830.486
326.241	15.935	1114.707	830.054
327.256	15.844	1114.277	829.212
328.270	15.938	1112.873	828.554
329.285	15.869	1111.949	827.452
330.300	15.820	1111.284	826.644
331.314	15.817	1110.472	825.955
332.329	15.968	1109.297	825.746
333.343	15.892	1108.384	824.622
334.358	16.086	1107.726	825.011
335.373	16.018	1107.205	824.217
336.387	15.985	1106.045	823.119
337.402	15.922	1105.608	822.411
338.416	16.027	1104.877	822.310
339.431	16.050	1104.143	821.803
340.446	16.007	1103.670	821.164
341.460	16.188	1102.773	821.308
342.475	16.187	1101.908	820.587
343.489	16.240	1100.663	819.843
344.504	16.200	1100.254	819.273
345.519	16.149	1099.637	818.493
346.533	16.281	1098.660	818.331
347.548	16.424	1097.625	818.180
348.562	16.517	1096.794	817.942
349.577	16.399	1096.075	816.763
350.592	16.187	1095.703	815.387
351.606	16.135	1095.260	814.733
352.621	16.193	1094.306	814.231
353.635	16.171	1093.659	813.572
354.650	16.272	1092.874	813.404
355.665	16.330	1092.086	813.026
356.679	16.331	1091.363	812.417
357.694	16.319	1091.260	812.212
358.708	16.381	1090.075	811.558
359.723	16.357	1089.432	810.892
360.738	16.314	1088.987	810.281
361.752	16.345	1088.342	809.879
362.767	16.466	1087.462	809.732
363.781	16.518	1086.931	809.515
364.796	16.437	1086.729	808.905
365.810	16.517	1085.747	808.485
366.825	16.442	1085.430	807.816
367.840	16.601	1084.703	807.965
368.854	16.625	1084.001	807.483
369.869	16.552	1083.742	806.871
370.883	16.622	1082.409	806.143
371.898	16.697	1081.803	805.978
372.913	16.527	1081.573	804.926
373.927	16.559	1080.945	804.538
374.942	16.676	1080.517	804.702
375.956	16.612	1079.785	803.782
376.971	16.613	1079.122	803.225
377.986	16.631	1078.453	802.740
379.000	16.729	1078.189	802.939
380.015	16.760	1077.721	802.666
381.029	16.894	1076.898	802.615
382.044	16.944	1075.816	801.977
383.059	16.759	1075.299	800.646
384.073	16.801	1074.457	800.142
385.088	16.860	1073.236	799.444
386.102	16.847	1072.724	798.927
387.117	16.854	1071.281	797.817
388.132	16.798	1070.725	797.070
389.146	16.665	1070.209	795.987
390.161	16.838	1069.261	796.027
391.175	16.931	1068.501	795.828
392.190	16.909	1067.689	795.048
393.205	17.067	1066.885	795.120
394.219	17.010	1065.623	793.840
395.234	17.048	1065.041	793.513
396.248	17.029	1064.335	792.831
397.263	16.878	1063.323	791.300
398.278	16.894	1062.623	790.788
399.292	17.036	1062.001	790.914
400.307	17.005	1061.323	790.196
401.321	16.995	1060.715	789.627
402.336	16.916	1060.244	788.839
403.350	16.990	1059.308	788.415
404.365	17.110	1058.648	788.414
405.380	17.057	1058.143	787.720
406.394	17.157	1057.096	787.333
407.409	17.083	1056.489	786.472
408.423	17.190	1055.678	786.294
409.438	17.194	1054.778	785.569
410.453	17.252	1054.373	785.470
411.467	17.303	1053.536	785.011
412.482	17.314	1053.054	784.633
413.496	17.217	1052.310	783.559
414.511	17.338	1051.423	783.390
415.526	17.356	1051.456	783.429
416.540	17.507	1050.780	783.547
417.555	17.414	1050.282	782.680
418.569	17.495	1049.698	782.550
419.584	17.556	1048.928	782.186
420.599	17.411	1049.118	781.591
421.613	108.021	1330.618	1487.577
422.628	99.388	1371.557	1487.649
