DTS Sentinel unit serial number:	SN413079Multiplexer serial number:	ORYXHardware model number:	OX4-SRSoftware version number:	ORYX F/W v4.00 Oryx Data Collector v3.7.2.0data status	okinstallation	princeton_trtdifferential loss correction	single-endedforward channel	channel 2reverse channel	N/Adate	2019/09/19time	14:47:35forward acquisition time	60.00reverse acquisition time	0.00gamma	496.2192k internal	0.2322k external	0.2322temperature offset calibration	1.0020default loss term (dB/km)	0.3790temperature slope calibration	1.0000multiplexer offset coefficient	1.0000multiplexer slope coefficient	1.0000fibre end	0.00T internal ref (°C)	32.73T ext. ref 1 (°C)	1.10T ext. ref 2 (°C)	29.68length (m)	temperature (°C)	Stokes	anti-Stokes-747.200	-200.000	0.029	-0.373
-746.185	279.599	0.007	0.012
-745.171	-81.839	0.200	0.066
-744.156	800.000	0.090	0.287
-743.142	-85.886	0.207	0.065
-742.127	-200.000	0.002	0.234
-741.112	-88.984	0.099	0.029
-740.098	-71.117	-0.109	-0.041
-739.083	-72.943	0.230	0.086
-738.069	800.000	0.046	-0.134
-737.054	800.000	0.035	0.151
-736.039	-200.000	-0.020	-0.094
-735.025	111.162	-0.123	-0.150
-734.010	-172.262	-0.120	-0.004
-732.996	447.298	-0.041	-0.092
-731.981	-50.650	-0.461	0.219
-730.966	209.805	0.206	-0.326
-729.952	-99.040	-0.217	-0.056
-728.937	-200.000	-0.038	-0.339
-727.923	800.000	-0.074	0.305
-726.908	-29.560	0.186	-0.107
-725.894	-190.470	0.052	0.001
-724.879	-45.810	-0.338	-0.168
-723.864	35.367	-0.163	-0.145
-722.850	93.470	-0.038	0.043
-721.835	-15.967	-0.272	-0.174
-720.821	491.353	0.069	-0.161
-719.806	-200.000	-0.159	0.001
-718.791	800.000	0.058	-0.187
-717.777	147.999	-0.187	-0.255
-716.762	-58.465	0.380	0.167
-715.748	-200.000	0.000	-0.065
-714.733	328.932	0.090	-0.174
-713.718	-200.000	0.039	0.181
-712.704	449.466	0.211	0.468
-711.689	21.479	0.170	0.140
-710.675	300.370	-0.091	-0.169
-709.660	473.490	-0.142	-0.323
-708.645	309.647	0.134	-0.254
-707.631	800.000	-0.039	-0.148
-706.616	607.656	-0.051	-0.130
-705.602	713.077	-0.091	-0.244
-704.587	-155.540	-0.216	0.014
-703.572	353.876	0.183	-0.367
-702.558	353.660	-0.051	-0.102
-701.543	-58.625	0.302	0.132
-700.529	-200.000	0.044	-0.266
-699.514	114.590	0.179	-0.221
-698.499	800.000	0.044	0.149
-697.485	-124.873	0.292	-0.045
-696.470	-73.057	0.407	-0.150
-695.456	-200.000	0.028	-0.127
-694.441	74.017	-0.088	0.093
-693.426	800.000	0.060	0.212
-692.412	-200.000	0.071	0.576
-691.397	-96.276	0.314	0.084
-690.383	57.467	-0.057	0.056
-689.368	-200.000	0.136	0.000
-688.354	510.257	0.111	-0.259
-687.339	311.476	-0.063	0.119
-686.324	-99.831	0.372	-0.094
-685.310	-200.000	-0.024	0.112
-684.295	-114.178	-0.213	0.042
-683.281	-25.366	-0.283	-0.168
-682.266	-98.445	-0.280	0.072
-681.251	800.000	0.072	0.280
-680.237	129.467	-0.110	-0.141
-679.222	800.000	-0.144	0.449
-678.208	-200.000	-0.000	0.006
-677.193	-86.155	-0.105	-0.033
-676.178	-200.000	0.053	0.391
-675.164	493.722	-0.223	0.515
-674.149	0.264	0.062	0.045
-673.135	-119.845	-0.323	0.056
-672.120	556.067	-0.087	0.212
-671.105	109.920	-0.126	-0.152
-670.091	-200.000	-0.012	0.200
-669.076	-81.544	-0.307	0.102
-668.062	414.250	-0.239	-0.513
-667.047	-16.776	-0.247	0.157
-666.032	49.130	0.136	-0.128
-665.018	-72.852	-0.134	0.050
-664.003	-57.217	-0.260	-0.115
-662.989	800.000	0.105	-0.304
-661.974	-71.064	0.205	-0.078
-660.959	-113.692	-0.309	-0.061
-659.945	-200.000	-0.243	-0.000
-658.930	-105.002	-0.329	-0.076
-657.916	-28.066	-0.145	-0.084
-656.901	83.012	0.216	-0.237
-655.886	92.116	0.225	-0.256
-654.872	-41.736	0.240	0.124
-653.857	234.507	-0.030	-0.050
-652.843	184.927	-0.081	0.121
-651.828	3.101	-0.068	0.049
-650.814	-200.000	-0.052	-0.232
-649.799	243.865	-0.142	-0.240
-648.784	-36.823	-0.279	0.151
-647.770	-173.090	-0.075	-0.002
-646.755	202.486	-0.032	-0.049
-645.741	-200.000	-0.005	0.235
-644.726	499.720	-0.059	-0.137
-643.711	-200.000	-0.019	-0.204
-642.697	-80.434	0.096	0.032
-641.682	-70.469	-0.238	0.091
-640.668	69.666	0.158	0.164
-639.653	-59.712	0.226	-0.097
-638.638	-43.520	0.326	-0.165
-637.624	-176.629	0.164	-0.004
-636.609	740.333	0.052	0.139
-635.595	-174.553	0.339	0.010
-634.580	583.122	0.108	0.267
-633.565	89.282	0.150	0.168
-632.551	197.161	0.040	0.061
-631.536	-77.942	-0.133	-0.046
-630.522	-132.650	0.200	0.026
-629.507	-74.814	-0.211	0.076
-628.492	-75.683	-0.092	-0.033
-627.478	-200.000	0.004	0.102
-626.463	92.869	0.329	0.373
-625.449	-200.000	0.031	-0.141
-624.434	-70.256	0.255	0.097
-623.419	-130.161	-0.375	-0.051
-622.405	152.033	0.089	0.122
-621.390	-111.367	0.100	-0.020
-620.376	-4.851	0.243	-0.168
-619.361	226.820	-0.123	0.200
-618.346	496.098	-0.041	-0.095
-617.332	14.662	-0.228	0.179
-616.317	-113.583	-0.234	0.046
-615.303	208.826	-0.205	-0.322
-614.288	83.220	-0.150	-0.164
-613.273	190.092	-0.145	-0.219
-612.259	-99.486	0.243	0.062
-611.244	-105.761	-0.183	0.042
-610.230	114.707	0.089	0.108
-609.215	-72.384	0.057	-0.021
-608.201	-191.520	-0.046	-0.000
-607.186	215.525	0.082	-0.130
-606.171	800.000	-0.036	0.106
-605.157	201.723	-0.095	0.147
-604.142	287.143	0.047	0.086
-603.128	800.000	-0.139	0.433
-602.113	49.198	-0.115	-0.108
-601.098	800.000	0.091	0.316
-600.084	800.000	-0.072	0.201
-599.069	-137.039	0.174	0.020
-598.055	143.688	-0.150	0.200
-597.040	339.744	0.110	0.215
-596.025	800.000	0.017	0.055
-595.011	-51.831	0.171	0.080
-593.996	800.000	-0.048	-0.172
-592.982	800.000	0.078	0.266
-591.967	-30.306	-0.217	-0.124
-590.952	-153.883	0.187	-0.013
-589.938	219.611	0.156	0.251
-588.923	432.422	0.103	-0.225
-587.909	417.085	0.042	-0.090
-586.894	800.000	0.024	0.081
-585.879	36.079	-0.132	0.117
-584.865	-127.792	0.417	-0.060
-583.850	251.487	-0.139	-0.238
-582.836	-143.616	0.192	-0.018
-581.821	-150.320	-0.428	0.033
-580.806	-23.954	-0.250	-0.150
-579.792	597.751	0.089	-0.222
-578.777	29.189	-0.056	-0.048
-577.763	-114.315	0.189	-0.037
-576.748	59.360	0.212	-0.209
-575.733	-122.582	-0.105	0.017
-574.719	-159.019	0.132	0.008
-573.704	800.000	-0.045	-0.193
-572.690	58.122	0.089	0.087
-571.675	53.772	0.322	0.311
-570.661	4.636	-0.107	0.079
-569.646	32.267	0.071	-0.061
-568.631	105.431	-0.157	0.186
-567.617	58.820	0.251	-0.247
-566.602	121.398	0.121	-0.151
-565.588	401.286	0.013	0.027
-564.573	800.000	0.024	0.096
-563.558	-98.502	-0.232	0.059
-562.544	29.734	-0.177	-0.151
-561.529	262.676	-0.207	0.361
-560.515	-49.022	-0.219	0.105
-559.500	-200.000	-0.005	-0.076
-558.485	-166.508	0.229	0.010
-557.471	800.000	-0.018	0.074
-556.456	56.863	-0.050	-0.049
-555.442	125.857	-0.055	-0.069
-554.427	283.804	-0.133	0.239
-553.412	-22.902	-0.230	-0.139
-552.398	-37.771	0.094	0.050
-551.383	-72.816	-0.166	0.061
-550.369	-200.000	-0.024	0.296
-549.354	-66.828	-0.392	-0.156
-548.339	-55.645	0.143	-0.064
-547.325	-75.099	0.188	0.067
-546.310	-97.345	0.259	-0.068
-545.296	71.414	-0.221	-0.229
-544.281	-176.638	-0.298	0.008
-543.266	38.594	0.168	-0.150
-542.252	216.871	-0.095	-0.152
-541.237	-54.981	0.156	-0.070
-540.223	5.582	0.172	0.127
-539.208	390.139	0.031	0.064
-538.193	800.000	-0.045	0.143
-537.179	-58.394	0.212	0.092
-536.164	-15.598	-0.084	0.054
-535.150	-200.000	0.005	-0.462
-534.135	61.550	0.050	-0.050
-533.121	-54.975	-0.207	-0.093
-532.106	-49.742	-0.136	0.065
-531.091	174.826	-0.138	0.200
-530.077	-200.000	-0.002	-0.472
-529.062	8.807	0.136	0.103
-528.048	-200.000	-0.057	-0.310
-527.033	-184.936	-0.337	0.005
-526.018	800.000	0.036	0.130
-525.004	91.584	-0.308	-0.347
-523.989	-199.421	-0.213	-0.001
-522.975	120.495	-0.107	0.133
-521.960	56.119	0.033	0.032
-520.945	-74.292	-0.310	0.112
-519.931	-67.910	0.032	0.013
-518.916	-113.579	-0.108	-0.021
-517.902	-200.000	0.015	0.290
-516.887	800.000	0.121	0.346
-515.872	221.825	-0.114	-0.184
-514.858	113.192	0.067	0.082
-513.843	495.687	0.089	0.204
-512.829	-200.000	0.008	0.245
-511.814	59.115	-0.159	0.156
-510.799	31.558	-0.110	-0.095
-509.785	142.176	-0.100	-0.132
-508.770	71.334	0.267	-0.277
-507.756	142.713	0.168	-0.224
-506.741	-200.000	0.031	-0.138
-505.726	800.000	-0.022	0.083
-504.712	-200.000	-0.047	0.300
-503.697	-42.490	-0.144	0.074
-502.683	-200.000	-0.027	0.198
-501.668	-186.274	-0.098	-0.001
-500.653	47.238	-0.307	0.286
-499.639	-38.680	0.347	0.183
-498.624	178.385	0.111	0.163
-497.610	800.000	-0.087	-0.342
-496.595	242.680	0.096	-0.161
-495.581	511.666	0.129	-0.301
-494.566	-110.855	-0.377	-0.078
-493.551	-74.034	-0.083	0.030
-492.537	-75.059	-0.234	-0.084
-491.522	-200.000	-0.033	-0.308
-490.508	28.758	0.130	0.110
-489.493	-37.545	-0.164	0.087
-488.478	109.714	0.292	-0.350
-487.464	-99.012	-0.423	-0.107
-486.449	-164.160	0.532	-0.025
-485.435	-200.000	-0.013	0.094
-484.420	-200.000	-0.002	-0.076
-483.405	-51.332	-0.326	-0.153
-482.391	-50.306	0.147	0.069
-481.376	-200.000	0.017	-0.118
-480.362	-113.737	0.107	0.021
-479.347	-56.588	-0.208	0.092
-478.332	-200.000	0.015	0.099
-477.318	-142.585	-0.198	0.019
-476.303	186.262	0.182	-0.270
-475.289	20.801	0.150	0.121
-474.274	68.563	0.255	0.261
-473.259	49.618	-0.261	-0.245
-472.245	-109.550	-0.248	0.052
-471.230	471.589	0.065	-0.145
-470.216	-71.384	0.096	-0.036
-469.201	-200.000	0.034	-0.165
-468.186	-24.605	-0.196	0.116
-467.172	-137.236	0.274	0.031
-466.157	800.000	0.075	-0.236
-465.143	83.515	-0.157	0.171
-464.128	-200.000	-0.006	0.300
-463.113	-200.000	-0.018	-0.132
-462.099	-51.472	-0.224	0.105
-461.084	-200.000	0.007	-0.399
-460.070	157.866	-0.150	-0.207
-459.055	102.838	-0.245	0.286
-458.040	69.332	-0.064	-0.066
-457.026	-200.000	-0.008	-0.083
-456.011	-200.000	-0.015	-0.068
-454.997	311.334	0.273	-0.512
-453.982	-3.418	0.017	-0.012
-452.968	800.000	0.061	-0.174
-451.953	116.414	0.059	-0.072
-450.938	283.360	0.045	0.080
-449.924	-185.942	-0.142	-0.002
-448.909	-12.750	-0.063	-0.041
-447.895	800.000	-0.059	0.212
-446.880	-86.131	-0.155	-0.048
-445.865	-200.000	-0.113	-0.519
-444.851	163.846	0.100	0.141
-443.836	800.000	0.053	0.150
-442.822	-15.335	-0.131	0.084
-441.807	800.000	0.031	0.088
-440.792	-105.155	0.235	0.054
-439.778	800.000	0.102	0.344
-438.763	-142.632	-0.250	0.024
-437.749	800.000	-0.072	0.312
-436.734	-37.314	-0.204	0.109
-435.719	-55.309	-0.288	0.129
-434.705	800.000	0.160	0.532
-433.690	800.000	0.025	-0.075
-432.676	-85.769	0.206	-0.064
-431.661	720.673	0.089	-0.237
-430.646	62.899	0.228	-0.228
-429.632	-124.820	0.276	-0.043
-428.617	-118.896	0.140	-0.025
-427.603	138.818	0.121	-0.158
-426.588	480.786	0.191	-0.432
-425.573	165.431	-0.143	-0.202
-424.559	1.764	0.299	-0.215
-423.544	11.733	0.080	0.061
-422.530	258.147	0.207	0.356
-421.515	800.000	0.037	0.126
-420.500	-118.131	0.146	-0.026
-419.486	-200.000	-0.007	0.173
-418.471	-57.446	0.190	-0.083
-417.457	-200.000	-0.006	-0.309
-416.442	-121.343	-0.084	-0.014
-415.428	-138.952	-0.300	0.033
-414.413	-154.724	-0.053	-0.003
-413.398	147.501	0.179	-0.240
-412.384	800.000	0.094	-0.298
-411.369	-47.779	-0.462	0.223
-410.355	-153.574	0.202	-0.014
-409.340	-133.356	-0.244	-0.031
-408.325	-100.316	-0.177	-0.044
-407.311	210.324	-0.098	-0.153
-406.296	405.677	0.089	-0.186
-405.282	-118.494	-0.122	-0.022
-404.267	-88.605	0.255	-0.076
-403.252	-50.304	0.395	0.186
-402.238	-200.000	0.050	-0.464
-401.223	151.894	-0.133	-0.181
-400.209	-126.841	-0.171	-0.025
-399.194	47.638	-0.125	0.117
-398.179	-200.000	0.034	0.346
-397.165	-200.000	0.004	-0.138
-396.150	-64.808	-0.235	-0.095
-395.136	-96.064	0.310	-0.082
-394.121	800.000	0.098	-0.293
-393.106	-40.339	-0.218	-0.113
-392.092	465.298	0.082	-0.184
-391.077	-26.466	-0.211	-0.124
-390.063	-95.367	-0.093	0.025
-389.048	762.260	-0.044	0.119
-388.033	323.359	-0.140	0.265
-387.019	-15.750	-0.081	-0.051
-386.004	-56.035	-0.065	-0.029
-384.990	-200.000	0.000	0.004
-383.975	237.232	0.110	-0.182
-382.960	557.927	0.152	0.365
-381.946	-0.290	0.285	0.202
-380.931	56.903	-0.177	0.171
-379.917	800.000	-0.060	-0.249
-378.902	206.733	0.138	-0.215
-377.888	82.134	-0.088	0.095
-376.873	800.000	-0.077	0.252
-375.858	116.761	-0.103	-0.126
-374.844	-200.000	-0.032	0.248
-373.829	-88.910	-0.272	-0.080
-372.815	-3.314	0.308	0.214
-371.800	-200.000	-0.076	0.351
-370.785	37.550	-0.099	-0.088
-369.771	351.587	-0.042	-0.084
-368.756	-200.000	-0.013	0.160
-367.742	99.475	0.197	-0.227
-366.727	494.958	-0.044	-0.100
-365.712	-200.000	0.003	0.058
-364.698	179.148	-0.167	-0.243
-363.683	98.151	0.086	0.099
-362.669	41.204	0.139	0.125
-361.654	-200.000	0.060	0.308
-360.639	614.402	-0.022	0.055
-359.625	-27.371	-0.219	0.127
-358.610	384.370	-0.140	-0.286
-357.596	443.921	-0.094	-0.204
-356.581	122.339	0.107	-0.132
-355.566	294.740	0.165	-0.301
-354.552	800.000	0.048	0.144
-353.537	-200.000	-0.006	-0.276
-352.523	-153.332	-0.116	-0.008
-351.508	-55.648	-0.109	0.049
-350.493	-97.901	-0.166	-0.043
-349.479	800.000	0.059	0.219
-348.464	-15.113	0.059	0.037
-347.450	181.513	-0.162	0.237
-346.435	350.800	-0.106	-0.208
-345.420	-200.000	-0.028	-0.136
-344.406	32.692	-0.097	-0.083
-343.391	31.409	0.062	0.053
-342.377	-200.000	-0.012	-0.185
-341.362	-118.526	0.046	0.008
-340.348	-200.000	0.016	0.193
-339.333	-134.117	0.508	0.062
-338.318	101.120	0.127	0.147
-337.304	-22.952	0.138	0.083
-336.289	-18.593	0.211	-0.131
-335.275	-100.966	0.197	-0.048
-334.260	168.893	0.064	-0.091
-333.245	26.648	0.063	-0.052
-332.231	-43.954	0.032	0.016
-331.216	-63.520	0.205	0.084
-330.202	-183.019	-0.083	0.001
-329.187	668.351	-0.055	0.140
-328.172	120.345	0.115	-0.141
-327.158	-106.911	0.207	0.046
-326.143	632.013	-0.064	-0.161
-325.129	-85.520	-0.092	0.029
-324.114	-133.233	0.335	0.042
-323.099	-78.307	-0.046	-0.016
-322.085	800.000	-0.039	0.131
-321.070	84.873	-0.081	0.088
-320.056	260.522	0.094	0.162
-319.041	-75.028	-0.095	0.034
-318.026	800.000	0.025	0.090
-317.012	-154.660	-0.491	-0.032
-315.997	231.288	-0.100	0.163
-314.983	-77.368	-0.185	-0.064
-313.968	267.198	0.051	-0.088
-312.953	507.869	0.085	0.197
-311.939	546.411	0.073	-0.173
-310.924	616.783	-0.098	-0.244
-309.910	-200.000	0.003	0.111
-308.895	-200.000	0.016	-0.200
-307.880	-150.461	-0.458	0.035
-306.866	-176.277	0.312	-0.008
-305.851	11.717	0.046	0.035
-304.837	319.221	0.036	-0.068
-303.822	800.000	-0.099	0.350
-302.807	-200.000	0.098	0.470
-301.793	-41.677	-0.158	-0.081
-300.778	800.000	-0.083	0.285
-299.764	736.878	-0.063	0.169
-298.749	-43.817	-0.122	0.061
-297.735	-200.000	-0.014	-0.163
-296.720	161.440	0.182	-0.253
-295.705	-200.000	-0.029	-0.128
-294.691	-89.544	-0.501	0.146
-293.676	800.000	0.059	-0.190
-292.662	11.997	-0.170	-0.130
-291.647	-159.733	0.133	-0.007
-290.632	-200.000	-0.023	-0.276
-289.618	-200.000	0.014	0.070
-288.603	414.993	0.150	0.317
-287.589	269.703	-0.172	0.300
-286.574	-130.435	0.315	0.042
-285.559	76.569	-0.057	-0.060
-284.545	396.669	-0.174	-0.360
-283.530	0.587	-0.140	-0.099
-282.516	198.123	0.103	-0.157
-281.501	15.243	0.092	-0.072
-280.486	170.652	-0.266	0.378
-279.472	-163.610	0.285	0.013
-278.457	126.049	-0.143	0.179
-277.443	-77.464	0.240	-0.082
-276.428	-81.637	0.182	-0.059
-275.413	75.298	-0.171	-0.178
-274.399	-43.841	0.052	-0.026
-273.384	-104.545	-0.226	-0.052
-272.370	-200.000	-0.009	0.228
-271.355	-80.909	0.324	-0.106
-270.340	-45.074	-0.159	0.079
-269.326	198.991	0.133	-0.202
-268.311	-102.977	-0.202	-0.048
-267.297	-102.814	0.162	0.038
-266.282	-121.471	0.215	0.035
-265.267	-110.754	-0.163	0.033
-264.253	-200.000	-0.010	0.394
-263.238	-200.000	0.068	0.351
-262.224	434.792	-0.033	-0.072
-261.209	49.189	0.173	-0.161
-260.195	53.951	0.135	-0.129
-259.180	486.730	0.151	-0.341
-258.165	45.836	-0.057	0.052
-257.151	800.000	0.130	0.455
-256.136	-92.900	-0.278	-0.077
-255.122	-50.279	0.216	-0.101
-254.107	-132.749	-0.161	-0.020
-253.092	-0.396	0.318	-0.224
-252.078	800.000	0.037	0.109
-251.063	306.527	-0.123	0.226
-250.049	800.000	0.184	0.510
-249.034	-109.201	0.198	0.042
-248.019	-151.325	0.160	0.012
-247.005	93.158	0.130	-0.146
-245.990	411.447	-0.130	-0.273
-244.976	800.000	0.086	-0.319
-243.961	97.159	-0.119	0.135
-242.946	-35.159	-0.298	0.161
-241.932	9.763	0.127	0.096
-240.917	-142.603	0.204	-0.020
-239.903	144.459	-0.188	-0.249
-238.888	-107.606	-0.016	0.004
-237.873	138.225	0.189	-0.246
-236.859	-154.351	-0.147	0.010
-235.844	93.867	0.210	0.235
-234.830	-200.000	0.012	0.149
-233.815	-200.000	-0.019	-0.306
-232.800	800.000	0.163	-0.494
-231.786	228.347	0.226	-0.364
-230.771	85.293	0.146	0.159
-229.757	-51.097	0.155	-0.072
-228.742	-171.205	-0.382	0.013
-227.727	175.455	0.103	0.147
-226.713	-96.236	-0.290	-0.076
-225.698	-200.000	-0.463	-0.002
-224.684	-121.783	0.086	-0.014
-223.669	62.195	-0.034	-0.034
-222.655	-200.000	0.007	0.225
-221.640	113.866	0.102	0.123
-220.625	-200.000	-0.018	-0.233
-219.611	-123.100	0.289	-0.046
-218.596	176.346	0.191	-0.274
-217.582	-92.246	0.105	-0.029
-216.567	144.702	0.133	0.176
-215.552	323.905	0.341	0.643
-214.538	800.000	0.020	0.062
-213.523	-200.000	0.006	0.155
-212.509	-119.682	0.397	-0.068
-211.494	106.471	-0.158	0.186
-210.479	-200.000	0.002	-0.055
-209.465	-66.343	-0.268	-0.105
-208.450	-55.590	0.162	0.072
-207.436	-151.700	0.436	-0.032
-206.421	2.357	0.095	0.068
-205.406	-200.000	0.011	-0.047
-204.392	20.579	-0.225	-0.180
-203.377	20.005	-0.081	-0.065
-202.363	-200.000	-0.044	0.359
-201.348	800.000	-0.043	0.123
-200.333	-84.697	-0.224	0.070
-199.319	-200.000	-0.046	0.249
-198.304	800.000	-0.081	-0.233
-197.290	208.653	-0.166	0.257
-196.275	27.798	0.132	0.110
-195.260	177.434	-0.175	-0.252
-194.246	-41.342	0.147	-0.075
-193.231	94.580	-0.058	-0.065
-192.217	-184.577	0.055	0.001
-191.202	-3.550	-0.128	-0.088
-190.187	-200.000	0.043	0.198
-189.173	59.639	0.066	-0.064
-188.158	-132.812	-0.332	-0.042
-187.144	87.235	0.139	-0.152
-186.129	-50.417	-0.159	0.074
-185.114	-27.277	-0.152	-0.088
-184.100	206.053	-0.061	-0.094
-183.085	-131.206	-0.291	-0.038
-182.071	296.791	-0.068	-0.123
-181.056	-52.875	0.209	-0.095
-180.042	-200.000	0.057	-0.298
-179.027	800.000	0.076	-0.268
-178.012	477.387	-0.079	-0.176
-176.998	0.368	0.091	0.064
-175.983	800.000	0.033	0.120
-174.969	116.929	0.168	-0.204
-173.954	-200.000	-0.016	-0.150
-172.939	-88.313	-0.116	-0.034
-171.925	98.989	0.088	0.100
-170.910	-37.624	-0.227	0.120
-169.896	-200.000	0.031	0.281
-168.881	-67.713	0.106	0.041
-167.866	800.000	0.109	-0.382
-166.852	800.000	-0.062	0.266
-165.837	-59.719	-0.162	0.068
-164.823	-200.000	-0.039	0.400
-163.808	78.686	0.203	-0.214
-162.793	-111.507	0.163	0.033
-161.779	245.259	-0.104	-0.172
-160.764	43.497	-0.175	0.158
-159.750	-200.000	0.047	0.318
-158.735	216.529	-0.086	-0.134
-157.720	23.717	0.198	0.161
-156.706	324.333	0.085	0.160
-155.691	-200.000	0.018	0.114
-154.677	-66.150	0.049	-0.019
-153.662	-67.364	-0.084	0.033
-152.647	-200.000	0.008	0.096
-151.633	-43.864	0.091	0.045
-150.618	-200.000	-0.001	-0.191
-149.604	84.384	0.193	-0.209
-148.589	-94.861	0.071	-0.019
-147.574	-200.000	0.038	-0.241
-146.560	-112.255	-0.226	0.045
-145.545	51.252	0.066	0.061
-144.531	-200.000	0.010	-0.097
-143.516	-54.243	-0.393	-0.176
-142.502	800.000	-0.035	0.116
-141.487	800.000	-0.072	-0.234
-140.472	41.219	-0.353	0.315
-139.458	-26.923	0.229	0.132
-138.443	33.239	-0.107	0.092
-137.429	-111.449	0.393	-0.079
-136.414	126.928	-0.207	0.259
-135.399	-200.000	-0.022	0.361
-134.385	-200.000	0.018	0.171
-133.370	-61.634	-0.078	-0.032
-132.356	-200.000	-0.030	-0.232
-131.341	-200.000	0.056	-0.266
-130.326	-75.172	0.233	-0.082
-129.312	29.545	0.051	0.042
-128.297	228.415	-0.129	0.207
-127.283	-29.313	0.348	0.197
-126.268	800.000	-0.070	0.259
-125.253	234.319	-0.106	0.172
-124.239	-200.000	-0.018	0.227
-123.224	690.461	-0.021	-0.055
-122.210	420.801	0.040	0.084
-121.195	74.338	0.154	0.159
-120.180	-200.000	-0.025	-0.128
-119.166	-134.103	-0.121	-0.015
-118.151	-200.000	-0.028	-0.210
-117.137	337.218	-0.102	-0.196
-116.122	-136.441	0.356	-0.041
-115.107	800.000	-0.018	-0.064
-114.093	9.171	0.020	0.015
-113.078	9.246	0.126	-0.094
-112.064	-80.154	0.217	0.072
-111.049	77.499	0.043	0.045
-110.034	800.000	-0.029	-0.092
-109.020	-50.394	0.097	0.045
-108.005	354.368	0.119	-0.233
-106.991	-34.146	-0.285	0.154
-105.976	800.000	-0.006	-0.022
-104.962	-178.223	0.116	-0.003
-103.947	227.993	-0.085	-0.137
-102.932	122.949	0.201	0.248
-101.918	800.000	0.028	0.120
-100.903	95.295	0.220	0.247
-99.889	-83.638	0.229	0.072
-98.874	120.172	-0.162	0.198
-97.859	483.078	-0.073	-0.163
-96.845	45.180	-0.307	0.279
-95.830	-4.876	0.026	0.017
-94.816	218.152	-0.124	-0.195
-93.801	-200.000	0.021	0.163
-92.786	399.402	0.217	0.448
-91.772	15.126	-0.024	-0.019
-90.757	-145.254	0.265	0.024
-89.743	-64.700	0.150	-0.060
-88.728	276.665	-0.052	-0.092
-87.713	454.052	-0.043	0.095
-86.699	780.680	-0.015	-0.040
-85.684	128.353	0.131	-0.165
-84.670	-109.310	0.595	-0.124
-83.655	-61.741	-0.425	0.175
-82.640	37.633	-0.044	-0.038
-81.626	274.877	0.154	-0.269
-80.611	-127.212	-0.342	-0.049
-79.597	-103.530	0.196	0.045
-78.582	-200.000	-0.033	0.145
-77.567	800.000	-0.019	-0.054
-76.553	-20.582	0.047	-0.029
-75.538	-156.032	-0.106	-0.007
-74.524	94.645	-0.069	-0.077
-73.509	-105.717	0.018	-0.004
-72.494	219.850	-0.045	0.071
-71.480	800.000	-0.050	0.163
-70.465	-88.456	-0.177	-0.052
-69.451	319.809	0.115	-0.214
-68.436	-59.869	0.081	0.034
-67.422	-200.000	-0.024	0.109
-66.407	91.178	-0.402	0.444
-65.392	-27.020	0.189	0.109
-64.378	-159.681	0.043	0.002
-63.363	96.959	-0.214	-0.242
-62.349	4.831	-0.099	-0.072
-61.334	13.701	-1.145	-0.875
-60.319	80.836	0.122	0.130
-59.305	764.428	-0.423	-1.129
-58.290	7.934	0.676	0.498
-57.276	667.138	0.578	1.469
-56.261	-200.000	95.082	541.825
-55.246	479.133	1433.152	3192.557
-54.232	147.007	2650.714	3505.459
-53.217	103.174	2346.311	2704.003
-52.203	42.043	1954.284	1743.916
-51.188	36.027	1739.052	1504.979
-50.173	33.245	1694.058	1444.770
-49.159	50.312	1738.874	1615.224
-48.144	51.743	1755.683	1641.831
-47.130	35.600	1716.967	1482.338
-46.115	32.785	1702.492	1448.202
-45.100	32.636	1697.962	1443.149
-44.086	32.706	1694.364	1440.574
-43.071	32.637	1691.926	1437.914
-42.057	32.566	1689.753	1435.474
-41.042	32.637	1687.329	1433.897
-40.027	32.655	1685.782	1432.661
-39.013	32.629	1683.121	1430.146
-37.998	32.583	1681.824	1428.634
-36.984	32.632	1680.768	1428.053
-35.969	32.716	1679.156	1427.260
-34.954	32.758	1677.596	1426.195
-33.940	32.717	1675.715	1424.235
-32.925	32.663	1674.084	1422.381
-31.911	32.777	1672.005	1421.417
-30.896	32.688	1670.841	1419.706
-29.881	32.738	1668.757	1418.251
-28.867	32.771	1666.565	1416.582
-27.852	32.752	1665.758	1415.699
-26.838	32.685	1663.785	1413.459
-25.823	32.728	1662.405	1412.550
-24.809	32.711	1661.159	1411.310
-23.794	32.706	1659.876	1410.127
-22.779	32.818	1657.795	1409.141
-21.765	32.782	1656.599	1407.802
-20.750	32.748	1654.560	1405.756
-19.736	32.762	1653.073	1404.541
-18.721	32.866	1652.086	1404.425
-17.706	32.790	1650.070	1402.085
-16.692	32.741	1648.585	1400.405
-15.677	32.791	1647.176	1399.523
-14.663	32.710	1646.342	1398.161
-13.648	32.757	1644.733	1397.084
-12.633	32.765	1642.933	1395.560
-11.619	32.800	1641.581	1394.617
-10.604	32.772	1639.403	1392.506
-9.590	32.762	1638.649	1391.734
-8.575	32.812	1637.243	1390.852
-7.560	32.800	1635.969	1389.632
-6.546	32.742	1635.117	1388.422
-5.531	32.751	1633.633	1387.175
-4.517	32.725	1632.560	1386.014
-3.502	32.792	1631.710	1385.729
-2.487	32.763	1630.198	1384.180
-1.473	32.724	1618.526	1373.933
-0.458	30.423	1599.529	1341.160
0.556	25.608	1598.678	1304.892
1.571	22.368	1622.754	1300.524
2.586	21.120	1633.400	1299.656
3.600	18.408	1579.023	1236.723
4.615	10.335	1465.969	1093.763
5.629	2.709	1398.902	994.331
6.644	1.198	1389.953	978.143
7.659	1.146	1389.089	977.114
8.673	1.010	1387.984	975.377
9.688	1.056	1385.791	974.042
10.702	0.737	1383.097	970.014
11.717	3.964	1388.095	994.192
12.731	11.582	1399.544	1051.491
13.746	16.497	1406.752	1088.531
14.761	17.443	1406.957	1094.681
15.775	16.835	1404.877	1089.064
16.790	15.852	1402.375	1080.715
17.804	15.045	1399.794	1073.461
18.819	14.704	1398.854	1070.457
19.834	14.356	1397.290	1066.936
20.848	14.119	1396.202	1064.496
21.863	13.906	1394.665	1061.871
22.877	13.752	1393.220	1059.691
23.892	13.628	1392.457	1058.222
24.907	13.605	1391.469	1057.231
25.921	13.647	1391.100	1057.129
26.936	13.614	1389.964	1055.958
27.950	13.703	1388.687	1055.463
28.965	13.822	1387.993	1055.599
29.980	13.808	1386.679	1054.417
30.994	13.954	1385.542	1054.387
32.009	13.959	1384.465	1053.505
33.023	13.956	1383.519	1052.672
34.038	13.876	1382.772	1051.503
35.053	13.693	1381.696	1049.433
36.067	13.822	1380.187	1049.014
37.082	13.914	1378.900	1048.519
38.096	13.828	1378.452	1047.546
39.111	13.765	1377.761	1046.528
40.126	13.718	1376.726	1045.354
41.140	13.746	1375.432	1044.457
42.155	13.675	1375.899	1044.269
43.169	13.767	1374.921	1044.014
44.184	13.639	1374.867	1043.074
45.199	13.769	1374.409	1043.452
46.213	13.802	1373.948	1043.218
47.228	13.755	1373.035	1042.142
48.242	13.721	1372.110	1041.129
49.257	13.816	1370.067	1040.087
50.271	13.782	1368.784	1038.806
51.286	13.761	1367.465	1037.581
52.301	13.765	1366.162	1036.524
53.315	13.812	1364.849	1035.731
54.330	13.733	1364.142	1034.609
55.344	13.706	1363.118	1033.574
56.359	13.774	1361.711	1032.837
57.374	13.630	1360.896	1031.235
58.388	13.686	1360.017	1030.823
59.403	13.629	1359.794	1030.213
60.417	13.635	1358.999	1029.555
61.432	13.591	1358.000	1028.430
62.447	13.613	1357.176	1027.853
63.461	13.597	1355.885	1026.687
64.476	13.532	1354.915	1025.457
65.490	13.697	1353.209	1025.099
66.505	13.610	1351.919	1023.492
67.520	13.725	1350.530	1023.061
68.534	13.673	1349.510	1021.873
69.549	13.730	1348.804	1021.604
70.563	13.660	1347.577	1020.150
71.578	13.534	1346.641	1018.579
72.593	13.620	1345.271	1017.979
73.607	13.580	1344.998	1017.438
74.622	13.550	1343.964	1016.380
75.636	13.594	1343.330	1016.078
76.651	13.591	1342.239	1015.149
77.666	13.505	1341.919	1014.290
78.680	13.574	1341.076	1013.987
79.695	13.594	1340.390	1013.500
80.709	13.642	1339.493	1013.024
81.724	13.666	1338.472	1012.309
82.739	13.640	1337.613	1011.409
83.753	13.711	1336.532	1010.936
84.768	13.700	1335.544	1010.030
85.782	13.837	1334.030	1009.629
86.797	13.778	1332.671	1008.155
87.812	13.701	1331.762	1006.913
88.826	13.726	1330.742	1006.204
89.841	13.745	1329.455	1005.255
90.855	13.826	1328.460	1004.908
91.870	13.798	1327.745	1004.104
92.884	13.805	1326.502	1003.117
93.899	13.764	1326.216	1002.566
94.914	13.933	1324.859	1002.470
95.928	13.907	1324.077	1001.636
96.943	13.776	1323.669	1000.447
97.957	13.886	1322.815	1000.376
98.972	13.870	1321.460	999.169
99.987	13.808	1320.436	997.932
101.001	13.756	1319.209	996.603
102.016	13.780	1318.795	996.344
103.030	13.851	1317.155	995.447
104.045	13.821	1316.784	994.898
105.060	13.792	1315.348	993.551
106.074	13.719	1314.381	992.298
107.089	13.656	1313.400	991.090
108.103	13.609	1311.985	989.655
109.118	13.671	1310.583	988.878
110.133	13.728	1308.974	987.919
111.147	13.695	1307.992	986.890
112.162	13.775	1306.421	986.095
113.176	13.813	1305.142	985.266
114.191	13.770	1304.273	984.272
115.206	13.666	1303.739	983.162
116.220	13.709	1302.229	982.194
117.235	13.827	1300.791	981.719
118.249	13.711	1299.936	980.297
119.264	13.634	1298.867	978.952
120.279	13.782	1297.127	978.428
121.293	13.652	1296.669	977.227
122.308	13.691	1295.112	976.197
123.322	13.711	1294.187	975.534
124.337	13.724	1293.490	974.999
125.352	13.792	1291.501	973.809
126.366	13.830	1290.526	973.213
127.381	13.742	1289.524	971.856
128.395	13.622	1288.847	970.554
129.410	13.732	1287.802	970.328
130.424	13.757	1286.891	969.702
131.439	13.804	1285.544	968.875
132.454	13.864	1284.923	968.672
133.468	13.863	1284.058	967.927
134.483	13.802	1282.972	966.670
135.497	13.843	1281.637	965.813
136.512	13.746	1281.265	964.884
137.527	13.795	1279.335	963.630
138.541	13.724	1278.413	962.442
139.556	13.842	1276.711	961.754
140.570	13.845	1275.767	960.977
141.585	13.938	1273.995	960.094
142.600	13.887	1273.127	959.064
143.614	14.001	1272.230	958.961
144.629	13.941	1271.206	957.759
145.643	13.891	1269.851	956.362
146.658	13.849	1268.604	955.095
147.673	13.930	1267.344	954.532
148.687	13.878	1266.337	953.386
149.702	13.856	1264.890	952.087
150.716	13.719	1263.862	950.446
151.731	13.778	1262.649	949.784
152.746	13.823	1261.378	949.006
153.760	13.782	1259.901	947.573
154.775	13.923	1258.974	947.597
155.789	13.991	1257.411	946.727
156.804	13.916	1256.833	945.782
157.819	13.916	1255.923	945.009
158.833	14.047	1254.878	944.885
159.848	14.105	1253.778	944.304
160.862	14.068	1252.778	943.256
161.877	14.068	1251.386	942.124
162.892	14.027	1250.261	940.966
163.906	13.963	1249.889	940.240
164.921	13.985	1249.048	939.648
165.935	14.051	1248.039	939.176
166.950	13.982	1247.082	937.986
167.964	14.137	1246.523	938.357
168.979	14.025	1245.780	937.079
169.994	13.968	1245.441	936.423
171.008	14.064	1244.389	936.086
172.023	14.036	1243.799	935.403
173.037	14.172	1242.468	935.086
174.052	14.211	1241.436	934.442
175.067	14.139	1240.848	933.517
176.081	13.982	1239.987	931.906
177.096	14.037	1239.227	931.558
178.110	14.042	1237.744	930.388
179.125	14.164	1236.104	929.757
180.140	14.154	1234.806	928.643
181.154	14.192	1234.018	928.178
182.169	14.208	1232.859	927.316
183.183	14.196	1231.560	926.187
184.198	14.202	1230.460	925.311
185.213	14.278	1229.401	924.858
186.227	14.207	1228.386	923.616
187.242	14.287	1227.256	923.130
188.256	14.415	1226.267	923.015
189.271	14.407	1224.626	921.652
190.286	14.286	1224.059	920.478
191.300	14.273	1223.503	919.902
192.315	14.104	1223.135	918.615
193.329	14.320	1221.869	918.773
194.344	14.196	1221.545	917.763
195.359	14.293	1220.743	917.614
196.373	14.384	1220.367	917.753
197.388	14.380	1219.789	917.212
198.402	14.439	1219.292	917.084
199.417	14.548	1218.388	916.920
200.432	14.458	1217.642	915.784
201.446	14.544	1216.578	915.376
202.461	14.634	1215.788	915.195
203.475	14.651	1214.656	914.353
204.490	14.601	1213.884	913.419
205.504	14.562	1212.789	912.298
206.519	14.461	1211.528	910.719
207.534	14.572	1210.185	910.236
208.548	14.557	1209.043	909.214
209.563	14.540	1208.475	908.611
210.577	14.557	1207.399	907.816
211.592	14.659	1206.620	907.705
212.607	14.676	1205.840	907.132
213.621	14.674	1205.100	906.484
214.636	14.571	1204.040	905.043
215.650	14.667	1202.752	904.518
216.665	14.711	1201.942	904.066
217.680	14.807	1201.001	903.799
218.694	14.660	1200.453	902.512
219.709	14.798	1199.341	902.340
220.723	14.816	1198.591	901.793
221.738	14.784	1197.996	901.095
222.753	14.699	1197.262	900.004
223.767	14.793	1196.573	899.914
224.782	14.903	1195.748	899.804
225.796	14.915	1195.272	899.428
226.811	14.987	1194.213	898.939
227.826	14.896	1193.888	898.129
228.840	14.935	1193.078	897.650
229.855	14.866	1192.175	896.519
230.869	14.960	1191.496	896.434
231.884	14.935	1190.298	895.320
232.899	14.859	1189.624	894.328
233.913	14.807	1189.182	893.640
234.928	14.919	1188.057	893.314
235.942	14.894	1187.716	892.842
236.957	14.846	1186.948	891.929
237.972	14.848	1185.692	890.919
238.986	14.905	1185.312	890.854
240.001	15.010	1184.462	890.698
241.015	14.948	1183.629	889.661
242.030	14.902	1183.045	888.900
243.045	14.997	1181.641	888.274
244.059	14.977	1181.447	887.943
245.074	14.940	1180.873	887.235
246.088	15.078	1179.568	886.908
247.103	15.101	1178.960	886.494
248.117	15.199	1178.240	886.393
249.132	15.190	1177.530	885.733
250.147	15.189	1176.851	885.140
251.161	15.252	1175.730	884.546
252.176	15.341	1175.135	884.491
253.190	15.416	1173.713	883.736
254.205	15.361	1173.765	883.409
255.220	15.361	1173.312	882.992
256.234	15.333	1172.550	882.191
257.249	15.285	1171.840	881.328
258.263	15.414	1171.245	881.480
259.278	15.394	1171.030	881.135
260.293	15.486	1170.097	880.839
261.307	15.444	1169.611	880.173
262.322	15.542	1168.686	879.910
263.336	15.471	1168.245	879.130
264.351	15.540	1167.526	878.873
265.366	15.468	1167.186	878.165
266.380	15.545	1166.068	877.645
267.395	15.509	1165.336	876.828
268.409	15.555	1164.272	876.191
269.424	15.537	1164.079	875.876
270.439	15.538	1163.507	875.373
271.453	15.538	1162.609	874.622
272.468	15.437	1161.879	873.467
273.482	15.527	1161.155	873.316
274.497	15.578	1160.404	872.934
275.512	15.608	1159.363	872.233
276.526	15.532	1158.734	871.286
277.541	15.655	1158.000	871.293
278.555	15.712	1157.206	870.917
279.570	15.572	1156.778	869.791
280.585	15.702	1155.894	869.721
281.599	15.807	1154.331	869.011
282.614	15.737	1153.700	868.101
283.628	15.696	1152.860	867.179
284.643	15.700	1152.067	866.528
285.657	15.832	1150.926	866.272
286.672	15.865	1149.859	865.563
287.687	15.750	1149.324	864.491
288.701	15.755	1148.454	863.783
289.716	15.833	1147.562	863.441
290.730	15.785	1146.937	862.647
291.745	15.905	1146.012	862.490
292.760	15.840	1145.703	861.848
293.774	15.942	1144.579	861.447
294.789	15.952	1144.264	861.182
295.803	15.852	1143.978	860.380
296.818	15.950	1143.103	860.149
297.833	16.006	1141.679	859.284
298.847	15.927	1141.176	858.431
299.862	15.993	1140.234	857.978
300.876	15.955	1139.889	857.449
301.891	16.044	1139.199	857.311
302.906	15.994	1138.516	856.467
303.920	16.132	1137.933	856.653
304.935	16.184	1137.346	856.396
305.949	16.222	1136.611	855.961
306.964	16.125	1135.887	854.847
307.979	16.274	1134.512	854.493
308.993	16.274	1134.300	854.260
310.008	16.195	1133.507	853.188
311.022	16.290	1132.541	852.864
312.037	16.286	1131.530	852.006
313.052	16.271	1131.087	851.522
314.066	16.222	1129.889	850.296
315.081	16.236	1129.285	849.836
316.095	16.118	1128.248	848.388
317.110	16.287	1127.412	848.533
318.125	16.291	1126.619	847.880
319.139	16.272	1126.336	847.499
320.154	16.219	1125.740	846.710
321.168	16.184	1125.266	846.100
322.183	16.189	1124.733	845.650
323.197	16.300	1123.918	845.520
324.212	16.266	1123.170	844.712
325.227	16.282	1122.670	844.343
326.241	16.269	1121.782	843.536
327.256	16.352	1121.164	843.411
328.270	16.295	1120.220	842.338
329.285	16.367	1119.061	841.755
330.300	16.299	1118.629	841.013
331.314	16.361	1117.209	840.179
332.329	16.296	1116.461	839.220
333.343	16.400	1115.784	839.155
334.358	16.419	1114.733	838.383
335.373	16.418	1114.009	837.758
336.387	16.499	1113.410	837.640
337.402	16.564	1112.526	837.222
338.416	16.458	1111.924	836.168
339.431	16.456	1111.316	835.629
340.446	16.602	1110.729	835.833
341.460	16.606	1109.760	835.052
342.475	16.581	1109.101	834.355
343.489	16.569	1108.384	833.685
344.504	16.624	1107.217	833.002
345.519	16.642	1106.302	832.331
346.533	16.688	1105.776	832.087
347.548	16.681	1104.446	830.979
348.562	16.739	1103.890	830.769
349.577	16.810	1102.936	830.326
350.592	16.717	1102.656	829.586
351.606	16.762	1101.765	829.064
352.621	16.665	1101.342	828.198
353.635	16.743	1100.424	827.813
354.650	16.764	1099.954	827.493
355.665	16.760	1098.967	826.656
356.679	16.703	1098.327	825.821
357.694	16.755	1097.775	825.589
358.708	16.747	1097.356	825.160
359.723	16.886	1096.728	825.291
360.738	16.781	1095.964	824.133
361.752	16.963	1095.280	824.431
362.767	16.980	1094.604	823.933
363.781	16.941	1093.844	823.100
364.796	16.963	1093.369	822.776
365.810	17.054	1092.750	822.678
366.825	16.981	1092.387	821.980
367.840	16.944	1091.650	821.170
368.854	17.058	1091.148	821.272
369.869	17.181	1090.227	821.100
370.883	17.052	1089.479	819.841
371.898	17.030	1088.754	819.120
372.913	17.023	1088.330	818.690
373.927	17.067	1087.995	818.580
374.942	17.127	1087.180	818.181
375.956	17.156	1086.511	817.746
376.971	17.153	1086.126	817.369
377.986	17.263	1085.055	817.022
379.000	17.283	1084.781	816.838
380.015	17.288	1084.365	816.479
381.029	17.317	1083.374	815.800
382.044	17.413	1082.812	815.762
383.059	17.292	1082.097	814.573
384.073	17.412	1081.243	814.434
385.088	17.330	1080.324	813.276
386.102	17.329	1079.612	812.662
387.117	17.439	1078.644	812.387
388.132	17.422	1077.393	811.290
389.146	17.261	1077.263	810.357
390.161	17.366	1076.023	809.851
391.175	17.380	1075.229	809.247
392.190	17.452	1074.864	809.246
393.205	17.397	1074.356	808.527
394.219	17.410	1073.130	807.595
395.234	17.455	1072.273	807.093
396.248	17.447	1071.343	806.284
397.263	17.476	1070.237	805.520
398.278	17.500	1069.357	804.899
399.292	17.454	1069.059	804.383
400.307	17.411	1068.497	803.688
401.321	17.360	1067.928	802.945
402.336	17.452	1067.130	802.709
403.350	17.442	1066.253	801.930
404.365	17.594	1065.422	801.954
405.380	17.629	1064.609	801.432
406.394	17.643	1064.015	800.981
407.409	17.652	1063.413	800.498
408.423	17.657	1062.515	799.778
409.438	17.651	1062.029	799.311
410.453	17.679	1061.428	798.920
411.467	17.714	1060.528	798.334
412.482	17.774	1059.787	797.987
413.496	17.653	1059.159	796.880
414.511	17.812	1058.517	797.066
415.526	17.773	1058.406	796.733
416.540	17.915	1057.617	796.728
417.555	17.892	1057.052	796.128
418.569	17.898	1056.462	795.637
419.584	17.878	1056.095	795.199
420.599	17.898	1055.684	794.913
421.613	102.248	1319.660	1457.414
422.628	94.319	1358.076	1457.538
