DTS Sentinel unit serial number:	SN413079Multiplexer serial number:	ORYXHardware model number:	OX4-SRSoftware version number:	ORYX F/W v4.00 Oryx Data Collector v3.7.2.0data status	okinstallation	princeton_trtdifferential loss correction	single-endedforward channel	channel 2reverse channel	N/Adate	2019/09/14time	01:39:34forward acquisition time	60.00reverse acquisition time	0.00gamma	496.2192k internal	0.2338k external	0.2338temperature offset calibration	1.0128default loss term (dB/km)	0.3790temperature slope calibration	1.0000multiplexer offset coefficient	1.0000multiplexer slope coefficient	1.0000fibre end	0.00T internal ref (°C)	26.44T ext. ref 1 (°C)	3.20T ext. ref 2 (°C)	21.47length (m)	temperature (°C)	Stokes	anti-Stokes-747.200	-47.434	0.460	0.224
-746.185	-170.040	-0.064	0.002
-745.171	-24.496	-0.221	-0.132
-744.156	-200.000	0.006	-0.096
-743.142	221.375	-0.086	0.138
-742.127	152.073	-0.195	0.268
-741.112	413.962	0.049	-0.104
-740.098	94.035	0.194	0.220
-739.083	53.616	-0.082	-0.078
-738.069	548.719	-0.129	0.309
-737.054	-160.930	-0.124	-0.007
-736.039	32.435	-0.095	0.083
-735.025	411.246	0.140	0.298
-734.010	800.000	0.102	0.305
-732.996	-71.312	0.200	0.075
-731.981	800.000	0.061	-0.249
-730.966	278.578	-0.080	-0.143
-729.952	-199.537	-0.303	-0.002
-728.937	-200.000	-0.003	0.055
-727.923	626.825	0.099	-0.251
-726.908	38.143	-0.034	-0.030
-725.894	-200.000	0.008	-0.084
-724.879	-59.652	0.167	-0.072
-723.864	-200.000	0.016	-0.355
-722.850	164.359	-0.100	-0.141
-721.835	266.996	0.174	-0.305
-720.821	800.000	-0.088	0.316
-719.806	15.704	-0.190	-0.149
-718.791	-30.338	-0.156	-0.089
-717.777	-200.000	0.018	0.115
-716.762	-47.678	0.266	0.129
-715.748	21.397	0.125	-0.102
-714.733	6.069	-0.257	0.191
-713.718	79.378	0.264	0.284
-712.704	-84.749	-0.129	-0.041
-711.689	800.000	-0.108	-0.306
-710.675	214.216	-0.087	-0.138
-709.660	3.883	0.330	0.242
-708.645	96.397	-0.160	-0.184
-707.631	-22.283	-0.314	0.191
-706.616	-200.000	0.036	-0.315
-705.602	-200.000	-0.008	-0.241
-704.587	307.913	-0.110	0.206
-703.572	681.771	0.129	-0.338
-702.558	-83.718	-0.235	0.075
-701.543	-151.036	-0.127	0.010
-700.529	-153.873	-0.236	-0.016
-699.514	-78.494	0.082	-0.028
-698.499	7.563	-0.181	-0.135
-697.485	290.715	-0.074	0.135
-696.470	-35.809	-0.228	0.124
-695.456	800.000	-0.046	0.171
-694.441	152.558	-0.193	0.264
-693.426	-126.232	-0.254	-0.038
-692.412	80.228	-0.243	0.262
-691.397	517.204	-0.105	-0.245
-690.383	256.149	-0.059	-0.101
-689.368	270.672	0.103	-0.182
-688.354	-68.339	-0.380	-0.148
-687.339	800.000	0.047	-0.141
-686.324	-94.057	-0.294	-0.081
-685.310	222.718	0.060	-0.097
-684.295	-82.090	-0.240	-0.078
-683.281	-131.911	0.133	0.017
-682.266	115.236	-0.208	-0.255
-681.251	335.667	0.148	0.288
-680.237	46.442	-0.256	-0.238
-679.222	800.000	0.037	-0.121
-678.208	-200.000	-0.009	-0.051
-677.193	72.187	0.019	0.020
-676.178	757.976	-0.076	-0.205
-675.164	153.980	-0.054	0.074
-674.149	-109.875	0.165	0.035
-673.135	-42.874	0.106	0.054
-672.120	-61.698	-0.118	-0.050
-671.105	680.612	-0.182	0.473
-670.091	-200.000	0.017	0.239
-669.076	49.431	-0.253	0.239
-668.062	-44.597	0.086	-0.043
-667.047	-172.921	-0.065	-0.002
-666.032	-200.000	0.010	0.062
-665.018	197.316	-0.060	-0.092
-664.003	-167.508	0.231	-0.009
-662.989	-117.563	-0.292	-0.053
-661.974	-200.000	0.061	-0.290
-660.959	-200.000	-0.039	-0.422
-659.945	-140.520	-0.064	0.007
-658.930	334.455	0.038	0.074
-657.916	-136.336	0.264	0.031
-656.901	-148.633	-0.170	0.014
-655.886	-200.000	0.020	-0.199
-654.872	78.396	-0.079	0.084
-653.857	-2.487	0.315	-0.220
-652.843	800.000	0.018	-0.069
-651.828	-116.972	-0.531	0.097
-650.814	-62.155	0.202	-0.084
-649.799	-198.496	0.307	0.002
-648.784	-200.000	0.040	-0.313
-647.770	-43.395	0.195	-0.098
-646.755	-200.000	0.014	0.123
-645.741	265.375	-0.127	-0.221
-644.726	562.260	0.035	-0.084
-643.711	272.495	0.078	-0.138
-642.697	373.552	0.144	0.294
-641.682	-54.233	-0.208	0.094
-640.668	-146.286	-0.227	0.020
-639.653	-67.732	0.080	0.031
-638.638	-200.000	-0.028	-0.246
-637.624	-35.662	0.304	-0.165
-636.609	-200.000	0.010	0.289
-635.595	-42.560	0.147	-0.075
-634.580	-200.000	0.018	0.274
-633.565	740.652	-0.069	-0.186
-632.551	-62.098	-0.453	-0.189
-631.536	-7.833	0.059	0.040
-630.522	-200.000	0.024	0.453
-629.507	-3.140	-0.171	-0.119
-628.492	9.655	-0.031	-0.024
-627.478	-92.917	0.365	0.102
-626.463	215.727	0.219	0.348
-625.449	-71.251	-0.082	-0.031
-624.434	103.748	-0.392	0.460
-623.419	-185.491	-0.202	0.003
-622.405	-200.000	0.029	0.255
-621.390	150.822	-0.177	-0.240
-620.376	-95.522	-0.109	-0.029
-619.361	644.904	0.149	0.381
-618.346	-200.000	-0.025	-0.121
-617.332	26.818	0.095	-0.079
-616.317	-38.076	-0.120	0.064
-615.303	-179.325	0.287	0.006
-614.288	-36.582	0.414	0.222
-613.273	-152.257	0.133	0.010
-612.259	800.000	-0.030	-0.110
-611.244	51.985	-0.268	0.255
-610.230	6.167	0.157	-0.116
-609.215	-79.807	-0.221	0.074
-608.201	-200.000	0.016	-0.215
-607.186	361.012	-0.096	-0.192
-606.171	5.515	0.155	-0.114
-605.157	37.536	0.290	-0.257
-604.142	319.765	0.042	-0.080
-603.128	-59.964	-0.426	0.182
-602.113	800.000	-0.073	0.225
-601.098	-70.696	-0.079	0.030
-600.084	-47.431	-0.133	0.065
-599.069	-53.147	-0.201	-0.092
-598.055	27.448	-0.297	-0.249
-597.040	-88.740	-0.356	0.106
-596.025	-200.000	0.004	0.375
-595.011	-19.460	-0.100	-0.062
-593.996	253.090	-0.174	0.295
-592.982	-132.692	-0.171	-0.022
-591.967	-164.056	0.229	0.011
-590.952	550.385	-0.126	0.300
-589.938	96.847	0.418	-0.478
-588.923	104.789	0.238	-0.279
-587.909	173.461	0.211	-0.304
-586.894	-127.228	0.198	-0.029
-585.879	791.136	0.153	-0.420
-584.865	-78.986	0.165	0.056
-583.850	20.336	-0.065	-0.053
-582.836	679.106	0.081	-0.209
-581.821	800.000	0.037	-0.121
-580.806	244.205	-0.062	-0.104
-579.792	591.499	-0.125	-0.309
-578.777	-78.200	0.206	-0.071
-577.763	89.267	0.200	0.222
-576.748	-200.000	-0.012	-0.115
-575.733	-82.745	0.128	-0.041
-574.719	800.000	-0.072	0.201
-573.704	474.965	-0.036	0.081
-572.690	-200.000	0.043	-0.259
-571.675	800.000	0.072	-0.215
-570.661	87.900	-0.230	-0.254
-569.646	800.000	0.021	-0.079
-568.631	44.879	-0.179	0.165
-567.617	26.633	0.146	0.122
-566.602	-200.000	0.037	-0.171
-565.588	-191.653	-0.275	0.003
-564.573	190.676	0.069	-0.103
-563.558	-95.571	0.321	-0.086
-562.544	-200.000	0.027	0.330
-561.529	-197.966	0.116	-0.001
-560.515	-200.000	-0.015	0.088
-559.500	-0.897	0.265	0.187
-558.485	800.000	0.090	-0.254
-557.471	-148.287	0.293	0.024
-556.456	800.000	-0.056	0.185
-555.442	203.913	0.200	0.309
-554.427	-158.085	-0.197	0.012
-553.412	800.000	-0.035	0.152
-552.398	-115.523	-0.738	-0.138
-551.383	-69.448	-0.087	-0.033
-550.369	86.316	0.067	-0.073
-549.354	-20.828	-0.296	0.181
-548.339	-64.084	-0.035	0.014
-547.325	25.269	-0.274	-0.226
-546.310	800.000	0.031	0.119
-545.296	-200.000	-0.001	-0.103
-544.281	800.000	-0.156	-0.463
-543.266	35.523	0.340	-0.297
-542.252	66.270	0.261	-0.264
-541.237	300.982	0.122	-0.224
-540.223	1.166	-0.272	0.194
-539.208	-200.000	0.004	0.017
-538.193	-200.000	0.048	-0.323
-537.179	-200.000	0.056	-0.266
-536.164	365.933	0.133	0.267
-535.150	1.197	0.100	-0.071
-534.135	292.253	0.027	-0.050
-533.121	-149.639	0.460	0.036
-532.106	-65.469	-0.080	0.032
-531.091	266.715	-0.233	-0.404
-530.077	-200.000	0.018	0.267
-529.062	273.691	0.130	-0.229
-528.048	-200.000	0.023	-0.104
-527.033	404.210	0.131	0.274
-526.018	-155.122	0.360	-0.023
-525.004	-89.597	-0.142	0.042
-523.989	-14.942	-0.165	-0.105
-522.975	-157.040	0.287	-0.017
-521.960	390.559	0.118	0.243
-520.945	800.000	-0.027	0.111
-519.931	408.710	-0.052	-0.110
-518.916	292.338	-0.102	-0.184
-517.902	800.000	-0.082	0.232
-516.887	-200.000	-0.000	-0.066
-515.872	-200.000	0.067	-0.306
-514.858	-84.097	0.137	0.043
-513.843	537.388	0.051	0.121
-512.829	800.000	0.106	0.293
-511.814	-101.351	0.117	0.028
-510.799	16.418	-0.200	-0.157
-509.785	72.930	-0.152	-0.158
-508.770	306.081	-0.027	-0.051
-507.756	604.907	-0.091	0.225
-506.741	-200.000	-0.033	-0.200
-505.726	-200.000	-0.049	-0.313
-504.712	729.731	-0.094	0.249
-503.697	-119.013	-0.125	-0.022
-502.683	-171.782	0.125	0.004
-501.668	800.000	-0.072	-0.220
-500.653	11.157	0.202	-0.154
-499.639	-101.764	-0.127	0.031
-498.624	-31.659	-0.079	0.044
-497.610	-113.504	0.040	-0.008
-496.595	-123.507	0.141	-0.022
-495.581	235.960	-0.144	0.237
-494.566	17.430	0.057	-0.045
-493.551	-17.114	-0.225	-0.141
-492.537	-106.428	0.305	0.068
-491.522	-110.073	-0.159	0.033
-490.508	5.640	-0.317	0.233
-489.493	-96.450	0.429	0.113
-488.478	-200.000	0.134	0.001
-487.464	-60.282	0.058	0.024
-486.449	518.783	-0.129	0.299
-485.435	200.782	-0.098	0.149
-484.420	-19.096	-0.273	0.168
-483.405	-198.495	-0.347	-0.002
-482.391	37.673	-0.239	-0.211
-481.376	-102.412	0.242	0.058
-480.362	90.282	0.312	0.346
-479.347	107.121	-0.170	0.200
-478.332	-90.134	0.152	0.044
-477.318	-82.570	0.140	0.045
-476.303	-200.000	0.004	-0.319
-475.289	47.555	0.124	0.115
-474.274	-17.989	-0.131	0.081
-473.259	-200.000	0.054	-0.620
-472.245	232.287	-0.147	0.239
-471.230	-11.316	-0.377	-0.247
-470.216	-200.000	-0.011	-0.154
-469.201	-200.000	-0.007	-0.045
-468.186	-89.021	-0.159	-0.047
-467.172	-200.000	0.013	0.067
-466.157	149.237	-0.229	0.307
-465.143	-151.516	-0.070	0.005
-464.128	-82.772	0.131	0.042
-463.113	-102.289	-0.262	-0.062
-462.099	-156.427	-0.174	-0.011
-461.084	-200.000	0.018	-0.101
-460.070	-52.545	0.064	-0.029
-459.055	463.529	0.129	0.286
-458.040	-119.077	0.184	-0.032
-457.026	-200.000	0.005	-0.169
-456.011	-126.796	0.051	0.007
-454.997	-200.000	-0.008	0.073
-453.982	-80.740	-0.265	0.088
-452.968	86.091	-0.227	-0.248
-451.953	800.000	0.055	0.152
-450.938	-200.000	-0.008	0.191
-449.924	9.459	-0.113	0.085
-448.909	121.415	0.095	0.118
-447.895	800.000	0.051	-0.198
-446.880	-200.000	-0.008	0.189
-445.865	-24.471	0.139	-0.082
-444.851	-200.000	0.002	0.210
-443.836	35.169	-0.176	-0.153
-442.822	173.358	-0.102	0.146
-441.807	-118.665	-0.264	0.046
-440.792	800.000	0.129	0.477
-439.778	170.891	0.065	0.092
-438.763	117.614	0.079	-0.097
-437.749	-200.000	-0.077	0.357
-436.734	800.000	-0.048	0.164
-435.719	336.971	-0.116	-0.224
-434.705	800.000	-0.036	0.135
-433.690	403.915	-0.112	0.234
-432.676	-153.683	0.460	0.031
-431.661	800.000	-0.083	0.241
-430.646	800.000	0.146	0.401
-429.632	-200.000	-0.042	0.233
-428.617	211.517	-0.034	0.053
-427.603	800.000	0.115	0.401
-426.588	800.000	0.053	-0.187
-425.573	-200.000	-0.022	0.324
-424.559	-200.000	0.022	-0.128
-423.544	-11.996	0.301	-0.196
-422.530	376.152	-0.200	-0.405
-421.515	4.122	0.334	-0.242
-420.500	276.272	-0.249	-0.438
-419.486	-200.000	0.032	-0.299
-418.471	-47.474	0.315	0.152
-417.457	-200.000	0.029	0.265
-416.442	-34.958	-0.170	0.092
-415.428	672.253	0.094	-0.242
-414.413	-200.000	0.006	-0.083
-413.398	-175.617	-0.120	-0.003
-412.384	-88.902	-0.256	-0.075
-411.369	31.755	-0.199	-0.169
-410.355	503.547	0.122	-0.280
-409.340	-200.000	-0.041	0.314
-408.325	266.075	-0.137	-0.238
-407.311	-137.091	0.398	-0.045
-406.296	-14.175	0.163	-0.104
-405.282	-89.073	0.486	0.142
-404.267	9.569	-0.036	-0.027
-403.252	-51.037	-0.143	-0.066
-402.238	-34.899	0.263	0.142
-401.223	-3.000	0.222	0.153
-400.209	404.984	-0.113	0.236
-399.194	-4.415	-0.220	-0.150
-398.179	444.034	-0.161	0.350
-397.165	160.806	-0.220	0.305
-396.150	703.739	0.059	0.153
-395.136	-177.855	-0.445	0.011
-394.121	-200.000	0.035	-0.154
-393.106	-91.710	0.147	0.041
-392.092	72.078	-0.162	0.167
-391.077	49.021	-0.193	0.180
-390.063	-75.185	-0.115	-0.041
-389.048	-48.353	-0.167	-0.080
-388.033	-183.739	0.248	-0.004
-387.019	132.939	-0.233	0.298
-386.004	99.900	-0.217	-0.249
-384.990	282.721	0.013	0.024
-383.975	119.255	0.026	0.032
-382.960	-200.000	-0.076	0.477
-381.946	-105.826	0.295	-0.066
-380.931	-74.273	0.108	0.039
-379.917	800.000	0.048	0.176
-378.902	-27.572	0.250	-0.144
-377.888	-107.510	-0.121	0.026
-376.873	800.000	0.063	0.203
-375.858	-75.915	0.091	0.032
-374.844	-200.000	-0.010	-0.307
-373.829	800.000	0.039	0.135
-372.815	213.417	-0.214	-0.334
-371.800	-8.644	0.166	-0.110
-370.785	-134.919	-0.397	-0.048
-369.771	198.441	0.097	-0.147
-368.756	-193.219	0.193	0.002
-367.742	-52.861	0.292	-0.133
-366.727	-97.851	-0.090	-0.023
-365.712	800.000	-0.130	0.384
-364.698	196.573	0.224	-0.338
-363.683	30.195	-0.167	-0.141
-362.669	389.922	-0.108	-0.222
-361.654	-200.000	-0.025	0.340
-360.639	61.636	0.335	-0.330
-359.625	-102.161	-0.182	-0.043
-358.610	800.000	0.040	0.146
-357.596	800.000	0.047	0.198
-356.581	347.821	0.120	-0.234
-355.566	800.000	-0.095	0.379
-354.552	399.447	0.131	-0.272
-353.537	-200.000	-0.051	-0.230
-352.523	-35.348	-0.449	0.241
-351.508	650.611	0.115	0.290
-350.493	4.303	0.241	0.174
-349.479	-71.120	-0.248	0.092
-348.464	-200.000	-0.005	0.151
-347.450	341.425	0.190	0.366
-346.435	298.508	0.099	0.179
-345.420	-200.000	-0.024	-0.165
-344.406	-104.524	0.287	-0.065
-343.391	417.114	-0.064	0.136
-342.377	169.539	-0.118	-0.166
-341.362	-2.107	0.275	0.191
-340.348	-97.070	0.313	0.081
-339.333	634.898	-0.020	0.050
-338.318	-12.296	0.335	-0.216
-337.304	759.760	-0.062	-0.167
-336.289	-169.306	-0.230	0.008
-335.275	-61.224	0.256	-0.107
-334.260	-200.000	0.035	-0.312
-333.245	614.285	0.061	-0.152
-332.231	800.000	-0.067	0.198
-331.216	800.000	0.084	0.294
-330.202	-193.832	-0.118	-0.001
-329.187	-19.044	-0.302	0.185
-328.172	1.814	0.138	-0.098
-327.158	-0.067	-0.331	-0.233
-326.143	800.000	-0.055	0.150
-325.129	133.919	0.216	0.277
-324.114	800.000	0.063	-0.201
-323.099	-94.437	0.369	-0.099
-322.085	-37.192	0.194	-0.102
-321.070	800.000	-0.084	-0.229
-320.056	10.321	0.180	0.135
-319.041	-200.000	0.011	-0.149
-318.026	-20.965	-0.167	0.101
-317.012	-56.511	-0.074	-0.032
-315.997	217.490	-0.072	-0.113
-314.983	3.244	-0.152	-0.109
-313.968	310.542	-0.037	0.068
-312.953	210.470	-0.146	-0.226
-311.939	-200.000	0.019	-0.110
-310.924	-200.000	0.040	0.201
-309.910	-108.569	0.230	-0.049
-308.895	-200.000	-0.075	-0.626
-307.880	-200.000	0.081	-0.428
-306.866	-200.000	-0.026	0.156
-305.851	800.000	0.019	0.052
-304.837	800.000	-0.041	-0.140
-303.822	-200.000	0.004	-0.192
-302.807	162.036	-0.180	0.249
-301.793	-92.418	-0.250	0.069
-300.778	85.832	0.184	0.200
-299.764	246.386	0.093	0.155
-298.749	-73.212	-0.177	-0.064
-297.735	167.576	0.193	0.270
-296.720	-175.504	0.239	-0.006
-295.705	-65.359	-0.327	0.130
-294.691	800.000	0.027	0.112
-293.676	800.000	-0.079	0.278
-292.662	-30.375	0.163	0.091
-291.647	12.999	-0.180	-0.138
-290.632	-0.166	0.161	0.113
-289.618	800.000	-0.040	-0.143
-288.603	-1.420	0.104	-0.072
-287.589	-109.244	-0.214	0.045
-286.574	-37.801	0.279	-0.146
-285.559	9.339	-0.374	0.279
-284.545	-131.063	0.178	0.023
-283.530	79.636	-0.149	0.157
-282.516	-120.938	0.190	0.032
-281.501	-31.321	0.211	-0.117
-280.486	166.246	-0.082	0.115
-279.472	-121.738	-0.224	0.037
-278.457	540.644	0.084	-0.196
-277.443	-173.424	-0.312	-0.009
-276.428	597.089	-0.036	0.087
-275.413	346.491	-0.070	0.135
-274.399	-48.724	0.157	-0.074
-273.384	789.990	0.076	0.206
-272.370	229.106	-0.106	0.170
-271.355	-141.596	-0.105	-0.010
-270.340	73.796	-0.263	0.272
-269.326	74.480	-0.238	0.247
-268.311	-200.000	-0.013	0.330
-267.297	-93.833	-0.181	-0.049
-266.282	631.467	0.091	-0.226
-265.267	-40.791	-0.322	0.164
-264.253	244.438	0.204	0.337
-263.238	-97.535	0.452	-0.116
-262.224	-25.095	-0.148	0.086
-261.209	45.970	0.217	0.197
-260.195	92.734	0.111	-0.124
-259.180	227.334	-0.164	-0.262
-258.165	800.000	0.111	-0.306
-257.151	212.045	-0.021	-0.033
-256.136	124.709	0.160	-0.198
-255.122	-200.000	0.050	-0.468
-254.107	-121.079	0.111	-0.018
-253.092	62.108	0.207	-0.203
-252.078	-137.891	-0.118	0.013
-251.063	-128.819	-0.147	-0.020
-250.049	1.109	-0.248	0.175
-249.034	321.560	-0.103	0.194
-248.019	-98.262	-0.145	-0.037
-247.005	-178.978	-0.043	0.001
-245.990	-111.364	-0.241	0.048
-244.976	15.523	-0.108	-0.084
-243.961	-24.552	0.173	-0.101
-242.946	6.799	0.056	0.041
-241.932	174.393	-0.169	-0.241
-240.917	491.174	-0.060	-0.135
-239.903	-200.000	0.072	0.327
-238.888	174.653	0.143	0.204
-237.873	-65.188	0.191	0.076
-236.859	800.000	0.048	0.158
-235.844	800.000	0.049	-0.169
-234.830	800.000	-0.022	0.061
-233.815	207.326	-0.092	0.141
-232.800	-92.426	0.076	0.021
-231.786	2.103	0.210	-0.149
-230.771	753.427	-0.098	-0.260
-229.757	-40.148	0.247	-0.126
-228.742	465.157	-0.075	-0.165
-227.727	34.835	-0.085	-0.073
-226.713	98.290	0.181	-0.206
-225.698	-81.704	0.121	0.039
-224.684	-94.915	-0.067	0.018
-223.669	-48.616	-0.247	0.117
-222.655	-86.442	-0.279	-0.084
-221.640	-42.233	0.157	0.079
-220.625	-200.000	-0.012	0.160
-219.611	235.012	-0.028	-0.046
-218.596	-84.986	-0.162	-0.050
-217.582	101.840	0.094	-0.107
-216.567	250.163	-0.071	-0.119
-215.552	-117.829	-0.060	-0.011
-214.538	-77.250	-0.209	0.072
-213.523	-16.686	0.325	0.202
-212.509	800.000	0.056	0.188
-211.494	586.601	-0.048	-0.115
-210.479	-200.000	0.018	-0.275
-209.465	-178.947	0.165	0.004
-208.450	-106.378	0.108	0.024
-207.436	355.700	0.154	-0.301
-206.421	-0.939	-0.232	0.161
-205.406	40.806	-0.257	0.228
-204.392	-121.924	0.303	0.049
-203.377	196.643	-0.194	0.290
-202.363	-68.013	-0.242	-0.093
-201.348	800.000	0.067	0.190
-200.333	-147.025	0.452	0.038
-199.319	-78.047	0.137	0.046
-198.304	-133.693	-0.228	-0.028
-197.290	-136.949	-0.407	-0.046
-196.275	362.734	0.135	-0.266
-195.260	-165.966	-0.202	-0.008
-194.246	-29.031	-0.097	-0.055
-193.231	191.928	0.057	0.084
-192.217	-181.667	0.114	-0.002
-191.202	228.828	-0.111	0.178
-190.187	438.938	-0.092	-0.198
-189.173	-82.144	-0.272	-0.087
-188.158	320.403	-0.091	-0.169
-187.144	-52.867	0.148	-0.067
-186.129	800.000	-0.057	0.158
-185.114	800.000	0.029	-0.118
-184.100	-56.935	-0.173	-0.075
-183.085	31.443	0.346	-0.292
-182.071	-200.000	-0.032	-0.297
-181.056	-101.009	-0.055	0.013
-180.042	63.775	0.081	0.080
-179.027	184.950	0.190	-0.277
-178.012	-49.035	0.004	-0.002
-176.998	92.078	-0.218	-0.241
-175.983	-200.000	-0.012	-0.121
-174.969	-182.507	-0.372	-0.007
-173.954	249.631	0.103	-0.171
-172.939	-108.148	0.217	-0.046
-171.925	-111.244	-0.138	-0.028
-170.910	-14.609	-0.070	-0.044
-169.896	391.791	0.030	-0.062
-168.881	-52.090	-0.244	0.111
-167.866	-74.409	0.122	-0.043
-166.852	-200.000	0.021	-0.266
-165.837	-129.070	0.067	-0.009
-164.823	396.406	0.146	0.298
-163.808	800.000	-0.071	-0.239
-162.793	117.631	0.158	0.190
-161.779	-162.523	0.088	-0.004
-160.764	32.027	0.265	0.224
-159.750	458.132	-0.059	-0.128
-158.735	598.426	0.067	-0.164
-157.720	-200.000	0.022	0.337
-156.706	-200.000	-0.001	0.137
-155.691	-59.700	0.075	-0.032
-154.677	693.352	-0.107	-0.276
-153.662	-200.000	-0.033	0.270
-152.647	112.609	0.170	0.202
-151.633	-83.784	-0.070	-0.022
-150.618	202.271	-0.021	-0.032
-149.604	660.451	-0.068	0.173
-148.589	-149.286	-0.244	0.019
-147.574	800.000	0.066	-0.216
-146.560	495.926	-0.040	-0.091
-145.545	-128.830	-0.171	0.024
-144.531	251.221	0.110	-0.183
-143.516	595.937	0.028	-0.069
-142.502	-200.000	0.014	-0.188
-141.487	286.707	0.058	-0.102
-140.472	-200.000	-0.002	-0.202
-139.458	-96.101	-0.218	0.057
-138.443	117.306	0.121	0.146
-137.429	-98.487	0.382	0.096
-136.414	75.589	0.207	-0.214
-135.399	-53.401	-0.080	0.036
-134.385	-200.000	0.010	-0.291
-133.370	-58.672	0.276	0.117
-132.356	-200.000	0.008	0.396
-131.341	356.968	0.138	0.269
-130.326	627.319	0.157	0.389
-129.312	2.840	0.138	-0.098
-128.297	-200.000	0.037	0.177
-127.283	-53.080	0.105	-0.047
-126.268	130.231	-0.184	0.231
-125.253	-92.394	0.387	0.107
-124.239	7.467	0.177	-0.129
-123.224	-153.868	-0.171	0.011
-122.210	201.912	0.127	0.192
-121.195	248.796	0.088	-0.146
-120.180	-168.263	0.050	0.002
-119.166	292.961	0.122	0.217
-118.151	-162.895	0.169	-0.008
-117.137	-3.662	0.285	-0.194
-116.122	800.000	-0.066	0.219
-115.107	-41.506	0.377	0.190
-114.093	-38.857	-0.064	-0.033
-113.078	-200.000	0.000	0.003
-112.064	-51.587	0.107	-0.049
-111.049	65.035	0.128	0.127
-110.034	142.941	-0.140	-0.182
-109.020	-11.051	-0.031	0.020
-108.005	-101.314	-0.213	-0.051
-106.991	121.294	0.105	0.128
-105.976	-132.788	0.302	-0.038
-104.962	575.850	-0.109	-0.260
-103.947	800.000	-0.078	-0.219
-102.932	17.172	0.398	-0.309
-101.918	-200.000	-0.032	0.160
-100.903	-200.000	0.039	0.192
-99.889	-9.724	0.212	0.138
-98.874	202.421	0.105	-0.158
-97.859	39.608	0.246	0.216
-96.845	-200.000	-0.005	-0.022
-95.830	5.305	-0.282	0.204
-94.816	800.000	0.059	0.243
-93.801	800.000	-0.048	-0.144
-92.786	800.000	0.029	-0.091
-91.772	331.634	-0.125	0.236
-90.757	-173.040	-0.307	0.009
-89.743	-200.000	-0.025	-0.229
-88.728	-200.000	-0.008	0.056
-87.713	-108.601	-0.258	-0.054
-86.699	119.703	-0.160	0.194
-85.684	566.866	0.014	0.033
-84.670	58.862	0.133	0.127
-83.655	-200.000	0.072	0.336
-82.640	-66.927	0.197	0.076
-81.626	-179.175	-0.162	0.004
-80.611	-32.959	0.238	-0.129
-79.597	542.758	-0.083	0.194
-78.582	-200.000	0.017	0.127
-77.567	211.313	-0.122	0.187
-76.553	-140.456	0.192	-0.020
-75.538	16.271	-0.099	-0.077
-74.524	-95.100	0.204	0.054
-73.509	-200.000	-0.020	0.145
-72.494	-200.000	-0.008	0.232
-71.480	800.000	-0.072	-0.277
-70.465	800.000	-0.029	0.094
-69.451	579.338	-0.094	0.224
-68.436	141.059	-0.129	0.167
-67.422	-60.543	-0.136	-0.057
-66.407	-120.612	-0.063	0.010
-65.392	69.353	-0.083	0.084
-64.378	-200.000	-0.005	-0.206
-63.363	-131.210	-0.236	-0.031
-62.349	800.000	0.104	-0.284
-61.334	68.951	-1.074	-1.079
-60.319	119.168	0.601	0.727
-59.305	800.000	-0.378	-1.246
-58.290	800.000	0.382	1.144
-57.276	800.000	0.493	1.616
-56.261	-200.000	115.937	644.391
-55.246	502.588	1540.219	3477.546
-54.232	174.137	2721.249	3840.986
-53.217	98.545	2295.780	2585.839
-52.203	35.447	1902.988	1631.333
-51.188	29.527	1696.043	1408.860
-50.173	27.179	1654.729	1356.980
-49.159	47.345	1712.474	1558.132
-48.144	45.977	1725.206	1559.271
-47.130	29.090	1683.442	1394.858
-46.115	26.467	1668.939	1363.052
-45.100	26.369	1663.821	1358.087
-44.086	26.359	1661.371	1355.959
-43.071	26.376	1658.476	1353.669
-42.057	26.306	1656.468	1351.449
-41.042	26.355	1654.268	1349.969
-40.027	26.351	1651.910	1347.959
-39.013	26.296	1650.390	1346.255
-37.998	26.258	1648.922	1344.726
-36.984	26.262	1647.817	1343.795
-35.969	26.401	1646.339	1343.574
-34.954	26.420	1644.392	1342.069
-33.940	26.447	1642.425	1340.614
-32.925	26.399	1640.948	1339.000
-31.911	26.443	1639.290	1337.916
-30.896	26.413	1637.619	1336.277
-29.881	26.403	1636.130	1334.937
-28.867	26.487	1634.769	1334.391
-27.852	26.478	1633.260	1333.040
-26.838	26.363	1631.544	1330.742
-25.823	26.563	1629.985	1330.888
-24.809	26.414	1628.859	1328.823
-23.794	26.403	1627.982	1327.970
-22.779	26.501	1625.960	1326.993
-21.765	26.487	1624.318	1325.492
-20.750	26.393	1622.888	1323.584
-19.736	26.375	1621.922	1322.615
-18.721	26.467	1619.890	1321.574
-17.706	26.539	1618.408	1320.842
-16.692	26.454	1616.647	1318.733
-15.677	26.475	1615.202	1317.653
-14.663	26.430	1614.545	1316.739
-13.648	26.528	1612.672	1315.873
-12.633	26.482	1611.008	1314.127
-11.619	26.431	1609.860	1312.766
-10.604	26.438	1607.975	1311.228
-9.590	26.580	1606.374	1310.898
-8.575	26.526	1605.442	1309.697
-7.560	26.492	1604.159	1308.351
-6.546	26.489	1603.416	1307.673
-5.531	26.573	1601.521	1306.680
-4.517	26.509	1600.452	1305.293
-3.502	26.518	1599.371	1304.431
-2.487	26.537	1597.708	1303.157
-1.473	26.256	1585.826	1291.407
-0.458	23.539	1566.982	1256.792
0.556	20.925	1568.903	1225.970
1.571	18.673	1592.878	1228.493
2.586	18.279	1605.185	1235.028
3.600	16.192	1550.014	1177.923
4.615	9.480	1442.085	1052.068
5.629	4.068	1383.161	974.993
6.644	3.253	1376.277	964.951
7.659	3.103	1374.688	962.810
8.673	3.148	1374.015	962.533
9.688	3.286	1371.768	961.740
10.702	3.206	1369.104	959.285
11.717	5.728	1373.429	977.984
12.731	13.075	1386.464	1033.313
13.746	18.927	1396.944	1077.828
14.761	20.326	1397.794	1087.159
15.775	19.798	1395.866	1082.256
16.790	18.835	1393.247	1074.112
17.804	17.988	1391.237	1067.182
18.819	17.570	1390.059	1063.569
19.834	17.489	1389.000	1062.165
20.848	17.318	1388.034	1060.265
21.863	17.104	1386.641	1057.771
22.877	17.005	1385.376	1056.099
23.892	17.011	1384.051	1055.031
24.907	16.966	1383.485	1054.224
25.921	17.105	1382.220	1054.034
26.936	16.912	1381.678	1052.326
27.950	16.973	1380.796	1051.942
28.965	17.043	1380.302	1051.908
29.980	17.269	1378.322	1051.703
30.994	17.278	1377.726	1051.211
32.009	17.382	1376.277	1050.654
33.023	17.318	1375.632	1049.674
34.038	17.187	1373.864	1047.426
35.053	17.159	1372.792	1046.345
36.067	17.072	1371.906	1045.040
37.082	17.132	1370.703	1044.399
38.096	17.126	1369.789	1043.571
39.111	17.230	1369.220	1043.686
40.126	17.126	1367.894	1041.946
41.140	16.863	1367.007	1039.562
42.155	16.791	1366.472	1038.626
43.169	16.683	1366.866	1038.170
44.184	16.689	1366.179	1037.595
45.199	16.872	1365.096	1037.796
46.213	16.844	1365.182	1037.601
47.228	17.088	1363.588	1037.791
48.242	17.068	1362.752	1036.941
49.257	17.101	1361.236	1035.893
50.271	17.019	1359.591	1034.053
51.286	16.976	1358.811	1033.106
52.301	17.147	1356.979	1032.658
53.315	16.870	1356.470	1030.498
54.330	16.765	1355.674	1029.168
55.344	16.829	1353.897	1028.115
56.359	16.854	1352.849	1027.376
57.374	16.828	1351.949	1026.444
58.388	16.775	1350.934	1025.265
59.403	16.669	1350.888	1024.498
60.417	16.732	1349.903	1024.037
61.432	16.670	1349.108	1022.971
62.447	16.572	1348.068	1021.501
63.461	16.495	1346.770	1019.960
64.476	16.478	1345.876	1019.093
65.490	16.534	1344.631	1018.395
66.505	16.516	1343.072	1017.020
67.520	16.634	1341.558	1016.489
68.534	16.669	1340.541	1015.839
69.549	16.634	1339.690	1014.896
70.563	16.569	1338.802	1013.741
71.578	16.511	1337.641	1012.428
72.593	16.457	1336.539	1011.183
73.607	16.414	1335.956	1010.392
74.622	16.413	1335.206	1009.732
75.636	16.539	1334.326	1009.729
76.651	16.519	1333.764	1009.094
77.666	16.574	1333.013	1008.764
78.680	16.569	1333.016	1008.646
79.695	16.503	1332.224	1007.564
80.709	16.575	1331.409	1007.287
81.724	16.795	1330.718	1007.988
82.739	16.839	1329.650	1007.349
83.753	16.872	1329.103	1007.043
84.768	17.166	1327.578	1007.543
85.782	17.208	1326.603	1006.960
86.797	17.116	1325.838	1005.747
87.812	16.927	1324.695	1003.669
88.826	17.004	1323.364	1003.028
89.841	17.098	1322.067	1002.511
90.855	17.198	1321.276	1002.415
91.870	17.215	1320.156	1001.579
92.884	17.160	1319.468	1000.642
93.899	17.343	1318.194	1000.665
94.914	17.377	1317.650	1000.361
95.928	17.285	1316.795	999.087
96.943	17.231	1315.893	997.991
97.957	17.142	1315.461	997.057
98.972	17.184	1314.121	996.200
99.987	17.163	1313.199	995.288
101.001	17.106	1312.267	994.161
102.016	17.259	1310.599	993.706
103.030	17.243	1310.108	993.149
104.045	17.165	1309.021	991.783
105.060	17.107	1307.547	990.241
106.074	16.868	1306.333	987.842
107.089	16.672	1304.945	985.563
108.103	16.632	1303.476	984.131
109.118	16.655	1302.158	983.182
110.133	16.603	1301.280	982.129
111.147	16.679	1299.825	981.390
112.162	16.749	1297.873	980.233
113.176	16.760	1297.345	979.809
114.191	16.822	1296.316	979.302
115.206	16.815	1295.549	978.598
116.220	16.751	1293.981	976.957
117.235	16.783	1293.331	976.563
118.249	16.757	1291.742	975.130
119.264	16.575	1291.066	973.486
120.279	16.647	1289.701	972.787
121.293	16.580	1288.959	971.753
122.308	16.605	1287.422	970.649
123.322	16.462	1286.609	969.134
124.337	16.496	1285.144	968.142
125.352	16.526	1284.082	967.424
126.366	16.512	1283.214	966.606
127.381	16.470	1282.290	965.585
128.395	16.547	1281.309	965.199
129.410	16.474	1280.699	964.236
130.424	16.566	1279.926	964.094
131.439	16.773	1278.776	964.322
132.454	16.606	1278.397	962.998
133.468	16.668	1277.704	962.748
134.483	16.835	1276.353	962.592
135.497	16.774	1275.309	961.372
136.512	16.777	1274.073	960.371
137.527	16.819	1272.632	959.440
138.541	16.786	1271.529	958.336
139.556	16.910	1270.014	957.812
140.570	16.979	1269.409	957.660
141.585	17.091	1268.153	957.260
142.600	17.060	1267.226	956.300
143.614	17.163	1266.050	955.909
144.629	17.201	1265.174	955.373
145.643	17.127	1263.926	953.932
146.658	16.996	1262.835	952.287
147.673	17.034	1261.115	951.122
148.687	16.959	1259.867	949.678
149.702	16.793	1258.643	947.739
150.716	16.851	1257.714	947.281
151.731	16.790	1256.783	946.157
152.746	16.843	1255.268	945.227
153.760	16.942	1254.296	944.965
154.775	16.997	1253.067	944.259
155.789	17.084	1252.050	943.891
156.804	17.141	1251.516	943.723
157.819	17.124	1250.123	942.496
158.833	17.270	1249.468	942.728
159.848	17.328	1248.731	942.409
160.862	17.234	1247.745	941.063
161.877	17.097	1246.408	939.213
162.892	16.938	1244.959	937.160
163.906	16.946	1244.089	936.466
164.921	16.897	1243.379	935.580
165.935	16.925	1242.581	935.051
166.950	17.044	1241.910	935.119
167.964	17.039	1240.860	934.219
168.979	17.002	1240.378	933.566
169.994	17.092	1239.351	933.205
171.008	17.135	1238.251	932.530
172.023	17.187	1237.696	932.318
173.037	17.319	1237.371	932.712
174.052	17.148	1236.524	931.053
175.067	16.955	1235.435	929.096
176.081	17.055	1233.975	928.462
177.096	16.898	1232.977	926.773
178.110	16.947	1231.978	926.205
179.125	17.053	1231.059	926.009
180.140	17.007	1230.130	924.982
181.154	17.129	1228.884	924.623
182.169	17.224	1227.603	924.096
183.183	17.416	1226.418	924.165
184.198	17.394	1225.110	922.982
185.213	17.389	1223.846	921.919
186.227	17.432	1223.125	921.525
187.242	17.407	1222.055	920.502
188.256	17.419	1221.903	920.371
189.271	17.456	1220.576	919.491
190.286	17.323	1218.914	917.439
191.300	16.973	1217.799	914.635
192.315	16.973	1217.177	914.087
193.329	16.862	1216.987	913.266
194.344	17.021	1216.261	913.495
195.359	17.101	1215.909	913.578
196.373	17.172	1215.195	913.345
197.388	17.277	1214.762	913.499
198.402	17.504	1214.456	914.409
199.417	17.618	1213.689	914.361
200.432	17.750	1212.775	914.300
201.446	17.684	1212.457	913.626
202.461	17.816	1211.033	913.179
203.475	17.733	1210.622	912.344
204.490	17.632	1208.562	910.170
205.504	17.525	1207.161	908.468
206.519	17.533	1206.397	907.851
207.534	17.387	1205.078	906.002
208.548	17.555	1204.219	906.170
209.563	17.568	1203.506	905.624
210.577	17.555	1202.887	905.008
211.592	17.491	1202.170	904.052
212.607	17.726	1201.384	904.623
213.621	17.700	1200.189	903.509
214.636	17.556	1199.649	902.257
215.650	17.705	1198.434	902.055
216.665	17.823	1197.117	901.605
217.680	17.903	1196.813	901.719
218.694	17.942	1196.032	901.256
219.709	17.852	1195.268	900.128
220.723	17.831	1194.383	899.270
221.738	17.785	1193.469	898.261
222.753	17.904	1192.866	898.354
223.767	17.810	1192.511	897.514
224.782	17.993	1191.307	897.487
225.796	18.135	1191.087	897.988
226.811	18.045	1190.149	896.728
227.826	17.829	1189.772	895.235
228.840	17.859	1188.383	894.268
229.855	17.835	1188.095	893.845
230.869	17.849	1187.165	893.139
231.884	17.804	1186.063	891.995
232.899	17.808	1185.413	891.447
233.913	17.676	1185.036	890.398
234.928	17.638	1183.953	889.305
235.942	17.653	1183.253	888.779
236.957	17.656	1181.940	887.733
237.972	17.597	1181.588	887.080
238.986	17.603	1181.143	886.699
240.001	17.722	1180.251	886.568
241.015	17.758	1179.557	886.155
242.030	17.800	1178.823	885.746
243.045	17.894	1177.916	885.471
244.059	17.845	1177.403	884.757
245.074	17.938	1176.417	884.418
246.088	17.932	1175.671	883.748
247.103	18.149	1174.616	883.996
248.117	18.169	1174.094	883.631
249.132	18.248	1173.712	883.671
250.147	18.454	1173.122	884.211
251.161	18.465	1172.620	883.812
252.176	18.450	1171.829	883.060
253.190	18.619	1171.021	883.246
254.205	18.669	1170.467	883.007
255.220	18.635	1170.105	882.481
256.234	18.586	1169.318	881.557
257.249	18.596	1168.764	881.111
258.263	18.651	1167.608	880.442
259.278	18.554	1167.404	879.715
260.293	18.646	1166.763	879.628
261.307	18.695	1166.102	879.303
262.322	18.747	1165.504	879.039
263.336	18.809	1164.668	878.648
264.351	18.776	1164.227	878.070
265.366	18.826	1163.201	877.474
266.380	18.791	1162.657	876.805
267.395	18.716	1161.995	875.843
268.409	18.594	1161.029	874.420
269.424	18.619	1160.847	874.332
270.439	18.657	1159.611	873.514
271.453	18.661	1159.006	873.003
272.468	18.540	1158.145	871.662
273.482	18.470	1157.395	870.667
274.497	18.627	1156.392	870.631
275.512	18.671	1156.002	870.482
276.526	18.685	1155.137	869.825
277.541	18.446	1155.051	868.471
278.555	18.647	1154.117	868.710
279.570	18.783	1153.335	868.731
280.585	18.840	1152.536	868.343
281.599	18.816	1151.751	867.557
282.614	18.858	1150.428	866.692
283.628	18.778	1148.974	865.120
284.643	18.752	1148.570	864.604
285.657	18.769	1147.632	863.908
286.672	18.680	1146.926	862.854
287.687	18.816	1145.765	862.586
288.701	18.925	1145.100	862.555
289.716	18.825	1143.988	861.141
290.730	18.820	1143.375	860.581
291.745	18.831	1143.297	860.498
292.760	18.917	1142.503	860.256
293.774	18.892	1141.896	859.599
294.789	18.935	1141.641	859.546
295.803	18.942	1140.996	859.017
296.818	18.892	1139.804	857.792
297.833	18.950	1138.824	857.268
298.847	18.793	1138.692	856.312
299.862	18.853	1137.680	855.776
300.876	18.971	1136.986	855.766
301.891	19.028	1136.228	855.404
302.906	19.147	1135.431	855.315
303.920	19.197	1134.887	855.080
304.935	19.162	1134.344	854.421
305.949	19.331	1133.703	854.698
306.964	19.368	1133.083	854.343
307.979	19.196	1132.284	852.813
308.993	19.130	1131.513	851.827
310.008	19.335	1130.548	852.039
311.022	19.230	1130.117	851.120
312.037	19.336	1129.002	850.730
313.052	19.192	1128.012	849.198
314.066	19.070	1127.083	847.822
315.081	19.022	1125.531	846.343
316.095	18.961	1125.563	845.992
317.110	18.994	1125.110	845.741
318.125	19.000	1123.878	844.769
319.139	19.065	1123.159	844.472
320.154	19.026	1122.598	843.786
321.168	18.966	1122.412	843.278
322.183	19.151	1120.971	843.023
323.197	19.071	1120.678	842.337
324.212	19.124	1120.306	842.241
325.227	19.162	1119.534	841.776
326.241	19.211	1118.894	841.455
327.256	19.267	1117.655	840.726
328.270	19.159	1116.651	839.371
329.285	19.053	1116.502	838.668
330.300	19.133	1115.482	838.214
331.314	19.113	1114.214	837.090
332.329	19.050	1113.542	836.206
333.343	19.141	1112.707	835.944
334.358	19.295	1111.561	835.760
335.373	19.256	1110.967	835.049
336.387	19.302	1110.506	834.852
337.402	19.329	1109.823	834.395
338.416	19.423	1109.114	834.242
339.431	19.530	1108.520	834.236
340.446	19.505	1108.035	833.677
341.460	19.713	1107.260	834.024
342.475	19.763	1106.125	833.336
343.489	19.816	1105.493	833.042
344.504	19.672	1104.789	831.748
345.519	19.913	1103.893	832.156
346.533	19.914	1103.242	831.599
347.548	19.951	1102.470	831.120
348.562	19.898	1101.479	830.043
349.577	19.562	1101.116	828.086
350.592	19.562	1099.848	827.058
351.606	19.537	1099.063	826.276
352.621	19.490	1098.363	825.452
353.635	19.550	1097.542	825.048
354.650	19.573	1096.623	824.397
355.665	19.480	1096.367	823.684
356.679	19.540	1095.942	823.580
357.694	19.661	1095.445	823.708
358.708	19.735	1094.470	823.256
359.723	19.819	1093.623	822.945
360.738	19.785	1093.111	822.328
361.752	19.792	1092.657	821.947
362.767	19.925	1091.933	821.958
363.781	19.845	1091.441	821.135
364.796	19.978	1090.990	821.357
365.810	20.020	1090.478	821.098
366.825	20.139	1089.712	821.009
367.840	20.240	1089.707	821.413
368.854	20.316	1088.954	821.133
369.869	20.189	1088.097	819.815
370.883	20.043	1087.386	818.517
371.898	19.904	1086.648	817.230
372.913	20.124	1085.466	817.306
373.927	20.026	1085.493	816.794
374.942	20.232	1084.461	816.913
375.956	20.133	1084.175	816.160
376.971	20.106	1083.295	815.297
377.986	20.281	1082.983	815.815
379.000	20.307	1082.442	815.458
380.015	20.379	1082.067	815.440
381.029	20.449	1081.237	815.073
382.044	20.367	1080.947	814.397
383.059	20.423	1079.706	813.650
384.073	20.389	1079.104	812.967
385.088	20.261	1078.275	811.671
386.102	20.218	1077.535	810.843
387.117	20.188	1076.308	809.707
388.132	20.096	1075.086	808.286
389.146	20.166	1074.633	808.201
390.161	20.065	1073.930	807.132
391.175	20.257	1072.674	807.006
392.190	20.286	1071.942	806.519
393.205	20.366	1071.681	806.624
394.219	20.337	1070.962	805.877
395.234	20.307	1070.067	804.994
396.248	20.261	1068.607	803.612
397.263	20.304	1067.483	802.894
398.278	20.193	1066.995	801.943
399.292	20.133	1066.498	801.221
400.307	20.034	1065.808	800.173
401.321	20.055	1065.558	800.013
402.336	20.052	1064.464	799.105
403.350	20.119	1063.812	798.854
404.365	20.214	1062.994	798.606
405.380	20.250	1062.382	798.241
406.394	20.301	1061.839	797.997
407.409	20.458	1060.971	797.998
408.423	20.488	1060.676	797.841
409.438	20.659	1059.809	797.904
410.453	20.712	1059.137	797.571
411.467	20.621	1058.522	796.617
412.482	20.669	1057.933	796.325
413.496	20.803	1057.098	796.241
414.511	20.833	1056.404	795.786
415.526	20.931	1056.094	795.928
416.540	20.984	1055.457	795.616
417.555	20.955	1055.090	795.137
418.569	20.939	1054.071	794.229
419.584	20.794	1054.297	793.665
420.599	20.865	1053.387	793.236
421.613	155.246	1404.678	1795.866
422.628	142.453	1455.853	1795.941
