DTS Sentinel unit serial number:	SN413079Multiplexer serial number:	ORYXHardware model number:	OX4-SRSoftware version number:	ORYX F/W v4.00 Oryx Data Collector v3.7.2.0data status	okinstallation	princeton_trtdifferential loss correction	single-endedforward channel	channel 2reverse channel	N/Adate	2019/09/13time	14:39:35forward acquisition time	60.00reverse acquisition time	0.00gamma	496.2192k internal	0.2314k external	0.2314temperature offset calibration	1.0200default loss term (dB/km)	0.3790temperature slope calibration	1.0000multiplexer offset coefficient	1.0000multiplexer slope coefficient	1.0000fibre end	0.00T internal ref (°C)	35.37T ext. ref 1 (°C)	4.66T ext. ref 2 (°C)	32.56length (m)	temperature (°C)	Stokes	anti-Stokes-747.200	-40.140	-0.113	-0.060
-746.185	-143.801	0.241	0.023
-745.171	-200.000	-0.034	0.303
-744.156	-88.521	-0.143	0.043
-743.142	-180.571	-0.179	-0.004
-742.127	-173.947	0.252	0.008
-741.112	-20.046	-0.088	0.055
-740.098	-200.000	0.136	0.721
-739.083	800.000	0.065	0.269
-738.069	-43.815	-0.129	-0.066
-737.054	-200.000	0.036	0.167
-736.039	45.866	-0.235	0.220
-735.025	-63.423	0.192	0.080
-734.010	-200.000	-0.002	0.073
-732.996	86.143	0.144	-0.160
-731.981	325.954	0.008	-0.016
-730.966	248.717	-0.069	-0.119
-729.952	82.280	-0.105	0.115
-728.937	-108.637	-0.084	0.018
-727.923	-38.445	0.149	-0.080
-726.908	-90.927	0.264	-0.077
-725.894	158.103	0.068	0.095
-724.879	-86.763	0.070	0.022
-723.864	-200.000	-0.072	-0.367
-722.850	95.720	-0.170	0.197
-721.835	800.000	-0.091	0.292
-720.821	-7.534	-0.148	-0.101
-719.806	800.000	0.048	-0.208
-718.791	-51.679	-0.232	-0.110
-717.777	-200.000	0.051	0.396
-716.762	9.074	-0.170	0.130
-715.748	-4.389	-0.206	-0.144
-714.733	278.795	0.088	-0.159
-713.718	669.938	-0.052	-0.138
-712.704	-200.000	0.025	-0.150
-711.689	299.963	0.078	-0.146
-710.675	-200.000	-0.035	0.175
-709.660	84.834	-0.079	0.087
-708.645	-24.610	-0.236	0.142
-707.631	800.000	-0.088	0.250
-706.616	-82.928	0.246	0.080
-705.602	800.000	0.038	0.137
-704.587	-162.457	-0.178	-0.009
-703.572	-42.047	-0.236	0.122
-702.558	141.320	-0.164	0.220
-701.543	64.455	0.106	0.109
-700.529	-57.942	0.547	-0.242
-699.514	800.000	0.032	-0.142
-698.499	-200.000	-0.146	-0.000
-697.485	-41.383	0.283	0.148
-696.470	159.472	0.018	-0.026
-695.456	13.452	-0.050	-0.039
-694.441	141.451	-0.178	-0.238
-693.426	-117.720	0.346	0.063
-692.412	-98.085	-0.336	0.087
-691.397	-116.481	-0.300	0.056
-690.383	-32.592	0.112	0.063
-689.368	-66.745	0.209	0.084
-688.354	800.000	0.018	0.068
-687.339	77.422	-0.139	-0.150
-686.324	-83.908	-0.157	-0.050
-685.310	800.000	-0.045	0.178
-684.295	154.330	0.169	-0.234
-683.281	647.050	0.078	0.203
-682.266	-14.068	0.211	0.137
-681.251	-200.000	0.004	-0.220
-680.237	-200.000	-0.064	-0.385
-679.222	24.155	-0.197	-0.165
-678.208	-125.861	-0.377	0.058
-677.193	-154.072	-0.118	0.008
-676.178	13.933	0.123	-0.097
-675.164	301.439	-0.108	0.201
-674.149	-93.385	-0.424	0.119
-673.135	-74.074	0.115	0.042
-672.120	800.000	-0.096	-0.274
-671.105	-200.000	-0.020	0.123
-670.091	-200.000	-0.033	0.187
-669.076	474.692	0.168	-0.384
-668.062	-19.479	0.191	-0.120
-667.047	800.000	0.042	-0.159
-666.032	-200.000	-0.248	0.001
-665.018	27.888	0.103	-0.088
-664.003	-82.995	0.113	0.037
-662.989	250.742	0.107	-0.183
-661.974	-86.100	-0.252	-0.079
-660.959	-200.000	0.017	0.141
-659.945	218.043	-0.105	-0.169
-658.930	-67.309	-0.333	0.133
-657.916	116.818	-0.098	0.122
-656.901	199.514	-0.105	-0.163
-655.886	132.577	0.095	0.124
-654.872	-112.161	0.228	-0.046
-653.857	-200.000	-0.018	-0.260
-652.843	-37.252	0.168	0.091
-651.828	168.735	0.100	-0.144
-650.814	34.095	-0.423	-0.373
-649.799	6.375	0.195	0.146
-648.784	800.000	0.030	-0.106
-647.770	212.814	-0.134	-0.214
-646.755	155.212	0.109	-0.152
-645.741	-159.709	0.266	-0.015
-644.726	-32.993	0.071	0.040
-643.711	-144.365	0.228	-0.021
-642.697	337.550	-0.175	-0.344
-641.682	800.000	-0.086	-0.273
-640.668	-200.000	0.055	0.388
-639.653	-56.522	0.270	0.121
-638.638	105.721	-0.124	-0.148
-637.624	-161.997	0.204	-0.010
-636.609	-183.267	0.337	-0.006
-635.595	190.163	0.124	0.188
-634.580	195.802	0.101	-0.156
-633.565	-129.680	-0.146	-0.020
-632.551	-75.587	0.141	0.051
-631.536	630.470	0.186	-0.475
-630.522	-41.827	0.147	-0.076
-629.507	-121.130	0.269	-0.046
-628.492	420.782	0.051	-0.111
-627.478	-200.000	0.006	0.129
-626.463	800.000	0.083	-0.232
-625.449	800.000	-0.015	-0.059
-624.434	-39.791	-0.099	0.052
-623.419	-139.772	-0.194	0.021
-622.405	-200.000	0.054	-0.319
-621.390	795.195	-0.068	-0.190
-620.376	-103.058	-0.148	-0.035
-619.361	-200.000	0.048	0.232
-618.346	95.299	0.119	0.137
-617.332	98.294	0.209	-0.243
-616.317	86.139	0.154	-0.171
-615.303	63.287	-0.219	-0.222
-614.288	49.334	0.144	0.137
-613.273	-44.061	0.322	0.163
-612.259	-82.615	-0.081	0.026
-611.244	63.401	-0.276	-0.279
-610.230	-127.609	-0.290	-0.042
-609.215	-94.890	0.214	0.058
-608.201	-0.820	0.031	-0.022
-607.186	608.508	-0.104	0.261
-606.171	42.943	0.109	-0.100
-605.157	-200.000	0.022	-0.480
-604.142	610.310	-0.061	-0.155
-603.128	-88.387	-0.180	-0.054
-602.113	-125.966	-0.211	0.032
-601.098	389.704	-0.047	-0.098
-600.084	800.000	-0.054	0.164
-599.069	-24.527	0.262	0.157
-598.055	244.198	0.125	-0.211
-597.040	-63.001	0.030	-0.012
-596.025	-35.215	-0.219	-0.120
-595.011	137.577	-0.283	-0.374
-593.996	-200.000	-0.029	0.161
-592.982	129.240	-0.217	0.279
-591.967	108.307	0.016	0.020
-590.952	-200.000	0.097	-0.437
-589.938	800.000	0.038	0.120
-588.923	303.662	0.118	-0.221
-587.909	-52.634	-0.218	-0.101
-586.894	-200.000	0.007	-0.161
-585.879	93.549	0.078	0.089
-584.865	-200.000	0.015	0.078
-583.850	-179.466	-0.327	0.007
-582.836	-200.000	-0.028	-0.182
-581.821	-57.030	-0.231	-0.103
-580.806	-139.698	-0.337	0.036
-579.792	151.155	0.133	0.182
-578.777	153.431	0.083	0.114
-577.763	148.458	-0.117	-0.159
-576.748	20.061	0.172	0.139
-575.733	4.905	0.176	0.130
-574.719	-200.000	0.018	-0.162
-573.704	6.872	-0.244	-0.183
-572.690	-200.000	0.001	0.089
-571.675	-200.000	-0.001	0.049
-570.661	-46.658	-0.177	0.087
-569.646	200.116	-0.074	0.115
-568.631	652.434	0.195	0.504
-567.617	98.750	-0.107	0.125
-566.602	-200.000	0.022	-0.186
-565.588	-200.000	0.015	0.306
-564.573	84.817	0.129	-0.142
-563.558	121.391	0.176	0.220
-562.544	193.018	-0.197	-0.300
-561.529	800.000	0.044	-0.154
-560.515	-71.363	-0.132	0.050
-559.500	-137.956	-0.312	-0.035
-558.485	800.000	-0.084	0.319
-557.471	207.343	0.089	-0.140
-556.456	-133.975	0.165	-0.021
-555.442	-162.894	0.167	-0.008
-554.427	-124.585	-0.310	-0.048
-553.412	5.841	0.167	-0.124
-552.398	44.445	0.276	0.255
-551.383	-21.387	0.344	0.212
-550.369	578.711	0.063	-0.156
-549.354	800.000	-0.076	-0.276
-548.339	-138.778	0.212	-0.023
-547.325	244.117	0.097	-0.163
-546.310	266.384	-0.025	0.044
-545.296	-64.005	0.137	0.056
-544.281	-200.000	0.014	0.346
-543.266	0.850	0.267	-0.192
-542.252	-55.209	0.180	0.082
-541.237	322.539	-0.044	0.083
-540.223	-37.299	-0.294	-0.158
-539.208	-106.930	-0.400	0.089
-538.193	229.217	-0.102	0.167
-537.179	-59.878	-0.390	-0.168
-536.164	800.000	0.047	0.139
-535.150	-112.635	-0.236	-0.047
-534.135	-200.000	0.008	-0.182
-533.121	-9.654	-0.095	0.064
-532.106	493.112	0.158	0.365
-531.091	-66.885	0.186	0.074
-530.077	-131.879	-0.102	-0.013
-529.062	-200.000	-0.030	-0.143
-528.048	800.000	-0.016	0.061
-527.033	202.338	0.087	0.135
-526.018	341.920	-0.120	-0.236
-525.004	556.476	0.052	0.125
-523.989	-45.229	0.340	0.170
-522.975	97.493	0.208	-0.240
-521.960	137.335	-0.155	-0.204
-520.945	800.000	0.022	-0.077
-519.931	-121.926	-0.282	0.047
-518.916	-200.000	0.022	-0.109
-517.902	450.490	-0.046	-0.102
-516.887	800.000	-0.078	-0.222
-515.872	-32.645	-0.243	0.136
-514.858	-136.236	0.261	0.031
-513.843	-169.870	0.201	0.007
-512.829	800.000	-0.009	0.025
-511.814	-200.000	0.018	-0.232
-510.799	-200.000	-0.095	-0.524
-509.785	-107.254	-0.154	0.034
-508.770	-22.703	0.269	-0.163
-507.756	-112.963	-0.106	-0.021
-506.741	328.321	-0.028	0.055
-505.726	401.342	0.078	0.165
-504.712	106.039	0.186	0.221
-503.697	-102.210	-0.364	-0.088
-502.683	27.194	-0.188	-0.158
-501.668	-114.595	0.078	-0.015
-500.653	7.818	0.188	0.141
-499.639	269.682	-0.078	-0.137
-498.624	-200.000	0.013	-0.082
-497.610	-48.160	-0.073	-0.036
-496.595	-68.058	0.171	0.067
-495.581	-122.294	0.221	0.036
-494.566	-145.416	-0.122	-0.011
-493.551	-102.011	0.090	-0.022
-492.537	-200.000	0.035	0.189
-491.522	-60.094	-0.255	-0.109
-490.508	36.070	0.065	0.057
-489.493	-57.588	-0.119	0.052
-488.478	43.675	-0.086	0.079
-487.464	-60.740	-0.191	0.081
-486.449	800.000	-0.037	0.114
-485.435	-200.000	0.000	0.179
-484.420	800.000	0.048	-0.154
-483.405	446.352	0.102	-0.225
-482.391	-161.219	-0.364	-0.019
-481.376	-5.764	0.157	0.108
-480.362	61.239	0.032	0.032
-479.347	527.702	-0.179	-0.423
-478.332	61.682	-0.129	0.129
-477.318	107.527	-0.195	-0.233
-476.303	-173.621	0.324	0.010
-475.289	-67.819	-0.347	-0.136
-474.274	12.082	-0.159	0.123
-473.259	800.000	-0.103	0.301
-472.245	800.000	-0.065	-0.195
-471.230	-161.965	0.119	0.006
-470.216	-14.252	-0.092	-0.060
-469.201	361.517	-0.127	-0.255
-468.186	216.856	0.139	-0.221
-467.172	566.330	0.046	-0.111
-466.157	180.245	0.027	-0.039
-465.143	-200.000	0.019	-0.134
-464.128	-64.429	-0.295	-0.120
-463.113	28.371	-0.112	-0.095
-462.099	800.000	-0.021	-0.071
-461.084	-200.000	0.043	-0.258
-460.070	111.931	0.153	0.185
-459.055	-200.000	0.006	0.310
-458.040	410.305	0.112	0.238
-457.026	-200.000	0.063	0.280
-456.011	94.201	-0.234	0.267
-454.997	-151.359	0.327	0.024
-453.982	466.343	0.049	-0.109
-452.968	39.575	0.147	-0.132
-451.953	-55.671	-0.239	-0.107
-450.938	800.000	-0.073	0.229
-449.924	-197.607	0.031	-0.000
-448.909	-137.385	-0.242	-0.027
-447.895	-184.226	0.364	0.006
-446.880	-123.243	-0.251	-0.040
-445.865	130.412	0.157	0.201
-444.851	-51.463	-0.210	-0.098
-443.836	800.000	0.110	-0.453
-442.822	33.946	0.122	0.106
-441.807	800.000	-0.045	-0.127
-440.792	-117.171	0.201	0.037
-439.778	-190.578	0.321	-0.003
-438.763	-107.807	0.269	-0.059
-437.749	-67.300	0.171	-0.067
-436.734	88.265	0.158	-0.176
-435.719	-113.350	-0.380	-0.075
-434.705	-200.000	0.080	-0.425
-433.690	-94.018	0.132	-0.036
-432.676	-200.000	0.048	0.257
-431.661	-47.611	-0.168	0.082
-430.646	-25.641	0.047	-0.028
-429.632	375.499	0.187	0.381
-428.617	12.531	0.106	0.082
-427.603	290.441	-0.079	0.144
-426.588	-200.000	-0.000	-0.117
-425.573	-43.198	0.086	-0.044
-424.559	166.638	0.047	-0.066
-423.544	41.861	0.305	-0.277
-422.530	99.339	0.170	-0.196
-421.515	-197.221	0.342	0.002
-420.500	800.000	-0.058	-0.165
-419.486	-200.000	-0.006	-0.100
-418.471	290.797	0.169	0.308
-417.457	16.713	0.294	-0.233
-416.442	-76.015	0.230	-0.081
-415.428	18.737	-0.045	0.036
-414.413	-200.000	-0.040	-0.175
-413.398	452.445	-0.155	0.342
-412.384	16.966	0.141	-0.112
-411.369	51.237	0.148	-0.141
-410.355	-90.477	-0.215	-0.062
-409.340	-200.000	0.002	0.088
-408.325	66.050	0.088	0.090
-407.311	80.556	-0.352	-0.380
-406.296	-86.915	-0.224	0.068
-405.282	177.119	0.030	0.044
-404.267	301.288	0.076	-0.141
-403.252	800.000	0.102	0.329
-402.238	-85.439	0.099	0.031
-401.223	222.647	0.015	-0.024
-400.209	82.795	-0.171	-0.186
-399.194	-200.000	-0.019	-0.231
-398.179	-77.142	-0.299	-0.104
-397.165	-163.771	0.151	0.007
-396.150	12.890	-0.260	0.201
-395.136	800.000	-0.063	-0.194
-394.121	-90.194	0.281	0.082
-393.106	800.000	0.085	-0.237
-392.092	103.259	0.114	-0.133
-391.077	477.879	-0.095	0.216
-390.063	96.827	-0.200	0.229
-389.048	70.068	0.159	0.164
-388.033	-111.806	0.134	-0.027
-387.019	-30.440	-0.136	-0.077
-386.004	-200.000	0.035	0.216
-384.990	-200.000	0.045	0.239
-383.975	-200.000	-0.031	0.154
-382.960	-200.000	-0.012	-0.169
-381.946	122.809	-0.063	0.079
-380.931	88.498	-0.113	-0.126
-379.917	-200.000	0.002	-0.151
-378.902	114.313	0.094	-0.114
-377.888	123.986	0.105	-0.132
-376.873	-15.745	-0.180	-0.114
-375.858	-200.000	0.002	-0.134
-374.844	125.216	-0.036	-0.046
-373.829	-200.000	0.028	-0.143
-372.815	800.000	-0.067	0.280
-371.800	784.020	-0.022	-0.060
-370.785	-97.542	-0.223	0.058
-369.771	-200.000	0.010	-0.147
-368.756	113.558	0.132	0.160
-367.742	-69.107	0.175	-0.067
-366.727	386.533	0.081	-0.167
-365.712	725.024	-0.142	0.377
-364.698	-162.123	-0.336	0.017
-363.683	-39.198	-0.025	0.013
-362.669	800.000	0.060	-0.219
-361.654	800.000	0.102	0.312
-360.639	-94.335	-0.072	0.020
-359.625	460.992	-0.096	0.215
-358.610	263.786	-0.053	0.092
-357.596	-184.278	0.197	0.003
-356.581	-195.622	-0.280	0.002
-355.566	-65.016	0.338	0.136
-354.552	-142.388	-0.357	0.035
-353.537	-200.000	0.024	0.136
-352.523	37.652	0.293	0.260
-351.508	372.554	-0.106	-0.214
-350.493	-166.779	-0.102	-0.004
-349.479	56.839	0.057	-0.055
-348.464	134.755	-0.126	-0.163
-347.450	108.774	0.226	0.270
-346.435	-200.000	-0.022	-0.136
-345.420	800.000	0.080	0.242
-344.406	2.352	0.151	0.109
-343.391	800.000	-0.080	0.265
-342.377	-200.000	-0.008	0.193
-341.362	767.550	-0.137	0.373
-340.348	-6.081	0.090	-0.061
-339.333	-84.818	-0.183	0.058
-338.318	157.996	-0.068	0.094
-337.304	-11.908	-0.194	0.127
-336.289	67.792	-0.104	0.106
-335.275	201.998	0.165	-0.254
-334.260	800.000	-0.068	-0.280
-333.245	-62.757	0.230	0.095
-332.231	800.000	-0.117	-0.354
-331.216	315.792	-0.108	-0.203
-330.202	229.534	0.167	0.273
-329.187	230.856	0.172	0.282
-328.172	-82.413	-0.401	0.130
-327.158	-82.547	0.263	0.085
-326.143	-111.243	0.227	0.046
-325.129	-40.683	-0.346	0.179
-324.114	777.443	0.135	0.367
-323.099	-0.120	0.167	0.119
-322.085	149.155	0.230	-0.311
-321.070	-200.000	0.004	-0.189
-320.056	-137.204	0.305	-0.035
-319.041	-184.484	-0.459	-0.007
-318.026	377.741	0.018	-0.036
-317.012	-82.843	0.313	-0.101
-315.997	-200.000	-0.030	0.186
-314.983	547.112	0.124	-0.296
-313.968	-92.427	0.213	-0.060
-312.953	7.568	0.127	-0.095
-311.939	-71.427	-0.310	0.116
-310.924	0.462	0.081	0.058
-309.910	65.921	-0.118	-0.119
-308.895	-155.932	0.690	0.044
-307.880	-20.089	-0.100	0.061
-306.866	-3.424	-0.235	-0.163
-305.851	411.824	0.038	-0.080
-304.837	-200.000	-0.013	0.463
-303.822	79.314	-0.199	0.213
-302.807	680.327	-0.116	-0.301
-301.793	-38.545	0.245	0.129
-300.778	800.000	0.142	-0.514
-299.764	73.254	-0.211	0.219
-298.749	-68.643	0.263	0.101
-297.735	-13.984	-0.054	-0.035
-296.720	-34.399	-0.082	0.045
-295.705	712.530	-0.073	-0.194
-294.691	-200.000	-0.021	0.357
-293.676	39.864	0.122	0.109
-292.662	175.390	0.063	-0.091
-291.647	-85.242	-0.178	0.055
-290.632	-200.000	-0.001	0.075
-289.618	-59.611	0.118	0.051
-288.603	-18.967	-0.191	0.118
-287.589	800.000	-0.043	0.129
-286.574	159.043	-0.010	0.014
-285.559	298.164	-0.146	-0.267
-284.545	32.067	0.099	0.085
-283.530	800.000	-0.038	-0.150
-282.516	114.208	-0.219	0.266
-281.501	187.404	0.049	0.073
-280.486	101.197	0.193	-0.224
-279.472	-79.015	0.148	0.050
-278.457	57.549	-0.145	0.141
-277.443	-148.036	0.306	-0.025
-276.428	-141.520	-0.369	-0.037
-275.413	-133.268	-0.147	0.018
-274.399	-200.000	-0.001	0.177
-273.384	-116.522	0.113	-0.021
-272.370	-154.076	-0.294	0.020
-271.355	-200.000	0.012	0.317
-270.340	230.081	-0.214	0.348
-269.326	-29.982	-0.263	0.149
-268.311	-125.534	-0.146	-0.022
-267.297	-200.000	-0.034	0.256
-266.282	-192.523	0.147	-0.001
-265.267	-18.250	-0.219	0.136
-264.253	-45.646	-0.316	0.155
-263.238	-137.142	0.306	-0.035
-262.224	-200.000	0.006	-0.133
-261.209	-3.608	-0.211	0.146
-260.195	-200.000	-0.003	0.047
-259.180	-132.100	0.157	0.020
-258.165	22.874	-0.055	-0.045
-257.151	14.417	0.127	0.099
-256.136	-31.978	0.169	0.094
-255.122	-44.431	0.418	0.208
-254.107	-7.648	-0.231	-0.155
-253.092	-181.164	-0.380	0.008
-252.078	-145.602	0.173	-0.015
-251.063	-121.164	0.206	-0.034
-250.049	-22.918	-0.224	-0.135
-249.034	-172.866	0.126	-0.004
-248.019	359.537	-0.038	0.075
-247.005	-79.247	0.062	0.021
-245.990	-95.322	-0.191	0.051
-244.976	-151.175	0.170	-0.013
-243.961	758.205	0.082	-0.220
-242.946	-2.226	0.201	-0.140
-241.932	-8.338	0.139	0.093
-240.917	-66.934	0.245	0.096
-239.903	20.108	-0.152	0.122
-238.888	-173.156	0.172	-0.005
-237.873	108.570	0.087	0.104
-236.859	-200.000	-0.014	0.306
-235.844	800.000	-0.046	-0.161
-234.830	-200.000	0.033	-0.375
-233.815	-126.983	-0.268	-0.039
-232.800	-93.917	-0.314	0.086
-231.786	-77.787	0.165	0.057
-230.771	262.132	-0.034	-0.058
-229.757	-200.000	0.283	-0.001
-228.742	25.362	0.111	-0.092
-227.727	84.729	0.170	0.185
-226.713	-200.000	-0.034	0.195
-225.698	800.000	0.033	-0.111
-224.684	-200.000	0.027	-0.294
-223.669	-70.633	0.111	-0.042
-222.655	55.858	0.112	0.108
-221.640	-143.969	0.114	0.011
-220.625	-12.129	-0.074	-0.048
-219.611	-38.448	-0.210	-0.110
-218.596	-200.000	0.037	-0.291
-217.582	-200.000	0.029	-0.169
-216.567	800.000	-0.073	-0.220
-215.552	62.118	0.234	0.232
-214.538	-65.839	-0.086	0.034
-213.523	-156.527	-0.209	-0.013
-212.509	51.397	0.229	0.216
-211.494	800.000	0.079	0.274
-210.479	800.000	-0.168	0.491
-209.465	108.090	-0.439	0.520
-208.450	-25.562	-0.094	0.055
-207.436	72.194	-0.130	-0.135
-206.421	143.251	0.072	-0.095
-205.406	167.502	-0.187	0.264
-204.392	143.291	0.042	0.056
-203.377	22.063	-0.156	-0.127
-202.363	84.469	-0.242	-0.263
-201.348	547.350	-0.085	-0.203
-200.333	-149.598	-0.342	0.027
-199.319	800.000	0.050	0.148
-198.304	176.780	0.072	0.103
-197.290	449.738	0.129	-0.281
-196.275	-23.336	0.049	-0.029
-195.260	-200.000	0.003	-0.216
-194.246	107.950	-0.187	-0.221
-193.231	-7.632	-0.173	0.116
-192.217	800.000	0.021	0.060
-191.202	-181.637	0.076	0.001
-190.187	80.096	-0.137	0.146
-189.173	456.172	-0.150	-0.330
-188.158	15.162	-0.184	0.143
-187.144	-45.021	-0.163	0.080
-186.129	800.000	-0.056	-0.203
-185.114	114.888	-0.137	0.165
-184.100	-125.928	-0.257	-0.038
-183.085	-98.726	0.187	0.047
-182.071	49.074	-0.351	-0.327
-181.056	77.498	0.209	-0.221
-180.042	-200.000	0.006	0.028
-179.027	4.338	0.074	-0.054
-178.012	101.268	-0.125	0.144
-176.998	450.224	-0.015	-0.032
-175.983	184.012	-0.107	0.156
-174.969	800.000	0.178	0.544
-173.954	220.286	-0.108	0.172
-172.939	491.247	-0.110	0.250
-171.925	-5.266	0.165	0.112
-170.910	800.000	0.105	0.316
-169.896	15.703	0.294	-0.229
-168.881	-142.588	-0.132	-0.013
-167.866	212.703	0.056	0.087
-166.852	5.285	-0.294	-0.215
-165.837	280.381	0.159	0.283
-164.823	-200.000	-0.020	0.100
-163.808	202.534	-0.190	0.291
-162.793	298.359	-0.022	-0.040
-161.779	-200.000	-0.040	0.270
-160.764	321.978	0.059	0.112
-159.750	-112.047	0.250	0.050
-158.735	296.097	-0.035	0.064
-157.720	67.923	0.076	-0.077
-156.706	436.722	0.090	-0.194
-155.691	56.889	-0.164	-0.159
-154.677	800.000	0.135	-0.452
-153.662	-128.332	0.220	-0.031
-152.647	-196.624	0.228	-0.002
-151.633	-48.946	-0.194	0.092
-150.618	-200.000	-0.008	-0.142
-149.604	-41.773	-0.078	0.040
-148.589	-178.451	-0.246	-0.006
-147.574	185.310	-0.204	-0.301
-146.560	269.317	-0.003	0.006
-145.545	199.466	0.033	0.050
-144.531	64.799	0.258	0.257
-143.516	123.480	0.137	-0.170
-142.502	114.280	0.064	0.078
-141.487	-200.000	0.020	-0.175
-140.472	150.727	-0.088	-0.118
-139.458	353.496	-0.043	-0.085
-138.443	281.610	0.042	-0.075
-137.429	176.461	-0.138	0.198
-136.414	-70.309	-0.262	0.099
-135.399	-141.916	0.032	-0.003
-134.385	-63.516	0.285	-0.116
-133.370	129.202	0.253	0.320
-132.356	-95.338	-0.258	0.069
-131.341	800.000	-0.099	0.349
-130.326	-55.985	0.276	0.122
-129.312	203.904	-0.060	0.092
-128.297	335.535	-0.091	-0.175
-127.283	-200.000	0.056	0.244
-126.268	-166.305	0.086	-0.004
-125.253	800.000	-0.040	0.141
-124.239	-63.627	0.146	0.059
-123.224	50.763	0.083	-0.077
-122.210	-156.255	-0.221	0.014
-121.195	-86.866	-0.361	0.109
-120.180	-91.536	0.373	-0.105
-119.166	-125.829	0.231	-0.034
-118.151	800.000	-0.095	-0.303
-117.137	-200.000	0.008	0.084
-116.122	26.920	-0.094	0.078
-115.107	176.039	-0.188	0.270
-114.093	498.748	-0.082	0.187
-113.078	315.686	0.165	0.308
-112.064	50.935	-0.208	0.195
-111.049	104.694	-0.157	-0.183
-110.034	-125.877	-0.030	-0.004
-109.020	26.394	-0.105	-0.087
-108.005	-56.178	0.155	0.068
-106.991	-200.000	0.011	0.131
-105.976	800.000	-0.037	0.123
-104.962	160.153	0.218	-0.300
-103.947	-66.301	0.256	0.101
-102.932	35.775	0.282	0.245
-101.918	-157.962	-0.303	-0.018
-100.903	-68.976	-0.321	0.122
-99.889	800.000	-0.027	-0.107
-98.874	265.245	-0.149	-0.257
-97.859	-101.595	0.128	-0.031
-96.845	6.086	0.221	0.162
-95.830	-32.407	0.210	-0.116
-94.816	-23.250	0.231	-0.137
-93.801	-37.719	-0.211	-0.111
-92.786	282.414	0.069	0.122
-91.772	-200.000	-0.065	-0.318
-90.757	-0.666	0.155	0.109
-89.743	541.038	-0.045	0.107
-88.728	4.721	0.215	-0.156
-87.713	800.000	-0.056	-0.230
-86.699	83.190	-0.111	-0.119
-85.684	-200.000	-0.055	0.399
-84.670	10.546	-0.088	-0.066
-83.655	72.164	0.011	0.011
-82.640	-99.418	0.268	-0.067
-81.626	34.024	0.191	0.165
-80.611	-90.533	0.290	0.083
-79.597	342.355	0.105	0.203
-78.582	-158.801	0.131	0.007
-77.567	29.831	-0.089	-0.075
-76.553	-200.000	0.001	0.196
-75.538	91.415	-0.195	-0.216
-74.524	125.398	-0.128	0.160
-73.509	315.734	0.105	0.195
-72.494	-200.000	-0.012	0.066
-71.480	-127.581	0.112	-0.016
-70.465	-84.550	-0.145	-0.045
-69.451	-4.548	-0.316	0.215
-68.436	-80.323	-0.207	-0.068
-67.422	300.956	0.080	-0.145
-66.407	-96.969	-0.053	-0.014
-65.392	-200.000	0.009	0.145
-64.378	519.878	-0.066	-0.152
-63.363	1.744	0.075	-0.054
-62.349	33.823	0.108	-0.093
-61.334	12.726	-0.832	-0.635
-60.319	189.293	0.305	0.452
-59.305	540.003	-0.325	-0.764
-58.290	497.077	0.408	0.926
-57.276	800.000	0.457	1.594
-56.261	-200.000	92.622	547.613
-55.246	615.295	1382.948	3421.344
-54.232	187.117	2607.586	3836.715
-53.217	116.324	2322.241	2808.695
-52.203	45.139	1933.284	1758.430
-51.188	38.760	1718.586	1514.037
-50.173	35.885	1673.533	1452.627
-49.159	52.307	1720.368	1619.245
-48.144	55.685	1738.480	1662.051
-47.130	38.550	1695.207	1491.607
-46.115	35.433	1680.936	1455.398
-45.100	35.389	1675.705	1450.480
-44.086	35.276	1673.303	1447.490
-43.071	35.236	1671.042	1445.174
-42.057	35.236	1668.278	1442.724
-41.042	35.177	1666.488	1440.677
-40.027	35.234	1664.579	1439.395
-39.013	35.281	1662.511	1437.902
-37.998	35.185	1661.135	1435.938
-36.984	35.302	1659.846	1435.640
-35.969	35.395	1658.484	1435.104
-34.954	35.439	1656.648	1433.789
-33.940	35.377	1654.937	1431.786
-32.925	35.433	1652.575	1430.101
-31.911	35.451	1651.188	1428.977
-30.896	35.364	1649.612	1426.911
-29.881	35.364	1648.008	1425.465
-28.867	35.314	1646.335	1423.589
-27.852	35.349	1644.716	1422.396
-26.838	35.365	1643.070	1421.032
-25.823	35.331	1641.899	1419.714
-24.809	35.384	1640.838	1419.133
-23.794	35.361	1639.459	1417.711
-22.779	35.332	1638.284	1416.427
-21.765	35.472	1635.830	1415.277
-20.750	35.387	1633.885	1412.917
-19.736	35.315	1633.301	1411.827
-18.721	35.379	1631.320	1410.523
-17.706	35.439	1629.859	1409.647
-16.692	35.374	1628.240	1407.717
-15.677	35.403	1626.536	1406.397
-14.663	35.432	1625.433	1405.602
-13.648	35.407	1624.439	1404.500
-12.633	35.446	1622.150	1402.753
-11.619	35.423	1620.564	1401.159
-10.604	35.456	1619.221	1400.180
-9.590	35.435	1618.196	1399.088
-8.575	35.410	1616.515	1397.397
-7.560	35.405	1615.492	1396.422
-6.546	35.421	1614.250	1395.411
-5.531	35.377	1612.926	1393.884
-4.517	35.368	1612.394	1393.310
-3.502	35.460	1611.041	1392.752
-2.487	35.478	1609.623	1391.602
-1.473	35.362	1598.823	1381.369
-0.458	32.968	1578.701	1346.880
0.556	31.211	1578.667	1310.065
1.571	28.396	1601.327	1308.683
2.586	27.192	1614.129	1310.350
3.600	23.707	1559.346	1241.454
4.615	14.391	1447.119	1091.273
5.629	6.123	1379.959	988.709
6.644	4.601	1371.057	972.726
7.659	4.635	1369.523	971.766
8.673	4.647	1368.848	971.271
9.688	4.737	1367.189	970.573
10.702	4.553	1364.869	967.697
11.717	8.365	1372.418	996.787
12.731	17.273	1389.126	1064.881
13.746	22.745	1396.687	1104.951
14.761	22.593	1395.585	1103.025
15.775	21.810	1392.652	1095.720
16.790	20.767	1390.287	1087.256
17.804	20.039	1387.411	1080.369
18.819	19.598	1386.507	1076.820
19.834	19.457	1385.624	1075.159
20.848	19.314	1384.518	1073.317
21.863	19.153	1383.346	1071.310
22.877	19.016	1382.110	1069.406
23.892	18.911	1381.401	1068.111
24.907	18.953	1380.362	1067.477
25.921	18.861	1379.637	1066.247
26.936	18.926	1378.571	1065.735
27.950	19.048	1377.488	1065.557
28.965	19.076	1376.282	1064.703
29.980	19.183	1375.622	1064.760
30.994	19.288	1374.323	1064.312
32.009	19.289	1373.462	1063.556
33.023	19.391	1372.374	1063.247
34.038	19.210	1371.138	1061.082
35.053	19.060	1369.712	1058.960
36.067	19.105	1368.086	1057.888
37.082	19.105	1367.557	1057.387
38.096	19.174	1366.752	1057.091
39.111	19.196	1365.794	1056.394
40.126	19.048	1365.017	1054.791
41.140	18.703	1364.028	1051.822
42.155	18.670	1363.114	1050.820
43.169	18.593	1363.071	1050.221
44.184	18.681	1362.422	1050.167
45.199	18.692	1362.048	1049.852
46.213	18.857	1361.506	1050.352
47.228	18.998	1361.276	1050.941
48.242	18.980	1359.769	1049.574
49.257	19.051	1358.197	1048.702
50.271	18.955	1356.871	1046.999
51.286	18.967	1355.870	1046.208
52.301	19.009	1354.269	1045.140
53.315	18.776	1353.232	1042.831
54.330	18.722	1352.418	1041.785
55.344	18.713	1351.080	1040.604
56.359	18.798	1349.558	1039.858
57.374	18.692	1349.141	1038.798
58.388	18.688	1348.091	1037.874
59.403	18.570	1347.809	1036.853
60.417	18.585	1346.809	1036.080
61.432	18.447	1346.516	1034.933
62.447	18.527	1344.956	1034.124
63.461	18.364	1343.950	1032.277
64.476	18.340	1343.056	1031.356
65.490	18.486	1341.356	1030.838
66.505	18.487	1339.803	1029.559
67.520	18.384	1338.807	1028.080
68.534	18.544	1337.693	1028.094
69.549	18.505	1336.702	1027.010
70.563	18.378	1335.845	1025.499
71.578	18.298	1334.684	1024.038
72.593	18.221	1333.719	1022.748
73.607	18.202	1333.138	1022.096
74.622	18.261	1332.652	1021.991
75.636	18.246	1331.645	1021.036
76.651	18.233	1331.145	1020.483
77.666	18.345	1330.479	1020.553
78.680	18.523	1330.202	1021.308
79.695	18.585	1329.143	1020.776
80.709	18.623	1328.319	1020.280
81.724	18.741	1328.072	1020.700
82.739	18.801	1327.083	1020.205
83.753	18.847	1326.870	1020.222
84.768	19.075	1325.153	1020.163
85.782	19.141	1324.649	1020.080
86.797	19.139	1323.607	1019.174
87.812	19.000	1322.052	1017.065
88.826	18.941	1320.991	1015.806
89.841	19.005	1320.224	1015.507
90.855	19.146	1319.210	1015.467
91.870	19.161	1318.477	1014.907
92.884	19.183	1317.815	1014.433
93.899	19.262	1316.281	1013.630
94.914	19.290	1315.779	1013.317
95.928	19.307	1314.684	1012.480
96.943	19.220	1313.966	1011.329
97.957	19.067	1313.337	1009.856
98.972	19.114	1312.673	1009.535
99.987	19.238	1311.051	1008.924
101.001	19.229	1310.113	1008.061
102.016	19.054	1309.542	1006.510
103.030	19.127	1308.899	1006.352
104.045	19.023	1308.157	1005.083
105.060	18.975	1306.332	1003.311
106.074	18.767	1304.427	1000.549
107.089	18.522	1303.144	998.050
108.103	18.392	1301.965	996.305
109.118	18.577	1300.262	995.984
110.133	18.528	1299.155	994.769
111.147	18.543	1298.042	993.914
112.162	18.644	1296.573	993.286
113.176	18.577	1295.798	992.216
114.191	18.718	1295.125	992.426
115.206	18.694	1293.811	991.192
116.220	18.760	1292.025	990.122
117.235	18.732	1291.265	989.288
118.249	18.546	1290.488	987.535
119.264	18.408	1289.741	986.079
120.279	18.504	1288.129	985.314
121.293	18.445	1286.977	984.007
122.308	18.349	1285.827	982.491
123.322	18.242	1284.854	981.046
124.337	18.267	1284.202	980.602
125.352	18.234	1282.725	979.200
126.366	18.284	1281.971	978.824
127.381	18.285	1280.776	977.831
128.395	18.295	1279.717	976.990
129.410	18.344	1279.314	976.878
130.424	18.412	1278.323	976.422
131.439	18.518	1277.430	976.257
132.454	18.580	1276.695	975.962
133.468	18.792	1275.251	975.978
134.483	18.593	1275.012	974.578
135.497	18.637	1273.860	973.862
136.512	18.694	1272.425	972.998
137.527	18.853	1270.755	972.538
138.541	18.820	1269.890	971.602
139.556	18.803	1269.254	970.934
140.570	18.888	1267.770	970.193
141.585	19.028	1266.529	969.944
142.600	19.119	1265.835	969.840
143.614	19.211	1264.595	969.325
144.629	19.105	1263.966	968.161
145.643	19.192	1262.734	967.619
146.658	19.063	1261.442	965.820
147.673	18.934	1259.811	963.764
148.687	18.834	1258.415	962.047
149.702	18.741	1257.148	960.476
150.716	18.727	1255.544	959.087
151.731	18.660	1254.942	958.168
152.746	18.655	1253.873	957.238
153.760	18.858	1252.275	957.065
154.775	18.862	1251.411	956.341
155.789	18.849	1250.875	955.774
156.804	18.998	1249.604	955.547
157.819	19.024	1248.985	955.136
158.833	19.084	1247.904	954.557
159.848	19.157	1247.133	954.287
160.862	19.151	1246.036	953.327
161.877	18.852	1244.644	950.528
162.892	18.715	1243.527	948.830
163.906	18.673	1242.640	947.837
164.921	18.713	1241.514	947.115
165.935	18.742	1240.734	946.596
166.950	18.912	1240.520	947.286
167.964	18.934	1239.407	946.476
168.979	18.816	1238.481	945.033
169.994	18.807	1237.636	944.260
171.008	18.824	1237.183	943.922
172.023	19.054	1236.097	944.271
173.037	19.248	1235.307	944.648
174.052	19.074	1234.534	943.018
175.067	18.821	1233.491	940.757
176.081	18.746	1232.337	939.379
177.096	18.800	1230.970	938.553
178.110	18.826	1230.333	938.124
179.125	18.838	1228.904	937.016
180.140	18.971	1227.547	936.625
181.154	18.975	1226.700	935.916
182.169	18.998	1225.620	935.134
183.183	19.094	1224.545	934.751
184.198	19.286	1223.257	934.728
185.213	19.296	1222.206	933.897
186.227	19.231	1221.496	932.919
187.242	19.314	1220.472	932.507
188.256	19.372	1219.746	932.182
189.271	19.344	1218.480	930.982
190.286	19.127	1217.302	928.824
191.300	18.841	1216.092	926.282
192.315	18.578	1215.111	924.035
193.329	18.661	1214.834	924.188
194.344	18.896	1214.010	924.747
195.359	18.870	1214.420	924.835
196.373	18.914	1213.977	924.653
197.388	19.147	1213.247	925.266
198.402	19.274	1213.272	925.888
199.417	19.539	1212.251	926.446
200.432	19.566	1211.770	926.142
201.446	19.599	1210.967	925.624
202.461	19.727	1210.150	925.601
203.475	19.700	1208.616	924.202
204.490	19.495	1207.613	922.259
205.504	19.380	1206.146	920.446
206.519	19.310	1204.959	919.084
207.534	19.299	1203.920	918.153
208.548	19.312	1202.987	917.426
209.563	19.268	1202.227	916.535
210.577	19.263	1201.459	915.838
211.592	19.462	1200.318	915.945
212.607	19.563	1199.948	916.115
213.621	19.547	1198.916	915.166
214.636	19.573	1197.850	914.407
215.650	19.466	1197.167	913.240
216.665	19.646	1196.168	913.349
217.680	19.638	1195.480	912.697
218.694	19.788	1194.837	912.919
219.709	19.713	1193.981	911.790
220.723	19.722	1192.894	910.926
221.738	19.756	1192.341	910.600
222.753	19.637	1192.041	909.662
223.767	19.570	1191.314	908.679
224.782	19.886	1190.231	909.433
225.796	19.834	1189.830	908.772
226.811	19.774	1189.380	908.034
227.826	19.700	1188.068	906.560
228.840	19.604	1187.807	905.779
229.855	19.631	1186.642	904.954
230.869	19.706	1185.747	904.584
231.884	19.494	1185.829	903.456
232.899	19.570	1184.114	902.464
233.913	19.472	1183.693	901.552
234.928	19.405	1183.019	900.608
235.942	19.390	1182.168	899.804
236.957	19.336	1181.267	898.755
237.972	19.470	1180.245	898.597
238.986	19.433	1179.828	898.009
240.001	19.520	1179.298	897.980
241.015	19.616	1177.798	897.256
242.030	19.535	1177.340	896.405
243.045	19.755	1176.840	897.087
244.059	19.800	1175.802	896.452
245.074	19.780	1175.289	895.876
246.088	19.823	1174.843	895.680
247.103	19.934	1173.963	895.506
248.117	20.022	1173.410	895.456
249.132	20.302	1172.652	896.246
250.147	20.389	1172.174	896.251
251.161	20.510	1171.948	896.623
252.176	20.415	1171.351	895.598
253.190	20.633	1170.555	896.032
254.205	20.557	1170.044	895.171
255.220	20.630	1169.378	894.956
256.234	20.541	1168.812	893.990
257.249	20.610	1168.036	893.669
258.263	20.582	1167.257	892.850
259.278	20.585	1166.360	892.099
260.293	20.690	1166.051	892.323
261.307	20.667	1165.729	891.880
262.322	20.720	1164.814	891.373
263.336	20.730	1164.134	890.825
264.351	20.750	1163.384	890.275
265.366	20.678	1163.197	889.687
266.380	20.782	1162.023	889.241
267.395	20.633	1161.294	887.843
268.409	20.616	1160.225	886.861
269.424	20.534	1159.577	885.870
270.439	20.452	1159.306	885.163
271.453	20.389	1158.222	883.940
272.468	20.510	1157.234	883.722
273.482	20.386	1156.572	882.505
274.497	20.428	1156.329	882.458
275.512	20.339	1155.668	881.420
276.526	20.479	1154.407	881.095
277.541	20.381	1154.032	880.233
278.555	20.361	1153.415	879.582
279.570	20.681	1152.501	880.426
280.585	20.782	1152.027	880.497
281.599	20.850	1151.033	880.003
282.614	20.612	1149.675	877.684
283.628	20.605	1148.190	876.440
284.643	20.487	1147.555	875.283
285.657	20.547	1146.803	874.932
286.672	20.586	1146.286	874.658
287.687	20.632	1145.121	873.926
288.701	20.638	1144.728	873.575
289.716	20.701	1143.763	873.080
290.730	20.646	1142.728	871.934
291.745	20.774	1141.815	871.805
292.760	20.807	1141.579	871.709
293.774	20.781	1141.007	871.069
294.789	20.917	1140.947	871.626
295.803	20.990	1139.637	870.912
296.818	20.713	1139.152	869.081
297.833	20.658	1138.510	868.239
298.847	20.647	1137.459	867.307
299.862	20.748	1136.875	867.285
300.876	20.772	1136.194	866.810
301.891	20.715	1136.024	866.321
302.906	20.897	1135.283	866.585
303.920	21.074	1134.489	866.783
304.935	21.261	1133.921	867.197
305.949	21.348	1132.768	866.671
306.964	21.264	1132.294	865.818
307.979	21.025	1131.733	864.127
308.993	20.964	1130.984	863.174
310.008	21.030	1130.445	863.015
311.022	21.173	1129.820	863.167
312.037	21.091	1128.948	862.021
313.052	21.067	1127.831	860.974
314.066	20.842	1126.843	859.032
315.081	20.868	1125.565	858.109
316.095	20.728	1124.825	856.782
317.110	20.800	1123.889	856.345
318.125	20.801	1123.586	856.046
319.139	20.740	1122.805	855.077
320.154	20.646	1122.356	854.197
321.168	20.816	1121.141	854.027
322.183	20.818	1120.953	853.822
323.197	20.767	1120.224	852.939
324.212	20.914	1119.606	853.115
325.227	20.905	1119.044	852.563
326.241	21.038	1118.439	852.680
327.256	20.933	1117.594	851.447
328.270	20.933	1116.546	850.575
329.285	20.907	1115.760	849.772
330.300	20.868	1114.905	848.857
331.314	20.857	1113.810	847.892
332.329	20.882	1113.074	847.381
333.343	20.989	1112.212	847.169
334.358	21.034	1111.464	846.741
335.373	21.302	1110.649	847.344
336.387	21.171	1110.167	846.270
337.402	21.243	1109.476	846.018
338.416	21.216	1109.037	845.476
339.431	21.356	1108.075	845.345
340.446	21.425	1107.732	845.342
341.460	21.562	1107.088	845.438
342.475	21.714	1106.148	845.377
343.489	21.564	1105.619	844.177
344.504	21.668	1104.688	843.888
345.519	21.613	1104.083	843.090
346.533	21.863	1103.116	843.476
347.548	21.686	1102.567	842.131
348.562	21.738	1101.490	841.488
349.577	21.586	1100.334	839.797
350.592	21.489	1099.537	838.652
351.606	21.192	1098.954	836.709
352.621	21.211	1097.983	835.987
353.635	21.290	1097.030	835.565
354.650	21.258	1096.570	834.989
355.665	21.325	1095.781	834.635
356.679	21.398	1095.286	834.529
357.694	21.391	1094.996	834.205
358.708	21.488	1094.176	833.965
359.723	21.544	1093.610	833.729
360.738	21.474	1092.710	832.636
361.752	21.612	1092.134	832.780
362.767	21.587	1091.609	832.185
363.781	21.569	1091.189	831.706
364.796	21.638	1090.650	831.552
365.810	21.792	1090.021	831.729
366.825	22.024	1089.599	832.430
367.840	22.197	1088.849	832.605
368.854	22.182	1088.566	832.243
369.869	22.082	1087.845	831.147
370.883	22.020	1086.973	830.113
371.898	21.915	1085.901	828.725
372.913	21.997	1085.063	828.400
373.927	21.961	1085.156	828.225
374.942	22.047	1084.612	828.145
375.956	22.011	1083.774	827.263
376.971	22.011	1083.007	826.601
377.986	22.038	1082.840	826.531
379.000	22.204	1082.050	826.632
380.015	22.373	1081.636	827.037
381.029	22.320	1081.319	826.473
382.044	22.289	1080.432	825.577
383.059	22.230	1079.840	824.775
384.073	22.144	1079.542	824.073
385.088	22.295	1078.001	823.529
386.102	22.261	1076.886	822.445
387.117	22.112	1075.776	820.828
388.132	21.896	1075.127	819.254
389.146	21.886	1074.180	818.413
390.161	21.853	1073.623	817.761
391.175	21.959	1072.511	817.337
392.190	21.985	1072.305	817.227
393.205	22.358	1071.463	818.250
394.219	22.198	1070.988	817.068
395.234	22.178	1070.135	816.251
396.248	22.026	1068.553	814.268
397.263	22.020	1067.585	813.431
398.278	21.893	1066.893	812.244
399.292	21.897	1066.005	811.513
400.307	21.889	1065.241	810.827
401.321	21.897	1064.707	810.385
402.336	21.860	1063.979	809.588
403.350	21.802	1063.495	808.878
404.365	21.853	1062.987	808.655
405.380	22.058	1062.363	809.055
406.394	22.128	1061.334	808.521
407.409	22.277	1060.636	808.603
408.423	22.347	1060.137	808.471
409.438	22.390	1059.431	808.062
410.453	22.507	1059.316	808.439
411.467	22.444	1058.188	807.218
412.482	22.524	1057.833	807.243
413.496	22.471	1057.431	806.622
414.511	22.620	1056.574	806.576
415.526	22.761	1056.201	806.865
416.540	22.852	1055.730	806.849
417.555	22.762	1055.272	806.019
418.569	22.616	1054.621	804.783
419.584	22.471	1054.329	803.828
420.599	22.583	1053.840	803.895
421.613	154.072	1399.478	1789.096
422.628	141.503	1449.844	1789.203
