DTS Sentinel unit serial number:	SN413079Multiplexer serial number:	ORYXHardware model number:	OX4-SRSoftware version number:	ORYX F/W v4.00 Oryx Data Collector v3.7.2.0data status	okinstallation	princeton_trtdifferential loss correction	single-endedforward channel	channel 2reverse channel	N/Adate	2019/09/12time	07:21:11forward acquisition time	60.00reverse acquisition time	0.00gamma	496.2192k internal	0.2324k external	0.2324temperature offset calibration	1.0059default loss term (dB/km)	0.3790temperature slope calibration	1.0000multiplexer offset coefficient	1.0000multiplexer slope coefficient	1.0000fibre end	0.00T internal ref (°C)	32.31T ext. ref 1 (°C)	1.60T ext. ref 2 (°C)	28.66length (m)	temperature (°C)	Stokes	anti-Stokes-747.200	-30.639	-0.153	-0.087
-746.185	26.014	-0.141	-0.119
-745.171	47.050	-0.165	-0.155
-744.156	-122.748	-0.082	0.013
-743.142	3.686	0.283	0.208
-742.127	59.050	-0.197	0.196
-741.112	40.406	-0.128	-0.116
-740.098	269.384	-0.107	0.190
-739.083	-200.000	-0.015	0.396
-738.069	-200.000	0.017	0.423
-737.054	-200.000	-0.129	0.641
-736.039	-200.000	0.018	-0.221
-735.025	271.126	-0.044	-0.078
-734.010	-92.004	0.161	-0.046
-732.996	-200.000	-0.001	0.237
-731.981	800.000	-0.023	0.074
-730.966	-58.222	0.099	-0.044
-729.952	-50.265	-0.236	0.113
-728.937	-45.201	0.106	-0.053
-727.923	16.790	-0.352	-0.281
-726.908	-36.747	-0.161	0.087
-725.894	204.095	-0.100	0.156
-724.879	-19.632	-0.239	0.149
-723.864	25.950	0.163	0.137
-722.850	800.000	-0.032	-0.105
-721.835	-115.524	-0.039	0.007
-720.821	43.576	-0.174	0.160
-719.806	-92.601	0.172	0.049
-718.791	-200.000	-0.012	-0.144
-717.777	560.616	-0.160	-0.389
-716.762	-2.598	-0.064	-0.045
-715.748	800.000	0.048	0.158
-714.733	5.181	-0.207	0.153
-713.718	-37.628	-0.188	-0.101
-712.704	-98.074	-0.512	-0.133
-711.689	-55.800	-0.175	0.079
-710.675	-200.000	0.017	0.148
-709.660	705.138	-0.051	-0.136
-708.645	-147.275	0.138	0.012
-707.631	193.756	0.100	0.153
-706.616	42.044	0.180	-0.165
-705.602	-200.000	0.003	-0.067
-704.587	110.902	0.259	0.314
-703.572	-197.237	-0.316	-0.002
-702.558	-20.034	-0.225	-0.140
-701.543	-31.425	0.077	-0.044
-700.529	-9.722	-0.128	0.086
-699.514	-13.960	-0.043	0.028
-698.499	-140.420	-0.052	-0.006
-697.485	84.990	0.154	0.170
-696.470	-54.483	-0.498	0.227
-695.456	-27.275	0.209	-0.123
-694.441	-124.381	0.378	0.059
-693.426	-84.663	0.074	-0.023
-692.412	-38.984	-0.178	0.094
-691.397	-41.047	-0.014	-0.008
-690.383	-78.969	0.141	0.048
-689.368	9.913	-0.412	0.315
-688.354	190.557	-0.251	-0.380
-687.339	3.179	0.328	-0.240
-686.324	800.000	0.060	-0.170
-685.310	84.865	0.063	-0.069
-684.295	27.435	-0.311	0.263
-683.281	-29.413	-0.225	0.130
-682.266	-1.516	-0.257	-0.182
-681.251	-71.924	0.113	0.042
-680.237	569.160	0.064	-0.157
-679.222	-26.621	-0.045	-0.026
-678.208	-98.453	0.247	-0.064
-677.193	202.158	-0.102	-0.158
-676.178	-200.000	0.010	0.266
-675.164	-200.000	-0.015	0.078
-674.149	800.000	-0.117	0.360
-673.135	-86.033	-0.363	0.113
-672.120	688.501	-0.104	0.275
-671.105	-76.236	-0.214	-0.076
-670.091	343.026	-0.122	0.241
-669.076	-83.187	0.187	0.061
-668.062	-127.585	-0.260	0.038
-667.047	133.997	-0.081	0.105
-666.032	86.304	-0.166	0.184
-665.018	-145.387	0.111	-0.010
-664.003	-200.000	-0.040	-0.249
-662.989	-176.237	-0.244	0.006
-661.974	-103.919	-0.205	-0.048
-660.959	9.306	0.178	0.136
-659.945	636.340	0.150	0.384
-658.930	166.978	0.269	-0.383
-657.916	800.000	-0.103	-0.334
-656.901	-50.035	0.046	-0.022
-655.886	26.734	0.050	-0.042
-654.872	141.167	-0.067	-0.090
-653.857	-116.449	0.275	-0.051
-652.843	-89.897	-0.234	0.069
-651.828	170.670	0.068	0.099
-650.814	-200.000	-0.001	0.068
-649.799	227.888	0.051	-0.083
-648.784	135.850	-0.103	-0.134
-647.770	-96.094	0.165	-0.044
-646.755	-200.000	-0.028	-0.317
-645.741	-63.433	0.291	-0.120
-644.726	-90.500	0.262	-0.076
-643.711	-106.909	-0.078	0.017
-642.697	800.000	-0.057	-0.191
-641.682	19.830	0.240	-0.194
-640.668	-200.000	-0.031	-0.287
-639.653	-113.933	-0.396	-0.077
-638.638	12.620	0.106	-0.082
-637.624	-76.159	-0.326	0.116
-636.609	283.347	-0.171	0.308
-635.595	-31.525	-0.061	-0.035
-634.580	403.820	0.067	0.143
-633.565	94.765	0.087	-0.099
-632.551	-120.760	-0.174	-0.030
-631.536	-200.000	-0.070	0.414
-630.522	-134.487	-0.335	-0.041
-629.507	22.866	-0.206	0.170
-628.492	-143.905	0.349	-0.033
-627.478	269.317	-0.089	-0.157
-626.463	239.415	0.089	-0.148
-625.449	800.000	-0.097	0.286
-624.434	2.150	0.131	0.095
-623.419	98.794	0.159	-0.185
-622.405	97.071	-0.164	0.189
-621.390	-86.089	0.237	0.074
-620.376	-71.106	0.141	-0.053
-619.361	800.000	-0.033	-0.121
-618.346	42.726	-0.177	-0.162
-617.332	11.142	-0.226	-0.174
-616.317	-33.019	0.249	-0.139
-615.303	-7.314	-0.152	-0.104
-614.288	330.053	0.111	-0.214
-613.273	-200.000	-0.043	-0.295
-612.259	-95.485	0.144	0.039
-611.244	-36.314	-0.210	-0.114
-610.230	-200.000	0.014	-0.093
-609.215	154.525	0.054	-0.074
-608.201	-105.749	-0.189	0.043
-607.186	800.000	-0.017	0.070
-606.171	196.718	-0.175	0.267
-605.157	237.779	0.158	0.263
-604.142	704.900	-0.043	0.115
-603.128	-56.749	-0.136	-0.060
-602.113	800.000	-0.102	0.375
-601.098	293.167	-0.194	-0.355
-600.084	-13.373	0.130	-0.085
-599.069	-33.777	0.290	-0.160
-598.055	-200.000	-0.262	0.001
-597.040	800.000	0.042	-0.117
-596.025	-76.975	-0.263	0.092
-595.011	87.305	0.154	-0.171
-593.996	800.000	0.063	0.247
-592.982	252.196	-0.070	0.119
-591.967	149.299	-0.232	-0.315
-590.952	-15.255	0.204	-0.131
-589.938	279.028	-0.052	0.093
-588.923	-200.000	-0.037	-0.172
-587.909	235.835	-0.047	-0.078
-586.894	-171.872	-0.087	-0.003
-585.879	-127.810	-0.026	-0.004
-584.865	-30.329	-0.126	0.072
-583.850	9.929	-0.255	-0.194
-582.836	800.000	0.033	0.100
-581.821	-166.892	-0.278	0.011
-580.806	-136.130	-0.263	0.031
-579.792	-111.514	0.095	0.019
-578.777	-200.000	0.060	-0.339
-577.763	-110.607	0.282	0.059
-576.748	-133.294	-0.629	-0.080
-575.733	34.988	-0.232	0.204
-574.719	-200.000	0.061	0.289
-573.704	238.395	-0.091	0.151
-572.690	128.279	0.040	-0.051
-571.675	145.783	-0.058	0.078
-570.661	800.000	0.091	0.322
-569.646	-58.664	0.324	0.141
-568.631	778.483	-0.064	0.176
-567.617	-68.081	-0.215	0.084
-566.602	-200.000	-0.026	-0.147
-565.588	533.137	0.061	-0.144
-564.573	54.223	0.087	0.084
-563.558	112.850	0.166	-0.202
-562.544	-65.018	-0.287	0.116
-561.529	-56.081	-0.359	0.160
-560.515	62.027	-0.191	0.191
-559.500	4.468	0.182	0.134
-558.485	79.191	0.104	-0.111
-557.471	-89.102	-0.102	0.030
-556.456	-200.000	-0.010	0.229
-555.442	-53.885	0.120	0.055
-554.427	-200.000	-0.027	-0.154
-553.412	59.087	0.139	-0.137
-552.398	-88.092	0.033	0.010
-551.383	-144.336	-0.183	0.017
-550.369	-159.647	0.227	0.013
-549.354	-200.000	0.000	-0.035
-548.339	-83.969	0.286	-0.091
-547.325	75.241	-0.145	-0.153
-546.310	-200.000	0.000	-0.104
-545.296	-66.856	-0.154	-0.061
-544.281	-200.000	0.047	-0.522
-543.266	455.334	-0.076	0.169
-542.252	-80.872	-0.104	0.035
-541.237	-45.791	-0.168	0.083
-540.223	-21.842	0.204	-0.124
-539.208	-160.164	0.203	0.011
-538.193	-29.295	0.185	-0.106
-537.179	193.476	-0.246	-0.373
-536.164	-58.166	0.296	0.129
-535.150	-200.000	0.049	0.295
-534.135	217.017	-0.033	-0.053
-533.121	430.168	-0.214	0.464
-532.106	38.554	-0.114	-0.102
-531.091	110.685	-0.150	0.181
-530.077	175.466	0.023	-0.033
-529.062	530.823	-0.216	-0.510
-528.048	554.150	0.091	-0.218
-527.033	40.710	-0.243	-0.219
-526.018	800.000	0.017	-0.052
-525.004	18.775	0.061	0.049
-523.989	-39.640	-0.232	-0.122
-522.975	-33.868	-0.284	-0.157
-521.960	-200.000	-0.043	0.224
-520.945	-200.000	-0.003	0.050
-519.931	-42.044	-0.188	0.096
-518.916	800.000	-0.069	0.251
-517.902	435.606	0.054	0.119
-516.887	-200.000	-0.111	-0.504
-515.872	-200.000	0.018	0.193
-514.858	800.000	-0.082	0.255
-513.843	-200.000	-0.010	0.368
-512.829	-200.000	0.007	-0.121
-511.814	224.855	-0.006	-0.010
-510.799	-200.000	0.009	0.133
-509.785	16.862	-0.090	0.072
-508.770	-21.062	-0.215	0.132
-507.756	-29.038	-0.146	0.084
-506.741	-71.412	0.142	0.053
-505.726	-200.000	-0.066	-0.393
-504.712	-8.772	-0.077	0.051
-503.697	-53.253	0.297	0.136
-502.683	-148.668	-0.111	-0.009
-501.668	279.172	-0.225	0.401
-500.653	-200.000	-0.349	0.001
-499.639	770.654	-0.039	0.107
-498.624	-76.660	0.312	0.109
-497.610	-125.168	-0.410	-0.063
-496.595	56.760	0.096	-0.093
-495.581	526.234	0.057	0.134
-494.566	-61.239	-0.092	0.039
-493.551	-177.922	-0.111	0.003
-492.537	20.936	-0.209	-0.170
-491.522	-200.000	0.119	-0.674
-490.508	51.295	0.146	-0.138
-489.493	80.903	-0.112	0.121
-488.478	-78.087	-0.320	-0.110
-487.464	85.890	0.125	-0.137
-486.449	-25.617	-0.166	0.098
-485.435	21.236	-0.203	0.165
-484.420	-100.859	-0.280	-0.069
-483.405	-138.506	0.206	0.023
-482.391	-125.874	0.224	-0.034
-481.376	-77.472	0.207	0.072
-480.362	487.827	-0.216	-0.492
-479.347	-159.331	-0.275	0.015
-478.332	129.208	0.241	0.307
-477.318	-7.447	0.085	-0.057
-476.303	800.000	-0.092	-0.280
-475.289	372.087	-0.054	0.110
-474.274	-43.107	0.289	-0.146
-473.259	124.651	0.054	-0.068
-472.245	800.000	0.129	0.365
-471.230	800.000	0.066	0.280
-470.216	428.390	0.079	-0.171
-469.201	-22.447	0.279	0.168
-468.186	80.676	0.114	-0.123
-467.172	-200.000	-0.000	0.084
-466.157	151.949	0.058	0.079
-465.143	-200.000	-0.010	0.110
-464.128	371.256	0.150	-0.304
-463.113	-105.179	-0.193	0.044
-462.099	-104.401	0.262	-0.061
-461.084	25.358	-0.089	0.074
-460.070	800.000	-0.084	0.310
-459.055	274.453	0.058	-0.103
-458.040	-200.000	0.017	-0.395
-457.026	-111.869	-0.271	0.055
-456.011	-200.000	0.003	0.160
-454.997	-187.315	0.375	-0.005
-453.982	-123.461	0.290	-0.046
-452.968	800.000	0.028	0.113
-451.953	-55.478	0.126	0.056
-450.938	459.357	0.061	-0.135
-449.924	-200.000	-0.050	0.223
-448.909	-2.588	0.194	0.136
-447.895	-200.000	-0.034	0.253
-446.880	-79.507	0.104	-0.035
-445.865	-200.000	0.010	-0.299
-444.851	800.000	-0.057	-0.169
-443.836	-103.823	-0.171	-0.040
-442.822	182.077	0.138	-0.202
-441.807	-106.259	-0.251	-0.056
-440.792	800.000	-0.026	0.079
-439.778	145.132	-0.191	0.255
-438.763	-102.759	0.302	0.072
-437.749	-91.795	0.257	-0.073
-436.734	-0.025	-0.269	0.191
-435.719	-200.000	-0.035	0.186
-434.705	-200.000	-0.008	-0.054
-433.690	-131.096	0.179	0.024
-432.676	-200.000	-0.011	0.050
-431.661	-103.799	0.288	0.067
-430.646	-200.000	0.011	0.060
-429.632	-86.355	0.529	0.162
-428.617	-136.985	-0.316	-0.036
-427.603	601.248	0.061	0.152
-426.588	-200.000	-0.024	-0.176
-425.573	-93.322	0.272	-0.075
-424.559	-57.401	-0.206	-0.090
-423.544	800.000	-0.066	0.243
-422.530	-1.619	-0.279	0.196
-421.515	-200.000	0.002	-0.123
-420.500	-200.000	0.036	-0.250
-419.486	-200.000	0.003	0.411
-418.471	-38.060	0.169	0.089
-417.457	-36.064	-0.296	-0.159
-416.442	-200.000	0.051	0.227
-415.428	-66.219	0.318	-0.126
-414.413	173.588	-0.136	0.195
-413.398	-29.265	-0.347	-0.198
-412.384	-34.770	0.205	0.111
-411.369	71.905	-0.199	0.206
-410.355	-200.000	0.024	0.335
-409.340	-28.454	-0.204	0.117
-408.325	-28.504	-0.394	0.226
-407.311	-200.000	0.003	-0.062
-406.296	493.268	0.118	0.269
-405.282	45.995	-0.064	-0.059
-404.267	115.723	0.044	-0.054
-403.252	800.000	0.040	0.114
-402.238	418.370	-0.083	0.176
-401.223	-97.701	0.446	0.115
-400.209	-200.000	-0.027	-0.134
-399.194	-134.570	-0.261	-0.032
-398.179	415.456	0.179	-0.380
-397.165	-8.596	0.195	-0.131
-396.150	585.190	0.046	-0.114
-395.136	-88.946	0.328	-0.097
-394.121	-77.781	-0.072	-0.025
-393.106	-46.404	-0.061	-0.030
-392.092	800.000	0.015	-0.051
-391.077	125.785	0.076	0.095
-390.063	478.313	-0.102	-0.230
-389.048	5.248	0.138	-0.101
-388.033	65.249	-0.114	0.115
-387.019	800.000	0.037	-0.140
-386.004	-5.024	0.084	0.057
-384.990	-123.212	0.165	-0.026
-383.975	117.764	0.073	0.089
-382.960	-5.612	-0.274	-0.187
-381.946	264.808	-0.232	-0.402
-380.931	244.024	0.136	0.227
-379.917	-183.377	0.292	-0.005
-378.902	15.550	0.358	-0.280
-377.888	45.587	-0.060	-0.055
-376.873	597.066	0.079	0.196
-375.858	800.000	0.164	-0.585
-374.844	-52.974	-0.298	-0.136
-373.829	-200.000	-0.007	0.042
-372.815	55.227	0.035	-0.034
-371.800	-200.000	-0.182	0.001
-370.785	47.234	-0.030	-0.027
-369.771	-65.897	0.133	-0.053
-368.756	-101.400	-0.161	-0.039
-367.742	-64.713	0.168	-0.068
-366.727	-108.144	0.118	-0.025
-365.712	-200.000	0.016	-0.088
-364.698	31.176	-0.144	0.123
-363.683	-116.366	0.338	0.062
-362.669	127.235	0.175	-0.221
-361.654	104.033	-0.195	-0.228
-360.639	-34.977	-0.111	-0.060
-359.625	-58.600	-0.421	-0.181
-358.610	-200.000	0.063	-0.365
-357.596	120.121	0.152	-0.188
-356.581	334.981	0.072	-0.140
-355.566	-98.544	-0.109	-0.028
-354.552	-106.023	-0.364	-0.081
-353.537	-10.037	-0.084	-0.055
-352.523	-171.492	0.075	-0.002
-351.508	800.000	-0.041	0.144
-350.493	-200.000	0.297	-0.000
-349.479	-188.538	-0.226	0.003
-348.464	800.000	-0.044	0.192
-347.450	592.571	0.119	0.291
-346.435	800.000	0.068	0.239
-345.420	184.413	-0.118	-0.173
-344.406	-41.908	0.189	0.096
-343.391	132.155	0.171	-0.219
-342.377	364.733	0.077	-0.154
-341.362	-140.029	0.132	-0.014
-340.348	-89.052	0.254	-0.075
-339.333	413.527	-0.160	0.337
-338.318	800.000	0.040	0.173
-337.304	138.770	0.157	-0.205
-336.289	21.882	-0.148	0.120
-335.275	-200.000	-0.056	-0.306
-334.260	-200.000	-0.026	0.145
-333.245	790.489	0.111	0.302
-332.231	-200.000	-0.011	0.105
-331.216	91.850	-0.076	-0.085
-330.202	-97.040	0.291	-0.076
-329.187	-5.251	0.195	0.133
-328.172	-200.000	-0.058	0.474
-327.158	4.660	0.182	0.133
-326.143	-200.000	-0.035	0.376
-325.129	253.443	0.166	0.281
-324.114	-48.992	0.313	0.149
-323.099	-44.890	-0.268	-0.132
-322.085	-200.000	0.055	0.418
-321.070	-52.038	-0.130	0.060
-320.056	647.068	-0.035	-0.089
-319.041	64.748	0.198	0.198
-318.026	500.925	0.170	-0.389
-317.012	-200.000	-0.019	0.127
-315.997	-200.000	-0.008	-0.055
-314.983	-54.695	-0.191	0.086
-313.968	-200.000	-0.039	0.227
-312.953	-2.162	-0.079	0.055
-311.939	800.000	0.082	-0.237
-310.924	211.664	0.095	0.148
-309.910	-200.000	0.011	-0.181
-308.895	-71.536	0.111	0.041
-307.880	-103.876	-0.229	-0.053
-306.866	10.980	0.266	0.201
-305.851	317.648	0.049	-0.093
-304.837	-200.000	0.000	-0.156
-303.822	-200.000	-0.088	-0.403
-302.807	-7.432	-0.335	0.225
-301.793	-107.682	0.274	-0.059
-300.778	4.430	0.180	-0.131
-299.764	-2.163	-0.258	-0.180
-298.749	209.043	-0.150	-0.233
-297.735	-122.186	0.198	-0.032
-296.720	-12.711	-0.129	-0.083
-295.705	-200.000	-0.007	0.066
-294.691	223.261	0.078	0.124
-293.676	-67.409	-0.169	0.066
-292.662	794.182	0.083	0.226
-291.647	-30.122	0.294	0.166
-290.632	333.304	-0.151	-0.290
-289.618	-200.000	0.029	-0.146
-288.603	800.000	0.149	-0.460
-287.589	-200.000	0.032	-0.206
-286.574	-87.470	0.255	-0.077
-285.559	-80.790	0.222	-0.073
-284.545	-101.138	-0.414	-0.101
-283.530	48.668	0.030	-0.028
-282.516	800.000	-0.056	-0.200
-281.501	800.000	-0.076	-0.252
-280.486	-43.729	-0.056	-0.028
-279.472	-200.000	0.029	-0.227
-278.457	-38.374	0.081	-0.042
-277.443	800.000	0.130	-0.394
-276.428	-200.000	0.016	-0.318
-275.413	800.000	0.042	-0.172
-274.399	109.853	0.185	0.220
-273.384	274.231	0.144	-0.252
-272.370	13.863	0.170	0.131
-271.355	228.841	0.061	0.099
-270.340	-200.000	0.012	0.161
-269.326	377.900	0.080	-0.162
-268.311	-45.580	-0.134	0.066
-267.297	238.234	0.213	0.351
-266.282	-200.000	-0.060	0.428
-265.267	103.198	0.349	0.406
-264.253	800.000	-0.083	-0.274
-263.238	-74.170	-0.313	-0.112
-262.224	-200.000	-0.042	-0.275
-261.209	87.616	-0.200	0.220
-260.195	-120.350	-0.158	-0.027
-259.180	-200.000	0.061	-0.322
-258.165	-112.380	0.191	-0.038
-257.151	-111.453	0.207	0.042
-256.136	-200.000	0.006	0.374
-255.122	24.890	-0.038	-0.031
-254.107	534.613	0.034	0.079
-253.092	214.749	0.045	-0.071
-252.078	-138.535	-0.179	-0.019
-251.063	396.646	-0.103	0.213
-250.049	-122.560	0.517	0.083
-249.034	513.825	0.100	0.231
-248.019	-200.000	-0.043	0.282
-247.005	90.491	0.099	0.110
-245.990	-19.504	0.180	0.110
-244.976	-200.000	-0.012	0.175
-243.961	327.380	-0.108	-0.206
-242.946	-200.000	-0.013	-0.155
-241.932	303.681	-0.160	-0.294
-240.917	158.564	-0.083	-0.114
-239.903	800.000	-0.092	-0.288
-238.888	134.363	-0.032	0.041
-237.873	-12.082	0.062	0.040
-236.859	-200.000	-0.036	-0.281
-235.844	111.890	-0.177	-0.212
-234.830	-30.729	-0.153	-0.086
-233.815	-51.684	0.151	0.070
-232.800	1.810	-0.052	0.037
-231.786	75.791	0.127	0.133
-230.771	-67.432	-0.191	-0.074
-229.757	-200.000	-0.043	-0.264
-228.742	-200.000	-0.001	0.161
-227.727	-69.384	-0.348	0.132
-226.713	68.211	-0.202	0.205
-225.698	40.910	0.224	0.200
-224.684	82.815	-0.195	-0.210
-223.669	800.000	0.063	0.181
-222.655	-149.967	0.261	-0.020
-221.640	-200.000	-0.006	0.151
-220.625	-15.677	0.122	0.077
-219.611	-200.000	0.006	-0.253
-218.596	-177.783	-0.340	-0.008
-217.582	252.818	0.159	0.269
-216.567	526.301	-0.134	0.312
-215.552	90.332	-0.258	0.285
-214.538	-77.845	-0.331	0.113
-213.523	-200.000	-0.006	-0.054
-212.509	800.000	0.074	-0.311
-211.494	10.664	0.093	0.070
-210.479	800.000	0.077	-0.242
-209.465	390.672	-0.043	-0.088
-208.450	-200.000	-0.000	-0.170
-207.436	-19.880	-0.160	0.097
-206.421	8.411	0.141	0.105
-205.406	-125.549	-0.467	-0.070
-204.392	87.266	-0.223	0.244
-203.377	-200.000	-0.048	0.306
-202.363	800.000	-0.218	0.720
-201.348	-59.883	-0.291	-0.123
-200.333	115.510	0.078	-0.094
-199.319	150.380	-0.132	-0.177
-198.304	13.149	-0.048	-0.037
-197.290	-200.000	-0.005	0.027
-196.275	-56.051	0.332	0.146
-195.260	296.798	-0.071	-0.129
-194.246	0.940	0.293	-0.207
-193.231	71.619	0.399	0.410
-192.217	-200.000	0.002	-0.105
-191.202	76.062	0.259	0.271
-190.187	-15.209	-0.296	0.187
-189.173	-28.307	0.264	-0.151
-188.158	-57.626	-0.114	-0.049
-187.144	-23.250	0.142	-0.084
-186.129	-146.192	0.032	-0.003
-185.114	40.103	0.336	-0.299
-184.100	-16.900	0.148	0.092
-183.085	-200.000	0.015	0.215
-182.071	800.000	0.004	0.015
-181.056	348.588	0.074	0.144
-180.042	-200.000	-0.006	0.502
-179.027	-55.932	0.144	-0.063
-178.012	0.477	-0.160	0.113
-176.998	800.000	0.094	-0.353
-175.983	-39.422	-0.092	-0.048
-174.969	-200.000	-0.006	0.078
-173.954	-200.000	-0.022	0.109
-172.939	121.208	0.140	0.172
-171.925	-135.386	0.125	-0.015
-170.910	101.834	0.157	-0.181
-169.896	61.741	-0.171	-0.168
-168.881	201.422	0.083	0.125
-167.866	-200.000	0.020	-0.132
-166.852	-83.560	-0.343	0.108
-165.837	800.000	0.152	0.442
-164.823	85.627	0.087	0.094
-163.808	36.910	0.164	-0.143
-162.793	599.717	-0.064	0.156
-161.779	-142.292	0.174	0.017
-160.764	-84.595	0.223	-0.069
-159.750	-12.445	-0.307	0.198
-158.735	-200.000	0.005	-0.213
-157.720	-97.551	-0.217	-0.056
-156.706	61.697	0.046	0.045
-155.691	-200.000	0.036	-0.198
-154.677	-147.132	0.270	-0.023
-153.662	14.722	0.300	0.231
-152.647	800.000	-0.051	0.212
-151.633	25.748	0.166	-0.136
-150.618	171.378	-0.085	0.121
-149.604	113.237	0.065	0.078
-148.589	784.712	-0.037	0.099
-147.574	-16.626	-0.143	-0.089
-146.560	-108.191	0.257	-0.055
-145.545	800.000	0.030	-0.119
-144.531	53.485	0.132	-0.125
-143.516	-89.122	0.540	-0.157
-142.502	51.556	-0.174	-0.163
-141.487	800.000	0.139	-0.427
-140.472	800.000	-0.017	-0.069
-139.458	417.868	-0.116	0.244
-138.443	-200.000	-0.001	0.044
-137.429	2.516	0.100	0.071
-136.414	-111.263	0.136	0.027
-135.399	106.071	-0.347	0.405
-134.385	43.319	-0.083	0.075
-133.370	253.356	0.115	-0.194
-132.356	-46.100	-0.305	-0.148
-131.341	278.643	0.201	0.353
-130.326	-16.287	0.060	-0.037
-129.312	-35.827	0.180	0.096
-128.297	-109.641	-0.181	0.037
-127.283	-178.639	0.227	-0.005
-126.268	122.531	-0.195	-0.240
-125.253	156.527	-0.058	0.078
-124.239	-200.000	-0.071	0.577
-123.224	-20.317	0.106	0.065
-122.210	-200.000	0.009	0.092
-121.195	-192.159	-0.053	0.000
-120.180	-200.000	-0.025	0.133
-119.166	-200.000	-0.008	-0.185
-118.151	-139.613	-0.282	0.030
-117.137	87.626	0.329	-0.359
-116.122	731.715	0.036	0.094
-115.107	-113.117	0.193	0.037
-114.093	67.306	-0.098	0.098
-113.078	233.830	0.042	0.069
-112.064	-25.596	-0.115	0.067
-111.049	-101.641	-0.129	0.031
-110.034	49.428	0.052	0.048
-109.020	-25.094	-0.299	-0.175
-108.005	73.075	0.058	0.060
-106.991	-130.455	-0.059	0.008
-105.976	-99.391	-0.081	-0.020
-104.962	-200.000	-0.021	-0.095
-103.947	315.642	-0.053	-0.099
-102.932	-108.056	0.165	-0.035
-101.918	3.834	0.228	0.164
-100.903	800.000	0.014	0.040
-99.889	-88.695	-0.354	-0.104
-98.874	-32.060	-0.228	0.126
-97.859	-100.206	-0.318	-0.078
-96.845	-123.801	0.028	0.004
-95.830	196.838	-0.176	-0.263
-94.816	-91.351	-0.540	0.152
-93.801	-200.000	0.040	0.364
-92.786	-200.000	0.009	0.254
-91.772	-167.166	-0.311	0.012
-90.757	800.000	0.112	0.332
-89.743	800.000	-0.091	0.377
-88.728	800.000	-0.090	0.290
-87.713	-14.837	0.166	-0.105
-86.699	-76.087	-0.037	0.013
-85.684	110.038	-0.119	0.141
-84.670	49.073	0.165	-0.152
-83.655	-200.000	0.053	-0.257
-82.640	-161.315	0.469	0.024
-81.626	-200.000	0.022	0.332
-80.611	-118.021	-0.127	-0.022
-79.597	800.000	-0.056	0.206
-78.582	-15.903	0.078	0.049
-77.567	416.836	0.146	0.307
-76.553	800.000	-0.074	0.214
-75.538	462.647	-0.073	0.161
-74.524	-200.000	0.029	-0.261
-73.509	-33.276	-0.188	-0.102
-72.494	272.344	-0.031	-0.054
-71.480	-79.202	0.016	-0.005
-70.465	-91.851	-0.188	-0.052
-69.451	-86.438	-0.054	0.016
-68.436	800.000	0.138	-0.404
-67.422	52.950	-0.107	0.101
-66.407	371.284	-0.196	-0.391
-65.392	346.371	0.091	-0.176
-64.378	319.510	-0.034	0.064
-63.363	-194.272	0.276	0.002
-62.349	-111.154	0.101	-0.020
-61.334	134.563	-0.727	-0.927
-60.319	492.797	0.156	0.351
-59.305	429.578	-0.374	-0.795
-58.290	326.808	0.533	1.004
-57.276	768.651	0.604	1.615
-56.261	-200.000	96.507	585.891
-55.246	555.780	1387.620	3283.947
-54.232	157.716	2576.574	3507.224
-53.217	106.458	2278.077	2654.209
-52.203	41.703	1900.269	1692.019
-51.188	35.652	1689.192	1458.281
-50.173	32.941	1644.923	1399.939
-49.159	50.407	1691.491	1571.167
-48.144	52.169	1708.061	1599.723
-47.130	35.238	1668.660	1437.223
-46.115	32.416	1654.846	1404.243
-45.100	32.337	1649.216	1398.819
-44.086	32.157	1646.506	1395.130
-43.071	32.198	1644.124	1393.364
-42.057	32.222	1641.246	1391.048
-41.042	32.239	1639.482	1389.618
-40.027	32.272	1637.932	1388.494
-39.013	32.174	1635.937	1386.026
-37.998	32.180	1634.383	1384.697
-36.984	32.295	1632.709	1384.071
-35.969	32.271	1631.576	1382.883
-34.954	32.350	1629.809	1381.909
-33.940	32.286	1628.363	1380.156
-32.925	32.338	1626.637	1379.020
-31.911	32.257	1624.999	1376.983
-30.896	32.333	1623.009	1375.800
-29.881	32.259	1620.902	1373.420
-28.867	32.331	1619.112	1372.372
-27.852	32.268	1618.149	1371.042
-26.838	32.296	1616.484	1369.779
-25.823	32.300	1615.320	1368.770
-24.809	32.364	1613.851	1367.935
-23.794	32.257	1612.642	1366.080
-22.779	32.374	1611.173	1365.628
-21.765	32.284	1609.668	1363.647
-20.750	32.316	1607.929	1362.353
-19.736	32.345	1606.570	1361.356
-18.721	32.357	1605.159	1360.195
-17.706	32.340	1603.235	1358.388
-16.692	32.349	1602.074	1357.412
-15.677	32.326	1600.762	1356.084
-14.663	32.394	1599.433	1355.391
-13.648	32.424	1597.595	1353.997
-12.633	32.319	1596.636	1352.372
-11.619	32.314	1594.779	1350.715
-10.604	32.365	1593.479	1349.926
-9.590	32.383	1592.177	1348.900
-8.575	32.351	1590.541	1347.231
-7.560	32.296	1589.860	1346.205
-6.546	32.400	1588.630	1345.851
-5.531	32.367	1587.289	1344.425
-4.517	32.342	1585.839	1342.970
-3.502	32.384	1584.868	1342.391
-2.487	32.423	1583.072	1341.096
-1.473	32.146	1572.216	1329.884
-0.458	29.852	1553.172	1297.656
0.556	26.340	1554.130	1268.166
1.571	24.163	1578.815	1272.663
2.586	23.691	1592.291	1280.009
3.600	20.829	1536.817	1215.366
4.615	11.167	1425.003	1064.018
5.629	2.927	1359.836	963.736
6.644	1.747	1351.351	950.279
7.659	1.581	1350.491	948.556
8.673	1.615	1349.064	947.679
9.688	1.457	1347.152	945.272
10.702	1.221	1344.436	941.815
11.717	4.699	1351.034	968.024
12.731	14.806	1370.854	1045.676
13.746	23.515	1385.422	1111.526
14.761	25.899	1388.612	1128.934
15.775	26.162	1388.771	1130.614
16.790	26.251	1387.953	1130.403
17.804	26.428	1387.204	1130.804
18.819	26.677	1386.967	1132.063
19.834	26.664	1386.434	1131.448
20.848	26.718	1385.874	1131.225
21.863	26.805	1384.690	1130.707
22.877	26.699	1383.719	1129.149
23.892	26.780	1382.926	1128.907
24.907	26.826	1382.105	1128.426
25.921	26.775	1381.206	1127.273
26.936	26.666	1380.394	1125.833
27.950	26.617	1379.401	1124.622
28.965	26.716	1377.851	1123.868
29.980	26.685	1376.958	1122.849
30.994	26.767	1375.609	1122.160
32.009	26.696	1374.517	1120.730
33.023	26.804	1373.489	1120.460
34.038	26.730	1372.749	1119.300
35.053	26.891	1371.154	1118.892
36.067	26.729	1370.590	1117.336
37.082	26.771	1369.643	1116.722
38.096	26.734	1368.670	1115.602
39.111	26.725	1367.893	1114.816
40.126	26.876	1367.299	1115.162
41.140	26.741	1366.814	1113.838
42.155	26.785	1366.525	1113.773
43.169	26.742	1366.693	1113.547
44.184	26.691	1366.181	1112.717
45.199	26.808	1365.350	1112.664
46.213	26.837	1364.910	1112.380
47.228	26.821	1364.246	1111.642
48.242	26.765	1362.994	1110.184
49.257	26.725	1361.649	1108.743
50.271	26.763	1360.131	1107.645
51.286	26.751	1358.710	1106.316
52.301	26.672	1357.855	1105.038
53.315	26.703	1356.904	1104.357
54.330	26.713	1356.245	1103.784
55.344	26.780	1354.903	1103.002
56.359	26.739	1353.959	1101.888
57.374	26.712	1352.889	1100.756
58.388	26.709	1352.387	1100.230
59.403	26.767	1351.951	1100.131
60.417	26.733	1351.211	1099.223
61.432	26.786	1350.907	1099.201
62.447	26.777	1349.692	1098.060
63.461	26.708	1348.730	1096.762
64.476	26.682	1347.739	1095.701
65.490	26.644	1346.541	1094.404
66.505	26.794	1344.837	1093.822
67.520	26.793	1343.857	1092.927
68.534	26.764	1343.375	1092.263
69.549	26.662	1342.061	1090.480
70.563	26.719	1341.475	1090.253
71.578	26.716	1340.431	1089.293
72.593	26.815	1339.380	1088.934
73.607	26.731	1339.239	1088.217
74.622	26.748	1337.844	1087.091
75.636	26.764	1337.616	1086.905
76.651	26.868	1336.610	1086.617
77.666	26.799	1336.182	1085.756
78.680	26.722	1335.840	1084.920
79.695	26.767	1334.649	1084.129
80.709	26.790	1334.196	1083.802
81.724	26.812	1333.264	1083.081
82.739	26.778	1332.204	1081.919
83.753	26.741	1331.657	1081.159
84.768	26.800	1330.266	1080.288
85.782	26.817	1329.285	1079.497
86.797	26.742	1328.036	1077.937
87.812	26.801	1327.051	1077.394
88.826	26.826	1325.955	1076.556
89.841	26.778	1324.911	1075.331
90.855	26.871	1323.530	1074.668
91.870	26.873	1322.783	1073.974
92.884	26.944	1322.049	1073.702
93.899	26.851	1321.232	1072.399
94.914	26.836	1320.767	1071.834
95.928	26.743	1320.396	1070.888
96.943	26.824	1319.296	1070.380
97.957	26.768	1319.093	1069.793
98.972	26.862	1317.693	1069.116
99.987	26.787	1317.192	1068.171
101.001	26.738	1316.086	1066.895
102.016	26.843	1315.288	1066.768
103.030	26.879	1314.224	1066.025
104.045	26.849	1313.759	1065.376
105.060	26.855	1312.793	1064.535
106.074	26.819	1311.355	1063.063
107.089	26.879	1310.522	1062.641
108.103	26.927	1309.130	1061.702
109.118	26.919	1308.415	1060.980
110.133	26.949	1306.968	1059.892
111.147	26.973	1305.922	1059.088
112.162	26.914	1304.747	1057.695
113.176	26.964	1304.035	1057.316
114.191	26.869	1303.234	1056.025
115.206	26.877	1302.352	1055.260
116.220	26.852	1301.256	1054.133
117.235	26.911	1300.068	1053.420
118.249	26.889	1299.226	1052.515
119.264	26.919	1298.612	1052.099
120.279	26.983	1297.477	1051.458
121.293	26.937	1296.619	1050.404
122.308	26.825	1295.910	1049.088
123.322	26.957	1295.091	1049.093
124.337	27.034	1294.283	1048.796
125.352	26.972	1293.385	1047.617
126.366	26.944	1292.719	1046.819
127.381	27.069	1291.449	1046.421
128.395	27.065	1290.935	1045.887
129.410	26.930	1290.680	1044.812
130.424	27.007	1289.694	1044.363
131.439	26.983	1288.838	1043.439
132.454	26.867	1288.434	1042.357
133.468	26.939	1287.130	1041.620
134.483	26.930	1286.644	1041.085
135.497	26.986	1285.796	1040.624
136.512	26.920	1284.991	1039.506
137.527	26.917	1283.579	1038.252
138.541	26.922	1282.538	1037.350
139.556	26.912	1281.396	1036.276
140.570	26.843	1280.674	1035.204
141.585	26.953	1279.618	1034.888
142.600	26.868	1278.621	1033.509
143.614	26.962	1277.525	1033.066
144.629	26.851	1276.763	1031.727
145.643	26.838	1275.898	1030.862
146.658	26.758	1275.213	1029.760
147.673	26.956	1273.877	1029.716
148.687	26.872	1272.706	1028.205
149.702	26.937	1271.792	1027.739
150.716	26.871	1270.717	1026.405
151.731	26.883	1269.888	1025.717
152.746	26.961	1268.879	1025.249
153.760	26.881	1267.826	1023.856
154.775	26.983	1266.516	1023.282
155.789	27.006	1265.524	1022.520
156.804	26.962	1264.924	1021.695
157.819	27.015	1264.047	1021.196
158.833	26.940	1263.138	1019.952
159.848	27.005	1262.517	1019.723
160.862	26.963	1261.780	1018.803
161.877	26.934	1261.079	1017.985
162.892	26.972	1260.129	1017.339
163.906	27.018	1259.499	1016.998
164.921	27.040	1258.802	1016.471
165.935	27.052	1257.637	1015.505
166.950	26.984	1257.627	1015.025
167.964	27.020	1256.654	1014.354
168.979	27.027	1256.544	1014.216
169.994	26.989	1255.588	1013.138
171.008	27.076	1254.840	1012.935
172.023	27.171	1253.824	1012.552
173.037	27.068	1253.705	1011.793
174.052	27.095	1253.288	1011.519
175.067	27.090	1252.034	1010.390
176.081	27.106	1251.030	1009.579
177.096	27.012	1250.480	1008.519
178.110	27.099	1249.376	1008.028
179.125	27.143	1248.258	1007.279
180.140	27.197	1247.195	1006.633
181.154	27.121	1245.988	1005.144
182.169	27.160	1244.890	1004.386
183.183	27.113	1244.539	1003.755
184.198	27.109	1243.222	1002.580
185.213	27.085	1242.217	1001.550
186.227	27.120	1241.581	1001.143
187.242	27.145	1240.515	1000.329
188.256	27.114	1239.533	999.279
189.271	27.188	1238.497	998.764
190.286	27.198	1237.828	998.190
191.300	27.179	1237.269	997.546
192.315	27.132	1237.488	997.379
193.329	27.121	1236.950	996.795
194.344	27.121	1236.312	996.191
195.359	27.222	1235.748	996.206
196.373	27.242	1234.906	995.545
197.388	27.078	1234.859	994.522
198.402	27.093	1234.725	994.407
199.417	27.119	1234.073	993.940
200.432	27.206	1233.153	993.585
201.446	27.103	1233.117	992.905
202.461	27.075	1232.435	992.116
203.475	27.254	1231.240	992.044
204.490	27.210	1230.164	990.844
205.504	27.188	1229.163	989.835
206.519	27.178	1228.604	989.242
207.534	27.237	1227.559	988.634
208.548	27.320	1226.256	987.947
209.563	27.188	1226.097	987.013
210.577	27.325	1224.690	986.535
211.592	27.222	1223.977	985.318
212.607	27.295	1223.379	985.146
213.621	27.289	1222.870	984.617
214.636	27.277	1222.341	984.039
215.650	27.271	1221.267	983.053
216.665	27.237	1220.469	982.137
217.680	27.294	1219.422	981.519
218.694	27.234	1218.659	980.496
219.709	27.307	1218.220	980.449
220.723	27.326	1217.226	979.661
221.738	27.284	1216.639	978.878
222.753	27.220	1215.912	977.863
223.767	27.246	1215.196	977.339
224.782	27.303	1215.149	977.520
225.796	27.463	1214.009	977.374
226.811	27.409	1213.775	976.814
227.826	27.478	1212.652	976.191
228.840	27.464	1212.474	975.889
229.855	27.449	1211.544	974.970
230.869	27.368	1211.252	974.218
231.884	27.408	1210.416	973.674
232.899	27.323	1209.967	972.768
233.913	27.349	1209.034	972.075
234.928	27.396	1208.724	971.987
235.942	27.424	1208.094	971.546
236.957	27.595	1207.006	971.496
237.972	27.440	1206.733	970.365
238.986	27.483	1206.124	970.017
240.001	27.497	1205.928	969.849
241.015	27.487	1204.918	968.897
242.030	27.526	1204.217	968.456
243.045	27.548	1203.276	967.730
244.059	27.510	1202.436	966.766
245.074	27.605	1201.542	966.465
246.088	27.564	1200.888	965.636
247.103	27.567	1200.134	964.961
248.117	27.517	1199.283	963.929
249.132	27.594	1198.561	963.672
250.147	27.491	1197.885	962.498
251.161	27.532	1197.306	962.160
252.176	27.704	1196.361	962.222
253.190	27.705	1195.648	961.573
254.205	27.586	1195.054	960.385
255.220	27.633	1194.842	960.375
256.234	27.685	1194.031	959.909
257.249	27.717	1193.137	959.275
258.263	27.590	1193.316	958.667
259.278	27.650	1192.312	958.090
260.293	27.665	1192.188	957.988
261.307	27.714	1191.212	957.373
262.322	27.766	1190.611	957.078
263.336	27.697	1189.913	956.069
264.351	27.796	1189.146	955.886
265.366	27.699	1188.794	955.013
266.380	27.790	1188.048	954.803
267.395	27.727	1187.198	953.707
268.409	27.684	1187.104	953.322
269.424	27.639	1186.635	952.626
270.439	27.708	1185.774	952.214
271.453	27.799	1185.237	952.171
272.468	27.701	1183.971	950.560
273.482	27.730	1183.541	950.284
274.497	27.799	1183.049	950.159
275.512	27.843	1182.639	949.979
276.526	27.792	1181.784	948.942
277.541	27.824	1180.938	948.344
278.555	27.778	1180.809	947.916
279.570	27.815	1179.982	947.362
280.585	27.883	1178.859	946.729
281.599	27.908	1177.475	945.662
282.614	27.826	1177.341	945.047
283.628	27.816	1176.396	944.154
284.643	27.792	1176.112	943.716
285.657	27.760	1174.945	942.534
286.672	27.867	1173.861	942.131
287.687	27.792	1173.647	941.487
288.701	27.915	1172.705	941.285
289.716	28.027	1171.995	941.208
290.730	27.790	1171.865	939.802
291.745	27.840	1170.823	939.139
292.760	27.823	1170.375	938.608
293.774	27.985	1169.836	938.928
294.789	28.027	1169.372	938.683
295.803	27.972	1168.721	937.797
296.818	28.130	1167.840	937.819
297.833	27.873	1167.522	936.161
298.847	28.047	1166.553	936.193
299.862	27.941	1165.952	935.088
300.876	28.050	1165.245	934.993
301.891	28.079	1164.479	934.443
302.906	28.004	1164.292	933.827
303.920	28.173	1162.989	933.563
304.935	28.080	1162.760	932.823
305.949	28.047	1162.051	932.004
306.964	28.078	1161.330	931.498
307.979	28.145	1160.708	931.258
308.993	28.163	1159.950	930.660
310.008	28.126	1159.295	929.863
311.022	28.066	1158.945	929.199
312.037	28.167	1157.676	928.608
313.052	28.127	1156.851	927.665
314.066	28.209	1156.361	927.604
315.081	28.109	1155.674	926.465
316.095	28.108	1155.334	926.105
317.110	28.118	1154.589	925.478
318.125	28.273	1153.664	925.438
319.139	28.163	1153.044	924.300
320.154	28.216	1152.429	923.994
321.168	28.269	1151.781	923.662
322.183	28.150	1151.666	922.885
323.197	28.229	1150.661	922.396
324.212	28.221	1150.286	921.973
325.227	28.307	1149.686	921.847
326.241	28.284	1149.373	921.397
327.256	28.306	1148.474	920.702
328.270	28.316	1147.402	919.813
329.285	28.349	1146.605	919.259
330.300	28.264	1146.201	918.430
331.314	28.266	1145.506	917.799
332.329	28.324	1144.375	917.103
333.343	28.358	1144.087	916.962
334.358	28.218	1143.191	915.460
335.373	28.335	1142.487	915.400
336.387	28.389	1141.921	915.135
337.402	28.456	1140.784	914.479
338.416	28.604	1140.027	914.530
339.431	28.394	1139.744	913.173
340.446	28.467	1139.018	912.874
341.460	28.474	1138.429	912.356
342.475	28.478	1137.950	911.914
343.489	28.388	1137.173	910.764
344.504	28.541	1135.734	910.286
345.519	28.647	1134.833	910.011
346.533	28.577	1134.064	908.967
347.548	28.450	1133.982	908.193
348.562	28.590	1133.043	908.052
349.577	28.527	1132.286	907.054
350.592	28.490	1131.447	906.117
351.606	28.492	1130.821	905.547
352.621	28.548	1130.554	905.528
353.635	28.539	1129.849	904.842
354.650	28.563	1129.239	904.392
355.665	28.682	1128.607	904.389
356.679	28.611	1128.018	903.487
357.694	28.688	1127.404	903.297
358.708	28.587	1127.199	902.557
359.723	28.553	1125.987	901.339
360.738	28.649	1125.406	901.262
361.752	28.650	1124.818	900.719
362.767	28.699	1124.255	900.427
363.781	28.727	1124.337	900.550
364.796	28.740	1123.430	899.810
365.810	28.769	1122.792	899.361
366.825	28.720	1122.092	898.481
367.840	28.701	1121.951	898.195
368.854	28.859	1120.746	897.924
369.869	28.809	1120.200	897.163
370.883	28.962	1119.151	896.989
371.898	28.804	1118.839	895.888
372.913	28.843	1118.067	895.380
373.927	28.844	1117.871	895.152
374.942	28.953	1117.100	894.981
375.956	28.830	1116.741	894.016
376.971	28.811	1116.644	893.768
377.986	28.783	1115.954	893.002
379.000	28.927	1115.170	892.993
380.015	28.940	1114.571	892.500
381.029	28.865	1114.308	891.845
382.044	28.926	1113.489	891.406
383.059	28.893	1113.065	890.826
384.073	28.995	1111.881	890.298
385.088	29.048	1110.506	889.373
386.102	29.042	1110.157	888.985
387.117	28.955	1109.261	887.771
388.132	28.831	1108.645	886.601
389.146	29.017	1107.922	886.840
390.161	28.973	1107.580	886.276
391.175	29.063	1106.594	885.838
392.190	29.089	1105.974	885.394
393.205	29.032	1105.156	884.385
394.219	28.939	1104.662	883.465
395.234	29.094	1103.978	883.585
396.248	29.159	1103.037	883.065
397.263	29.095	1102.352	882.129
398.278	29.196	1101.656	881.978
399.292	29.106	1101.192	881.096
400.307	29.137	1100.670	880.751
401.321	29.194	1100.081	880.474
402.336	29.117	1099.390	879.474
403.350	29.096	1098.541	878.620
404.365	29.252	1097.757	878.655
405.380	29.191	1097.424	878.024
406.394	29.166	1096.354	876.969
407.409	29.315	1095.478	876.901
408.423	29.381	1095.066	876.807
409.438	29.222	1094.204	875.283
410.453	29.270	1093.875	875.171
411.467	29.220	1093.019	874.174
412.482	29.278	1092.129	873.658
413.496	29.411	1091.787	873.935
414.511	29.276	1091.250	872.788
415.526	29.411	1090.993	873.143
416.540	29.348	1090.305	872.220
417.555	29.404	1089.768	871.979
418.569	29.264	1089.775	871.242
419.584	29.429	1088.836	871.198
420.599	29.370	1088.942	870.923
421.613	103.183	1322.745	1459.270
422.628	96.107	1356.786	1459.348
