DTS Sentinel unit serial number:	SN413079Multiplexer serial number:	ORYXHardware model number:	OX4-SRSoftware version number:	ORYX F/W v4.00 Oryx Data Collector v3.7.2.0data status	okinstallation	princeton_trtdifferential loss correction	single-endedforward channel	channel 2reverse channel	N/Adate	2019/09/13time	19:27:35forward acquisition time	60.00reverse acquisition time	0.00gamma	496.2192k internal	0.2329k external	0.2329temperature offset calibration	1.0155default loss term (dB/km)	0.3790temperature slope calibration	1.0000multiplexer offset coefficient	1.0000multiplexer slope coefficient	1.0000fibre end	0.00T internal ref (°C)	30.81T ext. ref 1 (°C)	3.56T ext. ref 2 (°C)	24.37length (m)	temperature (°C)	Stokes	anti-Stokes-747.200	800.000	0.076	0.223
-746.185	684.206	-0.045	-0.119
-745.171	-200.000	0.037	0.345
-744.156	800.000	0.055	0.188
-743.142	189.271	0.174	-0.263
-742.127	-102.207	-0.152	-0.037
-741.112	199.944	-0.137	-0.212
-740.098	546.826	0.072	-0.172
-739.083	-60.019	-0.210	-0.090
-738.069	60.594	-0.080	0.080
-737.054	50.483	0.085	-0.081
-736.039	800.000	-0.057	-0.219
-735.025	73.413	-0.132	0.139
-734.010	-95.350	-0.298	0.081
-732.996	800.000	0.054	-0.164
-731.981	194.764	-0.302	-0.461
-730.966	-102.262	-0.233	0.056
-729.952	-152.322	0.236	-0.017
-728.937	15.547	0.106	0.084
-727.923	-125.161	0.237	-0.037
-726.908	65.974	-0.266	-0.272
-725.894	-1.839	-0.118	-0.084
-724.879	-170.926	0.252	0.009
-723.864	53.250	0.013	0.013
-722.850	-29.358	0.173	0.100
-721.835	-134.388	-0.316	0.039
-720.821	269.579	0.196	0.346
-719.806	224.626	0.090	-0.147
-718.791	-119.642	0.081	-0.014
-717.777	800.000	0.045	0.162
-716.762	-181.882	-0.475	0.009
-715.748	-120.701	0.248	0.042
-714.733	-200.000	0.046	-0.360
-713.718	-78.995	0.031	0.011
-712.704	-126.301	-0.114	-0.017
-711.689	66.987	-0.113	-0.116
-710.675	84.641	0.121	0.134
-709.660	40.566	-0.027	-0.024
-708.645	-4.630	0.167	-0.116
-707.631	-200.000	0.048	-0.267
-706.616	268.331	-0.212	0.374
-705.602	800.000	-0.071	-0.217
-704.587	-94.995	0.286	0.078
-703.572	-200.000	-0.006	-0.274
-702.558	117.972	0.300	0.372
-701.543	-48.694	0.067	-0.032
-700.529	774.837	-0.018	0.049
-699.514	734.512	-0.085	-0.230
-698.499	122.772	-0.148	0.186
-697.485	18.178	0.210	-0.168
-696.470	800.000	0.045	-0.156
-695.456	-25.917	-0.201	0.119
-694.441	-137.976	0.166	0.019
-693.426	67.495	0.046	-0.047
-692.412	3.937	0.309	-0.227
-691.397	-109.434	0.279	-0.059
-690.383	-4.084	-0.113	0.079
-689.368	506.858	-0.080	-0.187
-688.354	800.000	0.153	0.479
-687.339	47.589	0.190	-0.178
-686.324	-200.000	-0.003	-0.056
-685.310	40.925	-0.133	0.121
-684.295	27.574	-0.266	-0.225
-683.281	36.758	0.262	-0.233
-682.266	-200.000	0.044	-0.272
-681.251	-112.962	-0.323	0.064
-680.237	-120.147	0.157	-0.027
-679.222	-98.945	-0.190	-0.048
-678.208	86.306	0.083	0.092
-677.193	-33.134	0.181	0.101
-676.178	213.606	-0.138	0.219
-675.164	-45.438	-0.126	-0.063
-674.149	-153.496	-0.261	-0.018
-673.135	-113.694	0.159	0.031
-672.120	-120.613	-0.165	-0.028
-671.105	2.730	0.095	0.069
-670.091	5.136	0.238	0.176
-669.076	-32.491	-0.165	0.092
-668.062	74.195	-0.263	0.278
-667.047	-200.000	-0.004	-0.210
-666.032	217.763	-0.135	0.216
-665.018	403.826	-0.158	-0.333
-664.003	-89.185	-0.140	-0.041
-662.989	-200.000	0.034	-0.213
-661.974	117.987	-0.126	0.156
-660.959	-59.563	-0.139	-0.060
-659.945	532.473	-0.092	-0.219
-658.930	-75.324	-0.396	0.142
-657.916	-200.000	-0.010	-0.122
-656.901	-26.045	0.230	-0.136
-655.886	800.000	-0.054	0.184
-654.872	419.390	0.027	0.059
-653.857	-200.000	-0.002	-0.071
-652.843	800.000	-0.099	-0.304
-651.828	629.164	0.090	-0.229
-650.814	-38.181	0.297	0.158
-649.799	800.000	0.055	-0.190
-648.784	-84.482	-0.274	-0.087
-647.770	18.695	-0.351	-0.282
-646.755	-74.877	-0.053	0.019
-645.741	-42.883	0.149	0.076
-644.726	304.735	-0.128	0.238
-643.711	7.451	-0.215	0.161
-642.697	316.566	0.108	-0.205
-641.682	327.010	-0.113	0.217
-640.668	21.224	-0.255	-0.208
-639.653	-182.081	-0.161	0.003
-638.638	414.381	-0.103	0.219
-637.624	-100.594	0.133	-0.033
-636.609	443.582	0.191	-0.421
-635.595	-142.377	0.317	-0.031
-634.580	-37.858	-0.263	-0.140
-633.565	142.011	0.228	0.303
-632.551	-200.000	0.007	0.348
-631.536	77.721	0.214	-0.229
-630.522	473.157	-0.064	-0.144
-629.507	41.011	-0.157	-0.142
-628.492	25.991	0.306	0.256
-627.478	140.923	-0.312	-0.413
-626.463	740.615	-0.031	0.084
-625.449	800.000	-0.084	0.271
-624.434	22.035	-0.256	0.209
-623.419	-76.246	-0.177	0.063
-622.405	800.000	-0.011	0.035
-621.390	410.296	-0.085	-0.180
-620.376	256.313	-0.097	0.167
-619.361	-122.113	0.211	0.035
-618.346	538.230	-0.081	-0.192
-617.332	-14.340	0.310	0.200
-616.317	-18.340	0.083	-0.052
-615.303	44.001	0.341	0.313
-614.288	222.084	0.177	-0.285
-613.273	673.346	-0.112	-0.291
-612.259	-55.028	0.404	-0.182
-611.244	800.000	-0.036	0.106
-610.230	-119.012	0.023	-0.004
-609.215	-156.216	-0.307	-0.019
-608.201	-113.398	0.167	-0.033
-607.186	-71.927	-0.346	-0.129
-606.171	-162.437	0.204	0.010
-605.157	-200.000	0.013	-0.069
-604.142	160.419	0.194	0.271
-603.128	417.897	0.170	0.363
-602.113	474.359	0.106	0.239
-601.098	435.672	-0.067	0.147
-600.084	800.000	-0.043	-0.121
-599.069	-100.765	0.073	0.018
-598.055	-52.383	0.158	-0.073
-597.040	800.000	0.049	-0.168
-596.025	497.672	-0.174	-0.401
-595.011	-200.000	0.072	-0.352
-593.996	329.210	0.078	-0.151
-592.982	107.308	0.057	0.068
-591.967	800.000	0.089	0.263
-590.952	609.853	0.099	-0.249
-589.938	18.174	0.085	0.068
-588.923	-200.000	0.026	-0.357
-587.909	-75.013	-0.258	-0.092
-586.894	-80.386	0.324	-0.108
-585.879	-50.634	0.125	0.059
-584.865	-200.000	-0.017	-0.185
-583.850	31.404	-0.182	0.157
-582.836	106.884	0.155	-0.184
-581.821	125.678	0.093	0.117
-580.806	682.612	-0.065	-0.170
-579.792	-80.118	-0.194	-0.065
-578.777	465.773	0.040	0.090
-577.763	-88.871	-0.363	-0.108
-576.748	-57.353	0.143	-0.063
-575.733	-87.725	-0.313	0.095
-574.719	-39.573	-0.274	0.143
-573.704	-107.114	0.048	-0.011
-572.690	-200.000	0.026	-0.262
-571.675	-23.047	0.029	-0.017
-570.661	81.254	0.102	-0.111
-569.646	-200.000	-0.010	0.054
-568.631	16.885	0.466	-0.369
-567.617	800.000	-0.038	0.121
-566.602	-200.000	0.004	-0.180
-565.588	-117.735	0.166	-0.030
-564.573	8.827	0.276	-0.208
-563.558	-14.530	0.193	0.124
-562.544	-200.000	-0.009	0.117
-561.529	-56.491	-0.066	0.029
-560.515	315.367	0.081	0.154
-559.500	180.379	0.079	0.116
-558.485	19.408	0.104	-0.084
-557.471	12.908	0.121	0.094
-556.456	-72.259	0.065	0.024
-555.442	149.564	-0.141	-0.190
-554.427	475.133	-0.092	-0.209
-553.412	436.046	-0.073	-0.158
-552.398	-196.822	0.283	0.002
-551.383	42.770	-0.060	-0.054
-550.369	-200.000	0.048	-0.364
-549.354	800.000	-0.024	0.100
-548.339	-200.000	0.027	-0.151
-547.325	-103.844	0.152	-0.036
-546.310	800.000	-0.088	0.249
-545.296	-172.643	0.101	0.003
-544.281	69.912	0.172	0.177
-543.266	-61.802	-0.081	0.034
-542.252	27.374	-0.128	0.107
-541.237	7.184	-0.083	0.062
-540.223	162.390	0.188	0.263
-539.208	-178.155	0.054	-0.001
-538.193	14.596	0.083	-0.064
-537.179	66.605	-0.155	-0.157
-536.164	85.990	-0.161	-0.177
-535.150	-200.000	0.004	0.093
-534.135	-89.342	-0.277	0.082
-533.121	-54.115	0.104	0.047
-532.106	-130.824	-0.183	0.025
-531.091	72.183	0.146	0.152
-530.077	155.871	-0.220	-0.302
-529.062	680.618	-0.031	0.080
-528.048	-105.886	0.309	-0.070
-527.033	80.017	-0.072	0.077
-526.018	422.468	-0.075	0.160
-525.004	225.096	-0.064	-0.103
-523.989	-114.025	0.188	0.036
-522.975	13.120	-0.340	-0.263
-521.960	800.000	0.046	-0.203
-520.945	-73.276	-0.377	0.138
-519.931	221.587	0.082	-0.132
-518.916	4.134	0.166	-0.122
-517.902	-63.795	-0.325	0.133
-516.887	-124.590	-0.237	-0.037
-515.872	-200.000	0.034	0.293
-514.858	207.352	0.107	0.167
-513.843	-200.000	0.026	-0.363
-512.829	-142.895	-0.261	0.025
-511.814	14.717	-0.115	-0.090
-510.799	548.793	-0.024	0.057
-509.785	-113.824	-0.457	-0.089
-508.770	770.679	-0.118	-0.320
-507.756	-43.111	-0.097	0.049
-506.741	-118.688	0.194	0.034
-505.726	-200.000	0.121	-0.590
-504.712	232.511	-0.143	-0.235
-503.697	-122.196	0.141	-0.023
-502.683	-200.000	0.087	0.380
-501.668	467.839	-0.122	0.274
-500.653	40.665	-0.041	-0.037
-499.639	-31.370	0.067	-0.037
-498.624	173.016	-0.114	-0.163
-497.610	-136.886	-0.116	0.013
-496.595	-200.000	-0.011	0.238
-495.581	-200.000	-0.000	-0.203
-494.566	-200.000	-0.023	-0.165
-493.551	-200.000	-0.025	0.262
-492.537	-44.712	-0.082	-0.041
-491.522	800.000	0.003	0.010
-490.508	-121.435	0.160	0.027
-489.493	66.196	-0.105	-0.107
-488.478	-151.479	-0.055	-0.004
-487.464	21.347	-0.047	-0.038
-486.449	-19.501	-0.350	-0.216
-485.435	201.746	0.083	-0.127
-484.420	-153.010	-0.257	-0.018
-483.405	220.262	0.095	-0.152
-482.391	77.232	-0.168	-0.178
-481.376	136.195	-0.073	-0.095
-480.362	45.168	-0.130	-0.119
-479.347	800.000	-0.064	-0.204
-478.332	-99.946	-0.289	0.072
-477.318	-120.323	0.227	0.038
-476.303	800.000	-0.071	0.232
-475.289	-109.410	-0.163	0.034
-474.274	800.000	-0.023	-0.079
-473.259	-200.000	0.012	0.214
-472.245	-44.593	0.190	0.095
-471.230	-66.637	-0.178	-0.071
-470.216	34.996	0.155	0.135
-469.201	712.599	-0.064	0.169
-468.186	800.000	0.042	0.151
-467.172	451.535	-0.081	0.177
-466.157	-200.000	0.027	0.267
-465.143	-200.000	-0.004	-0.026
-464.128	15.202	-0.093	-0.072
-463.113	-54.602	0.185	0.083
-462.099	-73.886	-0.177	-0.064
-461.084	-86.529	-0.175	0.053
-460.070	243.033	0.069	0.116
-459.055	269.626	-0.301	0.526
-458.040	-111.204	0.037	-0.008
-457.026	-200.000	-0.002	0.196
-456.011	800.000	-0.063	0.187
-454.997	-80.426	0.183	-0.061
-453.982	-124.457	-0.150	0.023
-452.968	-156.942	0.251	-0.015
-451.953	-42.886	0.118	0.060
-450.938	-200.000	-0.029	-0.152
-449.924	54.864	-0.176	-0.169
-448.909	-26.351	-0.421	0.246
-447.895	-200.000	-0.013	0.261
-446.880	115.150	0.081	-0.099
-445.865	-101.027	0.141	0.034
-444.851	-150.324	-0.105	0.008
-443.836	-9.394	0.294	-0.196
-442.822	-59.733	0.229	0.098
-441.807	-153.602	-0.037	0.003
-440.792	69.393	-0.175	0.179
-439.778	214.119	0.131	-0.207
-438.763	-18.591	0.137	0.085
-437.749	65.005	-0.112	-0.112
-436.734	-91.107	-0.212	-0.060
-435.719	800.000	0.055	-0.196
-434.705	-91.736	-0.081	-0.023
-433.690	468.649	0.122	0.272
-432.676	-200.000	0.267	-0.001
-431.661	341.386	-0.084	-0.164
-430.646	800.000	-0.051	0.212
-429.632	12.040	0.171	0.131
-428.617	-87.886	0.181	-0.054
-427.603	66.536	0.188	0.190
-426.588	73.211	-0.169	0.175
-425.573	-200.000	0.023	0.266
-424.559	646.219	0.081	0.207
-423.544	23.780	0.089	-0.073
-422.530	-135.183	-0.334	0.040
-421.515	-69.962	0.445	-0.169
-420.500	-91.577	-0.207	0.059
-419.486	-71.103	-0.141	-0.053
-418.471	800.000	-0.063	-0.218
-417.457	310.707	-0.118	0.219
-416.442	-149.639	0.056	-0.004
-415.428	-200.000	0.031	-0.157
-414.413	25.910	-0.065	0.054
-413.398	-74.986	0.308	0.110
-412.384	-83.746	0.111	0.035
-411.369	46.822	0.045	-0.041
-410.355	168.264	-0.169	0.239
-409.340	119.969	-0.118	-0.146
-408.325	-102.913	0.348	-0.082
-407.311	244.715	-0.104	0.175
-406.296	121.346	0.099	-0.122
-405.282	758.739	-0.024	0.064
-404.267	-4.326	-0.217	0.150
-403.252	-115.409	-0.165	0.031
-402.238	800.000	-0.077	0.283
-401.223	800.000	0.020	0.056
-400.209	-200.000	0.046	0.369
-399.194	39.736	0.064	-0.057
-398.179	365.000	0.040	-0.080
-397.165	-200.000	0.014	0.186
-396.150	800.000	-0.100	0.365
-395.136	128.034	-0.034	0.042
-394.121	-63.102	-0.217	-0.089
-393.106	800.000	0.106	0.425
-392.092	430.936	-0.119	0.256
-391.077	38.487	0.217	0.192
-390.063	287.623	0.073	0.132
-389.048	-87.825	-0.457	-0.137
-388.033	-92.266	-0.262	-0.073
-387.019	-200.000	-0.007	-0.303
-386.004	-106.287	-0.149	-0.033
-384.990	42.895	0.114	-0.103
-383.975	36.419	-0.041	-0.036
-382.960	-161.682	-0.133	-0.007
-381.946	800.000	-0.018	0.069
-380.931	-15.858	0.001	0.001
-379.917	203.036	0.051	-0.079
-378.902	-117.181	-0.288	-0.052
-377.888	23.687	0.072	-0.059
-376.873	29.451	-0.132	-0.112
-375.858	741.739	0.103	-0.275
-374.844	5.233	0.080	-0.058
-373.829	-35.258	-0.126	-0.068
-372.815	800.000	-0.055	-0.200
-371.800	195.059	0.102	0.154
-370.785	45.833	-0.151	0.138
-369.771	-25.927	0.202	-0.118
-368.756	800.000	-0.063	-0.216
-367.742	-200.000	0.017	-0.125
-366.727	-35.166	-0.124	-0.067
-365.712	83.422	0.133	0.143
-364.698	-200.000	-0.018	-0.287
-363.683	-103.274	0.143	0.033
-362.669	90.610	0.108	-0.120
-361.654	87.652	0.015	0.016
-360.639	-3.264	0.155	-0.107
-359.625	656.955	-0.055	-0.141
-358.610	742.234	-0.048	-0.128
-357.596	-70.980	0.094	0.035
-356.581	-82.512	-0.277	-0.089
-355.566	-200.000	0.043	-0.260
-354.552	-50.100	-0.202	0.095
-353.537	-43.652	-0.182	0.091
-352.523	103.911	-0.190	0.222
-351.508	543.842	-0.094	-0.223
-350.493	-144.211	0.425	-0.039
-349.479	2.854	0.055	0.040
-348.464	-133.209	0.087	-0.011
-347.450	800.000	0.092	0.291
-346.435	259.902	0.043	0.074
-345.420	-200.000	-0.021	0.104
-344.406	177.195	0.069	-0.099
-343.391	-200.000	-0.010	0.222
-342.377	162.061	0.166	0.230
-341.362	105.313	0.140	0.164
-340.348	11.801	0.176	0.134
-339.333	800.000	0.067	0.268
-338.318	81.136	0.141	-0.151
-337.304	-85.880	-0.184	0.056
-336.289	-200.000	-0.005	-0.209
-335.275	197.760	-0.147	0.222
-334.260	19.062	0.085	0.067
-333.245	-66.310	-0.233	-0.092
-332.231	800.000	0.067	-0.217
-331.216	-200.000	0.092	0.441
-330.202	-51.689	0.137	-0.063
-329.187	101.671	0.051	0.059
-328.172	-200.000	-0.044	0.294
-327.158	800.000	-0.083	0.304
-326.143	123.336	-0.232	0.289
-325.129	-200.000	-0.006	0.112
-324.114	689.520	0.075	-0.196
-323.099	800.000	0.064	-0.266
-322.085	134.708	-0.155	0.200
-321.070	521.332	-0.028	-0.064
-320.056	-78.390	-0.290	0.098
-319.041	79.275	-0.237	-0.251
-318.026	643.322	0.181	-0.456
-317.012	291.729	-0.167	-0.301
-315.997	52.726	0.287	-0.272
-314.983	800.000	-0.096	0.346
-313.968	238.024	0.056	-0.092
-312.953	-68.432	-0.303	-0.116
-311.939	-101.756	0.129	-0.031
-310.924	-200.000	0.004	-0.115
-309.910	0.857	0.268	-0.190
-308.895	302.416	0.182	0.334
-307.880	354.436	-0.142	-0.279
-306.866	-68.974	-0.223	0.085
-305.851	-79.766	0.255	0.085
-304.837	50.947	-0.121	-0.113
-303.822	-200.000	-0.003	-0.244
-302.807	-153.076	-0.197	-0.014
-301.793	483.894	-0.065	0.147
-300.778	-89.933	-0.198	0.057
-299.764	-200.000	0.167	0.000
-298.749	485.819	0.067	0.152
-297.735	64.631	-0.195	0.195
-296.720	-117.497	-0.084	0.015
-295.705	-200.000	-0.046	-0.302
-294.691	-22.843	0.411	0.245
-293.676	800.000	0.061	-0.187
-292.662	-70.375	0.480	0.180
-291.647	-102.354	-0.147	0.035
-290.632	417.936	0.192	-0.407
-289.618	-200.000	-0.012	0.070
-288.603	-200.000	0.007	0.100
-287.589	-200.000	0.000	-0.136
-286.574	324.885	-0.077	-0.145
-285.559	554.873	-0.099	0.236
-284.545	-27.214	-0.097	0.056
-283.530	9.128	-0.278	-0.208
-282.516	800.000	0.054	-0.209
-281.501	-185.629	0.244	-0.004
-280.486	153.306	-0.180	-0.244
-279.472	256.876	0.076	-0.129
-278.457	-200.000	-0.001	-0.054
-277.443	-55.384	-0.139	-0.062
-276.428	-130.761	0.063	0.008
-275.413	110.798	0.098	-0.117
-274.399	7.853	-0.107	0.079
-273.384	800.000	-0.032	0.099
-272.370	347.911	-0.147	0.286
-271.355	-132.001	0.412	0.053
-270.340	294.777	0.026	0.047
-269.326	-12.846	-0.255	0.165
-268.311	-78.294	-0.396	0.134
-267.297	45.287	-0.467	0.426
-266.282	-99.398	-0.501	-0.125
-265.267	800.000	-0.094	0.283
-264.253	-50.729	-0.290	0.135
-263.238	-200.000	0.015	0.067
-262.224	34.185	0.090	0.078
-261.209	-200.000	-0.000	0.300
-260.195	794.047	0.129	0.350
-259.180	-130.348	0.422	-0.057
-258.165	-200.000	0.023	0.201
-257.151	28.512	0.378	-0.316
-256.136	-172.944	0.250	0.008
-255.122	711.400	0.121	-0.317
-254.107	-99.240	0.377	0.094
-253.092	62.114	0.280	0.276
-252.078	-200.000	0.155	-0.001
-251.063	58.971	0.175	0.170
-250.049	800.000	-0.219	-0.605
-249.034	-200.000	-0.015	-0.233
-248.019	155.210	0.065	0.089
-247.005	-20.794	0.121	0.073
-245.990	13.551	0.212	0.162
-244.976	104.012	-0.206	0.240
-243.961	-32.672	-0.304	-0.167
-242.946	-60.831	-0.244	0.102
-241.932	-78.851	0.220	-0.074
-240.917	-101.322	-0.431	-0.104
-239.903	-200.000	-0.039	0.173
-238.888	-93.463	0.344	0.094
-237.873	-170.167	-0.422	-0.015
-236.859	-200.000	0.001	0.017
-235.844	-118.271	-0.183	0.032
-234.830	-35.238	0.083	-0.044
-233.815	-28.218	-0.127	0.072
-232.800	-200.000	-0.042	0.264
-231.786	139.816	0.268	0.349
-230.771	-152.911	-0.139	-0.010
-229.757	79.911	0.459	0.487
-228.742	-47.154	-0.135	0.065
-227.727	-103.277	0.371	0.086
-226.713	-93.391	0.252	0.069
-225.698	40.458	-0.121	0.108
-224.684	107.585	-0.204	-0.239
-223.669	-13.158	-0.278	0.178
-222.655	27.295	0.136	0.113
-221.640	-200.000	-0.007	-0.282
-220.625	108.084	0.202	-0.238
-219.611	-90.793	0.275	-0.078
-218.596	-165.633	-0.200	-0.009
-217.582	91.456	0.283	-0.314
-216.567	231.633	-0.032	0.052
-215.552	113.139	0.201	-0.241
-214.538	-200.000	-0.058	0.379
-213.523	-200.000	-0.029	-0.173
-212.509	-77.802	-0.166	-0.056
-211.494	35.245	0.198	0.171
-210.479	-7.113	0.406	0.272
-209.465	56.876	0.134	-0.129
-208.450	623.308	0.131	-0.325
-207.436	-200.000	-0.034	-0.156
-206.421	-54.581	-0.234	0.104
-205.406	800.000	-0.029	0.086
-204.392	-7.672	0.016	-0.011
-203.377	-200.000	-0.014	0.154
-202.363	24.100	-0.098	0.080
-201.348	143.648	0.163	-0.215
-200.333	112.057	-0.342	0.407
-199.319	-69.034	0.054	0.021
-198.304	-200.000	-0.038	0.231
-197.290	-43.481	-0.169	-0.084
-196.275	-34.264	0.191	0.103
-195.260	-47.772	-0.317	-0.152
-194.246	-3.677	0.150	-0.103
-193.231	-200.000	-0.010	0.076
-192.217	-117.110	0.228	-0.041
-191.202	-200.000	0.007	-0.467
-190.187	199.122	-0.068	-0.103
-189.173	-94.755	-0.079	-0.021
-188.158	-96.953	0.366	-0.095
-187.144	-200.000	0.022	-0.154
-186.129	-35.931	0.141	0.075
-185.114	-45.254	0.271	0.133
-184.100	-200.000	0.024	0.358
-183.085	143.067	-0.196	0.257
-182.071	-108.605	0.226	-0.048
-181.056	-200.000	0.007	0.151
-180.042	108.435	0.064	0.075
-179.027	-200.000	0.001	0.071
-178.012	-163.822	-0.086	-0.004
-176.998	-200.000	0.029	-0.246
-175.983	-200.000	0.011	-0.302
-174.969	204.995	0.125	-0.191
-173.954	-61.924	0.467	-0.192
-172.939	-87.404	0.268	-0.080
-171.925	42.588	-0.132	0.119
-170.910	187.252	0.121	0.178
-169.896	-200.000	-0.010	-0.174
-168.881	12.773	-0.171	-0.130
-167.866	-138.261	-0.198	0.022
-166.852	-50.960	0.075	-0.034
-165.837	-15.485	0.021	0.013
-164.823	-200.000	0.013	0.126
-163.808	-200.000	0.029	-0.199
-162.793	-95.387	0.123	0.033
-161.779	774.671	-0.055	-0.146
-160.764	330.170	0.123	-0.233
-159.750	-200.000	0.022	-0.209
-158.735	3.891	-0.065	-0.047
-157.720	52.990	-0.313	-0.294
-156.706	800.000	-0.103	-0.389
-155.691	-200.000	0.057	0.283
-154.677	234.666	0.219	-0.355
-153.662	-66.935	0.192	0.075
-152.647	460.070	0.156	0.342
-151.633	-200.000	0.008	-0.084
-150.618	800.000	-0.055	-0.229
-149.604	-35.734	-0.154	0.082
-148.589	187.484	-0.204	0.299
-147.574	800.000	0.080	0.302
-146.560	-200.000	-0.052	0.319
-145.545	528.567	0.116	0.269
-144.531	-17.239	-0.310	-0.193
-143.516	-79.026	0.220	0.073
-142.502	-200.000	0.021	0.101
-141.487	-74.013	-0.051	-0.018
-140.472	16.088	0.084	0.065
-139.458	150.157	0.235	-0.314
-138.443	800.000	0.091	-0.303
-137.429	-143.167	0.269	-0.025
-136.414	-65.511	0.059	-0.023
-135.399	-125.799	-0.214	-0.032
-134.385	-111.414	-0.179	-0.036
-133.370	334.895	0.115	-0.220
-132.356	166.512	0.039	-0.054
-131.341	-74.834	-0.265	0.094
-130.326	-137.680	0.081	0.009
-129.312	82.625	-0.215	-0.230
-128.297	-117.344	-0.367	-0.065
-127.283	-138.017	0.483	-0.053
-126.268	-25.982	0.055	-0.032
-125.253	6.155	-0.094	0.069
-124.239	-1.985	0.073	-0.050
-123.224	-152.684	-0.188	-0.013
-122.210	61.615	-0.213	0.208
-121.195	89.567	0.106	-0.116
-120.180	-174.256	-0.185	0.005
-119.166	-200.000	0.003	-0.146
-118.151	364.266	0.110	-0.218
-117.137	-112.816	-0.324	-0.063
-116.122	-103.966	-0.009	0.002
-115.107	-200.000	0.023	0.144
-114.093	-200.000	0.015	-0.178
-113.078	-51.023	-0.290	-0.134
-112.064	126.872	0.162	-0.201
-111.049	123.687	0.165	-0.204
-110.034	205.197	0.215	0.327
-109.020	362.936	0.110	0.218
-108.005	-4.824	0.112	0.076
-106.991	503.281	0.057	-0.130
-105.976	85.490	0.230	0.248
-104.962	103.420	-0.095	0.109
-103.947	109.001	-0.033	0.039
-102.932	406.620	0.111	-0.230
-101.918	531.899	-0.061	0.142
-100.903	-200.000	-0.062	0.443
-99.889	800.000	-0.068	-0.239
-98.874	7.044	-0.091	-0.067
-97.859	-35.810	0.344	-0.183
-96.845	-128.574	0.269	0.037
-95.830	321.864	-0.020	0.037
-94.816	-200.000	-0.004	0.607
-93.801	-60.974	-0.222	0.092
-92.786	-200.000	-0.024	0.105
-91.772	192.506	0.045	0.067
-90.757	755.995	-0.162	0.430
-89.743	-200.000	-0.027	0.137
-88.728	-200.000	0.033	0.315
-87.713	800.000	0.060	0.245
-86.699	-41.311	-0.059	-0.030
-85.684	-29.303	-0.119	-0.067
-84.670	63.160	-0.199	-0.196
-83.655	59.826	0.232	0.224
-82.640	-45.892	0.224	0.109
-81.626	-200.000	-0.017	0.291
-80.611	273.437	0.026	-0.046
-79.597	-200.000	0.025	-0.176
-78.582	-92.128	0.197	-0.055
-77.567	-130.017	-0.122	0.016
-76.553	-200.000	0.046	-0.290
-75.538	-200.000	0.044	-0.287
-74.524	-52.410	-0.123	-0.056
-73.509	133.203	-0.135	-0.171
-72.494	372.442	-0.056	-0.112
-71.480	629.553	-0.065	-0.161
-70.465	403.738	0.064	0.133
-69.451	385.724	0.063	0.127
-68.436	-200.000	-0.002	-0.189
-67.422	-131.946	-0.173	0.022
-66.407	-136.070	-0.255	-0.029
-65.392	-177.614	-0.289	-0.007
-64.378	376.119	-0.139	-0.277
-63.363	384.385	-0.068	-0.137
-62.349	28.714	0.126	0.105
-61.334	131.869	-0.846	-1.068
-60.319	79.326	0.537	0.565
-59.305	280.316	-0.437	-0.766
-58.290	128.383	0.890	1.111
-57.276	562.120	0.502	1.191
-56.261	-200.000	104.485	590.324
-55.246	547.319	1444.494	3390.115
-54.232	185.428	2638.209	3841.574
-53.217	109.090	2274.175	2667.803
-52.203	40.059	1894.214	1669.094
-51.188	34.104	1685.476	1440.200
-50.173	31.410	1642.443	1383.465
-49.159	49.892	1694.327	1566.538
-48.144	50.859	1710.898	1589.067
-47.130	33.516	1668.695	1421.226
-46.115	30.885	1654.380	1389.385
-45.100	30.783	1649.196	1384.217
-44.086	30.710	1646.920	1381.712
-43.071	30.805	1644.301	1380.165
-42.057	30.626	1642.376	1377.168
-41.042	30.711	1639.797	1375.580
-40.027	30.654	1638.348	1373.883
-39.013	30.671	1635.964	1371.957
-37.998	30.657	1634.733	1370.768
-36.984	30.620	1633.842	1369.693
-35.969	30.794	1632.219	1369.561
-34.954	30.787	1630.275	1367.824
-33.940	30.932	1628.059	1366.973
-32.925	30.876	1626.496	1365.194
-31.911	30.874	1624.915	1363.804
-30.896	30.848	1623.280	1362.184
-29.881	30.710	1622.161	1360.185
-28.867	30.785	1620.516	1359.300
-27.852	30.818	1618.704	1357.960
-26.838	30.781	1617.527	1356.653
-25.823	30.846	1616.139	1355.912
-24.809	30.815	1615.125	1354.778
-23.794	30.866	1613.539	1353.761
-22.779	30.789	1612.011	1351.869
-21.765	30.819	1609.933	1350.293
-20.750	30.767	1608.899	1348.991
-19.736	30.787	1607.409	1347.833
-18.721	30.893	1605.494	1346.942
-17.706	30.855	1604.268	1345.588
-16.692	30.784	1603.114	1344.049
-15.677	30.874	1601.218	1343.054
-14.663	30.815	1600.291	1341.803
-13.648	30.922	1598.523	1341.033
-12.633	30.860	1596.893	1339.172
-11.619	30.799	1595.750	1337.718
-10.604	30.814	1594.322	1336.574
-9.590	30.915	1592.750	1335.934
-8.575	30.862	1591.435	1334.395
-7.560	30.856	1590.471	1333.489
-6.546	30.934	1589.611	1333.271
-5.531	30.837	1588.302	1331.431
-4.517	30.773	1587.596	1330.329
-3.502	30.820	1586.017	1329.285
-2.487	30.996	1584.314	1329.066
-1.473	30.356	1572.336	1314.435
-0.458	27.022	1551.584	1273.691
0.556	24.249	1551.232	1236.634
1.571	21.506	1573.224	1234.728
2.586	20.831	1585.799	1239.687
3.600	18.288	1531.969	1179.992
4.615	10.819	1424.941	1049.388
5.629	4.595	1363.644	965.595
6.644	3.569	1356.224	953.921
7.659	3.460	1355.166	952.418
8.673	3.540	1354.379	952.272
9.688	3.671	1352.253	951.501
10.702	3.560	1349.497	948.797
11.717	6.257	1354.739	969.025
12.731	13.952	1368.776	1026.708
13.746	20.119	1378.910	1072.498
14.761	21.140	1379.281	1079.004
15.775	20.471	1377.118	1073.089
16.790	19.514	1374.613	1065.137
17.804	18.642	1371.933	1057.593
18.819	18.276	1371.356	1054.802
19.834	18.094	1370.383	1052.837
20.848	17.967	1369.314	1051.141
21.863	17.780	1367.598	1048.583
22.877	17.630	1366.760	1046.928
23.892	17.718	1365.931	1046.739
24.907	17.605	1364.989	1045.230
25.921	17.642	1363.821	1044.470
26.936	17.651	1363.266	1044.010
27.950	17.692	1361.888	1043.112
28.965	17.797	1361.162	1043.109
29.980	17.902	1359.891	1042.682
30.994	18.000	1359.012	1042.513
32.009	17.987	1358.480	1041.935
33.023	18.076	1356.587	1040.929
34.038	17.902	1355.297	1038.794
35.053	17.866	1353.849	1037.369
36.067	17.857	1352.654	1036.310
37.082	17.860	1352.178	1035.869
38.096	17.968	1350.885	1035.443
39.111	17.915	1350.306	1034.587
40.126	17.788	1349.580	1033.170
41.140	17.504	1348.489	1030.520
42.155	17.524	1347.467	1029.775
43.169	17.393	1347.891	1029.215
44.184	17.426	1347.337	1028.896
45.199	17.472	1346.888	1028.741
46.213	17.582	1345.937	1028.587
47.228	17.730	1345.566	1029.109
48.242	17.776	1344.271	1028.303
49.257	17.813	1342.776	1027.295
50.271	17.770	1341.587	1026.030
51.286	17.730	1340.527	1024.892
52.301	17.781	1339.410	1024.251
53.315	17.611	1338.271	1022.270
54.330	17.444	1337.370	1020.493
55.344	17.500	1335.783	1019.528
56.359	17.466	1334.518	1018.264
57.374	17.452	1333.894	1017.614
58.388	17.446	1332.770	1016.635
59.403	17.477	1331.795	1015.986
60.417	17.307	1331.470	1014.632
61.432	17.400	1330.183	1014.116
62.447	17.272	1329.906	1013.053
63.461	17.168	1328.690	1011.417
64.476	17.250	1327.819	1011.150
65.490	17.209	1326.268	1009.639
66.505	17.326	1324.504	1008.900
67.520	17.310	1323.555	1007.995
68.534	17.343	1322.637	1007.399
69.549	17.303	1321.436	1006.162
70.563	17.292	1320.210	1005.071
71.578	17.137	1319.286	1003.365
72.593	17.084	1318.499	1002.363
73.607	17.067	1318.292	1002.014
74.622	16.993	1317.228	1000.681
75.636	17.078	1316.481	1000.528
76.651	17.178	1315.877	1000.567
77.666	17.224	1314.842	999.963
78.680	17.150	1315.003	999.566
79.695	17.235	1314.236	999.389
80.709	17.351	1313.555	999.467
81.724	17.413	1312.940	999.274
82.739	17.566	1311.787	999.204
83.753	17.631	1311.202	999.054
84.768	17.727	1310.459	998.963
85.782	18.012	1309.383	999.720
86.797	17.877	1307.911	997.719
87.812	17.856	1306.254	996.244
88.826	17.758	1305.822	995.254
89.841	17.738	1304.921	994.362
90.855	17.897	1303.718	994.285
91.870	17.958	1302.973	993.984
92.884	17.968	1302.106	993.293
93.899	17.919	1301.422	992.398
94.914	18.026	1300.676	992.367
95.928	17.948	1299.875	991.210
96.943	17.924	1298.432	989.882
97.957	17.839	1297.920	988.916
98.972	17.962	1296.286	988.293
99.987	17.882	1295.816	987.386
101.001	17.906	1294.798	986.660
102.016	17.755	1294.327	985.345
103.030	17.807	1293.397	984.847
104.045	17.868	1291.950	984.011
105.060	17.737	1291.162	982.567
106.074	17.573	1289.358	980.162
107.089	17.344	1287.848	977.612
108.103	17.291	1286.601	976.275
109.118	17.244	1285.334	974.960
110.133	17.267	1284.242	974.176
111.147	17.239	1282.909	972.920
112.162	17.374	1281.569	972.590
113.176	17.473	1280.242	972.061
114.191	17.433	1279.592	971.254
115.206	17.417	1278.077	969.927
116.220	17.465	1277.217	969.460
117.235	17.432	1276.153	968.378
118.249	17.362	1275.357	967.294
119.264	17.316	1274.015	965.927
120.279	17.303	1272.353	964.509
121.293	17.246	1271.935	963.784
122.308	17.260	1270.547	962.727
123.322	17.080	1269.832	961.079
124.337	17.098	1268.829	960.335
125.352	17.192	1267.239	959.580
126.366	17.163	1266.218	958.557
127.381	17.201	1265.187	957.909
128.395	17.217	1264.272	957.217
129.410	17.191	1263.521	956.418
130.424	17.260	1262.877	956.237
131.439	17.365	1261.584	955.764
132.454	17.419	1260.741	955.339
133.468	17.371	1260.215	954.589
134.483	17.404	1259.606	954.226
135.497	17.456	1258.295	953.440
136.512	17.491	1257.113	952.658
137.527	17.443	1256.190	951.608
138.541	17.391	1254.477	949.932
139.556	17.581	1253.352	950.059
140.570	17.723	1252.235	949.917
141.585	17.715	1251.233	949.031
142.600	17.725	1250.678	948.578
143.614	17.828	1249.806	948.405
144.629	17.793	1249.172	947.650
145.643	17.872	1247.704	946.890
146.658	17.701	1246.518	944.957
147.673	17.605	1244.847	943.077
148.687	17.511	1243.662	941.577
149.702	17.589	1241.921	940.602
150.716	17.515	1240.816	939.277
151.731	17.566	1239.581	938.538
152.746	17.515	1238.327	937.224
153.760	17.620	1237.090	936.782
154.775	17.690	1236.449	936.598
155.789	17.755	1235.208	935.932
156.804	17.783	1234.783	935.682
157.819	17.836	1233.646	935.027
158.833	17.910	1232.673	934.616
159.848	18.058	1231.935	934.781
160.862	17.928	1231.025	933.299
161.877	17.725	1229.806	931.180
162.892	17.564	1228.757	929.424
163.906	17.570	1227.394	928.345
164.921	17.608	1226.505	927.796
165.935	17.548	1226.215	927.171
166.950	17.754	1225.119	927.381
167.964	17.745	1224.372	926.682
168.979	17.656	1223.802	925.687
169.994	17.703	1222.623	924.968
171.008	17.851	1221.906	925.146
172.023	17.805	1221.500	924.507
173.037	17.920	1220.963	924.644
174.052	17.943	1219.758	923.775
175.067	17.764	1218.320	921.633
176.081	17.605	1217.547	920.109
177.096	17.652	1216.633	919.588
178.110	17.542	1215.957	918.405
179.125	17.704	1214.192	917.864
180.140	17.815	1213.359	917.749
181.154	17.807	1212.393	916.895
182.169	17.959	1211.592	917.023
183.183	17.907	1210.233	915.634
184.198	18.001	1208.759	914.945
185.213	18.044	1208.017	914.528
186.227	18.084	1206.901	913.818
187.242	18.057	1206.183	913.051
188.256	18.212	1204.710	912.684
189.271	18.138	1203.922	911.609
190.286	17.975	1203.100	910.039
191.300	17.611	1201.886	907.100
192.315	17.576	1200.612	905.875
193.329	17.607	1200.357	905.768
194.344	17.698	1200.091	905.969
195.359	17.768	1199.801	906.038
196.373	17.926	1198.969	906.168
197.388	17.903	1198.882	905.902
198.402	18.289	1198.200	907.354
199.417	18.251	1197.684	906.684
200.432	18.363	1197.217	906.842
201.446	18.480	1196.483	906.823
202.461	18.509	1195.604	906.232
203.475	18.493	1194.645	905.341
204.490	18.266	1193.348	903.078
205.504	18.195	1191.916	901.539
206.519	18.236	1190.284	900.442
207.534	18.066	1189.605	898.956
208.548	18.092	1188.309	898.031
209.563	18.252	1187.488	898.172
210.577	18.156	1186.822	897.085
211.592	18.276	1186.050	897.049
212.607	18.271	1185.685	896.668
213.621	18.307	1184.708	896.041
214.636	18.308	1183.847	895.313
215.650	18.482	1182.485	895.117
216.665	18.389	1181.982	894.171
217.680	18.545	1181.382	894.448
218.694	18.514	1180.509	893.547
219.709	18.532	1179.565	892.848
220.723	18.545	1178.742	892.214
221.738	18.512	1178.425	891.722
222.753	18.425	1177.115	890.203
223.767	18.506	1176.396	890.002
224.782	18.614	1176.002	890.181
225.796	18.797	1175.222	890.461
226.811	18.577	1174.891	888.993
227.826	18.587	1173.615	887.999
228.840	18.541	1172.493	886.835
229.855	18.486	1172.622	886.567
230.869	18.441	1171.234	885.210
231.884	18.405	1170.339	884.269
232.899	18.384	1169.291	883.289
233.913	18.228	1169.110	882.270
234.928	18.301	1168.122	881.826
235.942	18.266	1167.516	881.110
236.957	18.199	1166.723	880.087
237.972	18.235	1166.418	879.963
238.986	18.277	1165.570	879.461
240.001	18.255	1164.562	878.513
241.015	18.400	1163.543	878.405
242.030	18.450	1163.144	878.285
243.045	18.610	1162.486	878.529
244.059	18.553	1161.769	877.621
245.074	18.610	1160.788	877.094
246.088	18.602	1160.283	876.592
247.103	18.688	1159.543	876.396
248.117	18.811	1159.444	876.870
249.132	18.908	1158.493	876.567
250.147	19.241	1157.759	877.633
251.161	19.217	1156.984	876.846
252.176	19.186	1156.722	876.411
253.190	19.267	1155.962	876.167
254.205	19.439	1155.264	876.436
255.220	19.444	1154.713	875.964
256.234	19.384	1153.657	874.783
257.249	19.389	1153.460	874.580
258.263	19.205	1152.886	873.138
259.278	19.267	1152.138	872.807
260.293	19.340	1151.659	872.738
261.307	19.501	1150.764	872.794
262.322	19.404	1150.502	872.026
263.336	19.448	1150.065	871.840
264.351	19.450	1149.450	871.309
265.366	19.497	1148.083	870.435
266.380	19.461	1147.639	869.838
267.395	19.413	1146.653	868.771
268.409	19.382	1146.025	868.060
269.424	19.188	1145.464	866.587
270.439	19.224	1144.741	866.142
271.453	19.269	1143.782	865.568
272.468	19.210	1142.919	864.542
273.482	19.180	1141.988	863.610
274.497	19.258	1141.490	863.545
275.512	19.244	1140.698	862.802
276.526	19.388	1139.392	862.457
277.541	19.248	1139.348	861.648
278.555	19.340	1138.786	861.606
279.570	19.485	1138.244	861.843
280.585	19.605	1137.576	861.863
281.599	19.563	1135.984	860.369
282.614	19.497	1135.376	859.506
283.628	19.328	1134.188	857.687
284.643	19.397	1133.117	857.142
285.657	19.530	1132.178	857.018
286.672	19.320	1132.078	855.826
287.687	19.405	1131.242	855.538
288.701	19.473	1129.904	854.790
289.716	19.548	1128.980	854.384
290.730	19.495	1128.425	853.626
291.745	19.494	1127.770	853.052
292.760	19.534	1127.588	853.036
293.774	19.658	1126.692	852.894
294.789	19.583	1126.792	852.525
295.803	19.747	1125.636	852.383
296.818	19.603	1124.926	851.062
297.833	19.529	1124.017	849.931
298.847	19.544	1123.635	849.644
299.862	19.558	1122.363	848.676
300.876	19.582	1121.756	848.256
301.891	19.637	1121.648	848.372
302.906	19.664	1120.946	847.896
303.920	19.729	1120.075	847.485
304.935	19.944	1119.690	848.172
305.949	19.981	1119.247	847.941
306.964	19.989	1118.749	847.528
307.979	19.790	1117.643	845.641
308.993	19.877	1116.772	845.334
310.008	19.940	1116.186	845.121
311.022	20.101	1115.262	845.133
312.037	19.918	1114.348	843.473
313.052	19.952	1113.072	842.598
314.066	19.707	1112.492	840.894
315.081	19.628	1111.761	839.882
316.095	19.640	1110.700	839.067
317.110	19.594	1110.135	838.341
318.125	19.682	1109.342	838.093
319.139	19.682	1109.075	837.817
320.154	19.652	1107.958	836.756
321.168	19.691	1107.522	836.542
322.183	19.575	1107.354	835.779
323.197	19.701	1106.571	835.721
324.212	19.817	1106.115	835.866
325.227	19.857	1105.283	835.355
326.241	19.848	1104.541	834.678
327.256	19.904	1103.493	834.079
328.270	19.722	1102.460	832.352
329.285	19.609	1102.279	831.596
330.300	19.742	1101.170	831.325
331.314	19.686	1100.198	830.247
332.329	19.779	1099.333	829.971
333.343	19.826	1098.518	829.508
334.358	19.957	1097.430	829.238
335.373	19.906	1097.156	828.716
336.387	20.071	1096.080	828.617
337.402	20.048	1095.776	828.202
338.416	20.167	1095.096	828.187
339.431	20.186	1094.142	827.480
340.446	20.144	1094.265	827.301
341.460	20.369	1093.450	827.682
342.475	20.424	1092.388	827.069
343.489	20.418	1091.403	826.223
344.504	20.538	1090.847	826.300
345.519	20.447	1090.148	825.264
346.533	20.576	1089.217	825.099
347.548	20.610	1088.794	824.865
348.562	20.484	1087.845	823.477
349.577	20.292	1086.690	821.619
350.592	20.209	1085.723	820.423
351.606	20.068	1085.274	819.346
352.621	20.060	1084.972	819.004
353.635	20.155	1083.690	818.413
354.650	20.204	1082.855	817.941
355.665	20.305	1082.137	817.805
356.679	20.403	1081.595	817.784
357.694	20.359	1081.097	817.126
358.708	20.383	1080.655	816.832
359.723	20.386	1080.217	816.444
360.738	20.458	1079.543	816.203
361.752	20.383	1079.006	815.373
362.767	20.373	1078.435	814.820
363.781	20.456	1077.737	814.609
364.796	20.613	1077.402	815.019
365.810	20.616	1076.920	814.596
366.825	20.754	1076.369	814.755
367.840	20.879	1075.722	814.778
368.854	20.848	1075.563	814.438
369.869	20.946	1074.178	813.779
370.883	20.862	1073.145	812.529
371.898	20.672	1072.939	811.418
372.913	20.818	1071.978	811.300
373.927	20.839	1071.648	811.077
374.942	20.918	1070.973	810.858
375.956	20.875	1070.673	810.363
376.971	20.864	1070.120	809.821
377.986	20.801	1069.549	809.024
379.000	21.076	1068.861	809.706
380.015	21.030	1068.726	809.319
381.029	21.060	1068.192	808.986
382.044	20.994	1067.287	807.923
383.059	20.924	1066.581	806.992
384.073	21.109	1065.523	806.975
385.088	21.043	1064.886	806.116
386.102	21.019	1064.024	805.281
387.117	20.936	1062.665	803.800
388.132	20.801	1061.699	802.376
389.146	20.891	1060.979	802.172
390.161	20.681	1060.591	800.841
391.175	20.802	1059.628	800.602
392.190	20.927	1058.880	800.540
393.205	21.021	1058.534	800.640
394.219	20.956	1057.686	799.627
395.234	20.915	1056.478	798.458
396.248	20.790	1055.789	797.294
397.263	20.910	1054.370	796.699
398.278	20.752	1053.809	795.481
399.292	20.739	1053.144	794.852
400.307	20.596	1052.368	793.544
401.321	20.651	1051.896	793.366
402.336	20.785	1050.586	792.920
403.350	20.858	1049.848	792.626
404.365	20.783	1049.744	792.137
405.380	20.992	1048.880	792.364
406.394	20.914	1048.616	791.739
407.409	21.098	1047.718	791.826
408.423	21.248	1047.147	792.003
409.438	21.205	1046.480	791.233
410.453	21.330	1045.744	791.173
411.467	21.368	1045.170	790.844
412.482	21.296	1044.828	790.186
413.496	21.313	1044.070	789.623
414.511	21.435	1043.353	789.562
415.526	21.599	1042.821	789.825
416.540	21.610	1042.529	789.584
417.555	21.700	1041.760	789.338
418.569	21.525	1041.345	788.167
419.584	21.422	1041.136	787.476
420.599	21.451	1040.156	786.795
421.613	155.095	1402.633	1794.550
422.628	141.909	1455.438	1794.649
