DTS Sentinel unit serial number:	SN413079Multiplexer serial number:	ORYXHardware model number:	OX4-SRSoftware version number:	ORYX F/W v4.00 Oryx Data Collector v3.7.2.0data status	okinstallation	princeton_trtdifferential loss correction	single-endedforward channel	channel 2reverse channel	N/Adate	2019/09/16time	23:35:34forward acquisition time	60.00reverse acquisition time	0.00gamma	496.2192k internal	0.2330k external	0.2330temperature offset calibration	0.9970default loss term (dB/km)	0.3790temperature slope calibration	1.0000multiplexer offset coefficient	1.0000multiplexer slope coefficient	1.0000fibre end	0.00T internal ref (°C)	29.81T ext. ref 1 (°C)	0.09T ext. ref 2 (°C)	23.57length (m)	temperature (°C)	Stokes	anti-Stokes-747.200	-111.725	-0.016	-0.003
-746.185	-109.298	-0.382	-0.082
-745.171	216.555	-0.102	-0.163
-744.156	34.298	-0.225	0.198
-743.142	-200.000	0.008	0.035
-742.127	800.000	-0.087	0.263
-741.112	-102.729	-0.228	0.055
-740.098	800.000	0.019	0.055
-739.083	-67.329	0.188	0.074
-738.069	359.786	-0.094	0.189
-737.054	67.596	-0.138	-0.142
-736.039	-53.587	-0.028	0.013
-735.025	800.000	0.091	0.279
-734.010	-104.736	-0.142	-0.033
-732.996	800.000	-0.140	-0.392
-731.981	121.053	-0.161	0.202
-730.966	-129.353	-0.159	-0.022
-729.952	800.000	0.100	-0.312
-728.937	-200.000	-0.017	-0.276
-727.923	97.844	-0.104	0.121
-726.908	33.035	0.272	-0.237
-725.894	174.023	-0.104	-0.151
-724.879	-100.128	-0.071	-0.018
-723.864	42.473	0.094	-0.086
-722.850	800.000	0.066	-0.196
-721.835	-200.000	-0.002	-0.202
-720.821	-140.309	-0.290	0.031
-719.806	-96.228	0.135	-0.036
-718.791	257.008	-0.163	0.281
-717.777	-200.000	0.009	0.061
-716.762	-200.000	0.013	-0.322
-715.748	-200.000	0.020	0.196
-714.733	109.028	-0.096	0.116
-713.718	179.110	0.123	0.181
-712.704	300.786	-0.080	-0.149
-711.689	-189.850	0.138	-0.002
-710.675	-200.000	0.114	0.000
-709.660	-41.553	-0.149	-0.077
-708.645	21.563	-0.194	0.159
-707.631	-113.177	-0.155	-0.031
-706.616	-200.000	-0.020	-0.168
-705.602	800.000	0.099	-0.297
-704.587	136.290	-0.122	0.160
-703.572	-200.000	0.033	-0.273
-702.558	-200.000	0.052	-0.463
-701.543	151.423	-0.062	-0.085
-700.529	-28.366	-0.315	-0.183
-699.514	-27.720	0.235	0.137
-698.499	-175.794	0.076	0.002
-697.485	400.730	0.049	0.103
-696.470	-200.000	0.047	0.278
-695.456	-200.000	-0.062	-0.287
-694.441	800.000	0.075	0.281
-693.426	37.292	0.323	-0.288
-692.412	-200.000	-0.027	0.185
-691.397	800.000	0.165	-0.498
-690.383	-20.754	-0.126	-0.078
-689.368	-111.585	-0.189	-0.038
-688.354	44.904	-0.218	0.202
-687.339	-90.785	0.241	-0.070
-686.324	-103.051	-0.193	-0.046
-685.310	-200.000	0.083	0.435
-684.295	467.501	-0.285	0.641
-683.281	-200.000	-0.092	-0.000
-682.266	212.642	0.283	-0.449
-681.251	56.909	0.137	-0.134
-680.237	-110.885	-0.119	-0.025
-679.222	-36.196	-0.375	0.203
-678.208	141.913	-0.114	-0.152
-677.193	-92.383	0.104	0.029
-676.178	17.055	-0.192	-0.153
-675.164	-143.573	0.078	-0.008
-674.149	344.505	-0.086	0.170
-673.135	800.000	-0.045	-0.160
-672.120	800.000	-0.041	-0.128
-671.105	-183.665	-0.126	-0.002
-670.091	43.156	0.177	-0.162
-669.076	-106.878	0.264	0.059
-668.062	-200.000	0.065	-0.288
-667.047	205.416	-0.037	0.057
-666.032	31.011	0.239	-0.206
-665.018	-122.723	-0.429	-0.070
-664.003	79.216	0.379	0.408
-662.989	81.739	-0.113	-0.123
-661.974	-10.916	-0.115	0.076
-660.959	800.000	-0.029	0.103
-659.945	800.000	-0.013	-0.039
-658.930	800.000	-0.122	0.435
-657.916	172.920	-0.129	0.187
-656.901	227.128	-0.189	-0.309
-655.886	-49.389	-0.110	-0.053
-654.872	800.000	-0.034	0.109
-653.857	-103.183	0.244	0.058
-652.843	33.541	-0.294	0.257
-651.828	-77.996	-0.287	0.099
-650.814	380.786	0.046	-0.094
-649.799	-200.000	0.026	-0.181
-648.784	-103.289	-0.270	-0.064
-647.770	61.311	0.188	-0.187
-646.755	-130.039	-0.077	0.011
-645.741	183.788	-0.048	-0.071
-644.726	-163.326	-0.153	0.007
-643.711	127.219	0.095	-0.121
-642.697	-200.000	0.019	-0.232
-641.682	-148.262	-0.189	-0.016
-640.668	124.492	-0.068	-0.086
-639.653	498.265	-0.190	-0.438
-638.638	-200.000	-0.020	-0.112
-637.624	388.766	-0.099	0.205
-636.609	-72.143	-0.251	-0.093
-635.595	143.040	-0.069	0.092
-634.580	-161.754	-0.124	-0.006
-633.565	-70.008	0.134	-0.051
-632.551	-98.811	0.157	0.040
-631.536	-68.644	0.210	0.082
-630.522	517.435	0.034	-0.079
-629.507	-200.000	-0.031	0.138
-628.492	94.098	-0.157	-0.179
-627.478	-37.416	0.210	0.112
-626.463	154.648	0.137	0.189
-625.449	800.000	0.139	-0.395
-624.434	-25.847	0.040	-0.024
-623.419	-200.000	0.015	-0.205
-622.405	-40.308	-0.103	-0.053
-621.390	-41.429	0.086	-0.044
-620.376	-200.000	-0.008	0.269
-619.361	299.625	0.100	0.184
-618.346	800.000	0.090	-0.302
-617.332	-200.000	0.045	-0.502
-616.317	4.335	-0.332	0.244
-615.303	-104.626	-0.203	0.047
-614.288	-200.000	-0.041	0.263
-613.273	334.173	0.246	-0.476
-612.259	136.219	0.052	0.068
-611.244	-17.952	0.304	0.191
-610.230	207.944	-0.048	-0.075
-609.215	48.288	-0.272	-0.255
-608.201	54.830	0.111	0.107
-607.186	-2.203	-0.179	-0.126
-606.171	561.718	0.094	0.227
-605.157	-200.000	0.024	0.113
-604.142	-96.127	-0.194	0.052
-603.128	800.000	-0.050	-0.206
-602.113	373.343	0.061	-0.124
-601.098	191.538	0.085	0.128
-600.084	23.554	0.031	0.026
-599.069	-160.346	-0.173	0.009
-598.055	-92.697	-0.262	-0.073
-597.040	420.952	-0.091	-0.196
-596.025	-200.000	0.015	-0.131
-595.011	-200.000	0.001	-0.174
-593.996	-53.742	0.160	-0.073
-592.982	-65.401	-0.223	0.090
-591.967	538.063	-0.107	0.254
-590.952	391.361	0.183	-0.381
-589.938	800.000	0.055	-0.175
-588.923	50.954	0.134	0.127
-587.909	9.907	-0.388	-0.295
-586.894	31.340	-0.061	-0.052
-585.879	-107.017	-0.077	0.017
-584.865	800.000	0.025	0.082
-583.850	800.000	0.064	0.196
-582.836	-200.000	-0.000	-0.303
-581.821	37.648	-0.067	-0.059
-580.806	-200.000	-0.072	-0.353
-579.792	42.948	0.064	0.058
-578.777	-42.498	0.234	-0.119
-577.763	-82.012	-0.317	0.104
-576.748	-200.000	-0.090	0.000
-575.733	-140.944	-0.450	-0.046
-574.719	-200.000	0.028	0.220
-573.704	-126.380	-0.127	-0.019
-572.690	800.000	0.136	0.392
-571.675	-151.141	0.220	0.017
-570.661	-200.000	-0.026	-0.119
-569.646	800.000	-0.136	0.514
-568.631	486.139	-0.133	-0.303
-567.617	-24.755	0.317	-0.189
-566.602	-10.665	0.215	0.142
-565.588	-62.752	-0.185	-0.077
-564.573	-200.000	0.018	0.273
-563.558	292.260	0.155	0.282
-562.544	3.696	0.144	0.105
-561.529	5.947	-0.183	-0.136
-560.515	-143.783	0.283	-0.027
-559.500	48.507	0.046	-0.043
-558.485	19.051	-0.034	0.027
-557.471	-4.626	-0.255	-0.176
-556.456	-7.409	0.177	-0.120
-555.442	-168.461	-0.479	-0.018
-554.427	365.185	-0.117	-0.236
-553.412	271.213	0.137	-0.242
-552.398	223.955	-0.069	-0.111
-551.383	-200.000	-0.023	0.410
-550.369	-36.595	-0.149	-0.080
-549.354	-200.000	0.054	0.352
-548.339	-138.207	-0.324	0.036
-547.325	630.278	0.052	0.131
-546.310	183.352	0.144	-0.212
-545.296	97.807	-0.136	0.156
-544.281	-103.287	0.066	-0.015
-543.266	-179.305	0.299	-0.007
-542.252	490.922	-0.069	-0.158
-541.237	-42.346	0.034	0.017
-540.223	-43.788	0.303	0.152
-539.208	800.000	-0.035	-0.125
-538.193	13.005	0.076	-0.059
-537.179	66.037	-0.219	-0.222
-536.164	-200.000	-0.042	-0.281
-535.150	800.000	0.075	0.228
-534.135	71.986	-0.173	0.180
-533.121	-39.123	-0.161	-0.084
-532.106	-8.378	-0.394	-0.265
-531.091	-200.000	0.022	-0.238
-530.077	54.956	0.138	0.133
-529.062	12.166	0.201	0.155
-528.048	-173.071	0.537	-0.016
-527.033	-108.783	-0.331	0.071
-526.018	-143.693	-0.574	-0.054
-525.004	-86.594	-0.196	-0.060
-523.989	-117.401	0.172	0.031
-522.975	-129.550	-0.185	-0.026
-521.960	800.000	0.035	-0.127
-520.945	800.000	-0.032	-0.132
-519.931	190.032	-0.147	0.220
-518.916	51.774	0.123	0.117
-517.902	105.739	0.174	-0.206
-516.887	-65.167	-0.380	0.153
-515.872	16.258	0.214	0.168
-514.858	800.000	-0.094	0.259
-513.843	-0.816	0.090	0.063
-512.829	-200.000	-0.002	0.012
-511.814	-70.183	0.320	-0.121
-510.799	-158.375	0.283	0.016
-509.785	-15.862	-0.022	0.014
-508.770	-200.000	0.017	0.409
-507.756	-17.018	-0.322	0.203
-506.741	-170.915	-0.103	-0.003
-505.726	227.117	-0.161	-0.261
-504.712	-25.274	0.419	0.248
-503.697	800.000	0.046	-0.195
-502.683	56.258	0.190	-0.184
-501.668	600.449	-0.119	-0.295
-500.653	-200.000	0.006	-0.120
-499.639	-200.000	-0.000	-0.046
-498.624	-6.344	0.154	0.104
-497.610	-200.000	-0.012	0.147
-496.595	-38.538	0.074	-0.039
-495.581	190.602	-0.215	0.323
-494.566	-114.592	-0.183	-0.035
-493.551	-143.863	-0.239	0.023
-492.537	-200.000	-0.007	-0.053
-491.522	760.206	-0.062	0.168
-490.508	-8.368	0.285	0.191
-489.493	3.631	-0.127	0.093
-488.478	208.245	0.176	-0.274
-487.464	48.358	-0.291	-0.271
-486.449	-107.206	0.275	0.060
-485.435	83.838	0.199	0.216
-484.420	800.000	0.037	-0.150
-483.405	-200.000	0.015	0.191
-482.391	-35.840	0.249	-0.134
-481.376	-99.402	0.201	0.050
-480.362	49.706	0.194	0.182
-479.347	-98.877	0.113	-0.029
-478.332	116.455	0.070	-0.085
-477.318	-136.345	0.290	0.034
-476.303	-81.838	-0.102	0.033
-475.289	182.942	-0.129	-0.190
-474.274	-200.000	0.016	0.106
-473.259	-15.835	-0.258	-0.164
-472.245	-200.000	0.032	0.270
-471.230	344.542	0.189	0.369
-470.216	-113.700	-0.284	0.055
-469.201	800.000	-0.031	-0.119
-468.186	114.135	-0.139	0.168
-467.172	12.099	-0.194	0.149
-466.157	37.716	-0.176	-0.156
-465.143	58.880	0.102	0.100
-464.128	35.578	0.075	-0.066
-463.113	154.893	0.035	0.048
-462.099	29.499	-0.149	-0.126
-461.084	94.776	-0.156	0.177
-460.070	-36.103	-0.161	-0.087
-459.055	-200.000	0.069	-0.422
-458.040	19.710	0.036	-0.029
-457.026	-55.104	-0.407	-0.182
-456.011	-200.000	-0.006	-0.041
-454.997	800.000	-0.106	0.373
-453.982	505.249	-0.036	0.084
-452.968	41.834	-0.081	0.073
-451.953	-101.757	-0.355	-0.086
-450.938	-100.060	-0.312	0.078
-449.924	-200.000	0.012	-0.360
-448.909	741.022	0.044	-0.118
-447.895	-200.000	0.006	0.273
-446.880	800.000	0.037	-0.137
-445.865	-200.000	0.025	0.172
-444.851	800.000	0.008	-0.029
-443.836	-40.988	0.154	-0.079
-442.822	13.190	0.321	0.247
-441.807	-85.543	0.080	-0.025
-440.792	110.677	0.146	0.175
-439.778	800.000	-0.065	-0.229
-438.763	-44.112	0.249	-0.124
-437.749	-187.732	0.188	-0.002
-436.734	19.843	-0.327	0.262
-435.719	-61.308	0.070	-0.029
-434.705	-74.848	0.413	-0.147
-433.690	-200.000	-0.046	0.296
-432.676	-123.422	-0.108	-0.017
-431.661	95.813	-0.128	-0.145
-430.646	-139.570	0.234	-0.025
-429.632	-94.830	-0.231	-0.062
-428.617	93.452	-0.075	0.085
-427.603	406.946	-0.110	-0.232
-426.588	-184.889	0.506	0.008
-425.573	62.540	-0.028	-0.027
-424.559	-39.178	0.340	0.177
-423.544	-21.188	-0.133	0.081
-422.530	800.000	0.098	-0.321
-421.515	800.000	0.054	-0.208
-420.500	176.354	0.096	-0.138
-419.486	-200.000	0.019	0.101
-418.471	-111.708	0.043	-0.009
-417.457	-200.000	0.040	-0.359
-416.442	-36.103	0.229	0.123
-415.428	-200.000	0.044	-0.235
-414.413	-200.000	0.006	-0.041
-413.398	-96.654	-0.040	0.011
-412.384	-102.253	-0.103	-0.025
-411.369	-2.564	-0.293	0.204
-410.355	26.532	-0.046	0.038
-409.340	146.039	-0.214	0.285
-408.325	-200.000	0.077	0.360
-407.311	800.000	0.095	-0.296
-406.296	-82.722	-0.261	-0.084
-405.282	-88.443	0.343	0.102
-404.267	-79.907	-0.261	0.087
-403.252	240.498	0.217	-0.360
-402.238	-165.692	0.244	0.010
-401.223	226.452	-0.126	0.204
-400.209	-200.000	0.035	0.281
-399.194	-90.667	-0.161	-0.046
-398.179	-23.299	0.271	-0.162
-397.165	-80.385	0.203	-0.067
-396.150	800.000	-0.042	-0.115
-395.136	-82.548	0.066	0.021
-394.121	-200.000	0.081	0.379
-393.106	-111.022	-0.054	-0.011
-392.092	-102.856	0.292	-0.069
-391.077	-141.990	0.212	-0.021
-390.063	-68.105	0.166	0.064
-389.048	50.071	0.028	-0.026
-388.033	-15.335	0.128	-0.081
-387.019	89.313	-0.112	0.124
-386.004	8.520	-0.205	-0.153
-384.990	-94.889	-0.113	-0.030
-383.975	-76.365	0.041	0.014
-382.960	-72.760	0.510	-0.186
-381.946	-28.014	0.385	0.221
-380.931	-71.926	0.127	-0.047
-379.917	141.446	-0.290	0.381
-378.902	-121.063	0.305	-0.051
-377.888	800.000	0.106	-0.396
-376.873	-160.962	0.231	0.012
-375.858	-141.241	-0.074	-0.007
-374.844	16.511	0.373	-0.292
-373.829	-24.488	-0.359	-0.212
-372.815	151.356	0.028	0.038
-371.800	-117.014	-0.222	0.040
-370.785	-200.000	-0.061	-0.399
-369.771	800.000	-0.068	-0.224
-368.756	-200.000	-0.422	0.000
-367.742	-28.516	0.317	-0.181
-366.727	266.391	0.132	0.229
-365.712	-124.299	0.075	0.012
-364.698	-104.585	0.070	-0.016
-363.683	-94.384	-0.025	0.007
-362.669	42.038	0.186	-0.167
-361.654	205.431	-0.112	-0.173
-360.639	115.150	-0.117	0.142
-359.625	47.198	-0.189	-0.175
-358.610	107.770	0.247	-0.292
-357.596	-82.878	-0.339	0.109
-356.581	82.336	-0.071	0.077
-355.566	456.123	-0.100	-0.220
-354.552	-200.000	-0.010	-0.305
-353.537	181.437	-0.123	-0.179
-352.523	-200.000	0.008	-0.199
-351.508	-61.217	-0.249	0.104
-350.493	-200.000	-0.035	0.292
-349.479	-128.490	-0.139	-0.020
-348.464	-6.629	-0.219	-0.148
-347.450	-26.796	-0.167	-0.097
-346.435	-136.761	-0.050	-0.006
-345.420	-200.000	-0.364	-0.001
-344.406	5.551	-0.122	0.089
-343.391	-73.282	-0.441	0.160
-342.377	51.594	0.144	0.135
-341.362	-149.055	-0.242	-0.019
-340.348	251.930	-0.075	0.127
-339.333	-47.189	-0.398	-0.192
-338.318	-9.729	0.094	0.062
-337.304	3.497	-0.252	0.182
-336.289	-30.474	-0.275	0.155
-335.275	165.472	0.236	-0.331
-334.260	-9.469	-0.308	0.203
-333.245	-200.000	0.024	-0.168
-332.231	-154.562	0.315	0.021
-331.216	17.220	0.083	-0.065
-330.202	75.336	0.187	0.196
-329.187	-113.811	0.012	-0.002
-328.172	-41.212	0.114	-0.058
-327.158	800.000	0.059	-0.235
-326.143	209.180	0.016	0.025
-325.129	215.171	0.180	0.282
-324.114	-200.000	-0.032	0.154
-323.099	800.000	0.034	-0.123
-322.085	-58.452	0.151	0.065
-321.070	246.180	-0.104	0.174
-320.056	-200.000	-0.020	0.122
-319.041	-146.666	-0.140	0.012
-318.026	-200.000	0.008	-0.055
-317.012	-171.961	0.383	-0.012
-315.997	-112.538	0.134	0.026
-314.983	-200.000	0.050	0.226
-313.968	-5.628	-0.413	-0.281
-312.953	244.679	0.161	-0.267
-311.939	-45.944	-0.145	-0.071
-310.924	178.461	0.173	0.250
-309.910	45.206	0.044	0.040
-308.895	169.949	0.168	-0.238
-307.880	-200.000	0.020	-0.366
-306.866	-43.244	0.102	-0.051
-305.851	-89.219	0.180	0.053
-304.837	-200.000	-0.001	0.273
-303.822	235.295	-0.144	0.236
-302.807	-200.000	0.008	0.100
-301.793	490.426	0.035	0.079
-300.778	-117.926	-0.193	-0.034
-299.764	794.429	0.161	-0.438
-298.749	-146.950	0.289	0.025
-297.735	181.164	-0.310	-0.451
-296.720	174.408	-0.146	-0.209
-295.705	-16.847	-0.146	-0.091
-294.691	-27.052	-0.097	0.056
-293.676	714.042	-0.114	0.299
-292.662	71.195	-0.192	0.197
-291.647	800.000	0.073	0.246
-290.632	-115.711	-0.065	0.012
-289.618	800.000	-0.015	-0.062
-288.603	706.313	-0.062	0.161
-287.589	90.721	-0.080	0.089
-286.574	-147.308	0.320	-0.027
-285.559	-0.912	0.159	-0.111
-284.545	-124.529	0.380	-0.058
-283.530	176.659	-0.026	-0.038
-282.516	618.093	-0.082	-0.203
-281.501	-91.447	-0.021	-0.006
-280.486	683.778	0.013	-0.034
-279.472	800.000	-0.037	-0.139
-278.457	800.000	0.083	-0.311
-277.443	117.963	0.183	0.223
-276.428	223.427	-0.193	0.308
-275.413	168.542	0.134	-0.189
-274.399	800.000	0.064	0.251
-273.384	228.590	0.148	-0.238
-272.370	-200.000	-0.054	0.238
-271.355	93.637	-0.129	-0.144
-270.340	94.955	-0.322	-0.362
-269.326	-200.000	-0.005	0.260
-268.311	-128.078	0.096	0.014
-267.297	428.682	-0.165	-0.353
-266.282	47.423	0.145	0.134
-265.267	186.729	-0.080	-0.117
-264.253	800.000	0.035	0.120
-263.238	-93.259	-0.193	-0.053
-262.224	-55.786	-0.196	-0.087
-261.209	-22.286	-0.034	0.020
-260.195	310.262	-0.110	0.203
-259.180	-52.624	0.381	-0.174
-258.165	-200.000	0.019	0.085
-257.151	33.497	0.296	-0.254
-256.136	-11.079	-0.131	0.086
-255.122	-46.983	-0.313	0.151
-254.107	244.062	-0.120	-0.199
-253.092	522.510	-0.053	-0.124
-252.078	7.548	-0.220	-0.162
-251.063	-66.013	0.245	-0.097
-250.049	-164.540	0.214	0.010
-249.034	-200.000	0.023	-0.108
-248.019	800.000	-0.071	0.229
-247.005	800.000	-0.073	-0.251
-245.990	208.525	-0.237	-0.366
-244.976	-97.665	0.313	-0.080
-243.961	30.172	0.164	0.138
-242.946	73.762	0.234	-0.243
-241.932	-200.000	0.003	-0.057
-240.917	47.743	-0.320	0.295
-239.903	-14.339	0.218	-0.139
-238.888	-99.787	-0.237	0.059
-237.873	800.000	0.108	0.326
-236.859	-21.506	0.132	0.079
-235.844	-200.000	-0.090	0.000
-234.830	800.000	-0.115	0.345
-233.815	306.514	-0.130	0.238
-232.800	99.937	0.173	0.198
-231.786	-188.740	-0.052	-0.001
-230.771	800.000	-0.054	0.181
-229.757	-176.210	0.291	0.008
-228.742	-1.072	0.159	0.111
-227.727	220.545	-0.026	0.041
-226.713	800.000	0.068	0.233
-225.698	157.239	-0.172	0.235
-224.684	122.412	-0.124	0.153
-223.669	12.457	0.209	-0.159
-222.655	100.738	0.282	-0.323
-221.640	123.870	0.208	0.258
-220.625	42.511	-0.241	0.216
-219.611	189.111	-0.336	0.496
-218.596	491.908	0.158	0.356
-217.582	-96.697	0.088	0.023
-216.567	-200.000	-0.036	0.295
-215.552	-23.805	-0.153	-0.090
-214.538	-111.005	0.377	-0.076
-213.523	-184.534	-0.308	-0.005
-212.509	530.417	0.062	0.145
-211.494	7.702	0.141	-0.104
-210.479	22.707	0.035	0.029
-209.465	-200.000	0.038	0.384
-208.450	412.197	0.105	-0.220
-207.436	-1.920	0.362	0.251
-206.421	161.118	0.086	0.119
-205.406	-200.000	0.021	-0.103
-204.392	131.062	0.269	0.341
-203.377	161.241	-0.067	0.093
-202.363	59.364	-0.099	-0.096
-201.348	304.264	-0.158	-0.288
-200.333	316.978	0.157	0.293
-199.319	-200.000	0.006	-0.045
-198.304	-39.603	-0.223	0.115
-197.290	249.326	-0.174	0.291
-196.275	-200.000	0.010	0.232
-195.260	-112.970	0.225	0.044
-194.246	-200.000	-0.001	-0.072
-193.231	41.988	-0.368	0.329
-192.217	800.000	-0.090	0.337
-191.202	-25.313	-0.281	0.164
-190.187	93.672	-0.171	0.190
-189.173	154.579	0.188	0.255
-188.158	202.826	0.085	-0.129
-187.144	222.955	-0.151	-0.239
-186.129	1.484	-0.247	-0.175
-185.114	-200.000	0.004	0.217
-184.100	-200.000	0.074	-0.341
-183.085	-200.000	-0.024	-0.365
-182.071	200.147	0.012	0.018
-181.056	-200.000	-0.028	0.184
-180.042	62.766	0.159	0.157
-179.027	800.000	0.061	0.231
-178.012	-13.782	0.216	0.137
-176.998	-14.596	0.181	-0.114
-175.983	-63.991	0.128	-0.051
-174.969	-200.000	0.029	-0.133
-173.954	-21.094	0.108	0.065
-172.939	-200.000	-0.015	0.467
-171.925	57.547	0.086	0.083
-170.910	-130.620	0.154	0.020
-169.896	3.028	0.014	-0.010
-168.881	734.451	0.155	0.409
-167.866	-59.548	-0.162	0.068
-166.852	-200.000	0.036	-0.228
-165.837	-200.000	0.022	-0.210
-164.823	73.599	0.265	0.274
-163.808	-99.956	-0.336	-0.083
-162.793	-200.000	0.014	0.125
-161.779	800.000	-0.012	-0.033
-160.764	-200.000	-0.011	-0.116
-159.750	-30.225	0.082	0.046
-158.735	-64.720	-0.154	0.062
-157.720	-200.000	0.055	-0.400
-156.706	-74.398	-0.040	-0.014
-155.691	101.823	0.271	-0.311
-154.677	-26.942	0.171	-0.099
-153.662	200.173	0.178	0.270
-152.647	460.635	-0.078	0.172
-151.633	-130.942	0.077	-0.010
-150.618	-72.673	-0.224	0.081
-149.604	80.872	0.090	0.095
-148.589	56.324	-0.227	0.217
-147.574	800.000	-0.085	-0.287
-146.560	-16.259	-0.137	0.086
-145.545	125.564	0.204	-0.253
-144.531	-200.000	0.001	0.110
-143.516	109.288	0.118	0.139
-142.502	77.579	0.219	0.230
-141.487	-71.405	-0.240	-0.088
-140.472	-200.000	-0.013	-0.453
-139.458	93.563	-0.158	-0.176
-138.443	244.104	-0.070	-0.116
-137.429	800.000	-0.054	-0.150
-136.414	289.732	0.171	0.306
-135.399	800.000	0.134	0.404
-134.385	-200.000	0.047	0.280
-133.370	-144.548	-0.291	-0.026
-132.356	-16.529	-0.100	0.063
-131.341	105.145	0.181	-0.210
-130.326	800.000	0.077	0.224
-129.312	-23.008	-0.551	0.326
-128.297	800.000	0.033	0.104
-127.283	-46.076	0.451	0.219
-126.268	-77.527	-0.137	-0.047
-125.253	65.511	-0.098	0.098
-124.239	-73.295	0.153	0.055
-123.224	-200.000	-0.003	-0.240
-122.210	461.184	0.165	0.362
-121.195	-27.596	-0.219	-0.125
-120.180	-144.160	0.140	0.013
-119.166	261.138	0.072	0.122
-118.151	47.241	0.148	-0.135
-117.137	-200.000	0.024	-0.287
-116.122	192.935	-0.229	0.340
-115.107	-200.000	0.012	-0.223
-114.093	-51.603	-0.282	0.129
-113.078	81.112	0.216	-0.229
-112.064	229.844	-0.065	0.104
-111.049	-93.185	0.239	0.065
-110.034	282.771	0.123	0.216
-109.020	226.468	-0.051	-0.082
-108.005	-112.027	0.168	0.033
-106.991	-161.402	0.101	0.005
-105.976	-147.361	0.057	-0.005
-104.962	0.231	0.112	-0.079
-103.947	-104.555	0.102	-0.023
-102.932	39.676	-0.096	0.085
-101.918	-17.008	0.019	-0.012
-100.903	70.650	-0.332	-0.337
-99.889	-124.176	-0.092	-0.014
-98.874	171.765	0.207	0.292
-97.859	185.398	0.057	0.083
-96.845	-200.000	-0.029	-0.151
-95.830	406.629	0.111	0.230
-94.816	-200.000	0.038	0.170
-93.801	-132.673	-0.151	0.019
-92.786	-200.000	0.021	0.153
-91.772	-139.355	0.078	-0.008
-90.757	493.138	0.063	0.142
-89.743	7.631	0.051	-0.037
-88.728	-3.110	-0.075	-0.051
-87.713	-92.399	-0.064	0.018
-86.699	800.000	-0.013	-0.039
-85.684	-145.719	0.196	0.017
-84.670	-77.726	0.281	-0.095
-83.655	-97.956	-0.130	-0.033
-82.640	11.742	0.277	0.209
-81.626	192.696	0.129	-0.191
-80.611	800.000	-0.034	0.096
-79.597	-200.000	0.003	-0.229
-78.582	-200.000	0.002	-0.335
-77.567	800.000	-0.021	-0.066
-76.553	79.419	-0.050	0.053
-75.538	-11.750	-0.148	0.095
-74.524	-45.416	-0.248	-0.121
-73.509	-59.264	0.025	-0.011
-72.494	353.429	-0.089	0.174
-71.480	287.093	0.101	0.178
-70.465	-8.429	0.375	0.247
-69.451	74.615	-0.053	-0.054
-68.436	-113.657	-0.362	0.069
-67.422	800.000	0.052	0.147
-66.407	68.518	0.302	-0.303
-65.392	-200.000	-0.055	-0.287
-64.378	-126.067	-0.191	0.028
-63.363	800.000	0.120	-0.329
-62.349	52.579	-0.117	0.110
-61.334	7.392	-0.998	-0.731
-60.319	-119.025	0.795	0.136
-59.305	255.429	-0.501	-0.842
-58.290	132.623	0.837	1.059
-57.276	299.893	0.857	1.549
-56.261	-200.000	108.301	598.298
-55.246	455.133	1478.859	3213.535
-54.232	147.199	2665.977	3516.591
-53.217	100.445	2282.164	2596.778
-52.203	38.845	1895.656	1659.356
-51.188	33.100	1685.755	1432.190
-50.173	30.404	1642.635	1375.558
-49.159	49.488	1695.864	1564.248
-48.144	49.929	1711.677	1582.083
-47.130	32.594	1669.073	1413.992
-46.115	29.839	1654.712	1381.238
-45.100	29.757	1649.949	1376.594
-44.086	29.650	1647.439	1373.650
-43.071	29.689	1644.763	1371.657
-42.057	29.570	1642.390	1368.737
-41.042	29.806	1639.598	1368.100
-40.027	29.719	1637.929	1366.012
-39.013	29.709	1636.467	1364.665
-37.998	29.640	1634.614	1362.560
-36.984	29.722	1633.063	1361.812
-35.969	29.812	1631.886	1361.440
-34.954	29.897	1630.378	1360.754
-33.940	29.802	1628.698	1358.602
-32.925	29.823	1627.152	1357.410
-31.911	29.799	1625.509	1355.812
-30.896	29.823	1623.719	1354.437
-29.881	29.799	1622.024	1352.800
-28.867	29.735	1620.545	1351.043
-27.852	29.779	1618.780	1349.835
-26.838	29.812	1617.276	1348.770
-25.823	29.827	1615.949	1347.723
-24.809	29.889	1614.674	1347.054
-23.794	29.761	1613.380	1344.992
-22.779	29.833	1611.869	1344.204
-21.765	29.785	1610.379	1342.558
-20.750	29.758	1608.759	1340.958
-19.736	29.831	1606.993	1339.960
-18.721	29.825	1605.566	1338.672
-17.706	29.817	1604.040	1337.292
-16.692	29.846	1602.651	1336.289
-15.677	29.859	1601.428	1335.314
-14.663	29.811	1600.215	1333.897
-13.648	29.874	1598.481	1332.853
-12.633	29.823	1597.058	1331.248
-11.619	29.865	1595.156	1329.915
-10.604	29.937	1593.560	1329.048
-9.590	29.955	1592.548	1328.282
-8.575	29.798	1591.798	1326.473
-7.560	29.922	1590.588	1326.305
-6.546	29.897	1589.542	1325.198
-5.531	29.794	1587.872	1323.013
-4.517	29.826	1587.262	1322.684
-3.502	29.767	1586.219	1321.344
-2.487	29.909	1583.866	1320.341
-1.473	29.555	1572.338	1308.174
-0.458	26.461	1553.410	1270.678
0.556	21.117	1554.269	1239.273
1.571	18.829	1577.851	1241.450
2.586	18.380	1591.135	1248.519
3.600	16.754	1538.455	1195.607
4.615	9.323	1429.443	1061.887
5.629	1.667	1364.986	965.488
6.644	0.175	1356.624	950.078
7.659	0.039	1355.445	948.311
8.673	0.073	1354.007	947.434
9.688	0.062	1352.425	946.174
10.702	-0.216	1349.412	942.238
11.717	3.449	1355.124	969.211
12.731	11.839	1368.427	1031.712
13.746	17.174	1375.450	1070.632
14.761	17.216	1373.816	1069.531
15.775	16.242	1371.203	1061.277
16.790	15.176	1368.638	1052.506
17.804	14.398	1366.252	1045.695
18.819	14.104	1364.996	1042.800
19.834	13.791	1363.823	1039.853
20.848	13.513	1362.321	1036.870
21.863	13.198	1361.552	1034.223
22.877	13.132	1360.091	1032.608
23.892	13.070	1359.612	1031.769
24.907	13.030	1358.778	1030.797
25.921	13.129	1357.622	1030.445
26.936	13.040	1356.665	1029.072
27.950	13.127	1355.673	1028.772
28.965	13.265	1354.991	1029.021
29.980	13.245	1354.168	1028.177
30.994	13.364	1353.096	1028.016
32.009	13.353	1352.257	1027.221
33.023	13.312	1351.135	1026.022
34.038	13.345	1349.958	1025.240
35.053	13.317	1348.845	1024.128
36.067	13.227	1347.963	1022.812
37.082	13.295	1346.816	1022.275
38.096	13.336	1345.679	1021.575
39.111	13.369	1345.171	1021.301
40.126	13.135	1344.399	1019.181
41.140	13.079	1343.656	1018.179
42.155	13.099	1343.172	1017.846
43.169	13.041	1342.807	1017.123
44.184	13.270	1342.164	1017.954
45.199	13.100	1342.259	1016.893
46.213	13.129	1341.244	1016.209
47.228	13.224	1340.302	1015.995
48.242	13.280	1339.294	1015.480
49.257	13.167	1337.900	1013.644
50.271	13.231	1336.286	1012.724
51.286	13.262	1334.981	1011.832
52.301	13.334	1333.795	1011.285
53.315	13.171	1332.999	1009.594
54.330	13.169	1332.048	1008.777
55.344	13.126	1330.945	1007.586
56.359	13.175	1329.754	1006.894
57.374	13.143	1328.619	1005.751
58.388	13.081	1328.589	1005.260
59.403	13.102	1328.092	1004.924
60.417	13.083	1327.181	1004.029
61.432	13.035	1325.928	1002.702
62.447	13.054	1325.050	1002.069
63.461	13.057	1323.535	1000.849
64.476	12.936	1323.213	999.786
65.490	12.944	1321.971	998.803
66.505	13.006	1320.244	997.788
67.520	12.993	1318.929	996.624
68.534	13.079	1318.267	996.561
69.549	12.982	1317.383	995.215
70.563	13.104	1315.842	994.697
71.578	13.068	1314.606	993.461
72.593	12.995	1314.118	992.562
73.607	12.936	1313.592	991.724
74.622	13.003	1312.353	991.105
75.636	12.972	1311.923	990.503
76.651	12.956	1310.598	989.320
77.666	12.899	1310.215	988.604
78.680	12.983	1309.540	988.506
79.695	13.004	1308.969	988.115
80.709	12.952	1308.257	987.177
81.724	13.142	1306.710	987.058
82.739	13.095	1306.358	986.430
83.753	13.162	1305.333	985.964
84.768	13.254	1304.513	985.809
85.782	13.304	1303.287	985.093
86.797	13.394	1301.628	984.289
87.812	13.291	1300.631	982.831
88.826	13.216	1299.620	981.539
89.841	13.241	1298.771	980.959
90.855	13.303	1297.845	980.540
91.870	13.327	1296.714	979.738
92.884	13.350	1295.757	979.067
93.899	13.266	1295.511	978.294
94.914	13.334	1294.785	978.064
95.928	13.326	1293.479	976.940
96.943	13.331	1292.626	976.244
97.957	13.438	1291.361	975.832
98.972	13.410	1290.253	974.741
99.987	13.353	1289.274	973.581
101.001	13.242	1288.711	972.415
102.016	13.289	1287.525	971.711
103.030	13.270	1287.042	971.148
104.045	13.316	1285.781	970.381
105.060	13.302	1284.371	969.149
106.074	13.199	1283.161	967.548
107.089	13.071	1282.068	965.889
108.103	13.181	1280.663	965.388
109.118	13.055	1279.783	963.905
110.133	13.153	1278.085	963.111
111.147	13.041	1277.308	961.789
112.162	13.124	1275.733	961.003
113.176	13.253	1274.180	960.495
114.191	13.195	1273.748	959.746
115.206	13.160	1272.748	958.707
116.220	13.227	1271.382	957.979
117.235	13.247	1269.983	956.958
118.249	12.987	1270.059	955.426
119.264	13.097	1268.602	954.882
120.279	13.102	1266.713	953.405
121.293	13.048	1266.130	952.569
122.308	13.074	1265.016	951.796
123.322	13.070	1263.847	950.807
124.337	13.156	1262.658	950.324
125.352	13.130	1261.552	949.261
126.366	13.161	1260.480	948.547
127.381	13.128	1259.721	947.703
128.395	13.079	1258.851	946.681
129.410	13.105	1257.789	945.948
130.424	13.280	1256.329	945.768
131.439	13.168	1256.058	944.842
132.454	13.205	1254.733	943.974
133.468	13.247	1254.068	943.627
134.483	13.203	1253.232	942.663
135.497	13.239	1251.677	941.616
136.512	13.312	1250.528	941.082
137.527	13.233	1249.606	939.858
138.541	13.196	1248.312	938.591
139.556	13.257	1246.868	937.770
140.570	13.290	1246.198	937.366
141.585	13.355	1244.391	936.292
142.600	13.344	1243.250	935.289
143.614	13.355	1242.422	934.645
144.629	13.431	1241.245	934.108
145.643	13.433	1240.277	933.310
146.658	13.316	1239.175	931.739
147.673	13.391	1237.774	931.022
148.687	13.315	1236.559	929.601
149.702	13.292	1235.265	928.419
150.716	13.238	1234.099	927.153
151.731	13.342	1232.447	926.414
152.746	13.310	1231.980	925.803
153.760	13.305	1230.716	924.745
154.775	13.384	1229.530	924.208
155.789	13.326	1228.909	923.338
156.804	13.355	1227.887	922.651
157.819	13.489	1226.552	922.312
158.833	13.637	1225.459	922.231
159.848	13.535	1224.908	921.169
160.862	13.557	1223.517	920.162
161.877	13.527	1222.177	918.908
162.892	13.461	1221.336	917.826
163.906	13.353	1220.938	916.848
164.921	13.478	1219.376	916.286
165.935	13.453	1218.693	915.554
166.950	13.477	1218.378	915.368
167.964	13.331	1217.987	914.186
168.979	13.427	1217.284	914.109
169.994	13.468	1216.158	913.407
171.008	13.469	1215.214	912.623
172.023	13.542	1214.633	912.512
173.037	13.599	1213.883	912.178
174.052	13.618	1212.688	911.308
175.067	13.556	1211.841	910.247
176.081	13.461	1210.586	908.701
177.096	13.472	1209.806	908.095
178.110	13.513	1208.395	907.181
179.125	13.602	1207.014	906.554
180.140	13.579	1205.792	905.431
181.154	13.683	1205.032	905.346
182.169	13.602	1203.824	903.917
183.183	13.642	1202.867	903.335
184.198	13.698	1201.587	902.598
185.213	13.798	1200.209	902.031
186.227	13.752	1199.279	901.003
187.242	13.815	1198.106	900.382
188.256	13.769	1197.130	899.318
189.271	13.861	1195.849	898.777
190.286	13.664	1195.282	897.200
191.300	13.650	1194.457	896.429
192.315	13.643	1193.535	895.621
193.329	13.551	1193.321	894.884
194.344	13.631	1192.778	894.826
195.359	13.663	1192.143	894.443
196.373	13.796	1191.641	894.706
197.388	13.733	1191.080	893.866
198.402	13.869	1190.494	894.080
199.417	13.945	1189.676	893.793
200.432	14.008	1188.818	893.410
201.446	13.986	1188.107	892.681
202.461	13.988	1186.950	891.741
203.475	14.049	1186.142	891.384
204.490	14.073	1184.563	890.248
205.504	13.945	1183.917	888.996
206.519	14.003	1182.401	888.087
207.534	14.008	1181.510	887.370
208.548	13.911	1180.682	886.152
209.563	13.967	1179.869	885.759
210.577	14.126	1178.712	885.663
211.592	14.084	1177.724	884.618
212.607	14.095	1176.911	883.986
213.621	14.149	1176.402	883.813
214.636	14.124	1175.403	882.852
215.650	14.104	1174.323	881.854
216.665	14.087	1173.672	881.198
217.680	14.198	1172.422	880.772
218.694	14.228	1172.137	880.638
219.709	14.201	1171.112	879.645
220.723	14.246	1170.529	879.368
221.738	14.154	1169.585	878.093
222.753	14.206	1169.001	877.853
223.767	14.327	1168.144	877.768
224.782	14.250	1167.743	876.986
225.796	14.397	1166.893	877.043
226.811	14.289	1166.647	876.214
227.826	14.330	1165.728	875.662
228.840	14.279	1164.974	874.749
229.855	14.286	1164.181	874.112
230.869	14.343	1163.421	873.763
231.884	14.346	1162.548	873.045
232.899	14.290	1161.887	872.179
233.913	14.363	1161.083	871.883
234.928	14.229	1160.129	870.386
235.942	14.337	1159.646	870.513
236.957	14.333	1158.699	869.701
237.972	14.310	1158.246	869.166
238.986	14.307	1157.614	868.598
240.001	14.420	1156.682	868.412
241.015	14.375	1156.125	867.681
242.030	14.442	1155.098	867.184
243.045	14.478	1154.352	866.731
244.059	14.477	1153.731	866.184
245.074	14.448	1152.578	865.092
246.088	14.447	1151.683	864.339
247.103	14.481	1151.128	864.024
248.117	14.543	1150.552	863.835
249.132	14.639	1150.056	863.880
250.147	14.643	1149.025	863.054
251.161	14.594	1148.837	862.581
252.176	14.780	1147.797	862.685
253.190	14.825	1147.160	862.360
254.205	14.814	1146.682	861.872
255.220	14.834	1145.820	861.249
256.234	14.846	1145.491	860.989
257.249	14.752	1144.628	859.778
258.263	14.880	1143.743	859.693
259.278	14.951	1143.173	859.553
260.293	14.949	1142.774	859.167
261.307	14.863	1142.251	858.257
262.322	15.024	1141.589	858.509
263.336	15.038	1141.036	858.089
264.351	14.859	1140.630	856.792
265.366	14.976	1139.683	856.602
266.380	15.019	1139.442	856.567
267.395	15.010	1138.077	855.419
268.409	15.006	1137.320	854.753
269.424	14.958	1136.878	854.102
270.439	14.997	1136.375	853.846
271.453	14.875	1135.536	852.521
272.468	14.927	1134.894	852.224
273.482	14.851	1134.079	851.154
274.497	15.028	1133.425	851.485
275.512	15.020	1132.857	850.943
276.526	15.036	1132.092	850.376
277.541	14.944	1131.479	849.374
278.555	15.048	1130.437	849.044
279.570	15.083	1129.621	848.531
280.585	15.181	1129.036	848.516
281.599	15.237	1127.895	847.867
282.614	15.187	1126.969	846.841
283.628	15.178	1126.025	846.009
284.643	15.153	1125.459	845.384
285.657	15.299	1123.983	844.939
286.672	15.197	1123.680	844.121
287.687	15.246	1122.632	843.508
288.701	15.280	1121.812	842.987
289.716	15.314	1121.179	842.608
290.730	15.277	1120.405	841.764
291.745	15.195	1119.856	840.864
292.760	15.338	1119.242	841.045
293.774	15.353	1118.761	840.685
294.789	15.427	1118.318	840.652
295.803	15.456	1117.476	840.086
296.818	15.370	1116.797	839.072
297.833	15.363	1115.815	838.224
298.847	15.443	1115.133	838.040
299.862	15.306	1114.476	836.786
300.876	15.393	1113.706	836.568
301.891	15.460	1112.887	836.216
302.906	15.406	1112.283	835.415
303.920	15.570	1111.363	835.469
304.935	15.550	1111.059	835.066
305.949	15.650	1110.192	834.835
306.964	15.735	1109.231	834.465
307.979	15.695	1108.673	833.773
308.993	15.605	1107.965	832.716
310.008	15.641	1107.244	832.282
311.022	15.748	1106.601	832.251
312.037	15.590	1105.909	830.880
313.052	15.641	1104.902	830.302
314.066	15.541	1104.014	829.063
315.081	15.365	1103.332	827.610
316.095	15.486	1102.482	827.500
317.110	15.599	1101.523	827.262
318.125	15.555	1101.051	826.618
319.139	15.613	1100.347	826.299
320.154	15.629	1099.999	826.046
321.168	15.648	1099.219	825.480
322.183	15.664	1098.387	824.861
323.197	15.751	1097.855	824.811
324.212	15.702	1096.814	823.720
325.227	15.698	1096.541	823.423
326.241	15.636	1096.392	822.932
327.256	15.736	1095.145	822.412
328.270	15.898	1094.103	822.348
329.285	15.610	1094.043	820.825
330.300	15.833	1092.379	820.589
331.314	15.739	1091.910	819.706
332.329	15.866	1090.722	819.363
333.343	15.824	1090.096	818.615
334.358	15.881	1089.019	818.011
335.373	15.909	1088.381	817.594
336.387	15.852	1087.929	816.906
337.402	15.957	1087.259	816.839
338.416	15.880	1086.612	815.908
339.431	16.040	1085.614	815.862
340.446	16.154	1084.780	815.716
341.460	16.028	1085.024	815.218
342.475	16.162	1083.759	814.842
343.489	16.150	1082.885	814.053
344.504	16.115	1081.867	813.046
345.519	16.128	1081.062	812.435
346.533	16.284	1080.092	812.381
347.548	16.291	1079.557	811.943
348.562	16.185	1078.938	810.896
349.577	16.230	1078.064	810.383
350.592	16.127	1077.626	809.488
351.606	16.058	1076.813	808.474
352.621	16.106	1075.797	807.871
353.635	16.063	1075.227	807.162
354.650	16.117	1074.659	806.926
355.665	16.305	1073.755	807.075
356.679	16.164	1073.327	806.008
357.694	16.170	1072.808	805.572
358.708	16.199	1072.386	805.327
359.723	16.231	1071.288	804.584
360.738	16.334	1070.485	804.399
361.752	16.307	1070.394	804.128
362.767	16.403	1069.529	803.864
363.781	16.260	1069.381	803.000
364.796	16.360	1068.702	802.895
365.810	16.483	1068.432	803.207
366.825	16.489	1067.352	802.353
367.840	16.643	1066.442	802.331
368.854	16.641	1066.160	802.037
369.869	16.584	1065.364	801.095
370.883	16.491	1064.724	800.102
371.898	16.450	1063.901	799.223
372.913	16.396	1063.624	798.686
373.927	16.590	1062.969	799.039
374.942	16.541	1062.283	798.224
375.956	16.504	1062.225	797.934
376.971	16.634	1061.432	797.879
377.986	16.549	1060.757	796.900
379.000	16.674	1060.079	796.908
380.015	16.752	1059.374	796.676
381.029	16.753	1058.738	796.134
382.044	16.755	1057.724	795.311
383.059	16.786	1057.245	795.023
384.073	16.866	1056.283	794.604
385.088	16.813	1055.170	793.449
386.102	16.835	1054.531	793.002
387.117	16.820	1053.542	792.119
388.132	16.786	1052.766	791.307
389.146	16.752	1052.403	790.805
390.161	16.771	1051.592	790.215
391.175	16.644	1051.090	789.177
392.190	16.866	1050.058	789.365
393.205	16.801	1049.748	788.759
394.219	16.841	1048.618	788.026
395.234	16.870	1047.743	787.434
396.248	16.857	1046.696	786.516
397.263	16.837	1046.160	785.952
398.278	16.784	1045.236	784.941
399.292	16.937	1044.295	784.873
400.307	16.843	1043.841	784.027
401.321	16.786	1043.676	783.572
402.336	16.791	1042.690	782.786
403.350	16.938	1041.626	782.594
404.365	16.867	1041.164	781.852
405.380	16.878	1040.423	781.277
406.394	16.912	1039.663	780.795
407.409	17.125	1038.584	780.893
408.423	17.007	1038.089	779.908
409.438	17.160	1037.784	780.316
410.453	17.025	1037.356	779.305
411.467	17.151	1036.281	779.005
412.482	17.119	1035.655	778.321
413.496	17.132	1035.126	777.913
414.511	17.244	1034.273	777.714
415.526	17.256	1034.160	777.618
416.540	17.357	1033.790	777.730
417.555	17.152	1032.903	776.060
418.569	17.359	1032.346	776.514
419.584	17.255	1032.220	775.876
420.599	17.290	1031.579	775.488
421.613	103.368	1322.091	1468.679
422.628	94.622	1364.394	1468.776
