DTS Sentinel unit serial number:	SN413079Multiplexer serial number:	ORYXHardware model number:	OX4-SRSoftware version number:	ORYX F/W v4.00 Oryx Data Collector v3.7.2.0data status	okinstallation	princeton_trtdifferential loss correction	single-endedforward channel	channel 2reverse channel	N/Adate	2019/09/17time	19:35:35forward acquisition time	60.00reverse acquisition time	0.00gamma	496.2192k internal	0.2324k external	0.2324temperature offset calibration	0.9984default loss term (dB/km)	0.3790temperature slope calibration	1.0000multiplexer offset coefficient	1.0000multiplexer slope coefficient	1.0000fibre end	0.00T internal ref (°C)	36.02T ext. ref 1 (°C)	0.24T ext. ref 2 (°C)	24.77length (m)	temperature (°C)	Stokes	anti-Stokes-747.200	-120.135	-0.302	-0.052
-746.185	-110.450	-0.174	0.036
-745.171	5.649	0.127	-0.095
-744.156	-103.716	-0.117	0.028
-743.142	-174.657	0.179	0.005
-742.127	-63.642	-0.089	0.037
-741.112	-200.000	-0.061	0.543
-740.098	8.507	-0.239	0.181
-739.083	-17.371	0.077	0.049
-738.069	-200.000	0.047	0.238
-737.054	165.865	0.093	0.133
-736.039	-132.471	-0.235	-0.031
-735.025	233.795	0.080	0.133
-734.010	-81.024	-0.268	0.090
-732.996	-200.000	0.046	-0.281
-731.981	-39.998	0.214	0.113
-730.966	-200.000	0.047	0.257
-729.952	-133.296	0.054	0.007
-728.937	-2.697	-0.008	0.006
-727.923	-92.161	-0.285	0.081
-726.908	-105.383	-0.209	0.048
-725.894	-87.218	0.124	-0.038
-724.879	-41.746	0.152	-0.079
-723.864	-152.057	-0.102	0.007
-722.850	-23.292	0.113	-0.069
-721.835	-135.740	-0.118	-0.014
-720.821	-128.958	0.249	0.035
-719.806	-53.552	-0.057	-0.027
-718.791	9.861	-0.216	-0.165
-717.777	-72.645	-0.241	0.090
-716.762	151.444	0.299	-0.410
-715.748	-200.000	0.033	-0.174
-714.733	454.033	-0.156	-0.348
-713.718	-157.067	-0.461	0.028
-712.704	434.446	-0.093	0.204
-711.689	-200.000	-0.013	-0.140
-710.675	-137.854	0.421	0.048
-709.660	69.882	-0.079	-0.082
-708.645	800.000	0.074	-0.302
-707.631	108.995	-0.163	-0.197
-706.616	-200.000	-0.061	-0.319
-705.602	800.000	0.037	-0.130
-704.587	13.832	-0.042	-0.033
-703.572	491.903	0.108	0.250
-702.558	800.000	0.064	-0.222
-701.543	73.160	0.133	-0.140
-700.529	134.341	0.078	0.102
-699.514	15.910	-0.326	-0.259
-698.499	21.958	0.170	-0.140
-697.485	87.576	-0.208	-0.232
-696.470	235.145	0.164	-0.273
-695.456	336.825	-0.108	-0.212
-694.441	-47.047	-0.131	0.064
-693.426	800.000	0.067	0.259
-692.412	-200.000	0.069	-0.314
-691.397	55.084	0.294	-0.286
-690.383	45.595	-0.223	-0.207
-689.368	-109.258	-0.354	-0.076
-688.354	-200.000	-0.053	-0.243
-687.339	-81.031	0.262	-0.087
-686.324	-200.000	-0.029	-0.146
-685.310	-24.796	-0.224	-0.134
-684.295	128.080	-0.010	0.013
-683.281	800.000	0.072	0.301
-682.266	-28.009	0.267	0.155
-681.251	-29.043	0.186	0.107
-680.237	-141.642	-0.365	-0.037
-679.222	53.341	-0.297	-0.286
-678.208	-42.559	0.224	0.115
-677.193	-4.869	-0.029	-0.020
-676.178	103.957	-0.165	-0.196
-675.164	-200.000	-0.097	0.614
-674.149	-24.109	0.220	-0.132
-673.135	-200.000	0.010	0.078
-672.120	135.818	-0.080	0.104
-671.105	751.609	-0.017	-0.045
-670.091	800.000	-0.099	-0.329
-669.076	41.076	0.103	0.094
-668.062	-4.858	0.077	0.054
-667.047	800.000	0.067	-0.216
-666.032	-52.887	-0.278	-0.129
-665.018	800.000	-0.063	0.200
-664.003	-86.250	0.252	-0.078
-662.989	716.993	-0.119	-0.319
-661.974	-200.000	-0.020	-0.132
-660.959	-200.000	-0.007	0.184
-659.945	206.959	0.107	-0.168
-658.930	101.655	-0.208	0.244
-657.916	264.062	0.155	-0.271
-656.901	800.000	0.077	-0.248
-655.886	-200.000	-0.016	0.206
-654.872	-32.706	-0.346	-0.194
-653.857	-46.772	-0.207	0.102
-652.843	-200.000	0.001	-0.298
-651.828	-101.902	0.069	-0.017
-650.814	672.521	0.025	0.066
-649.799	-200.000	-0.008	-0.104
-648.784	800.000	-0.063	-0.192
-647.770	36.948	-0.215	-0.191
-646.755	-92.362	-0.056	-0.016
-645.741	-18.054	0.161	-0.101
-644.726	-26.829	0.139	-0.082
-643.711	188.526	0.182	-0.274
-642.697	-200.000	0.014	-0.165
-641.682	-163.534	0.113	-0.005
-640.668	-200.000	-0.032	-0.315
-639.653	135.635	0.070	-0.091
-638.638	-102.289	0.273	-0.066
-637.624	-53.152	-0.021	-0.010
-636.609	134.898	-0.179	-0.234
-635.595	-116.836	-0.374	0.069
-634.580	91.545	-0.159	0.179
-633.565	539.984	-0.093	0.223
-632.551	-200.000	0.052	-0.345
-631.536	678.546	-0.047	-0.124
-630.522	800.000	0.064	-0.273
-629.507	-71.105	-0.080	0.030
-628.492	-200.000	-0.006	0.136
-627.478	131.545	0.146	-0.188
-626.463	-85.480	0.273	0.085
-625.449	172.698	-0.161	0.233
-624.434	669.190	-0.151	0.394
-623.419	800.000	0.088	-0.265
-622.405	202.201	0.211	-0.326
-621.390	14.764	-0.119	-0.094
-620.376	-69.489	-0.173	-0.067
-619.361	96.619	-0.138	-0.158
-618.346	86.797	-0.206	-0.228
-617.332	-68.137	0.073	-0.029
-616.317	-125.022	-0.220	0.034
-615.303	-31.616	0.218	0.123
-614.288	2.489	-0.177	-0.129
-613.273	-200.000	0.077	-0.417
-612.259	-200.000	0.020	-0.447
-611.244	90.379	-0.268	0.301
-610.230	-81.399	0.429	0.142
-609.215	-200.000	-0.007	0.363
-608.201	800.000	0.070	0.260
-607.186	135.143	0.267	0.349
-606.171	-200.000	-0.053	-0.303
-605.157	206.640	-0.110	-0.171
-604.142	24.571	-0.100	-0.083
-603.128	-200.000	0.033	-0.176
-602.113	14.553	-0.210	0.165
-601.098	127.943	-0.208	0.266
-600.084	-0.371	-0.188	0.134
-599.069	-130.902	0.124	0.017
-598.055	-81.136	-0.207	-0.069
-597.040	732.167	-0.072	-0.193
-596.025	-39.786	0.042	-0.022
-595.011	-57.537	0.329	0.145
-593.996	-47.256	0.233	-0.114
-592.982	371.976	0.133	-0.271
-591.967	290.231	-0.147	-0.268
-590.952	800.000	0.150	-0.421
-589.938	-60.990	-0.203	0.086
-588.923	800.000	0.048	0.171
-587.909	-4.896	-0.098	-0.068
-586.894	132.677	-0.159	0.205
-585.879	800.000	-0.113	0.444
-584.865	-53.711	0.059	-0.027
-583.850	-57.796	-0.160	-0.070
-582.836	148.508	0.140	-0.189
-581.821	-200.000	0.012	-0.174
-580.806	-73.872	-0.329	-0.120
-579.792	-196.671	0.283	-0.002
-578.777	-10.349	-0.142	-0.094
-577.763	58.037	-0.203	0.199
-576.748	-200.000	-0.008	0.094
-575.733	-120.605	0.238	-0.040
-574.719	-200.000	-0.035	0.256
-573.704	-116.246	-0.140	0.026
-572.690	-143.846	-0.231	-0.022
-571.675	-200.000	-0.046	0.328
-570.661	-7.976	-0.137	-0.093
-569.646	-75.254	-0.054	-0.019
-568.631	-72.480	-0.421	0.156
-567.617	800.000	0.030	-0.084
-566.602	-17.238	0.258	-0.163
-565.588	-147.635	-0.072	-0.006
-564.573	-94.337	0.014	0.004
-563.558	-92.240	0.020	-0.006
-562.544	612.884	-0.111	-0.279
-561.529	277.483	-0.202	0.360
-560.515	-40.956	-0.045	-0.023
-559.500	-82.996	0.189	-0.061
-558.485	-48.585	-0.098	-0.047
-557.471	800.000	-0.101	-0.350
-556.456	14.905	-0.203	-0.159
-555.442	-132.612	0.435	-0.056
-554.427	-72.296	-0.263	0.098
-553.412	-51.230	-0.246	-0.115
-552.398	62.649	0.121	0.122
-551.383	656.063	-0.021	-0.054
-550.369	67.225	0.185	-0.189
-549.354	6.134	-0.383	-0.285
-548.339	230.998	-0.177	0.290
-547.325	59.264	0.256	0.252
-546.310	-160.415	-0.268	-0.014
-545.296	55.012	0.179	0.174
-544.281	-192.886	0.431	-0.004
-543.266	49.934	0.242	0.229
-542.252	463.377	-0.059	0.132
-541.237	158.269	0.067	0.093
-540.223	-200.000	0.047	0.218
-539.208	-112.689	-0.117	0.023
-538.193	-172.895	0.208	0.006
-537.179	-97.643	-0.202	0.053
-536.164	800.000	0.100	0.423
-535.150	-75.628	-0.115	0.041
-534.135	257.327	0.131	-0.226
-533.121	79.767	0.104	0.112
-532.106	-87.132	-0.295	0.090
-531.091	-66.598	-0.096	0.038
-530.077	-1.354	0.230	-0.163
-529.062	334.972	0.093	0.180
-528.048	483.659	-0.137	0.311
-527.033	-145.567	0.260	0.023
-526.018	-65.988	0.302	-0.121
-525.004	800.000	0.008	0.023
-523.989	-174.259	0.349	-0.010
-522.975	22.526	0.080	0.065
-521.960	132.669	0.033	-0.042
-520.945	800.000	0.019	-0.083
-519.931	-53.762	0.079	0.036
-518.916	25.931	0.140	0.117
-517.902	86.317	0.108	0.119
-516.887	-10.524	0.202	0.134
-515.872	-14.279	-0.191	0.123
-514.858	800.000	0.034	-0.116
-513.843	-183.327	0.190	-0.003
-512.829	15.887	0.097	-0.077
-511.814	8.899	0.230	0.174
-510.799	-83.139	0.166	0.054
-509.785	-200.000	-0.009	0.104
-508.770	-118.435	0.442	0.078
-507.756	-200.000	-0.049	-0.248
-506.741	-91.762	0.206	-0.059
-505.726	-102.159	0.411	-0.099
-504.712	-200.000	-0.025	0.126
-503.697	-200.000	-0.000	0.326
-502.683	281.003	0.122	-0.219
-501.668	-200.000	0.031	-0.302
-500.653	-128.112	-0.167	0.024
-499.639	175.067	-0.127	0.184
-498.624	-200.000	0.002	0.359
-497.610	-102.418	0.275	0.066
-496.595	192.326	-0.130	-0.195
-495.581	-200.000	-0.017	-0.142
-494.566	615.914	0.087	0.219
-493.551	-200.000	-0.018	0.139
-492.537	-80.940	-0.317	0.105
-491.522	800.000	0.068	-0.218
-490.508	415.732	-0.035	-0.074
-489.493	83.528	0.106	-0.116
-488.478	16.052	0.144	0.113
-487.464	-121.294	-0.231	-0.038
-486.449	-200.000	-0.007	-0.264
-485.435	-51.074	0.406	0.190
-484.420	56.509	0.133	0.129
-483.405	142.824	0.210	-0.279
-482.391	-200.000	0.008	0.105
-481.376	-97.006	0.121	-0.032
-480.362	33.668	-0.090	-0.078
-479.347	-136.475	0.254	0.029
-478.332	713.351	-0.159	-0.421
-477.318	-28.115	-0.163	0.094
-476.303	-200.000	-0.052	-0.302
-475.289	800.000	-0.027	-0.087
-474.274	-101.544	-0.195	-0.047
-473.259	672.098	0.034	-0.089
-472.245	800.000	0.045	-0.169
-471.230	219.885	-0.166	-0.265
-470.216	215.172	-0.122	-0.193
-469.201	-130.079	0.265	-0.036
-468.186	98.940	-0.205	0.236
-467.172	-89.879	0.414	0.121
-466.157	186.872	-0.079	-0.118
-465.143	-45.259	-0.180	-0.089
-464.128	41.159	0.220	-0.198
-463.113	-200.000	-0.052	-0.271
-462.099	581.218	0.090	-0.221
-461.084	-129.663	-0.245	0.034
-460.070	88.184	0.105	-0.116
-459.055	-57.175	-0.322	0.142
-458.040	248.765	-0.099	0.167
-457.026	-123.584	-0.024	0.004
-456.011	450.926	0.027	0.060
-454.997	214.326	-0.010	0.016
-453.982	-200.000	0.061	0.314
-452.968	-32.457	0.089	-0.049
-451.953	-200.000	-0.035	0.166
-450.938	800.000	-0.030	0.119
-449.924	233.270	-0.136	0.224
-448.909	-118.279	-0.239	0.043
-447.895	-200.000	-0.021	-0.139
-446.880	-134.123	0.187	0.023
-445.865	391.677	0.025	0.052
-444.851	346.050	-0.065	0.128
-443.836	209.908	0.188	0.294
-442.822	404.710	-0.032	-0.067
-441.807	-126.827	-0.237	0.035
-440.792	-200.000	-0.028	-0.165
-439.778	-126.036	-0.354	0.053
-438.763	469.050	-0.069	0.155
-437.749	44.767	0.144	-0.132
-436.734	-28.141	0.340	-0.196
-435.719	177.033	-0.093	0.135
-434.705	131.754	0.218	0.279
-433.690	-147.480	-0.139	0.012
-432.676	-10.757	0.337	-0.222
-431.661	-73.259	-0.263	-0.096
-430.646	73.790	-0.290	-0.303
-429.632	29.414	0.153	-0.130
-428.617	-146.682	0.155	-0.013
-427.603	-200.000	-0.028	-0.316
-426.588	98.479	0.293	0.337
-425.573	722.331	-0.054	0.145
-424.559	-200.000	0.042	0.202
-423.544	24.589	0.102	0.084
-422.530	-12.113	-0.040	-0.026
-421.515	-35.736	0.162	0.088
-420.500	-200.000	-0.003	-0.107
-419.486	-64.559	-0.072	0.029
-418.471	-200.000	-0.030	0.132
-417.457	292.655	-0.135	0.245
-416.442	473.071	-0.101	-0.227
-415.428	800.000	0.041	-0.139
-414.413	-158.862	0.190	0.011
-413.398	-200.000	0.002	0.171
-412.384	-200.000	-0.074	0.333
-411.369	429.495	-0.023	-0.049
-410.355	-200.000	-0.110	0.623
-409.340	483.445	0.273	-0.618
-408.325	86.323	-0.107	-0.117
-407.311	-106.225	-0.098	-0.022
-406.296	165.620	-0.198	0.279
-405.282	-92.900	0.237	-0.066
-404.267	-200.000	-0.007	0.053
-403.252	-150.152	0.261	-0.020
-402.238	-200.000	0.017	0.450
-401.223	-200.000	0.027	-0.409
-400.209	-200.000	0.005	-0.289
-399.194	-98.851	-0.272	-0.069
-398.179	557.821	-0.049	-0.118
-397.165	-200.000	0.017	0.204
-396.150	377.541	-0.079	-0.161
-395.136	69.215	-0.103	0.105
-394.121	-52.276	0.314	-0.145
-393.106	-200.000	-0.017	0.187
-392.092	-124.286	-0.139	0.022
-391.077	492.375	-0.123	-0.280
-390.063	70.319	-0.098	0.100
-389.048	113.272	-0.048	-0.058
-388.033	62.789	-0.040	0.040
-387.019	456.109	-0.139	0.308
-386.004	-142.815	-0.152	-0.015
-384.990	-182.912	0.110	0.002
-383.975	31.847	0.045	-0.038
-382.960	-200.000	0.003	0.068
-381.946	-183.542	0.049	0.001
-380.931	-104.639	0.367	0.084
-379.917	6.133	0.019	-0.014
-378.902	305.450	0.053	0.098
-377.888	-200.000	0.013	0.190
-376.873	683.217	0.045	0.117
-375.858	-46.524	-0.172	0.084
-374.844	-27.507	-0.171	0.099
-373.829	154.366	-0.056	0.077
-372.815	211.149	0.042	-0.066
-371.800	-200.000	0.003	-0.022
-370.785	74.395	-0.318	0.333
-369.771	-200.000	0.010	-0.196
-368.756	-63.004	0.233	-0.096
-367.742	312.629	-0.034	0.063
-366.727	-200.000	-0.065	-0.608
-365.712	159.270	0.042	0.059
-364.698	-52.167	0.073	0.034
-363.683	7.022	-0.134	-0.099
-362.669	297.527	-0.055	-0.100
-361.654	-120.205	-0.229	0.039
-360.639	195.900	-0.214	-0.324
-359.625	47.717	-0.118	-0.110
-358.610	112.359	-0.141	0.170
-357.596	0.769	0.098	0.069
-356.581	394.059	-0.161	0.334
-355.566	-200.000	-0.033	0.206
-354.552	-200.000	0.045	-0.260
-353.537	76.115	0.055	0.058
-352.523	800.000	0.095	0.297
-351.508	800.000	-0.072	0.244
-350.493	-127.017	-0.197	0.029
-349.479	254.311	-0.148	-0.252
-348.464	-200.000	-0.065	0.365
-347.450	-200.000	-0.045	-0.360
-346.435	776.120	0.092	-0.250
-345.420	-74.482	0.126	0.045
-344.406	-169.111	-0.109	0.004
-343.391	194.126	-0.143	0.215
-342.377	556.814	-0.050	0.120
-341.362	129.463	-0.250	-0.318
-340.348	-132.642	-0.229	-0.029
-339.333	-158.588	-0.193	0.011
-338.318	-174.092	-0.111	-0.003
-337.304	-200.000	-0.115	-0.555
-336.289	39.012	0.171	-0.152
-335.275	800.000	-0.085	-0.247
-334.260	250.672	0.150	-0.253
-333.245	-22.372	-0.195	-0.117
-332.231	230.978	0.112	0.182
-331.216	548.583	0.149	-0.355
-330.202	92.852	0.130	0.146
-329.187	597.424	0.066	-0.163
-328.172	562.701	-0.089	-0.214
-327.158	607.784	-0.117	0.291
-326.143	800.000	0.069	0.190
-325.129	605.226	-0.165	0.409
-324.114	527.959	0.038	-0.089
-323.099	-36.659	-0.157	0.084
-322.085	88.493	-0.127	0.141
-321.070	800.000	-0.103	-0.446
-320.056	-200.000	-0.009	0.084
-319.041	12.488	-0.241	-0.185
-318.026	332.290	-0.073	0.139
-317.012	-200.000	-0.032	0.236
-315.997	709.538	0.096	0.252
-314.983	-103.009	0.157	-0.037
-313.968	-114.375	0.336	0.064
-312.953	212.446	0.128	-0.200
-311.939	-200.000	-0.013	0.162
-310.924	-200.000	-0.013	-0.157
-309.910	-200.000	0.024	-0.365
-308.895	205.422	-0.236	0.363
-307.880	-113.308	-0.124	-0.024
-306.866	-72.331	-0.209	-0.077
-305.851	452.766	0.087	-0.192
-304.837	-70.779	0.191	0.071
-303.822	118.569	0.343	0.420
-302.807	-57.924	0.133	0.057
-301.793	-75.779	0.246	0.087
-300.778	-31.370	0.172	-0.096
-299.764	-142.568	0.452	0.044
-298.749	527.299	-0.074	-0.174
-297.735	-38.714	-0.189	0.099
-296.720	800.000	-0.111	0.425
-295.705	-66.536	-0.206	-0.081
-294.691	-70.280	0.251	-0.095
-293.676	-65.697	-0.114	0.045
-292.662	-200.000	0.014	0.362
-291.647	-42.214	-0.216	0.110
-290.632	-173.881	0.170	0.005
-289.618	-163.459	-0.504	0.024
-288.603	127.325	-0.176	0.221
-287.589	-22.592	0.272	0.163
-286.574	527.040	0.041	0.097
-285.559	52.647	-0.293	0.278
-284.545	-40.990	-0.330	0.169
-283.530	205.982	0.153	0.236
-282.516	33.272	-0.097	-0.083
-281.501	800.000	0.028	-0.089
-280.486	-173.214	0.222	-0.007
-279.472	232.921	0.108	0.177
-278.457	-4.530	-0.418	-0.287
-277.443	-74.384	-0.454	0.162
-276.428	-19.266	0.408	0.251
-275.413	-200.000	-0.025	0.119
-274.399	-200.000	-0.052	-0.228
-273.384	261.130	0.090	-0.154
-272.370	-200.000	0.015	-0.147
-271.355	-200.000	0.029	-0.208
-270.340	35.761	-0.178	-0.155
-269.326	800.000	0.161	0.441
-268.311	-200.000	0.011	0.233
-267.297	124.562	0.201	0.251
-266.282	706.050	-0.139	0.364
-265.267	162.123	0.099	-0.137
-264.253	435.941	0.034	0.074
-263.238	-83.041	-0.335	-0.107
-262.224	-200.000	0.026	0.214
-261.209	116.053	0.015	-0.019
-260.195	477.155	0.045	0.101
-259.180	-200.000	0.003	-0.080
-258.165	-200.000	0.077	0.412
-257.151	-200.000	-0.016	0.082
-256.136	268.498	0.181	-0.313
-255.122	723.333	0.049	-0.128
-254.107	-200.000	-0.016	-0.241
-253.092	25.437	0.271	-0.223
-252.078	65.938	-0.300	-0.301
-251.063	197.283	0.181	-0.274
-250.049	-150.567	-0.067	-0.005
-249.034	-200.000	-0.014	-0.273
-248.019	496.450	0.179	-0.409
-247.005	-102.065	-0.164	0.039
-245.990	-184.441	0.270	-0.004
-244.976	29.695	-0.177	-0.149
-243.961	-46.947	0.338	-0.164
-242.946	800.000	0.092	-0.300
-241.932	553.790	-0.106	-0.253
-240.917	302.149	-0.065	0.118
-239.903	800.000	-0.049	0.178
-238.888	471.523	0.037	0.082
-237.873	45.125	0.296	0.270
-236.859	-17.726	-0.087	0.054
-235.844	-84.442	0.236	0.074
-234.830	-113.171	0.277	-0.054
-233.815	800.000	0.164	-0.450
-232.800	-128.355	-0.102	0.014
-231.786	552.513	-0.144	-0.341
-230.771	744.373	-0.041	-0.110
-229.757	-141.215	-0.195	-0.020
-228.742	800.000	0.068	0.275
-227.727	-100.530	-0.285	0.070
-226.713	146.656	0.033	-0.044
-225.698	-200.000	-0.050	0.265
-224.684	-103.591	0.137	0.032
-223.669	-49.823	0.146	-0.069
-222.655	800.000	-0.016	-0.044
-221.640	-66.172	-0.110	-0.043
-220.625	44.141	0.090	0.081
-219.611	800.000	-0.062	0.215
-218.596	-200.000	-0.015	0.133
-217.582	19.588	0.192	-0.153
-216.567	-88.077	-0.150	0.044
-215.552	800.000	-0.025	0.074
-214.538	-51.645	-0.153	-0.070
-213.523	-200.000	0.023	-0.348
-212.509	51.994	0.359	0.338
-211.494	46.583	-0.105	0.096
-210.479	166.020	-0.135	0.189
-209.465	-200.000	-0.005	0.144
-208.450	26.401	0.176	0.146
-207.436	-19.854	-0.052	-0.031
-206.421	-16.540	0.273	-0.171
-205.406	60.466	0.102	0.099
-204.392	47.640	0.074	-0.068
-203.377	16.621	-0.207	-0.162
-202.363	800.000	-0.032	0.136
-201.348	-33.670	0.232	-0.126
-200.333	10.705	-0.110	0.083
-199.319	-41.814	0.215	0.109
-198.304	-200.000	-0.043	-0.334
-197.290	-36.087	0.210	0.112
-196.275	-200.000	0.037	-0.191
-195.260	52.813	0.130	0.123
-194.246	735.945	0.047	0.125
-193.231	-165.262	-0.292	0.013
-192.217	-188.617	0.167	-0.002
-191.202	-26.962	-0.086	-0.050
-190.187	800.000	-0.065	-0.219
-189.173	-97.446	-0.170	-0.044
-188.158	-150.025	0.394	0.030
-187.144	-132.630	0.141	-0.018
-186.129	512.156	-0.070	-0.161
-185.114	800.000	0.054	-0.190
-184.100	-123.458	0.286	0.045
-183.085	15.530	0.152	0.118
-182.071	499.372	-0.040	-0.091
-181.056	306.895	0.126	-0.231
-180.042	-200.000	-0.009	-0.099
-179.027	-104.431	-0.192	-0.044
-178.012	-200.000	-0.009	-0.099
-176.998	2.650	0.451	0.323
-175.983	-39.820	-0.131	-0.068
-174.969	545.896	-0.137	-0.324
-173.954	160.752	-0.168	0.232
-172.939	25.204	0.046	-0.038
-171.925	138.614	0.127	-0.165
-170.910	10.824	0.049	-0.037
-169.896	-200.000	-0.002	0.043
-168.881	258.706	-0.224	0.382
-167.866	95.413	-0.120	-0.135
-166.852	800.000	0.060	0.193
-165.837	8.125	-0.063	0.047
-164.823	-200.000	-0.012	0.161
-163.808	182.459	-0.271	0.394
-162.793	-125.554	-0.126	-0.019
-161.779	343.681	-0.155	0.299
-160.764	-200.000	-0.044	0.234
-159.750	67.228	0.173	-0.174
-158.735	-31.675	0.075	-0.042
-157.720	-109.770	0.132	0.027
-156.706	-114.395	-0.237	0.045
-155.691	-80.707	-0.496	-0.163
-154.677	244.134	-0.122	0.203
-153.662	-4.722	0.157	-0.107
-152.647	800.000	0.097	0.269
-151.633	-2.276	0.044	0.031
-150.618	13.922	-0.234	-0.180
-149.604	-7.998	-0.087	-0.058
-148.589	-132.557	-0.330	0.042
-147.574	668.121	0.107	0.272
-146.560	-140.060	-0.451	0.047
-145.545	800.000	-0.019	-0.062
-144.531	-154.272	0.207	0.014
-143.516	-200.000	-0.032	0.358
-142.502	-63.894	0.193	0.078
-141.487	575.099	-0.100	0.241
-140.472	-200.000	-0.090	0.453
-139.458	172.630	0.193	0.273
-138.443	-200.000	0.012	-0.098
-137.429	-24.432	-0.193	-0.114
-136.414	199.290	-0.108	0.163
-135.399	24.757	0.164	-0.134
-134.385	39.989	0.318	-0.282
-133.370	90.440	0.300	0.331
-132.356	-95.276	-0.256	-0.068
-131.341	-73.986	-0.346	0.124
-130.326	-54.295	-0.050	0.022
-129.312	41.063	0.245	0.218
-128.297	119.832	0.156	-0.191
-127.283	139.505	-0.163	-0.211
-126.268	170.955	-0.242	0.341
-125.253	35.179	0.174	0.150
-124.239	67.539	0.171	-0.173
-123.224	286.371	0.019	-0.034
-122.210	-200.000	-0.000	-0.202
-121.195	29.921	-0.078	-0.066
-120.180	285.661	0.148	-0.263
-119.166	4.794	-0.121	-0.087
-118.151	-123.503	-0.182	-0.029
-117.137	306.479	-0.100	0.184
-116.122	58.948	0.154	0.149
-115.107	298.910	0.182	-0.329
-114.093	362.790	-0.034	-0.067
-113.078	32.837	0.085	0.072
-112.064	-77.224	-0.256	0.088
-111.049	129.774	0.093	-0.118
-110.034	52.806	0.281	-0.265
-109.020	-200.000	0.022	-0.259
-108.005	9.943	0.051	0.038
-106.991	-102.552	0.158	-0.037
-105.976	800.000	-0.030	-0.120
-104.962	-164.348	0.287	0.013
-103.947	49.045	-0.166	-0.154
-102.932	-15.000	0.450	-0.284
-101.918	-21.184	0.047	-0.028
-100.903	377.108	-0.145	-0.292
-99.889	-42.434	0.328	0.165
-98.874	-84.745	0.251	0.078
-97.859	28.530	-0.126	0.105
-96.845	-29.140	-0.032	-0.018
-95.830	800.000	-0.157	-0.533
-94.816	-200.000	-0.026	0.165
-93.801	-103.497	0.299	0.069
-92.786	-8.798	0.366	0.241
-91.772	800.000	0.043	0.156
-90.757	-52.294	-0.032	0.015
-89.743	-139.165	-0.249	0.026
-88.728	-44.894	0.199	0.098
-87.713	-164.941	0.231	-0.010
-86.699	-14.167	-0.287	0.182
-85.684	800.000	0.098	-0.387
-84.670	39.754	-0.299	-0.264
-83.655	71.080	0.078	0.080
-82.640	-200.000	-0.036	0.291
-81.626	-153.181	0.130	-0.009
-80.611	78.096	0.113	0.119
-79.597	593.409	0.092	-0.223
-78.582	14.110	0.353	0.271
-77.567	-73.563	0.097	-0.035
-76.553	-200.000	0.041	0.266
-75.538	368.795	0.232	0.462
-74.524	800.000	-0.065	0.199
-73.509	-45.507	-0.173	-0.084
-72.494	-66.420	-0.297	0.116
-71.480	-147.134	0.403	-0.034
-70.465	53.050	0.045	-0.042
-69.451	-168.470	-0.195	-0.007
-68.436	234.923	0.130	0.211
-67.422	800.000	-0.072	-0.210
-66.407	-17.697	-0.289	-0.179
-65.392	-114.820	-0.355	-0.066
-64.378	800.000	0.017	-0.063
-63.363	213.781	0.186	-0.289
-62.349	218.200	0.171	-0.269
-61.334	17.648	-1.009	-0.789
-60.319	800.000	0.187	0.681
-59.305	-200.000	-0.030	-1.067
-58.290	-200.000	0.088	0.895
-57.276	800.000	0.507	1.655
-56.261	-200.000	94.966	560.009
-55.246	552.584	1372.419	3240.008
-54.232	157.209	2567.840	3490.113
-53.217	108.973	2293.185	2694.520
-52.203	45.550	1915.866	1738.438
-51.188	39.471	1706.944	1502.607
-50.173	36.541	1662.964	1442.016
-49.159	53.220	1709.187	1608.506
-48.144	56.559	1726.996	1650.417
-47.130	39.003	1686.033	1480.440
-46.115	36.118	1670.974	1445.565
-45.100	35.918	1666.067	1439.760
-44.086	35.925	1662.976	1437.084
-43.071	35.909	1660.751	1434.989
-42.057	35.862	1657.980	1432.186
-41.042	35.868	1655.878	1430.359
-40.027	35.909	1654.285	1429.233
-39.013	35.947	1651.964	1427.454
-37.998	35.836	1650.621	1425.414
-36.984	35.822	1649.548	1424.325
-35.969	35.951	1647.800	1423.714
-34.954	36.016	1646.133	1422.696
-33.940	35.951	1644.487	1420.738
-32.925	36.052	1642.744	1419.923
-31.911	35.857	1641.023	1416.937
-30.896	36.018	1638.952	1416.279
-29.881	35.920	1637.648	1414.376
-28.867	36.058	1635.521	1413.498
-27.852	36.006	1634.446	1412.126
-26.838	35.916	1633.461	1410.566
-25.823	35.970	1631.741	1409.416
-24.809	35.939	1630.622	1408.171
-23.794	36.082	1628.548	1407.363
-22.779	35.979	1627.472	1405.625
-21.765	36.131	1625.182	1404.698
-20.750	36.021	1623.664	1402.535
-19.736	36.010	1622.768	1401.620
-18.721	36.221	1620.359	1401.018
-17.706	36.112	1619.401	1399.348
-16.692	36.100	1617.711	1397.740
-15.677	36.020	1616.878	1396.388
-14.663	36.121	1614.935	1395.385
-13.648	36.110	1613.752	1394.229
-12.633	36.115	1611.983	1392.683
-11.619	36.108	1610.608	1391.385
-10.604	36.092	1609.088	1389.900
-9.590	36.081	1607.867	1388.715
-8.575	36.056	1606.550	1387.344
-7.560	36.066	1605.177	1386.170
-6.546	36.088	1604.341	1385.553
-5.531	36.021	1603.980	1384.707
-4.517	36.098	1602.027	1383.516
-3.502	36.125	1600.672	1382.483
-2.487	36.093	1599.460	1381.153
-1.473	35.204	1586.754	1363.807
-0.458	30.519	1562.312	1309.817
0.556	22.865	1557.935	1256.036
1.571	19.111	1577.440	1244.557
2.586	17.973	1589.154	1245.397
3.600	16.229	1538.013	1192.894
4.615	9.350	1430.635	1064.138
5.629	2.043	1364.623	968.699
6.644	0.362	1356.011	951.892
7.659	0.283	1354.476	950.232
8.673	0.184	1353.565	948.884
9.688	0.131	1351.756	947.197
10.702	0.061	1348.792	944.600
11.717	3.257	1354.441	968.601
12.731	11.134	1366.017	1026.607
13.746	16.445	1373.609	1065.798
14.761	17.109	1372.921	1069.356
15.775	16.366	1370.391	1062.621
16.790	15.400	1367.853	1054.491
17.804	14.566	1365.376	1047.251
18.819	14.136	1364.221	1043.579
19.834	13.800	1363.121	1040.534
20.848	13.542	1361.955	1037.935
21.863	13.407	1359.899	1035.435
22.877	13.253	1359.121	1033.787
23.892	13.158	1358.204	1032.404
24.907	13.106	1357.394	1031.374
25.921	13.190	1356.883	1031.419
26.936	13.188	1355.708	1030.421
27.950	13.281	1355.033	1030.395
28.965	13.214	1354.212	1029.262
29.980	13.264	1353.099	1028.635
30.994	13.434	1351.528	1028.407
32.009	13.448	1350.917	1027.940
33.023	13.411	1349.856	1026.812
34.038	13.401	1348.320	1025.488
35.053	13.365	1347.379	1024.464
36.067	13.376	1346.322	1023.633
37.082	13.368	1345.359	1022.764
38.096	13.385	1344.714	1022.290
39.111	13.407	1343.334	1021.284
40.126	13.257	1342.770	1019.836
41.140	13.176	1341.827	1018.531
42.155	13.238	1341.160	1018.320
43.169	13.126	1341.902	1018.101
44.184	13.032	1341.611	1017.211
45.199	13.226	1340.721	1017.639
46.213	13.261	1340.175	1017.350
47.228	13.293	1339.190	1016.713
48.242	13.264	1337.982	1015.525
49.257	13.280	1336.545	1014.446
50.271	13.311	1334.631	1013.093
51.286	13.399	1333.286	1012.520
52.301	13.235	1332.599	1010.905
53.315	13.240	1331.477	1009.994
54.330	13.249	1330.384	1009.128
55.344	13.163	1329.456	1007.811
56.359	13.130	1328.447	1006.756
57.374	13.050	1327.610	1005.545
58.388	13.136	1326.803	1005.371
59.403	13.106	1326.109	1004.574
60.417	13.142	1325.172	1003.995
61.432	13.053	1324.401	1002.779
62.447	13.033	1323.477	1001.869
63.461	13.185	1321.922	1001.523
64.476	13.074	1320.973	1000.043
65.490	13.132	1320.158	999.694
66.505	13.128	1317.839	997.824
67.520	13.087	1316.969	996.830
68.534	13.101	1316.458	996.434
69.549	13.035	1315.620	995.316
70.563	13.111	1313.882	994.371
71.578	13.044	1312.873	993.119
72.593	13.038	1311.924	992.277
73.607	13.002	1311.280	991.484
74.622	13.024	1310.159	990.683
75.636	12.951	1309.498	989.655
76.651	12.957	1308.905	989.155
77.666	12.919	1308.733	988.708
78.680	12.972	1307.683	988.146
79.695	13.114	1306.498	988.014
80.709	13.028	1306.039	987.066
81.724	13.061	1305.141	986.496
82.739	13.137	1304.141	986.105
83.753	13.188	1303.130	985.557
84.768	13.217	1301.975	984.770
85.782	13.305	1301.019	984.482
86.797	13.358	1299.274	983.394
87.812	13.318	1298.101	982.183
88.826	13.138	1297.539	980.600
89.841	13.150	1296.639	979.903
90.855	13.248	1296.063	979.962
91.870	13.352	1294.270	979.138
92.884	13.335	1293.438	978.317
93.899	13.373	1292.918	978.062
94.914	13.332	1292.285	977.258
95.928	13.370	1291.363	976.695
96.943	13.252	1290.721	975.427
97.957	13.325	1289.653	974.967
98.972	13.283	1288.605	973.838
99.987	13.335	1287.507	973.229
101.001	13.273	1286.364	971.918
102.016	13.280	1285.069	970.893
103.030	13.283	1284.742	970.577
104.045	13.256	1284.022	969.786
105.060	13.245	1282.455	968.455
106.074	13.223	1281.200	967.295
107.089	13.081	1280.451	965.810
108.103	13.088	1279.051	964.709
109.118	13.158	1277.480	963.848
110.133	13.075	1276.396	962.459
111.147	13.243	1274.598	962.000
112.162	13.216	1272.975	960.530
113.176	13.241	1272.306	960.086
114.191	13.261	1271.271	959.340
115.206	13.214	1270.482	958.385
116.220	13.259	1269.170	957.568
117.235	13.321	1267.952	956.926
118.249	13.211	1267.128	955.585
119.264	13.233	1266.093	954.848
120.279	13.187	1264.978	953.657
121.293	13.087	1264.337	952.511
122.308	13.111	1263.341	951.813
123.322	13.090	1262.331	950.846
124.337	13.124	1261.366	950.233
125.352	13.134	1260.303	949.404
126.366	13.233	1258.855	948.800
127.381	13.175	1257.567	947.410
128.395	13.155	1256.867	946.684
129.410	13.187	1256.150	946.247
130.424	13.151	1255.274	945.295
131.439	13.314	1253.909	945.117
132.454	13.278	1253.314	944.377
133.468	13.291	1252.348	943.639
134.483	13.228	1251.911	942.867
135.497	13.244	1250.494	941.807
136.512	13.296	1249.220	941.064
137.527	13.333	1248.029	940.290
138.541	13.310	1246.448	938.886
139.556	13.321	1244.919	937.717
140.570	13.293	1244.248	936.969
141.585	13.384	1243.066	936.512
142.600	13.351	1241.736	935.236
143.614	13.360	1241.031	934.676
144.629	13.431	1239.470	933.817
145.643	13.422	1238.534	932.980
146.658	13.337	1237.636	931.741
147.673	13.332	1235.700	930.174
148.687	13.262	1234.733	928.971
149.702	13.285	1233.278	927.920
150.716	13.287	1231.951	926.854
151.731	13.368	1230.466	926.107
152.746	13.368	1229.159	925.038
153.760	13.514	1228.005	924.907
154.775	13.358	1227.338	923.451
155.789	13.471	1226.144	923.100
156.804	13.351	1224.973	921.469
157.819	13.524	1224.014	921.629
158.833	13.534	1222.785	920.677
159.848	13.625	1221.843	920.395
160.862	13.560	1220.949	919.279
161.877	13.421	1219.887	917.623
162.892	13.401	1218.704	916.543
163.906	13.456	1217.978	916.220
164.921	13.458	1217.441	915.746
165.935	13.497	1216.350	915.063
166.950	13.400	1215.535	913.833
167.964	13.498	1214.815	913.747
168.979	13.566	1213.932	913.379
169.994	13.441	1213.325	912.152
171.008	13.479	1212.544	911.697
172.023	13.535	1211.988	911.506
173.037	13.659	1210.421	910.926
174.052	13.666	1209.835	910.441
175.067	13.560	1208.353	908.666
176.081	13.561	1208.115	908.414
177.096	13.508	1207.131	907.304
178.110	13.496	1206.031	906.329
179.125	13.488	1205.184	905.566
180.140	13.625	1203.510	904.980
181.154	13.592	1202.391	903.877
182.169	13.683	1201.211	903.406
183.183	13.678	1199.717	902.178
184.198	13.711	1198.762	901.557
185.213	13.718	1197.663	900.688
186.227	13.774	1196.581	900.097
187.242	13.777	1195.667	899.349
188.256	13.815	1194.582	898.661
189.271	13.887	1193.659	898.275
190.286	13.752	1192.654	896.710
191.300	13.618	1191.876	895.320
192.315	13.537	1191.316	894.384
193.329	13.584	1190.851	894.207
194.344	13.636	1190.364	894.047
195.359	13.661	1189.270	893.280
196.373	13.890	1188.549	893.893
197.388	13.880	1188.318	893.585
198.402	13.815	1187.920	892.858
199.417	13.946	1187.546	893.202
200.432	13.942	1186.570	892.367
201.446	13.914	1185.805	891.563
202.461	14.053	1184.495	891.245
203.475	14.045	1183.953	890.714
204.490	13.976	1182.467	889.149
205.504	13.937	1181.327	888.001
206.519	13.955	1180.179	887.158
207.534	14.023	1179.070	886.607
208.548	13.903	1178.332	885.337
209.563	13.980	1177.331	884.915
210.577	13.989	1176.526	884.278
211.592	14.118	1175.340	883.997
212.607	14.131	1174.231	883.153
213.621	14.098	1173.800	882.577
214.636	14.090	1172.906	881.781
215.650	13.988	1172.071	880.533
216.665	14.154	1170.996	880.526
217.680	14.222	1170.173	880.192
218.694	14.271	1169.165	879.617
219.709	14.271	1168.121	878.750
220.723	14.249	1167.883	878.377
221.738	14.258	1166.959	877.655
222.753	14.291	1166.148	877.141
223.767	14.336	1165.712	876.972
224.782	14.314	1165.407	876.549
225.796	14.391	1164.704	876.344
226.811	14.376	1163.573	875.342
227.826	14.266	1163.464	874.603
228.840	14.294	1162.402	873.871
229.855	14.191	1161.716	872.741
230.869	14.221	1160.815	872.144
231.884	14.306	1159.827	871.769
232.899	14.305	1159.206	871.222
233.913	14.390	1158.245	870.864
234.928	14.264	1158.038	869.973
235.942	14.233	1157.192	869.101
236.957	14.240	1156.450	868.504
237.972	14.261	1155.763	868.017
238.986	14.263	1154.763	867.200
240.001	14.221	1154.585	866.770
241.015	14.334	1153.296	866.316
242.030	14.427	1152.408	866.052
243.045	14.403	1151.859	865.438
244.059	14.439	1151.037	864.931
245.074	14.405	1150.369	864.177
246.088	14.535	1149.207	863.901
247.103	14.470	1148.803	863.188
248.117	14.404	1148.142	862.271
249.132	14.548	1147.266	862.282
250.147	14.607	1146.937	862.261
251.161	14.677	1146.052	861.884
252.176	14.682	1145.386	861.333
253.190	14.653	1144.778	860.647
254.205	14.848	1143.730	860.789
255.220	14.842	1143.309	860.365
256.234	14.761	1142.762	859.462
257.249	14.955	1141.722	859.599
258.263	14.777	1141.743	858.622
259.278	14.814	1140.769	858.007
260.293	14.894	1140.439	858.092
261.307	14.813	1139.668	857.023
262.322	14.865	1139.086	856.774
263.336	14.921	1138.354	856.434
264.351	14.993	1137.915	856.396
265.366	15.082	1137.049	856.123
266.380	15.001	1136.632	855.321
267.395	15.049	1135.606	854.716
268.409	14.899	1135.133	853.519
269.424	14.818	1134.989	852.923
270.439	14.828	1133.924	852.098
271.453	14.877	1132.953	851.545
272.468	15.041	1132.008	851.591
273.482	14.951	1131.206	850.455
274.497	15.023	1130.940	850.549
275.512	14.903	1130.453	849.495
276.526	15.054	1129.269	849.295
277.541	15.102	1128.278	848.720
278.555	15.042	1127.897	848.055
279.570	15.060	1127.160	847.517
280.585	15.090	1126.492	847.088
281.599	15.147	1125.245	846.366
282.614	15.197	1124.483	845.971
283.628	15.193	1123.168	844.885
284.643	15.162	1122.381	844.064
285.657	15.258	1121.774	844.015
286.672	15.261	1120.720	843.163
287.687	15.137	1120.328	842.171
288.701	15.232	1119.226	841.746
289.716	15.286	1118.297	841.239
290.730	15.299	1117.330	840.504
291.745	15.309	1116.975	840.214
292.760	15.201	1116.737	839.420
293.774	15.229	1116.247	839.115
294.789	15.335	1115.392	838.931
295.803	15.444	1114.626	838.823
296.818	15.310	1114.015	837.623
297.833	15.278	1113.485	836.986
298.847	15.395	1112.489	836.751
299.862	15.427	1111.551	836.128
300.876	15.387	1111.094	835.510
301.891	15.383	1110.586	835.036
302.906	15.435	1109.682	834.540
303.920	15.460	1108.962	834.051
304.935	15.665	1107.954	834.236
305.949	15.597	1107.767	833.685
306.964	15.609	1107.132	833.190
307.979	15.611	1106.222	832.443
308.993	15.579	1105.562	831.714
310.008	15.698	1104.664	831.554
311.022	15.578	1104.225	830.557
312.037	15.639	1103.075	829.919
313.052	15.644	1102.535	829.463
314.066	15.608	1101.433	828.385
315.081	15.582	1100.495	827.478
316.095	15.553	1099.738	826.692
317.110	15.625	1099.319	826.656
318.125	15.492	1098.681	825.452
319.139	15.562	1097.704	824.987
320.154	15.654	1096.902	824.766
321.168	15.777	1096.050	824.652
322.183	15.656	1095.547	823.609
323.197	15.558	1095.571	823.074
324.212	15.586	1094.770	822.537
325.227	15.679	1094.174	822.471
326.241	15.734	1093.456	822.129
327.256	15.777	1092.640	821.650
328.270	15.724	1091.668	820.590
329.285	15.795	1090.709	820.143
330.300	15.621	1090.072	818.740
331.314	15.667	1088.776	817.922
332.329	15.835	1087.751	817.895
333.343	15.831	1087.018	817.253
334.358	15.850	1086.314	816.741
335.373	15.802	1085.639	815.929
336.387	15.759	1084.797	815.015
337.402	15.909	1084.059	815.118
338.416	16.012	1083.416	815.059
339.431	15.960	1082.401	813.973
340.446	15.946	1082.330	813.780
341.460	16.006	1081.632	813.471
342.475	16.077	1080.709	813.047
343.489	16.060	1079.561	812.030
344.504	15.992	1079.029	811.229
345.519	16.073	1078.259	810.970
346.533	16.141	1076.976	810.259
347.548	16.103	1076.785	809.861
348.562	16.224	1075.540	809.436
349.577	16.201	1074.706	808.627
350.592	16.110	1074.368	807.863
351.606	15.970	1073.510	806.474
352.621	16.033	1072.829	806.193
353.635	16.041	1072.243	805.720
354.650	16.240	1071.229	805.839
355.665	16.235	1070.555	805.234
356.679	16.213	1070.197	804.790
357.694	16.252	1069.525	804.399
358.708	16.215	1068.951	803.720
359.723	16.255	1068.597	803.575
360.738	16.233	1067.966	802.924
361.752	16.221	1067.323	802.312
362.767	16.235	1066.666	801.815
363.781	16.373	1066.028	801.920
364.796	16.300	1065.403	801.032
365.810	16.465	1064.711	801.223
366.825	16.344	1064.297	800.268
367.840	16.526	1063.858	800.728
368.854	16.465	1063.178	799.856
369.869	16.491	1062.129	799.119
370.883	16.478	1061.712	798.671
371.898	16.460	1061.072	798.035
372.913	16.503	1060.373	797.643
373.927	16.494	1059.922	797.188
374.942	16.507	1059.643	796.969
375.956	16.522	1058.866	796.387
376.971	16.588	1058.206	796.131
377.986	16.680	1057.269	795.789
379.000	16.745	1056.589	795.508
380.015	16.758	1056.092	795.128
381.029	16.649	1055.920	794.416
382.044	16.689	1054.734	793.641
383.059	16.666	1054.382	793.197
384.073	16.781	1053.653	793.116
385.088	16.792	1052.235	792.032
386.102	16.756	1051.682	791.377
387.117	16.671	1050.940	790.350
388.132	16.741	1049.777	789.732
389.146	16.779	1049.102	789.335
390.161	16.627	1048.781	788.312
391.175	16.755	1047.797	788.098
392.190	16.753	1047.217	787.583
393.205	16.956	1046.106	787.620
394.219	16.846	1045.396	786.506
395.234	16.974	1044.310	786.215
396.248	16.836	1043.613	784.981
397.263	16.825	1042.539	784.050
398.278	16.787	1041.835	783.276
399.292	16.801	1041.240	782.828
400.307	16.861	1040.453	782.443
401.321	16.761	1040.379	781.856
402.336	16.884	1039.409	781.625
403.350	16.916	1038.521	781.035
404.365	16.879	1038.088	780.470
405.380	16.904	1037.564	780.124
406.394	16.921	1036.581	779.392
407.409	17.042	1035.783	779.281
408.423	17.011	1035.297	778.701
409.438	16.980	1034.756	778.083
410.453	17.138	1033.934	778.119
411.467	17.064	1033.102	777.086
412.482	17.009	1032.610	776.396
413.496	17.198	1031.858	776.624
414.511	17.257	1030.777	776.014
415.526	17.231	1030.909	775.926
416.540	17.280	1030.475	775.753
417.555	17.310	1029.532	775.111
418.569	17.246	1029.336	774.605
419.584	17.287	1028.927	774.415
420.599	17.262	1028.460	773.883
421.613	99.770	1313.275	1442.068
422.628	91.298	1354.764	1442.185
