DTS Sentinel unit serial number:	SN413079Multiplexer serial number:	ORYXHardware model number:	OX4-SRSoftware version number:	ORYX F/W v4.00 Oryx Data Collector v3.7.2.0data status	okinstallation	princeton_trtdifferential loss correction	single-endedforward channel	channel 2reverse channel	N/Adate	2019/09/13time	10:23:35forward acquisition time	60.00reverse acquisition time	0.00gamma	496.2192k internal	0.2323k external	0.2323temperature offset calibration	1.0192default loss term (dB/km)	0.3790temperature slope calibration	1.0000multiplexer offset coefficient	1.0000multiplexer slope coefficient	1.0000fibre end	0.00T internal ref (°C)	30.94T ext. ref 1 (°C)	4.54T ext. ref 2 (°C)	28.23length (m)	temperature (°C)	Stokes	anti-Stokes-747.200	-51.560	0.393	0.185
-746.185	-200.000	-0.029	0.174
-745.171	294.310	-0.091	0.168
-744.156	33.378	-0.247	0.217
-743.142	-200.000	-0.014	0.215
-742.127	32.967	-0.011	-0.009
-741.112	-200.000	0.008	0.058
-740.098	-63.096	-0.107	0.045
-739.083	-157.210	0.303	-0.019
-738.069	-200.000	-0.037	0.238
-737.054	-200.000	-0.085	0.448
-736.039	-82.403	-0.380	-0.125
-735.025	-40.082	0.206	-0.108
-734.010	-76.817	-0.357	0.126
-732.996	-120.752	0.137	-0.023
-731.981	2.531	-0.109	0.080
-730.966	800.000	-0.079	-0.283
-729.952	7.485	-0.137	0.104
-728.937	56.750	0.149	-0.146
-727.923	-200.000	-0.068	-0.358
-726.908	-39.271	0.361	-0.191
-725.894	75.963	-0.184	-0.197
-724.879	800.000	0.015	-0.047
-723.864	800.000	-0.113	-0.349
-722.850	-38.379	-0.201	0.107
-721.835	-11.591	-0.290	-0.192
-720.821	62.183	-0.252	0.253
-719.806	-171.642	-0.174	-0.006
-718.791	-104.843	-0.430	-0.100
-717.777	-66.204	-0.072	0.029
-716.762	-0.684	0.166	0.119
-715.748	502.187	0.117	0.273
-714.733	800.000	-0.094	0.273
-713.718	-165.190	0.366	-0.016
-712.704	197.536	-0.115	-0.178
-711.689	145.060	0.213	-0.288
-710.675	-56.409	-0.300	-0.134
-709.660	-200.000	-0.008	-0.158
-708.645	-69.064	0.121	0.047
-707.631	-200.000	0.035	0.225
-706.616	4.205	0.212	-0.156
-705.602	-187.728	0.213	0.003
-704.587	-38.120	-0.103	0.055
-703.572	-40.784	0.235	-0.123
-702.558	87.136	0.177	0.198
-701.543	-6.855	-0.070	0.048
-700.529	-2.399	-0.127	0.090
-699.514	105.201	0.145	-0.172
-698.499	-43.243	-0.087	-0.044
-697.485	-45.182	0.164	-0.082
-696.470	152.289	-0.216	-0.297
-695.456	51.221	-0.021	0.020
-694.441	-200.000	0.015	-0.101
-693.426	102.993	-0.075	-0.089
-692.412	800.000	-0.107	0.452
-691.397	-52.279	-0.131	0.061
-690.383	298.113	0.132	0.245
-689.368	-200.000	-0.010	-0.063
-688.354	-200.000	0.034	0.154
-687.339	-173.909	0.170	0.005
-686.324	800.000	0.053	0.194
-685.310	151.686	0.163	0.223
-684.295	-119.591	0.186	-0.032
-683.281	-22.252	0.336	-0.205
-682.266	64.348	0.110	0.111
-681.251	-200.000	0.004	-0.119
-680.237	-4.255	0.173	0.120
-679.222	-114.246	0.548	0.107
-678.208	-131.883	-0.122	-0.016
-677.193	-200.000	-0.042	-0.256
-676.178	-3.059	0.146	0.103
-675.164	-2.895	-0.243	-0.171
-674.149	641.264	-0.147	-0.378
-673.135	800.000	0.071	-0.203
-672.120	-61.181	-0.307	0.130
-671.105	-194.824	-0.285	-0.002
-670.091	438.444	0.039	0.085
-669.076	-134.504	-0.297	-0.037
-668.062	-135.507	-0.084	0.010
-667.047	18.501	0.144	-0.116
-666.032	-32.756	-0.333	0.187
-665.018	749.820	-0.035	0.094
-664.003	74.715	-0.163	0.173
-662.989	-200.000	-0.037	0.210
-661.974	156.271	-0.253	0.352
-660.959	45.839	0.329	0.306
-659.945	-7.085	-0.240	-0.164
-658.930	-5.783	0.297	0.205
-657.916	800.000	0.054	0.209
-656.901	-200.000	0.001	-0.101
-655.886	-87.849	0.239	-0.072
-654.872	-200.000	0.016	0.171
-653.857	361.793	-0.148	-0.299
-652.843	432.067	0.015	-0.033
-651.828	800.000	-0.055	-0.212
-650.814	-200.000	0.011	0.223
-649.799	244.192	-0.196	-0.331
-648.784	54.914	0.202	-0.196
-647.770	-49.291	0.180	-0.086
-646.755	360.002	-0.196	-0.395
-645.741	-34.109	0.137	0.076
-644.726	107.072	0.132	0.158
-643.711	64.258	-0.129	-0.130
-642.697	800.000	-0.059	-0.172
-641.682	-62.008	-0.437	-0.184
-640.668	-85.720	-0.136	-0.042
-639.653	-94.054	0.146	-0.040
-638.638	173.780	-0.161	-0.234
-637.624	603.124	-0.043	-0.107
-636.609	-200.000	-0.047	0.298
-635.595	-49.763	-0.168	-0.080
-634.580	16.834	-0.117	-0.093
-633.565	138.184	0.178	0.234
-632.551	-188.758	-0.109	-0.001
-631.536	95.500	-0.140	0.160
-630.522	-7.022	0.072	-0.049
-629.507	139.984	-0.037	0.049
-628.492	23.411	0.089	-0.073
-627.478	29.633	-0.321	0.275
-626.463	8.548	-0.175	-0.132
-625.449	134.371	-0.207	0.270
-624.434	268.248	-0.130	0.228
-623.419	-200.000	0.005	-0.047
-622.405	-70.000	-0.117	-0.045
-621.390	-127.836	-0.280	0.041
-620.376	-200.000	-0.011	-0.271
-619.361	54.483	-0.244	-0.236
-618.346	-2.044	-0.328	-0.232
-617.332	-152.112	-0.349	-0.026
-616.317	43.971	-0.255	0.235
-615.303	-146.377	0.108	-0.009
-614.288	-113.705	0.072	-0.014
-613.273	194.286	-0.225	-0.342
-612.259	36.114	0.203	0.180
-611.244	593.938	0.023	0.056
-610.230	291.428	-0.237	0.434
-609.215	-58.263	-0.086	0.038
-608.201	565.070	0.088	0.215
-607.186	-200.000	0.044	0.297
-606.171	-73.966	-0.378	-0.138
-605.157	297.353	0.160	-0.295
-604.142	1.661	0.065	-0.047
-603.128	43.937	-0.448	-0.413
-602.113	-85.567	-0.373	0.117
-601.098	800.000	0.080	0.308
-600.084	-67.217	-0.111	0.044
-599.069	-200.000	0.021	-0.122
-598.055	800.000	0.133	-0.402
-597.040	54.516	0.065	0.063
-596.025	112.011	-0.081	0.099
-595.011	185.496	-0.098	-0.146
-593.996	-108.708	0.188	0.040
-592.982	111.275	-0.388	-0.470
-591.967	-200.000	-0.008	0.408
-590.952	-87.827	-0.234	0.071
-589.938	-58.223	-0.194	0.085
-588.923	592.071	0.057	-0.141
-587.909	-73.445	0.182	-0.067
-586.894	-129.894	0.154	0.021
-585.879	58.274	-0.160	0.157
-584.865	-55.352	0.181	-0.081
-583.850	175.043	0.053	0.078
-582.836	800.000	0.065	-0.195
-581.821	-174.753	-0.162	0.005
-580.806	-110.060	0.040	-0.008
-579.792	697.356	-0.102	-0.269
-578.777	96.204	0.022	-0.025
-577.763	-200.000	-0.068	0.359
-576.748	91.321	0.099	-0.112
-575.733	-142.061	-0.230	-0.023
-574.719	800.000	0.076	0.292
-573.704	-81.187	0.257	-0.085
-572.690	581.796	-0.078	-0.193
-571.675	-200.000	0.020	0.187
-570.661	256.824	0.061	0.106
-569.646	-123.391	0.047	0.008
-568.631	-51.630	0.315	-0.147
-567.617	-67.154	-0.057	0.023
-566.602	14.698	0.179	0.141
-565.588	127.972	-0.203	0.259
-564.573	-200.000	0.011	0.299
-563.558	-117.293	-0.465	0.085
-562.544	201.489	-0.152	-0.235
-561.529	800.000	-0.062	-0.248
-560.515	42.125	-0.230	-0.210
-559.500	-159.507	-0.359	0.020
-558.485	800.000	0.059	0.221
-557.471	37.094	-0.152	-0.135
-556.456	-200.000	0.065	-0.329
-555.442	168.631	0.138	0.197
-554.427	-8.607	-0.308	-0.207
-553.412	-200.000	-0.013	0.267
-552.398	-200.000	-0.008	-0.053
-551.383	77.264	0.073	0.077
-550.369	95.316	0.116	0.132
-549.354	694.277	-0.031	0.082
-548.339	-200.000	0.022	-0.122
-547.325	-150.756	-0.156	-0.012
-546.310	-77.838	0.250	-0.087
-545.296	-158.451	-0.189	-0.011
-544.281	-76.136	0.124	0.044
-543.266	128.052	0.009	0.011
-542.252	800.000	-0.041	-0.122
-541.237	-200.000	0.013	-0.112
-540.223	583.232	0.061	-0.150
-539.208	-101.845	-0.195	-0.047
-538.193	-60.776	0.087	-0.037
-537.179	60.314	0.115	-0.114
-536.164	52.503	-0.186	0.178
-535.150	59.460	0.198	0.195
-534.135	114.912	-0.092	0.112
-533.121	-200.000	-0.027	0.205
-532.106	9.535	0.251	-0.190
-531.091	737.355	0.063	0.169
-530.077	-200.000	-0.030	0.169
-529.062	-62.308	-0.306	0.128
-528.048	800.000	-0.024	-0.094
-527.033	-120.531	0.421	0.072
-526.018	18.880	0.130	0.104
-525.004	136.176	0.094	-0.123
-523.989	800.000	0.078	0.227
-522.975	800.000	-0.155	0.447
-521.960	800.000	-0.052	-0.222
-520.945	-68.939	-0.277	0.107
-519.931	27.494	0.132	-0.111
-518.916	-81.779	-0.209	-0.069
-517.902	50.729	-0.033	0.031
-516.887	27.145	0.102	0.086
-515.872	-126.322	0.375	0.056
-514.858	-200.000	-0.020	0.332
-513.843	410.187	-0.041	0.087
-512.829	800.000	0.098	0.290
-511.814	112.078	-0.078	0.095
-510.799	-200.000	0.015	0.203
-509.785	9.425	0.094	0.071
-508.770	-45.073	-0.243	-0.121
-507.756	-200.000	0.073	-0.420
-506.741	-75.217	0.083	-0.030
-505.726	31.567	-0.093	0.080
-504.712	-50.158	-0.107	0.051
-503.697	-200.000	0.036	-0.299
-502.683	-115.025	-0.216	0.041
-501.668	-119.038	0.342	0.060
-500.653	-93.754	0.172	-0.047
-499.639	-168.475	0.272	0.010
-498.624	-200.000	0.012	-0.184
-497.610	426.942	-0.082	-0.178
-496.595	-89.764	-0.214	0.063
-495.581	-29.672	0.164	-0.093
-494.566	-7.507	0.178	0.120
-493.551	-8.285	0.273	-0.184
-492.537	-51.252	-0.155	0.072
-491.522	72.349	0.208	0.216
-490.508	-13.434	0.260	0.168
-489.493	-144.146	0.132	0.012
-488.478	-25.940	0.273	-0.161
-487.464	39.567	0.088	-0.079
-486.449	-50.306	0.214	-0.101
-485.435	-1.789	-0.123	0.086
-484.420	-103.351	0.254	-0.060
-483.405	-92.249	-0.437	0.123
-482.391	541.347	0.090	-0.214
-481.376	240.951	-0.168	-0.280
-480.362	-117.683	0.162	0.029
-479.347	800.000	0.041	0.172
-478.332	-124.877	0.437	-0.067
-477.318	-77.326	-0.282	0.098
-476.303	53.932	0.180	0.173
-475.289	-200.000	-0.006	0.175
-474.274	800.000	0.048	-0.179
-473.259	15.189	0.341	-0.267
-472.245	49.172	-0.339	0.319
-471.230	-49.616	-0.090	0.043
-470.216	411.168	0.058	-0.124
-469.201	-200.000	-0.006	0.262
-468.186	-75.360	-0.255	-0.091
-467.172	800.000	0.052	-0.192
-466.157	39.147	0.234	-0.209
-465.143	-109.850	0.314	-0.066
-464.128	-59.079	-0.309	-0.133
-463.113	800.000	-0.032	0.104
-462.099	41.743	0.128	-0.116
-461.084	4.836	0.256	0.188
-460.070	800.000	0.010	0.035
-459.055	242.257	0.128	0.214
-458.040	800.000	-0.061	0.188
-457.026	-168.332	0.247	-0.009
-456.011	-77.627	0.076	-0.026
-454.997	140.724	0.181	0.239
-453.982	-12.835	0.399	-0.260
-452.968	251.568	0.113	-0.192
-451.953	-78.240	0.318	-0.109
-450.938	-58.716	0.109	0.047
-449.924	-200.000	-0.015	-0.207
-448.909	413.822	-0.015	0.032
-447.895	-123.922	-0.127	-0.020
-446.880	-50.374	0.113	-0.053
-445.865	800.000	0.088	-0.329
-444.851	4.918	-0.191	0.140
-443.836	712.566	-0.087	-0.230
-442.822	215.065	-0.024	-0.038
-441.807	2.481	0.073	0.053
-440.792	511.829	-0.058	-0.134
-439.778	-200.000	0.011	0.289
-438.763	-132.765	-0.161	0.020
-437.749	-200.000	-0.007	-0.133
-436.734	757.107	-0.024	-0.064
-435.719	-59.383	0.448	0.192
-434.705	41.517	0.204	0.184
-433.690	297.844	-0.137	0.252
-432.676	144.007	-0.106	0.141
-431.661	358.630	-0.072	0.143
-430.646	-8.670	-0.070	-0.047
-429.632	-52.791	-0.163	-0.075
-428.617	75.729	0.299	0.315
-427.603	-200.000	0.004	-0.240
-426.588	-60.678	-0.198	0.084
-425.573	-134.858	-0.090	-0.011
-424.559	201.041	0.127	0.195
-423.544	800.000	0.126	-0.373
-422.530	800.000	0.082	-0.339
-421.515	-36.934	-0.132	-0.071
-420.500	-40.650	-0.219	0.113
-419.486	-68.964	0.055	-0.021
-418.471	-200.000	-0.001	0.272
-417.457	301.610	0.092	0.170
-416.442	199.834	-0.043	-0.066
-415.428	-72.488	0.257	-0.095
-414.413	-70.378	-0.051	0.019
-413.398	-194.251	0.293	0.002
-412.384	771.515	0.086	-0.234
-411.369	-167.237	0.331	0.013
-410.355	-87.146	0.157	-0.047
-409.340	800.000	-0.080	-0.296
-408.325	-200.000	-0.006	-0.030
-407.311	800.000	-0.079	0.252
-406.296	-200.000	0.073	-0.326
-405.282	-42.593	0.287	0.146
-404.267	108.650	-0.185	-0.220
-403.252	-65.876	-0.206	-0.082
-402.238	50.052	0.302	0.284
-401.223	306.914	-0.143	-0.265
-400.209	-50.251	-0.331	-0.156
-399.194	-6.865	0.220	-0.149
-398.179	165.695	-0.035	0.050
-397.165	-64.657	-0.145	0.058
-396.150	-80.509	-0.214	-0.071
-395.136	-169.215	0.185	0.007
-394.121	-90.565	0.050	-0.014
-393.106	-200.000	-0.020	0.244
-392.092	-106.043	-0.229	0.051
-391.077	-141.959	-0.170	0.017
-390.063	764.547	-0.045	-0.122
-389.048	148.858	-0.005	-0.007
-388.033	-81.782	0.311	-0.101
-387.019	97.679	0.265	-0.303
-386.004	-196.091	0.300	0.002
-384.990	-12.405	-0.195	-0.127
-383.975	-20.789	-0.183	0.111
-382.960	-71.815	-0.401	0.149
-381.946	507.743	0.194	0.448
-380.931	-116.889	0.397	-0.072
-379.917	-156.184	-0.265	0.017
-378.902	-137.151	-0.414	-0.047
-377.888	25.769	0.192	0.160
-376.873	390.410	-0.216	-0.446
-375.858	-38.281	-0.183	0.096
-374.844	-79.032	0.031	-0.010
-373.829	-34.827	-0.242	0.131
-372.815	-200.000	0.273	0.000
-371.800	381.656	-0.146	0.299
-370.785	495.718	-0.075	-0.172
-369.771	167.649	0.121	0.171
-368.756	-200.000	0.032	-0.194
-367.742	150.752	0.153	0.207
-366.727	471.996	-0.048	-0.107
-365.712	317.322	0.105	0.197
-364.698	-38.864	-0.158	0.083
-363.683	65.992	-0.224	-0.226
-362.669	16.183	-0.119	0.093
-361.654	-67.301	-0.188	-0.074
-360.639	48.138	-0.258	0.240
-359.625	-158.441	0.198	-0.011
-358.610	-200.000	0.011	0.099
-357.596	-12.355	-0.150	-0.097
-356.581	528.305	-0.095	0.224
-355.566	581.735	-0.137	-0.334
-354.552	-200.000	-0.095	-0.549
-353.537	-73.787	0.283	0.102
-352.523	125.776	0.118	-0.148
-351.508	-200.000	0.045	0.315
-350.493	753.137	0.076	-0.205
-349.479	375.629	0.066	-0.134
-348.464	29.243	-0.103	-0.087
-347.450	-200.000	-0.040	0.249
-346.435	-63.744	-0.250	-0.102
-345.420	-52.846	-0.107	0.049
-344.406	85.491	0.331	0.361
-343.391	-83.217	0.064	0.020
-342.377	100.200	-0.248	-0.286
-341.362	-56.995	-0.140	0.061
-340.348	-44.694	-0.246	0.122
-339.333	800.000	0.057	0.202
-338.318	800.000	0.101	0.297
-337.304	-105.189	-0.258	0.059
-336.289	28.913	0.070	0.059
-335.275	-200.000	-0.064	-0.307
-334.260	-123.797	-0.173	0.027
-333.245	-200.000	0.053	-0.259
-332.231	159.687	0.053	-0.073
-331.216	800.000	-0.108	-0.300
-330.202	-36.299	-0.279	-0.150
-329.187	-156.968	-0.320	0.019
-328.172	476.540	0.071	0.159
-327.158	242.757	0.214	0.356
-326.143	-107.355	0.254	-0.055
-325.129	-47.488	0.087	0.042
-324.114	800.000	-0.140	0.520
-323.099	-45.810	-0.197	0.097
-322.085	-94.071	0.145	-0.040
-321.070	-56.435	0.339	0.149
-320.056	-36.039	-0.300	-0.161
-319.041	-84.226	-0.108	0.034
-318.026	-97.981	0.183	-0.047
-317.012	800.000	-0.072	0.268
-315.997	-200.000	-0.010	0.160
-314.983	800.000	-0.090	0.266
-313.968	-200.000	0.003	-0.172
-312.953	-200.000	0.010	0.190
-311.939	-87.526	-0.066	-0.020
-310.924	337.493	0.076	-0.146
-309.910	-47.546	-0.106	-0.051
-308.895	258.090	0.145	-0.248
-307.880	223.519	-0.059	-0.094
-306.866	-4.535	0.163	-0.112
-305.851	79.280	-0.106	0.113
-304.837	-1.424	-0.145	-0.102
-303.822	-26.894	0.243	-0.141
-302.807	-77.969	-0.086	0.030
-301.793	-112.675	0.292	-0.058
-300.778	337.523	0.058	-0.112
-299.764	59.656	0.063	-0.062
-298.749	119.210	0.091	-0.112
-297.735	-149.780	0.248	-0.019
-296.720	-135.584	-0.084	0.010
-295.705	-200.000	0.011	-0.128
-294.691	173.897	-0.170	-0.244
-293.676	182.663	0.321	-0.470
-292.662	-59.915	-0.221	-0.094
-291.647	-44.209	0.090	-0.045
-290.632	41.554	-0.109	0.098
-289.618	406.892	-0.162	0.340
-288.603	800.000	0.085	0.236
-287.589	800.000	0.072	-0.302
-286.574	-62.104	-0.222	-0.092
-285.559	-200.000	0.010	0.141
-284.545	-175.542	0.336	-0.009
-283.530	93.367	-0.067	-0.075
-282.516	800.000	-0.088	-0.256
-281.501	-169.195	0.299	-0.011
-280.486	-55.337	-0.282	0.125
-279.472	-200.000	-0.029	0.282
-278.457	539.098	-0.075	0.177
-277.443	-49.151	0.186	-0.088
-276.428	-91.854	-0.210	0.059
-275.413	-148.484	0.141	-0.011
-274.399	-106.538	-0.321	0.071
-273.384	800.000	0.078	-0.306
-272.370	119.025	0.239	0.292
-271.355	-34.678	-0.161	0.087
-270.340	-5.929	0.137	-0.093
-269.326	65.087	0.190	-0.190
-268.311	-196.566	-0.287	-0.002
-267.297	-78.668	0.327	0.111
-266.282	226.815	-0.127	-0.205
-265.267	-8.893	-0.086	-0.057
-264.253	-200.000	-0.018	0.260
-263.238	-165.063	0.239	-0.011
-262.224	60.767	0.154	0.152
-261.209	756.138	-0.043	-0.114
-260.195	-56.853	0.156	-0.068
-259.180	-135.102	0.198	0.024
-258.165	13.459	0.132	0.102
-257.151	110.508	-0.151	0.179
-256.136	800.000	-0.085	-0.261
-255.122	800.000	-0.077	-0.221
-254.107	800.000	-0.065	-0.219
-253.092	130.902	-0.208	0.264
-252.078	284.944	-0.055	-0.099
-251.063	-200.000	0.006	-0.107
-250.049	-97.090	0.070	0.018
-249.034	-90.629	-0.170	0.049
-248.019	-191.403	0.132	-0.001
-247.005	335.852	0.084	0.162
-245.990	-141.099	0.394	-0.040
-244.976	-200.000	-0.020	0.103
-243.961	800.000	0.069	0.207
-242.946	9.366	-0.269	0.201
-241.932	-174.506	-0.209	-0.006
-240.917	-50.032	0.198	0.093
-239.903	201.522	0.227	0.346
-238.888	-200.000	0.032	0.159
-237.873	-200.000	-0.003	-0.068
-236.859	-200.000	-0.017	0.226
-235.844	-200.000	0.141	-0.000
-234.830	-17.945	0.308	0.191
-233.815	-200.000	0.041	0.241
-232.800	4.408	0.127	0.092
-231.786	112.937	0.070	0.084
-230.771	-114.606	-0.006	0.001
-229.757	-31.337	-0.456	0.254
-228.742	-57.367	0.081	0.035
-227.727	-118.659	0.335	0.058
-226.713	262.920	-0.097	-0.166
-225.698	-42.951	0.161	0.081
-224.684	-85.859	0.572	-0.175
-223.669	469.548	0.057	0.127
-222.655	-42.831	0.374	0.188
-221.640	314.628	-0.198	-0.369
-220.625	800.000	-0.054	-0.175
-219.611	-124.993	0.176	0.027
-218.596	136.427	-0.187	0.241
-217.582	-200.000	-0.025	-0.112
-216.567	-200.000	-0.105	-0.563
-215.552	-46.168	-0.285	-0.139
-214.538	-42.342	0.077	0.039
-213.523	298.289	-0.048	0.087
-212.509	-104.551	-0.234	0.053
-211.494	73.806	-0.371	0.384
-210.479	-132.091	0.511	0.066
-209.465	-81.355	0.202	0.066
-208.450	-62.944	-0.429	-0.175
-207.436	144.783	0.101	0.134
-206.421	-103.482	-0.064	0.015
-205.406	-132.171	-0.161	-0.021
-204.392	-109.716	0.218	-0.045
-203.377	683.506	-0.075	0.194
-202.363	45.399	-0.317	0.290
-201.348	93.932	0.213	-0.239
-200.333	800.000	0.059	0.252
-199.319	-67.944	0.116	0.045
-198.304	-32.673	0.114	-0.063
-197.290	-128.742	0.176	0.025
-196.275	-123.603	-0.236	-0.037
-195.260	49.886	0.394	-0.368
-194.246	-22.472	0.286	-0.171
-193.231	321.326	0.103	0.193
-192.217	-5.603	0.389	0.264
-191.202	294.624	-0.194	-0.350
-190.187	-89.668	-0.151	0.044
-189.173	-3.083	0.158	0.109
-188.158	-13.561	-0.102	-0.065
-187.144	56.529	-0.187	-0.180
-186.129	-200.000	0.034	-0.315
-185.114	-163.430	0.060	0.003
-184.100	800.000	0.012	0.045
-183.085	46.518	-0.078	0.071
-182.071	-200.000	-0.045	-0.292
-181.056	260.963	-0.100	-0.171
-180.042	-153.585	-0.209	-0.014
-179.027	110.255	-0.286	-0.339
-178.012	-200.000	0.005	0.102
-176.998	800.000	-0.048	-0.150
-175.983	33.748	0.135	0.116
-174.969	-111.422	-0.324	0.065
-173.954	-36.798	-0.265	-0.140
-172.939	43.005	-0.060	-0.054
-171.925	191.495	-0.103	-0.153
-170.910	70.402	0.199	0.204
-169.896	-138.345	0.054	0.006
-168.881	204.441	-0.126	-0.193
-167.866	-1.939	-0.180	0.125
-166.852	238.085	0.110	-0.180
-165.837	-162.201	0.207	-0.010
-164.823	-67.073	0.111	0.043
-163.808	160.396	0.181	0.249
-162.793	-54.038	0.229	-0.103
-161.779	-119.096	-0.364	-0.063
-160.764	-56.379	0.114	0.050
-159.750	-65.740	-0.047	0.019
-158.735	-56.870	-0.210	0.091
-157.720	-200.000	-0.015	0.188
-156.706	482.321	-0.095	0.214
-155.691	-39.139	0.131	-0.068
-154.677	0.652	0.251	0.177
-153.662	-46.412	0.329	0.159
-152.647	-31.488	0.236	-0.131
-151.633	64.995	0.082	-0.082
-150.618	-52.164	0.338	0.155
-149.604	30.915	0.169	0.143
-148.589	-200.000	-0.022	0.294
-147.574	-9.685	-0.301	-0.198
-146.560	75.342	-0.233	-0.242
-145.545	-86.729	0.125	0.038
-144.531	-200.000	0.049	0.284
-143.516	1.618	0.312	0.222
-142.502	145.602	-0.213	0.282
-141.487	-200.000	-0.058	-0.331
-140.472	250.951	-0.031	0.052
-139.458	79.737	-0.140	0.148
-138.443	-118.356	0.257	-0.045
-137.429	536.164	0.021	-0.049
-136.414	-113.018	0.196	-0.038
-135.399	-97.135	-0.257	0.066
-134.385	-68.582	0.048	0.018
-133.370	37.157	0.117	-0.102
-132.356	-29.231	-0.124	-0.070
-131.341	118.261	0.187	-0.227
-130.326	-200.000	0.047	0.272
-129.312	-57.384	0.166	0.072
-128.297	253.773	0.154	-0.259
-127.283	-38.023	0.338	-0.177
-126.268	503.599	0.145	0.330
-125.253	-65.342	-0.162	0.064
-124.239	25.760	0.256	-0.210
-123.224	-20.354	0.249	0.151
-122.210	485.275	0.123	-0.275
-121.195	2.419	-0.043	0.031
-120.180	100.957	0.227	-0.260
-119.166	187.666	0.120	0.176
-118.151	169.325	0.224	-0.315
-117.137	151.094	0.092	-0.124
-116.122	-200.000	0.053	0.346
-115.107	106.864	-0.120	0.141
-114.093	800.000	-0.017	-0.064
-113.078	-200.000	0.033	0.203
-112.064	525.068	-0.091	0.211
-111.049	30.510	-0.171	0.144
-110.034	-31.911	-0.013	0.007
-109.020	-200.000	0.031	0.202
-108.005	55.868	0.101	-0.096
-106.991	-57.541	0.141	-0.061
-105.976	-200.000	-0.012	-0.172
-104.962	222.939	-0.132	-0.210
-103.947	800.000	-0.070	0.258
-102.932	800.000	0.081	0.335
-101.918	-71.213	-0.077	-0.029
-100.903	38.451	0.231	0.202
-99.889	-95.430	-0.066	-0.017
-98.874	102.016	0.199	0.228
-97.859	250.952	0.109	0.182
-96.845	303.896	-0.143	-0.260
-95.830	800.000	0.014	-0.048
-94.816	28.830	0.167	-0.140
-93.801	-60.998	0.126	0.053
-92.786	-182.469	0.082	-0.001
-91.772	-200.000	0.018	0.244
-90.757	-106.520	-0.310	-0.068
-89.743	-68.667	0.375	0.143
-88.728	-48.703	0.141	0.067
-87.713	-103.334	0.344	-0.080
-86.699	165.228	-0.157	0.218
-85.684	-200.000	-0.009	-0.169
-84.670	-80.581	0.258	-0.085
-83.655	17.627	-0.137	-0.107
-82.640	800.000	-0.032	-0.107
-81.626	38.985	0.083	0.073
-80.611	-104.033	0.096	0.022
-79.597	44.372	0.257	0.232
-78.582	436.456	0.197	0.422
-77.567	37.900	0.136	-0.119
-76.553	168.189	-0.100	-0.141
-75.538	-99.355	-0.084	0.021
-74.524	-9.105	0.186	-0.123
-73.509	-200.000	-0.022	-0.119
-72.494	-1.399	-0.057	-0.039
-71.480	-27.365	0.385	0.221
-70.465	67.338	0.253	0.254
-69.451	800.000	-0.064	0.192
-68.436	-150.819	0.330	0.025
-67.422	-155.365	0.223	-0.014
-66.407	279.320	0.043	0.075
-65.392	800.000	-0.045	0.166
-64.378	-71.451	0.275	0.101
-63.363	-67.811	0.191	-0.073
-62.349	-73.449	0.194	-0.070
-61.334	106.010	-0.808	-0.941
-60.319	615.256	0.395	0.973
-59.305	-200.000	0.134	-1.037
-58.290	800.000	0.296	1.132
-57.276	339.143	0.794	1.520
-56.261	-200.000	97.108	585.326
-55.246	592.979	1405.390	3413.654
-54.232	188.266	2614.464	3841.936
-53.217	110.819	2298.308	2718.657
-52.203	40.395	1916.289	1695.615
-51.188	34.138	1703.373	1459.368
-50.173	31.551	1659.137	1402.058
-49.159	49.576	1706.770	1579.581
-48.144	50.732	1722.721	1603.060
-47.130	33.776	1683.743	1439.575
-46.115	31.052	1668.820	1406.253
-45.100	30.852	1664.208	1400.806
-44.086	30.896	1661.624	1398.909
-43.071	30.841	1658.797	1396.055
-42.057	30.777	1656.763	1393.810
-41.042	30.686	1655.269	1391.821
-40.027	30.828	1652.875	1390.813
-39.013	30.858	1650.387	1388.884
-37.998	30.790	1649.017	1387.173
-36.984	30.824	1647.858	1386.395
-35.969	30.870	1646.431	1385.478
-34.954	31.017	1644.145	1384.592
-33.940	31.016	1642.470	1383.123
-32.925	30.942	1640.983	1381.265
-31.911	30.940	1639.150	1379.654
-30.896	30.936	1637.696	1378.343
-29.881	30.912	1636.310	1376.947
-28.867	30.811	1634.730	1374.819
-27.852	30.899	1633.109	1374.049
-26.838	30.907	1631.283	1372.512
-25.823	30.963	1629.949	1371.749
-24.809	31.018	1628.276	1370.690
-23.794	30.947	1626.948	1368.996
-22.779	30.937	1626.028	1368.094
-21.765	30.957	1624.015	1366.498
-20.750	30.989	1622.401	1365.316
-19.736	30.961	1621.302	1364.131
-18.721	30.860	1620.000	1362.247
-17.706	30.950	1618.118	1361.264
-16.692	30.871	1616.572	1359.335
-15.677	30.950	1615.393	1358.867
-14.663	31.048	1613.493	1357.925
-13.648	31.037	1612.421	1356.889
-12.633	31.050	1610.702	1355.487
-11.619	30.925	1609.062	1353.147
-10.604	30.920	1608.198	1352.330
-9.590	31.013	1606.384	1351.420
-8.575	31.055	1605.150	1350.634
-7.560	30.992	1604.193	1349.321
-6.546	31.019	1602.629	1348.144
-5.531	30.929	1602.168	1347.057
-4.517	31.002	1600.777	1346.361
-3.502	30.916	1599.925	1344.970
-2.487	31.014	1597.862	1343.888
-1.473	30.897	1586.572	1333.499
-0.458	28.439	1567.527	1300.032
0.556	27.002	1567.800	1267.638
1.571	24.760	1591.148	1270.493
2.586	23.944	1603.773	1274.615
3.600	21.060	1549.551	1211.417
4.615	13.016	1439.641	1073.282
5.629	5.786	1376.788	981.223
6.644	4.464	1368.638	967.101
7.659	4.490	1367.310	966.238
8.673	4.571	1366.510	966.096
9.688	4.635	1364.627	965.076
10.702	4.495	1361.962	962.234
11.717	7.786	1367.828	986.739
12.731	15.978	1383.132	1048.890
13.746	21.755	1391.654	1091.343
14.761	22.446	1391.776	1095.645
15.775	21.849	1389.951	1090.401
16.790	20.776	1387.487	1081.708
17.804	20.098	1385.161	1075.593
18.819	19.693	1384.278	1072.299
19.834	19.613	1382.946	1070.672
20.848	19.467	1382.172	1069.074
21.863	19.203	1381.094	1066.513
22.877	19.156	1379.812	1065.138
23.892	19.150	1379.157	1064.502
24.907	19.035	1378.266	1063.008
25.921	19.157	1376.537	1062.335
26.936	19.158	1376.031	1061.854
27.950	19.172	1374.959	1061.024
28.965	19.322	1374.064	1061.163
29.980	19.411	1373.343	1061.055
30.994	19.537	1371.842	1060.576
32.009	19.572	1370.696	1059.812
33.023	19.611	1370.034	1059.448
34.038	19.539	1368.302	1057.573
35.053	19.380	1367.581	1055.948
36.067	19.353	1366.210	1054.630
37.082	19.339	1365.633	1054.008
38.096	19.376	1364.677	1053.404
39.111	19.456	1363.594	1052.960
40.126	19.273	1363.076	1051.352
41.140	19.069	1361.680	1048.936
42.155	18.874	1361.069	1047.184
43.169	18.847	1360.991	1046.870
44.184	18.852	1360.597	1046.501
45.199	18.809	1360.436	1046.022
46.213	18.995	1359.834	1046.600
47.228	19.252	1359.084	1047.497
48.242	19.327	1358.086	1047.087
49.257	19.311	1356.033	1045.314
50.271	19.185	1355.018	1043.677
51.286	19.218	1354.004	1043.001
52.301	19.192	1353.114	1042.066
53.315	19.151	1351.510	1040.493
54.330	18.952	1350.460	1038.389
55.344	19.001	1348.877	1037.378
56.359	18.943	1348.160	1036.387
57.374	18.849	1347.449	1035.179
58.388	18.841	1346.191	1034.073
59.403	18.731	1346.338	1033.431
60.417	18.690	1345.516	1032.466
61.432	18.617	1344.200	1030.922
62.447	18.595	1343.429	1030.109
63.461	18.469	1342.658	1028.673
64.476	18.563	1341.379	1028.163
65.490	18.633	1339.881	1027.342
66.505	18.678	1337.805	1025.932
67.520	18.561	1337.102	1024.602
68.534	18.652	1336.327	1024.462
69.549	18.602	1335.487	1023.430
70.563	18.487	1334.094	1021.586
71.578	18.459	1332.924	1020.428
72.593	18.362	1332.392	1019.357
73.607	18.369	1331.150	1018.357
74.622	18.358	1330.685	1017.845
75.636	18.499	1329.884	1017.979
76.651	18.495	1329.331	1017.446
77.666	18.567	1329.052	1017.569
78.680	18.678	1328.915	1018.034
79.695	18.705	1327.712	1017.178
80.709	18.786	1327.124	1017.120
81.724	18.948	1326.221	1017.294
82.739	18.980	1325.627	1016.938
83.753	19.168	1325.126	1017.572
84.768	19.363	1323.888	1017.688
85.782	19.459	1323.284	1017.696
86.797	19.391	1322.214	1016.381
87.812	19.279	1320.463	1014.291
88.826	19.271	1319.159	1013.153
89.841	19.311	1318.787	1013.011
90.855	19.303	1317.565	1011.935
91.870	19.448	1317.191	1012.411
92.884	19.332	1316.544	1011.139
93.899	19.363	1315.534	1010.458
94.914	19.491	1314.678	1010.463
95.928	19.509	1313.813	1009.813
96.943	19.527	1312.551	1008.857
97.957	19.456	1311.680	1007.683
98.972	19.360	1310.593	1006.200
99.987	19.322	1309.858	1005.325
101.001	19.429	1308.821	1005.062
102.016	19.418	1307.618	1003.985
103.030	19.404	1307.001	1003.345
104.045	19.334	1306.198	1002.230
105.060	19.220	1304.538	1000.207
106.074	19.036	1302.788	997.711
107.089	18.738	1301.282	994.741
108.103	18.559	1299.905	992.564
109.118	18.622	1298.845	992.032
110.133	18.620	1297.339	990.783
111.147	18.629	1296.165	989.849
112.162	18.669	1295.271	989.311
113.176	18.859	1294.071	989.398
114.191	18.804	1293.279	988.392
115.206	18.773	1291.989	987.137
116.220	18.725	1290.616	985.728
117.235	18.769	1289.941	985.377
118.249	18.702	1288.627	983.900
119.264	18.708	1287.178	982.743
120.279	18.555	1286.650	981.379
121.293	18.531	1284.964	979.870
122.308	18.440	1283.985	978.512
123.322	18.452	1282.704	977.518
124.337	18.431	1281.744	976.585
125.352	18.244	1281.163	974.989
126.366	18.375	1279.440	974.335
127.381	18.368	1278.480	973.481
128.395	18.380	1277.647	972.828
129.410	18.470	1276.800	972.608
130.424	18.720	1275.632	973.048
131.439	18.784	1275.316	973.082
132.454	18.859	1274.126	972.516
133.468	18.813	1273.803	971.923
134.483	18.747	1273.205	971.003
135.497	18.884	1272.015	970.787
136.512	18.835	1270.799	969.493
137.527	18.930	1269.471	968.933
138.541	18.957	1267.927	967.821
139.556	19.000	1266.940	967.225
140.570	19.044	1266.349	966.935
141.585	19.194	1264.937	966.609
142.600	19.368	1263.606	966.483
143.614	19.320	1263.696	966.199
144.629	19.461	1262.351	965.872
145.643	19.353	1261.214	964.316
146.658	19.198	1259.421	961.990
147.673	19.051	1258.265	960.205
148.687	18.861	1257.389	958.391
149.702	18.843	1256.070	957.201
150.716	18.818	1254.171	955.531
151.731	18.827	1253.205	954.757
152.746	18.870	1251.870	953.896
153.760	18.968	1251.121	953.786
154.775	19.043	1250.160	953.385
155.789	19.105	1249.102	952.837
156.804	19.163	1247.987	952.219
157.819	19.281	1247.008	952.041
158.833	19.319	1246.458	951.749
159.848	19.480	1245.713	951.982
160.862	19.447	1244.574	950.850
161.877	19.164	1242.755	947.814
162.892	18.938	1241.542	945.564
163.906	18.938	1240.470	944.662
164.921	18.866	1239.706	943.604
165.935	18.967	1239.117	943.626
166.950	19.043	1238.264	943.306
167.964	19.076	1238.003	943.208
168.979	18.972	1237.009	941.799
169.994	19.132	1235.862	941.718
171.008	19.074	1235.348	940.922
172.023	19.186	1234.638	940.911
173.037	19.319	1234.149	941.180
174.052	19.270	1233.200	940.109
175.067	19.074	1231.833	937.913
176.081	18.903	1230.567	935.935
177.096	18.886	1230.168	935.458
178.110	18.968	1228.879	934.841
179.125	19.044	1227.700	934.272
180.140	19.107	1227.006	934.007
181.154	19.242	1225.972	933.866
182.169	19.296	1224.666	933.079
183.183	19.346	1223.654	932.497
184.198	19.402	1222.373	931.744
185.213	19.373	1221.410	930.771
186.227	19.500	1219.902	930.225
187.242	19.568	1219.368	930.098
188.256	19.553	1218.992	929.648
189.271	19.618	1217.109	928.482
190.286	19.378	1216.310	926.499
191.300	18.999	1215.142	923.493
192.315	18.834	1214.461	922.010
193.329	19.038	1213.431	922.236
194.344	19.015	1213.183	921.843
195.359	19.132	1213.175	922.383
196.373	19.103	1212.896	921.933
197.388	19.211	1212.556	922.176
198.402	19.549	1212.154	923.594
199.417	19.570	1211.566	923.176
200.432	19.779	1210.580	923.463
201.446	19.846	1209.794	923.136
202.461	19.875	1209.185	922.747
203.475	19.978	1207.937	922.260
204.490	19.607	1206.528	919.128
205.504	19.604	1204.860	917.762
206.519	19.445	1203.768	916.002
207.534	19.448	1202.564	915.020
208.548	19.452	1202.095	914.607
209.563	19.513	1200.893	913.932
210.577	19.437	1200.366	913.049
211.592	19.505	1199.456	912.634
212.607	19.673	1198.939	913.051
213.621	19.626	1198.250	912.197
214.636	19.537	1197.232	910.873
215.650	19.624	1196.443	910.646
216.665	19.924	1195.003	911.050
217.680	20.034	1194.203	910.940
218.694	20.020	1193.745	910.435
219.709	19.872	1192.957	908.975
220.723	19.992	1192.208	908.956
221.738	19.940	1191.222	907.849
222.753	19.782	1190.775	906.599
223.767	19.821	1190.250	906.325
224.782	20.057	1189.621	907.002
225.796	20.102	1188.916	906.618
226.811	20.050	1188.163	905.691
227.826	19.903	1187.664	904.465
228.840	19.835	1186.284	902.977
229.855	19.881	1185.944	902.881
230.869	19.880	1184.873	901.981
231.884	19.710	1183.947	900.311
232.899	19.647	1183.295	899.405
233.913	19.570	1182.491	898.313
234.928	19.520	1181.538	897.251
235.942	19.539	1180.686	896.626
236.957	19.508	1180.118	895.952
237.972	19.512	1179.677	895.556
238.986	19.605	1178.793	895.290
240.001	19.583	1177.987	894.485
241.015	19.545	1177.613	893.925
242.030	19.743	1176.198	893.798
243.045	19.840	1176.073	894.124
244.059	19.873	1175.245	893.585
245.074	19.866	1174.716	893.067
246.088	19.991	1173.618	892.799
247.103	20.124	1172.818	892.795
248.117	20.058	1172.670	892.263
249.132	20.305	1171.741	892.747
250.147	20.595	1171.109	893.676
251.161	20.609	1170.960	893.560
252.176	20.675	1169.961	893.055
253.190	20.719	1169.494	892.848
254.205	20.830	1168.653	892.697
255.220	20.885	1168.161	892.519
256.234	20.876	1167.197	891.657
257.249	20.897	1166.724	891.327
258.263	20.701	1165.994	889.687
259.278	20.795	1165.562	889.761
260.293	20.862	1165.022	889.612
261.307	20.905	1164.749	889.541
262.322	20.885	1163.863	888.688
263.336	21.080	1163.010	888.951
264.351	21.019	1162.331	888.043
265.366	20.963	1162.156	887.542
266.380	20.942	1161.297	886.702
267.395	20.940	1159.775	885.451
268.409	20.707	1159.318	883.841
269.424	20.661	1158.907	883.215
270.439	20.838	1157.453	882.927
271.453	20.685	1157.011	881.734
272.468	20.494	1156.121	880.012
273.482	20.480	1155.509	879.398
274.497	20.429	1155.170	878.804
275.512	20.531	1154.505	878.737
276.526	20.697	1153.110	878.434
277.541	20.626	1152.827	877.786
278.555	20.525	1152.425	876.892
279.570	20.773	1151.902	877.664
280.585	20.982	1151.275	878.161
281.599	21.006	1149.761	877.050
282.614	20.790	1148.505	874.930
283.628	20.684	1147.695	873.704
284.643	20.552	1146.963	872.405
285.657	20.797	1145.419	872.384
286.672	20.687	1144.999	871.436
287.687	20.739	1144.051	870.896
288.701	20.875	1143.421	871.022
289.716	20.909	1142.494	870.407
290.730	20.784	1141.984	869.315
291.745	20.829	1141.290	868.935
292.760	20.840	1141.017	868.708
293.774	21.029	1139.882	868.706
294.789	21.098	1139.527	868.703
295.803	21.048	1139.114	868.065
296.818	20.871	1138.111	866.341
297.833	20.846	1137.098	865.371
298.847	20.752	1136.523	864.386
299.862	20.815	1135.795	864.069
300.876	20.835	1135.329	863.738
301.891	20.933	1134.670	863.647
302.906	21.112	1134.023	863.965
303.920	21.228	1133.503	864.065
304.935	21.328	1132.779	863.931
305.949	21.393	1132.616	864.051
306.964	21.411	1131.426	863.157
307.979	21.227	1130.685	861.606
308.993	21.106	1130.286	860.630
310.008	21.204	1129.625	860.534
311.022	21.274	1128.612	860.029
312.037	21.350	1127.569	859.531
313.052	21.201	1126.604	857.991
314.066	20.955	1125.514	855.873
315.081	20.895	1124.682	854.874
316.095	20.749	1124.156	853.682
317.110	20.762	1123.400	853.093
318.125	20.860	1122.455	852.784
319.139	20.888	1121.787	852.337
320.154	20.852	1120.942	851.442
321.168	20.912	1120.335	851.198
322.183	20.963	1119.891	851.038
323.197	20.983	1119.425	850.703
324.212	21.015	1118.720	850.248
325.227	21.097	1118.164	850.151
326.241	21.149	1117.419	849.760
327.256	21.078	1116.248	848.450
328.270	21.044	1115.409	847.571
329.285	20.940	1114.797	846.526
330.300	20.991	1113.831	845.967
331.314	20.923	1112.896	844.851
332.329	21.009	1111.663	844.257
333.343	21.117	1111.102	844.281
334.358	21.228	1110.218	844.071
335.373	21.228	1109.780	843.663
336.387	21.239	1109.677	843.564
337.402	21.341	1108.057	842.748
338.416	21.442	1107.219	842.523
339.431	21.510	1107.097	842.683
340.446	21.525	1106.851	842.492
341.460	21.731	1105.686	842.524
342.475	21.825	1105.137	842.483
343.489	21.845	1104.412	841.948
344.504	21.960	1103.088	841.416
345.519	21.904	1102.218	840.414
346.533	21.886	1101.983	840.074
347.548	22.106	1100.967	840.276
348.562	22.033	1100.303	839.345
349.577	21.812	1099.199	837.372
350.592	21.564	1098.186	835.344
351.606	21.374	1097.605	833.921
352.621	21.308	1096.691	832.841
353.635	21.290	1096.025	832.174
354.650	21.482	1095.078	832.295
355.665	21.482	1094.844	832.045
356.679	21.479	1094.413	831.630
357.694	21.534	1094.041	831.535
358.708	21.630	1093.129	831.222
359.723	21.654	1092.631	830.886
360.738	21.695	1091.802	830.375
361.752	21.670	1091.482	829.938
362.767	21.623	1091.183	829.416
363.781	21.675	1090.479	829.051
364.796	21.838	1089.538	829.033
365.810	22.001	1089.348	829.589
366.825	22.086	1088.953	829.613
367.840	22.127	1088.415	829.327
368.854	22.197	1087.776	829.097
369.869	22.326	1086.969	829.014
370.883	22.171	1085.871	827.373
371.898	22.023	1085.141	826.046
372.913	22.019	1084.804	825.701
373.927	22.086	1083.815	825.187
374.942	22.152	1083.783	825.403
375.956	22.075	1083.168	824.501
376.971	22.102	1082.399	823.965
377.986	22.208	1081.775	823.918
379.000	22.252	1081.834	824.094
380.015	22.324	1081.432	824.053
381.029	22.393	1080.567	823.643
382.044	22.382	1079.837	822.961
383.059	22.416	1078.773	822.237
384.073	22.304	1077.977	821.033
385.088	22.383	1077.220	820.755
386.102	22.325	1076.261	819.682
387.117	22.278	1074.992	818.421
388.132	22.083	1073.723	816.479
389.146	22.037	1073.480	816.008
390.161	22.032	1072.740	815.349
391.175	22.017	1071.839	814.523
392.190	22.042	1071.552	814.349
393.205	22.252	1071.070	814.882
394.219	22.344	1069.780	814.254
395.234	22.201	1068.642	812.658
396.248	22.066	1067.852	811.359
397.263	22.165	1066.979	811.080
398.278	22.042	1066.228	809.872
399.292	21.858	1065.321	808.263
400.307	21.776	1064.725	807.361
401.321	21.999	1063.549	807.426
402.336	21.876	1062.928	806.318
403.350	21.960	1062.410	806.240
404.365	21.956	1061.786	805.673
405.380	22.123	1061.168	805.902
406.394	22.226	1060.467	805.769
407.409	22.346	1060.050	805.931
408.423	22.536	1059.499	806.312
409.438	22.601	1058.621	805.868
410.453	22.573	1058.050	805.235
411.467	22.678	1057.360	805.117
412.482	22.635	1057.050	804.611
413.496	22.781	1056.612	804.876
414.511	22.726	1055.946	804.044
415.526	22.993	1055.224	804.643
416.540	22.919	1055.419	804.379
417.555	22.929	1054.604	803.732
418.569	22.684	1054.222	802.256
419.584	22.819	1053.180	802.005
420.599	22.847	1052.594	801.617
421.613	155.860	1401.482	1794.688
422.628	143.094	1452.300	1794.791
