DTS Sentinel unit serial number:	SN413079Multiplexer serial number:	ORYXHardware model number:	OX4-SRSoftware version number:	ORYX F/W v4.00 Oryx Data Collector v3.7.2.0data status	okinstallation	princeton_trtdifferential loss correction	single-endedforward channel	channel 2reverse channel	N/Adate	2019/09/16time	22:51:35forward acquisition time	60.00reverse acquisition time	0.00gamma	496.2192k internal	0.2329k external	0.2329temperature offset calibration	0.9974default loss term (dB/km)	0.3790temperature slope calibration	1.0000multiplexer offset coefficient	1.0000multiplexer slope coefficient	1.0000fibre end	0.00T internal ref (°C)	30.50T ext. ref 1 (°C)	0.09T ext. ref 2 (°C)	24.11length (m)	temperature (°C)	Stokes	anti-Stokes-747.200	-200.000	-0.032	-0.223
-746.185	-17.990	-0.199	0.125
-745.171	-84.181	0.182	-0.058
-744.156	140.839	-0.125	0.166
-743.142	-120.288	0.166	0.028
-742.127	-200.000	0.010	0.231
-741.112	-200.000	-0.030	-0.288
-740.098	66.910	-0.128	0.131
-739.083	800.000	-0.024	-0.100
-738.069	-200.000	-0.021	0.146
-737.054	-87.716	0.219	-0.067
-736.039	-122.675	-0.375	0.061
-735.025	800.000	0.046	-0.186
-734.010	217.268	-0.102	0.163
-732.996	800.000	-0.028	0.096
-731.981	51.379	0.175	0.168
-730.966	-123.752	-0.475	0.076
-729.952	-200.000	0.036	0.291
-728.937	-45.120	-0.097	0.049
-727.923	54.071	-0.259	-0.251
-726.908	-102.756	0.155	0.037
-725.894	-2.465	0.217	0.153
-724.879	-190.052	0.105	-0.001
-723.864	-89.952	-0.435	0.128
-722.850	-55.203	-0.373	0.169
-721.835	-13.432	-0.172	0.113
-720.821	-200.000	-0.003	-0.191
-719.806	-200.000	-0.044	0.319
-718.791	16.599	0.163	-0.130
-717.777	-148.244	0.172	-0.014
-716.762	168.066	-0.188	-0.269
-715.748	800.000	0.031	-0.118
-714.733	24.096	-0.138	-0.114
-713.718	59.635	-0.209	-0.208
-712.704	8.122	0.275	0.208
-711.689	-15.621	0.185	-0.119
-710.675	-55.248	0.184	0.083
-709.660	-132.076	-0.078	-0.010
-708.645	698.515	-0.114	-0.301
-707.631	-200.000	0.019	-0.199
-706.616	-51.166	-0.229	-0.108
-705.602	-91.337	-0.322	-0.093
-704.587	800.000	-0.054	-0.215
-703.572	-200.000	0.002	0.325
-702.558	800.000	0.014	-0.052
-701.543	-156.994	0.213	-0.013
-700.529	105.778	-0.106	0.126
-699.514	15.835	0.272	-0.215
-698.499	-11.975	-0.358	-0.236
-697.485	-168.355	0.114	0.004
-696.470	245.479	-0.031	0.052
-695.456	-200.000	-0.099	-0.537
-694.441	52.306	-0.055	0.053
-693.426	-200.000	0.017	-0.135
-692.412	-200.000	-0.004	0.086
-691.397	-48.605	-0.210	-0.102
-690.383	31.240	0.359	-0.310
-689.368	-200.000	0.005	0.097
-688.354	-200.000	0.056	-0.301
-687.339	-200.000	0.017	0.122
-686.324	-200.000	0.009	0.228
-685.310	-5.683	-0.392	-0.270
-684.295	800.000	-0.067	0.285
-683.281	68.949	-0.243	0.251
-682.266	-200.000	0.050	0.430
-681.251	-200.000	0.010	0.196
-680.237	22.628	0.103	0.084
-679.222	439.274	0.102	-0.223
-678.208	93.616	-0.165	-0.188
-677.193	58.586	0.193	0.191
-676.178	6.738	-0.139	0.104
-675.164	49.802	-0.075	0.071
-674.149	59.621	0.127	0.126
-673.135	-140.503	-0.063	-0.007
-672.120	-107.011	0.236	-0.052
-671.105	22.501	-0.195	0.160
-670.091	-113.465	0.307	-0.060
-669.076	-108.695	0.165	-0.035
-668.062	-105.997	-0.030	-0.007
-667.047	596.113	-0.077	-0.191
-666.032	-200.000	0.003	0.079
-665.018	-200.000	0.050	0.266
-664.003	-8.975	0.320	-0.215
-662.989	-171.085	-0.201	-0.007
-661.974	-151.644	0.358	-0.027
-660.959	-20.150	0.050	0.031
-659.945	150.239	0.053	-0.073
-658.930	-180.177	-0.281	-0.006
-657.916	-136.754	-0.355	-0.041
-656.901	-200.000	0.011	-0.061
-655.886	646.849	-0.085	0.218
-654.872	304.681	-0.052	-0.097
-653.857	-101.175	-0.341	-0.084
-652.843	-200.000	0.044	-0.270
-651.828	-0.133	0.115	-0.082
-650.814	540.491	-0.076	-0.182
-649.799	247.802	0.025	0.043
-648.784	16.098	-0.386	-0.306
-647.770	635.429	0.127	-0.325
-646.755	-28.686	0.113	0.065
-645.741	480.806	-0.096	0.219
-644.726	480.590	0.135	-0.308
-643.711	40.848	-0.073	-0.066
-642.697	800.000	-0.103	-0.439
-641.682	205.729	-0.128	0.199
-640.668	-200.000	0.001	-0.331
-639.653	81.564	-0.321	-0.348
-638.638	79.309	-0.278	-0.299
-637.624	-72.209	-0.290	0.108
-636.609	-200.000	0.009	-0.080
-635.595	-103.077	0.225	-0.053
-634.580	42.327	0.096	-0.088
-633.565	-63.661	0.081	-0.033
-632.551	152.791	-0.058	0.080
-631.536	204.901	-0.138	-0.215
-630.522	139.619	0.123	0.163
-629.507	-200.000	-0.029	0.153
-628.492	112.319	-0.195	-0.237
-627.478	-200.000	0.039	0.294
-626.463	-31.452	0.215	0.121
-625.449	-128.804	0.380	0.054
-624.434	-200.000	0.016	-0.202
-623.419	-46.247	0.084	0.042
-622.405	-200.000	-0.003	-0.051
-621.390	26.619	0.066	-0.056
-620.376	-200.000	0.007	-0.035
-619.361	-159.924	0.216	-0.012
-618.346	-38.447	0.199	0.105
-617.332	-126.828	-0.331	-0.049
-616.317	800.000	0.096	0.394
-615.303	169.542	-0.033	0.048
-614.288	389.992	0.076	0.158
-613.273	-152.136	0.080	0.006
-612.259	281.278	0.040	0.072
-611.244	-156.266	0.323	0.020
-610.230	60.030	-0.053	-0.052
-609.215	318.454	0.071	0.134
-608.201	246.457	-0.164	-0.277
-607.186	-200.000	-0.020	-0.210
-606.171	-152.678	-0.253	0.018
-605.157	-70.377	-0.272	0.104
-604.142	-105.270	-0.073	0.017
-603.128	800.000	0.035	-0.112
-602.113	-116.138	-0.267	0.050
-601.098	-200.000	-0.027	-0.122
-600.084	177.107	0.145	0.211
-599.069	157.829	0.435	-0.604
-598.055	134.954	-0.089	-0.116
-597.040	-131.180	0.113	0.015
-596.025	-3.595	-0.418	0.291
-595.011	-154.583	-0.264	0.018
-593.996	-200.000	0.101	0.000
-592.982	-41.683	0.446	0.229
-591.967	-95.395	-0.097	-0.026
-590.952	-79.086	-0.291	-0.099
-589.938	-6.102	-0.085	-0.058
-588.923	14.622	0.198	-0.155
-587.909	36.091	-0.145	0.128
-586.894	-41.659	-0.401	-0.206
-585.879	224.241	0.183	-0.295
-584.865	-153.818	-0.618	-0.042
-583.850	510.857	0.163	0.379
-582.836	-31.411	0.185	0.104
-581.821	15.619	0.086	0.068
-580.806	-200.000	0.043	0.197
-579.792	5.511	0.268	-0.198
-578.777	-82.047	-0.383	0.125
-577.763	800.000	-0.018	-0.053
-576.748	-172.762	0.109	0.003
-575.733	145.888	0.224	0.300
-574.719	69.232	0.334	-0.344
-573.704	-50.503	-0.277	-0.131
-572.690	-200.000	0.048	-0.260
-571.675	171.255	-0.037	0.053
-570.661	477.221	-0.104	0.235
-569.646	216.739	0.184	0.292
-568.631	2.207	0.128	-0.093
-567.617	35.220	-0.101	-0.088
-566.602	-200.000	0.019	-0.174
-565.588	800.000	-0.095	-0.265
-564.573	-150.896	0.196	0.015
-563.558	10.163	0.246	0.187
-562.544	37.039	-0.193	-0.171
-561.529	-118.402	0.157	0.028
-560.515	-99.686	0.107	0.027
-559.500	-148.740	0.255	0.021
-558.485	189.836	-0.055	0.082
-557.471	149.057	-0.288	0.390
-556.456	-13.320	-0.172	0.112
-555.442	83.752	-0.297	0.324
-554.427	-200.000	-0.029	-0.186
-553.412	193.296	-0.094	-0.143
-552.398	800.000	0.030	0.108
-551.383	-200.000	-0.041	0.366
-550.369	584.741	0.208	0.510
-549.354	155.911	0.119	0.164
-548.339	-200.000	-0.010	-0.205
-547.325	-156.950	0.429	-0.026
-546.310	7.884	-0.222	-0.166
-545.296	193.741	0.092	0.139
-544.281	-200.000	0.032	-0.240
-543.266	88.135	-0.379	-0.420
-542.252	-200.000	0.000	-0.025
-541.237	-173.115	0.199	-0.006
-540.223	-200.000	-0.006	-0.171
-539.208	149.294	-0.109	0.148
-538.193	-121.863	0.229	0.038
-537.179	420.518	0.017	-0.037
-536.164	-0.720	0.373	-0.264
-535.150	292.291	0.030	-0.055
-534.135	-126.994	-0.454	0.067
-533.121	-34.191	0.519	-0.285
-532.106	-168.304	0.119	0.005
-531.091	-60.765	-0.426	-0.180
-530.077	25.674	0.265	0.221
-529.062	-200.000	-0.063	0.368
-528.048	-124.547	-0.204	-0.032
-527.033	-38.192	-0.316	0.167
-526.018	-18.046	0.068	-0.043
-525.004	-15.055	0.382	-0.245
-523.989	-200.000	0.015	-0.384
-522.975	65.021	0.095	-0.096
-521.960	800.000	-0.061	-0.222
-520.945	247.546	-0.202	-0.341
-519.931	248.777	0.078	0.131
-518.916	420.444	0.061	-0.130
-517.902	-200.000	-0.024	0.231
-516.887	-41.601	-0.324	-0.166
-515.872	-84.091	0.215	-0.068
-514.858	-200.000	-0.029	-0.183
-513.843	-143.273	-0.243	-0.023
-512.829	-139.201	-0.253	0.027
-511.814	-15.892	-0.157	-0.100
-510.799	800.000	0.015	-0.057
-509.785	-130.257	0.015	-0.002
-508.770	53.746	0.148	-0.142
-507.756	-200.000	0.070	-0.394
-506.741	69.231	-0.247	0.253
-505.726	61.780	0.142	0.141
-504.712	-83.629	-0.244	-0.078
-503.697	160.700	-0.039	-0.055
-502.683	283.988	0.143	-0.256
-501.668	-121.698	0.330	0.054
-500.653	800.000	-0.111	-0.369
-499.639	360.532	0.123	0.246
-498.624	-38.356	0.162	-0.086
-497.610	-200.000	0.010	0.161
-496.595	8.272	-0.150	-0.112
-495.581	42.186	0.246	-0.223
-494.566	800.000	0.107	0.418
-493.551	-66.203	0.084	0.034
-492.537	34.026	-0.156	0.136
-491.522	-114.016	-0.435	-0.084
-490.508	-81.457	0.396	0.130
-489.493	-69.749	0.417	-0.159
-488.478	-200.000	-0.008	-0.122
-487.464	-200.000	-0.007	0.036
-486.449	-90.091	0.075	-0.022
-485.435	-64.634	-0.332	0.134
-484.420	800.000	0.065	-0.218
-483.405	-102.879	-0.106	0.025
-482.391	-200.000	-0.022	0.142
-481.376	800.000	0.040	-0.129
-480.362	-47.504	-0.049	-0.024
-479.347	-54.001	-0.442	-0.200
-478.332	-115.377	-0.069	-0.013
-477.318	-174.383	-0.196	0.006
-476.303	-200.000	-0.032	-0.224
-475.289	77.998	0.073	-0.078
-474.274	-200.000	-0.020	0.243
-473.259	212.100	-0.096	0.150
-472.245	-79.387	-0.271	-0.091
-471.230	271.695	-0.078	-0.138
-470.216	275.033	-0.274	-0.485
-469.201	-85.412	-0.182	-0.056
-468.186	33.194	-0.215	-0.186
-467.172	-123.799	0.233	0.037
-466.157	-140.457	0.150	0.016
-465.143	-118.318	0.359	-0.064
-464.128	31.879	0.315	0.271
-463.113	-200.000	0.001	-0.187
-462.099	-19.126	-0.307	-0.190
-461.084	33.748	-0.152	-0.131
-460.070	-21.112	-0.434	0.265
-459.055	172.048	-0.178	-0.254
-458.040	144.099	-0.111	0.148
-457.026	376.333	-0.070	0.141
-456.011	800.000	0.092	0.257
-454.997	-103.785	-0.209	-0.049
-453.982	-200.000	0.092	-0.423
-452.968	184.451	0.116	0.172
-451.953	5.012	0.335	0.246
-450.938	169.710	-0.129	-0.184
-449.924	-200.000	0.000	-0.288
-448.909	-151.861	-0.028	-0.002
-447.895	127.885	-0.243	-0.308
-446.880	22.767	-0.131	-0.107
-445.865	81.737	-0.122	0.132
-444.851	217.994	-0.170	0.270
-443.836	115.730	-0.083	0.101
-442.822	800.000	-0.055	-0.177
-441.807	-145.246	0.242	0.022
-440.792	5.416	-0.109	-0.080
-439.778	-200.000	-0.061	-0.314
-438.763	-27.925	0.042	0.024
-437.749	-82.041	0.287	0.093
-436.734	357.435	-0.056	0.111
-435.719	800.000	0.011	-0.042
-434.705	547.983	-0.014	-0.034
-433.690	229.043	-0.114	0.185
-432.676	-103.869	-0.102	0.024
-431.661	-200.000	-0.006	0.167
-430.646	-101.906	0.039	-0.009
-429.632	447.777	-0.088	0.192
-428.617	-134.800	-0.295	0.036
-427.603	-55.912	0.109	-0.048
-426.588	380.917	0.041	0.083
-425.573	732.683	0.104	0.276
-424.559	-200.000	0.031	0.226
-423.544	-66.742	-0.244	-0.096
-422.530	800.000	0.036	-0.116
-421.515	-80.910	0.416	-0.137
-420.500	47.257	0.056	-0.052
-419.486	316.947	-0.071	0.133
-418.471	163.520	0.276	0.386
-417.457	-133.636	0.205	-0.026
-416.442	-149.216	-0.313	-0.025
-415.428	85.741	0.264	-0.289
-414.413	-158.016	0.144	-0.008
-413.398	372.721	0.148	0.298
-412.384	800.000	-0.128	-0.413
-411.369	251.579	0.122	0.206
-410.355	13.511	-0.183	-0.141
-409.340	-200.000	-0.068	0.460
-408.325	-73.102	0.149	0.054
-407.311	-22.817	0.170	0.102
-406.296	-139.160	0.268	0.029
-405.282	97.434	0.148	0.169
-404.267	-200.000	0.012	-0.192
-403.252	800.000	0.067	-0.245
-402.238	565.495	-0.149	0.359
-401.223	-116.462	0.046	-0.008
-400.209	-33.467	-0.276	-0.151
-399.194	-111.755	0.126	-0.025
-398.179	438.131	-0.052	0.112
-397.165	-200.000	0.348	0.000
-396.150	-200.000	-0.053	0.271
-395.136	-20.017	0.173	0.106
-394.121	-102.852	-0.115	-0.027
-393.106	97.526	0.196	-0.223
-392.092	57.460	-0.198	-0.192
-391.077	-5.862	-0.273	0.185
-390.063	257.020	0.164	0.279
-389.048	299.589	0.155	-0.283
-388.033	-76.185	0.288	-0.101
-387.019	-155.204	-0.228	0.015
-386.004	-79.011	-0.196	0.066
-384.990	-200.000	0.024	0.414
-383.975	319.455	-0.094	0.177
-382.960	-35.588	0.256	-0.138
-381.946	35.105	0.208	0.181
-380.931	-200.000	0.011	0.120
-379.917	283.906	-0.159	-0.284
-378.902	-126.071	-0.209	0.031
-377.888	103.222	-0.124	-0.145
-376.873	587.320	0.101	-0.247
-375.858	-200.000	0.031	-0.178
-374.844	320.448	0.014	0.027
-373.829	800.000	0.022	-0.078
-372.815	444.288	-0.113	0.245
-371.800	391.908	-0.046	-0.095
-370.785	276.092	-0.122	-0.215
-369.771	39.173	0.038	-0.034
-368.756	-164.456	0.223	-0.010
-367.742	-108.173	0.326	0.070
-366.727	541.397	-0.121	0.287
-365.712	337.337	-0.119	-0.229
-364.698	147.452	0.243	0.325
-363.683	-166.075	-0.225	0.009
-362.669	-45.376	-0.067	0.033
-361.654	-161.572	-0.303	-0.015
-360.639	-120.739	0.144	0.024
-359.625	-86.356	-0.184	-0.056
-358.610	410.904	0.042	0.089
-357.596	-200.000	-0.026	0.151
-356.581	-19.976	-0.240	-0.147
-355.566	137.678	-0.116	0.151
-354.552	418.912	-0.165	-0.349
-353.537	-21.937	-0.150	0.090
-352.523	174.343	0.095	0.137
-351.508	47.463	-0.174	0.161
-350.493	125.065	-0.092	-0.115
-349.479	-82.931	0.278	0.089
-348.464	-87.693	0.125	0.037
-347.450	-132.474	-0.207	0.026
-346.435	381.865	-0.074	0.150
-345.420	63.723	-0.170	-0.169
-344.406	164.032	0.202	0.283
-343.391	-127.061	-0.307	-0.045
-342.377	800.000	-0.037	-0.157
-341.362	202.280	0.120	0.183
-340.348	504.258	-0.112	0.257
-339.333	-200.000	-0.034	0.444
-338.318	783.204	0.129	0.350
-337.304	-57.254	0.185	-0.081
-336.289	-150.998	-0.490	-0.037
-335.275	77.882	0.144	-0.152
-334.260	78.359	0.042	-0.045
-333.245	-200.000	0.009	-0.063
-332.231	120.006	0.106	0.131
-331.216	-123.265	-0.409	0.065
-330.202	-185.090	0.518	-0.008
-329.187	800.000	0.057	0.171
-328.172	-115.744	-0.142	-0.026
-327.158	100.478	-0.044	0.051
-326.143	-107.461	0.462	0.100
-325.129	-53.330	-0.237	0.108
-324.114	743.281	-0.131	0.349
-323.099	-98.560	0.241	0.061
-322.085	581.811	0.091	-0.221
-321.070	800.000	-0.142	-0.415
-320.056	-126.658	0.253	0.037
-319.041	-200.000	0.035	-0.193
-318.026	199.786	-0.207	0.315
-317.012	-200.000	0.012	0.265
-315.997	-148.751	0.179	-0.014
-314.983	800.000	0.012	-0.047
-313.968	-64.247	0.127	0.051
-312.953	-200.000	-0.004	0.535
-311.939	-200.000	0.042	-0.238
-310.924	117.824	0.126	-0.153
-309.910	800.000	-0.016	0.063
-308.895	-136.894	0.048	0.005
-307.880	-21.378	-0.245	0.148
-306.866	74.154	-0.156	-0.162
-305.851	-200.000	-0.009	-0.084
-304.837	-116.602	-0.276	-0.050
-303.822	-60.396	-0.403	-0.170
-302.807	73.482	0.272	0.282
-301.793	215.402	0.084	0.132
-300.778	114.495	0.255	-0.308
-299.764	638.394	-0.038	0.096
-298.749	0.495	-0.062	0.044
-297.735	-102.003	-0.349	0.083
-296.720	39.362	0.281	-0.249
-295.705	-99.061	0.236	-0.059
-294.691	-90.578	0.063	0.018
-293.676	113.888	0.267	0.321
-292.662	215.256	0.143	0.225
-291.647	25.534	-0.269	-0.222
-290.632	185.215	-0.042	0.062
-289.618	-112.661	0.142	-0.028
-288.603	-46.562	0.378	0.183
-287.589	2.613	-0.235	-0.169
-286.574	-105.401	0.187	0.042
-285.559	-173.539	-0.145	-0.004
-284.545	-42.473	-0.213	0.108
-283.530	-200.000	-0.067	0.492
-282.516	-43.864	0.199	0.099
-281.501	-200.000	-0.069	-0.404
-280.486	20.256	0.160	0.128
-279.472	-200.000	0.021	0.228
-278.457	-126.119	0.238	0.035
-277.443	-9.173	-0.113	-0.075
-276.428	48.448	-0.138	-0.128
-275.413	65.294	0.177	0.177
-274.399	133.831	0.163	-0.209
-273.384	89.044	-0.122	-0.135
-272.370	-72.268	-0.083	-0.030
-271.355	339.379	-0.308	0.593
-270.340	-97.727	0.221	-0.056
-269.326	-200.000	0.005	-0.350
-268.311	-70.863	-0.169	0.063
-267.297	-200.000	0.019	-0.452
-266.282	97.825	-0.155	0.177
-265.267	-151.772	0.281	0.020
-264.253	56.526	0.115	0.111
-263.238	-97.663	-0.230	0.059
-262.224	285.069	0.076	-0.136
-261.209	482.623	0.058	0.131
-260.195	-200.000	-0.038	0.324
-259.180	69.553	-0.068	0.069
-258.165	-89.332	-0.166	-0.048
-257.151	-5.160	0.021	-0.014
-256.136	10.390	0.188	0.141
-255.122	-44.732	-0.091	-0.045
-254.107	16.592	-0.312	0.244
-253.092	800.000	0.073	-0.276
-252.078	-0.224	0.239	0.168
-251.063	-162.226	-0.228	0.011
-250.049	-38.541	-0.146	0.076
-249.034	-99.100	0.408	-0.102
-248.019	800.000	0.023	-0.071
-247.005	-48.291	-0.483	-0.230
-245.990	-200.000	-0.020	-0.182
-244.976	-116.330	0.162	-0.030
-243.961	-89.468	0.075	0.022
-242.946	36.576	0.158	-0.138
-241.932	-164.498	-0.128	-0.006
-240.917	800.000	0.080	0.315
-239.903	-200.000	0.060	0.359
-238.888	282.974	-0.069	-0.123
-237.873	207.786	0.274	-0.423
-236.859	800.000	-0.059	-0.169
-235.844	-200.000	0.029	-0.146
-234.830	-39.740	-0.171	-0.088
-233.815	210.697	-0.110	0.170
-232.800	201.077	-0.153	-0.232
-231.786	-147.553	-0.235	-0.020
-230.771	2.481	-0.032	0.023
-229.757	704.200	-0.077	0.201
-228.742	-132.996	0.237	-0.030
-227.727	1.172	-0.172	0.122
-226.713	54.528	-0.124	-0.118
-225.698	294.087	0.101	0.182
-224.684	60.714	-0.260	0.255
-223.669	41.590	-0.191	-0.170
-222.655	-121.131	0.346	-0.057
-221.640	-45.562	-0.587	0.287
-220.625	-200.000	0.037	-0.239
-219.611	-81.121	0.184	-0.060
-218.596	47.329	-0.343	-0.315
-217.582	-200.000	0.001	0.225
-216.567	-80.408	-0.064	0.021
-215.552	-24.138	0.144	0.085
-214.538	351.862	0.092	0.179
-213.523	-151.074	0.529	-0.039
-212.509	-42.943	-0.186	0.093
-211.494	78.063	0.148	0.155
-210.479	552.503	0.034	-0.081
-209.465	-86.687	0.538	0.162
-208.450	-4.044	0.111	0.076
-207.436	272.721	0.090	0.156
-206.421	800.000	-0.046	0.186
-205.406	-58.603	-0.085	-0.036
-204.392	-59.544	-0.173	-0.073
-203.377	-200.000	-0.001	0.104
-202.363	388.760	-0.053	-0.108
-201.348	-1.350	0.122	-0.085
-200.333	-84.654	0.236	-0.073
-199.319	800.000	0.019	-0.065
-198.304	-200.000	0.041	0.339
-197.290	-172.369	-0.033	-0.001
-196.275	205.245	0.081	0.125
-195.260	-137.186	0.172	-0.019
-194.246	-64.090	0.151	0.061
-193.231	-110.459	0.165	0.034
-192.217	116.717	0.112	-0.136
-191.202	-63.851	-0.207	-0.083
-190.187	-200.000	-0.011	-0.408
-189.173	-35.925	0.214	-0.114
-188.158	9.545	0.150	-0.112
-187.144	-200.000	0.049	0.314
-186.129	449.711	0.036	0.078
-185.114	-200.000	0.036	-0.237
-184.100	-200.000	0.033	0.216
-183.085	-68.848	-0.216	0.082
-182.071	-200.000	0.032	-0.207
-181.056	37.093	-0.229	0.200
-180.042	-51.364	-0.188	-0.087
-179.027	-109.538	0.118	-0.025
-178.012	90.440	0.152	-0.168
-176.998	-200.000	0.033	0.242
-175.983	-28.861	-0.154	-0.087
-174.969	12.281	0.191	0.145
-173.954	-200.000	-0.045	-0.359
-172.939	-70.862	-0.277	-0.103
-171.925	-200.000	0.054	0.280
-170.910	-101.081	0.377	0.091
-169.896	-139.343	0.255	-0.027
-168.881	-70.661	-0.269	-0.100
-167.866	-200.000	-0.002	0.336
-166.852	34.424	-0.066	-0.057
-165.837	-115.909	-0.192	0.035
-164.823	470.266	0.029	0.065
-163.808	149.313	0.087	-0.116
-162.793	-18.038	-0.121	-0.075
-161.779	11.395	-0.225	-0.170
-160.764	-54.287	0.294	-0.131
-159.750	110.133	0.333	0.394
-158.735	742.795	0.110	0.291
-157.720	-107.827	0.335	-0.072
-156.706	345.915	0.174	-0.336
-155.691	257.675	-0.094	0.159
-154.677	23.432	0.270	-0.219
-153.662	-17.152	-0.104	0.065
-152.647	-200.000	-0.012	-0.071
-151.633	-131.524	-0.185	-0.024
-150.618	-200.000	0.034	0.362
-149.604	689.326	0.085	0.219
-148.589	74.691	0.064	0.066
-147.574	-200.000	-0.018	0.229
-146.560	29.265	0.199	-0.166
-145.545	36.683	0.123	0.107
-144.531	37.478	0.101	0.088
-143.516	390.466	-0.067	0.137
-142.502	800.000	-0.134	-0.463
-141.487	4.730	0.218	0.157
-140.472	-200.000	-0.026	-0.417
-139.458	-200.000	0.023	-0.218
-138.443	-200.000	0.021	-0.116
-137.429	-90.638	0.164	0.047
-136.414	-168.754	-0.164	0.006
-135.399	55.316	0.338	0.322
-134.385	273.934	-0.104	0.180
-133.370	-15.809	0.301	0.189
-132.356	-200.000	0.066	-0.370
-131.341	222.641	-0.166	-0.263
-130.326	355.527	0.106	0.207
-129.312	-200.000	0.054	0.242
-128.297	800.000	0.050	0.148
-127.283	800.000	-0.058	-0.159
-126.268	-163.161	-0.122	0.006
-125.253	30.803	-0.034	0.029
-124.239	450.625	-0.092	-0.199
-123.224	396.444	-0.061	-0.125
-122.210	419.357	0.114	0.241
-121.195	800.000	-0.123	0.444
-120.180	39.739	0.079	-0.070
-119.166	-42.892	-0.128	-0.064
-118.151	177.814	0.029	0.042
-117.137	-200.000	0.043	0.296
-116.122	-67.016	-0.225	-0.087
-115.107	-147.228	0.092	0.008
-114.093	-17.717	-0.179	0.111
-113.078	-200.000	0.014	0.190
-112.064	65.431	-0.306	0.304
-111.049	497.979	0.049	-0.110
-110.034	-66.636	-0.206	-0.080
-109.020	-76.196	-0.204	-0.071
-108.005	-200.000	-0.021	0.114
-106.991	-120.587	0.265	-0.044
-105.976	-68.254	-0.007	0.003
-104.962	39.070	0.212	0.186
-103.947	47.449	0.112	0.103
-102.932	-25.166	-0.113	0.066
-101.918	45.670	0.197	0.179
-100.903	183.625	-0.206	-0.299
-99.889	-200.000	0.030	0.142
-98.874	-104.013	-0.093	-0.021
-97.859	730.232	0.114	-0.299
-96.845	-109.598	-0.205	-0.042
-95.830	150.545	-0.053	-0.071
-94.816	-123.965	-0.186	-0.029
-93.801	800.000	0.071	0.223
-92.786	98.398	0.108	0.123
-91.772	385.112	-0.158	-0.320
-90.757	-81.313	-0.298	0.097
-89.743	-122.057	0.184	0.030
-88.728	-12.850	0.301	0.192
-87.713	-167.373	-0.455	0.018
-86.699	200.737	0.086	0.130
-85.684	800.000	0.069	-0.232
-84.670	288.408	0.140	0.249
-83.655	177.287	0.054	0.077
-82.640	-86.620	0.096	-0.029
-81.626	800.000	0.019	0.070
-80.611	33.511	0.272	0.232
-79.597	-137.244	0.024	-0.003
-78.582	-200.000	0.004	-0.069
-77.567	13.763	0.187	0.143
-76.553	-71.003	-0.314	-0.116
-75.538	192.601	0.243	-0.360
-74.524	-0.077	-0.252	0.176
-73.509	449.416	0.059	0.128
-72.494	272.112	0.232	0.401
-71.480	224.569	-0.143	0.226
-70.465	61.029	-0.219	-0.213
-69.451	-133.036	0.222	0.028
-68.436	-29.020	-0.101	0.057
-67.422	-200.000	-0.009	0.074
-66.407	-79.314	0.289	0.096
-65.392	158.556	0.094	0.127
-64.378	-142.938	0.185	0.018
-63.363	-11.496	-0.321	-0.207
-62.349	-109.449	0.237	-0.049
-61.334	57.932	-0.962	-0.924
-60.319	724.053	0.286	0.748
-59.305	-200.000	-0.185	-1.266
-58.290	800.000	0.310	1.236
-57.276	408.990	0.800	1.662
-56.261	-200.000	104.239	586.868
-55.246	485.731	1444.666	3228.177
-54.232	151.822	2629.545	3515.008
-53.217	103.323	2278.225	2619.971
-52.203	39.735	1895.692	1667.688
-51.188	33.745	1686.018	1437.967
-50.173	31.013	1642.905	1380.943
-49.159	49.735	1693.879	1564.983
-48.144	50.630	1710.131	1586.665
-47.130	33.359	1668.102	1419.565
-46.115	30.559	1654.707	1387.252
-45.100	30.397	1650.114	1382.140
-44.086	30.463	1646.970	1379.941
-43.071	30.408	1644.648	1377.536
-42.057	30.427	1641.719	1375.169
-41.042	30.379	1639.501	1372.898
-40.027	30.327	1638.132	1371.311
-39.013	30.357	1636.207	1369.872
-37.998	30.291	1635.112	1368.409
-36.984	30.385	1633.564	1367.758
-35.969	30.496	1631.646	1366.908
-34.954	30.580	1630.032	1366.121
-33.940	30.485	1628.808	1364.347
-32.925	30.567	1626.739	1363.160
-31.911	30.457	1625.351	1361.139
-30.896	30.542	1623.384	1360.060
-29.881	30.463	1621.899	1358.179
-28.867	30.431	1620.123	1356.405
-27.852	30.391	1618.584	1354.771
-26.838	30.502	1617.658	1354.755
-25.823	30.613	1615.379	1353.595
-24.809	30.528	1614.940	1352.556
-23.794	30.582	1612.946	1351.226
-22.779	30.496	1611.473	1349.313
-21.765	30.465	1610.091	1347.875
-20.750	30.481	1608.064	1346.246
-19.736	30.535	1607.239	1345.893
-18.721	30.644	1605.247	1344.955
-17.706	30.515	1604.046	1342.965
-16.692	30.496	1602.801	1341.734
-15.677	30.467	1601.673	1340.529
-14.663	30.508	1600.164	1339.507
-13.648	30.528	1598.613	1338.302
-12.633	30.546	1597.238	1337.221
-11.619	30.501	1595.807	1335.649
-10.604	30.543	1593.825	1334.238
-9.590	30.513	1592.704	1333.034
-8.575	30.632	1591.681	1332.973
-7.560	30.580	1590.678	1331.708
-6.546	30.545	1589.739	1330.621
-5.531	30.587	1588.160	1329.550
-4.517	30.529	1586.985	1328.095
-3.502	30.530	1585.960	1327.192
-2.487	30.607	1583.985	1326.037
-1.473	30.165	1572.676	1313.387
-0.458	27.147	1552.669	1275.480
0.556	21.739	1553.428	1243.059
1.571	19.314	1577.289	1244.556
2.586	18.774	1589.944	1250.501
3.600	16.955	1537.980	1196.698
4.615	9.563	1428.178	1062.562
5.629	1.815	1363.520	965.416
6.644	0.157	1356.096	949.625
7.659	0.180	1354.360	948.470
8.673	0.003	1353.556	946.711
9.688	0.020	1351.491	945.284
10.702	-0.058	1348.200	942.409
11.717	3.514	1354.241	969.022
12.731	11.921	1367.885	1031.855
13.746	17.238	1374.732	1070.514
14.761	17.301	1373.287	1069.691
15.775	16.232	1370.635	1060.813
16.790	15.205	1368.365	1052.514
17.804	14.406	1365.715	1045.373
18.819	14.208	1364.041	1042.759
19.834	13.757	1363.118	1039.136
20.848	13.508	1361.694	1036.397
21.863	13.307	1360.592	1034.212
22.877	13.157	1359.440	1032.310
23.892	13.050	1358.773	1031.044
24.907	13.179	1357.253	1030.601
25.921	13.117	1356.865	1029.827
26.936	13.139	1355.925	1029.162
27.950	13.189	1354.779	1028.511
28.965	13.380	1353.677	1028.772
29.980	13.279	1353.441	1027.876
30.994	13.452	1351.808	1027.615
32.009	13.441	1351.388	1027.140
33.023	13.323	1350.751	1025.833
34.038	13.329	1349.003	1024.449
35.053	13.400	1347.955	1024.006
36.067	13.216	1347.336	1022.303
37.082	13.357	1346.246	1022.260
38.096	13.429	1345.068	1021.718
39.111	13.449	1343.931	1020.886
40.126	13.342	1343.533	1019.835
41.140	13.190	1342.756	1018.220
42.155	13.158	1342.655	1017.857
43.169	13.204	1341.785	1017.385
44.184	13.087	1341.886	1016.655
45.199	13.202	1341.180	1016.739
46.213	13.140	1341.163	1016.250
47.228	13.294	1339.881	1016.139
48.242	13.290	1338.801	1015.206
49.257	13.281	1337.377	1013.980
50.271	13.251	1335.349	1012.170
51.286	13.242	1334.643	1011.489
52.301	13.356	1333.035	1010.877
53.315	13.279	1331.891	1009.451
54.330	13.194	1331.132	1008.264
55.344	13.185	1329.932	1007.213
56.359	13.289	1328.659	1006.793
57.374	13.243	1327.684	1005.683
58.388	13.243	1326.999	1005.078
59.403	13.148	1326.589	1004.103
60.417	13.094	1325.727	1003.033
61.432	13.081	1324.919	1002.252
62.447	13.075	1323.656	1001.175
63.461	13.037	1322.421	999.917
64.476	13.012	1321.797	999.206
65.490	13.010	1320.292	997.969
66.505	12.966	1319.089	996.704
67.520	13.022	1317.685	995.897
68.534	13.116	1316.465	995.452
69.549	13.071	1315.309	994.216
70.563	13.012	1314.895	993.460
71.578	12.998	1313.637	992.340
72.593	13.051	1312.014	991.347
73.607	12.993	1312.110	990.982
74.622	12.997	1310.640	989.805
75.636	12.960	1310.324	989.256
76.651	12.919	1309.663	988.428
77.666	13.096	1308.619	988.610
78.680	13.085	1308.356	988.260
79.695	13.012	1307.678	987.224
80.709	13.002	1306.931	986.511
81.724	13.052	1305.981	986.004
82.739	13.077	1305.446	985.661
83.753	13.165	1304.269	985.215
84.768	13.305	1303.189	985.141
85.782	13.423	1301.516	984.497
86.797	13.245	1300.940	982.911
87.812	13.255	1299.181	981.554
88.826	13.216	1298.086	980.408
89.841	13.219	1297.450	979.861
90.855	13.253	1296.394	979.176
91.870	13.331	1295.608	978.960
92.884	13.305	1294.969	978.236
93.899	13.399	1294.274	978.181
94.914	13.417	1292.952	977.200
95.928	13.406	1292.173	976.460
96.943	13.385	1291.316	975.605
97.957	13.385	1290.266	974.725
98.972	13.253	1289.523	973.300
99.987	13.324	1288.595	972.932
101.001	13.308	1287.503	971.926
102.016	13.303	1286.481	971.037
103.030	13.224	1286.020	970.144
104.045	13.273	1284.901	969.498
105.060	13.204	1283.953	968.295
106.074	13.281	1282.194	967.333
107.089	13.154	1280.769	965.432
108.103	13.186	1279.163	964.320
109.118	13.156	1278.471	963.540
110.133	13.186	1276.645	962.249
111.147	13.198	1275.536	961.399
112.162	13.222	1274.634	960.773
113.176	13.222	1273.619	959.926
114.191	13.148	1272.705	958.724
115.206	13.327	1271.257	958.584
116.220	13.222	1270.187	957.085
117.235	13.236	1269.210	956.341
118.249	13.199	1268.319	955.373
119.264	13.230	1266.857	954.368
120.279	13.256	1265.670	953.538
121.293	13.185	1264.797	952.386
122.308	13.097	1264.215	951.354
123.322	13.098	1263.200	950.513
124.337	13.067	1261.887	949.262
125.352	13.241	1260.436	949.088
126.366	13.148	1259.817	948.003
127.381	13.102	1258.736	946.842
128.395	13.246	1257.341	946.535
129.410	13.170	1256.746	945.572
130.424	13.191	1255.909	944.974
131.439	13.234	1255.010	944.459
132.454	13.227	1254.328	943.821
133.468	13.276	1253.443	943.357
134.483	13.305	1252.591	942.798
135.497	13.126	1251.703	941.026
136.512	13.272	1250.154	940.609
137.527	13.247	1248.812	939.373
138.541	13.241	1247.267	938.095
139.556	13.221	1246.629	937.418
140.570	13.374	1245.374	937.257
141.585	13.273	1244.016	935.578
142.600	13.378	1242.571	935.003
143.614	13.407	1241.673	934.410
144.629	13.348	1241.013	933.498
145.643	13.332	1239.891	932.481
146.658	13.359	1238.078	931.184
147.673	13.369	1236.811	930.207
148.687	13.331	1236.025	929.319
149.702	13.231	1234.898	927.832
150.716	13.274	1233.202	926.714
151.731	13.231	1232.449	925.826
152.746	13.338	1231.209	925.411
153.760	13.311	1229.825	924.138
154.775	13.385	1228.674	923.602
155.789	13.497	1227.993	923.637
156.804	13.486	1226.919	922.683
157.819	13.338	1226.337	921.343
158.833	13.452	1224.773	920.719
159.848	13.561	1223.933	920.610
160.862	13.610	1222.778	919.931
161.877	13.406	1222.111	918.215
162.892	13.427	1220.597	917.116
163.906	13.475	1219.698	916.627
164.921	13.366	1219.131	915.515
165.935	13.513	1218.136	915.496
166.950	13.448	1217.638	914.681
167.964	13.504	1216.813	914.294
168.979	13.495	1216.338	913.805
169.994	13.547	1215.393	913.300
171.008	13.673	1214.388	913.159
172.023	13.576	1213.745	912.062
173.037	13.626	1213.000	911.698
174.052	13.553	1211.900	910.388
175.067	13.521	1211.228	909.628
176.081	13.531	1210.234	908.852
177.096	13.416	1209.487	907.582
178.110	13.560	1208.046	907.208
179.125	13.537	1206.758	906.037
180.140	13.586	1205.553	905.317
181.154	13.526	1204.545	904.153
182.169	13.645	1203.251	903.750
183.183	13.575	1202.074	902.405
184.198	13.728	1201.194	902.496
185.213	13.648	1199.951	901.051
186.227	13.770	1199.073	900.975
187.242	13.741	1198.012	899.941
188.256	13.777	1197.059	899.340
189.271	13.836	1196.042	898.816
190.286	13.788	1194.856	897.586
191.300	13.557	1194.274	895.817
192.315	13.643	1193.073	895.301
193.329	13.654	1192.382	894.764
194.344	13.704	1191.488	894.283
195.359	13.584	1191.726	893.734
196.373	13.759	1191.138	894.157
197.388	13.859	1190.333	894.012
198.402	13.858	1190.015	893.693
199.417	13.928	1189.296	893.446
200.432	14.057	1188.197	893.237
201.446	14.003	1187.464	892.317
202.461	14.081	1186.496	891.931
203.475	14.053	1185.754	891.140
204.490	14.054	1184.401	890.053
205.504	14.020	1183.226	888.909
206.519	14.022	1182.054	887.960
207.534	13.919	1181.204	886.691
208.548	13.969	1180.440	886.309
209.563	14.009	1179.310	885.593
210.577	14.088	1178.315	885.192
211.592	14.056	1177.410	884.263
212.607	14.130	1176.751	884.081
213.621	14.138	1175.891	883.397
214.636	14.153	1174.961	882.702
215.650	14.142	1173.685	881.608
216.665	14.178	1173.089	881.272
217.680	14.204	1172.141	880.621
218.694	14.294	1170.983	880.147
219.709	14.213	1170.868	879.556
220.723	14.146	1169.988	878.460
221.738	14.259	1168.912	878.172
222.753	14.199	1168.538	877.497
223.767	14.330	1167.690	877.475
224.782	14.223	1167.401	876.615
225.796	14.301	1166.681	876.410
226.811	14.377	1165.703	875.995
227.826	14.411	1164.708	875.351
228.840	14.315	1164.362	874.508
229.855	14.397	1163.343	874.096
230.869	14.323	1162.659	873.116
231.884	14.327	1161.825	872.431
232.899	14.254	1161.288	871.571
233.913	14.343	1160.509	871.376
234.928	14.299	1159.438	870.263
235.942	14.196	1159.183	869.453
236.957	14.303	1158.081	869.111
237.972	14.302	1157.121	868.308
238.986	14.272	1156.976	867.964
240.001	14.316	1156.276	867.591
241.015	14.359	1155.387	867.072
242.030	14.412	1154.366	866.505
243.045	14.467	1153.281	865.899
244.059	14.437	1152.701	865.233
245.074	14.454	1152.370	864.995
246.088	14.395	1151.661	864.082
247.103	14.513	1150.759	863.940
248.117	14.563	1150.306	863.779
249.132	14.671	1149.362	863.558
250.147	14.669	1148.841	863.077
251.161	14.772	1147.820	862.767
252.176	14.748	1147.310	862.183
253.190	14.772	1146.494	861.617
254.205	14.866	1145.650	861.388
255.220	14.886	1145.196	861.075
256.234	14.939	1144.655	860.868
257.249	14.869	1143.980	859.922
258.263	14.923	1143.206	859.543
259.278	14.773	1142.894	858.460
260.293	14.907	1142.289	858.617
261.307	14.860	1142.034	858.108
262.322	14.944	1141.071	857.741
263.336	14.896	1140.707	857.146
264.351	14.952	1139.994	856.818
265.366	15.001	1138.982	856.235
266.380	15.042	1138.194	855.777
267.395	14.978	1137.562	854.900
268.409	15.008	1136.509	854.184
269.424	14.991	1136.002	853.638
270.439	15.003	1135.893	853.542
271.453	15.044	1134.868	852.909
272.468	14.950	1133.899	851.624
273.482	15.014	1133.057	851.243
274.497	15.021	1132.663	850.905
275.512	14.992	1131.877	850.093
276.526	15.074	1131.010	849.785
277.541	15.100	1130.349	849.343
278.555	15.161	1129.503	848.944
279.570	15.144	1128.796	848.250
280.585	15.100	1128.563	847.774
281.599	15.153	1127.653	847.284
282.614	15.213	1126.278	846.483
283.628	15.228	1124.887	845.438
284.643	15.180	1124.311	844.686
285.657	15.114	1123.512	843.681
286.672	15.237	1122.687	843.605
287.687	15.321	1121.557	843.101
288.701	15.328	1120.625	842.362
289.716	15.249	1120.138	841.527
290.730	15.372	1119.357	841.480
291.745	15.293	1118.659	840.485
292.760	15.379	1118.231	840.522
293.774	15.433	1117.526	840.189
294.789	15.433	1116.987	839.708
295.803	15.343	1116.852	839.081
296.818	15.406	1115.519	838.321
297.833	15.432	1114.734	837.788
298.847	15.402	1114.063	837.056
299.862	15.408	1113.450	836.556
300.876	15.453	1112.965	836.340
301.891	15.502	1111.979	835.767
302.906	15.490	1111.204	835.053
303.920	15.513	1110.806	834.794
304.935	15.654	1109.939	834.769
305.949	15.777	1109.364	834.875
306.964	15.558	1108.857	833.332
307.979	15.647	1107.687	832.820
308.993	15.651	1107.205	832.400
310.008	15.653	1106.203	831.586
311.022	15.749	1105.543	831.493
312.037	15.668	1104.946	830.569
313.052	15.644	1104.225	829.831
314.066	15.622	1102.858	828.626
315.081	15.533	1102.184	827.606
316.095	15.552	1101.899	827.413
317.110	15.670	1101.354	827.510
318.125	15.600	1100.446	826.411
319.139	15.636	1099.474	825.785
320.154	15.583	1098.984	825.085
321.168	15.649	1098.150	824.709
322.183	15.692	1097.635	824.459
323.197	15.665	1097.245	823.962
324.212	15.628	1096.592	823.216
325.227	15.822	1095.879	823.560
326.241	15.813	1095.259	822.975
327.256	15.744	1094.292	821.837
328.270	15.740	1093.276	820.984
329.285	15.745	1092.244	820.158
330.300	15.701	1091.755	819.508
331.314	15.635	1091.177	818.677
332.329	15.768	1089.969	818.344
333.343	15.776	1089.098	817.659
334.358	15.843	1088.830	817.711
335.373	15.949	1087.625	817.247
336.387	15.851	1087.341	816.486
337.402	15.947	1086.280	816.086
338.416	15.915	1085.724	815.439
339.431	16.038	1085.176	815.550
340.446	15.990	1084.284	814.573
341.460	16.033	1083.587	814.188
342.475	16.084	1083.025	813.939
343.489	16.154	1082.052	813.474
344.504	16.167	1081.113	812.758
345.519	16.272	1079.868	812.258
346.533	16.221	1079.682	811.800
347.548	16.244	1078.971	811.304
348.562	16.289	1078.086	810.784
349.577	16.127	1077.509	809.501
350.592	16.083	1076.568	808.508
351.606	16.095	1075.896	807.991
352.621	16.159	1075.242	807.735
353.635	16.060	1074.613	806.714
354.650	16.119	1074.077	806.523
355.665	16.220	1073.032	806.151
356.679	16.226	1072.567	805.760
357.694	16.265	1071.807	805.302
358.708	16.224	1071.347	804.690
359.723	16.317	1070.695	804.572
360.738	16.373	1069.953	804.208
361.752	16.312	1069.563	803.556
362.767	16.339	1069.127	803.286
363.781	16.340	1068.544	802.780
364.796	16.334	1067.998	802.274
365.810	16.416	1067.181	801.979
366.825	16.377	1066.629	801.306
367.840	16.564	1066.180	801.783
368.854	16.482	1065.408	800.742
369.869	16.474	1064.885	800.240
370.883	16.594	1063.418	799.634
371.898	16.576	1062.930	799.115
372.913	16.651	1062.312	798.932
373.927	16.504	1062.192	798.079
374.942	16.431	1061.931	797.465
375.956	16.609	1061.246	797.721
376.971	16.591	1060.321	796.871
377.986	16.645	1059.972	796.794
379.000	16.676	1059.683	796.649
380.015	16.810	1058.988	796.686
381.029	16.684	1058.214	795.442
382.044	16.643	1057.724	794.810
383.059	16.645	1056.588	793.897
384.073	16.883	1055.727	794.291
385.088	16.914	1054.779	793.654
386.102	16.807	1054.152	792.613
387.117	16.889	1053.159	792.180
388.132	16.787	1052.231	790.936
389.146	16.666	1051.790	789.967
390.161	16.719	1050.980	789.538
391.175	16.654	1050.484	788.791
392.190	16.771	1049.766	788.727
393.205	16.873	1049.027	788.579
394.219	16.855	1048.324	787.896
395.234	16.774	1047.509	786.837
396.248	16.759	1046.250	785.752
397.263	16.848	1045.003	785.159
398.278	16.896	1044.447	784.892
399.292	16.826	1043.769	783.990
400.307	16.860	1043.344	783.758
401.321	16.866	1042.631	783.184
402.336	16.874	1041.840	782.554
403.350	16.964	1041.226	782.442
404.365	16.827	1040.646	781.303
405.380	16.955	1039.838	781.219
406.394	16.948	1039.597	780.934
407.409	16.972	1038.709	780.310
408.423	17.068	1037.995	780.146
409.438	17.189	1036.821	779.752
410.453	17.060	1036.568	778.899
411.467	17.255	1035.591	778.987
412.482	17.171	1035.040	778.121
413.496	17.143	1034.620	777.606
414.511	17.208	1033.913	777.304
415.526	17.265	1033.610	777.268
416.540	17.354	1033.131	777.246
417.555	17.321	1032.601	776.630
418.569	17.330	1031.918	776.087
419.584	17.346	1031.276	775.608
420.599	17.321	1031.022	775.238
421.613	103.164	1321.477	1466.995
422.628	94.432	1363.751	1467.111
