DTS Sentinel unit serial number:	SN413079Multiplexer serial number:	ORYXHardware model number:	OX4-SRSoftware version number:	ORYX F/W v4.00 Oryx Data Collector v3.7.2.0data status	okinstallation	princeton_trtdifferential loss correction	single-endedforward channel	channel 2reverse channel	N/Adate	2019/09/15time	02:43:35forward acquisition time	60.00reverse acquisition time	0.00gamma	496.2192k internal	0.2326k external	0.2326temperature offset calibration	1.0035default loss term (dB/km)	0.3790temperature slope calibration	1.0000multiplexer offset coefficient	1.0000multiplexer slope coefficient	1.0000fibre end	0.00T internal ref (°C)	31.37T ext. ref 1 (°C)	4.57T ext. ref 2 (°C)	25.79length (m)	temperature (°C)	Stokes	anti-Stokes-747.200	-200.000	-0.001	-0.160
-746.185	-200.000	-0.033	0.165
-745.171	-137.392	-0.154	0.018
-744.156	-200.000	-0.004	0.137
-743.142	-200.000	0.055	-0.365
-742.127	-200.000	-0.044	0.282
-741.112	524.861	0.077	-0.184
-740.098	-173.053	0.066	0.002
-739.083	-200.000	0.044	-0.276
-738.069	-79.045	0.170	0.058
-737.054	500.256	-0.098	-0.228
-736.039	-52.039	-0.165	-0.077
-735.025	-29.897	-0.077	-0.044
-734.010	-15.467	-0.404	-0.260
-732.996	-34.000	0.351	0.195
-731.981	-200.000	-0.003	-0.113
-730.966	241.937	-0.015	0.025
-729.952	34.440	0.247	0.218
-728.937	116.935	-0.164	-0.203
-727.923	242.865	-0.079	-0.134
-726.908	6.893	0.247	-0.185
-725.894	64.798	0.196	-0.199
-724.879	-134.859	-0.121	0.015
-723.864	265.705	0.101	0.178
-722.850	-30.774	-0.039	-0.022
-721.835	800.000	0.066	0.198
-720.821	37.447	-0.400	0.358
-719.806	-34.781	-0.130	-0.072
-718.791	-84.232	-0.297	-0.095
-717.777	-96.137	-0.083	-0.022
-716.762	33.168	-0.275	0.240
-715.748	-200.000	-0.037	0.260
-714.733	-101.753	0.171	-0.042
-713.718	439.344	-0.119	-0.261
-712.704	19.621	-0.133	-0.108
-711.689	800.000	0.097	-0.280
-710.675	-19.853	-0.282	0.176
-709.660	25.716	-0.203	0.170
-708.645	-29.928	0.267	0.153
-707.631	-112.438	0.246	-0.049
-706.616	-121.454	-0.197	0.033
-705.602	800.000	-0.065	0.191
-704.587	-200.000	-0.059	-0.367
-703.572	131.230	-0.150	-0.194
-702.558	16.960	0.164	-0.131
-701.543	-121.715	0.533	-0.089
-700.529	800.000	-0.018	0.055
-699.514	14.430	0.183	-0.144
-698.499	-67.193	-0.233	-0.093
-697.485	310.653	-0.017	0.033
-696.470	558.304	-0.100	-0.244
-695.456	618.761	-0.040	0.102
-694.441	-200.000	0.008	0.129
-693.426	800.000	0.083	-0.251
-692.412	84.479	0.062	0.069
-691.397	244.830	0.118	-0.200
-690.383	358.469	-0.197	-0.396
-689.368	-46.510	-0.208	0.103
-688.354	142.498	0.119	-0.159
-687.339	-98.251	-0.175	-0.045
-686.324	117.803	-0.069	0.086
-685.310	-102.286	0.148	-0.036
-684.295	-149.535	0.085	-0.007
-683.281	800.000	-0.059	0.219
-682.266	-99.529	0.164	0.041
-681.251	-179.448	0.136	-0.003
-680.237	260.383	-0.124	0.216
-679.222	-200.000	-0.233	-0.001
-678.208	-163.568	0.291	-0.014
-677.193	-200.000	-0.001	-0.055
-676.178	-152.711	-0.146	0.010
-675.164	800.000	-0.075	-0.251
-674.149	-151.905	-0.182	-0.013
-673.135	66.206	0.154	0.157
-672.120	-200.000	-0.004	0.167
-671.105	-200.000	0.034	-0.294
-670.091	156.757	0.052	0.072
-669.076	-200.000	0.019	-0.183
-668.062	-103.161	0.239	-0.057
-667.047	-167.690	-0.207	0.008
-666.032	800.000	0.036	-0.128
-665.018	-64.587	0.090	0.037
-664.003	-75.522	0.188	0.067
-662.989	-47.575	0.293	0.143
-661.974	-200.000	-0.044	0.209
-660.959	12.265	0.107	-0.083
-659.945	333.637	-0.169	-0.328
-658.930	-3.222	-0.305	-0.214
-657.916	-85.994	-0.301	-0.093
-656.901	-200.000	0.030	-0.267
-655.886	34.159	-0.031	0.027
-654.872	-143.969	-0.320	0.030
-653.857	-126.595	-0.198	-0.029
-652.843	-181.538	-0.230	-0.004
-651.828	-110.257	-0.375	-0.078
-650.814	-22.855	0.100	-0.060
-649.799	52.602	0.124	0.119
-648.784	-200.000	-0.002	-0.138
-647.770	-200.000	-0.057	0.340
-646.755	569.924	0.128	0.313
-645.741	211.305	-0.188	0.298
-644.726	513.483	0.074	0.174
-643.711	-40.749	-0.151	-0.079
-642.697	800.000	0.141	0.409
-641.682	741.409	-0.028	0.075
-640.668	128.528	-0.129	0.166
-639.653	-68.447	-0.146	-0.057
-638.638	800.000	-0.071	0.258
-637.624	472.350	0.086	0.194
-636.609	77.204	0.066	0.071
-635.595	680.225	-0.048	-0.126
-634.580	-31.647	-0.077	-0.043
-633.565	126.545	-0.150	-0.191
-632.551	46.209	0.195	-0.181
-631.536	-192.008	0.176	0.002
-630.522	100.113	-0.244	-0.284
-629.507	31.183	0.142	0.122
-628.492	418.629	-0.042	0.090
-627.478	145.849	-0.191	0.258
-626.463	118.181	-0.126	-0.156
-625.449	5.084	-0.232	0.172
-624.434	89.903	0.192	0.215
-623.419	800.000	0.126	0.354
-622.405	111.607	-0.111	-0.134
-621.390	-200.000	0.004	0.044
-620.376	-10.291	-0.220	0.147
-619.361	-200.000	0.016	0.100
-618.346	-73.817	0.213	0.078
-617.332	-200.000	-0.011	0.364
-616.317	-137.283	0.095	-0.011
-615.303	-200.000	-0.004	0.079
-614.288	-124.432	0.060	0.009
-613.273	182.626	-0.048	-0.071
-612.259	800.000	-0.063	-0.198
-611.244	222.037	0.327	-0.528
-610.230	28.580	-0.126	-0.107
-609.215	137.627	0.040	-0.053
-608.201	800.000	0.023	-0.091
-607.186	135.645	-0.065	0.085
-606.171	-200.000	0.097	0.510
-605.157	-69.767	0.110	0.042
-604.142	95.091	-0.053	0.061
-603.128	32.609	0.214	0.186
-602.113	-59.020	0.301	0.130
-601.098	-200.000	-0.008	0.057
-600.084	-76.110	-0.235	-0.083
-599.069	800.000	-0.068	0.250
-598.055	78.627	-0.297	-0.318
-597.040	765.865	-0.030	0.083
-596.025	-24.096	-0.296	-0.177
-595.011	-51.776	-0.201	0.094
-593.996	19.323	-0.316	-0.255
-592.982	800.000	-0.002	0.008
-591.967	800.000	0.132	0.383
-590.952	127.961	-0.098	0.125
-589.938	-6.011	-0.076	0.052
-588.923	178.050	0.183	-0.267
-587.909	-200.000	0.015	-0.099
-586.894	13.227	-0.213	-0.166
-585.879	-200.000	-0.001	-0.094
-584.865	-109.547	0.134	-0.028
-583.850	-140.906	-0.166	-0.017
-582.836	-200.000	0.038	0.165
-581.821	-7.562	-0.130	-0.088
-580.806	516.422	-0.054	-0.126
-579.792	-200.000	0.034	0.199
-578.777	-136.710	-0.337	0.039
-577.763	-158.524	-0.378	-0.022
-576.748	178.629	-0.048	0.071
-575.733	-200.000	-0.017	-0.211
-574.719	19.289	-0.108	0.087
-573.704	-68.901	-0.203	-0.079
-572.690	-64.816	-0.280	-0.114
-571.675	-63.510	0.180	0.074
-570.661	-161.792	-0.037	0.002
-569.646	224.076	-0.062	-0.101
-568.631	-200.000	-0.040	0.382
-567.617	-160.600	0.210	0.011
-566.602	-92.531	0.305	-0.086
-565.588	36.252	-0.045	0.040
-564.573	113.778	0.219	-0.266
-563.558	568.759	0.020	0.050
-562.544	60.367	0.381	-0.378
-561.529	-115.081	0.132	-0.025
-560.515	800.000	0.028	0.108
-559.500	-200.000	-0.003	-0.055
-558.485	761.614	0.029	-0.080
-557.471	800.000	0.102	-0.331
-556.456	-94.287	0.109	-0.030
-555.442	-74.956	-0.191	0.069
-554.427	-200.000	0.045	0.200
-553.412	250.400	0.214	-0.364
-552.398	-200.000	0.034	-0.190
-551.383	5.874	-0.224	-0.166
-550.369	251.349	-0.077	0.131
-549.354	-102.245	0.124	0.030
-548.339	209.747	-0.271	0.425
-547.325	86.197	0.102	-0.113
-546.310	-92.321	-0.269	0.076
-545.296	13.566	-0.132	0.103
-544.281	-188.255	-0.322	0.004
-543.266	-70.141	0.185	-0.070
-542.252	-60.944	-0.178	0.075
-541.237	108.812	0.144	-0.172
-540.223	-20.382	-0.181	-0.111
-539.208	326.726	-0.033	0.063
-538.193	800.000	0.041	0.143
-537.179	355.401	-0.071	0.141
-536.164	-4.557	0.084	-0.058
-535.150	-200.000	-0.010	0.097
-534.135	407.773	0.046	0.098
-533.121	-110.145	0.148	0.031
-532.106	22.479	0.156	-0.128
-531.091	291.706	-0.242	-0.440
-530.077	-57.074	0.083	-0.037
-529.062	-16.963	-0.120	0.076
-528.048	32.713	0.043	0.037
-527.033	260.784	-0.163	-0.283
-526.018	-66.560	-0.117	0.047
-525.004	385.739	-0.037	0.076
-523.989	-77.527	0.270	-0.094
-522.975	543.865	0.076	0.181
-521.960	44.373	-0.201	-0.185
-520.945	-169.058	0.166	0.006
-519.931	-104.089	-0.352	-0.082
-518.916	-104.540	-0.287	-0.066
-517.902	152.434	0.101	0.138
-516.887	-200.000	-0.059	0.343
-515.872	55.111	0.151	-0.146
-514.858	87.348	-0.137	-0.151
-513.843	-137.685	-0.286	-0.032
-512.829	87.933	-0.178	-0.197
-511.814	21.516	-0.097	-0.079
-510.799	-39.894	-0.146	0.076
-509.785	132.886	-0.239	0.309
-508.770	-181.913	0.267	-0.005
-507.756	-114.492	0.254	0.049
-506.741	-200.000	-0.025	-0.174
-505.726	68.665	0.115	0.118
-504.712	-96.749	0.169	0.044
-503.697	-200.000	-0.043	0.403
-502.683	471.475	0.037	-0.082
-501.668	-200.000	0.007	-0.036
-500.653	-200.000	-0.034	0.259
-499.639	21.080	-0.145	0.117
-498.624	37.079	0.030	0.027
-497.610	-200.000	0.051	-0.437
-496.595	1.226	-0.230	0.165
-495.581	-9.851	0.112	0.074
-494.566	553.032	-0.055	0.131
-493.551	69.916	0.223	-0.229
-492.537	-41.463	-0.301	-0.155
-491.522	120.583	-0.253	0.314
-490.508	187.869	-0.116	-0.173
-489.493	-140.066	0.138	-0.014
-488.478	-82.889	0.047	0.015
-487.464	26.340	-0.092	-0.077
-486.449	313.172	0.121	0.227
-485.435	32.622	-0.230	0.199
-484.420	97.853	-0.345	0.396
-483.405	72.865	0.210	-0.219
-482.391	-99.806	-0.248	0.062
-481.376	-141.466	-0.121	-0.012
-480.362	529.262	-0.136	0.321
-479.347	-57.394	0.308	0.135
-478.332	-200.000	0.023	0.207
-477.318	-200.000	-0.010	0.247
-476.303	-127.544	0.296	-0.043
-475.289	118.775	-0.132	-0.163
-474.274	248.883	-0.170	-0.288
-473.259	463.170	-0.126	0.280
-472.245	46.898	-0.209	0.194
-471.230	-200.000	-0.035	-0.175
-470.216	17.640	-0.111	0.088
-469.201	-46.841	0.180	-0.088
-468.186	333.326	-0.136	-0.262
-467.172	336.938	0.085	0.165
-466.157	703.907	0.145	0.381
-465.143	-81.297	-0.259	-0.085
-464.128	-64.255	0.249	-0.101
-463.113	247.765	0.233	-0.394
-462.099	-200.000	0.031	-0.432
-461.084	40.461	0.341	0.306
-460.070	-69.270	0.079	-0.030
-459.055	-200.000	-0.000	0.046
-458.040	250.860	0.064	0.109
-457.026	501.561	-0.084	-0.194
-456.011	81.069	-0.214	-0.230
-454.997	52.083	-0.268	0.255
-453.982	179.006	-0.257	0.375
-452.968	-200.000	-0.067	0.406
-451.953	205.209	-0.139	-0.215
-450.938	-200.000	0.018	0.227
-449.924	351.546	-0.118	0.234
-448.909	0.313	0.063	0.045
-447.895	-80.853	0.095	-0.032
-446.880	1.386	0.033	-0.024
-445.865	-200.000	0.006	-0.137
-444.851	-200.000	-0.020	0.298
-443.836	550.957	-0.152	-0.363
-442.822	-200.000	0.030	-0.199
-441.807	-200.000	0.011	0.271
-440.792	800.000	0.054	-0.234
-439.778	55.666	0.231	-0.223
-438.763	-76.988	-0.034	-0.012
-437.749	-200.000	-0.047	0.241
-436.734	-99.472	0.265	-0.067
-435.719	-200.000	0.039	0.309
-434.705	-39.462	0.183	-0.095
-433.690	501.587	-0.168	0.387
-432.676	-3.019	-0.212	-0.147
-431.661	-78.914	-0.102	-0.034
-430.646	-72.306	-0.137	-0.051
-429.632	145.902	0.202	0.270
-428.617	-67.205	-0.026	0.010
-427.603	128.164	0.049	-0.062
-426.588	-177.419	-0.288	-0.007
-425.573	-200.000	0.050	-0.242
-424.559	-200.000	-0.045	0.426
-423.544	35.543	-0.159	-0.139
-422.530	-3.134	-0.241	0.168
-421.515	-200.000	-0.044	-0.225
-420.500	-120.642	-0.282	0.048
-419.486	50.656	0.103	0.097
-418.471	761.154	-0.105	-0.283
-417.457	-17.980	0.231	0.144
-416.442	-200.000	0.027	0.245
-415.428	149.537	0.155	0.210
-414.413	-200.000	0.027	-0.224
-413.398	27.584	0.138	0.116
-412.384	800.000	0.041	-0.126
-411.369	-200.000	-0.009	0.134
-410.355	-200.000	0.039	-0.442
-409.340	-81.038	0.207	-0.068
-408.325	-200.000	-0.011	0.155
-407.311	-200.000	0.000	-0.098
-406.296	800.000	-0.052	0.203
-405.282	-200.000	0.024	-0.225
-404.267	-57.242	0.156	-0.068
-403.252	191.487	0.077	-0.116
-402.238	12.743	0.068	0.052
-401.223	-200.000	0.018	-0.204
-400.209	-113.744	-0.242	0.047
-399.194	33.120	0.123	-0.106
-398.179	-200.000	0.036	-0.366
-397.165	-200.000	0.003	-0.183
-396.150	144.331	0.037	0.050
-395.136	-200.000	-0.055	-0.299
-394.121	63.409	-0.055	-0.055
-393.106	-77.058	-0.315	0.109
-392.092	299.465	0.156	-0.285
-391.077	123.518	-0.229	-0.286
-390.063	79.912	-0.065	-0.070
-389.048	-200.000	0.007	-0.247
-388.033	315.487	-0.171	-0.321
-387.019	101.619	-0.127	-0.147
-386.004	395.903	0.109	0.226
-384.990	112.986	-0.138	-0.166
-383.975	-112.015	0.253	-0.051
-382.960	-200.000	0.041	0.190
-381.946	-19.041	0.255	0.158
-380.931	-78.822	-0.092	0.031
-379.917	204.432	0.146	-0.226
-378.902	684.600	-0.141	-0.365
-377.888	44.731	0.105	0.096
-376.873	264.211	0.079	0.137
-375.858	192.035	0.177	0.266
-374.844	800.000	-0.055	0.200
-373.829	-80.446	-0.371	-0.123
-372.815	-49.346	-0.169	0.080
-371.800	-21.613	0.080	-0.048
-370.785	-200.000	-0.014	-0.101
-369.771	-200.000	0.018	-0.185
-368.756	800.000	-0.132	-0.369
-367.742	346.679	0.027	0.054
-366.727	51.531	0.056	0.053
-365.712	-129.207	0.296	0.041
-364.698	800.000	0.086	-0.265
-363.683	360.876	-0.047	-0.094
-362.669	562.014	-0.132	0.318
-361.654	800.000	0.087	0.265
-360.639	189.923	0.084	-0.125
-359.625	-39.952	-0.412	0.214
-358.610	800.000	0.008	0.029
-357.596	-75.558	-0.362	0.128
-356.581	-200.000	0.033	0.316
-355.566	-18.958	-0.178	0.110
-354.552	186.405	0.188	-0.278
-353.537	374.057	0.159	0.322
-352.523	-5.569	-0.209	0.142
-351.508	-143.765	-0.126	0.012
-350.493	-37.781	-0.215	0.114
-349.479	28.066	-0.130	-0.109
-348.464	-136.182	0.174	-0.020
-347.450	-200.000	0.049	-0.329
-346.435	115.807	0.158	0.192
-345.420	179.001	0.097	-0.141
-344.406	469.276	-0.158	0.353
-343.391	-35.873	0.156	-0.084
-342.377	70.732	0.255	-0.262
-341.362	153.816	-0.058	-0.080
-340.348	126.688	0.126	0.159
-339.333	54.135	0.104	-0.099
-338.318	-13.718	0.101	-0.065
-337.304	-70.657	0.192	-0.072
-336.289	10.482	-0.350	-0.265
-335.275	-89.988	0.354	0.102
-334.260	800.000	0.007	-0.023
-333.245	-200.000	0.024	0.000
-332.231	23.454	-0.222	-0.182
-331.216	-200.000	0.039	-0.275
-330.202	-83.340	0.378	-0.120
-329.187	800.000	-0.012	0.047
-328.172	437.876	0.075	-0.163
-327.158	102.481	0.325	-0.377
-326.143	800.000	0.073	0.208
-325.129	-200.000	0.057	-0.260
-324.114	379.338	0.145	0.295
-323.099	155.434	-0.060	-0.082
-322.085	-25.872	-0.281	-0.164
-321.070	-200.000	0.027	-0.121
-320.056	-79.361	-0.260	-0.087
-319.041	296.791	-0.138	0.250
-318.026	-200.000	-0.021	-0.281
-317.012	100.639	0.141	0.162
-315.997	-37.305	-0.229	0.121
-314.983	319.153	0.062	-0.117
-313.968	536.272	-0.069	0.163
-312.953	-134.200	-0.197	-0.024
-311.939	-27.070	0.295	0.170
-310.924	-89.754	-0.088	0.026
-309.910	-117.150	0.247	0.045
-308.895	-70.372	-0.084	0.032
-307.880	-200.000	-0.009	0.186
-306.866	-187.806	0.189	0.002
-305.851	-138.314	0.226	0.025
-304.837	-200.000	-0.027	0.298
-303.822	-23.293	0.311	-0.186
-302.807	800.000	-0.021	-0.057
-301.793	800.000	0.042	-0.171
-300.778	-173.191	-0.110	0.003
-299.764	86.150	0.106	-0.116
-298.749	-200.000	-0.004	-0.165
-297.735	-200.000	-0.019	0.293
-296.720	33.478	0.222	0.192
-295.705	38.752	0.183	0.162
-294.691	-41.991	0.186	-0.094
-293.676	77.311	0.052	-0.054
-292.662	-200.000	-0.025	-0.167
-291.647	-63.317	0.017	0.007
-290.632	-147.171	-0.289	-0.024
-289.618	-70.558	-0.119	-0.045
-288.603	-200.000	-0.009	0.129
-287.589	-200.000	0.030	-0.132
-286.574	-140.621	-0.101	0.010
-285.559	-134.621	0.333	0.040
-284.545	-200.000	-0.013	0.104
-283.530	-200.000	0.043	0.329
-282.516	-200.000	-0.020	0.279
-281.501	106.187	0.055	-0.065
-280.486	60.830	-0.082	-0.081
-279.472	-200.000	0.011	0.267
-278.457	43.694	-0.279	-0.253
-277.443	345.297	0.078	-0.152
-276.428	30.371	-0.244	-0.206
-275.413	-200.000	-0.046	0.243
-274.399	-90.242	-0.102	0.029
-273.384	-157.496	0.146	-0.009
-272.370	73.219	-0.205	-0.212
-271.355	196.067	0.128	-0.192
-270.340	260.101	0.091	-0.155
-269.326	800.000	0.073	-0.210
-268.311	178.578	-0.032	0.047
-267.297	-29.681	-0.269	-0.152
-266.282	184.515	0.087	-0.128
-265.267	2.247	-0.035	0.025
-264.253	-127.498	-0.599	-0.086
-263.238	21.310	-0.122	0.098
-262.224	-88.912	-0.093	-0.027
-261.209	-152.848	0.305	-0.021
-260.195	399.344	0.090	-0.187
-259.180	-200.000	-0.020	0.200
-258.165	-84.754	0.302	0.094
-257.151	-62.571	0.302	-0.124
-256.136	-3.520	-0.186	-0.128
-255.122	-200.000	0.006	0.084
-254.107	519.863	0.072	0.166
-253.092	800.000	0.033	0.140
-252.078	38.944	0.038	-0.033
-251.063	316.713	-0.085	-0.159
-250.049	-200.000	-0.037	0.161
-249.034	35.477	-0.063	-0.055
-248.019	-12.201	0.175	-0.113
-247.005	146.215	0.228	0.303
-245.990	-62.605	0.185	0.076
-244.976	-70.335	-0.134	0.050
-243.961	-116.675	0.169	0.031
-242.946	-32.116	0.472	0.261
-241.932	260.972	0.085	0.146
-240.917	800.000	-0.115	0.332
-239.903	258.402	-0.053	-0.090
-238.888	-106.816	0.097	0.021
-237.873	718.762	-0.130	0.342
-236.859	-30.238	0.331	0.186
-235.844	-136.012	0.257	0.030
-234.830	-175.085	-0.266	-0.007
-233.815	225.612	-0.042	-0.068
-232.800	-130.724	0.080	0.011
-231.786	-200.000	-0.025	-0.347
-230.771	333.226	-0.108	-0.207
-229.757	-57.476	0.400	0.174
-228.742	800.000	-0.011	-0.031
-227.727	-181.728	-0.191	-0.004
-226.713	-30.618	0.352	0.197
-225.698	-200.000	-0.046	0.281
-224.684	175.798	0.038	-0.055
-223.669	-66.571	0.245	-0.096
-222.655	-200.000	0.024	-0.230
-221.640	-53.998	0.466	0.209
-220.625	-104.250	-0.075	-0.017
-219.611	-200.000	0.054	-0.468
-218.596	-66.329	0.097	0.038
-217.582	457.693	-0.022	0.049
-216.567	-90.173	0.174	-0.050
-215.552	800.000	0.019	0.072
-214.538	19.131	-0.238	0.189
-213.523	-116.877	-0.077	0.014
-212.509	-194.958	-0.181	-0.001
-211.494	263.870	-0.118	-0.204
-210.479	1.707	-0.228	-0.162
-209.465	-200.000	-0.028	-0.225
-208.450	694.543	-0.019	-0.050
-207.436	138.059	0.051	0.066
-206.421	-71.376	-0.009	-0.003
-205.406	-200.000	0.012	0.158
-204.392	-148.961	0.229	0.018
-203.377	23.438	0.086	0.070
-202.363	800.000	-0.042	-0.167
-201.348	-115.273	0.218	-0.041
-200.333	13.225	0.093	-0.071
-199.319	148.717	0.118	-0.158
-198.304	-65.881	-0.073	-0.029
-197.290	-200.000	0.033	-0.542
-196.275	218.207	0.148	0.234
-195.260	223.223	0.039	-0.062
-194.246	-42.741	0.176	0.088
-193.231	-170.226	0.096	0.003
-192.217	96.758	-0.199	-0.225
-191.202	-200.000	-0.035	-0.377
-190.187	-87.040	0.231	-0.070
-189.173	-136.579	0.259	0.030
-188.158	318.925	-0.125	0.235
-187.144	9.971	0.223	-0.167
-186.129	9.604	-0.130	0.097
-185.114	-132.709	-0.229	0.029
-184.100	-200.000	0.016	-0.216
-183.085	-91.790	-0.236	-0.066
-182.071	800.000	0.022	0.095
-181.056	-114.991	0.057	-0.011
-180.042	708.467	-0.110	-0.287
-179.027	34.691	-0.094	0.081
-178.012	800.000	0.043	0.118
-176.998	58.138	-0.083	0.080
-175.983	28.201	0.222	-0.185
-174.969	-200.000	0.032	-0.163
-173.954	-22.344	-0.145	-0.087
-172.939	124.735	-0.132	0.164
-171.925	-200.000	-0.008	-0.135
-170.910	-22.348	-0.210	0.126
-169.896	157.399	-0.270	0.369
-168.881	-5.453	0.366	0.248
-167.866	-76.813	-0.248	-0.086
-166.852	-97.529	0.583	-0.149
-165.837	-14.813	0.291	-0.184
-164.823	35.935	-0.095	-0.082
-163.808	-2.870	0.213	0.147
-162.793	-36.594	-0.097	-0.052
-161.779	-21.080	0.148	-0.089
-160.764	-96.753	0.151	-0.039
-159.750	-0.703	0.240	0.168
-158.735	-200.000	-0.000	0.017
-157.720	58.027	-0.094	0.090
-156.706	597.108	0.095	-0.231
-155.691	290.934	0.134	-0.240
-154.677	-106.349	-0.099	-0.022
-153.662	-200.000	0.009	0.047
-152.647	-110.777	-0.363	0.074
-151.633	-145.870	0.183	0.016
-150.618	-200.000	-0.054	0.292
-149.604	-87.459	-0.261	0.078
-148.589	374.021	-0.252	-0.505
-147.574	210.388	0.233	-0.361
-146.560	-168.075	0.153	0.006
-145.545	208.377	0.078	0.121
-144.531	800.000	0.085	0.241
-143.516	299.871	0.309	-0.561
-142.502	49.035	-0.119	0.110
-141.487	48.756	-0.176	0.162
-140.472	-200.000	-0.029	0.167
-139.458	-200.000	0.005	-0.234
-138.443	17.740	-0.112	-0.088
-137.429	46.275	-0.131	0.120
-136.414	304.830	-0.217	0.397
-135.399	279.560	0.053	0.093
-134.385	563.367	-0.052	-0.124
-133.370	-200.000	0.026	0.140
-132.356	-146.421	0.239	-0.021
-131.341	184.831	0.037	-0.055
-130.326	-72.049	0.039	0.014
-129.312	-45.133	0.208	0.102
-128.297	609.761	-0.064	0.157
-127.283	-141.411	0.382	0.038
-126.268	-108.095	-0.427	0.091
-125.253	800.000	0.012	-0.049
-124.239	-200.000	-0.054	-0.381
-123.224	357.763	-0.096	-0.188
-122.210	-131.512	-0.379	-0.049
-121.195	-81.832	0.174	0.056
-120.180	-200.000	-0.069	0.387
-119.166	-3.843	0.325	0.222
-118.151	0.734	-0.319	-0.225
-117.137	-153.769	0.064	-0.004
-116.122	800.000	-0.067	0.198
-115.107	48.455	-0.081	0.075
-114.093	-116.164	0.391	-0.071
-113.078	-2.948	0.135	0.093
-112.064	-200.000	0.037	0.215
-111.049	142.943	-0.406	-0.531
-110.034	465.574	0.096	0.211
-109.020	800.000	-0.114	-0.447
-108.005	-14.519	-0.076	0.048
-106.991	-200.000	-0.117	0.576
-105.976	800.000	-0.089	-0.280
-104.962	2.407	-0.072	-0.051
-103.947	-51.070	-0.241	0.111
-102.932	-115.512	0.090	0.017
-101.918	-131.584	-0.205	-0.026
-100.903	123.097	0.187	-0.231
-99.889	-73.485	-0.237	0.085
-98.874	-19.557	0.216	-0.131
-97.859	-58.111	-0.057	-0.024
-96.845	-150.257	-0.326	0.025
-95.830	-95.094	-0.128	-0.034
-94.816	-13.831	-0.230	-0.146
-93.801	14.458	-0.237	0.182
-92.786	101.426	-0.183	-0.210
-91.772	-90.789	-0.488	-0.138
-90.757	800.000	0.018	0.060
-89.743	94.257	0.162	0.181
-88.728	-152.058	-0.123	-0.009
-87.713	22.827	0.057	-0.046
-86.699	-94.336	0.077	0.021
-85.684	323.193	-0.068	0.128
-84.670	-84.340	0.238	0.074
-83.655	800.000	0.085	0.275
-82.640	-200.000	0.021	-0.331
-81.626	53.577	-0.140	-0.132
-80.611	-195.931	0.271	0.002
-79.597	-2.282	0.344	0.237
-78.582	800.000	-0.043	-0.183
-77.567	470.857	0.072	-0.159
-76.553	-200.000	0.005	0.076
-75.538	122.950	0.136	-0.168
-74.524	259.840	0.077	-0.130
-73.509	-139.145	0.125	-0.013
-72.494	800.000	-0.075	0.210
-71.480	-138.390	-0.091	0.010
-70.465	-27.220	-0.128	-0.073
-69.451	-74.451	-0.091	0.032
-68.436	-116.346	0.054	0.010
-67.422	6.734	-0.059	0.043
-66.407	713.949	0.024	-0.062
-65.392	-131.327	-0.145	0.019
-64.378	-200.000	0.047	-0.263
-63.363	-46.221	-0.228	-0.110
-62.349	268.617	-0.108	0.185
-61.334	27.498	-1.092	-0.902
-60.319	-113.377	0.671	0.129
-59.305	800.000	-0.375	-1.315
-58.290	163.870	0.674	0.932
-57.276	224.142	0.947	1.502
-56.261	-200.000	99.347	605.304
-55.246	607.786	1397.645	3423.730
-54.232	193.262	2587.832	3842.421
-53.217	111.792	2272.455	2693.747
-52.203	40.818	1895.312	1678.693
-51.188	34.798	1683.927	1446.033
-50.173	32.104	1640.659	1388.929
-49.159	49.908	1689.841	1564.583
-48.144	51.353	1706.033	1590.349
-47.130	34.391	1665.206	1426.688
-46.115	31.569	1651.191	1393.639
-45.100	31.404	1646.136	1388.091
-44.086	31.285	1644.223	1385.547
-43.071	31.301	1641.637	1383.431
-42.057	31.350	1638.933	1381.458
-41.042	31.365	1636.831	1379.741
-40.027	31.274	1635.242	1377.678
-39.013	31.251	1633.036	1375.589
-37.998	31.223	1631.531	1374.066
-36.984	31.260	1630.606	1373.502
-35.969	31.384	1628.807	1372.845
-34.954	31.375	1627.352	1371.495
-33.940	31.365	1625.631	1369.918
-32.925	31.326	1624.182	1368.356
-31.911	31.397	1621.816	1366.829
-30.896	31.411	1620.450	1365.726
-29.881	31.415	1618.300	1363.888
-28.867	31.415	1617.115	1362.839
-27.852	31.405	1615.526	1361.371
-26.838	31.436	1614.124	1360.362
-25.823	31.352	1612.753	1358.538
-24.809	31.373	1611.695	1357.751
-23.794	31.398	1609.867	1356.332
-22.779	31.365	1608.637	1355.004
-21.765	31.332	1607.184	1353.487
-20.750	31.369	1605.967	1352.678
-19.736	31.441	1603.807	1351.324
-18.721	31.428	1602.509	1350.082
-17.706	31.416	1600.820	1348.519
-16.692	31.360	1599.604	1347.037
-15.677	31.251	1598.508	1345.279
-14.663	31.386	1596.867	1344.815
-13.648	31.420	1595.530	1343.878
-12.633	31.355	1594.359	1342.376
-11.619	31.470	1592.108	1341.251
-10.604	31.477	1591.000	1340.316
-9.590	31.409	1589.924	1338.864
-8.575	31.444	1588.457	1337.828
-7.560	31.377	1587.273	1336.300
-6.546	31.511	1586.510	1336.561
-5.531	31.408	1585.434	1334.865
-4.517	31.337	1583.999	1333.102
-3.502	31.396	1583.128	1332.735
-2.487	31.528	1581.047	1331.866
-1.473	31.099	1569.181	1318.792
-0.458	28.250	1550.043	1282.724
0.556	23.995	1550.106	1250.346
1.571	21.632	1573.302	1252.074
2.586	21.102	1585.956	1258.212
3.600	18.744	1532.736	1199.428
4.615	11.478	1426.256	1068.611
5.629	5.593	1364.706	985.454
6.644	4.680	1357.828	974.681
7.659	4.567	1356.658	973.048
8.673	4.468	1355.527	971.534
9.688	4.576	1353.769	970.859
10.702	4.521	1351.008	968.454
11.717	7.267	1356.194	989.243
12.731	14.305	1368.728	1042.504
13.746	18.868	1375.521	1076.229
14.761	18.832	1374.374	1075.009
15.775	17.899	1371.583	1066.905
16.790	16.641	1369.326	1057.196
17.804	15.879	1366.899	1050.481
18.819	15.557	1365.556	1047.347
19.834	15.297	1364.354	1044.713
20.848	15.054	1363.522	1042.469
21.863	14.804	1361.674	1039.406
22.877	14.798	1360.628	1038.483
23.892	14.725	1359.497	1037.072
24.907	14.650	1358.898	1036.059
25.921	14.681	1358.148	1035.584
26.936	14.749	1357.215	1035.203
27.950	14.768	1356.337	1034.561
28.965	14.817	1355.415	1034.072
29.980	14.912	1354.105	1033.568
30.994	14.981	1352.958	1033.025
32.009	15.046	1351.861	1032.499
33.023	15.095	1350.621	1031.758
34.038	14.973	1348.785	1029.520
35.053	14.857	1347.994	1028.109
36.067	14.983	1346.283	1027.489
37.082	14.930	1345.882	1026.761
38.096	14.927	1344.856	1025.873
39.111	14.914	1344.421	1025.368
40.126	14.746	1344.004	1023.929
41.140	14.693	1342.547	1022.404
42.155	14.675	1341.730	1021.581
43.169	14.586	1342.079	1021.215
44.184	14.582	1341.516	1020.672
45.199	14.617	1341.078	1020.459
46.213	14.642	1340.659	1020.203
47.228	14.883	1339.335	1020.579
48.242	14.798	1338.414	1019.265
49.257	14.788	1337.123	1018.130
50.271	14.711	1335.741	1016.524
51.286	14.751	1334.473	1015.709
52.301	14.839	1333.146	1015.146
53.315	14.782	1331.796	1013.685
54.330	14.812	1330.628	1012.883
55.344	14.733	1329.478	1011.440
56.359	14.648	1328.843	1010.353
57.374	14.543	1328.142	1009.098
58.388	14.556	1327.083	1008.280
59.403	14.549	1326.357	1007.597
60.417	14.459	1325.841	1006.574
61.432	14.551	1325.053	1006.440
62.447	14.492	1323.783	1005.033
63.461	14.468	1322.589	1003.893
64.476	14.471	1321.978	1003.355
65.490	14.490	1320.804	1002.493
66.505	14.576	1319.038	1001.582
67.520	14.539	1317.898	1000.403
68.534	14.487	1317.150	999.434
69.549	14.535	1316.334	999.013
70.563	14.507	1314.604	997.445
71.578	14.472	1313.789	996.529
72.593	14.359	1313.153	995.285
73.607	14.312	1312.319	994.282
74.622	14.392	1311.058	993.719
75.636	14.472	1310.761	993.883
76.651	14.505	1309.613	993.118
77.666	14.409	1309.431	992.322
78.680	14.389	1309.145	991.897
79.695	14.492	1308.191	991.699
80.709	14.508	1307.702	991.335
81.724	14.589	1306.878	991.104
82.739	14.691	1305.686	990.718
83.753	14.691	1305.083	990.175
84.768	14.842	1303.878	990.069
85.782	14.879	1303.365	989.811
86.797	14.823	1301.882	988.267
87.812	14.768	1300.907	987.113
88.826	14.737	1299.486	985.763
89.841	14.794	1298.525	985.285
90.855	14.938	1297.038	984.914
91.870	14.787	1297.132	984.011
92.884	14.872	1295.702	983.338
93.899	14.878	1295.362	983.030
94.914	14.969	1294.739	983.003
95.928	14.982	1293.278	981.882
96.943	14.867	1292.340	980.413
97.957	14.905	1291.551	979.947
98.972	14.906	1290.355	978.963
99.987	14.793	1289.419	977.505
101.001	14.873	1288.623	977.278
102.016	14.866	1287.361	976.194
103.030	14.869	1286.424	975.414
104.045	14.852	1285.653	974.648
105.060	14.807	1284.591	973.493
106.074	14.659	1283.116	971.426
107.089	14.499	1281.770	969.394
108.103	14.556	1280.544	968.709
109.118	14.523	1279.178	967.400
110.133	14.567	1277.694	966.445
111.147	14.565	1276.345	965.330
112.162	14.572	1275.715	964.811
113.176	14.694	1274.141	964.236
114.191	14.649	1273.322	963.274
115.206	14.709	1272.033	962.558
116.220	14.694	1270.903	961.532
117.235	14.576	1270.035	960.109
118.249	14.653	1268.932	959.636
119.264	14.734	1267.388	958.846
120.279	14.542	1266.815	957.229
121.293	14.600	1265.664	956.604
122.308	14.539	1264.267	955.113
123.322	14.477	1263.667	954.223
124.337	14.429	1262.732	953.157
125.352	14.574	1261.177	952.730
126.366	14.503	1260.445	951.688
127.381	14.527	1259.206	950.805
128.395	14.539	1258.138	949.980
129.410	14.541	1257.399	949.347
130.424	14.656	1256.461	949.209
131.439	14.618	1255.294	948.030
132.454	14.686	1254.359	947.623
133.468	14.673	1253.414	946.756
134.483	14.664	1253.085	946.372
135.497	14.692	1251.961	945.596
136.512	14.647	1251.004	944.535
137.527	14.741	1249.421	943.786
138.541	14.793	1247.836	942.799
139.556	14.779	1246.822	941.872
140.570	14.817	1245.907	941.312
141.585	14.891	1244.536	940.608
142.600	14.973	1243.507	940.207
143.614	14.943	1242.457	939.163
144.629	14.958	1241.554	938.479
145.643	14.898	1240.425	937.212
146.658	14.841	1239.148	935.841
147.673	14.715	1237.583	933.875
148.687	14.793	1236.413	933.346
149.702	14.730	1235.038	931.871
150.716	14.739	1233.858	930.949
151.731	14.787	1232.787	930.326
152.746	14.877	1230.866	929.293
153.760	14.796	1230.142	928.215
154.775	14.844	1229.484	927.901
155.789	14.928	1228.526	927.564
156.804	14.901	1227.552	926.599
157.819	14.854	1227.038	925.869
158.833	15.009	1225.469	925.460
159.848	15.044	1224.747	925.022
160.862	15.035	1223.581	924.013
161.877	14.944	1222.488	922.605
162.892	14.850	1221.711	921.416
163.906	14.843	1220.764	920.582
164.921	14.797	1220.087	919.740
165.935	14.856	1218.796	919.009
166.950	14.892	1218.025	918.541
167.964	14.909	1217.463	918.132
168.979	14.953	1217.236	918.117
169.994	15.041	1215.900	917.512
171.008	14.886	1215.395	916.204
172.023	15.094	1214.198	916.359
173.037	15.095	1213.903	916.061
174.052	15.144	1212.695	915.333
175.067	15.008	1211.597	913.683
176.081	14.975	1210.426	912.536
177.096	14.946	1209.532	911.624
178.110	15.003	1208.771	911.279
179.125	14.976	1207.640	910.202
180.140	15.089	1206.190	909.640
181.154	15.054	1204.751	908.287
182.169	15.178	1203.478	907.917
183.183	15.165	1202.940	907.359
184.198	15.198	1202.037	906.777
185.213	15.182	1201.076	905.888
186.227	15.330	1199.506	905.423
187.242	15.345	1198.361	904.559
188.256	15.401	1197.592	904.198
189.271	15.257	1196.928	902.845
190.286	15.299	1195.200	901.686
191.300	15.051	1194.739	899.922
192.315	14.965	1193.676	898.583
193.329	14.912	1193.210	897.865
194.344	15.176	1192.434	898.617
195.359	15.111	1192.243	898.048
196.373	15.196	1191.918	898.177
197.388	15.183	1191.654	897.829
198.402	15.300	1191.310	898.121
199.417	15.392	1190.704	898.078
200.432	15.472	1189.669	897.643
201.446	15.623	1188.609	897.570
202.461	15.593	1187.643	896.603
203.475	15.641	1186.798	896.139
204.490	15.480	1185.645	894.332
205.504	15.483	1183.852	892.918
206.519	15.584	1182.608	892.434
207.534	15.377	1181.998	890.796
208.548	15.432	1181.022	890.276
209.563	15.395	1180.367	889.504
210.577	15.498	1178.962	888.917
211.592	15.517	1178.645	888.696
212.607	15.618	1177.728	888.463
213.621	15.598	1176.590	887.420
214.636	15.639	1175.746	886.922
215.650	15.534	1175.067	885.777
216.665	15.756	1173.789	885.906
217.680	15.800	1173.312	885.697
218.694	15.789	1172.606	885.025
219.709	15.652	1171.903	883.699
220.723	15.684	1171.239	883.289
221.738	15.662	1170.259	882.355
222.753	15.657	1169.579	881.738
223.767	15.694	1168.913	881.351
224.782	15.851	1168.760	881.983
225.796	15.853	1168.003	881.343
226.811	15.849	1166.882	880.399
227.826	15.763	1166.308	879.436
228.840	15.643	1165.472	878.100
229.855	15.781	1164.451	877.975
230.869	15.737	1164.145	877.435
231.884	15.814	1162.964	876.869
232.899	15.716	1162.587	875.997
233.913	15.670	1161.666	874.984
234.928	15.638	1160.970	874.219
235.942	15.572	1160.356	873.339
236.957	15.773	1159.116	873.371
237.972	15.616	1158.904	872.319
238.986	15.669	1158.072	871.891
240.001	15.681	1157.591	871.511
241.015	15.753	1156.499	870.988
242.030	15.826	1155.700	870.682
243.045	15.922	1154.767	870.399
244.059	15.862	1154.332	869.684
245.074	15.819	1153.638	868.864
246.088	15.876	1152.625	868.319
247.103	15.968	1152.023	868.262
248.117	16.063	1151.430	868.230
249.132	16.034	1150.910	867.607
250.147	16.239	1149.879	867.811
251.161	16.298	1149.004	867.378
252.176	16.301	1148.621	867.027
253.190	16.312	1148.253	866.727
254.205	16.501	1147.198	866.822
255.220	16.432	1146.641	865.973
256.234	16.394	1146.006	865.220
257.249	16.530	1145.322	865.322
258.263	16.421	1144.931	864.393
259.278	16.377	1144.304	863.622
260.293	16.454	1143.782	863.545
261.307	16.590	1142.996	863.568
262.322	16.545	1142.305	862.741
263.336	16.549	1141.644	862.186
264.351	16.507	1141.485	861.773
265.366	16.556	1140.448	861.162
266.380	16.504	1139.770	860.312
267.395	16.460	1139.162	859.552
268.409	16.479	1138.497	859.071
269.424	16.506	1137.741	858.560
270.439	16.553	1137.001	858.165
271.453	16.502	1136.197	857.225
272.468	16.439	1135.172	856.058
273.482	16.400	1134.477	855.258
274.497	16.532	1134.228	855.663
275.512	16.512	1133.582	854.998
276.526	16.512	1132.484	854.096
277.541	16.487	1131.828	853.398
278.555	16.543	1131.300	853.209
279.570	16.597	1130.444	852.760
280.585	16.710	1129.421	852.482
281.599	16.734	1128.414	851.765
282.614	16.768	1127.660	851.291
283.628	16.686	1126.474	849.909
284.643	16.571	1125.949	848.864
285.657	16.671	1124.386	848.111
286.672	16.705	1124.225	848.082
287.687	16.581	1123.632	846.939
288.701	16.700	1122.452	846.570
289.716	16.786	1121.573	846.260
290.730	16.787	1120.684	845.520
291.745	16.871	1120.463	845.697
292.760	16.702	1119.686	844.194
293.774	16.814	1119.309	844.394
294.789	16.840	1118.719	844.003
295.803	16.832	1118.083	843.409
296.818	16.753	1116.979	842.110
297.833	16.904	1116.511	842.432
298.847	16.904	1115.749	841.784
299.862	16.833	1114.545	840.451
300.876	16.848	1114.309	840.271
301.891	16.917	1113.479	839.912
302.906	16.927	1113.298	839.750
303.920	16.931	1112.305	838.948
304.935	17.007	1111.927	838.963
305.949	17.141	1111.121	838.943
306.964	17.285	1109.994	838.727
307.979	17.158	1109.398	837.578
308.993	17.083	1108.920	836.771
310.008	17.169	1107.968	836.402
311.022	17.255	1107.291	836.243
312.037	17.224	1106.053	835.082
313.052	17.152	1105.435	834.188
314.066	16.967	1104.817	832.738
315.081	16.985	1103.960	832.109
316.095	16.999	1103.014	831.388
317.110	17.048	1102.453	831.133
318.125	17.021	1101.698	830.359
319.139	17.008	1101.062	829.740
320.154	17.031	1100.176	829.115
321.168	17.067	1099.856	828.973
322.183	17.137	1099.210	828.754
323.197	17.050	1098.466	827.699
324.212	17.038	1098.006	827.219
325.227	16.957	1098.006	826.750
326.241	17.175	1096.911	826.917
327.256	17.177	1095.771	825.993
328.270	17.120	1094.752	824.871
329.285	17.114	1094.118	824.292
330.300	17.173	1093.046	823.701
331.314	17.108	1092.274	822.731
332.329	17.215	1091.421	822.535
333.343	17.206	1090.728	821.893
334.358	17.246	1089.668	821.216
335.373	17.228	1089.198	820.702
336.387	17.308	1088.101	820.191
337.402	17.355	1087.544	819.924
338.416	17.416	1086.792	819.577
339.431	17.389	1086.316	819.014
340.446	17.479	1086.041	819.168
341.460	17.506	1085.212	818.601
342.475	17.615	1084.280	818.347
343.489	17.628	1083.367	817.651
344.504	17.727	1082.478	817.380
345.519	17.613	1082.034	816.429
346.533	17.642	1081.279	815.923
347.548	17.753	1080.177	815.550
348.562	17.715	1079.617	814.877
349.577	17.623	1079.018	813.912
350.592	17.507	1078.124	812.614
351.606	17.622	1077.246	812.427
352.621	17.489	1076.511	811.166
353.635	17.503	1075.913	810.712
354.650	17.427	1075.450	809.930
355.665	17.508	1074.572	809.580
356.679	17.535	1073.882	809.120
357.694	17.656	1073.196	809.106
358.708	17.661	1072.961	808.876
359.723	17.694	1071.860	808.135
360.738	17.797	1071.266	808.101
361.752	17.730	1071.037	807.541
362.767	17.733	1070.542	807.110
363.781	17.733	1069.916	806.568
364.796	17.888	1069.344	806.797
365.810	17.876	1068.671	806.159
366.825	18.020	1067.930	806.209
367.840	17.944	1067.635	805.556
368.854	18.091	1067.023	805.719
369.869	18.034	1066.363	804.879
370.883	18.009	1065.294	803.883
371.898	17.885	1064.548	802.667
372.913	17.990	1063.677	802.433
373.927	17.932	1063.556	801.997
374.942	17.984	1062.820	801.617
375.956	18.068	1062.378	801.606
376.971	18.046	1061.667	800.896
377.986	18.129	1061.347	800.970
379.000	18.209	1060.820	800.878
380.015	18.206	1060.363	800.447
381.029	18.351	1059.299	800.252
382.044	18.301	1058.746	799.531
383.059	18.277	1057.705	798.558
384.073	18.280	1057.170	798.099
385.088	18.261	1056.110	797.139
386.102	18.172	1055.760	796.390
387.117	18.216	1054.764	795.776
388.132	18.174	1053.586	794.621
389.146	18.174	1052.675	793.863
390.161	18.053	1052.258	792.918
391.175	18.173	1051.407	792.759
392.190	18.167	1050.719	792.143
393.205	18.335	1050.130	792.405
394.219	18.215	1049.744	791.491
395.234	18.226	1048.480	790.520
396.248	18.102	1047.745	789.323
397.263	18.307	1046.394	789.182
398.278	18.233	1045.692	788.237
399.292	18.227	1045.006	787.625
400.307	18.177	1044.180	786.701
401.321	18.169	1043.854	786.351
402.336	18.148	1043.397	785.840
403.350	18.260	1042.108	785.313
404.365	18.144	1042.011	784.639
405.380	18.321	1041.046	784.653
406.394	18.259	1040.359	783.781
407.409	18.386	1039.701	783.798
408.423	18.385	1039.145	783.307
409.438	18.544	1038.212	783.261
410.453	18.558	1037.846	782.980
411.467	18.669	1036.922	782.720
412.482	18.771	1036.299	782.644
413.496	18.741	1035.363	781.730
414.511	18.614	1035.097	780.884
415.526	18.770	1034.512	781.080
416.540	18.746	1034.320	780.760
417.555	18.692	1033.908	780.133
418.569	18.697	1033.096	779.475
419.584	18.681	1032.699	779.033
420.599	18.759	1032.010	778.800
421.613	150.656	1401.661	1795.177
422.628	137.473	1455.544	1795.255
