DTS Sentinel unit serial number:	SN413079Multiplexer serial number:	ORYXHardware model number:	OX4-SRSoftware version number:	ORYX F/W v4.00 Oryx Data Collector v3.7.2.0data status	okinstallation	princeton_trtdifferential loss correction	single-endedforward channel	channel 2reverse channel	N/Adate	2019/09/18time	14:51:34forward acquisition time	60.00reverse acquisition time	0.00gamma	496.2192k internal	0.2318k external	0.2318temperature offset calibration	1.0003default loss term (dB/km)	0.3790temperature slope calibration	1.0000multiplexer offset coefficient	1.0000multiplexer slope coefficient	1.0000fibre end	0.00T internal ref (°C)	35.12T ext. ref 1 (°C)	0.73T ext. ref 2 (°C)	31.15length (m)	temperature (°C)	Stokes	anti-Stokes-747.200	-200.000	0.010	-0.255
-746.185	39.401	-0.194	0.176
-745.171	466.656	-0.047	-0.107
-744.156	-200.000	0.044	0.253
-743.142	800.000	-0.032	-0.129
-742.127	236.125	0.172	0.288
-741.112	-47.509	0.309	0.152
-740.098	272.584	0.272	0.485
-739.083	98.478	-0.169	-0.197
-738.069	800.000	0.064	0.274
-737.054	-96.775	-0.115	0.031
-736.039	26.383	0.344	0.291
-735.025	5.082	0.136	-0.101
-734.010	-21.152	0.376	0.233
-732.996	7.525	-0.260	0.197
-731.981	-64.119	-0.173	-0.071
-730.966	800.000	-0.057	0.217
-729.952	-19.429	-0.170	-0.107
-728.937	130.450	-0.147	-0.191
-727.923	163.966	0.146	-0.208
-726.908	305.835	0.108	-0.203
-725.894	118.294	-0.105	-0.131
-724.879	-38.628	-0.237	-0.126
-723.864	-132.974	0.237	0.030
-722.850	800.000	0.034	-0.122
-721.835	-16.686	0.085	0.054
-720.821	-59.775	-0.205	-0.089
-719.806	574.053	-0.052	-0.129
-718.791	-7.784	-0.270	0.184
-717.777	-10.209	-0.199	0.134
-716.762	-158.687	0.280	0.016
-715.748	87.904	0.045	-0.050
-714.733	278.009	-0.104	-0.187
-713.718	42.571	-0.125	-0.115
-712.704	-6.562	0.315	0.217
-711.689	-144.465	0.406	-0.038
-710.675	293.065	-0.265	-0.489
-709.660	5.053	0.152	0.113
-708.645	326.603	-0.117	0.226
-707.631	-119.798	-0.128	-0.022
-706.616	13.170	-0.086	0.067
-705.602	-25.120	0.304	-0.182
-704.587	-200.000	-0.042	-0.343
-703.572	32.361	0.157	-0.137
-702.558	-200.000	-0.000	-0.070
-701.543	-95.449	0.205	0.056
-700.529	205.070	0.017	-0.027
-699.514	-141.699	-0.069	0.007
-698.499	-114.105	-0.318	0.062
-697.485	-200.000	-0.001	0.246
-696.470	532.049	-0.103	-0.247
-695.456	-92.355	0.270	0.077
-694.441	-2.558	0.307	-0.217
-693.426	800.000	0.110	-0.345
-692.412	-31.865	-0.176	0.100
-691.397	-15.400	0.137	-0.088
-690.383	64.917	-0.146	-0.149
-689.368	-157.966	-0.142	0.008
-688.354	-79.552	-0.116	0.040
-687.339	193.258	0.098	0.150
-686.324	800.000	-0.062	-0.261
-685.310	-81.287	-0.148	0.049
-684.295	647.820	-0.095	0.246
-683.281	71.593	-0.205	-0.215
-682.266	-174.400	-0.197	0.006
-681.251	-200.000	0.014	-0.146
-680.237	-200.000	-0.005	-0.186
-679.222	-49.312	0.169	-0.082
-678.208	51.535	0.191	0.183
-677.193	800.000	0.040	0.161
-676.178	164.242	0.254	-0.361
-675.164	-39.580	0.216	-0.114
-674.149	163.742	0.171	0.243
-673.135	-59.631	-0.407	-0.176
-672.120	7.026	-0.248	0.186
-671.105	-135.550	-0.204	-0.024
-670.091	-179.053	-0.061	-0.001
-669.076	-101.715	0.314	0.077
-668.062	31.853	0.153	0.133
-667.047	-24.985	-0.100	0.060
-666.032	-16.290	0.140	0.089
-665.018	63.194	0.196	0.199
-664.003	92.480	-0.226	0.257
-662.989	800.000	-0.077	-0.280
-661.974	-29.187	-0.120	-0.069
-660.959	778.608	0.097	-0.267
-659.945	372.674	-0.085	0.175
-658.930	114.673	-0.086	0.106
-657.916	-145.084	-0.101	0.009
-656.901	-49.013	-0.202	-0.097
-655.886	103.063	-0.069	0.082
-654.872	50.816	-0.320	0.305
-653.857	-148.352	0.298	-0.025
-652.843	-81.308	0.291	-0.097
-651.828	-122.677	-0.067	0.011
-650.814	-142.072	-0.516	0.052
-649.799	-200.000	-0.015	-0.110
-648.784	-30.815	0.137	0.078
-647.770	-175.640	0.165	-0.005
-646.755	-200.000	-0.077	-0.408
-645.741	-30.766	0.145	0.083
-644.726	484.799	0.059	-0.136
-643.711	-96.693	-0.294	0.078
-642.697	800.000	0.092	-0.265
-641.682	-62.071	0.191	-0.080
-640.668	-100.137	-0.267	0.067
-639.653	-200.000	0.089	0.424
-638.638	-200.000	0.021	-0.299
-637.624	68.321	0.202	-0.209
-636.609	-60.483	-0.083	-0.036
-635.595	42.628	0.374	-0.343
-634.580	728.270	-0.041	-0.112
-633.565	-99.293	0.160	0.041
-632.551	-67.146	0.354	-0.141
-631.536	591.447	0.065	0.163
-630.522	-167.254	0.324	-0.013
-629.507	539.677	0.047	-0.113
-628.492	-49.388	0.158	0.076
-627.478	-200.000	-0.070	0.489
-626.463	-12.348	0.210	0.138
-625.449	270.187	0.073	0.129
-624.434	-200.000	0.033	-0.253
-623.419	-200.000	-0.007	0.149
-622.405	-200.000	0.017	0.329
-621.390	-177.211	-0.306	0.008
-620.376	763.280	0.082	-0.224
-619.361	-12.709	-0.151	0.099
-618.346	-62.895	-0.033	0.014
-617.332	588.164	0.060	-0.150
-616.317	800.000	-0.087	0.295
-615.303	128.881	0.221	0.283
-614.288	-200.000	-0.002	0.049
-613.273	-32.169	0.106	0.059
-612.259	-79.509	0.308	0.105
-611.244	152.979	-0.073	-0.100
-610.230	-200.000	0.006	-0.119
-609.215	-22.200	0.293	-0.179
-608.201	-46.206	-0.343	-0.170
-607.186	-128.223	-0.157	-0.023
-606.171	-200.000	0.017	-0.146
-605.157	337.124	-0.231	-0.451
-604.142	-146.414	-0.089	0.008
-603.128	-105.784	0.134	-0.030
-602.113	-156.869	-0.190	-0.012
-601.098	-39.907	-0.282	0.148
-600.084	-200.000	0.001	0.312
-599.069	-200.000	-0.003	0.178
-598.055	109.033	0.103	0.124
-597.040	-106.751	0.134	-0.030
-596.025	-200.000	0.003	0.171
-595.011	2.736	-0.207	0.151
-593.996	463.318	0.107	0.240
-592.982	-200.000	0.008	0.264
-591.967	103.646	0.175	-0.207
-590.952	342.864	0.128	0.253
-589.938	-110.165	0.348	-0.073
-588.923	157.938	-0.096	-0.134
-587.909	-104.773	0.124	0.029
-586.894	800.000	0.054	-0.218
-585.879	24.590	-0.379	-0.316
-584.865	61.475	-0.240	-0.240
-583.850	-40.970	-0.318	0.166
-582.836	96.203	-0.200	-0.230
-581.821	-199.359	-0.476	0.003
-580.806	800.000	0.079	0.297
-579.792	-200.000	-0.037	-0.183
-578.777	-98.219	0.259	0.067
-577.763	1.727	0.211	0.153
-576.748	-43.416	-0.209	-0.106
-575.733	785.708	0.054	0.149
-574.719	-200.000	0.055	-0.357
-573.704	-32.215	-0.278	0.156
-572.690	-200.000	0.016	0.116
-571.675	13.191	-0.097	-0.075
-570.661	-60.891	-0.254	-0.108
-569.646	-168.270	0.149	-0.006
-568.631	800.000	0.077	-0.315
-567.617	-200.000	-0.039	-0.229
-566.602	-200.000	-0.103	-0.624
-565.588	168.879	-0.264	0.379
-564.573	52.326	0.099	-0.095
-563.558	92.622	0.201	-0.228
-562.544	-110.740	-0.338	0.070
-561.529	115.961	-0.138	0.170
-560.515	562.688	0.014	0.033
-559.500	-2.961	-0.130	0.091
-558.485	-45.728	0.237	0.118
-557.471	224.489	0.175	-0.284
-556.456	-102.101	-0.172	0.042
-555.442	-38.817	0.069	0.036
-554.427	103.520	0.282	-0.333
-553.412	-65.272	0.392	0.158
-552.398	-12.934	-0.275	0.180
-551.383	-84.679	-0.307	0.097
-550.369	-200.000	-0.038	-0.173
-549.354	39.157	-0.233	0.209
-548.339	528.157	0.116	-0.274
-547.325	120.686	-0.060	0.075
-546.310	-7.027	0.154	-0.105
-545.296	42.538	-0.109	0.100
-544.281	-6.128	0.243	0.166
-543.266	220.650	-0.136	0.219
-542.252	-200.000	0.033	-0.202
-541.237	214.710	-0.194	0.308
-540.223	-200.000	0.036	0.305
-539.208	404.666	0.117	0.248
-538.193	-154.280	0.268	-0.018
-537.179	-200.000	0.032	-0.149
-536.164	-29.877	0.084	-0.048
-535.150	-75.062	-0.081	0.029
-534.135	-200.000	-0.011	-0.341
-533.121	-200.000	0.000	-0.156
-532.106	54.672	0.188	-0.182
-531.091	17.271	-0.078	0.062
-530.077	-136.206	0.037	-0.004
-529.062	232.679	0.115	-0.190
-528.048	377.430	-0.043	0.088
-527.033	63.009	0.237	0.238
-526.018	145.359	-0.054	0.073
-525.004	-83.865	0.156	0.050
-523.989	-74.194	0.047	-0.017
-522.975	-10.509	-0.187	-0.124
-521.960	552.185	0.134	-0.322
-520.945	669.057	0.006	0.016
-519.931	361.221	0.095	0.191
-518.916	-200.000	0.035	-0.188
-517.902	111.239	0.148	0.178
-516.887	-45.290	-0.198	-0.098
-515.872	225.164	0.027	-0.045
-514.858	62.365	-0.149	0.149
-513.843	-86.083	0.109	0.034
-512.829	-200.000	0.002	-0.082
-511.814	-94.560	0.284	-0.078
-510.799	424.794	0.059	-0.128
-509.785	-200.000	0.003	-0.102
-508.770	132.650	-0.156	-0.202
-507.756	109.843	0.136	-0.163
-506.741	24.450	0.047	-0.039
-505.726	-34.592	-0.151	0.083
-504.712	-121.767	0.367	-0.061
-503.697	-200.000	0.003	-0.268
-502.683	-200.000	0.000	0.220
-501.668	-74.650	0.183	-0.066
-500.653	-140.257	0.033	-0.003
-499.639	-143.579	-0.156	-0.015
-498.624	800.000	0.032	0.106
-497.610	24.410	0.217	-0.180
-496.595	35.240	0.178	0.156
-495.581	-174.682	0.363	0.010
-494.566	56.243	0.053	-0.051
-493.551	-200.000	0.041	-0.193
-492.537	-56.021	-0.395	-0.176
-491.522	280.618	0.038	-0.069
-490.508	-137.205	-0.159	-0.018
-489.493	632.230	0.074	-0.188
-488.478	113.060	0.208	0.253
-487.464	315.660	0.159	-0.300
-486.449	-46.058	0.051	-0.025
-485.435	136.109	-0.045	-0.059
-484.420	-94.992	0.277	-0.075
-483.405	153.692	0.180	0.246
-482.391	800.000	0.077	0.309
-481.376	7.746	-0.344	-0.258
-480.362	-4.604	0.227	-0.157
-479.347	-200.000	0.024	-0.194
-478.332	-76.490	0.299	0.105
-477.318	32.611	0.152	0.132
-476.303	16.767	-0.175	-0.139
-475.289	42.772	-0.117	0.107
-474.274	-69.176	-0.207	0.080
-473.259	454.511	0.051	-0.114
-472.245	-30.372	0.096	-0.055
-471.230	-200.000	0.040	0.305
-470.216	-47.643	0.129	0.062
-469.201	-31.234	-0.495	0.279
-468.186	-200.000	0.082	0.413
-467.172	151.900	0.027	0.036
-466.157	-57.843	-0.171	-0.075
-465.143	-200.000	-0.012	-0.521
-464.128	459.094	0.082	-0.184
-463.113	42.538	0.181	-0.164
-462.099	-110.083	-0.258	-0.054
-461.084	31.079	-0.335	-0.287
-460.070	-116.772	0.314	-0.058
-459.055	-146.045	0.144	0.013
-458.040	800.000	-0.037	-0.151
-457.026	371.235	0.111	-0.224
-456.011	367.032	0.092	-0.185
-454.997	-11.937	-0.190	-0.124
-453.982	213.111	0.201	-0.317
-452.968	-14.863	-0.180	-0.116
-451.953	288.942	0.205	-0.371
-450.938	-45.277	0.218	0.108
-449.924	214.824	-0.165	-0.262
-448.909	-200.000	0.055	0.275
-447.895	109.555	0.163	0.196
-446.880	95.086	0.239	-0.273
-445.865	800.000	-0.012	0.049
-444.851	-200.000	-0.036	0.390
-443.836	-142.426	-0.306	-0.030
-442.822	800.000	-0.073	-0.209
-441.807	-104.578	-0.233	0.054
-440.792	-158.304	-0.070	0.004
-439.778	-2.278	0.119	-0.084
-438.763	-61.410	-0.060	-0.025
-437.749	-200.000	-0.007	0.257
-436.734	800.000	0.086	0.276
-435.719	-200.000	0.011	-0.098
-434.705	-200.000	0.015	-0.134
-433.690	-200.000	0.033	-0.251
-432.676	-200.000	-0.004	-0.200
-431.661	-200.000	0.123	0.557
-430.646	35.767	0.088	-0.077
-429.632	-200.000	-0.009	0.079
-428.617	241.879	0.056	-0.093
-427.603	28.725	0.170	0.144
-426.588	205.458	0.191	0.297
-425.573	86.124	-0.207	-0.228
-424.559	306.162	0.079	-0.146
-423.544	-46.198	-0.222	-0.109
-422.530	-200.000	-0.073	-0.378
-421.515	-200.000	-0.002	-0.114
-420.500	-116.596	0.217	-0.040
-419.486	299.556	0.047	0.086
-418.471	107.530	-0.076	-0.091
-417.457	-65.163	0.266	-0.107
-416.442	238.989	0.138	-0.229
-415.428	405.745	0.080	-0.169
-414.413	452.965	0.077	0.171
-413.398	105.237	0.128	0.151
-412.384	-200.000	0.081	0.375
-411.369	-65.526	-0.284	-0.114
-410.355	-200.000	-0.012	0.104
-409.340	625.814	0.096	0.241
-408.325	-57.299	-0.187	-0.082
-407.311	-114.537	0.181	-0.035
-406.296	-61.092	0.293	-0.124
-405.282	69.863	-0.181	0.186
-404.267	-147.641	-0.041	-0.003
-403.252	-20.973	-0.135	-0.082
-402.238	82.621	-0.117	0.127
-401.223	0.041	0.145	0.103
-400.209	368.712	-0.079	-0.159
-399.194	299.304	-0.126	-0.232
-398.179	157.311	-0.200	0.276
-397.165	800.000	0.107	-0.421
-396.150	-121.526	0.313	-0.052
-395.136	-19.306	0.078	-0.048
-394.121	-200.000	0.006	0.295
-393.106	7.215	-0.074	0.055
-392.092	-116.326	-0.366	0.068
-391.077	-34.164	-0.111	-0.061
-390.063	384.637	0.059	0.122
-389.048	-56.182	-0.085	0.038
-388.033	172.884	0.066	0.095
-387.019	218.488	0.166	-0.265
-386.004	-200.000	-0.028	0.236
-384.990	217.932	0.238	-0.379
-383.975	-125.118	0.318	-0.049
-382.960	296.575	-0.163	-0.299
-381.946	-160.640	-0.058	0.003
-380.931	354.866	-0.074	-0.147
-379.917	800.000	-0.088	0.304
-378.902	-42.929	0.052	0.026
-377.888	-143.698	-0.402	-0.038
-376.873	338.859	0.072	0.141
-375.858	12.330	0.141	-0.108
-374.844	800.000	-0.076	0.223
-373.829	-36.683	-0.152	-0.081
-372.815	-66.042	-0.343	0.136
-371.800	143.687	-0.223	0.296
-370.785	53.269	-0.196	0.187
-369.771	136.830	0.182	-0.237
-368.756	-31.097	0.309	-0.174
-367.742	-200.000	-0.002	0.142
-366.727	-36.300	0.096	-0.051
-365.712	155.300	0.124	-0.170
-364.698	121.302	-0.039	-0.048
-363.683	-200.000	0.008	-0.185
-362.669	800.000	-0.035	-0.109
-361.654	-127.858	-0.138	0.020
-360.639	-200.000	0.024	0.290
-359.625	-114.973	-0.446	-0.085
-358.610	-200.000	-0.017	-0.366
-357.596	-84.737	-0.204	-0.064
-356.581	75.433	0.196	-0.206
-355.566	-66.470	-0.059	-0.023
-354.552	-70.199	-0.340	-0.129
-353.537	-128.786	-0.101	-0.014
-352.523	3.682	-0.179	-0.130
-351.508	55.585	0.011	-0.011
-350.493	800.000	-0.069	-0.200
-349.479	-97.879	0.113	-0.029
-348.464	-172.766	0.267	0.008
-347.450	-128.946	-0.290	0.041
-346.435	126.093	0.175	0.220
-345.420	-30.365	-0.136	0.077
-344.406	-48.954	-0.133	0.063
-343.391	-22.208	-0.386	0.233
-342.377	121.269	-0.078	0.097
-341.362	-93.955	-0.155	-0.042
-340.348	-53.831	-0.080	-0.037
-339.333	-67.959	0.176	0.068
-338.318	-87.753	-0.326	0.098
-337.304	-102.966	-0.140	0.033
-336.289	503.233	-0.137	-0.316
-335.275	-200.000	-0.035	-0.222
-334.260	800.000	0.094	-0.315
-333.245	46.965	-0.277	0.257
-332.231	-200.000	-0.028	0.174
-331.216	191.525	0.191	0.287
-330.202	281.406	-0.111	0.198
-329.187	-18.367	0.147	-0.091
-328.172	-200.000	-0.014	0.073
-327.158	587.426	0.068	-0.167
-326.143	56.986	0.122	0.119
-325.129	-200.000	-0.035	0.214
-324.114	210.325	-0.305	0.476
-323.099	-32.858	-0.122	0.067
-322.085	207.976	-0.130	-0.202
-321.070	399.687	-0.057	-0.120
-320.056	-32.946	-0.091	0.050
-319.041	419.101	-0.079	0.167
-318.026	-200.000	-0.030	0.610
-317.012	800.000	-0.156	0.496
-315.997	8.513	-0.153	-0.114
-314.983	199.669	-0.057	0.086
-313.968	800.000	0.049	0.159
-312.953	800.000	-0.002	-0.010
-311.939	800.000	0.085	0.325
-310.924	33.298	0.188	-0.162
-309.910	-200.000	0.024	-0.287
-308.895	-200.000	-0.001	-0.069
-307.880	-200.000	-0.012	-0.272
-306.866	-200.000	0.027	0.205
-305.851	305.733	-0.088	-0.163
-304.837	572.138	0.050	-0.120
-303.822	-200.000	0.038	0.175
-302.807	76.461	-0.094	-0.099
-301.793	-194.802	-0.421	0.003
-300.778	-52.076	-0.310	0.143
-299.764	-200.000	-0.022	-0.189
-298.749	-22.819	0.175	-0.105
-297.735	800.000	0.039	-0.127
-296.720	-171.346	0.340	-0.011
-295.705	-40.999	-0.050	0.026
-294.691	305.216	0.106	-0.195
-293.676	37.355	-0.193	-0.170
-292.662	-200.000	0.062	0.348
-291.647	83.147	-0.263	0.284
-290.632	-151.489	-0.239	0.018
-289.618	-84.681	0.235	-0.074
-288.603	-200.000	-0.024	-0.150
-287.589	356.069	0.144	0.285
-286.574	-49.987	0.180	-0.085
-285.559	-192.927	0.099	0.001
-284.545	656.907	-0.077	0.196
-283.530	600.587	0.149	0.367
-282.516	800.000	0.061	0.231
-281.501	476.197	0.103	-0.231
-280.486	-200.000	0.053	0.252
-279.472	-88.833	0.057	0.017
-278.457	-66.882	0.173	-0.068
-277.443	-200.000	-0.029	-0.147
-276.428	-69.344	-0.380	-0.145
-275.413	-131.191	-0.222	-0.029
-274.399	6.804	-0.131	0.097
-273.384	44.334	0.169	0.155
-272.370	-115.356	0.155	-0.029
-271.355	-60.694	-0.192	-0.081
-270.340	-200.000	0.011	0.167
-269.326	-91.870	-0.243	-0.069
-268.311	174.427	-0.147	0.212
-267.297	-102.578	-0.010	-0.002
-266.282	17.543	-0.187	-0.148
-265.267	117.924	0.276	0.338
-264.253	-200.000	0.030	-0.403
-263.238	59.010	0.157	-0.153
-262.224	-200.000	0.031	0.221
-261.209	-120.679	0.238	0.040
-260.195	-169.443	0.136	-0.005
-259.180	-200.000	-0.005	-0.478
-258.165	-75.828	0.275	-0.097
-257.151	-13.571	0.156	0.100
-256.136	-200.000	-0.121	0.000
-255.122	-200.000	-0.050	0.481
-254.107	8.138	-0.154	0.115
-253.092	123.685	-0.077	0.096
-252.078	-173.309	0.431	0.013
-251.063	23.866	0.211	-0.173
-250.049	-200.000	0.002	0.107
-249.034	-81.966	0.305	0.099
-248.019	359.612	-0.127	-0.252
-247.005	196.057	-0.016	0.024
-245.990	-18.693	-0.266	-0.164
-244.976	291.286	-0.124	0.224
-243.961	125.429	0.210	0.263
-242.946	338.892	0.170	-0.328
-241.932	349.459	-0.012	0.024
-240.917	-39.498	-0.143	0.074
-239.903	-131.709	-0.515	0.067
-238.888	-200.000	-0.080	-0.459
-237.873	104.098	0.174	-0.203
-236.859	-200.000	0.007	0.101
-235.844	-29.577	0.329	0.187
-234.830	322.654	0.128	0.242
-233.815	-137.467	-0.362	-0.041
-232.800	17.837	-0.236	-0.187
-231.786	-75.836	-0.068	-0.024
-230.771	-200.000	0.049	-0.374
-229.757	-69.527	0.189	0.072
-228.742	75.065	0.087	-0.091
-227.727	-147.446	0.249	0.021
-226.713	75.599	0.174	0.182
-225.698	-200.000	0.002	-0.106
-224.684	-200.000	0.030	0.363
-223.669	170.903	0.159	0.226
-222.655	-42.416	0.174	0.088
-221.640	304.773	0.179	0.330
-220.625	13.925	0.288	0.222
-219.611	-87.456	-0.301	-0.090
-218.596	65.587	-0.324	-0.325
-217.582	-3.937	-0.222	0.152
-216.567	800.000	-0.054	-0.171
-215.552	460.484	-0.103	0.227
-214.538	-118.258	0.441	0.078
-213.523	0.830	0.159	-0.113
-212.509	10.937	-0.079	0.059
-211.494	209.737	0.133	-0.206
-210.479	-200.000	-0.018	0.438
-209.465	38.836	-0.160	-0.141
-208.450	-28.072	-0.131	0.075
-207.436	-132.584	-0.306	-0.039
-206.421	166.235	0.049	0.069
-205.406	285.428	0.263	0.471
-204.392	-49.956	-0.204	-0.096
-203.377	450.903	-0.204	0.447
-202.363	22.100	0.265	0.214
-201.348	-138.602	-0.297	-0.032
-200.333	-5.992	0.155	0.105
-199.319	-177.205	0.104	-0.003
-198.304	152.099	-0.318	0.429
-197.290	68.138	0.028	0.029
-196.275	288.535	-0.143	-0.257
-195.260	727.578	0.103	0.273
-194.246	-200.000	-0.030	0.353
-193.231	238.113	-0.167	0.274
-192.217	-44.060	0.188	0.093
-191.202	722.630	0.103	0.270
-190.187	632.393	-0.045	0.112
-189.173	400.580	-0.079	-0.165
-188.158	13.041	-0.110	0.084
-187.144	-111.765	-0.111	-0.022
-186.129	-37.281	0.136	0.072
-185.114	-93.572	-0.235	-0.064
-184.100	-83.461	-0.185	0.059
-183.085	-46.427	0.061	-0.029
-182.071	-55.591	0.151	-0.067
-181.056	-32.925	-0.187	0.103
-180.042	-125.186	0.381	0.058
-179.027	800.000	-0.068	0.227
-178.012	-200.000	0.015	-0.140
-176.998	582.727	0.111	0.270
-175.983	-200.000	-0.003	0.051
-174.969	32.957	0.070	-0.060
-173.954	-143.075	-0.179	-0.017
-172.939	-200.000	0.007	0.104
-171.925	-65.330	-0.336	0.134
-170.910	-83.325	0.200	0.064
-169.896	49.801	0.091	-0.085
-168.881	-14.175	0.088	0.056
-167.866	800.000	0.074	0.285
-166.852	-116.138	0.131	-0.024
-165.837	-161.201	-0.196	-0.010
-164.823	-37.717	-0.235	-0.124
-163.808	140.363	0.133	-0.173
-162.793	-200.000	-0.016	-0.201
-161.779	54.827	-0.198	-0.189
-160.764	175.287	0.029	-0.042
-159.750	-200.000	-0.002	0.122
-158.735	177.269	0.076	0.110
-157.720	429.065	0.154	-0.330
-156.706	315.957	-0.308	-0.576
-155.691	131.815	0.157	-0.199
-154.677	-105.664	0.399	-0.089
-153.662	-33.314	-0.073	-0.040
-152.647	-192.711	-0.398	-0.004
-151.633	2.448	-0.259	-0.185
-150.618	-93.536	-0.342	-0.094
-149.604	14.337	0.125	-0.096
-148.589	-200.000	0.040	-0.287
-147.574	16.150	-0.110	0.086
-146.560	-116.091	0.024	-0.005
-145.545	339.556	-0.102	-0.197
-144.531	-76.697	0.064	0.022
-143.516	173.790	0.035	0.050
-142.502	-130.825	0.127	-0.017
-141.487	-155.040	0.366	-0.024
-140.472	-200.000	0.043	-0.206
-139.458	382.574	-0.093	-0.189
-138.443	-112.658	0.255	0.050
-137.429	-126.015	-0.397	0.059
-136.414	1.532	0.057	-0.040
-135.399	4.977	0.120	-0.088
-134.385	-47.538	-0.325	0.156
-133.370	103.055	0.083	0.096
-132.356	295.460	0.051	0.093
-131.341	45.073	0.115	0.105
-130.326	-30.099	0.044	-0.025
-129.312	-141.004	0.256	0.026
-128.297	94.139	-0.193	0.217
-127.283	-200.000	-0.055	0.305
-126.268	128.965	0.158	0.199
-125.253	24.617	0.135	-0.111
-124.239	106.435	0.260	0.305
-123.224	-200.000	0.015	-0.078
-122.210	85.825	-0.056	-0.060
-121.195	-65.648	0.241	-0.095
-120.180	-11.939	0.324	0.210
-119.166	-67.582	0.134	0.052
-118.151	-145.784	-0.196	-0.017
-117.137	352.860	-0.051	0.099
-116.122	-111.342	0.231	-0.046
-115.107	-72.756	0.208	-0.076
-114.093	30.133	0.261	-0.220
-113.078	-200.000	-0.102	-0.486
-112.064	-73.856	0.357	0.128
-111.049	329.897	0.108	-0.205
-110.034	63.409	0.156	0.155
-109.020	20.521	0.355	0.283
-108.005	210.167	0.156	0.241
-106.991	800.000	0.060	0.197
-105.976	150.625	-0.051	0.069
-104.962	721.673	0.105	0.274
-103.947	-26.666	0.419	0.242
-102.932	800.000	-0.103	0.344
-101.918	222.451	0.098	-0.156
-100.903	-145.588	-0.351	-0.031
-99.889	486.050	0.103	-0.231
-98.874	-56.014	0.237	-0.104
-97.859	-78.898	0.145	-0.049
-96.845	-200.000	0.006	0.152
-95.830	-200.000	-0.066	0.316
-94.816	75.394	0.205	-0.213
-93.801	130.681	-0.252	-0.319
-92.786	-37.340	-0.050	0.027
-91.772	800.000	0.089	0.299
-90.757	-200.000	0.004	-0.073
-89.743	-8.654	0.064	-0.043
-88.728	-200.000	0.010	-0.054
-87.713	-200.000	0.010	-0.075
-86.699	129.472	-0.203	0.256
-85.684	23.972	0.117	-0.095
-84.670	-129.302	0.737	0.101
-83.655	-74.323	-0.151	-0.054
-82.640	-144.760	0.157	0.014
-81.626	-103.112	0.256	0.060
-80.611	-200.000	-0.041	-0.179
-79.597	289.026	-0.031	-0.056
-78.582	-192.142	-0.125	0.001
-77.567	43.628	-0.309	0.279
-76.553	242.964	-0.158	0.260
-75.538	-18.966	0.250	0.153
-74.524	-148.069	-0.484	0.040
-73.509	767.520	0.109	0.292
-72.494	-200.000	0.028	-0.253
-71.480	92.278	0.108	-0.119
-70.465	-200.000	0.009	-0.116
-69.451	-145.555	-0.164	0.014
-68.436	-165.210	-0.147	-0.006
-67.422	235.123	-0.198	-0.322
-66.407	-120.788	0.344	-0.057
-65.392	-200.000	0.009	0.102
-64.378	263.029	0.032	0.054
-63.363	-48.510	0.217	0.103
-62.349	102.820	0.290	-0.334
-61.334	47.903	-0.767	-0.706
-60.319	55.065	0.436	0.415
-59.305	237.932	-0.516	-0.844
-58.290	64.739	0.843	0.838
-57.276	394.907	0.509	1.046
-56.261	-200.000	93.849	548.529
-55.246	526.160	1406.131	3262.243
-54.232	146.314	2638.191	3488.436
-53.217	106.990	2349.471	2748.717
-52.203	44.765	1954.801	1771.275
-51.188	38.446	1737.806	1525.527
-50.173	35.623	1691.766	1463.587
-49.159	50.789	1738.814	1621.770
-48.144	53.887	1757.514	1663.106
-47.130	38.050	1713.728	1501.107
-46.115	35.195	1698.838	1466.196
-45.100	35.123	1693.032	1460.575
-44.086	34.983	1690.978	1457.679
-43.071	35.109	1688.450	1456.401
-42.057	34.925	1685.869	1452.720
-41.042	35.089	1683.376	1451.757
-40.027	35.045	1682.031	1450.208
-39.013	35.016	1679.646	1447.878
-37.998	34.941	1678.708	1446.444
-36.984	35.106	1676.564	1445.781
-35.969	35.143	1675.432	1445.026
-34.954	35.281	1673.201	1444.087
-33.940	35.126	1671.907	1441.749
-32.925	35.184	1669.634	1440.162
-31.911	35.134	1667.899	1438.237
-30.896	35.064	1666.739	1436.654
-29.881	35.018	1665.384	1435.084
-28.867	35.166	1662.614	1433.746
-27.852	35.118	1661.624	1432.479
-26.838	35.083	1659.957	1430.723
-25.823	35.082	1659.139	1429.953
-24.809	35.154	1657.465	1428.987
-23.794	35.177	1655.384	1427.307
-22.779	35.182	1654.175	1426.249
-21.765	35.129	1652.720	1424.540
-20.750	35.099	1650.946	1422.732
-19.736	35.173	1649.359	1421.858
-18.721	35.162	1647.896	1420.465
-17.706	35.211	1646.147	1419.258
-16.692	35.118	1644.279	1416.907
-15.677	35.097	1642.884	1415.490
-14.663	35.164	1641.768	1414.971
-13.648	35.138	1639.982	1413.185
-12.633	35.126	1638.660	1411.901
-11.619	35.191	1636.810	1410.727
-10.604	35.193	1635.348	1409.423
-9.590	35.185	1633.888	1408.054
-8.575	35.174	1632.688	1406.878
-7.560	35.125	1631.648	1405.569
-6.546	35.138	1630.657	1404.754
-5.531	35.109	1629.376	1403.383
-4.517	35.165	1628.464	1402.955
-3.502	35.088	1627.238	1401.275
-2.487	35.264	1625.598	1401.099
-1.473	35.056	1615.102	1390.486
-0.458	32.528	1594.950	1354.916
0.556	27.115	1593.096	1315.941
1.571	23.750	1616.301	1310.219
2.586	22.500	1628.379	1310.599
3.600	19.928	1575.278	1249.214
4.615	11.282	1460.980	1100.357
5.629	2.665	1391.710	992.496
6.644	0.875	1382.478	974.308
7.659	0.714	1380.978	972.129
8.673	0.685	1379.943	971.129
9.688	0.625	1378.362	969.545
10.702	0.461	1375.208	966.186
11.717	4.111	1381.565	994.021
12.731	12.673	1395.135	1058.976
13.746	17.657	1400.869	1095.342
14.761	17.415	1399.647	1092.733
15.775	16.684	1397.138	1085.995
16.790	15.662	1394.599	1077.379
17.804	14.808	1392.129	1069.906
18.819	14.505	1390.846	1066.890
19.834	14.187	1389.232	1063.522
20.848	13.886	1388.196	1060.711
21.863	13.648	1387.037	1058.213
22.877	13.492	1385.446	1055.911
23.892	13.446	1384.485	1054.791
24.907	13.389	1384.072	1054.026
25.921	13.478	1382.828	1053.548
26.936	13.483	1382.190	1053.000
27.950	13.589	1380.646	1052.405
28.965	13.525	1380.327	1051.661
29.980	13.625	1378.617	1050.903
30.994	13.709	1378.015	1050.879
32.009	13.637	1377.201	1049.710
33.023	13.717	1376.504	1049.595
34.038	13.702	1374.371	1047.781
35.053	13.691	1373.271	1046.776
36.067	13.634	1372.830	1045.992
37.082	13.687	1371.562	1045.262
38.096	13.661	1370.803	1044.430
39.111	13.679	1369.831	1043.714
40.126	13.589	1369.240	1042.602
41.140	13.590	1368.209	1041.730
42.155	13.491	1367.807	1040.712
43.169	13.378	1367.742	1039.859
44.184	13.470	1367.225	1039.950
45.199	13.463	1366.673	1039.397
46.213	13.442	1366.448	1039.000
47.228	13.635	1365.112	1039.104
48.242	13.559	1364.283	1037.907
49.257	13.508	1362.592	1036.207
50.271	13.520	1361.369	1035.262
51.286	13.594	1359.919	1034.529
52.301	13.545	1358.816	1033.292
53.315	13.537	1358.147	1032.643
54.330	13.523	1357.203	1031.742
55.344	13.530	1355.646	1030.511
56.359	13.427	1354.545	1028.946
57.374	13.489	1354.089	1028.891
58.388	13.455	1353.088	1027.828
59.403	13.371	1353.066	1027.198
60.417	13.449	1351.811	1026.641
61.432	13.414	1350.821	1025.581
62.447	13.349	1349.650	1024.201
63.461	13.310	1348.843	1023.253
64.476	13.370	1347.423	1022.461
65.490	13.341	1346.412	1021.422
66.505	13.449	1344.378	1020.456
67.520	13.358	1343.856	1019.405
68.534	13.415	1342.399	1018.564
69.549	13.521	1341.134	1018.162
70.563	13.343	1340.300	1016.345
71.578	13.326	1339.434	1015.497
72.593	13.247	1338.694	1014.363
73.607	13.303	1337.529	1013.731
74.622	13.376	1336.462	1013.281
75.636	13.282	1335.609	1011.969
76.651	13.297	1335.138	1011.612
77.666	13.339	1334.419	1011.234
78.680	13.296	1333.877	1010.471
79.695	13.312	1333.082	1009.879
80.709	13.385	1332.227	1009.587
81.724	13.461	1331.197	1009.181
82.739	13.519	1330.054	1008.579
83.753	13.470	1329.346	1007.652
84.768	13.475	1328.531	1006.977
85.782	13.656	1326.823	1006.694
86.797	13.505	1325.834	1004.935
87.812	13.512	1324.418	1003.817
88.826	13.539	1323.452	1003.161
89.841	13.509	1322.652	1002.283
90.855	13.537	1321.492	1001.484
91.870	13.508	1320.909	1000.777
92.884	13.574	1319.494	1000.020
93.899	13.591	1318.967	999.633
94.914	13.661	1318.036	999.259
95.928	13.729	1316.816	998.658
96.943	13.640	1316.204	997.569
97.957	13.590	1315.629	996.746
98.972	13.633	1314.293	995.899
99.987	13.581	1313.365	994.799
101.001	13.565	1312.387	993.873
102.016	13.658	1310.937	993.244
103.030	13.709	1310.086	992.819
104.045	13.663	1309.279	991.840
105.060	13.666	1307.589	990.493
106.074	13.494	1306.933	988.882
107.089	13.520	1305.540	987.894
108.103	13.495	1304.326	986.736
109.118	13.448	1302.869	985.268
110.133	13.413	1301.869	984.216
111.147	13.463	1300.423	983.333
112.162	13.524	1299.037	982.561
113.176	13.420	1298.477	981.433
114.191	13.536	1297.521	981.311
115.206	13.597	1295.824	980.305
116.220	13.663	1294.102	979.306
117.235	13.613	1293.284	978.300
118.249	13.574	1292.287	977.231
119.264	13.572	1291.600	976.614
120.279	13.439	1290.568	974.964
121.293	13.483	1289.106	974.034
122.308	13.587	1287.740	973.526
123.322	13.538	1287.288	972.811
124.337	13.530	1286.012	971.714
125.352	13.536	1284.979	970.882
126.366	13.591	1283.950	970.341
127.381	13.490	1283.065	968.993
128.395	13.556	1281.648	968.227
129.410	13.539	1280.828	967.419
130.424	13.640	1279.846	967.181
131.439	13.614	1278.997	966.306
132.454	13.562	1278.284	965.374
133.468	13.537	1277.497	964.551
134.483	13.700	1276.452	964.623
135.497	13.562	1275.900	963.317
136.512	13.577	1274.392	962.182
137.527	13.602	1272.776	961.024
138.541	13.642	1271.477	960.191
139.556	13.630	1270.242	959.101
140.570	13.688	1269.106	958.492
141.585	13.650	1268.014	957.368
142.600	13.661	1266.893	956.498
143.614	13.694	1265.939	955.881
144.629	13.672	1264.870	954.865
145.643	13.692	1263.544	953.896
146.658	13.666	1262.553	952.913
147.673	13.648	1261.074	951.607
148.687	13.640	1259.786	950.504
149.702	13.573	1258.486	949.055
150.716	13.654	1257.208	948.475
151.731	13.657	1255.869	947.395
152.746	13.708	1254.790	946.791
153.760	13.687	1253.555	945.655
154.775	13.749	1252.041	944.782
155.789	13.777	1251.415	944.383
156.804	13.723	1250.465	943.280
157.819	13.841	1248.661	942.505
158.833	13.800	1248.267	941.893
159.848	13.896	1246.784	941.231
160.862	13.872	1246.094	940.489
161.877	13.835	1244.787	939.214
162.892	13.826	1243.678	938.240
163.906	13.750	1243.059	937.265
164.921	13.736	1241.943	936.259
165.935	13.829	1240.719	935.780
166.950	13.834	1240.206	935.336
167.964	13.822	1239.647	934.762
168.979	13.822	1238.550	933.853
169.994	13.854	1238.139	933.644
171.008	13.919	1236.957	933.034
172.023	13.861	1236.623	932.375
173.037	13.906	1235.624	931.793
174.052	13.909	1234.791	931.096
175.067	13.866	1233.674	929.932
176.081	13.845	1232.799	929.071
177.096	13.808	1231.883	928.089
178.110	13.820	1230.977	927.394
179.125	13.976	1229.368	926.973
180.140	13.903	1228.375	925.734
181.154	13.937	1226.626	924.521
182.169	14.007	1225.332	923.853
183.183	14.039	1224.460	923.293
184.198	14.008	1223.369	922.218
185.213	14.069	1221.906	921.367
186.227	14.023	1221.021	920.369
187.242	14.044	1220.143	919.742
188.256	14.072	1218.943	918.911
189.271	14.049	1218.181	918.124
190.286	14.055	1216.684	916.947
191.300	13.869	1216.229	915.499
192.315	14.013	1215.366	915.564
193.329	13.984	1214.301	914.520
194.344	13.976	1214.012	914.178
195.359	14.005	1213.995	914.240
196.373	14.084	1212.692	913.616
197.388	14.183	1212.409	913.866
198.402	14.178	1211.959	913.416
199.417	14.327	1211.012	913.440
200.432	14.372	1210.276	913.051
201.446	14.317	1209.949	912.423
202.461	14.273	1208.785	911.221
203.475	14.319	1207.738	910.603
204.490	14.287	1206.679	909.550
205.504	14.341	1205.201	908.649
206.519	14.277	1204.402	907.618
207.534	14.267	1203.279	906.635
208.548	14.340	1201.967	905.965
209.563	14.253	1201.751	905.251
210.577	14.358	1200.512	904.808
211.592	14.411	1199.505	904.254
212.607	14.432	1198.771	903.738
213.621	14.467	1197.859	903.156
214.636	14.403	1197.155	902.203
215.650	14.407	1196.535	901.676
216.665	14.529	1194.777	900.928
217.680	14.513	1194.229	900.348
218.694	14.599	1193.371	900.090
219.709	14.586	1192.563	899.328
220.723	14.524	1191.835	898.369
221.738	14.553	1191.029	897.835
222.753	14.498	1190.190	896.826
223.767	14.660	1189.514	897.107
224.782	14.633	1189.059	896.542
225.796	14.688	1187.990	895.949
226.811	14.679	1187.486	895.443
227.826	14.693	1186.840	894.952
228.840	14.614	1186.195	893.964
229.855	14.698	1185.457	893.776
230.869	14.688	1184.272	892.754
231.884	14.696	1183.736	892.311
232.899	14.687	1182.946	891.591
233.913	14.537	1182.260	890.191
234.928	14.596	1181.894	890.156
235.942	14.686	1180.629	889.602
236.957	14.687	1179.559	888.722
237.972	14.628	1179.435	888.235
238.986	14.637	1178.666	887.627
240.001	14.701	1178.116	887.474
241.015	14.749	1177.121	886.902
242.030	14.728	1176.128	885.960
243.045	14.763	1175.883	885.886
244.059	14.811	1174.753	885.209
245.074	14.861	1173.784	884.666
246.088	14.893	1173.007	884.170
247.103	14.847	1172.071	883.144
248.117	14.859	1171.596	882.772
249.132	14.931	1170.766	882.450
250.147	14.953	1170.208	882.064
251.161	15.005	1169.556	881.767
252.176	15.141	1168.386	881.527
253.190	15.162	1167.804	881.119
254.205	15.076	1167.428	880.307
255.220	15.238	1166.628	880.476
256.234	15.146	1166.141	879.547
257.249	15.152	1165.252	878.828
258.263	15.156	1164.925	878.527
259.278	15.209	1164.148	878.141
260.293	15.241	1163.686	877.880
261.307	15.281	1162.914	877.429
262.322	15.220	1162.130	876.442
263.336	15.238	1161.626	876.078
264.351	15.136	1161.624	875.465
265.366	15.379	1160.230	875.609
266.380	15.343	1159.983	875.155
267.395	15.354	1158.822	874.260
268.409	15.280	1158.360	873.448
269.424	15.346	1157.414	873.003
270.439	15.363	1156.816	872.559
271.453	15.321	1156.020	871.664
272.468	15.224	1155.474	870.674
273.482	15.374	1154.993	871.013
274.497	15.301	1153.835	869.683
275.512	15.388	1153.199	869.577
276.526	15.408	1152.288	868.918
277.541	15.461	1151.041	868.173
278.555	15.457	1151.099	868.122
279.570	15.473	1150.273	867.501
280.585	15.499	1149.241	866.781
281.599	15.548	1148.614	866.484
282.614	15.513	1147.403	865.313
283.628	15.574	1146.207	864.651
284.643	15.656	1145.511	864.468
285.657	15.597	1144.997	863.704
286.672	15.653	1143.612	862.871
287.687	15.579	1142.648	861.685
288.701	15.588	1142.225	861.336
289.716	15.627	1141.396	860.836
290.730	15.663	1140.575	860.326
291.745	15.512	1140.080	859.103
292.760	15.648	1139.422	859.224
293.774	15.643	1138.675	858.559
294.789	15.784	1138.268	858.899
295.803	15.754	1137.811	858.323
296.818	15.692	1136.861	857.213
297.833	15.782	1135.824	856.813
298.847	15.679	1135.115	855.679
299.862	15.758	1133.963	855.140
300.876	15.814	1133.166	854.747
301.891	15.921	1132.805	854.941
302.906	15.876	1132.150	854.142
303.920	15.913	1131.700	853.916
304.935	15.865	1131.106	853.151
305.949	15.914	1130.273	852.693
306.964	16.015	1129.649	852.657
307.979	16.001	1128.723	851.811
308.993	15.888	1128.351	850.886
310.008	15.948	1127.290	850.315
311.022	16.009	1126.183	849.713
312.037	16.108	1125.177	849.373
313.052	15.967	1124.714	848.241
314.066	15.927	1123.906	847.355
315.081	15.990	1123.191	847.056
316.095	15.993	1122.361	846.373
317.110	15.865	1122.260	845.578
318.125	16.002	1120.966	845.214
319.139	15.952	1120.496	844.534
320.154	15.924	1119.841	843.825
321.168	16.026	1118.982	843.618
322.183	16.039	1118.405	843.169
323.197	16.058	1117.767	842.712
324.212	15.975	1117.185	841.780
325.227	15.966	1116.705	841.303
326.241	16.093	1116.028	841.352
327.256	16.008	1115.280	840.289
328.270	16.124	1113.856	839.720
329.285	16.144	1112.897	839.022
330.300	16.105	1112.072	838.129
331.314	16.051	1111.207	837.135
332.329	16.045	1110.496	836.497
333.343	16.147	1109.763	836.376
334.358	16.191	1108.730	835.744
335.373	16.173	1107.859	834.924
336.387	16.157	1107.292	834.342
337.402	16.284	1106.548	834.335
338.416	16.258	1105.828	833.588
339.431	16.172	1105.429	832.791
340.446	16.281	1104.855	832.821
341.460	16.459	1103.593	832.673
342.475	16.310	1102.905	831.349
343.489	16.519	1101.729	831.415
344.504	16.488	1100.853	830.529
345.519	16.359	1100.091	829.245
346.533	16.584	1099.070	829.507
347.548	16.445	1098.677	828.456
348.562	16.478	1097.979	828.019
349.577	16.589	1097.113	827.838
350.592	16.518	1095.766	826.400
351.606	16.416	1095.550	825.663
352.621	16.548	1094.451	825.410
353.635	16.444	1094.170	824.616
354.650	16.455	1093.522	824.107
355.665	16.501	1092.886	823.781
356.679	16.478	1091.843	822.809
357.694	16.530	1091.730	822.904
358.708	16.436	1091.077	821.884
359.723	16.625	1090.271	822.119
360.738	16.637	1089.557	821.568
361.752	16.650	1089.036	821.166
362.767	16.664	1088.278	820.589
363.781	16.607	1087.569	819.704
364.796	16.699	1087.560	820.070
365.810	16.806	1086.336	819.594
366.825	16.643	1086.485	818.843
367.840	16.701	1085.578	818.370
368.854	16.797	1084.988	818.317
369.869	16.820	1084.301	817.836
370.883	16.865	1082.961	816.972
371.898	16.790	1082.347	816.071
372.913	16.823	1081.777	815.732
373.927	16.851	1081.400	815.508
374.942	16.898	1081.009	815.368
375.956	16.857	1080.295	814.560
376.971	16.933	1079.611	814.337
377.986	16.887	1079.327	813.830
379.000	16.907	1078.779	813.442
380.015	17.070	1078.069	813.616
381.029	17.110	1077.272	813.133
382.044	17.145	1076.346	812.529
383.059	17.161	1075.450	811.859
384.073	17.082	1075.093	811.136
385.088	17.200	1074.014	810.814
386.102	17.142	1072.867	809.603
387.117	17.035	1072.302	808.595
388.132	17.198	1071.037	808.346
389.146	17.123	1070.594	807.579
390.161	17.069	1069.974	806.785
391.175	17.188	1069.178	806.680
392.190	17.150	1068.361	805.810
393.205	17.242	1067.239	805.328
394.219	17.243	1066.669	804.832
395.234	17.170	1065.822	803.775
396.248	17.184	1065.047	803.190
397.263	17.164	1064.174	802.365
398.278	17.115	1063.798	801.777
399.292	17.110	1062.816	800.945
400.307	17.110	1061.749	800.067
401.321	17.174	1061.228	799.904
402.336	17.243	1060.456	799.581
403.350	17.227	1060.025	799.106
404.365	17.142	1059.842	798.499
405.380	17.211	1058.674	797.872
406.394	17.291	1057.882	797.583
407.409	17.231	1057.249	796.754
408.423	17.357	1056.477	796.687
409.438	17.361	1055.878	796.185
410.453	17.507	1055.046	796.171
411.467	17.398	1054.216	794.966
412.482	17.554	1053.591	795.150
413.496	17.501	1052.805	794.242
414.511	17.429	1052.592	793.676
415.526	17.541	1051.999	793.679
416.540	17.733	1051.420	794.067
417.555	17.585	1051.051	793.030
418.569	17.531	1050.908	792.596
419.584	17.709	1049.660	792.414
420.599	17.649	1049.408	791.874
421.613	98.870	1315.224	1440.356
422.628	91.001	1353.925	1440.480
