DTS Sentinel unit serial number:	SN413079Multiplexer serial number:	ORYXHardware model number:	OX4-SRSoftware version number:	ORYX F/W v4.00 Oryx Data Collector v3.7.2.0data status	okinstallation	princeton_trtdifferential loss correction	single-endedforward channel	channel 2reverse channel	N/Adate	2019/09/12time	18:28:49forward acquisition time	15.00reverse acquisition time	0.00gamma	496.2192k internal	0.2324k external	0.2324temperature offset calibration	1.0126default loss term (dB/km)	0.3790temperature slope calibration	1.0000multiplexer offset coefficient	1.0000multiplexer slope coefficient	1.0000fibre end	0.00T internal ref (°C)	33.25T ext. ref 1 (°C)	2.94T ext. ref 2 (°C)	27.89length (m)	temperature (°C)	Stokes	anti-Stokes-747.200	-200.000	-0.019	-0.438
-746.185	-44.444	-0.599	-0.303
-745.171	-3.356	0.129	0.090
-744.156	-17.833	-0.796	-0.505
-743.142	-68.669	-0.599	-0.234
-742.127	221.679	0.415	0.673
-741.112	298.182	0.093	-0.172
-740.098	17.513	-0.635	-0.510
-739.083	285.193	-0.329	0.599
-738.069	88.947	-0.347	0.390
-737.054	-143.356	-0.649	-0.063
-736.039	-200.000	-0.030	0.539
-735.025	-38.292	0.109	0.059
-734.010	352.866	-0.016	-0.033
-732.996	21.886	-0.457	0.376
-731.981	-10.443	0.380	-0.254
-730.966	-200.000	0.114	0.551
-729.952	-75.327	-0.417	-0.150
-728.937	162.654	-0.514	-0.728
-727.923	-200.000	0.020	-0.165
-726.908	-200.000	0.091	0.530
-725.894	211.859	-0.643	-1.022
-724.879	-200.000	0.037	0.269
-723.864	3.810	0.464	0.342
-722.850	-56.359	0.821	-0.368
-721.835	-127.602	-0.667	0.097
-720.821	632.673	-0.054	-0.138
-719.806	35.393	-0.150	0.132
-718.791	-63.915	-0.111	-0.046
-717.777	800.000	-0.141	-0.533
-716.762	-40.683	-0.575	-0.301
-715.748	-77.503	-0.464	-0.162
-714.733	13.098	0.825	0.644
-713.718	-12.083	0.759	0.501
-712.704	19.356	-0.243	0.197
-711.689	-134.702	-0.564	0.069
-710.675	96.174	-0.182	0.210
-709.660	800.000	-0.101	-0.317
-708.645	198.426	0.327	0.504
-707.631	-41.127	0.132	-0.069
-706.616	-84.673	0.490	0.155
-705.602	-140.084	-1.186	-0.126
-704.587	-160.626	0.416	0.022
-703.572	-10.008	-0.184	-0.123
-702.558	26.065	-0.201	0.169
-701.543	800.000	-0.047	0.199
-700.529	313.771	-0.143	-0.271
-699.514	-82.921	-0.389	0.127
-698.499	25.206	-0.540	0.452
-697.485	-81.897	0.297	0.098
-696.470	-95.187	-0.649	0.176
-695.456	22.567	0.320	0.264
-694.441	-200.000	0.072	-0.337
-693.426	-184.545	0.333	-0.005
-692.412	27.604	-0.188	0.160
-691.397	289.987	-0.269	-0.492
-690.383	76.622	0.332	0.355
-689.368	-85.210	0.732	-0.231
-688.354	-29.275	0.637	0.368
-687.339	800.000	-0.092	-0.285
-686.324	-115.041	0.298	-0.057
-685.310	-120.383	0.894	-0.153
-684.295	-25.736	0.197	0.117
-683.281	99.240	0.117	-0.136
-682.266	13.623	-0.450	0.352
-681.251	196.182	0.297	-0.455
-680.237	223.515	-0.100	-0.163
-679.222	-53.437	-0.270	0.124
-678.208	-200.000	0.069	1.294
-677.193	190.083	0.466	0.704
-676.178	-41.609	-0.605	-0.313
-675.164	800.000	-0.345	-1.052
-674.149	-43.227	1.250	-0.637
-673.135	-169.065	-0.946	-0.035
-672.120	-34.574	-0.196	0.108
-671.105	800.000	0.177	-0.643
-670.091	-89.695	0.519	0.153
-669.076	-166.916	0.316	0.013
-668.062	-200.000	0.098	-0.914
-667.047	459.274	0.142	-0.318
-666.032	114.833	0.470	-0.577
-665.018	187.363	-0.167	0.251
-664.003	122.823	-0.454	-0.572
-662.989	-114.317	0.297	0.058
-661.974	188.820	0.446	-0.672
-660.959	-16.769	-0.465	-0.296
-659.945	800.000	-0.101	-0.301
-658.930	82.495	-0.359	-0.392
-657.916	-200.000	0.007	0.532
-656.901	-200.000	-0.101	0.865
-655.886	-113.392	-1.022	-0.202
-654.872	-160.462	0.382	0.021
-653.857	-77.501	-0.052	-0.018
-652.843	-94.448	-0.575	0.158
-651.828	800.000	0.208	0.708
-650.814	-185.965	0.750	0.011
-649.799	661.831	-0.174	-0.450
-648.784	-159.219	0.934	-0.053
-647.770	-85.631	-0.861	0.269
-646.755	-126.653	-0.123	0.018
-645.741	-190.314	0.718	-0.008
-644.726	-50.055	-0.852	-0.406
-643.711	-30.779	-0.485	0.276
-642.697	-200.000	-0.049	-0.389
-641.682	-200.000	0.053	-0.680
-640.668	-95.491	0.710	-0.191
-639.653	9.235	-0.453	0.345
-638.638	-32.989	1.141	0.636
-637.624	626.486	0.352	0.894
-636.609	-200.000	0.088	-0.769
-635.595	640.181	-0.262	-0.669
-634.580	587.393	0.311	0.771
-633.565	62.478	-1.112	1.116
-632.551	415.028	0.144	0.309
-631.536	249.235	-0.277	0.472
-630.522	-19.255	-0.687	0.428
-629.507	356.225	0.151	0.302
-628.492	800.000	0.186	-0.521
-627.478	-200.000	-0.380	0.002
-626.463	-81.060	-0.598	-0.199
-625.449	80.013	0.140	0.151
-624.434	-4.408	0.199	0.139
-623.419	-52.539	-0.371	0.172
-622.405	-144.059	0.274	0.026
-621.390	-69.621	-0.976	0.375
-620.376	-200.000	0.080	0.604
-619.361	800.000	-0.282	1.018
-618.346	203.338	0.366	-0.569
-617.332	-12.121	0.427	-0.281
-616.317	153.437	-0.320	-0.440
-615.303	-179.017	0.541	0.012
-614.288	-54.673	0.428	-0.194
-613.273	-105.651	-0.157	0.036
-612.259	-104.597	0.253	-0.059
-611.244	800.000	0.268	1.058
-610.230	800.000	0.069	-0.267
-609.215	360.276	0.069	0.140
-608.201	88.952	0.238	-0.266
-607.186	54.232	-0.362	-0.350
-606.171	-183.889	0.435	0.007
-605.157	247.335	0.292	0.495
-604.142	783.005	-0.097	-0.268
-603.128	291.371	0.213	0.389
-602.113	-200.000	0.074	0.513
-601.098	-173.541	0.612	0.018
-600.084	-67.723	0.142	-0.056
-599.069	159.520	0.577	-0.806
-598.055	-146.490	0.338	-0.030
-597.040	800.000	-0.120	-0.400
-596.025	-164.367	0.717	-0.033
-595.011	-200.000	-0.027	-0.467
-593.996	800.000	-0.115	-0.444
-592.982	-137.631	-0.640	-0.072
-591.967	42.311	0.506	-0.461
-590.952	415.738	0.298	0.637
-589.938	800.000	0.312	0.975
-588.923	617.829	0.235	0.592
-587.909	99.211	0.125	0.145
-586.894	-105.784	-0.345	-0.078
-585.879	46.822	0.393	0.367
-584.865	200.088	0.476	-0.733
-583.850	248.652	-0.327	-0.556
-582.836	-52.879	0.075	0.034
-581.821	-81.582	-0.821	-0.271
-580.806	-65.931	0.328	-0.132
-579.792	329.864	0.353	-0.682
-578.777	-133.997	-0.248	-0.031
-577.763	-118.759	-0.985	-0.174
-576.748	135.265	0.278	-0.362
-575.733	541.867	0.383	-0.915
-574.719	-85.401	0.528	0.165
-573.704	-86.850	0.709	-0.217
-572.690	122.475	-0.526	0.659
-571.675	800.000	-0.055	-0.190
-570.661	349.046	-0.131	0.260
-569.646	318.777	-0.123	0.233
-568.631	247.121	-0.083	0.141
-567.617	-180.360	-0.228	-0.005
-566.602	354.336	0.461	0.919
-565.588	360.398	0.229	0.459
-564.573	229.258	0.370	0.606
-563.558	-187.249	-0.296	0.004
-562.544	-42.021	0.447	0.229
-561.529	-10.661	0.497	-0.330
-560.515	-116.018	-0.460	-0.086
-559.500	800.000	0.180	0.552
-558.485	-92.630	0.738	0.207
-557.471	788.803	0.169	-0.466
-556.456	100.990	0.226	0.264
-555.442	-2.734	0.377	0.264
-554.427	-41.228	-0.736	0.380
-553.412	800.000	0.243	-0.867
-552.398	87.442	0.856	-0.949
-551.383	-63.562	-0.180	0.074
-550.369	526.353	-0.269	-0.635
-549.354	800.000	0.152	-0.541
-548.339	51.585	-0.169	0.161
-547.325	-19.681	-0.775	0.480
-546.310	800.000	0.092	-0.325
-545.296	-160.754	0.746	-0.040
-544.281	-82.355	-1.038	0.338
-543.266	800.000	0.259	0.786
-542.252	303.775	-0.316	0.588
-541.237	-190.983	0.651	0.007
-540.223	-110.431	-0.638	-0.133
-539.208	-200.000	-0.019	-0.575
-538.193	24.952	0.821	-0.682
-537.179	-200.000	-0.065	-0.365
-536.164	361.467	-0.245	-0.491
-535.150	-108.603	0.146	-0.031
-534.135	511.482	0.105	0.244
-533.121	800.000	0.043	-0.150
-532.106	-119.408	-0.571	-0.099
-531.091	68.386	-0.728	0.747
-530.077	53.276	0.478	0.458
-529.062	-200.000	0.009	0.655
-528.048	-200.000	-0.119	0.790
-527.033	29.588	0.181	0.154
-526.018	77.680	0.440	0.469
-525.004	800.000	-0.182	0.618
-523.989	-200.000	0.045	0.342
-522.975	-10.380	-0.482	0.320
-521.960	-75.054	0.738	-0.264
-520.945	800.000	-0.235	-0.895
-519.931	147.325	0.353	-0.476
-518.916	-137.101	1.012	0.116
-517.902	-165.102	0.474	-0.021
-516.887	569.999	0.174	-0.423
-515.872	-200.000	-0.058	-0.837
-514.858	-21.293	0.478	-0.292
-513.843	-200.000	0.097	0.996
-512.829	-200.000	-0.177	0.916
-511.814	259.213	0.262	-0.452
-510.799	2.850	0.058	0.042
-509.785	1.125	-0.395	0.283
-508.770	-26.237	-0.768	0.451
-507.756	-146.264	-0.787	0.069
-506.741	43.855	1.328	1.216
-505.726	-200.000	0.120	-0.592
-504.712	-100.925	-0.402	0.099
-503.697	-32.945	-0.536	-0.298
-502.683	-200.000	-0.140	-0.798
-501.668	-158.654	0.263	0.015
-500.653	69.388	-0.573	0.590
-499.639	-200.000	0.094	-0.734
-498.624	-27.480	-1.341	-0.780
-497.610	-124.132	1.003	0.157
-496.595	-140.469	-0.445	0.046
-495.581	-137.399	-0.547	0.062
-494.566	768.390	-0.252	-0.686
-493.551	129.571	0.209	0.266
-492.537	-56.202	0.775	-0.345
-491.522	123.016	0.302	-0.378
-490.508	2.596	0.290	-0.210
-489.493	-43.621	0.396	-0.200
-488.478	2.440	0.139	-0.101
-487.464	173.228	0.175	0.253
-486.449	708.944	-0.026	-0.068
-485.435	43.390	-0.473	-0.432
-484.420	-153.624	-0.255	0.018
-483.405	52.759	0.238	-0.227
-482.391	0.206	-0.619	-0.441
-481.376	149.198	-0.273	-0.369
-480.362	42.450	0.255	0.232
-479.347	-98.727	0.913	0.233
-478.332	-79.914	0.112	-0.038
-477.318	220.497	-0.312	0.500
-476.303	432.345	-0.421	-0.911
-475.289	-12.442	-0.696	-0.454
-474.274	199.538	0.177	0.270
-473.259	-200.000	-0.001	0.267
-472.245	800.000	0.123	-0.393
-471.230	-200.000	-0.002	0.224
-470.216	413.345	-0.190	0.403
-469.201	56.847	-0.367	0.357
-468.186	-155.172	0.628	-0.041
-467.172	69.123	0.139	-0.143
-466.157	-100.666	0.336	0.083
-465.143	100.607	0.276	-0.320
-464.128	-108.575	-0.368	0.079
-463.113	-104.615	0.424	-0.098
-462.099	800.000	0.214	-0.625
-461.084	-18.529	0.315	-0.196
-460.070	418.994	-0.245	-0.523
-459.055	411.064	0.228	-0.484
-458.040	155.567	0.109	-0.150
-457.026	-58.136	-0.148	-0.064
-456.011	38.757	0.702	-0.626
-454.997	-142.350	0.599	-0.059
-453.982	492.396	-0.209	0.479
-452.968	67.161	-0.276	0.281
-451.953	-200.000	-0.027	-0.489
-450.938	84.049	-0.234	-0.256
-449.924	800.000	0.171	0.581
-448.909	-140.357	-0.624	0.065
-447.895	141.998	0.277	0.366
-446.880	323.676	-0.309	-0.587
-445.865	-200.000	0.013	-0.782
-444.851	535.810	0.185	-0.437
-443.836	-98.333	-0.349	0.089
-442.822	-200.000	-0.073	-0.740
-441.807	439.382	0.214	-0.466
-440.792	800.000	-0.095	-0.386
-439.778	800.000	0.114	0.335
-438.763	389.395	-0.498	-1.030
-437.749	-200.000	-0.013	-0.222
-436.734	-200.000	0.123	0.808
-435.719	-200.000	-0.041	0.405
-434.705	-200.000	-0.120	-0.655
-433.690	-200.000	-0.121	1.025
-432.676	307.528	-0.483	0.898
-431.661	-118.081	-0.390	-0.070
-430.646	-200.000	0.137	-0.690
-429.632	737.480	-0.453	-1.210
-428.617	33.340	-0.466	0.404
-427.603	-200.000	0.043	0.475
-426.588	-200.000	-0.115	-0.000
-425.573	46.836	0.314	-0.291
-424.559	800.000	-0.060	-0.177
-423.544	800.000	0.196	-0.585
-422.530	-79.086	0.866	-0.293
-421.515	-185.365	-0.645	-0.010
-420.500	-139.870	0.605	0.064
-419.486	-200.000	0.146	1.026
-418.471	37.349	0.407	0.359
-417.457	181.026	-0.220	0.323
-416.442	800.000	0.246	-0.898
-415.428	307.440	-0.242	0.449
-414.413	267.687	0.445	0.777
-413.398	-200.000	-0.074	0.600
-412.384	-74.084	-0.742	-0.268
-411.369	800.000	0.008	0.023
-410.355	179.848	-0.374	-0.547
-409.340	282.012	0.347	-0.620
-408.325	185.115	0.218	0.322
-407.311	800.000	-0.188	0.596
-406.296	23.662	0.136	0.111
-405.282	800.000	0.154	0.561
-404.267	-107.390	-0.550	0.120
-403.252	-109.771	0.465	-0.097
-402.238	243.939	-0.263	-0.440
-401.223	584.944	-0.090	-0.221
-400.209	104.785	0.379	0.444
-399.194	121.717	0.293	0.364
-398.179	181.208	0.332	-0.487
-397.165	287.824	-0.179	-0.323
-396.150	267.913	0.364	0.635
-395.136	113.383	-0.139	-0.168
-394.121	100.239	-0.442	0.511
-393.106	438.204	0.300	-0.651
-392.092	-19.019	-0.089	-0.055
-391.077	10.677	-0.498	-0.378
-390.063	-200.000	-0.026	-0.257
-389.048	180.364	-0.061	0.089
-388.033	-52.457	0.564	-0.260
-387.019	94.709	0.346	-0.392
-386.004	-200.000	-0.038	-0.611
-384.990	-200.000	0.058	-0.493
-383.975	-200.000	-0.078	0.424
-382.960	-26.467	-1.180	0.689
-381.946	-78.838	0.287	0.097
-380.931	-80.910	-0.354	-0.117
-379.917	-119.001	0.942	-0.164
-378.902	230.925	0.131	-0.214
-377.888	-125.129	0.076	0.012
-376.873	-200.000	-0.109	-0.708
-375.858	800.000	-0.057	0.220
-374.844	-5.762	-0.308	0.210
-373.829	800.000	-0.143	-0.430
-372.815	52.508	0.332	-0.316
-371.800	800.000	-0.083	-0.307
-370.785	-200.000	-0.020	0.160
-369.771	-62.440	-0.395	0.164
-368.756	-155.550	-0.473	0.030
-367.742	39.318	-0.706	0.628
-366.727	-200.000	-0.081	0.642
-365.712	-200.000	-0.277	-0.001
-364.698	-52.581	0.304	-0.140
-363.683	62.318	0.280	0.278
-362.669	-28.886	0.344	-0.197
-361.654	-4.406	-0.506	-0.348
-360.639	-160.101	-0.649	0.035
-359.625	14.972	-0.442	0.344
-358.610	-200.000	-0.019	0.508
-357.596	-200.000	-0.125	0.990
-356.581	800.000	0.126	0.463
-355.566	-200.000	0.105	-0.691
-354.552	26.541	-0.696	-0.579
-353.537	109.760	-0.298	-0.356
-352.523	-200.000	0.000	0.266
-351.508	246.735	0.404	-0.678
-350.493	245.703	-0.497	0.832
-349.479	125.824	-0.115	-0.145
-348.464	-200.000	0.047	-0.526
-347.450	-53.863	-0.271	-0.123
-346.435	-83.799	0.108	0.034
-345.420	-106.250	0.332	0.074
-344.406	-77.446	-0.206	0.071
-343.391	-59.986	-0.478	-0.203
-342.377	-82.713	0.552	0.178
-341.362	-99.963	0.335	0.083
-340.348	-35.005	-0.215	-0.116
-339.333	31.030	-0.121	0.103
-338.318	83.568	-0.127	-0.138
-337.304	-200.000	-0.034	-0.287
-336.289	800.000	-0.186	-0.578
-335.275	-114.342	-0.640	0.122
-334.260	486.950	-0.057	-0.129
-333.245	-25.288	-0.499	-0.294
-332.231	402.138	-0.189	0.394
-331.216	22.356	-0.365	-0.296
-330.202	309.386	0.366	0.679
-329.187	-64.235	-0.380	0.154
-328.172	800.000	0.131	0.372
-327.158	1.619	0.400	-0.286
-326.143	-200.000	-0.019	-0.311
-325.129	-200.000	0.035	0.960
-324.114	-139.005	0.528	0.057
-323.099	-36.473	0.250	-0.133
-322.085	46.576	0.360	0.331
-321.070	-93.437	-0.674	-0.185
-320.056	800.000	-0.299	-1.299
-319.041	-57.943	0.360	-0.156
-318.026	371.046	0.160	0.323
-317.012	-64.400	-0.552	0.223
-315.997	-166.951	0.687	0.028
-314.983	-73.186	0.374	0.136
-313.968	-168.223	0.339	0.013
-312.953	169.250	-0.317	0.449
-311.939	289.161	0.425	0.764
-310.924	547.858	-0.366	0.871
-309.910	342.088	-0.168	0.326
-308.895	50.069	-0.062	-0.058
-307.880	-151.311	0.303	-0.022
-306.866	253.389	0.348	-0.589
-305.851	800.000	0.229	0.965
-304.837	-200.000	0.098	-0.716
-303.822	-15.373	-0.425	-0.270
-302.807	-94.992	-0.245	0.066
-301.793	-76.260	-0.778	-0.272
-300.778	-26.396	0.223	0.130
-299.764	364.491	-0.180	-0.360
-298.749	-200.000	0.086	-0.510
-297.735	-31.402	-0.862	-0.481
-296.720	280.396	-0.054	0.096
-295.705	-200.000	0.021	-0.222
-294.691	-200.000	-0.033	0.542
-293.676	-28.732	0.324	0.185
-292.662	-200.000	-0.037	-0.515
-291.647	53.814	0.252	0.240
-290.632	16.138	-0.277	-0.216
-289.618	800.000	0.071	0.199
-288.603	-169.854	1.137	0.041
-287.589	-145.270	-0.059	0.005
-286.574	-29.143	-0.672	-0.382
-285.559	73.393	0.405	-0.421
-284.545	190.919	-0.172	-0.256
-283.530	-71.114	0.282	-0.105
-282.516	353.778	0.147	-0.290
-281.501	-80.749	-0.504	0.166
-280.486	800.000	0.143	0.545
-279.472	13.963	-0.129	-0.099
-278.457	800.000	-0.187	0.565
-277.443	-37.363	0.538	0.285
-276.428	31.446	0.299	0.254
-275.413	-193.870	-0.672	0.006
-274.399	-72.967	0.453	0.165
-273.384	195.954	0.251	0.378
-272.370	283.510	-0.420	-0.748
-271.355	124.779	0.246	-0.307
-270.340	130.551	-0.443	0.563
-269.326	-200.000	0.095	0.600
-268.311	800.000	-0.075	-0.268
-267.297	4.995	-0.259	-0.189
-266.282	-147.895	0.183	0.015
-265.267	179.783	-0.463	-0.672
-264.253	104.607	-0.275	0.321
-263.238	-104.763	-0.746	0.170
-262.224	51.010	0.370	0.347
-261.209	661.834	0.187	-0.477
-260.195	31.863	0.406	-0.346
-259.180	104.894	-0.583	0.681
-258.165	800.000	0.123	0.443
-257.151	59.272	-0.262	0.255
-256.136	-200.000	-0.069	-0.344
-255.122	16.754	-0.526	-0.412
-254.107	-159.799	0.356	-0.019
-253.092	108.313	-0.321	-0.379
-252.078	800.000	0.301	-0.962
-251.063	215.457	0.301	0.474
-250.049	173.739	-0.406	0.580
-249.034	-200.000	-0.154	1.046
-248.019	-65.565	0.194	-0.077
-247.005	-95.135	0.506	0.135
-245.990	96.707	-0.200	-0.227
-244.976	293.543	-0.601	-1.087
-243.961	-26.220	-0.385	-0.224
-242.946	-106.196	-1.033	0.229
-241.932	-66.155	-0.312	-0.123
-240.917	674.184	-0.188	0.482
-239.903	248.576	0.126	0.211
-238.888	-71.235	0.149	0.055
-237.873	364.295	0.280	-0.558
-236.859	227.243	-0.582	0.936
-235.844	-200.000	-0.007	0.551
-234.830	-92.174	0.271	-0.076
-233.815	-25.594	-0.663	-0.388
-232.800	541.151	-0.255	-0.602
-231.786	-92.575	0.212	0.059
-230.771	261.280	0.215	-0.368
-229.757	-151.471	0.339	0.025
-228.742	149.945	0.286	0.384
-227.727	7.260	-0.316	-0.234
-226.713	323.599	-0.187	-0.352
-225.698	17.125	0.467	-0.366
-224.684	-51.402	-0.718	-0.332
-223.669	-127.513	-1.105	-0.159
-222.655	302.456	-0.109	-0.199
-221.640	-200.000	0.026	-0.166
-220.625	120.956	-0.331	0.407
-219.611	442.343	-0.263	-0.570
-218.596	-61.383	0.992	0.413
-217.582	-19.941	0.355	-0.216
-216.567	92.414	-0.380	-0.424
-215.552	-30.615	0.650	0.364
-214.538	-52.940	-0.338	0.154
-213.523	-44.089	0.970	-0.482
-212.509	-33.438	-0.761	-0.416
-211.494	-124.585	0.367	-0.056
-210.479	-61.776	0.743	0.308
-209.465	322.013	0.157	-0.295
-208.450	-200.000	0.126	-0.651
-207.436	-155.538	1.015	-0.065
-206.421	25.948	-0.596	0.491
-205.406	121.450	-0.218	0.268
-204.392	132.480	0.338	-0.431
-203.377	-200.000	0.025	0.428
-202.363	537.278	0.152	0.357
-201.348	800.000	-0.264	0.769
-200.333	59.309	-0.632	0.615
-199.319	800.000	-0.078	0.267
-198.304	157.531	0.795	1.087
-197.290	-9.473	0.204	0.135
-196.275	800.000	-0.083	0.338
-195.260	104.961	0.285	-0.333
-194.246	217.487	0.282	0.444
-193.231	252.059	-0.188	-0.316
-192.217	800.000	-0.255	0.757
-191.202	72.145	0.642	0.660
-190.187	111.206	0.055	-0.066
-189.173	18.686	-0.538	-0.425
-188.158	63.822	0.515	0.511
-187.144	28.019	-0.391	-0.326
-186.129	778.090	-0.165	-0.445
-185.114	711.707	0.309	-0.807
-184.100	-15.851	0.107	0.068
-183.085	-122.990	0.065	0.010
-182.071	-200.000	-0.179	-0.826
-181.056	-13.423	0.514	0.329
-180.042	-99.367	0.622	0.155
-179.027	-27.636	0.400	-0.230
-178.012	103.878	-0.194	0.225
-176.998	-200.000	-0.112	1.211
-175.983	189.922	0.264	0.392
-174.969	22.536	-0.157	0.126
-173.954	429.706	-0.264	-0.564
-172.939	-31.394	0.373	-0.207
-171.925	-154.721	0.669	-0.044
-170.910	635.774	-0.150	0.375
-169.896	-44.116	-0.343	0.170
-168.881	168.092	-0.219	-0.307
-167.866	56.259	-0.400	0.383
-166.852	343.731	0.315	0.609
-165.837	-87.184	0.360	-0.108
-164.823	-119.828	0.860	-0.146
-163.808	18.297	-0.280	-0.221
-162.793	-200.000	0.125	0.838
-161.779	-4.586	0.584	0.398
-160.764	289.873	-0.099	0.177
-159.750	83.625	-0.271	-0.292
-158.735	-133.807	0.812	0.100
-157.720	126.026	-0.106	-0.133
-156.706	-106.607	-1.159	-0.255
-155.691	239.881	0.186	-0.306
-154.677	-107.948	-1.087	-0.233
-153.662	131.381	-0.586	0.743
-152.647	-103.455	-0.706	0.164
-151.633	303.175	0.295	-0.540
-150.618	21.674	-0.467	0.375
-149.604	-77.853	1.002	-0.341
-148.589	99.042	-0.277	0.316
-147.574	-117.932	0.303	-0.054
-146.560	91.508	-0.459	-0.509
-145.545	-67.065	-0.036	0.014
-144.531	19.912	0.205	-0.163
-143.516	-200.000	-0.103	-0.603
-142.502	-49.161	-0.895	-0.422
-141.487	64.235	0.171	-0.170
-140.472	417.802	0.189	-0.399
-139.458	24.098	-0.131	-0.106
-138.443	529.090	-0.352	0.820
-137.429	-200.000	-0.025	0.372
-136.414	-200.000	-0.104	0.587
-135.399	-200.000	0.306	0.000
-134.385	-200.000	0.014	-0.077
-133.370	-52.029	-0.500	-0.229
-132.356	-178.776	-0.504	0.011
-131.341	65.196	-0.338	-0.337
-130.326	219.459	0.310	0.489
-129.312	800.000	-0.314	0.857
-128.297	-44.663	-0.606	-0.298
-127.283	-187.923	0.451	-0.006
-126.268	800.000	0.081	0.321
-125.253	-10.023	0.658	0.431
-124.239	-200.000	-0.113	0.924
-123.224	8.794	-0.259	-0.193
-122.210	-137.832	-0.673	-0.074
-121.195	-53.484	-0.154	-0.070
-120.180	608.328	-0.141	0.346
-119.166	-137.056	-0.437	0.049
-118.151	11.701	-0.149	0.113
-117.137	27.731	0.100	-0.083
-116.122	-60.762	-0.058	-0.024
-115.107	800.000	-0.202	0.654
-114.093	-32.185	-0.361	-0.198
-113.078	409.430	0.378	-0.789
-112.064	406.171	0.443	0.921
-111.049	-130.305	-0.578	0.077
-110.034	-171.304	-0.606	0.020
-109.020	-66.173	0.467	0.183
-108.005	-70.371	0.234	-0.087
-106.991	-153.325	0.191	-0.013
-105.976	-102.862	0.639	0.150
-104.962	-162.789	-1.055	0.051
-103.947	-24.115	-0.849	0.499
-102.932	-20.054	0.273	-0.166
-101.918	600.125	-0.111	0.270
-100.903	482.576	0.214	-0.479
-99.889	-8.874	0.451	-0.298
-98.874	-200.000	-0.090	-0.953
-97.859	344.717	-0.173	0.334
-96.845	40.472	-0.382	0.338
-95.830	800.000	-0.350	1.316
-94.816	36.991	-0.690	-0.600
-93.801	-200.000	-0.066	-0.330
-92.786	-13.609	0.754	0.481
-91.772	-200.000	-0.108	-0.541
-90.757	-42.654	0.399	0.200
-89.743	62.044	-0.107	-0.105
-88.728	-32.886	0.873	0.477
-87.713	76.219	-0.257	0.268
-86.699	6.870	-0.427	0.313
-85.684	-200.000	0.002	1.025
-84.670	404.829	-0.099	0.206
-83.655	394.896	-0.141	-0.289
-82.640	-52.563	0.308	0.140
-81.626	800.000	-0.149	-0.526
-80.611	-149.402	-0.220	-0.017
-79.597	421.564	-0.198	-0.418
-78.582	-200.000	0.025	-0.480
-77.567	-29.356	-0.580	-0.326
-76.553	-9.592	0.756	0.496
-75.538	97.860	0.311	0.352
-74.524	105.658	0.083	0.096
-73.509	-46.110	0.295	0.143
-72.494	800.000	0.131	-0.384
-71.480	-200.000	0.004	0.324
-70.465	-75.251	0.122	0.043
-69.451	-27.601	-0.317	0.181
-68.436	48.476	-0.332	-0.306
-67.422	-21.517	-0.337	-0.202
-66.407	44.737	0.636	0.576
-65.392	563.123	0.347	0.825
-64.378	800.000	0.055	-0.221
-63.363	-200.000	-0.039	0.246
-62.349	-102.209	-0.711	-0.168
-61.334	800.000	0.093	-0.281
-60.319	-27.019	0.813	0.466
-59.305	-200.000	0.022	-1.465
-58.290	800.000	0.292	0.951
-57.276	-200.000	-0.046	1.578
-56.261	-200.000	96.562	571.110
-55.246	653.397	1367.097	3445.720
-54.232	200.274	2544.014	3840.312
-53.217	113.361	2255.962	2690.305
-52.203	42.552	1886.136	1686.429
-51.188	36.497	1676.590	1453.639
-50.173	33.940	1631.885	1396.075
-49.159	52.423	1680.166	1575.403
-48.144	53.017	1697.851	1596.354
-47.130	36.030	1657.643	1433.515
-46.115	33.152	1643.235	1399.730
-45.100	33.270	1637.867	1395.968
-44.086	33.060	1635.597	1392.436
-43.071	33.239	1632.824	1391.332
-42.057	33.129	1630.046	1388.103
-41.042	33.262	1628.160	1387.416
-40.027	33.075	1626.001	1384.150
-39.013	33.207	1624.156	1383.492
-37.998	32.975	1624.029	1381.636
-36.984	33.266	1620.914	1381.055
-35.969	33.340	1619.533	1380.359
-34.954	33.377	1618.624	1379.804
-33.940	33.019	1616.692	1375.490
-32.925	33.208	1614.973	1375.352
-31.911	32.992	1614.522	1373.343
-30.896	33.146	1612.159	1372.398
-29.881	33.426	1609.166	1371.822
-28.867	33.307	1608.958	1370.727
-27.852	33.432	1605.658	1368.769
-26.838	33.287	1604.664	1366.814
-25.823	33.423	1603.977	1367.161
-24.809	33.285	1602.832	1365.134
-23.794	33.217	1601.230	1363.226
-22.779	33.391	1598.564	1362.155
-21.765	33.312	1597.256	1360.416
-20.750	33.262	1595.883	1358.833
-19.736	33.125	1595.827	1357.750
-18.721	33.387	1593.827	1357.873
-17.706	33.221	1592.381	1355.394
-16.692	33.296	1590.531	1354.301
-15.677	33.085	1589.161	1351.574
-14.663	33.172	1588.352	1351.454
-13.648	33.217	1586.779	1350.388
-12.633	33.274	1584.987	1349.216
-11.619	33.401	1582.251	1347.734
-10.604	33.272	1582.156	1346.682
-9.590	33.231	1580.435	1344.870
-8.575	33.349	1579.139	1344.557
-7.560	33.208	1579.654	1343.935
-6.546	33.363	1576.811	1342.567
-5.531	33.279	1576.494	1341.645
-4.517	33.173	1574.480	1339.129
-3.502	33.431	1572.610	1339.305
-2.487	33.405	1571.127	1337.811
-1.473	32.953	1559.915	1325.039
-0.458	30.052	1540.674	1288.504
0.556	27.557	1539.383	1256.084
1.571	24.854	1563.069	1256.351
2.586	24.566	1575.326	1264.056
3.600	21.679	1522.092	1201.461
4.615	12.638	1413.300	1057.646
5.629	4.305	1348.987	958.137
6.644	3.010	1340.546	944.110
7.659	2.764	1339.504	941.780
8.673	2.985	1337.405	941.579
9.688	3.001	1335.549	940.284
10.702	2.732	1332.811	936.633
11.717	6.202	1339.733	962.680
12.731	15.922	1357.669	1035.525
13.746	23.512	1369.861	1091.634
14.761	25.456	1371.755	1105.019
15.775	25.754	1371.677	1106.687
16.790	25.814	1371.803	1107.063
17.804	25.770	1370.451	1105.603
18.819	26.036	1370.512	1107.185
19.834	26.091	1370.722	1107.592
20.848	25.936	1369.364	1105.451
21.863	26.097	1368.377	1105.541
22.877	26.175	1367.857	1105.497
23.892	25.992	1367.738	1104.183
24.907	26.178	1366.596	1104.301
25.921	25.959	1364.790	1101.408
26.936	26.130	1363.797	1101.552
27.950	26.127	1362.686	1100.538
28.965	26.108	1362.337	1100.045
29.980	26.199	1361.087	1099.493
30.994	26.341	1359.925	1099.324
32.009	26.246	1358.889	1097.807
33.023	26.189	1358.204	1096.814
34.038	26.356	1356.460	1096.322
35.053	26.295	1355.080	1094.738
36.067	26.370	1354.194	1094.379
37.082	26.133	1354.980	1093.484
38.096	26.167	1353.270	1092.213
39.111	26.073	1351.380	1090.021
40.126	26.226	1350.620	1090.235
41.140	26.199	1350.703	1090.041
42.155	26.224	1349.455	1089.088
43.169	26.029	1350.399	1088.581
44.184	26.261	1350.473	1089.941
45.199	26.199	1349.481	1088.668
46.213	26.487	1348.571	1089.576
47.228	26.434	1346.879	1087.794
48.242	26.168	1348.243	1087.196
49.257	26.241	1345.217	1085.096
50.271	26.249	1344.381	1084.377
51.286	26.004	1343.115	1081.791
52.301	25.973	1342.170	1080.744
53.315	26.234	1341.485	1081.666
54.330	26.424	1339.440	1081.055
55.344	26.375	1339.007	1080.318
56.359	26.236	1337.838	1078.451
57.374	26.103	1337.655	1077.414
58.388	26.315	1336.274	1077.467
59.403	26.246	1336.162	1076.873
60.417	26.199	1335.379	1075.866
61.432	26.255	1334.376	1075.294
62.447	26.324	1333.144	1074.615
63.461	26.366	1332.260	1074.059
64.476	26.386	1331.951	1073.834
65.490	26.323	1330.834	1072.466
66.505	26.303	1329.012	1070.785
67.520	26.145	1328.201	1069.097
68.534	26.553	1325.654	1069.364
69.549	26.305	1325.196	1067.435
70.563	26.364	1325.367	1067.828
71.578	26.418	1324.698	1067.514
72.593	26.522	1322.635	1066.369
73.607	26.100	1322.963	1064.051
74.622	26.215	1322.834	1064.533
75.636	26.530	1320.479	1064.395
76.651	26.703	1318.947	1064.079
77.666	26.350	1319.634	1062.468
78.680	26.545	1318.121	1062.302
79.695	26.147	1319.005	1060.579
80.709	26.359	1318.100	1061.002
81.724	26.594	1316.432	1060.944
82.739	26.463	1314.968	1058.904
83.753	26.502	1314.114	1058.350
84.768	26.367	1314.165	1057.510
85.782	26.470	1312.424	1056.616
86.797	26.418	1311.575	1055.535
87.812	26.488	1309.520	1054.194
88.826	26.642	1308.524	1054.196
89.841	26.323	1308.912	1052.561
90.855	26.598	1306.949	1052.485
91.870	26.471	1306.581	1051.359
92.884	26.411	1305.104	1049.729
93.899	26.564	1303.450	1049.190
94.914	26.554	1303.723	1049.262
95.928	26.542	1302.613	1048.206
96.943	26.704	1302.220	1048.735
97.957	26.610	1300.965	1047.085
98.972	26.698	1300.948	1047.488
99.987	26.537	1299.253	1045.102
101.001	26.700	1298.576	1045.408
102.016	26.572	1297.579	1043.771
103.030	26.562	1295.637	1042.061
104.045	26.457	1295.435	1041.201
105.060	26.592	1293.697	1040.488
106.074	26.676	1292.385	1039.824
107.089	26.566	1291.765	1038.600
108.103	26.577	1291.828	1038.625
109.118	26.618	1290.780	1037.925
110.133	26.552	1288.970	1035.997
111.147	26.605	1287.548	1035.065
112.162	26.576	1287.467	1034.744
113.176	26.940	1285.068	1034.803
114.191	26.440	1284.895	1031.720
115.206	26.597	1283.402	1031.321
116.220	26.686	1281.938	1030.562
117.235	26.802	1281.507	1030.783
118.249	26.571	1280.124	1028.271
119.264	26.523	1279.238	1027.194
120.279	26.463	1278.721	1026.348
121.293	26.562	1277.530	1025.864
122.308	26.541	1277.420	1025.565
123.322	26.532	1275.607	1023.967
124.337	26.613	1275.180	1023.989
125.352	26.646	1273.859	1023.028
126.366	26.518	1273.062	1021.570
127.381	26.543	1272.096	1020.851
128.395	26.503	1271.671	1020.191
129.410	26.652	1270.118	1019.695
130.424	26.773	1268.950	1019.345
131.439	26.707	1268.817	1018.777
132.454	26.421	1267.954	1016.391
133.468	26.651	1267.619	1017.320
134.483	26.760	1266.728	1017.129
135.497	26.797	1265.918	1016.597
136.512	26.666	1265.366	1015.331
137.527	26.577	1264.292	1013.879
138.541	26.648	1262.633	1012.858
139.556	26.808	1260.952	1012.309
140.570	26.721	1260.279	1011.196
141.585	26.808	1258.041	1009.794
142.600	26.592	1257.831	1008.333
143.614	26.732	1257.104	1008.440
144.629	26.635	1257.188	1007.879
145.643	26.862	1254.380	1006.797
146.658	26.696	1254.610	1005.971
147.673	26.803	1253.445	1005.546
148.687	26.656	1252.212	1003.650
149.702	26.968	1250.746	1004.115
150.716	26.516	1250.834	1001.596
151.731	26.619	1247.950	999.767
152.746	26.528	1247.920	999.148
153.760	26.916	1246.669	1000.197
154.775	26.906	1246.121	999.619
155.789	26.887	1246.588	999.800
156.804	26.911	1244.800	998.409
157.819	26.772	1243.380	996.415
158.833	26.523	1243.063	994.706
159.848	26.926	1241.879	995.879
160.862	26.561	1242.545	994.324
161.877	26.726	1240.494	993.500
162.892	26.784	1240.002	993.332
163.906	26.779	1239.557	992.861
164.921	26.943	1238.042	992.459
165.935	26.860	1237.254	991.284
166.950	26.828	1237.596	991.299
167.964	26.710	1236.801	989.928
168.979	26.783	1236.890	990.310
169.994	26.996	1234.395	989.384
171.008	27.061	1234.489	989.726
172.023	27.134	1233.245	989.042
173.037	26.854	1232.744	987.029
174.052	26.867	1232.583	986.882
175.067	26.941	1231.988	986.721
176.081	26.940	1230.942	985.792
177.096	26.909	1229.147	984.097
178.110	26.819	1229.229	983.587
179.125	26.748	1228.069	982.188
180.140	27.125	1225.981	982.472
181.154	26.770	1225.880	980.382
182.169	26.650	1224.492	978.535
183.183	26.798	1223.213	978.228
184.198	26.960	1222.676	978.584
185.213	26.862	1222.041	977.462
186.227	27.161	1221.230	978.339
187.242	27.496	1220.062	979.117
188.256	27.014	1219.087	975.656
189.271	26.816	1218.359	973.927
190.286	27.056	1217.021	974.057
191.300	27.052	1215.887	973.041
192.315	26.994	1216.874	973.437
193.329	27.145	1217.693	974.814
194.344	27.296	1215.541	973.812
195.359	26.950	1214.300	970.883
196.373	27.019	1213.787	970.757
197.388	26.619	1215.494	969.890
198.402	26.761	1214.554	969.814
199.417	27.042	1213.764	970.600
200.432	26.929	1213.078	969.361
201.446	26.594	1213.375	967.723
202.461	26.765	1211.625	967.156
203.475	26.915	1210.509	966.979
204.490	26.922	1209.197	965.885
205.504	27.027	1208.628	965.899
206.519	27.196	1207.333	965.679
207.534	27.061	1206.088	963.882
208.548	26.793	1205.899	962.222
209.563	26.761	1205.342	961.524
210.577	26.840	1204.921	961.523
211.592	27.267	1202.928	962.103
212.607	27.336	1202.073	961.703
213.621	26.925	1201.860	959.273
214.636	26.833	1201.420	958.348
215.650	26.847	1200.675	957.746
216.665	26.771	1200.607	957.203
217.680	26.934	1199.242	956.893
218.694	26.930	1198.816	956.444
219.709	26.805	1197.054	954.297
220.723	27.027	1196.183	954.685
221.738	27.048	1195.488	954.160
222.753	26.973	1194.988	953.282
223.767	26.880	1194.918	952.654
224.782	27.057	1194.416	953.099
225.796	27.307	1193.709	953.757
226.811	27.081	1193.245	952.119
227.826	27.191	1191.973	951.594
228.840	27.121	1192.351	951.444
229.855	27.151	1191.101	950.520
230.869	27.410	1190.123	951.011
231.884	27.247	1189.441	949.531
232.899	27.057	1188.037	947.335
233.913	26.824	1188.188	946.154
234.928	27.094	1188.507	947.733
235.942	27.265	1187.593	947.812
236.957	27.052	1186.249	945.548
237.972	26.977	1184.855	943.962
238.986	26.930	1184.674	943.493
240.001	26.986	1184.352	943.444
241.015	27.479	1183.159	944.969
242.030	27.169	1183.428	943.492
243.045	27.182	1182.746	942.928
244.059	27.372	1182.368	943.531
245.074	27.356	1181.009	942.278
246.088	27.373	1179.925	941.420
247.103	27.538	1179.450	941.811
248.117	27.455	1178.461	940.506
249.132	27.488	1177.972	940.204
250.147	27.490	1177.805	939.999
251.161	27.662	1176.825	940.018
252.176	27.395	1175.691	937.658
253.190	27.561	1175.709	938.444
254.205	27.684	1173.601	937.307
255.220	27.897	1173.131	937.944
256.234	27.955	1173.503	938.457
257.249	27.473	1172.495	935.091
258.263	27.570	1172.402	935.435
259.278	27.939	1171.800	936.765
260.293	27.718	1171.013	934.918
261.307	27.446	1170.723	933.211
262.322	27.670	1170.628	934.201
263.336	27.772	1169.751	933.941
264.351	27.888	1168.473	933.430
265.366	27.677	1168.940	932.641
266.380	27.654	1167.892	931.607
267.395	27.681	1167.251	931.151
268.409	27.283	1166.694	928.593
269.424	27.614	1166.281	929.871
270.439	27.687	1165.374	929.436
271.453	27.734	1164.447	928.854
272.468	27.665	1163.296	927.500
273.482	27.518	1163.238	926.628
274.497	27.482	1162.988	926.160
275.512	27.463	1162.104	925.282
276.526	27.642	1160.669	924.964
277.541	27.896	1160.609	926.125
278.555	27.783	1160.853	925.662
279.570	27.849	1159.953	925.198
280.585	27.751	1159.021	923.876
281.599	27.679	1157.663	922.349
282.614	27.549	1157.250	921.280
283.628	27.598	1155.958	920.414
284.643	27.649	1154.940	919.781
285.657	27.736	1154.153	919.510
286.672	27.676	1153.942	918.960
287.687	27.880	1152.107	918.446
288.701	27.687	1151.823	917.167
289.716	27.910	1150.616	917.244
290.730	27.878	1150.851	917.188
291.745	27.782	1150.471	916.322
292.760	27.803	1149.238	915.364
293.774	27.911	1149.129	915.738
294.789	28.031	1148.564	915.808
295.803	28.054	1147.974	915.373
296.818	27.654	1148.247	913.504
297.833	27.729	1146.902	912.730
298.847	27.958	1145.798	912.915
299.862	27.969	1144.922	912.190
300.876	27.721	1144.868	910.831
301.891	27.968	1143.607	910.975
302.906	28.112	1143.825	911.786
303.920	28.160	1142.460	910.859
304.935	28.181	1141.871	910.410
305.949	28.349	1140.310	909.919
306.964	28.069	1140.365	908.494
307.979	27.899	1139.901	907.202
308.993	27.740	1140.306	906.651
310.008	28.039	1138.610	906.708
311.022	27.913	1138.332	905.782
312.037	28.083	1137.512	905.888
313.052	27.835	1136.207	903.542
314.066	27.902	1135.824	903.491
315.081	27.548	1134.521	900.622
316.095	27.903	1133.576	901.548
317.110	27.914	1133.658	901.586
318.125	27.780	1132.609	900.011
319.139	28.005	1132.541	900.985
320.154	27.771	1131.804	899.167
321.168	27.580	1131.584	897.974
322.183	27.831	1130.778	898.487
323.197	27.760	1130.654	897.961
324.212	27.746	1130.081	897.359
325.227	27.935	1129.023	897.366
326.241	28.045	1127.663	896.745
327.256	27.532	1127.612	894.108
328.270	27.539	1126.489	893.177
329.285	27.724	1126.288	893.845
330.300	27.937	1124.617	893.479
331.314	27.653	1124.600	891.999
332.329	28.064	1122.560	892.310
333.343	28.056	1122.433	892.087
334.358	27.951	1122.097	891.231
335.373	28.015	1121.333	890.858
336.387	27.829	1121.172	889.744
337.402	28.109	1120.026	890.119
338.416	28.362	1118.259	889.866
339.431	27.972	1118.320	887.939
340.446	28.082	1118.500	888.540
341.460	27.999	1118.519	888.072
342.475	28.107	1117.006	887.314
343.489	28.308	1114.847	886.497
344.504	28.125	1115.191	885.804
345.519	28.044	1113.779	884.213
346.533	28.086	1114.440	884.863
347.548	28.183	1112.742	883.905
348.562	28.203	1112.497	883.727
349.577	28.301	1110.409	882.462
350.592	28.198	1109.968	881.541
351.606	27.821	1109.166	879.010
352.621	27.931	1109.661	879.854
353.635	28.057	1108.471	879.439
354.650	28.013	1107.302	878.223
355.665	28.086	1107.200	878.411
356.679	27.811	1106.961	876.825
357.694	27.791	1107.148	876.797
358.708	27.992	1105.411	876.312
359.723	28.233	1105.029	877.086
360.738	27.930	1104.214	874.910
361.752	28.158	1102.946	874.920
362.767	28.096	1103.426	874.926
363.781	28.044	1102.347	873.744
364.796	28.379	1101.600	874.675
365.810	28.425	1101.492	874.728
366.825	28.203	1100.451	872.767
367.840	28.049	1101.004	872.393
368.854	28.256	1099.793	872.343
369.869	28.082	1099.289	871.037
370.883	28.169	1098.010	870.362
371.898	28.144	1097.403	869.683
372.913	28.090	1096.419	868.571
373.927	28.072	1096.294	868.311
374.942	28.114	1096.341	868.472
375.956	28.196	1095.014	867.729
376.971	27.940	1094.548	866.070
377.986	28.171	1093.597	866.335
379.000	28.206	1094.538	867.168
380.015	28.366	1093.126	866.732
381.029	28.142	1092.884	865.402
382.044	28.329	1090.668	864.457
383.059	28.047	1092.096	864.175
384.073	28.084	1091.154	863.531
385.088	28.217	1089.873	863.066
386.102	27.855	1089.349	860.871
387.117	27.981	1087.664	860.055
388.132	27.953	1087.319	859.574
389.146	28.257	1085.270	859.307
390.161	27.910	1085.567	857.835
391.175	28.040	1084.818	857.777
392.190	27.884	1085.559	857.556
393.205	28.197	1084.814	858.360
394.219	28.217	1082.879	856.845
395.234	27.950	1082.633	855.327
396.248	28.056	1080.793	854.292
397.263	27.894	1080.333	853.094
398.278	27.995	1080.105	853.310
399.292	28.208	1078.848	853.235
400.307	27.900	1078.721	851.622
401.321	27.814	1078.752	851.170
402.336	27.728	1077.751	849.904
403.350	27.958	1076.736	850.100
404.365	27.758	1076.866	849.200
405.380	28.130	1075.073	849.437
406.394	27.923	1074.404	847.870
407.409	27.948	1073.748	847.394
408.423	28.194	1073.730	848.446
409.438	28.293	1072.426	847.798
410.453	28.219	1072.223	847.223
411.467	28.202	1071.431	846.444
412.482	28.266	1070.328	845.794
413.496	27.957	1070.122	844.128
414.511	28.065	1069.683	844.204
415.526	28.141	1068.716	843.715
416.540	28.262	1068.086	843.701
417.555	28.083	1067.961	842.703
418.569	28.176	1067.596	842.769
419.584	28.364	1067.016	843.102
420.599	27.851	1067.256	840.858
421.613	152.503	1405.120	1793.896
422.628	140.322	1454.352	1793.905
