DTS Sentinel unit serial number:	SN413079Multiplexer serial number:	ORYXHardware model number:	OX4-SRSoftware version number:	ORYX F/W v4.00 Oryx Data Collector v3.7.2.0data status	okinstallation	princeton_trtdifferential loss correction	single-endedforward channel	channel 2reverse channel	N/Adate	2019/09/18time	14:39:35forward acquisition time	60.00reverse acquisition time	0.00gamma	496.2192k internal	0.2318k external	0.2318temperature offset calibration	0.9997default loss term (dB/km)	0.3790temperature slope calibration	1.0000multiplexer offset coefficient	1.0000multiplexer slope coefficient	1.0000fibre end	0.00T internal ref (°C)	34.67T ext. ref 1 (°C)	0.70T ext. ref 2 (°C)	32.51length (m)	temperature (°C)	Stokes	anti-Stokes-747.200	-157.583	0.454	-0.027
-746.185	-88.687	0.049	-0.015
-745.171	505.119	0.121	0.283
-744.156	-200.000	-0.075	0.353
-743.142	-144.192	0.152	-0.014
-742.127	-176.042	0.340	0.009
-741.112	-200.000	0.056	-0.276
-740.098	-200.000	0.022	0.471
-739.083	-56.698	0.395	0.177
-738.069	-200.000	0.020	0.351
-737.054	-200.000	-0.006	0.233
-736.039	138.513	-0.138	0.183
-735.025	-200.000	-0.054	-0.244
-734.010	260.560	-0.224	-0.393
-732.996	51.914	-0.094	-0.091
-731.981	171.071	-0.066	-0.096
-730.966	-200.000	0.008	-0.379
-729.952	-100.659	-0.151	-0.038
-728.937	119.042	-0.082	0.103
-727.923	-33.497	-0.254	0.142
-726.908	-5.631	-0.259	-0.179
-725.894	-102.453	0.154	0.037
-724.879	781.535	-0.104	-0.287
-723.864	-20.711	-0.157	0.098
-722.850	14.103	-0.272	-0.214
-721.835	-200.000	-0.010	-0.096
-720.821	130.237	-0.246	-0.319
-719.806	-17.273	0.334	0.213
-718.791	72.369	-0.377	-0.397
-717.777	56.277	-0.259	0.254
-716.762	-175.144	0.137	0.004
-715.748	1.196	0.203	-0.147
-714.733	-8.109	-0.120	0.082
-713.718	-200.000	0.037	-0.192
-712.704	-55.359	0.119	0.054
-711.689	-200.000	0.018	-0.277
-710.675	67.987	-0.153	0.158
-709.660	800.000	-0.085	-0.273
-708.645	800.000	0.081	-0.244
-707.631	800.000	0.011	0.040
-706.616	333.525	0.108	0.212
-705.602	157.442	-0.056	-0.079
-704.587	-200.000	-0.079	-0.443
-703.572	-59.826	-0.088	-0.038
-702.558	585.924	0.091	-0.225
-701.543	143.809	-0.156	0.210
-700.529	94.787	0.182	-0.210
-699.514	800.000	0.060	0.263
-698.499	421.497	0.068	0.148
-697.485	-23.375	0.066	0.040
-696.470	-52.274	0.168	0.078
-695.456	143.777	-0.115	-0.155
-694.441	203.344	0.069	-0.107
-693.426	226.002	0.039	-0.065
-692.412	-48.602	-0.161	-0.078
-691.397	-116.015	-0.236	-0.044
-690.383	-6.119	-0.140	0.096
-689.368	-4.373	0.217	-0.152
-688.354	587.180	-0.105	0.261
-687.339	187.558	-0.165	-0.249
-686.324	-3.763	0.180	0.126
-685.310	-92.715	-0.079	-0.022
-684.295	-130.564	0.175	-0.024
-683.281	-74.194	-0.204	-0.074
-682.266	-76.437	-0.089	-0.031
-681.251	39.760	0.069	0.062
-680.237	-200.000	0.036	0.174
-679.222	-200.000	-0.037	0.336
-678.208	-7.712	-0.231	0.157
-677.193	43.601	0.234	0.216
-676.178	-200.000	0.024	-0.139
-675.164	800.000	0.040	0.159
-674.149	231.357	-0.099	-0.164
-673.135	800.000	0.053	-0.199
-672.120	270.091	0.111	-0.197
-671.105	-54.085	-0.344	0.158
-670.091	8.109	-0.432	0.327
-669.076	800.000	0.100	0.304
-668.062	-97.355	-0.306	-0.080
-667.047	-108.987	-0.216	0.047
-666.032	10.377	-0.437	-0.336
-665.018	151.821	0.293	-0.403
-664.003	-140.012	-0.461	0.049
-662.989	-200.000	-0.015	-0.301
-661.974	-154.916	-0.293	-0.019
-660.959	-200.000	0.009	-0.183
-659.945	800.000	0.105	-0.356
-658.930	24.193	0.224	-0.187
-657.916	191.735	0.247	0.376
-656.901	800.000	-0.027	0.085
-655.886	-200.000	-0.006	-0.173
-654.872	105.712	-0.341	-0.406
-653.857	55.556	-0.034	-0.033
-652.843	19.879	0.038	-0.031
-651.828	-200.000	0.002	0.108
-650.814	-200.000	-0.033	0.161
-649.799	-200.000	0.068	0.330
-648.784	800.000	-0.074	0.218
-647.770	52.797	-0.113	-0.109
-646.755	-117.699	0.185	0.034
-645.741	-200.000	0.008	0.140
-644.726	-141.563	-0.199	-0.020
-643.711	-88.855	-0.229	0.068
-642.697	135.344	-0.263	0.345
-641.682	800.000	-0.121	-0.484
-640.668	73.584	0.052	-0.055
-639.653	-200.000	-0.012	0.149
-638.638	113.926	0.058	-0.071
-637.624	-168.663	0.108	0.004
-636.609	800.000	0.119	-0.348
-635.595	-13.591	-0.081	-0.053
-634.580	640.325	-0.081	0.208
-633.565	182.369	0.275	0.409
-632.551	-15.493	0.229	0.148
-631.536	-30.407	0.206	-0.118
-630.522	-96.888	-0.178	0.047
-629.507	-200.000	0.003	-0.277
-628.492	-124.996	-0.231	0.036
-627.478	800.000	-0.064	0.280
-626.463	-116.482	0.318	-0.059
-625.449	-136.263	-0.156	0.018
-624.434	740.483	0.059	-0.159
-623.419	-108.348	0.182	-0.040
-622.405	141.793	-0.080	-0.106
-621.390	-79.767	-0.152	0.051
-620.376	151.415	-0.195	0.267
-619.361	800.000	0.010	0.030
-618.346	109.459	0.025	-0.030
-617.332	-39.728	0.378	-0.199
-616.317	-14.098	-0.231	-0.150
-615.303	800.000	-0.035	0.125
-614.288	78.341	-0.174	0.187
-613.273	-57.593	0.037	0.016
-612.259	423.642	0.096	-0.208
-611.244	105.717	-0.289	-0.344
-610.230	800.000	-0.104	-0.323
-609.215	376.305	0.029	0.060
-608.201	88.715	0.158	0.177
-607.186	-79.458	0.175	0.060
-606.171	208.528	-0.073	0.115
-605.157	49.866	0.059	-0.056
-604.142	608.449	-0.024	-0.061
-603.128	-16.858	0.128	-0.081
-602.113	154.236	-0.076	-0.105
-601.098	-76.008	-0.302	0.108
-600.084	-200.000	-0.030	-0.139
-599.069	-88.563	0.226	-0.068
-598.055	800.000	0.102	-0.351
-597.040	600.158	-0.056	-0.140
-596.025	800.000	-0.078	-0.242
-595.011	75.972	-0.179	-0.190
-593.996	800.000	-0.126	-0.535
-592.982	-200.000	-0.045	-0.293
-591.967	-98.600	-0.121	0.031
-590.952	-40.936	-0.198	0.103
-589.938	111.129	0.251	-0.304
-588.923	18.034	-0.192	0.154
-587.909	-29.988	-0.220	-0.126
-586.894	-178.110	0.313	-0.007
-585.879	-182.165	-0.089	0.002
-584.865	504.667	0.088	-0.205
-583.850	-200.000	-0.036	-0.197
-582.836	-200.000	-0.060	-0.327
-581.821	-11.210	-0.264	-0.175
-580.806	760.607	-0.026	-0.070
-579.792	82.757	-0.150	0.164
-578.777	8.340	0.048	0.037
-577.763	32.342	-0.117	-0.101
-576.748	-92.899	-0.157	-0.044
-575.733	250.406	-0.079	-0.135
-574.719	-183.869	0.220	-0.004
-573.704	-153.437	-0.274	-0.019
-572.690	23.240	0.184	-0.152
-571.675	695.370	0.205	0.541
-570.661	-167.142	0.065	0.003
-569.646	534.209	-0.161	0.383
-568.631	158.383	-0.131	0.183
-567.617	-80.862	0.207	-0.069
-566.602	-200.000	-0.026	-0.177
-565.588	-24.773	-0.206	0.123
-564.573	573.618	0.095	0.234
-563.558	62.606	-0.147	-0.148
-562.544	4.488	-0.253	-0.187
-561.529	-200.000	0.009	0.050
-560.515	646.239	-0.170	0.436
-559.500	13.639	-0.009	-0.007
-558.485	-100.490	-0.117	0.029
-557.471	-200.000	-0.016	-0.160
-556.456	-200.000	0.016	0.324
-555.442	-137.449	0.440	0.050
-554.427	280.847	0.040	0.073
-553.412	-200.000	-0.008	-0.085
-552.398	-170.365	0.227	0.008
-551.383	33.720	0.023	-0.020
-550.369	41.570	0.073	-0.066
-549.354	-182.674	0.322	-0.006
-548.339	-200.000	0.000	0.080
-547.325	75.148	-0.022	-0.023
-546.310	209.471	-0.171	-0.269
-545.296	406.687	-0.134	-0.285
-544.281	77.961	0.056	-0.060
-543.266	-77.764	-0.090	0.031
-542.252	-200.000	0.010	-0.107
-541.237	743.597	0.116	-0.313
-540.223	-23.285	-0.247	0.149
-539.208	596.465	-0.109	0.271
-538.193	800.000	0.030	-0.088
-537.179	293.746	-0.125	-0.229
-536.164	800.000	-0.005	0.017
-535.150	92.591	0.194	0.220
-534.135	267.461	0.089	-0.156
-533.121	55.847	0.074	-0.072
-532.106	-200.000	-0.014	0.094
-531.091	144.331	-0.229	-0.306
-530.077	-127.701	0.017	-0.002
-529.062	-104.789	-0.061	-0.014
-528.048	220.337	-0.063	0.101
-527.033	407.583	-0.021	0.045
-526.018	-55.012	0.166	0.075
-525.004	-100.792	-0.325	-0.080
-523.989	-125.796	0.186	-0.028
-522.975	-33.604	0.350	0.194
-521.960	-38.958	0.314	0.166
-520.945	271.503	0.028	0.050
-519.931	247.341	0.099	0.168
-518.916	800.000	0.015	-0.058
-517.902	5.915	-0.204	-0.151
-516.887	84.308	-0.077	0.085
-515.872	-200.000	0.013	0.124
-514.858	34.233	0.099	0.087
-513.843	-200.000	-0.005	-0.283
-512.829	-89.735	0.183	-0.054
-511.814	-72.551	-0.295	-0.109
-510.799	-200.000	-0.055	0.286
-509.785	-114.527	0.117	-0.022
-508.770	-100.240	0.255	-0.064
-507.756	319.909	-0.089	0.170
-506.741	800.000	0.076	0.231
-505.726	136.738	-0.144	0.189
-504.712	130.230	0.121	0.156
-503.697	-116.268	-0.150	-0.028
-502.683	-55.912	0.264	-0.118
-501.668	125.038	-0.121	-0.153
-500.653	-37.325	0.152	-0.082
-499.639	307.538	-0.182	-0.341
-498.624	800.000	-0.052	0.173
-497.610	-42.152	-0.142	0.073
-496.595	-76.798	0.101	-0.036
-495.581	193.356	0.105	-0.159
-494.566	-68.121	-0.079	0.031
-493.551	-126.354	0.130	-0.019
-492.537	33.153	0.056	0.049
-491.522	-200.000	-0.016	-0.095
-490.508	185.967	0.144	0.215
-489.493	800.000	0.012	-0.043
-488.478	181.192	0.101	-0.149
-487.464	-188.766	-0.123	-0.002
-486.449	789.357	0.031	-0.086
-485.435	196.680	0.154	0.236
-484.420	-16.126	0.171	-0.109
-483.405	34.562	-0.118	-0.103
-482.391	28.175	0.066	0.056
-481.376	159.172	-0.042	-0.058
-480.362	17.719	0.136	0.108
-479.347	181.364	0.072	0.105
-478.332	-200.000	0.030	-0.159
-477.318	-30.233	-0.055	-0.031
-476.303	-28.926	-0.296	0.170
-475.289	-67.717	0.253	0.099
-474.274	48.591	0.270	-0.253
-473.259	305.804	0.063	-0.118
-472.245	163.371	-0.066	-0.093
-471.230	800.000	0.079	-0.304
-470.216	782.302	0.070	-0.193
-469.201	-200.000	-0.006	0.070
-468.186	16.716	-0.234	0.185
-467.172	-24.829	-0.162	0.096
-466.157	-200.000	0.011	-0.138
-465.143	-131.903	-0.132	-0.017
-464.128	-200.000	0.006	0.281
-463.113	-184.505	0.519	0.008
-462.099	-196.932	-0.031	0.000
-461.084	800.000	0.091	-0.323
-460.070	-87.346	0.244	-0.074
-459.055	346.482	-0.110	-0.217
-458.040	-200.000	-0.040	-0.271
-457.026	800.000	0.081	0.237
-456.011	36.670	-0.061	0.054
-454.997	-200.000	-0.025	0.231
-453.982	7.381	-0.060	-0.045
-452.968	-200.000	0.076	0.462
-451.953	-62.608	0.185	-0.077
-450.938	-118.361	-0.252	0.045
-449.924	3.874	-0.167	0.122
-448.909	800.000	-0.116	-0.378
-447.895	68.677	0.202	0.208
-446.880	485.128	-0.119	-0.272
-445.865	800.000	-0.083	-0.267
-444.851	-158.678	-0.143	-0.008
-443.836	-128.273	-0.169	-0.024
-442.822	-90.730	0.070	0.020
-441.807	-51.394	0.133	-0.062
-440.792	800.000	-0.109	0.400
-439.778	4.897	0.195	-0.143
-438.763	800.000	0.039	-0.163
-437.749	-200.000	0.024	-0.146
-436.734	591.463	-0.095	-0.235
-435.719	-200.000	0.085	-0.378
-434.705	800.000	0.107	0.443
-433.690	69.708	-0.123	0.127
-432.676	-200.000	0.003	0.254
-431.661	626.059	-0.034	0.085
-430.646	-15.007	-0.124	-0.079
-429.632	800.000	0.058	0.166
-428.617	-200.000	0.039	-0.289
-427.603	23.099	-0.221	0.181
-426.588	-109.787	-0.208	0.044
-425.573	-90.451	0.243	-0.070
-424.559	-66.761	-0.129	0.051
-423.544	1.342	0.127	-0.091
-422.530	-120.626	-0.109	0.019
-421.515	-200.000	0.028	-0.228
-420.500	5.671	-0.140	0.103
-419.486	-51.809	0.254	-0.118
-418.471	-104.830	0.246	-0.056
-417.457	126.614	-0.203	-0.257
-416.442	574.004	0.095	0.231
-415.428	-129.011	0.228	0.032
-414.413	-31.814	-0.312	-0.175
-413.398	-102.020	0.175	0.042
-412.384	-165.581	-0.236	-0.010
-411.369	259.168	-0.149	0.256
-410.355	800.000	0.023	0.096
-409.340	-200.000	-0.045	-0.262
-408.325	-200.000	0.024	0.107
-407.311	-45.338	0.194	0.096
-406.296	-117.690	-0.138	0.025
-405.282	-108.484	-0.043	0.009
-404.267	394.007	-0.048	-0.101
-403.252	-200.000	-0.008	0.278
-402.238	800.000	0.011	-0.034
-401.223	-136.451	0.135	0.016
-400.209	800.000	0.032	-0.094
-399.194	-144.432	-0.078	-0.007
-398.179	-65.186	0.132	0.053
-397.165	-200.000	0.039	0.223
-396.150	-96.208	0.087	0.023
-395.136	6.708	-0.166	0.123
-394.121	-200.000	-0.005	-0.023
-393.106	38.271	-0.188	-0.167
-392.092	148.319	-0.173	-0.233
-391.077	-93.506	0.120	-0.033
-390.063	800.000	0.063	0.232
-389.048	76.187	0.195	-0.206
-388.033	199.768	0.107	-0.164
-387.019	436.416	0.013	-0.027
-386.004	31.972	-0.034	0.029
-384.990	472.658	-0.199	-0.448
-383.975	24.770	-0.167	-0.138
-382.960	587.321	-0.090	0.221
-381.946	132.804	-0.109	-0.140
-380.931	-200.000	-0.006	0.098
-379.917	-174.910	-0.328	0.009
-378.902	16.032	0.039	0.030
-377.888	110.962	0.142	0.170
-376.873	39.550	0.029	0.026
-375.858	562.318	0.144	0.347
-374.844	197.786	-0.171	0.260
-373.829	-104.700	0.099	0.023
-372.815	5.665	-0.348	0.257
-371.800	-200.000	-0.020	0.144
-370.785	-29.434	0.264	0.150
-369.771	105.755	-0.204	-0.241
-368.756	340.734	-0.100	-0.195
-367.742	-145.859	0.339	-0.030
-366.727	-191.608	0.129	-0.001
-365.712	193.085	-0.136	-0.205
-364.698	-44.012	0.214	-0.107
-363.683	800.000	0.113	-0.320
-362.669	-133.160	0.280	0.035
-361.654	-49.072	-0.339	-0.162
-360.639	-52.703	-0.214	0.099
-359.625	-119.031	0.450	-0.079
-358.610	-134.913	-0.382	0.046
-357.596	-200.000	0.016	0.071
-356.581	-89.433	0.169	-0.050
-355.566	-81.525	0.489	-0.160
-354.552	46.559	0.300	-0.278
-353.537	800.000	0.087	-0.269
-352.523	-41.024	0.142	0.073
-351.508	2.686	0.142	0.102
-350.493	-200.000	-0.004	0.223
-349.479	2.280	-0.048	-0.035
-348.464	135.784	0.019	0.025
-347.450	393.302	-0.054	-0.113
-346.435	19.757	0.211	-0.169
-345.420	207.805	-0.129	0.202
-344.406	-19.714	0.273	0.168
-343.391	-200.000	-0.051	0.453
-342.377	390.202	-0.077	-0.159
-341.362	-8.466	-0.139	-0.093
-340.348	-200.000	0.011	-0.098
-339.333	30.204	0.250	0.212
-338.318	800.000	0.059	0.192
-337.304	-169.332	0.311	0.011
-336.289	-34.454	0.202	-0.111
-335.275	-64.456	-0.266	-0.108
-334.260	35.508	0.242	-0.211
-333.245	800.000	-0.081	0.271
-332.231	800.000	-0.087	0.284
-331.216	-113.154	0.110	-0.022
-330.202	-157.367	-0.239	-0.014
-329.187	293.857	0.086	-0.156
-328.172	-80.563	-0.063	0.021
-327.158	-69.215	0.075	-0.029
-326.143	317.383	-0.050	0.095
-325.129	74.453	0.252	0.264
-324.114	497.252	0.087	-0.198
-323.099	-200.000	-0.017	0.129
-322.085	-115.192	-0.098	-0.018
-321.070	29.290	0.303	-0.256
-320.056	-88.919	0.119	0.035
-319.041	8.393	-0.381	0.285
-318.026	176.505	-0.220	0.318
-317.012	-100.014	0.276	-0.069
-315.997	800.000	-0.082	0.271
-314.983	356.049	-0.101	0.200
-313.968	-121.326	-0.355	-0.059
-312.953	190.543	-0.072	-0.108
-311.939	-200.000	-0.006	0.059
-310.924	-1.046	0.262	-0.184
-309.910	25.190	0.181	0.150
-308.895	-76.728	-0.158	0.055
-307.880	-200.000	-0.006	0.149
-306.866	503.695	-0.058	0.134
-305.851	205.508	-0.083	0.128
-304.837	-113.541	0.120	-0.023
-303.822	288.518	-0.102	-0.183
-302.807	-200.000	-0.061	-0.297
-301.793	180.764	0.107	0.156
-300.778	238.539	0.157	0.259
-299.764	-200.000	-0.032	-0.267
-298.749	-102.399	-0.457	0.109
-297.735	434.298	0.126	0.271
-296.720	-82.463	0.339	0.110
-295.705	325.094	-0.146	0.277
-294.691	15.569	0.146	0.114
-293.676	791.326	-0.112	-0.306
-292.662	800.000	0.035	0.154
-291.647	-200.000	-0.039	-0.313
-290.632	-13.661	0.072	-0.046
-289.618	-117.882	-0.546	-0.097
-288.603	-181.798	0.640	-0.012
-287.589	800.000	-0.083	-0.273
-286.574	-32.203	0.176	-0.098
-285.559	800.000	0.037	0.136
-284.545	-106.204	-0.299	-0.067
-283.530	-200.000	-0.037	-0.380
-282.516	-200.000	0.035	0.164
-281.501	800.000	-0.060	-0.253
-280.486	57.374	-0.077	-0.075
-279.472	-81.124	-0.201	0.066
-278.457	617.222	-0.123	-0.306
-277.443	417.749	0.190	0.404
-276.428	-76.744	-0.388	-0.135
-275.413	70.377	0.035	0.036
-274.399	-100.394	0.344	0.085
-273.384	102.636	-0.242	-0.282
-272.370	-200.000	-0.026	-0.260
-271.355	263.798	-0.079	0.136
-270.340	-108.889	-0.190	0.040
-269.326	800.000	-0.059	0.185
-268.311	529.337	-0.095	-0.223
-267.297	125.412	-0.089	-0.112
-266.282	-65.579	0.236	0.094
-265.267	431.706	0.095	0.204
-264.253	256.186	-0.182	0.310
-263.238	271.460	-0.152	0.266
-262.224	800.000	0.041	-0.127
-261.209	-200.000	-0.001	0.226
-260.195	-103.123	-0.422	-0.099
-259.180	195.616	0.044	0.066
-258.165	-25.183	-0.219	0.129
-257.151	258.113	-0.109	0.187
-256.136	6.558	-0.258	0.191
-255.122	-121.724	0.262	0.043
-254.107	-200.000	0.020	0.124
-253.092	-200.000	0.029	-0.289
-252.078	121.546	0.105	0.129
-251.063	170.489	0.100	0.143
-250.049	800.000	-0.141	-0.415
-249.034	600.662	-0.092	-0.227
-248.019	-98.745	-0.251	-0.064
-247.005	-21.996	0.164	-0.099
-245.990	35.834	-0.174	-0.152
-244.976	-200.000	0.005	0.092
-243.961	57.359	0.224	0.217
-242.946	800.000	-0.128	-0.438
-241.932	184.167	0.038	0.056
-240.917	96.622	-0.149	0.170
-239.903	78.530	0.209	0.222
-238.888	17.214	0.242	-0.191
-237.873	592.187	0.021	-0.052
-236.859	-200.000	-0.022	-0.203
-235.844	-56.472	0.151	0.067
-234.830	-132.370	-0.276	0.035
-233.815	-78.069	0.131	0.045
-232.800	-106.719	-0.169	0.037
-231.786	-154.777	0.289	-0.019
-230.771	-160.613	0.106	-0.006
-229.757	-109.102	0.183	0.039
-228.742	-0.882	0.071	0.050
-227.727	-200.000	-0.009	-0.202
-226.713	509.585	0.071	-0.164
-225.698	-27.586	0.257	0.148
-224.684	-127.653	0.334	-0.048
-223.669	-56.864	-0.033	0.015
-222.655	-200.000	0.102	0.451
-221.640	-63.324	-0.208	0.085
-220.625	-143.006	0.083	-0.008
-219.611	-95.338	-0.355	0.095
-218.596	-160.142	-0.164	-0.009
-217.582	60.374	-0.178	-0.175
-216.567	61.230	0.244	0.241
-215.552	800.000	0.093	0.291
-214.538	800.000	-0.044	-0.133
-213.523	-106.827	-0.273	0.060
-212.509	-3.670	0.163	0.112
-211.494	-36.840	0.424	-0.226
-210.479	142.505	0.236	0.310
-209.465	-32.481	0.061	0.034
-208.450	-72.375	-0.168	0.062
-207.436	337.041	0.038	-0.072
-206.421	-14.518	0.182	-0.116
-205.406	-200.000	-0.005	-0.035
-204.392	-54.695	0.343	0.154
-203.377	-185.802	-0.309	0.005
-202.363	-200.000	0.015	-0.071
-201.348	-200.000	-0.010	-0.228
-200.333	-200.000	0.026	-0.118
-199.319	115.727	0.104	-0.126
-198.304	147.089	-0.038	-0.050
-197.290	-166.866	0.211	0.009
-196.275	-144.954	0.189	0.017
-195.260	-95.291	0.263	0.070
-194.246	-34.866	0.255	0.138
-193.231	-78.911	0.037	0.012
-192.217	-200.000	-0.030	-0.313
-191.202	147.878	0.210	0.280
-190.187	-95.897	0.194	-0.051
-189.173	354.570	0.005	0.011
-188.158	-160.610	-0.482	0.025
-187.144	139.029	-0.211	0.275
-186.129	92.760	-0.271	0.303
-185.114	126.054	0.055	0.069
-184.100	-110.034	-0.122	-0.025
-183.085	-200.000	0.021	0.098
-182.071	257.083	-0.106	-0.181
-181.056	-112.500	-0.119	0.023
-180.042	139.814	-0.205	0.268
-179.027	-200.000	-0.026	0.205
-178.012	-111.358	0.139	-0.028
-176.998	191.878	-0.118	-0.176
-175.983	-125.872	0.266	0.040
-174.969	-40.051	-0.253	-0.130
-173.954	-152.527	0.259	-0.018
-172.939	800.000	-0.052	0.154
-171.925	800.000	-0.090	0.297
-170.910	-200.000	0.011	-0.077
-169.896	-200.000	-0.013	0.176
-168.881	-170.603	0.143	-0.005
-167.866	55.224	-0.212	0.203
-166.852	800.000	-0.010	0.036
-165.837	800.000	0.084	-0.230
-164.823	72.563	-0.265	0.274
-163.808	-88.508	-0.387	-0.114
-162.793	-5.006	0.140	-0.096
-161.779	-143.575	-0.265	0.025
-160.764	-162.615	0.354	-0.017
-159.750	-200.000	0.022	0.162
-158.735	-36.686	-0.218	-0.116
-157.720	184.656	-0.151	0.221
-156.706	142.918	0.162	-0.213
-155.691	-200.000	-0.005	-0.173
-154.677	-139.079	0.016	0.002
-153.662	522.794	0.073	0.170
-152.647	-128.663	-0.182	0.026
-151.633	102.645	-0.201	0.232
-150.618	-81.860	-0.093	-0.030
-149.604	-48.396	-0.306	0.146
-148.589	-200.000	-0.034	0.171
-147.574	-3.721	-0.115	0.079
-146.560	-169.202	0.074	-0.003
-145.545	86.180	0.279	0.304
-144.531	461.442	-0.046	0.102
-143.516	-143.755	-0.135	0.013
-142.502	800.000	0.073	0.237
-141.487	800.000	0.015	-0.050
-140.472	-200.000	0.020	-0.104
-139.458	-40.969	-0.243	-0.124
-138.443	-60.542	-0.162	-0.068
-137.429	418.677	-0.079	-0.167
-136.414	409.810	0.180	-0.376
-135.399	24.098	0.021	0.017
-134.385	44.699	-0.027	-0.024
-133.370	210.619	0.015	-0.023
-132.356	135.339	0.061	0.078
-131.341	-134.656	-0.336	0.040
-130.326	-39.096	0.263	-0.137
-129.312	-122.004	0.182	-0.029
-128.297	-62.621	-0.376	0.154
-127.283	203.125	-0.053	0.081
-126.268	-200.000	-0.044	0.487
-125.253	-200.000	-0.038	0.171
-124.239	117.400	0.231	0.281
-123.224	95.807	-0.079	0.089
-122.210	-200.000	-0.013	0.198
-121.195	-200.000	0.022	0.198
-120.180	800.000	0.053	-0.226
-119.166	800.000	0.097	-0.290
-118.151	-12.240	-0.514	-0.332
-117.137	-37.774	0.108	-0.057
-116.122	-44.593	0.244	-0.121
-115.107	-118.866	0.313	0.054
-114.093	800.000	-0.056	-0.153
-113.078	800.000	0.055	-0.178
-112.064	14.710	0.147	0.114
-111.049	-21.145	0.070	-0.042
-110.034	-37.207	-0.208	-0.110
-109.020	-200.000	0.004	0.089
-108.005	-26.118	0.370	0.215
-106.991	-111.266	-0.254	-0.051
-105.976	150.917	0.166	0.223
-104.962	18.769	-0.111	-0.088
-103.947	-87.373	-0.202	0.060
-102.932	800.000	-0.099	0.325
-101.918	-200.000	-0.031	-0.144
-100.903	-116.416	-0.253	0.046
-99.889	302.193	-0.088	-0.161
-98.874	-102.658	-0.293	0.069
-97.859	-200.000	0.004	0.133
-96.845	-123.902	0.121	-0.019
-95.830	-89.842	-0.228	0.066
-94.816	174.611	-0.166	-0.237
-93.801	-152.169	0.185	-0.013
-92.786	98.242	-0.037	-0.042
-91.772	49.134	-0.046	0.043
-90.757	-200.000	-0.014	0.242
-89.743	800.000	0.101	-0.282
-88.728	-5.387	0.164	-0.111
-87.713	-171.826	-0.018	0.001
-86.699	-109.759	0.337	0.070
-85.684	-200.000	0.024	-0.306
-84.670	-39.439	0.196	-0.101
-83.655	-106.182	-0.300	0.066
-82.640	800.000	0.044	0.191
-81.626	-22.586	-0.224	-0.133
-80.611	-38.325	-0.164	-0.086
-79.597	800.000	-0.055	-0.158
-78.582	800.000	0.032	0.101
-77.567	-52.603	0.272	-0.124
-76.553	168.325	-0.098	-0.138
-75.538	435.853	-0.088	-0.188
-74.524	103.559	-0.120	0.139
-73.509	61.990	-0.274	0.270
-72.494	-132.199	-0.205	-0.026
-71.480	800.000	0.062	-0.207
-70.465	129.984	0.205	-0.259
-69.451	-65.485	-0.083	-0.033
-68.436	-140.376	0.348	0.036
-67.422	-200.000	-0.007	0.032
-66.407	-200.000	-0.023	-0.226
-65.392	-145.618	-0.153	0.013
-64.378	-153.336	-0.096	0.007
-63.363	-91.661	0.147	0.041
-62.349	-72.794	-0.124	0.045
-61.334	130.174	-0.773	-0.975
-60.319	7.089	0.105	0.077
-59.305	800.000	-0.375	-1.221
-58.290	282.822	0.518	0.916
-57.276	646.009	0.763	1.920
-56.261	-200.000	95.325	555.877
-55.246	527.517	1407.518	3269.730
-54.232	146.551	2638.766	3492.408
-53.217	106.630	2346.131	2742.112
-52.203	44.149	1952.999	1764.729
-51.188	37.887	1736.876	1520.741
-50.173	35.044	1691.819	1459.592
-49.159	50.930	1739.205	1623.633
-48.144	53.985	1756.871	1663.679
-47.130	37.568	1713.972	1497.986
-46.115	34.720	1698.612	1462.738
-45.100	34.523	1693.585	1456.844
-44.086	34.533	1690.424	1454.142
-43.071	34.542	1687.962	1452.033
-42.057	34.555	1685.195	1449.698
-41.042	34.676	1683.159	1448.811
-40.027	34.547	1681.478	1446.324
-39.013	34.499	1679.935	1444.580
-37.998	34.499	1678.054	1442.904
-36.984	34.569	1676.562	1442.091
-35.969	34.690	1674.597	1441.254
-34.954	34.772	1672.845	1440.312
-33.940	34.718	1670.911	1438.178
-32.925	34.671	1669.016	1436.139
-31.911	34.703	1667.676	1435.171
-30.896	34.655	1665.991	1433.306
-29.881	34.609	1664.269	1431.420
-28.867	34.664	1662.247	1430.033
-27.852	34.713	1660.643	1428.963
-26.838	34.682	1659.172	1427.410
-25.823	34.641	1658.083	1426.110
-24.809	34.670	1656.926	1425.273
-23.794	34.793	1654.871	1424.367
-22.779	34.631	1653.646	1422.053
-21.765	34.668	1651.887	1420.760
-20.750	34.663	1650.289	1419.287
-19.736	34.686	1649.260	1418.518
-18.721	34.770	1647.241	1417.350
-17.706	34.707	1645.760	1415.554
-16.692	34.706	1644.121	1414.079
-15.677	34.701	1642.758	1412.817
-14.663	34.781	1640.594	1411.484
-13.648	34.746	1639.602	1410.322
-12.633	34.666	1638.341	1408.589
-11.619	34.708	1636.672	1407.404
-10.604	34.731	1635.242	1406.293
-9.590	34.681	1634.105	1404.887
-8.575	34.690	1632.426	1403.453
-7.560	34.664	1631.537	1402.443
-6.546	34.748	1629.950	1401.641
-5.531	34.595	1629.723	1400.269
-4.517	34.710	1627.688	1399.307
-3.502	34.720	1626.728	1398.503
-2.487	34.734	1624.926	1396.998
-1.473	34.951	1614.060	1389.176
-0.458	32.622	1595.175	1356.133
0.556	27.499	1594.958	1321.310
1.571	24.683	1618.545	1319.972
2.586	23.501	1631.110	1321.296
3.600	20.813	1577.522	1258.383
4.615	11.706	1462.845	1105.497
5.629	2.735	1393.282	994.855
6.644	0.817	1383.852	975.674
7.659	0.699	1382.348	973.768
8.673	0.681	1381.761	973.148
9.688	0.613	1379.654	971.143
10.702	0.433	1376.806	967.900
11.717	4.243	1383.261	996.876
12.731	12.986	1396.864	1063.145
13.746	17.731	1403.089	1098.423
14.761	17.437	1401.152	1094.918
15.775	16.645	1398.447	1087.619
16.790	15.611	1396.061	1079.032
17.804	14.806	1393.627	1071.894
18.819	14.438	1392.364	1068.471
19.834	13.997	1391.415	1064.820
20.848	13.774	1389.812	1062.073
21.863	13.631	1388.316	1059.919
22.877	13.447	1387.175	1057.779
23.892	13.367	1386.292	1056.504
24.907	13.390	1385.444	1055.907
25.921	13.438	1384.334	1055.275
26.936	13.482	1383.017	1054.456
27.950	13.398	1382.667	1053.566
28.965	13.592	1381.854	1054.088
29.980	13.561	1380.355	1052.653
30.994	13.681	1379.680	1052.804
32.009	13.745	1378.815	1052.456
33.023	13.608	1377.434	1050.444
34.038	13.565	1376.542	1049.400
35.053	13.589	1375.660	1048.781
36.067	13.592	1374.301	1047.675
37.082	13.530	1373.881	1046.870
38.096	13.637	1372.540	1046.430
39.111	13.556	1371.389	1044.950
40.126	13.577	1370.361	1044.209
41.140	13.497	1369.982	1043.320
42.155	13.442	1369.572	1042.570
43.169	13.351	1369.476	1041.832
44.184	13.413	1369.139	1041.876
45.199	13.376	1368.447	1041.020
46.213	13.486	1368.041	1041.313
47.228	13.497	1367.010	1040.507
48.242	13.507	1365.760	1039.524
49.257	13.464	1364.180	1037.957
50.271	13.510	1362.397	1036.800
51.286	13.484	1361.546	1035.899
52.301	13.620	1359.971	1035.455
53.315	13.480	1358.940	1033.706
54.330	13.518	1358.073	1033.193
55.344	13.454	1356.699	1031.659
56.359	13.455	1356.136	1031.147
57.374	13.340	1355.405	1029.779
58.388	13.334	1354.448	1028.926
59.403	13.297	1354.148	1028.377
60.417	13.322	1353.070	1027.622
61.432	13.427	1351.578	1027.051
62.447	13.333	1351.135	1026.039
63.461	13.319	1349.725	1024.792
64.476	13.330	1348.551	1023.878
65.490	13.298	1347.603	1022.866
66.505	13.430	1345.654	1022.112
67.520	13.311	1344.798	1020.640
68.534	13.330	1344.038	1020.086
69.549	13.383	1342.796	1019.385
70.563	13.371	1341.447	1018.193
71.578	13.280	1340.600	1016.899
72.593	13.331	1339.597	1016.368
73.607	13.313	1338.720	1015.500
74.622	13.215	1337.867	1014.163
75.636	13.315	1337.281	1014.237
76.651	13.282	1336.395	1013.278
77.666	13.226	1336.006	1012.547
78.680	13.305	1335.347	1012.442
79.695	13.243	1334.537	1011.360
80.709	13.353	1333.302	1011.007
81.724	13.308	1332.815	1010.276
82.739	13.309	1331.951	1009.536
83.753	13.426	1330.984	1009.426
84.768	13.479	1329.507	1008.537
85.782	13.534	1328.424	1007.963
86.797	13.476	1327.033	1006.464
87.812	13.437	1325.759	1005.178
88.826	13.428	1324.525	1004.095
89.841	13.563	1323.564	1004.096
90.855	13.398	1322.762	1002.399
91.870	13.554	1321.843	1002.557
92.884	13.553	1320.983	1001.814
93.899	13.585	1320.059	1001.216
94.914	13.630	1319.236	1000.772
95.928	13.547	1318.730	999.801
96.943	13.591	1317.512	999.055
97.957	13.581	1316.502	998.143
98.972	13.439	1315.763	996.635
99.987	13.656	1314.308	996.753
101.001	13.527	1313.468	995.250
102.016	13.437	1313.166	994.396
103.030	13.506	1311.594	993.532
104.045	13.474	1310.754	992.614
105.060	13.536	1309.171	991.697
106.074	13.417	1308.722	990.560
107.089	13.319	1307.200	988.730
108.103	13.352	1306.139	988.042
109.118	13.406	1304.518	987.047
110.133	13.414	1303.120	985.952
111.147	13.398	1302.195	985.065
112.162	13.503	1300.428	984.269
113.176	13.409	1299.417	982.857
114.191	13.534	1298.032	982.465
115.206	13.455	1297.721	981.673
116.220	13.505	1296.074	980.637
117.235	13.602	1294.740	980.116
118.249	13.545	1294.111	979.214
119.264	13.412	1293.097	977.578
120.279	13.445	1291.879	976.763
121.293	13.399	1291.045	975.777
122.308	13.387	1290.082	974.892
123.322	13.472	1288.811	974.345
124.337	13.454	1287.923	973.477
125.352	13.542	1286.693	972.979
126.366	13.450	1285.816	971.689
127.381	13.524	1284.163	970.789
128.395	13.476	1283.412	969.857
129.410	13.443	1282.380	968.795
130.424	13.478	1281.602	968.329
131.439	13.548	1280.648	967.930
132.454	13.527	1280.086	967.300
133.468	13.481	1279.193	966.266
134.483	13.491	1278.163	965.466
135.497	13.504	1277.364	964.849
136.512	13.556	1275.697	963.810
137.527	13.523	1274.562	962.675
138.541	13.548	1272.856	961.444
139.556	13.626	1271.368	960.690
140.570	13.609	1270.489	959.838
141.585	13.652	1269.057	958.920
142.600	13.678	1268.202	958.345
143.614	13.770	1267.422	958.200
144.629	13.765	1265.974	956.989
145.643	13.618	1265.163	955.446
146.658	13.610	1264.133	954.539
147.673	13.604	1262.427	953.128
148.687	13.578	1261.081	951.880
149.702	13.561	1259.837	950.760
150.716	13.492	1258.898	949.572
151.731	13.532	1257.161	948.404
152.746	13.604	1256.015	947.872
153.760	13.613	1254.964	947.042
154.775	13.730	1253.308	946.376
155.789	13.714	1252.644	945.703
156.804	13.715	1251.369	944.662
157.819	13.688	1250.672	943.899
158.833	13.713	1249.810	943.306
159.848	13.762	1249.125	942.986
160.862	13.699	1247.600	941.394
161.877	13.675	1246.288	940.180
162.892	13.667	1245.633	939.560
163.906	13.652	1244.763	938.736
164.921	13.688	1243.643	938.012
165.935	13.779	1242.586	937.645
166.950	13.744	1241.700	936.696
167.964	13.674	1241.150	935.802
168.979	13.823	1240.234	935.868
169.994	13.866	1239.113	935.183
171.008	13.849	1238.503	934.544
172.023	13.884	1237.486	933.892
173.037	13.947	1237.131	933.893
174.052	13.928	1236.273	933.056
175.067	13.841	1235.392	931.823
176.081	13.816	1234.304	930.776
177.096	13.801	1233.255	929.821
178.110	13.854	1232.234	929.265
179.125	13.834	1231.244	928.325
180.140	13.870	1229.407	927.061
181.154	13.911	1228.219	926.309
182.169	13.965	1227.364	925.886
183.183	13.904	1226.037	924.460
184.198	14.140	1224.616	924.620
185.213	14.014	1223.874	923.278
186.227	14.055	1222.778	922.601
187.242	14.002	1222.050	921.672
188.256	14.106	1220.533	921.026
189.271	14.068	1219.750	920.143
190.286	14.000	1218.619	918.830
191.300	13.976	1217.718	917.938
192.315	13.839	1217.619	917.026
193.329	13.881	1216.926	916.653
194.344	13.905	1216.136	916.108
195.359	13.926	1215.434	915.613
196.373	13.987	1214.319	915.032
197.388	14.192	1213.892	915.758
198.402	14.090	1213.597	914.893
199.417	14.220	1212.491	914.693
200.432	14.277	1211.805	914.404
201.446	14.310	1211.032	913.921
202.461	14.262	1210.044	912.831
203.475	14.264	1209.244	912.157
204.490	14.383	1207.493	911.410
205.504	14.231	1206.868	910.024
206.519	14.371	1205.364	909.578
207.534	14.250	1204.291	908.025
208.548	14.230	1203.352	907.127
209.563	14.253	1202.931	906.855
210.577	14.323	1201.765	906.279
211.592	14.203	1201.159	905.088
212.607	14.384	1199.748	904.928
213.621	14.371	1199.314	904.447
214.636	14.415	1198.000	903.619
215.650	14.421	1197.364	903.090
216.665	14.493	1195.909	902.302
217.680	14.421	1195.346	901.406
218.694	14.454	1194.778	901.079
219.709	14.498	1193.747	900.460
220.723	14.513	1193.202	900.050
221.738	14.487	1192.608	899.379
222.753	14.495	1191.778	898.717
223.767	14.505	1191.082	898.171
224.782	14.594	1190.292	897.969
225.796	14.462	1189.896	896.884
226.811	14.585	1189.066	896.838
227.826	14.550	1188.062	895.814
228.840	14.651	1187.648	895.964
229.855	14.617	1186.849	895.103
230.869	14.569	1186.250	894.311
231.884	14.514	1185.350	893.263
232.899	14.661	1184.205	893.105
233.913	14.686	1183.482	892.613
234.928	14.569	1183.324	891.793
235.942	14.594	1182.564	891.271
236.957	14.593	1181.703	890.539
237.972	14.586	1181.282	890.106
238.986	14.586	1180.076	889.120
240.001	14.660	1179.398	888.923
241.015	14.586	1178.706	887.929
242.030	14.661	1177.694	887.489
243.045	14.633	1177.236	886.917
244.059	14.692	1176.544	886.629
245.074	14.667	1175.664	885.757
246.088	14.625	1174.679	884.711
247.103	14.698	1174.008	884.514
248.117	14.803	1173.053	884.270
249.132	14.892	1172.631	884.349
250.147	14.971	1171.977	884.193
251.161	14.919	1171.044	883.135
252.176	14.969	1170.277	882.744
253.190	14.940	1169.926	882.247
254.205	14.930	1169.299	881.645
255.220	15.037	1168.286	881.364
256.234	15.055	1168.151	881.280
257.249	15.162	1166.762	880.718
258.263	15.125	1166.216	880.035
259.278	15.192	1165.560	879.810
260.293	15.200	1165.037	879.381
261.307	15.194	1164.844	879.125
262.322	15.164	1163.916	878.191
263.336	15.292	1163.192	878.235
264.351	15.234	1162.385	877.247
265.366	15.366	1161.420	877.130
266.380	15.225	1161.238	876.177
267.395	15.210	1160.303	875.319
268.409	15.188	1159.841	874.776
269.424	15.210	1158.961	874.151
270.439	15.297	1158.497	874.178
271.453	15.230	1157.773	873.206
272.468	15.208	1156.714	872.212
273.482	15.235	1156.225	871.909
274.497	15.296	1155.573	871.654
275.512	15.332	1154.607	871.037
276.526	15.324	1153.868	870.363
277.541	15.352	1153.377	870.058
278.555	15.374	1152.271	869.261
279.570	15.490	1151.259	869.020
280.585	15.460	1150.743	868.399
281.599	15.525	1149.681	867.857
282.614	15.377	1148.959	866.474
283.628	15.398	1147.767	865.606
284.643	15.469	1146.646	865.047
285.657	15.450	1146.125	864.479
286.672	15.448	1145.335	863.801
287.687	15.605	1143.801	863.373
288.701	15.518	1143.613	862.707
289.716	15.576	1142.611	862.171
290.730	15.546	1142.057	861.524
291.745	15.665	1141.289	861.480
292.760	15.582	1140.653	860.494
293.774	15.650	1140.134	860.376
294.789	15.613	1139.517	859.646
295.803	15.600	1139.285	859.329
296.818	15.549	1138.756	858.592
297.833	15.564	1137.480	857.631
298.847	15.597	1136.460	856.956
299.862	15.723	1135.377	856.706
300.876	15.752	1135.210	856.651
301.891	15.686	1134.427	855.650
302.906	15.800	1133.629	855.547
303.920	15.976	1132.537	855.544
304.935	15.858	1132.185	854.603
305.949	15.700	1132.012	853.593
306.964	15.902	1130.919	853.722
307.979	15.815	1130.304	852.738
308.993	16.036	1129.089	852.864
310.008	15.910	1128.699	851.856
311.022	15.995	1127.682	851.443
312.037	15.950	1127.088	850.695
313.052	15.965	1126.072	849.925
314.066	16.061	1125.104	849.605
315.081	15.933	1124.111	848.134
316.095	15.849	1123.763	847.377
317.110	15.909	1123.039	847.056
318.125	15.889	1122.329	846.346
319.139	15.988	1121.385	846.058
320.154	15.922	1120.846	845.242
321.168	15.887	1120.647	844.843
322.183	15.921	1120.000	844.448
323.197	15.881	1119.462	843.771
324.212	15.949	1118.434	843.261
325.227	15.917	1117.926	842.642
326.241	15.923	1117.427	842.219
327.256	16.143	1115.949	842.133
328.270	15.950	1115.518	840.768
329.285	16.032	1114.245	840.146
330.300	16.039	1113.591	839.610
331.314	16.094	1112.604	839.065
332.329	16.117	1111.474	838.255
333.343	16.101	1110.469	837.344
334.358	16.166	1109.715	837.022
335.373	16.238	1108.974	836.746
336.387	16.101	1108.514	835.648
337.402	15.999	1107.918	834.621
338.416	16.342	1106.772	835.376
339.431	16.362	1106.001	834.819
340.446	16.214	1105.972	833.994
341.460	16.316	1104.506	833.316
342.475	16.381	1103.980	833.166
343.489	16.323	1103.466	832.419
344.504	16.313	1102.507	831.572
345.519	16.366	1101.890	831.295
346.533	16.393	1100.906	830.613
347.548	16.440	1100.024	830.104
348.562	16.491	1099.085	829.571
349.577	16.490	1098.239	828.855
350.592	16.368	1097.819	827.867
351.606	16.323	1097.361	827.227
352.621	16.414	1096.291	826.793
353.635	16.382	1095.811	826.202
354.650	16.400	1095.084	825.667
355.665	16.528	1093.819	825.266
356.679	16.545	1093.444	824.993
357.694	16.570	1093.024	824.728
358.708	16.654	1092.237	824.471
359.723	16.627	1091.774	823.912
360.738	16.585	1091.114	823.139
361.752	16.486	1090.713	822.280
362.767	16.669	1089.841	822.441
363.781	16.655	1089.510	822.051
364.796	16.536	1089.044	821.047
365.810	16.705	1087.975	820.990
366.825	16.681	1087.520	820.460
367.840	16.816	1086.901	820.574
368.854	16.701	1086.473	819.621
369.869	16.717	1086.038	819.295
370.883	16.732	1084.614	818.220
371.898	16.781	1084.078	817.982
372.913	16.858	1083.612	817.928
373.927	16.831	1082.905	817.195
374.942	16.829	1082.297	816.653
375.956	16.885	1082.178	816.759
376.971	16.902	1081.708	816.415
377.986	16.777	1080.816	815.067
379.000	16.969	1080.119	815.395
380.015	17.018	1079.549	815.125
381.029	17.047	1078.534	814.428
382.044	16.980	1078.298	813.856
383.059	17.025	1077.614	813.482
384.073	16.995	1077.002	812.805
385.088	17.099	1075.913	812.407
386.102	17.089	1074.943	811.559
387.117	17.094	1073.936	810.750
388.132	16.953	1073.060	809.342
389.146	16.945	1072.427	808.757
390.161	17.071	1071.721	808.751
391.175	16.992	1071.257	807.956
392.190	17.107	1070.239	807.662
393.205	17.126	1069.648	807.235
394.219	17.141	1068.798	806.594
395.234	17.132	1067.492	805.491
396.248	17.100	1066.688	804.666
397.263	17.157	1065.686	804.106
398.278	17.057	1064.910	802.976
399.292	17.107	1064.169	802.586
400.307	17.155	1063.538	802.265
401.321	17.092	1062.951	801.453
402.336	17.106	1062.450	801.071
403.350	17.216	1061.912	801.113
404.365	17.154	1061.376	800.345
405.380	17.237	1060.565	800.051
406.394	17.137	1060.064	799.133
407.409	17.244	1058.636	798.490
408.423	17.412	1057.749	798.538
409.438	17.353	1057.878	798.290
410.453	17.411	1056.932	797.774
411.467	17.363	1055.874	796.682
412.482	17.435	1055.135	796.389
413.496	17.332	1054.824	795.602
414.511	17.454	1054.165	795.608
415.526	17.537	1053.687	795.562
416.540	17.506	1053.174	794.960
417.555	17.508	1052.847	794.652
418.569	17.614	1052.124	794.530
419.584	17.604	1051.617	794.030
420.599	17.581	1050.906	793.316
421.613	99.241	1316.100	1444.373
422.628	91.372	1354.728	1444.479
