DTS Sentinel unit serial number:	SN413079Multiplexer serial number:	ORYXHardware model number:	OX4-SRSoftware version number:	ORYX F/W v4.00 Oryx Data Collector v3.7.2.0data status	okinstallation	princeton_trtdifferential loss correction	single-endedforward channel	channel 2reverse channel	N/Adate	2019/09/13time	18:43:35forward acquisition time	60.00reverse acquisition time	0.00gamma	496.2192k internal	0.2323k external	0.2323temperature offset calibration	1.0187default loss term (dB/km)	0.3790temperature slope calibration	1.0000multiplexer offset coefficient	1.0000multiplexer slope coefficient	1.0000fibre end	0.00T internal ref (°C)	32.72T ext. ref 1 (°C)	4.14T ext. ref 2 (°C)	25.90length (m)	temperature (°C)	Stokes	anti-Stokes-747.200	41.731	0.110	-0.101
-746.185	281.912	0.019	-0.035
-745.171	652.480	-0.092	-0.237
-744.156	348.795	-0.062	0.123
-743.142	13.787	-0.263	-0.207
-742.127	800.000	-0.103	0.387
-741.112	800.000	0.080	0.278
-740.098	-57.889	-0.371	-0.164
-739.083	18.537	-0.214	-0.173
-738.069	-131.205	-0.222	0.030
-737.054	-155.239	0.343	-0.023
-736.039	-200.000	0.052	-0.253
-735.025	72.654	0.109	0.115
-734.010	32.487	-0.243	0.212
-732.996	20.476	0.104	-0.085
-731.981	55.394	-0.280	-0.273
-730.966	800.000	0.084	-0.313
-729.952	-43.052	-0.227	0.116
-728.937	-33.580	-0.102	0.057
-727.923	6.467	-0.168	0.126
-726.908	375.433	-0.072	-0.148
-725.894	507.527	0.120	-0.281
-724.879	-166.447	0.126	-0.005
-723.864	72.457	0.091	-0.095
-722.850	603.080	0.083	-0.208
-721.835	-131.092	-0.390	0.052
-720.821	-110.610	0.445	-0.093
-719.806	270.504	0.123	-0.219
-718.791	36.305	0.120	0.107
-717.777	15.495	0.283	-0.224
-716.762	-95.729	-0.166	-0.045
-715.748	-111.429	-0.361	-0.074
-714.733	-200.000	-0.087	0.421
-713.718	-178.149	0.347	0.008
-712.704	193.511	0.261	-0.398
-711.689	-200.000	-0.002	-0.220
-710.675	30.430	-0.156	-0.134
-709.660	216.070	0.135	-0.217
-708.645	453.252	-0.120	-0.267
-707.631	65.750	0.063	0.064
-706.616	62.304	-0.204	-0.205
-705.602	356.492	-0.040	-0.080
-704.587	754.184	0.093	-0.254
-703.572	-200.000	0.043	0.297
-702.558	53.291	0.262	0.253
-701.543	58.799	-0.114	-0.113
-700.529	321.663	0.135	-0.259
-699.514	183.130	-0.149	-0.222
-698.499	-103.266	-0.293	-0.070
-697.485	-200.000	0.040	-0.197
-696.470	95.934	0.383	-0.441
-695.456	239.503	-0.153	-0.257
-694.441	800.000	0.068	-0.272
-693.426	-92.645	-0.127	-0.036
-692.412	-200.000	-0.005	0.181
-691.397	800.000	-0.028	-0.083
-690.383	-103.347	-0.144	-0.034
-689.368	233.200	-0.108	0.179
-688.354	131.158	0.114	-0.147
-687.339	-200.000	-0.002	-0.282
-686.324	800.000	0.125	-0.397
-685.310	-52.631	-0.145	-0.067
-684.295	292.944	0.057	-0.105
-683.281	-27.177	0.127	-0.074
-682.266	20.953	-0.216	0.176
-681.251	-64.985	-0.088	0.036
-680.237	37.498	-0.205	-0.183
-679.222	32.450	-0.133	-0.115
-678.208	724.058	0.029	0.079
-677.193	-29.305	-0.270	-0.156
-676.178	-105.924	-0.127	0.029
-675.164	-114.595	-0.203	-0.039
-674.149	-101.163	0.164	0.040
-673.135	10.601	0.336	0.258
-672.120	-200.000	-0.021	-0.375
-671.105	-200.000	-0.057	0.256
-670.091	-200.000	-0.026	0.174
-669.076	-2.943	-0.183	-0.129
-668.062	728.821	0.063	0.170
-667.047	-99.580	0.058	-0.015
-666.032	-159.359	0.519	0.029
-665.018	-88.561	0.103	0.031
-664.003	180.914	0.069	-0.102
-662.989	800.000	-0.072	0.271
-661.974	59.518	0.114	0.113
-660.959	770.958	-0.114	-0.312
-659.945	33.899	-0.103	0.090
-658.930	-200.000	0.014	-0.127
-657.916	765.331	0.048	-0.131
-656.901	-61.591	0.126	-0.053
-655.886	800.000	-0.090	-0.264
-654.872	252.845	-0.323	-0.555
-653.857	-93.178	0.147	0.041
-652.843	800.000	-0.163	-0.502
-651.828	4.711	0.145	0.108
-650.814	-138.130	0.290	-0.032
-649.799	-89.088	0.314	0.093
-648.784	218.361	0.193	0.310
-647.770	256.354	0.168	-0.290
-646.755	797.087	-0.066	0.184
-645.741	-101.868	0.185	0.045
-644.726	456.717	0.114	0.255
-643.711	800.000	0.041	0.131
-642.697	51.580	0.129	-0.124
-641.682	528.145	-0.097	-0.229
-640.668	-98.130	0.267	-0.069
-639.653	-200.000	0.026	0.414
-638.638	-46.369	0.388	-0.192
-637.624	-192.234	-0.217	-0.002
-636.609	346.802	0.125	-0.248
-635.595	-200.000	-0.026	0.252
-634.580	-16.095	-0.151	0.096
-633.565	-200.000	0.015	-0.135
-632.551	192.613	-0.067	-0.101
-631.536	-142.179	0.171	-0.017
-630.522	-55.803	-0.201	-0.090
-629.507	66.906	-0.081	0.083
-628.492	-200.000	0.032	0.248
-627.478	800.000	0.128	0.361
-626.463	8.001	-0.108	0.081
-625.449	301.505	-0.074	0.137
-624.434	219.816	-0.123	0.197
-623.419	-200.000	0.010	0.133
-622.405	246.154	-0.095	-0.160
-621.390	-200.000	-0.027	0.138
-620.376	193.220	0.087	0.132
-619.361	-131.811	-0.236	0.031
-618.346	800.000	0.071	-0.261
-617.332	-197.616	-0.240	0.001
-616.317	800.000	0.055	-0.204
-615.303	42.456	0.258	-0.236
-614.288	-61.350	-0.297	-0.125
-613.273	-171.466	-0.404	-0.013
-612.259	308.673	-0.122	-0.228
-611.244	-200.000	0.050	-0.254
-610.230	-35.866	0.173	-0.094
-609.215	-200.000	0.001	-0.045
-608.201	-79.006	-0.426	-0.146
-607.186	-200.000	-0.053	-0.443
-606.171	212.281	-0.125	0.197
-605.157	-200.000	-0.032	0.142
-604.142	179.081	0.048	-0.070
-603.128	-37.690	0.136	-0.073
-602.113	123.553	0.172	-0.217
-601.098	-16.270	-0.177	-0.113
-600.084	215.306	-0.052	-0.083
-599.069	-61.609	-0.104	-0.044
-598.055	-200.000	0.001	-0.469
-597.040	69.798	0.288	0.298
-596.025	800.000	-0.059	-0.220
-595.011	-139.952	0.217	-0.023
-593.996	-127.352	-0.621	-0.091
-592.982	220.383	0.056	-0.091
-591.967	-200.000	-0.023	0.219
-590.952	-200.000	-0.031	-0.195
-589.938	-200.000	0.023	-0.224
-588.923	-68.497	-0.105	-0.041
-587.909	-92.900	-0.199	0.056
-586.894	34.965	0.244	-0.214
-585.879	-200.000	-0.027	0.290
-584.865	37.258	-0.036	-0.032
-583.850	800.000	0.084	0.338
-582.836	260.908	0.074	-0.128
-581.821	-200.000	-0.026	0.282
-580.806	-26.586	0.221	0.130
-579.792	-200.000	-0.010	0.319
-578.777	-148.991	-0.301	0.024
-577.763	-1.510	-0.134	0.095
-576.748	800.000	-0.088	0.282
-575.733	293.779	0.059	0.109
-574.719	-200.000	0.014	-0.216
-573.704	800.000	0.048	-0.143
-572.690	-77.246	-0.147	-0.051
-571.675	-157.866	-0.029	0.002
-570.661	-200.000	0.012	0.104
-569.646	-180.762	0.401	-0.008
-568.631	-47.117	0.260	0.127
-567.617	-99.100	-0.035	-0.009
-566.602	-80.750	-0.056	-0.019
-565.588	-114.773	0.286	-0.055
-564.573	37.967	0.098	-0.088
-563.558	214.294	-0.109	-0.173
-562.544	-200.000	0.014	-0.149
-561.529	-120.441	0.139	-0.024
-560.515	-68.959	-0.058	-0.023
-559.500	-88.592	0.237	-0.071
-558.485	-125.781	0.197	0.030
-557.471	394.466	-0.034	-0.071
-556.456	172.740	0.128	0.184
-555.442	239.803	-0.092	0.154
-554.427	223.924	-0.128	0.206
-553.412	-82.490	0.196	-0.064
-552.398	-143.728	-0.147	0.014
-551.383	1.773	0.099	0.071
-550.369	-93.658	0.334	-0.092
-549.354	-200.000	-0.035	-0.255
-548.339	-200.000	-0.010	-0.111
-547.325	-169.741	0.059	-0.002
-546.310	64.766	0.203	0.206
-545.296	28.999	0.105	0.090
-544.281	58.782	-0.240	-0.237
-543.266	-200.000	-0.022	-0.201
-542.252	192.507	-0.107	-0.161
-541.237	-200.000	0.000	-0.215
-540.223	351.576	0.106	-0.211
-539.208	-85.217	0.123	0.039
-538.193	397.319	0.079	0.166
-537.179	800.000	0.055	-0.170
-536.164	-74.444	-0.338	0.122
-535.150	87.686	-0.104	-0.116
-534.135	-12.667	-0.310	0.202
-533.121	-165.565	-0.066	-0.003
-532.106	192.923	0.222	-0.335
-531.091	-125.496	-0.261	-0.040
-530.077	299.658	0.049	-0.090
-529.062	159.295	-0.171	-0.238
-528.048	-74.606	-0.201	-0.072
-527.033	72.815	0.050	0.052
-526.018	-110.984	-0.384	-0.079
-525.004	-200.000	-0.007	-0.200
-523.989	-100.619	-0.491	-0.121
-522.975	-15.464	-0.087	-0.056
-521.960	373.704	0.187	0.380
-520.945	-200.000	0.028	-0.214
-519.931	-200.000	0.008	0.289
-518.916	-21.496	0.135	-0.082
-517.902	800.000	0.022	-0.079
-516.887	427.074	-0.062	0.135
-515.872	-184.368	0.235	-0.004
-514.858	-137.417	-0.195	-0.022
-513.843	213.917	0.053	0.084
-512.829	-200.000	-0.060	-0.424
-511.814	-110.212	-0.179	-0.037
-510.799	-57.083	0.140	0.062
-509.785	42.633	-0.163	-0.149
-508.770	646.634	-0.108	-0.275
-507.756	800.000	0.129	0.395
-506.741	422.806	0.104	-0.223
-505.726	352.981	0.065	-0.129
-504.712	-137.893	-0.095	0.011
-503.697	-84.350	-0.235	0.074
-502.683	-120.812	-0.060	0.010
-501.668	380.346	-0.101	-0.207
-500.653	-32.050	0.133	-0.074
-499.639	-200.000	-0.038	0.193
-498.624	-112.894	-0.112	-0.022
-497.610	-60.157	0.128	-0.055
-496.595	-200.000	-0.004	0.136
-495.581	26.477	0.118	-0.098
-494.566	462.274	0.074	0.165
-493.551	800.000	0.035	-0.137
-492.537	-127.559	-0.184	0.027
-491.522	-112.285	-0.506	-0.101
-490.508	36.937	-0.064	-0.057
-489.493	-9.369	-0.190	-0.127
-488.478	-10.930	0.224	-0.148
-487.464	-200.000	-0.025	0.161
-486.449	-6.763	-0.142	0.097
-485.435	-131.970	-0.244	-0.032
-484.420	-44.671	-0.167	-0.083
-483.405	638.743	-0.076	-0.193
-482.391	-63.593	0.349	-0.143
-481.376	26.266	-0.148	0.124
-480.362	-131.458	-0.259	0.034
-479.347	-96.853	0.120	-0.031
-478.332	-200.000	0.025	0.261
-477.318	-59.656	0.145	-0.062
-476.303	101.872	0.170	-0.199
-475.289	-135.621	-0.351	0.042
-474.274	179.300	-0.080	0.117
-473.259	-39.966	0.227	-0.118
-472.245	-156.630	-0.094	-0.006
-471.230	800.000	0.121	-0.438
-470.216	-41.629	-0.200	0.103
-469.201	735.510	0.157	0.421
-468.186	-23.968	-0.259	-0.155
-467.172	231.763	-0.172	-0.282
-466.157	800.000	-0.048	0.205
-465.143	-200.000	-0.002	0.027
-464.128	-97.722	0.123	-0.032
-463.113	-122.335	-0.337	-0.055
-462.099	-49.523	-0.309	-0.147
-461.084	-113.506	-0.244	0.048
-460.070	-94.561	0.055	-0.015
-459.055	246.551	0.090	-0.151
-458.040	94.932	0.178	-0.202
-457.026	549.045	0.092	-0.221
-456.011	800.000	0.022	-0.092
-454.997	407.087	0.113	-0.238
-453.982	-200.000	0.075	-0.372
-452.968	-200.000	0.047	0.392
-451.953	-106.075	-0.156	0.035
-450.938	-17.312	-0.051	0.032
-449.924	98.463	0.167	-0.192
-448.909	-200.000	-0.233	0.000
-447.895	-161.274	0.211	0.011
-446.880	-200.000	0.023	0.118
-445.865	27.517	-0.172	0.144
-444.851	-75.577	0.044	-0.016
-443.836	782.865	0.126	-0.346
-442.822	99.828	0.163	-0.188
-441.807	-160.674	-0.163	-0.009
-440.792	-117.921	0.291	-0.052
-439.778	800.000	0.114	-0.362
-438.763	-22.265	0.261	-0.158
-437.749	-87.521	0.013	0.004
-436.734	196.926	0.071	0.108
-435.719	-9.852	0.254	0.169
-434.705	-79.857	0.344	-0.115
-433.690	-168.361	-0.275	-0.011
-432.676	39.522	-0.207	-0.185
-431.661	146.073	-0.097	0.129
-430.646	389.138	0.068	-0.140
-429.632	310.585	0.089	0.166
-428.617	800.000	0.065	0.185
-427.603	434.705	-0.131	0.283
-426.588	-2.097	0.203	0.143
-425.573	132.500	-0.150	0.192
-424.559	-77.367	-0.217	-0.075
-423.544	-29.419	0.465	-0.265
-422.530	-90.727	0.074	-0.021
-421.515	3.088	-0.224	-0.163
-420.500	-21.913	-0.057	0.034
-419.486	713.759	-0.075	-0.197
-418.471	41.765	-0.280	-0.253
-417.457	-74.681	0.396	0.142
-416.442	-200.000	0.032	0.224
-415.428	-200.000	0.027	-0.165
-414.413	447.939	-0.144	-0.315
-413.398	-135.654	0.439	-0.052
-412.384	800.000	0.054	-0.156
-411.369	-70.890	-0.244	-0.092
-410.355	-120.951	0.164	0.027
-409.340	396.167	-0.124	-0.258
-408.325	-190.183	-0.350	0.004
-407.311	-85.045	0.287	-0.090
-406.296	-47.534	0.251	-0.122
-405.282	800.000	-0.092	0.267
-404.267	33.774	0.115	-0.099
-403.252	-200.000	0.000	0.189
-402.238	136.059	-0.255	0.332
-401.223	-63.994	0.178	0.072
-400.209	-26.649	-0.155	0.090
-399.194	-110.279	-0.220	-0.046
-398.179	202.348	0.072	-0.111
-397.165	-17.774	0.209	-0.131
-396.150	-155.611	-0.162	0.010
-395.136	-119.078	0.205	-0.036
-394.121	100.890	-0.187	-0.217
-393.106	800.000	0.045	0.183
-392.092	-200.000	0.028	0.371
-391.077	-25.319	-0.248	0.146
-390.063	-133.135	-0.235	-0.030
-389.048	106.407	0.180	0.213
-388.033	-54.788	0.093	0.042
-387.019	-200.000	0.002	-0.097
-386.004	800.000	-0.047	0.158
-384.990	-64.533	-0.092	-0.037
-383.975	-69.573	0.162	-0.062
-382.960	-110.634	-0.216	-0.044
-381.946	-200.000	-0.001	0.423
-380.931	-6.560	-0.186	0.126
-379.917	-200.000	-0.031	-0.299
-378.902	-68.041	0.042	-0.016
-377.888	-188.405	-0.107	-0.001
-376.873	-200.000	-0.031	-0.191
-375.858	-161.834	0.138	-0.007
-374.844	-15.876	-0.251	-0.159
-373.829	-172.684	0.152	0.005
-372.815	-55.228	0.144	0.064
-371.800	46.564	0.068	-0.063
-370.785	-143.769	0.267	0.025
-369.771	-200.000	0.009	0.105
-368.756	-156.285	-0.125	0.008
-367.742	-200.000	-0.029	0.406
-366.727	129.185	0.119	0.151
-365.712	183.698	0.038	-0.056
-364.698	-200.000	0.107	0.563
-363.683	62.387	-0.070	0.069
-362.669	-30.341	0.019	0.011
-361.654	167.522	-0.099	0.140
-360.639	25.933	-0.044	0.037
-359.625	-46.665	0.239	-0.117
-358.610	-53.773	-0.151	-0.069
-357.596	224.893	0.035	-0.056
-356.581	-108.777	0.267	0.057
-355.566	-200.000	-0.016	0.199
-354.552	-37.841	0.243	-0.129
-353.537	87.912	0.103	0.113
-352.523	146.046	-0.092	-0.123
-351.508	-109.053	0.279	-0.059
-350.493	62.150	-0.177	0.176
-349.479	-98.858	0.190	-0.048
-348.464	-31.616	0.099	0.055
-347.450	-124.995	-0.456	0.070
-346.435	800.000	0.072	0.306
-345.420	627.559	0.167	0.418
-344.406	-200.000	-0.003	-0.329
-343.391	-64.895	-0.204	0.082
-342.377	520.540	-0.119	0.278
-341.362	418.902	-0.137	0.292
-340.348	-137.947	0.469	0.052
-339.333	488.839	-0.043	-0.098
-338.318	-13.975	-0.109	0.070
-337.304	800.000	-0.135	0.423
-336.289	-117.972	0.244	-0.043
-335.275	-82.993	-0.179	0.057
-334.260	363.790	-0.110	-0.220
-333.245	800.000	-0.056	0.172
-332.231	-31.688	-0.372	0.207
-331.216	411.553	0.036	-0.075
-330.202	-49.683	0.213	-0.101
-329.187	-200.000	0.001	0.258
-328.172	1.986	-0.122	-0.087
-327.158	6.808	0.117	0.086
-326.143	228.737	-0.201	0.326
-325.129	174.415	0.151	-0.217
-324.114	-59.340	-0.288	-0.123
-323.099	583.486	-0.062	-0.152
-322.085	162.080	0.172	0.239
-321.070	27.162	-0.231	-0.193
-320.056	-31.460	-0.149	-0.083
-319.041	71.761	0.266	0.275
-318.026	-16.261	0.108	-0.068
-317.012	365.793	0.020	-0.040
-315.997	200.653	0.191	0.292
-314.983	-137.518	0.411	0.046
-313.968	180.875	0.093	0.136
-312.953	72.841	-0.238	0.246
-311.939	105.998	0.111	0.130
-310.924	-157.843	-0.159	0.009
-309.910	-147.897	0.154	0.013
-308.895	2.463	-0.127	0.091
-307.880	263.863	0.149	-0.257
-306.866	800.000	0.101	-0.389
-305.851	-200.000	-0.022	-0.154
-304.837	244.521	0.125	-0.209
-303.822	-138.816	0.180	-0.019
-302.807	-200.000	-0.041	-0.236
-301.793	-94.868	0.321	-0.086
-300.778	-12.989	-0.146	-0.094
-299.764	58.554	-0.110	-0.107
-298.749	-110.850	-0.276	-0.056
-297.735	-200.000	0.016	0.155
-296.720	-200.000	0.065	-0.337
-295.705	194.718	-0.017	-0.025
-294.691	67.140	-0.103	0.104
-293.676	800.000	-0.052	0.204
-292.662	147.869	-0.251	0.335
-291.647	33.420	-0.209	0.180
-290.632	193.167	-0.077	0.115
-289.618	-200.000	0.006	0.109
-288.603	46.711	-0.038	0.035
-287.589	800.000	0.031	0.101
-286.574	-200.000	-0.019	0.254
-285.559	51.068	-0.145	-0.136
-284.545	119.318	0.097	-0.119
-283.530	-74.765	0.159	0.057
-282.516	-159.973	-0.060	0.003
-281.501	186.280	0.130	-0.192
-280.486	72.446	0.132	-0.137
-279.472	-112.147	-0.535	-0.107
-278.457	-57.086	0.300	-0.131
-277.443	-200.000	-0.013	0.391
-276.428	-83.350	-0.168	0.054
-275.413	-200.000	0.081	0.485
-274.399	-135.850	0.167	-0.020
-273.384	-33.293	0.178	-0.098
-272.370	-119.408	-0.102	-0.017
-271.355	-45.525	0.337	-0.166
-270.340	227.264	0.110	-0.178
-269.326	-68.253	0.255	0.098
-268.311	91.064	-0.101	-0.112
-267.297	-87.067	0.043	-0.013
-266.282	430.898	-0.089	0.191
-265.267	-65.912	-0.201	0.080
-264.253	-176.185	-0.154	0.004
-263.238	183.757	0.216	0.317
-262.224	-24.322	-0.116	-0.069
-261.209	-73.456	0.134	-0.049
-260.195	82.762	-0.235	-0.253
-259.180	-26.858	-0.425	0.246
-258.165	-109.420	-0.086	0.018
-257.151	15.413	-0.275	-0.214
-256.136	48.585	0.128	0.119
-255.122	-155.142	-0.184	-0.012
-254.107	-45.163	-0.273	0.134
-253.092	-56.754	0.246	-0.108
-252.078	330.654	-0.052	-0.099
-251.063	-109.644	-0.431	-0.090
-250.049	-66.194	0.186	0.073
-249.034	1.101	0.214	0.152
-248.019	188.253	0.074	0.110
-247.005	-100.383	0.193	-0.047
-245.990	706.888	-0.074	-0.193
-244.976	-144.330	0.409	-0.038
-243.961	15.715	0.228	-0.178
-242.946	-76.630	-0.349	0.121
-241.932	-173.524	-0.080	0.002
-240.917	-123.570	-0.223	0.035
-239.903	-84.487	0.186	-0.058
-238.888	-200.000	-0.017	0.269
-237.873	-200.000	0.019	-0.148
-236.859	-200.000	-0.005	-0.232
-235.844	-200.000	-0.032	-0.346
-234.830	-200.000	0.013	-0.089
-233.815	-9.625	0.099	0.066
-232.800	800.000	0.067	0.286
-231.786	-5.381	0.341	0.232
-230.771	-12.474	0.498	-0.322
-229.757	-200.000	-0.035	-0.279
-228.742	-200.000	-0.028	0.233
-227.727	78.269	0.147	0.156
-226.713	800.000	-0.062	-0.226
-225.698	-200.000	-0.033	0.168
-224.684	800.000	0.105	0.320
-223.669	232.273	0.130	0.211
-222.655	-200.000	0.069	0.448
-221.640	-22.902	-0.436	0.260
-220.625	67.106	-0.094	0.095
-219.611	-110.733	-0.112	-0.023
-218.596	-200.000	0.006	-0.643
-217.582	52.879	0.233	-0.221
-216.567	205.909	-0.217	0.334
-215.552	-33.286	0.228	0.125
-214.538	-118.177	-0.056	0.010
-213.523	-39.610	-0.222	-0.115
-212.509	-117.766	-0.237	0.042
-211.494	800.000	-0.047	0.140
-210.479	49.198	-0.103	-0.096
-209.465	-150.100	-0.104	0.008
-208.450	-43.390	0.380	-0.190
-207.436	493.582	0.094	-0.212
-206.421	-200.000	0.098	0.431
-205.406	186.703	0.291	0.428
-204.392	-58.265	0.112	-0.048
-203.377	-112.074	0.254	-0.051
-202.363	122.849	0.229	0.283
-201.348	-158.978	0.103	-0.006
-200.333	-18.108	-0.228	0.141
-199.319	-49.600	-0.285	0.134
-198.304	800.000	-0.109	0.337
-197.290	-173.486	0.234	-0.007
-196.275	-164.433	0.288	0.013
-195.260	-128.408	0.375	0.053
-194.246	800.000	-0.094	0.379
-193.231	-102.066	-0.291	-0.069
-192.217	-200.000	-0.061	-0.305
-191.202	-92.404	-0.045	0.012
-190.187	-95.493	0.227	-0.060
-189.173	-157.198	0.262	0.016
-188.158	-138.384	-0.100	-0.011
-187.144	800.000	0.073	-0.230
-186.129	-200.000	-0.057	0.293
-185.114	-34.590	-0.289	-0.156
-184.100	61.754	0.103	-0.101
-183.085	-124.272	0.115	-0.018
-182.071	-87.519	-0.322	0.096
-181.056	607.646	-0.091	-0.225
-180.042	800.000	0.017	-0.059
-179.027	-163.207	0.116	-0.005
-178.012	413.498	-0.201	-0.421
-176.998	103.847	0.146	-0.170
-175.983	-200.000	-0.023	-0.113
-174.969	-0.705	-0.136	-0.095
-173.954	253.787	0.114	0.192
-172.939	150.380	0.157	-0.211
-171.925	-128.065	-0.149	-0.021
-170.910	163.692	0.065	-0.090
-169.896	51.188	0.134	-0.126
-168.881	-59.368	0.149	0.063
-167.866	399.335	-0.060	0.125
-166.852	219.484	0.053	-0.084
-165.837	43.090	0.039	-0.035
-164.823	30.416	-0.319	0.269
-163.808	-7.458	-0.358	-0.239
-162.793	-105.917	0.426	0.095
-161.779	-82.433	-0.146	-0.047
-160.764	48.125	0.221	0.204
-159.750	-119.526	-0.458	-0.078
-158.735	-154.474	-0.085	-0.006
-157.720	105.396	-0.287	0.335
-156.706	148.732	-0.084	0.111
-155.691	-200.000	-0.014	0.089
-154.677	-86.544	0.434	-0.131
-153.662	-34.772	0.144	-0.077
-152.647	-200.000	0.027	0.339
-151.633	-145.389	0.227	-0.020
-150.618	-200.000	-0.015	0.146
-149.604	-49.454	0.142	-0.067
-148.589	587.809	-0.110	0.268
-147.574	-200.000	0.005	0.212
-146.560	-61.006	0.406	-0.169
-145.545	268.745	0.108	0.187
-144.531	122.521	-0.036	0.045
-143.516	-97.245	-0.452	-0.116
-142.502	-49.835	-0.110	-0.052
-141.487	11.358	0.327	0.247
-140.472	417.144	0.025	-0.054
-139.458	361.390	0.028	0.055
-138.443	35.264	-0.064	-0.055
-137.429	458.412	0.139	0.305
-136.414	-94.361	-0.269	0.073
-135.399	-136.264	0.283	0.033
-134.385	-8.203	-0.057	0.038
-133.370	-64.019	-0.081	-0.033
-132.356	223.454	0.146	-0.233
-131.341	-104.478	-0.143	-0.033
-130.326	-38.464	0.292	0.152
-129.312	-194.991	-0.300	-0.002
-128.297	-200.000	-0.101	0.455
-127.283	-200.000	0.004	-0.083
-126.268	15.105	-0.076	-0.059
-125.253	476.718	-0.056	0.126
-124.239	-80.206	-0.146	0.048
-123.224	87.766	-0.110	0.120
-122.210	29.194	0.186	0.156
-121.195	465.119	-0.090	0.199
-120.180	78.129	0.078	-0.082
-119.166	52.119	-0.141	0.132
-118.151	630.740	0.097	-0.242
-117.137	-93.787	0.134	-0.036
-116.122	6.929	0.067	0.049
-115.107	-200.000	-0.049	-0.241
-114.093	-200.000	-0.001	0.194
-113.078	139.741	-0.200	-0.260
-112.064	-200.000	0.071	-0.474
-111.049	499.863	0.133	0.301
-110.034	389.762	-0.049	0.100
-109.020	131.192	-0.076	0.096
-108.005	-48.861	0.040	0.019
-106.991	-200.000	0.044	-0.273
-105.976	800.000	-0.030	0.117
-104.962	-104.224	-0.169	-0.039
-103.947	17.196	-0.089	-0.069
-102.932	115.939	-0.233	-0.281
-101.918	-200.000	0.011	-0.220
-100.903	601.607	0.063	-0.154
-99.889	-78.050	0.035	-0.012
-98.874	-82.866	-0.178	0.056
-97.859	-166.182	0.338	0.014
-96.845	-125.788	-0.052	-0.008
-95.830	80.698	0.267	0.283
-94.816	-133.496	-0.363	-0.045
-93.801	-129.569	0.226	0.031
-92.786	214.004	0.249	0.387
-91.772	19.414	0.311	-0.246
-90.757	-48.993	0.112	0.053
-89.743	323.911	-0.009	0.016
-88.728	-200.000	-0.087	0.390
-87.713	-5.539	-0.179	-0.121
-86.699	-146.406	-0.146	0.013
-85.684	800.000	0.072	0.225
-84.670	52.741	0.193	-0.181
-83.655	178.863	-0.125	-0.180
-82.640	-102.822	-0.199	0.047
-81.626	-131.790	-0.192	0.025
-80.611	-16.498	0.034	-0.021
-79.597	-101.020	-0.363	-0.088
-78.582	-9.938	-0.175	0.115
-77.567	-200.000	0.019	0.089
-76.553	-200.000	0.050	0.287
-75.538	800.000	-0.026	0.079
-74.524	346.462	0.175	-0.339
-73.509	-75.500	-0.210	0.073
-72.494	48.650	-0.134	-0.123
-71.480	96.779	0.306	0.345
-70.465	-76.779	-0.334	-0.115
-69.451	-32.497	-0.228	0.125
-68.436	513.549	-0.047	-0.108
-67.422	-200.000	-0.009	-0.202
-66.407	232.602	-0.086	0.138
-65.392	-1.696	0.151	0.105
-64.378	494.887	0.098	-0.222
-63.363	-104.162	-0.267	-0.061
-62.349	-29.860	-0.107	0.060
-61.334	197.846	-0.721	-1.083
-60.319	131.139	0.371	0.469
-59.305	234.302	-0.357	-0.579
-58.290	641.402	0.486	1.217
-57.276	123.110	1.108	1.364
-56.261	-200.000	95.318	597.485
-55.246	678.655	1363.707	3487.064
-54.232	200.243	2544.350	3841.319
-53.217	114.708	2263.342	2711.707
-52.203	42.240	1895.325	1692.348
-51.188	35.948	1687.843	1459.530
-50.173	33.234	1644.323	1401.761
-49.159	50.809	1690.625	1573.531
-48.144	52.528	1706.599	1601.231
-47.130	35.682	1667.663	1439.853
-46.115	32.843	1653.873	1406.765
-45.100	32.658	1648.979	1401.168
-44.086	32.660	1645.896	1398.512
-43.071	32.601	1643.409	1395.905
-42.057	32.690	1640.850	1394.337
-41.042	32.596	1639.487	1392.426
-40.027	32.597	1637.405	1390.610
-39.013	32.553	1635.476	1388.594
-37.998	32.586	1633.912	1387.452
-36.984	32.601	1632.624	1386.414
-35.969	32.693	1630.947	1385.614
-34.954	32.816	1629.177	1384.957
-33.940	32.686	1627.695	1382.689
-32.925	32.732	1625.843	1381.393
-31.911	32.640	1624.534	1379.556
-30.896	32.674	1622.439	1377.969
-29.881	32.659	1620.922	1376.517
-28.867	32.739	1619.389	1375.744
-27.852	32.749	1617.340	1374.022
-26.838	32.720	1616.460	1373.006
-25.823	32.739	1614.617	1371.527
-24.809	32.854	1612.838	1370.799
-23.794	32.695	1612.073	1368.939
-22.779	32.816	1610.065	1368.054
-21.765	32.751	1608.526	1366.221
-20.750	32.709	1607.093	1364.647
-19.736	32.756	1605.505	1363.581
-18.721	32.746	1604.033	1362.211
-17.706	32.759	1602.966	1361.342
-16.692	32.742	1601.482	1359.902
-15.677	32.806	1599.902	1358.970
-14.663	32.844	1598.766	1358.227
-13.648	32.765	1597.571	1356.586
-12.633	32.708	1595.642	1354.488
-11.619	32.703	1594.511	1353.438
-10.604	32.676	1592.998	1351.902
-9.590	32.790	1590.955	1350.937
-8.575	32.705	1590.072	1349.526
-7.560	32.736	1589.431	1349.146
-6.546	32.748	1587.975	1347.941
-5.531	32.788	1586.180	1346.648
-4.517	32.747	1585.481	1345.710
-3.502	32.751	1584.390	1344.761
-2.487	32.787	1582.808	1343.622
-1.473	32.284	1570.580	1329.632
-0.458	28.734	1549.400	1286.830
0.556	26.212	1548.147	1246.679
1.571	23.274	1570.346	1243.838
2.586	22.428	1582.994	1247.753
3.600	19.467	1529.081	1184.847
4.615	11.650	1421.094	1050.997
5.629	5.278	1359.965	966.388
6.644	4.159	1351.473	953.390
7.659	4.101	1350.212	952.059
8.673	4.130	1349.247	951.473
9.688	4.189	1347.567	950.563
10.702	4.218	1344.875	948.756
11.717	6.946	1349.801	968.883
12.731	14.731	1364.007	1027.038
13.746	20.920	1373.801	1072.535
14.761	21.850	1374.221	1078.490
15.775	21.043	1372.048	1071.729
16.790	20.096	1369.431	1063.780
17.804	19.265	1367.509	1057.096
18.819	18.946	1365.919	1053.822
19.834	18.741	1365.011	1051.774
20.848	18.606	1363.857	1049.961
21.863	18.467	1362.593	1048.047
22.877	18.314	1361.661	1046.305
23.892	18.339	1360.785	1045.690
24.907	18.183	1359.767	1043.862
25.921	18.190	1359.048	1043.262
26.936	18.245	1357.945	1042.658
27.950	18.335	1356.853	1042.271
28.965	18.498	1356.165	1042.645
29.980	18.479	1354.903	1041.465
30.994	18.529	1353.907	1040.914
32.009	18.704	1352.622	1040.892
33.023	18.751	1351.313	1040.081
34.038	18.638	1350.014	1038.302
35.053	18.509	1348.629	1036.370
36.067	18.469	1347.985	1035.537
37.082	18.518	1346.900	1034.912
38.096	18.499	1346.341	1034.276
39.111	18.483	1345.583	1033.506
40.126	18.462	1344.441	1032.406
41.140	18.228	1343.238	1029.988
42.155	18.133	1342.340	1028.632
43.169	18.031	1342.980	1028.419
44.184	17.939	1342.615	1027.492
45.199	18.112	1341.785	1027.812
46.213	18.101	1341.542	1027.468
47.228	18.384	1340.260	1028.094
48.242	18.462	1339.549	1027.926
49.257	18.317	1338.038	1025.805
50.271	18.370	1336.498	1024.851
51.286	18.329	1336.237	1024.316
52.301	18.428	1333.784	1022.937
53.315	18.238	1333.260	1021.311
54.330	18.161	1331.795	1019.635
55.344	18.160	1330.597	1018.625
56.359	18.099	1329.548	1017.366
57.374	18.098	1328.812	1016.709
58.388	17.964	1328.271	1015.405
59.403	17.896	1327.805	1014.556
60.417	18.027	1327.231	1014.804
61.432	17.948	1326.026	1013.330
62.447	17.855	1325.274	1012.108
63.461	17.846	1323.982	1010.980
64.476	17.765	1322.969	1009.640
65.490	17.870	1321.582	1009.114
66.505	17.900	1319.775	1007.818
67.520	17.842	1319.050	1006.835
68.534	17.956	1318.032	1006.640
69.549	17.936	1316.334	1005.139
70.563	17.830	1315.628	1003.888
71.578	17.729	1314.890	1002.643
72.593	17.788	1313.313	1001.693
73.607	17.719	1312.664	1000.707
74.622	17.685	1312.385	1000.208
75.636	17.759	1311.398	999.797
76.651	17.754	1311.074	999.434
77.666	17.829	1310.118	999.056
78.680	17.704	1310.501	998.528
79.695	17.823	1309.321	998.237
80.709	17.965	1308.421	998.291
81.724	18.104	1307.833	998.565
82.739	18.186	1306.869	998.221
83.753	18.220	1306.258	997.866
84.768	18.367	1305.120	997.763
85.782	18.487	1304.127	997.614
86.797	18.442	1303.047	996.438
87.812	18.409	1301.461	994.949
88.826	18.376	1300.760	994.129
89.841	18.438	1299.341	993.317
90.855	18.476	1298.631	992.904
91.870	18.471	1297.831	992.177
92.884	18.572	1297.352	992.310
93.899	18.613	1296.155	991.545
94.914	18.641	1295.608	991.200
95.928	18.661	1294.920	990.699
96.943	18.549	1294.035	989.290
97.957	18.488	1292.872	987.962
98.972	18.546	1291.761	987.357
99.987	18.454	1291.131	986.262
101.001	18.454	1289.790	985.151
102.016	18.500	1289.011	984.728
103.030	18.487	1288.012	983.806
104.045	18.462	1287.187	982.946
105.060	18.360	1285.936	981.321
106.074	18.163	1284.558	979.050
107.089	17.985	1283.004	976.762
108.103	17.873	1281.755	975.084
109.118	17.892	1280.740	974.339
110.133	17.913	1279.256	973.243
111.147	17.910	1277.956	972.148
112.162	17.944	1276.753	971.339
113.176	17.920	1275.777	970.373
114.191	18.122	1274.785	970.682
115.206	18.020	1273.438	968.992
116.220	18.001	1272.680	968.220
117.235	18.074	1271.439	967.606
118.249	18.027	1270.600	966.617
119.264	17.973	1269.159	965.128
120.279	17.783	1268.602	963.548
121.293	17.944	1267.153	963.269
122.308	17.711	1266.513	961.381
123.322	17.784	1264.767	960.387
124.337	17.800	1263.919	959.743
125.352	17.733	1262.676	958.342
126.366	17.750	1261.256	957.274
127.381	17.790	1260.626	956.935
128.395	17.715	1259.441	955.530
129.410	17.724	1258.732	954.960
130.424	17.786	1258.070	954.716
131.439	18.101	1256.845	955.463
132.454	18.063	1255.944	954.484
133.468	18.026	1255.356	953.744
134.483	18.039	1254.978	953.446
135.497	18.096	1253.750	952.748
136.512	18.080	1252.609	951.706
137.527	18.113	1251.173	950.715
138.541	18.013	1250.433	949.510
139.556	18.119	1249.066	948.979
140.570	18.237	1247.679	948.493
141.585	18.346	1246.830	948.368
142.600	18.419	1245.675	947.812
143.614	18.422	1245.203	947.384
144.629	18.558	1243.858	947.027
145.643	18.520	1242.517	945.717
146.658	18.350	1241.601	943.996
147.673	18.343	1240.111	942.743
148.687	18.195	1238.920	940.940
149.702	18.161	1237.557	939.636
150.716	18.119	1235.674	937.889
151.731	17.989	1235.067	936.636
152.746	18.041	1234.210	936.186
153.760	18.125	1233.334	935.899
154.775	18.188	1232.261	935.348
155.789	18.344	1231.099	935.233
156.804	18.501	1229.685	934.932
157.819	18.339	1229.520	933.844
158.833	18.456	1228.161	933.363
159.848	18.571	1227.670	933.535
160.862	18.605	1226.578	932.804
161.877	18.353	1225.182	930.293
162.892	18.145	1224.147	928.297
163.906	18.103	1223.075	927.173
164.921	18.104	1222.196	926.431
165.935	18.277	1221.600	926.835
166.950	18.306	1220.746	926.263
167.964	18.287	1219.930	925.457
168.979	18.228	1219.157	924.471
169.994	18.171	1218.725	923.752
171.008	18.309	1217.770	923.691
172.023	18.478	1217.083	924.001
173.037	18.533	1216.302	923.621
174.052	18.443	1215.160	922.188
175.067	18.398	1213.760	920.801
176.081	18.208	1212.869	919.026
177.096	18.173	1212.397	918.395
178.110	18.250	1211.494	918.045
179.125	18.201	1210.287	916.784
180.140	18.343	1208.897	916.415
181.154	18.433	1207.646	915.864
182.169	18.499	1206.639	915.372
183.183	18.679	1205.639	915.493
184.198	18.590	1204.366	913.973
185.213	18.629	1203.070	913.112
186.227	18.633	1202.071	912.296
187.242	18.626	1201.622	911.835
188.256	18.730	1200.737	911.637
189.271	18.794	1199.532	910.982
190.286	18.651	1198.073	909.035
191.300	18.218	1197.082	905.910
192.315	18.058	1196.499	904.545
193.329	18.049	1196.072	904.092
194.344	18.253	1194.623	903.992
195.359	18.281	1194.673	904.101
196.373	18.376	1194.638	904.495
197.388	18.539	1193.838	904.670
198.402	18.861	1193.522	906.047
199.417	18.851	1192.862	905.412
200.432	18.938	1192.314	905.377
201.446	18.951	1191.702	904.898
202.461	18.975	1190.992	904.408
203.475	19.082	1189.378	903.664
204.490	18.954	1188.057	901.910
205.504	18.751	1187.385	900.254
206.519	18.779	1185.680	899.031
207.534	18.743	1184.432	897.816
208.548	18.621	1184.360	897.043
209.563	18.684	1183.382	896.551
210.577	18.826	1182.086	896.230
211.592	18.761	1181.831	895.617
212.607	19.000	1180.960	896.125
213.621	18.924	1180.155	895.038
214.636	18.955	1179.243	894.431
215.650	18.912	1178.530	893.586
216.665	19.101	1177.513	893.717
217.680	19.113	1176.994	893.308
218.694	19.119	1176.052	892.542
219.709	19.008	1175.588	891.538
220.723	19.213	1174.222	891.482
221.738	19.192	1173.478	890.732
222.753	19.018	1173.199	889.544
223.767	19.087	1172.389	889.205
224.782	19.120	1172.013	889.013
225.796	19.352	1171.238	889.543
226.811	19.317	1170.142	888.452
227.826	19.203	1169.295	887.143
228.840	19.067	1168.879	886.048
229.855	19.059	1167.894	885.182
230.869	19.078	1166.983	884.508
231.884	19.061	1165.968	883.574
232.899	18.932	1165.509	882.489
233.913	18.804	1164.503	880.991
234.928	19.014	1163.499	881.231
235.942	18.773	1163.417	879.857
236.957	18.907	1162.213	879.550
237.972	18.877	1161.765	878.981
238.986	18.896	1160.967	878.398
240.001	18.933	1160.294	877.997
241.015	18.985	1159.608	877.668
242.030	19.027	1158.651	877.083
243.045	19.125	1157.937	876.961
244.059	19.091	1157.292	876.222
245.074	19.206	1156.523	876.148
246.088	19.214	1156.014	875.726
247.103	19.339	1154.872	875.419
248.117	19.422	1154.527	875.501
249.132	19.596	1153.920	875.847
250.147	19.708	1153.406	875.942
251.161	19.808	1152.307	875.539
252.176	19.715	1152.693	875.282
253.190	19.849	1151.579	875.040
254.205	20.053	1150.962	875.525
255.220	19.951	1150.420	874.518
256.234	19.887	1149.708	873.574
257.249	19.840	1149.294	872.946
258.263	19.961	1148.132	872.595
259.278	20.071	1147.458	872.563
260.293	19.978	1147.273	871.877
261.307	20.007	1146.720	871.521
262.322	20.049	1145.905	871.038
263.336	20.158	1145.226	870.995
264.351	20.134	1144.636	870.346
265.366	20.080	1144.370	869.797
266.380	20.076	1143.413	868.971
267.395	20.071	1142.155	867.915
268.409	19.950	1141.572	866.789
269.424	19.909	1140.706	865.849
270.439	19.863	1140.461	865.356
271.453	19.933	1139.383	864.810
272.468	19.721	1138.288	862.846
273.482	19.748	1137.869	862.587
274.497	19.788	1137.221	862.218
275.512	19.872	1136.389	861.930
276.526	19.746	1135.633	860.655
277.541	19.771	1135.256	860.415
278.555	19.914	1134.610	860.560
279.570	20.030	1133.910	860.532
280.585	20.208	1132.909	860.576
281.599	20.077	1132.219	859.326
282.614	20.026	1130.706	857.851
283.628	19.985	1129.887	856.950
284.643	20.071	1128.662	856.371
285.657	19.970	1128.020	855.307
286.672	19.901	1127.676	854.634
287.687	20.020	1126.601	854.328
288.701	20.010	1126.073	853.805
289.716	20.070	1124.905	853.135
290.730	19.990	1124.846	852.623
291.745	20.143	1123.996	852.658
292.760	20.146	1122.871	851.742
293.774	20.196	1122.437	851.585
294.789	20.343	1122.157	852.015
295.803	20.181	1121.797	850.875
296.818	20.117	1120.531	849.524
297.833	20.067	1119.575	848.478
298.847	20.027	1118.864	847.669
299.862	20.192	1118.207	847.902
300.876	20.202	1117.671	847.472
301.891	20.251	1116.959	847.097
302.906	20.337	1116.014	846.721
303.920	20.541	1116.052	847.670
304.935	20.574	1115.337	847.217
305.949	20.593	1114.798	846.825
306.964	20.618	1114.271	846.469
307.979	20.474	1113.111	844.813
308.993	20.436	1112.632	844.188
310.008	20.564	1111.660	843.998
311.022	20.550	1110.939	843.308
312.037	20.563	1109.899	842.507
313.052	20.395	1108.823	840.804
314.066	20.256	1108.027	839.455
315.081	20.172	1107.228	838.367
316.095	20.204	1106.253	837.710
317.110	20.177	1105.680	837.072
318.125	20.275	1104.731	836.753
319.139	20.211	1103.978	835.799
320.154	20.259	1103.815	835.834
321.168	20.168	1103.127	834.800
322.183	20.299	1102.544	834.917
323.197	20.274	1102.284	834.521
324.212	20.244	1101.983	834.079
325.227	20.284	1101.142	833.560
326.241	20.411	1100.489	833.602
327.256	20.240	1099.388	831.872
328.270	20.272	1098.510	831.288
329.285	20.246	1097.701	830.478
330.300	20.343	1096.396	829.882
331.314	20.369	1095.695	829.400
332.329	20.316	1094.490	828.165
333.343	20.401	1093.759	827.941
334.358	20.437	1093.115	827.551
335.373	20.542	1092.848	827.776
336.387	20.545	1091.864	826.972
337.402	20.570	1091.347	826.629
338.416	20.589	1090.641	826.110
339.431	20.669	1090.399	826.233
340.446	20.713	1089.671	825.818
341.460	20.924	1088.768	826.059
342.475	20.999	1088.252	825.952
343.489	21.041	1087.303	825.358
344.504	21.047	1086.360	824.598
345.519	21.078	1085.413	823.950
346.533	21.217	1084.370	823.743
347.548	21.163	1084.066	823.182
348.562	21.172	1083.238	822.524
349.577	21.049	1082.019	820.945
350.592	20.770	1081.409	819.101
351.606	20.748	1080.772	818.440
352.621	20.666	1080.055	817.441
353.635	20.582	1079.692	816.698
354.650	20.739	1078.475	816.442
355.665	20.764	1077.822	815.993
356.679	20.789	1077.794	816.019
357.694	20.876	1077.040	815.779
358.708	21.060	1076.450	816.121
359.723	20.977	1075.763	815.143
360.738	21.063	1075.150	815.005
361.752	20.935	1074.626	813.939
362.767	20.907	1074.090	813.331
363.781	21.049	1073.635	813.576
364.796	21.177	1072.887	813.532
365.810	21.216	1072.770	813.555
366.825	21.277	1072.174	813.317
367.840	21.385	1071.668	813.361
368.854	21.502	1070.859	813.218
369.869	21.487	1069.922	812.365
370.883	21.288	1069.258	810.867
371.898	21.352	1068.107	810.221
372.913	21.270	1067.678	809.440
373.927	21.389	1067.430	809.735
374.942	21.436	1066.819	809.414
375.956	21.360	1066.543	808.784
376.971	21.363	1065.861	808.206
377.986	21.397	1065.032	807.664
379.000	21.378	1064.775	807.313
380.015	21.619	1064.155	807.880
381.029	21.626	1063.627	807.440
382.044	21.687	1062.567	806.847
383.059	21.570	1061.653	805.544
384.073	21.508	1061.268	804.896
385.088	21.618	1060.610	804.829
386.102	21.713	1059.592	804.423
387.117	21.520	1058.294	802.479
388.132	21.347	1057.373	800.920
389.146	21.407	1056.443	800.416
390.161	21.388	1055.966	799.898
391.175	21.320	1054.926	798.727
392.190	21.448	1054.757	799.114
393.205	21.702	1053.767	799.452
394.219	21.666	1052.736	798.435
395.234	21.572	1051.986	797.369
396.248	21.495	1051.006	796.204
397.263	21.529	1049.847	795.412
398.278	21.294	1049.620	794.101
399.292	21.311	1048.711	793.421
400.307	21.217	1048.123	792.481
401.321	21.228	1047.239	791.792
402.336	21.197	1047.270	791.603
403.350	21.195	1046.182	790.701
404.365	21.288	1045.404	790.463
405.380	21.579	1044.507	791.033
406.394	21.492	1043.962	790.157
407.409	21.678	1043.561	790.621
408.423	21.715	1042.669	790.042
409.438	21.776	1042.038	789.769
410.453	21.896	1041.380	789.743
411.467	21.850	1041.079	789.234
412.482	21.934	1040.231	788.901
413.496	21.918	1040.227	788.755
414.511	22.032	1039.143	788.375
415.526	22.072	1039.061	788.426
416.540	22.052	1038.388	787.756
417.555	22.284	1037.911	788.365
418.569	22.158	1037.146	787.147
419.584	22.102	1036.759	786.534
420.599	22.105	1036.262	786.100
421.613	155.494	1401.875	1793.964
422.628	142.170	1455.130	1794.068
