DTS Sentinel unit serial number:	SN413079Multiplexer serial number:	ORYXHardware model number:	OX4-SRSoftware version number:	ORYX F/W v4.00 Oryx Data Collector v3.7.2.0data status	okinstallation	princeton_trtdifferential loss correction	single-endedforward channel	channel 2reverse channel	N/Adate	2019/09/15time	20:11:34forward acquisition time	60.00reverse acquisition time	0.00gamma	496.2192k internal	0.2325k external	0.2325temperature offset calibration	0.9934default loss term (dB/km)	0.3790temperature slope calibration	1.0000multiplexer offset coefficient	1.0000multiplexer slope coefficient	1.0000fibre end	0.00T internal ref (°C)	34.78T ext. ref 1 (°C)	7.65T ext. ref 2 (°C)	25.76length (m)	temperature (°C)	Stokes	anti-Stokes-747.200	93.116	-0.058	-0.066
-746.185	800.000	-0.077	-0.325
-745.171	3.733	-0.195	0.144
-744.156	105.832	-0.218	0.260
-743.142	-24.288	-0.074	0.045
-742.127	15.714	0.122	-0.097
-741.112	487.379	-0.080	0.184
-740.098	63.383	-0.191	0.193
-739.083	-200.000	-0.015	0.335
-738.069	117.800	-0.143	0.178
-737.054	-162.457	-0.074	-0.004
-736.039	-111.651	-0.313	0.064
-735.025	674.170	0.108	0.283
-734.010	49.229	-0.148	-0.140
-732.996	-67.661	-0.312	0.123
-731.981	800.000	-0.050	0.142
-730.966	-200.000	-0.089	0.418
-729.952	-133.660	-0.464	-0.059
-728.937	800.000	-0.044	-0.147
-727.923	49.163	-0.126	-0.120
-726.908	3.380	-0.237	-0.174
-725.894	-200.000	0.019	-0.110
-724.879	20.714	0.292	-0.239
-723.864	-121.331	-0.208	0.035
-722.850	-200.000	-0.013	-0.125
-721.835	-111.284	-0.221	-0.046
-720.821	800.000	-0.084	-0.310
-719.806	-200.000	0.003	-0.256
-718.791	131.076	-0.019	-0.025
-717.777	-200.000	-0.044	-0.352
-716.762	-200.000	0.050	-0.294
-715.748	-65.315	-0.162	0.066
-714.733	312.434	0.141	0.267
-713.718	283.850	-0.093	0.168
-712.704	40.381	-0.136	0.123
-711.689	-110.368	-0.320	0.067
-710.675	57.148	0.175	0.172
-709.660	114.647	-0.228	0.280
-708.645	800.000	0.140	0.463
-707.631	-63.575	-0.045	-0.018
-706.616	-94.607	0.124	-0.034
-705.602	-124.094	0.319	-0.051
-704.587	-9.645	0.051	0.035
-703.572	287.767	-0.153	-0.280
-702.558	-121.846	-0.308	-0.051
-701.543	-103.617	0.246	0.058
-700.529	800.000	-0.056	0.180
-699.514	-85.310	-0.285	0.089
-698.499	-173.026	-0.439	0.014
-697.485	200.494	0.262	0.406
-696.470	-66.877	-0.269	0.107
-695.456	-153.336	-0.231	0.016
-694.441	-200.000	0.027	-0.145
-693.426	206.086	0.195	-0.306
-692.412	-173.280	0.377	0.012
-691.397	-200.000	0.026	-0.150
-690.383	-141.876	-0.384	0.039
-689.368	800.000	0.024	0.103
-688.354	800.000	0.058	0.234
-687.339	-200.000	0.000	0.412
-686.324	330.319	-0.179	-0.347
-685.310	-200.000	0.028	-0.201
-684.295	173.928	-0.098	-0.143
-683.281	50.936	0.027	0.026
-682.266	-200.000	0.034	-0.194
-681.251	252.503	0.075	-0.129
-680.237	91.099	-0.057	-0.065
-679.222	-200.000	0.014	-0.228
-678.208	-153.092	-0.304	0.022
-677.193	800.000	0.079	-0.262
-676.178	98.390	-0.378	-0.439
-675.164	45.737	0.186	0.173
-674.149	-38.375	-0.215	0.115
-673.135	284.150	0.050	0.090
-672.120	204.166	0.067	0.104
-671.105	-200.000	0.002	0.126
-670.091	260.906	-0.054	0.094
-669.076	57.775	-0.353	-0.347
-668.062	10.251	0.648	-0.496
-667.047	7.295	0.147	-0.110
-666.032	800.000	0.038	-0.165
-665.018	17.345	-0.068	0.054
-664.003	-27.918	0.537	-0.313
-662.989	-165.816	-0.125	0.005
-661.974	158.573	0.050	-0.070
-660.959	-138.095	0.168	0.019
-659.945	247.430	0.235	-0.400
-658.930	-14.067	0.202	0.131
-657.916	-200.000	-0.071	-0.423
-656.901	250.346	0.143	-0.244
-655.886	-170.942	-0.272	0.009
-654.872	-200.000	-0.020	-0.137
-653.857	-200.000	0.016	0.161
-652.843	8.565	-0.217	0.164
-651.828	-200.000	-0.013	0.074
-650.814	49.004	0.134	-0.126
-649.799	359.157	0.060	-0.121
-648.784	21.456	-0.104	0.085
-647.770	54.706	0.039	0.038
-646.755	-200.000	-0.064	0.527
-645.741	222.832	-0.107	0.174
-644.726	22.251	0.111	0.091
-643.711	48.535	0.082	-0.077
-642.697	-43.494	0.284	0.144
-641.682	-144.526	0.236	0.022
-640.668	296.238	-0.179	-0.330
-639.653	-117.383	-0.394	0.072
-638.638	-200.000	-0.027	-0.424
-637.624	-200.000	-0.031	-0.179
-636.609	82.673	0.127	0.139
-635.595	-51.658	0.396	0.186
-634.580	-110.877	-0.023	0.005
-633.565	8.085	0.108	-0.081
-632.551	-200.000	0.016	0.207
-631.536	325.869	0.031	-0.059
-630.522	-66.726	0.259	-0.103
-629.507	-81.130	-0.296	-0.098
-628.492	-20.356	0.208	0.128
-627.478	-200.000	-0.002	0.391
-626.463	233.621	-0.026	0.042
-625.449	-51.508	-0.139	0.065
-624.434	164.752	-0.178	0.252
-623.419	82.943	0.133	-0.146
-622.405	-149.842	-0.312	0.025
-621.390	800.000	-0.072	-0.291
-620.376	800.000	0.065	0.243
-619.361	593.422	-0.111	-0.276
-618.346	0.058	-0.221	-0.158
-617.332	-200.000	-0.006	-0.258
-616.317	-133.852	0.180	-0.022
-615.303	-200.000	-0.050	0.399
-614.288	307.826	0.129	0.241
-613.273	12.772	-0.206	0.159
-612.259	409.387	-0.051	-0.108
-611.244	114.431	-0.076	0.093
-610.230	231.126	-0.026	-0.042
-609.215	-200.000	0.047	-0.345
-608.201	-40.673	-0.033	-0.017
-607.186	800.000	0.083	0.257
-606.171	-164.215	-0.268	0.012
-605.157	-200.000	-0.041	-0.185
-604.142	663.502	-0.065	-0.168
-603.128	-42.844	0.143	0.073
-602.113	81.898	0.035	0.038
-601.098	87.279	-0.143	-0.159
-600.084	-110.928	0.085	0.018
-599.069	114.942	0.011	0.014
-598.055	36.669	-0.272	-0.241
-597.040	-122.423	0.191	-0.031
-596.025	397.513	-0.295	0.619
-595.011	332.125	-0.070	-0.136
-593.996	800.000	0.182	-0.523
-592.982	776.996	0.085	-0.232
-591.967	-197.709	0.351	0.002
-590.952	-154.457	0.088	-0.006
-589.938	-200.000	-0.004	-0.219
-588.923	180.441	0.087	-0.128
-587.909	-87.192	0.134	0.041
-586.894	108.262	-0.302	0.361
-585.879	-118.375	0.235	-0.042
-584.865	-200.000	-0.011	-0.370
-583.850	-174.141	-0.073	0.002
-582.836	59.611	-0.095	-0.094
-581.821	24.622	0.056	-0.047
-580.806	-189.111	0.273	0.003
-579.792	496.458	0.175	0.403
-578.777	56.826	0.158	-0.154
-577.763	17.794	-0.195	-0.156
-576.748	800.000	-0.033	-0.091
-575.733	23.593	0.124	-0.102
-574.719	-200.000	0.019	-0.171
-573.704	755.595	0.108	-0.293
-572.690	-55.910	-0.286	-0.128
-571.675	-200.000	-0.016	-0.141
-570.661	-140.393	-0.216	0.023
-569.646	44.011	0.307	0.282
-568.631	216.721	-0.159	-0.253
-567.617	-92.521	-0.121	0.034
-566.602	318.083	0.065	-0.123
-565.588	12.183	-0.112	0.086
-564.573	-9.520	-0.110	0.074
-563.558	30.439	-0.236	-0.202
-562.544	37.775	-0.206	0.184
-561.529	-99.502	-0.222	-0.056
-560.515	-5.284	0.363	-0.250
-559.500	-72.760	-0.206	0.076
-558.485	-113.643	-0.122	-0.024
-557.471	476.039	0.132	-0.298
-556.456	-133.434	0.081	-0.010
-555.442	44.085	-0.157	-0.145
-554.427	199.021	-0.258	-0.396
-553.412	197.039	0.186	-0.284
-552.398	-135.838	0.201	0.024
-551.383	62.669	-0.263	0.263
-550.369	800.000	-0.044	-0.159
-549.354	-193.254	0.144	-0.001
-548.339	287.424	-0.109	0.197
-547.325	-57.858	-0.258	0.113
-546.310	161.661	-0.136	0.191
-545.296	-33.306	0.443	0.245
-544.281	92.182	-0.087	0.098
-543.266	209.635	-0.088	0.138
-542.252	-200.000	-0.027	0.227
-541.237	-142.746	-0.422	-0.041
-540.223	80.405	-0.120	-0.129
-539.208	-71.752	0.297	0.111
-538.193	266.253	-0.078	0.137
-537.179	-200.000	0.013	0.232
-536.164	-200.000	-0.021	-0.466
-535.150	-46.767	-0.264	-0.129
-534.135	800.000	0.063	-0.191
-533.121	23.898	0.096	0.079
-532.106	82.804	-0.253	0.276
-531.091	-200.000	-0.024	0.129
-530.077	67.404	0.258	0.264
-529.062	-15.869	-0.085	0.054
-528.048	96.590	-0.135	0.155
-527.033	127.726	-0.086	-0.109
-526.018	800.000	0.066	0.238
-525.004	-66.350	-0.323	0.128
-523.989	-125.476	-0.253	0.039
-522.975	13.479	0.099	0.077
-521.960	507.192	0.063	-0.147
-520.945	722.498	-0.093	0.247
-519.931	-200.000	-0.001	0.123
-518.916	5.440	0.122	-0.090
-517.902	4.840	-0.127	-0.094
-516.887	-37.669	-0.323	0.172
-515.872	-200.000	-0.023	0.157
-514.858	-177.939	0.394	0.009
-513.843	78.825	-0.076	0.082
-512.829	-36.506	0.084	-0.045
-511.814	-200.000	-0.021	-0.291
-510.799	800.000	0.104	-0.319
-509.785	623.498	-0.077	0.194
-508.770	-103.895	0.286	0.067
-507.756	-24.470	0.306	-0.182
-506.741	61.903	-0.099	-0.099
-505.726	589.627	-0.048	-0.120
-504.712	-200.000	-0.007	0.394
-503.697	199.915	0.190	0.291
-502.683	-125.943	-0.402	0.061
-501.668	13.094	0.163	0.126
-500.653	731.081	-0.065	-0.174
-499.639	-105.522	-0.293	0.067
-498.624	182.015	-0.163	0.240
-497.610	139.981	-0.198	-0.260
-496.595	169.864	0.153	0.218
-495.581	-159.485	-0.323	0.018
-494.566	800.000	-0.068	-0.275
-493.551	6.686	-0.102	-0.076
-492.537	-96.634	-0.200	0.053
-491.522	-200.000	0.076	0.541
-490.508	201.173	-0.158	0.243
-489.493	183.355	-0.138	0.204
-488.478	-17.689	0.137	0.086
-487.464	-74.820	0.070	-0.025
-486.449	-200.000	0.083	-0.392
-485.435	-166.128	0.161	-0.007
-484.420	-129.772	0.157	-0.022
-483.405	-102.556	0.174	0.042
-482.391	-142.211	-0.077	-0.008
-481.376	243.962	0.041	0.069
-480.362	-89.882	0.269	0.079
-479.347	15.750	-0.068	-0.053
-478.332	21.996	-0.109	-0.089
-477.318	-83.577	0.131	-0.042
-476.303	-200.000	0.007	0.244
-475.289	-200.000	-0.042	-0.243
-474.274	-45.585	0.233	-0.115
-473.259	-92.823	0.217	0.061
-472.245	-50.953	-0.105	-0.049
-471.230	126.931	0.266	0.337
-470.216	-57.100	0.196	-0.086
-469.201	-44.509	-0.220	-0.110
-468.186	78.730	0.297	-0.317
-467.172	-200.000	-0.030	0.324
-466.157	800.000	0.045	0.183
-465.143	-81.383	-0.034	-0.011
-464.128	310.829	-0.047	0.089
-463.113	-81.338	0.138	0.046
-462.099	114.822	-0.096	-0.117
-461.084	800.000	-0.090	0.315
-460.070	-38.596	0.052	-0.028
-459.055	-200.000	0.013	-0.156
-458.040	800.000	0.041	-0.120
-457.026	-0.689	0.065	0.046
-456.011	127.373	-0.120	-0.153
-454.997	522.497	0.105	-0.245
-453.982	57.090	0.195	0.189
-452.968	56.724	0.212	0.206
-451.953	-40.876	-0.077	0.040
-450.938	44.910	-0.155	0.142
-449.924	431.513	0.087	-0.188
-448.909	-114.342	-0.192	-0.037
-447.895	778.665	0.047	-0.128
-446.880	238.388	-0.154	0.256
-445.865	-120.715	0.257	0.043
-444.851	-200.000	-0.026	0.146
-443.836	18.877	-0.100	-0.080
-442.822	-200.000	0.045	0.223
-441.807	-128.621	0.091	0.013
-440.792	236.202	-0.092	-0.152
-439.778	287.979	-0.060	-0.109
-438.763	-89.188	0.013	0.004
-437.749	40.976	0.219	-0.197
-436.734	509.148	0.083	0.193
-435.719	-57.156	-0.218	0.096
-434.705	800.000	0.093	-0.369
-433.690	290.894	0.109	-0.197
-432.676	61.965	-0.187	-0.186
-431.661	102.624	0.075	-0.088
-430.646	800.000	-0.114	0.333
-429.632	225.257	-0.238	0.383
-428.617	-21.611	0.072	-0.044
-427.603	-200.000	-0.028	0.273
-426.588	217.962	0.162	-0.258
-425.573	-122.948	-0.177	0.028
-424.559	162.568	0.114	-0.160
-423.544	26.659	-0.174	-0.145
-422.530	-62.179	0.309	0.128
-421.515	-61.875	-0.227	-0.095
-420.500	-200.000	0.070	0.343
-419.486	243.459	-0.028	-0.047
-418.471	675.958	-0.040	0.104
-417.457	-45.083	-0.167	-0.083
-416.442	-15.706	0.339	0.216
-415.428	-200.000	0.003	0.085
-414.413	-97.615	-0.424	-0.109
-413.398	70.824	-0.097	-0.100
-412.384	-1.651	0.128	0.090
-411.369	-115.331	-0.214	0.040
-410.355	59.415	-0.153	0.150
-409.340	800.000	-0.028	0.092
-408.325	-52.461	0.183	-0.084
-407.311	-99.815	-0.154	0.038
-406.296	560.848	0.126	0.304
-405.282	356.203	-0.095	0.189
-404.267	-121.982	0.273	-0.045
-403.252	800.000	0.053	0.178
-402.238	800.000	0.118	0.455
-401.223	-121.977	-0.313	-0.051
-400.209	-200.000	-0.007	0.031
-399.194	-131.278	-0.138	-0.018
-398.179	172.231	0.056	0.081
-397.165	800.000	-0.079	0.223
-396.150	-200.000	-0.038	0.285
-395.136	-18.466	-0.097	-0.060
-394.121	167.334	0.131	-0.185
-393.106	118.170	-0.131	0.161
-392.092	-11.054	-0.194	-0.127
-391.077	186.858	0.099	0.147
-390.063	-200.000	-0.015	-0.178
-389.048	14.891	0.110	-0.086
-388.033	-200.000	-0.037	0.309
-387.019	800.000	-0.085	-0.276
-386.004	69.276	0.081	-0.083
-384.990	186.714	0.152	0.226
-383.975	-1.570	-0.105	-0.074
-382.960	152.183	-0.056	-0.076
-381.946	-68.962	0.249	0.096
-380.931	133.623	-0.064	-0.082
-379.917	-72.498	0.157	0.058
-378.902	42.987	-0.225	0.204
-377.888	-9.643	-0.069	-0.046
-376.873	61.007	0.308	0.304
-375.858	800.000	-0.091	-0.270
-374.844	2.612	0.083	0.060
-373.829	-200.000	0.053	0.233
-372.815	-200.000	0.006	-0.142
-371.800	789.435	-0.080	0.218
-370.785	772.311	-0.068	0.185
-369.771	-200.000	0.035	-0.352
-368.756	-72.233	-0.104	-0.038
-367.742	-147.234	-0.179	0.015
-366.727	-200.000	0.044	-0.193
-365.712	42.295	0.285	0.257
-364.698	74.495	0.120	0.125
-363.683	-200.000	-0.040	-0.273
-362.669	738.729	0.102	-0.272
-361.654	-200.000	0.004	0.132
-360.639	800.000	-0.061	0.224
-359.625	-197.989	-0.100	-0.001
-358.610	-21.274	0.262	-0.159
-357.596	-38.472	0.139	-0.073
-356.581	1.932	0.023	-0.017
-355.566	800.000	-0.044	-0.135
-354.552	23.503	0.182	-0.149
-353.537	59.472	0.080	-0.078
-352.523	800.000	0.035	-0.139
-351.508	-91.025	-0.126	-0.036
-350.493	-21.074	0.292	-0.178
-349.479	-200.000	-0.000	-0.140
-348.464	-79.859	0.223	-0.075
-347.450	-68.684	0.204	0.078
-346.435	800.000	0.040	0.161
-345.420	7.388	-0.321	0.238
-344.406	69.895	0.039	0.040
-343.391	800.000	0.045	-0.152
-342.377	-102.636	0.219	0.052
-341.362	220.245	0.109	-0.173
-340.348	-200.000	-0.010	-0.206
-339.333	800.000	0.119	0.451
-338.318	215.278	0.082	-0.129
-337.304	-115.381	0.049	0.009
-336.289	652.641	0.052	0.132
-335.275	-174.603	0.278	-0.008
-334.260	93.419	-0.053	-0.060
-333.245	630.478	0.089	-0.222
-332.231	343.980	-0.049	-0.096
-331.216	-83.590	0.128	0.040
-330.202	-128.086	0.126	0.018
-329.187	-101.699	0.121	-0.029
-328.172	-92.242	0.213	0.060
-327.158	-139.679	-0.247	0.026
-326.143	-132.903	0.367	-0.046
-325.129	273.735	-0.013	0.023
-324.114	407.507	0.075	0.157
-323.099	353.786	0.041	-0.081
-322.085	-200.000	0.050	-0.261
-321.070	-200.000	-0.024	-0.124
-320.056	-200.000	-0.053	-0.345
-319.041	-62.631	0.485	-0.200
-318.026	-200.000	-0.290	-0.001
-317.012	800.000	-0.036	0.119
-315.997	-137.479	0.280	-0.031
-314.983	-88.229	-0.173	0.051
-313.968	-12.518	0.187	0.121
-312.953	-167.191	-0.177	0.007
-311.939	-41.112	-0.072	0.037
-310.924	477.750	0.021	0.048
-309.910	-168.131	-0.064	-0.002
-308.895	800.000	0.102	0.288
-307.880	-60.681	-0.123	0.052
-306.866	-200.000	-0.013	0.058
-305.851	-82.448	-0.228	-0.073
-304.837	794.060	0.065	-0.179
-303.822	-200.000	-0.040	0.184
-302.807	14.204	0.257	-0.199
-301.793	800.000	0.051	-0.202
-300.778	-200.000	-0.004	0.140
-299.764	-45.042	-0.059	0.029
-298.749	278.096	0.077	0.137
-297.735	-200.000	0.011	0.157
-296.720	39.075	-0.081	0.072
-295.705	-157.132	0.232	0.014
-294.691	-200.000	-0.017	-0.350
-293.676	324.032	-0.158	-0.299
-292.662	-55.253	0.282	-0.126
-291.647	-2.972	-0.258	-0.179
-290.632	-17.222	-0.229	0.143
-289.618	398.079	0.033	0.069
-288.603	-153.163	-0.045	-0.003
-287.589	800.000	0.068	-0.191
-286.574	14.225	0.166	-0.128
-285.559	-103.765	-0.484	-0.112
-284.545	365.186	0.075	-0.150
-283.530	-15.503	0.371	0.235
-282.516	338.682	-0.178	0.343
-281.501	-72.960	-0.224	-0.082
-280.486	717.937	-0.266	0.700
-279.472	800.000	0.083	-0.234
-278.457	368.581	0.118	0.237
-277.443	-200.000	-0.006	0.038
-276.428	40.855	0.336	-0.300
-275.413	194.908	-0.072	0.109
-274.399	583.261	-0.055	0.133
-273.384	-114.698	-0.256	0.048
-272.370	-133.587	-0.109	0.013
-271.355	-118.265	0.493	-0.087
-270.340	32.712	0.117	-0.100
-269.326	238.247	-0.136	0.223
-268.311	-41.191	0.323	0.165
-267.297	-59.969	-0.125	-0.053
-266.282	-31.172	0.113	-0.063
-265.267	-200.000	0.012	-0.158
-264.253	800.000	0.052	0.178
-263.238	-47.600	-0.035	0.017
-262.224	-200.000	0.016	-0.304
-261.209	461.439	0.051	0.113
-260.195	540.061	0.071	-0.167
-259.180	-96.262	-0.304	-0.080
-258.165	74.313	-0.439	-0.457
-257.151	800.000	-0.047	0.194
-256.136	104.649	0.263	-0.307
-255.122	-88.662	0.113	-0.033
-254.107	-200.000	-0.065	-0.437
-253.092	-82.796	0.227	-0.073
-252.078	-200.000	-0.004	0.063
-251.063	-200.000	0.003	0.135
-250.049	-133.968	0.087	0.011
-249.034	-75.957	-0.482	0.169
-248.019	-57.214	0.289	-0.126
-247.005	-85.292	0.228	-0.071
-245.990	-200.000	0.026	0.122
-244.976	148.446	-0.087	-0.116
-243.961	-150.764	0.114	-0.009
-242.946	-200.000	0.032	-0.268
-241.932	-153.086	-0.115	0.008
-240.917	89.643	0.086	-0.095
-239.903	-36.071	-0.272	-0.145
-238.888	-127.764	0.249	0.036
-237.873	-70.880	0.157	-0.059
-236.859	800.000	-0.113	0.337
-235.844	-26.625	0.448	-0.259
-234.830	50.546	-0.073	0.068
-233.815	-18.111	0.210	-0.130
-232.800	63.871	-0.168	0.167
-231.786	-200.000	-0.075	0.328
-230.771	101.954	0.129	-0.149
-229.757	103.619	-0.098	-0.114
-228.742	-11.710	0.145	0.094
-227.727	-22.398	-0.221	0.132
-226.713	104.065	-0.058	-0.067
-225.698	11.069	0.282	-0.213
-224.684	78.139	0.373	0.393
-223.669	213.556	0.138	0.215
-222.655	-200.000	-0.004	-0.075
-221.640	289.503	-0.109	0.196
-220.625	-88.881	0.062	-0.018
-219.611	-18.314	-0.173	0.107
-218.596	-200.000	-0.030	0.283
-217.582	-45.232	-0.182	0.089
-216.567	800.000	-0.064	0.197
-215.552	-5.094	0.099	0.067
-214.538	176.928	-0.159	-0.229
-213.523	262.931	0.121	-0.207
-212.509	-200.000	-0.001	-0.250
-211.494	-171.184	-0.151	-0.005
-210.479	480.263	0.200	-0.447
-209.465	-200.000	-0.015	-0.178
-208.450	-200.000	-0.014	0.252
-207.436	-40.812	-0.268	-0.137
-206.421	-6.427	0.122	0.083
-205.406	32.071	0.233	-0.199
-204.392	254.645	-0.064	-0.108
-203.377	453.729	-0.118	-0.258
-202.363	-169.130	0.155	0.006
-201.348	800.000	-0.052	-0.144
-200.333	-200.000	-0.031	0.176
-199.319	-110.633	-0.226	-0.046
-198.304	-126.070	0.160	-0.024
-197.290	-128.893	0.126	-0.017
-196.275	20.631	0.090	-0.072
-195.260	265.649	-0.155	0.268
-194.246	-132.283	0.085	0.011
-193.231	-90.863	-0.198	0.056
-192.217	800.000	0.027	-0.091
-191.202	155.004	-0.248	0.336
-190.187	-200.000	0.030	0.268
-189.173	334.285	-0.246	-0.471
-188.158	-200.000	-0.036	0.279
-187.144	50.600	0.147	-0.137
-186.129	-75.860	-0.143	-0.050
-185.114	105.730	-0.206	-0.241
-184.100	219.764	0.151	-0.238
-183.085	-200.000	0.017	0.153
-182.071	-116.978	0.100	-0.018
-181.056	-200.000	0.062	0.383
-180.042	-75.502	-0.258	-0.091
-179.027	-0.320	-0.163	-0.114
-178.012	800.000	-0.076	-0.243
-176.998	-49.318	-0.303	0.143
-175.983	800.000	-0.043	0.134
-174.969	-200.000	-0.033	-0.251
-173.954	108.220	0.127	-0.149
-172.939	613.815	-0.052	0.128
-171.925	180.164	-0.098	-0.142
-170.910	489.769	-0.065	-0.146
-169.896	-200.000	-0.031	0.142
-168.881	-179.266	0.102	0.002
-167.866	-136.566	-0.191	-0.022
-166.852	17.121	-0.199	0.156
-165.837	-200.000	-0.003	-0.183
-164.823	49.161	0.032	0.030
-163.808	-76.740	0.116	-0.040
-162.793	-13.979	-0.182	-0.116
-161.779	-110.982	0.242	-0.049
-160.764	-200.000	0.045	0.316
-159.750	-109.514	-0.203	-0.042
-158.735	-200.000	0.096	0.420
-157.720	-17.315	-0.301	-0.187
-156.706	173.007	0.024	0.035
-155.691	408.102	-0.047	-0.099
-154.677	-200.000	-0.039	-0.348
-153.662	76.717	0.140	0.146
-152.647	629.173	-0.095	-0.237
-151.633	268.251	-0.091	0.157
-150.618	-40.105	0.313	0.161
-149.604	800.000	0.034	0.136
-148.589	207.417	0.231	-0.355
-147.574	52.930	-0.093	-0.087
-146.560	221.766	0.115	0.183
-145.545	-200.000	0.036	0.271
-144.531	-141.327	-0.563	0.056
-143.516	-73.064	-0.181	-0.065
-142.502	-200.000	0.006	0.139
-141.487	-25.543	0.141	-0.082
-140.472	-53.467	-0.318	-0.143
-139.458	219.948	-0.030	-0.048
-138.443	54.021	0.119	-0.113
-137.429	-104.720	-0.226	-0.051
-136.414	22.015	0.056	0.045
-135.399	-17.076	-0.068	0.042
-134.385	19.040	0.048	-0.038
-133.370	-99.425	0.163	0.040
-132.356	-200.000	0.046	0.383
-131.341	-200.000	-0.034	0.344
-130.326	25.219	-0.242	0.198
-129.312	-134.353	0.102	-0.012
-128.297	-131.903	0.020	-0.003
-127.283	108.529	-0.079	0.092
-126.268	340.955	0.047	-0.090
-125.253	0.149	-0.103	0.072
-124.239	800.000	-0.016	0.050
-123.224	44.756	-0.294	-0.267
-122.210	800.000	0.038	0.132
-121.195	17.783	0.176	0.138
-120.180	753.377	0.016	0.043
-119.166	-3.225	0.161	0.111
-118.151	153.526	-0.088	0.118
-117.137	32.825	-0.146	0.125
-116.122	-200.000	0.049	0.341
-115.107	93.606	0.239	-0.267
-114.093	-43.382	0.097	-0.048
-113.078	319.528	-0.089	0.166
-112.064	-153.162	-0.320	0.022
-111.049	-33.354	0.028	-0.016
-110.034	-13.103	-0.177	0.113
-109.020	-118.696	0.205	-0.036
-108.005	3.757	0.103	0.074
-106.991	-145.805	0.158	-0.014
-105.976	130.730	0.072	-0.091
-104.962	-8.849	-0.188	-0.124
-103.947	63.432	0.093	-0.092
-102.932	-200.000	0.028	0.278
-101.918	13.423	-0.221	0.169
-100.903	-200.000	-0.028	0.269
-99.889	-200.000	-0.010	-0.093
-98.874	-200.000	0.026	0.316
-97.859	-200.000	-0.021	0.215
-96.845	800.000	-0.080	0.248
-95.830	-200.000	-0.007	0.668
-94.816	-109.938	0.272	0.056
-93.801	-124.106	-0.215	0.033
-92.786	147.611	-0.221	-0.293
-91.772	-41.881	-0.121	-0.061
-90.757	-64.238	0.440	-0.176
-89.743	-51.416	-0.244	-0.112
-88.728	186.037	-0.074	-0.108
-87.713	-52.729	-0.250	-0.113
-86.699	7.629	-0.223	-0.164
-85.684	-200.000	-0.057	-0.253
-84.670	-61.696	-0.303	-0.125
-83.655	-200.000	-0.020	0.201
-82.640	-52.731	-0.059	-0.027
-81.626	-163.424	0.143	-0.007
-80.611	11.697	0.215	0.162
-79.597	-200.000	-0.016	-0.139
-78.582	-200.000	0.001	0.038
-77.567	137.814	0.228	0.294
-76.553	-137.585	0.262	0.029
-75.538	533.385	0.048	-0.113
-74.524	-200.000	-0.019	0.365
-73.509	542.755	0.071	0.167
-72.494	207.727	0.075	-0.116
-71.480	800.000	0.016	0.050
-70.465	631.611	0.075	-0.188
-69.451	-23.187	0.182	-0.108
-68.436	-100.480	0.284	-0.069
-67.422	-78.635	-0.329	-0.110
-66.407	93.319	0.163	-0.181
-65.392	230.427	-0.080	-0.129
-64.378	-200.000	-0.021	0.131
-63.363	-13.025	0.131	0.083
-62.349	130.576	0.121	0.152
-61.334	132.090	-0.814	-1.031
-60.319	-116.541	0.498	0.090
-59.305	800.000	-0.193	-0.716
-58.290	293.336	0.452	0.811
-57.276	355.445	0.805	1.574
-56.261	-200.000	92.244	554.990
-55.246	567.054	1356.544	3234.633
-54.232	160.853	2547.674	3495.080
-53.217	108.691	2274.190	2668.641
-52.203	44.045	1901.976	1712.486
-51.188	38.091	1694.871	1480.965
-50.173	35.381	1650.253	1421.869
-49.159	52.714	1696.170	1591.892
-48.144	55.225	1712.736	1626.199
-47.130	37.641	1673.386	1458.584
-46.115	34.845	1659.077	1425.247
-45.100	34.655	1654.200	1419.589
-44.086	34.685	1651.467	1417.408
-43.071	34.618	1649.089	1414.818
-42.057	34.689	1646.410	1412.988
-41.042	34.734	1644.708	1411.804
-40.027	34.654	1642.550	1409.301
-39.013	34.576	1641.284	1407.590
-37.998	34.612	1639.628	1406.377
-36.984	34.711	1638.336	1405.941
-35.969	34.768	1636.581	1404.797
-34.954	34.881	1634.631	1403.897
-33.940	34.659	1633.356	1401.120
-32.925	34.751	1631.466	1400.119
-31.911	34.725	1629.651	1398.310
-30.896	34.765	1628.002	1397.136
-29.881	34.752	1625.768	1395.063
-28.867	34.694	1625.001	1393.933
-27.852	34.820	1623.110	1393.172
-26.838	34.768	1621.743	1391.564
-25.823	34.798	1620.021	1390.246
-24.809	34.776	1618.949	1389.117
-23.794	34.778	1617.786	1388.076
-22.779	34.738	1616.467	1386.599
-21.765	34.819	1614.504	1385.450
-20.750	34.756	1613.240	1383.853
-19.736	34.840	1611.765	1383.140
-18.721	34.785	1610.316	1381.441
-17.706	34.810	1608.599	1380.093
-16.692	34.827	1607.222	1378.981
-15.677	34.799	1605.832	1377.536
-14.663	34.775	1604.601	1376.251
-13.648	34.776	1603.067	1374.886
-12.633	34.923	1601.069	1374.173
-11.619	34.896	1600.060	1373.061
-10.604	34.885	1598.318	1371.434
-9.590	34.876	1597.096	1370.265
-8.575	34.842	1595.954	1368.987
-7.560	34.860	1594.783	1368.058
-6.546	34.917	1593.385	1367.209
-5.531	34.858	1592.827	1366.256
-4.517	34.822	1591.362	1364.687
-3.502	34.909	1590.082	1364.154
-2.487	34.951	1588.364	1362.928
-1.473	34.185	1575.711	1346.600
-0.458	30.223	1553.692	1300.027
0.556	22.716	1551.438	1255.536
1.571	19.688	1572.532	1250.615
2.586	18.835	1584.400	1253.724
3.600	17.294	1535.519	1204.028
4.615	12.959	1435.642	1096.849
5.629	8.673	1375.735	1023.625
6.644	7.736	1367.795	1011.673
7.659	7.715	1365.991	1010.112
8.673	7.622	1365.323	1008.936
9.688	7.537	1362.992	1006.590
10.702	7.498	1359.892	1003.966
11.717	9.289	1363.719	1018.053
12.731	13.919	1372.223	1053.748
13.746	17.078	1376.402	1076.934
14.761	16.998	1375.266	1075.448
15.775	16.001	1371.999	1066.486
16.790	14.875	1369.472	1057.313
17.804	14.096	1367.296	1050.621
18.819	13.653	1365.490	1046.339
19.834	13.364	1364.337	1043.544
20.848	13.136	1363.172	1041.124
21.863	12.804	1362.482	1038.411
22.877	12.713	1361.068	1036.670
23.892	12.690	1360.105	1035.698
24.907	12.703	1359.188	1034.991
25.921	12.683	1358.448	1034.213
26.936	12.660	1357.658	1033.371
27.950	12.728	1356.693	1032.976
28.965	12.883	1355.094	1032.635
29.980	12.883	1354.010	1031.721
30.994	12.891	1352.854	1030.798
32.009	12.990	1351.678	1030.429
33.023	13.065	1350.490	1029.898
34.038	12.903	1349.061	1027.709
35.053	12.793	1348.207	1026.279
36.067	12.938	1346.826	1026.040
37.082	12.802	1346.176	1024.608
38.096	12.954	1344.941	1024.524
39.111	12.911	1344.097	1023.524
40.126	12.776	1343.855	1022.408
41.140	12.772	1342.107	1020.964
42.155	12.648	1341.639	1019.753
43.169	12.711	1342.266	1020.528
44.184	12.636	1341.244	1019.194
45.199	12.600	1340.966	1018.674
46.213	12.728	1340.148	1018.753
47.228	12.765	1339.497	1018.398
48.242	12.720	1338.343	1017.148
49.257	12.764	1336.714	1016.093
50.271	12.743	1335.766	1015.151
51.286	12.875	1333.903	1014.462
52.301	12.845	1332.588	1013.186
53.315	12.772	1331.529	1011.842
54.330	12.737	1330.319	1010.622
55.344	12.738	1329.066	1009.583
56.359	12.689	1328.332	1008.637
57.374	12.697	1327.632	1008.063
58.388	12.647	1326.740	1006.991
59.403	12.615	1326.425	1006.468
60.417	12.587	1325.501	1005.504
61.432	12.563	1324.787	1004.729
62.447	12.559	1323.603	1003.716
63.461	12.492	1322.666	1002.509
64.476	12.494	1321.744	1001.739
65.490	12.527	1320.610	1000.991
66.505	12.497	1319.182	999.636
67.520	12.595	1317.653	998.982
68.534	12.575	1316.621	997.992
69.549	12.530	1315.699	996.934
70.563	12.525	1314.574	995.960
71.578	12.571	1313.221	995.128
72.593	12.440	1312.706	993.854
73.607	12.322	1312.312	992.757
74.622	12.401	1311.172	992.282
75.636	12.437	1310.619	991.994
76.651	12.384	1310.040	991.147
77.666	12.530	1308.781	990.988
78.680	12.514	1308.604	990.670
79.695	12.540	1308.141	990.385
80.709	12.585	1307.251	989.895
81.724	12.579	1306.719	989.369
82.739	12.685	1305.811	989.235
83.753	12.714	1305.164	988.829
84.768	12.793	1303.924	988.274
85.782	12.831	1302.696	987.483
86.797	12.862	1301.346	986.557
87.812	12.694	1300.097	984.522
88.826	12.683	1299.776	984.127
89.841	12.739	1298.247	983.212
90.855	12.770	1297.023	982.383
91.870	12.868	1296.182	982.247
92.884	12.937	1295.327	981.922
93.899	12.959	1294.484	981.324
94.914	12.888	1294.334	980.702
95.928	12.920	1293.103	979.871
96.943	12.951	1292.011	979.141
97.957	12.897	1291.309	978.207
98.972	12.971	1290.321	977.809
99.987	12.926	1289.352	976.724
101.001	12.916	1288.233	975.728
102.016	12.858	1287.199	974.514
103.030	12.967	1285.565	973.838
104.045	12.870	1285.432	973.076
105.060	12.805	1284.398	971.826
106.074	12.656	1282.613	969.510
107.089	12.634	1281.320	968.318
108.103	12.627	1280.145	967.306
109.118	12.586	1278.890	966.028
110.133	12.558	1277.674	964.863
111.147	12.618	1275.903	963.787
112.162	12.615	1274.797	962.850
113.176	12.699	1273.800	962.506
114.191	12.759	1272.847	962.048
115.206	12.732	1271.682	960.924
116.220	12.710	1270.734	959.999
117.235	12.632	1269.887	958.819
118.249	12.643	1268.401	957.676
119.264	12.697	1267.232	957.023
120.279	12.643	1266.073	955.746
121.293	12.560	1265.314	954.609
122.308	12.626	1264.193	954.061
123.322	12.504	1263.165	952.494
124.337	12.590	1261.810	951.888
125.352	12.633	1260.703	951.217
126.366	12.484	1259.788	949.581
127.381	12.638	1258.597	949.484
128.395	12.539	1258.001	948.381
129.410	12.559	1257.147	947.767
130.424	12.626	1256.271	947.409
131.439	12.754	1254.756	946.920
132.454	12.675	1254.222	945.978
133.468	12.735	1253.481	945.681
134.483	12.747	1252.369	944.826
135.497	12.833	1251.400	944.504
136.512	12.757	1250.299	943.158
137.527	12.701	1249.088	941.837
138.541	12.836	1247.351	941.217
139.556	12.811	1246.308	940.207
140.570	12.858	1245.119	939.491
141.585	12.895	1244.410	939.085
142.600	12.942	1242.981	938.191
143.614	12.925	1242.198	937.418
144.629	12.944	1241.332	936.790
145.643	12.970	1239.891	935.768
146.658	12.774	1238.942	933.858
147.673	12.786	1237.702	932.908
148.687	12.811	1236.036	931.711
149.702	12.775	1235.183	930.781
150.716	12.839	1233.665	929.915
151.731	12.789	1232.301	928.528
152.746	12.841	1231.220	927.923
153.760	12.783	1230.326	926.841
154.775	12.775	1229.483	926.076
155.789	12.878	1228.807	926.063
156.804	13.014	1226.914	925.320
157.819	12.954	1226.381	924.501
158.833	12.999	1225.390	923.923
159.848	13.046	1224.430	923.379
160.862	12.993	1223.350	922.185
161.877	12.914	1222.137	920.748
162.892	13.056	1220.708	920.382
163.906	12.926	1220.143	919.154
164.921	12.832	1219.289	917.902
165.935	12.940	1218.527	917.848
166.950	13.065	1217.862	917.961
167.964	12.947	1217.158	916.697
168.979	13.001	1216.282	916.256
169.994	12.941	1215.781	915.463
171.008	12.997	1215.024	915.122
172.023	13.027	1214.184	914.577
173.037	13.044	1213.659	914.193
174.052	13.082	1212.514	913.462
175.067	13.059	1211.578	912.546
176.081	12.957	1210.403	911.019
177.096	12.964	1209.668	910.424
178.110	13.078	1208.415	910.030
179.125	12.984	1207.462	908.713
180.140	13.031	1206.216	907.954
181.154	13.107	1204.971	907.352
182.169	13.158	1203.561	906.489
183.183	13.127	1202.547	905.478
184.198	13.265	1201.438	905.315
185.213	13.202	1200.216	903.972
186.227	13.267	1199.318	903.573
187.242	13.211	1198.550	902.605
188.256	13.310	1197.086	901.963
189.271	13.239	1196.378	900.961
190.286	13.199	1195.282	899.841
191.300	13.063	1194.130	898.152
192.315	12.968	1193.759	897.278
193.329	13.141	1192.767	897.396
194.344	13.122	1192.393	896.927
195.359	13.212	1191.959	897.014
196.373	13.209	1191.600	896.648
197.388	13.286	1190.962	896.502
198.402	13.409	1190.875	897.029
199.417	13.421	1189.907	896.284
200.432	13.483	1189.118	895.943
201.446	13.516	1188.303	895.427
202.461	13.555	1186.970	894.558
203.475	13.574	1186.195	893.997
204.490	13.520	1184.982	892.711
205.504	13.433	1183.772	891.252
206.519	13.494	1182.700	890.697
207.534	13.519	1181.318	889.708
208.548	13.502	1180.645	889.031
209.563	13.502	1179.914	888.402
210.577	13.407	1179.178	887.265
211.592	13.591	1177.914	887.216
212.607	13.690	1177.222	887.150
213.621	13.639	1176.530	886.273
214.636	13.598	1176.074	885.633
215.650	13.529	1174.986	884.368
216.665	13.689	1173.854	884.292
217.680	13.801	1172.766	883.989
218.694	13.765	1172.153	883.258
219.709	13.778	1171.524	882.776
220.723	13.722	1170.769	881.833
221.738	13.670	1169.977	880.879
222.753	13.685	1169.586	880.588
223.767	13.787	1168.365	880.131
224.782	13.793	1168.003	879.809
225.796	13.924	1167.177	879.804
226.811	13.799	1166.200	878.330
227.826	13.722	1165.682	877.456
228.840	13.854	1164.845	877.443
229.855	13.808	1164.175	876.620
230.869	13.784	1163.302	875.756
231.884	13.800	1162.616	875.247
232.899	13.738	1161.603	874.080
233.913	13.635	1161.188	873.147
234.928	13.705	1160.410	872.854
235.942	13.836	1159.232	872.582
236.957	13.661	1158.622	871.126
237.972	13.680	1158.269	870.883
238.986	13.663	1157.562	870.185
240.001	13.803	1156.375	869.951
241.015	13.777	1156.037	869.483
242.030	13.844	1155.042	869.009
243.045	13.811	1154.339	868.227
244.059	13.964	1153.772	868.526
245.074	13.951	1153.069	867.851
246.088	13.991	1151.980	867.161
247.103	13.952	1151.281	866.357
248.117	13.921	1150.846	865.793
249.132	14.228	1149.282	866.138
250.147	14.135	1149.277	865.573
251.161	14.279	1148.598	865.733
252.176	14.263	1147.678	864.877
253.190	14.445	1147.011	865.246
254.205	14.281	1146.795	864.156
255.220	14.298	1146.307	863.800
256.234	14.426	1145.158	863.520
257.249	14.385	1144.343	862.616
258.263	14.329	1144.302	862.220
259.278	14.330	1143.760	861.741
260.293	14.437	1142.851	861.530
261.307	14.389	1142.447	860.901
262.322	14.341	1141.897	860.166
263.336	14.398	1140.936	859.657
264.351	14.456	1140.350	859.439
265.366	14.481	1139.634	858.955
266.380	14.502	1138.736	858.310
267.395	14.517	1137.722	857.546
268.409	14.443	1137.323	856.788
269.424	14.542	1136.573	856.656
270.439	14.537	1136.204	856.278
271.453	14.462	1135.249	855.097
272.468	14.372	1134.717	854.157
273.482	14.483	1133.681	853.870
274.497	14.508	1132.884	853.323
275.512	14.523	1132.468	853.009
276.526	14.518	1131.495	852.175
277.541	14.655	1130.719	852.215
278.555	14.572	1129.997	851.174
279.570	14.641	1129.458	851.043
280.585	14.773	1128.538	850.950
281.599	14.686	1127.941	849.981
282.614	14.657	1126.857	848.939
283.628	14.652	1125.595	847.891
284.643	14.588	1124.976	847.022
285.657	14.695	1123.909	846.689
286.672	14.584	1123.465	845.717
287.687	14.687	1122.659	845.557
288.701	14.770	1121.410	844.959
289.716	14.765	1120.772	844.379
290.730	14.814	1120.148	844.080
291.745	14.783	1119.477	843.347
292.760	14.773	1119.151	842.974
293.774	14.765	1118.762	842.565
294.789	14.805	1118.241	842.299
295.803	14.882	1117.242	841.862
296.818	14.804	1116.725	841.004
297.833	14.798	1115.347	839.864
298.847	14.801	1114.945	839.500
299.862	14.938	1114.048	839.438
300.876	14.880	1113.762	838.856
301.891	14.927	1112.906	838.377
302.906	14.940	1112.212	837.845
303.920	15.069	1111.443	837.833
304.935	15.074	1111.010	837.457
305.949	15.232	1110.173	837.542
306.964	15.170	1109.648	836.767
307.979	15.144	1108.781	835.909
308.993	15.032	1108.511	835.070
310.008	15.086	1107.803	834.734
311.022	15.159	1106.842	834.297
312.037	15.081	1105.958	833.169
313.052	15.035	1104.865	832.045
314.066	15.022	1104.011	831.261
315.081	14.973	1103.221	830.353
316.095	14.999	1102.369	829.763
317.110	15.079	1101.615	829.521
318.125	15.119	1101.152	829.297
319.139	15.089	1099.931	828.156
320.154	15.085	1099.504	827.739
321.168	15.090	1099.225	827.484
322.183	15.045	1098.287	826.482
323.197	15.127	1098.017	826.609
324.212	15.084	1097.687	826.075
325.227	15.149	1096.546	825.465
326.241	15.135	1095.926	824.858
327.256	15.131	1095.433	824.390
328.270	15.108	1094.277	823.334
329.285	15.182	1093.362	822.936
330.300	15.162	1092.340	821.998
331.314	15.209	1091.720	821.688
332.329	15.186	1090.661	820.709
333.343	15.191	1090.105	820.238
334.358	15.264	1089.016	819.705
335.373	15.283	1088.665	819.462
336.387	15.238	1087.803	818.522
337.402	15.318	1086.848	818.117
338.416	15.314	1086.071	817.443
339.431	15.381	1085.439	817.220
340.446	15.346	1084.996	816.643
341.460	15.477	1084.588	816.902
342.475	15.590	1083.430	816.509
343.489	15.508	1082.416	815.272
344.504	15.618	1081.489	815.034
345.519	15.622	1080.497	814.236
346.533	15.740	1080.003	814.365
347.548	15.668	1079.221	813.351
348.562	15.683	1078.500	812.812
349.577	15.652	1077.941	812.166
350.592	15.545	1076.728	810.667
351.606	15.503	1076.448	810.181
352.621	15.520	1075.729	809.647
353.635	15.612	1075.069	809.523
354.650	15.479	1074.632	808.484
355.665	15.547	1073.556	807.928
356.679	15.660	1072.700	807.757
357.694	15.725	1072.094	807.541
358.708	15.581	1071.920	806.647
359.723	15.795	1070.843	806.788
360.738	15.766	1070.230	806.117
361.752	15.870	1069.560	806.039
362.767	15.749	1069.259	805.162
363.781	15.745	1068.873	804.781
364.796	15.728	1068.626	804.441
365.810	15.900	1067.991	804.715
366.825	15.931	1066.716	803.833
367.840	15.893	1066.541	803.447
368.854	16.072	1066.004	803.825
369.869	16.013	1065.086	802.780
370.883	15.868	1064.828	801.826
371.898	15.966	1063.680	801.357
372.913	15.940	1062.851	800.540
373.927	15.908	1062.798	800.274
374.942	16.043	1061.993	800.238
375.956	15.985	1061.441	799.475
376.971	16.033	1061.252	799.492
377.986	16.037	1060.455	798.838
379.000	16.091	1060.176	798.816
380.015	16.222	1059.050	798.514
381.029	16.212	1058.691	798.127
382.044	16.150	1058.029	797.265
383.059	16.291	1057.274	797.291
384.073	16.233	1056.295	796.207
385.088	16.349	1055.382	795.996
386.102	16.216	1054.551	794.674
387.117	16.181	1053.465	793.621
388.132	16.088	1053.002	792.761
389.146	16.282	1052.045	792.884
390.161	16.186	1051.270	791.778
391.175	16.081	1050.746	790.820
392.190	16.232	1049.890	790.813
393.205	16.271	1049.294	790.479
394.219	16.248	1048.599	789.778
395.234	16.289	1047.806	789.304
396.248	16.120	1046.740	787.640
397.263	16.272	1045.559	787.391
398.278	16.233	1044.930	786.663
399.292	16.240	1044.064	785.979
400.307	16.195	1043.551	785.310
401.321	16.273	1042.795	785.035
402.336	16.295	1042.410	784.780
403.350	16.120	1041.716	783.374
404.365	16.277	1040.687	783.260
405.380	16.304	1039.894	782.718
406.394	16.368	1039.597	782.721
407.409	16.356	1038.436	781.721
408.423	16.340	1038.019	781.263
409.438	16.442	1037.702	781.430
410.453	16.550	1036.463	780.927
411.467	16.613	1035.906	780.729
412.482	16.586	1035.526	780.247
413.496	16.602	1034.634	779.579
414.511	16.699	1033.756	779.294
415.526	16.705	1033.433	779.010
416.540	16.557	1033.442	778.268
417.555	16.725	1032.862	778.535
418.569	16.656	1032.264	777.698
419.584	16.793	1031.675	777.815
420.599	16.802	1031.129	777.375
421.613	98.999	1315.365	1447.064
422.628	90.595	1356.745	1447.176
