DTS Sentinel unit serial number:	SN413079Multiplexer serial number:	ORYXHardware model number:	OX4-SRSoftware version number:	ORYX F/W v4.00 Oryx Data Collector v3.7.2.0data status	okinstallation	princeton_trtdifferential loss correction	single-endedforward channel	channel 2reverse channel	N/Adate	2019/09/15time	10:07:34forward acquisition time	60.00reverse acquisition time	0.00gamma	496.2192k internal	0.2315k external	0.2315temperature offset calibration	1.0017default loss term (dB/km)	0.3790temperature slope calibration	1.0000multiplexer offset coefficient	1.0000multiplexer slope coefficient	1.0000fibre end	0.00T internal ref (°C)	34.19T ext. ref 1 (°C)	5.02T ext. ref 2 (°C)	29.99length (m)	temperature (°C)	Stokes	anti-Stokes-747.200	-49.987	-0.251	0.121
-746.185	134.321	0.240	0.316
-745.171	139.486	0.170	0.227
-744.156	800.000	0.056	-0.157
-743.142	-200.000	0.026	0.129
-742.127	87.050	0.055	0.062
-741.112	360.493	0.171	0.347
-740.098	-63.115	-0.203	-0.085
-739.083	800.000	-0.095	-0.321
-738.069	32.216	-0.267	0.233
-737.054	800.000	-0.087	0.285
-736.039	-84.263	-0.493	-0.158
-735.025	351.997	-0.103	0.206
-734.010	284.826	0.119	-0.217
-732.996	63.642	-0.442	-0.450
-731.981	-200.000	-0.006	0.161
-730.966	800.000	-0.016	-0.055
-729.952	-69.464	-0.427	-0.166
-728.937	-127.244	-0.147	0.022
-727.923	99.352	-0.059	-0.069
-726.908	-200.000	-0.018	-0.269
-725.894	17.069	-0.209	-0.167
-724.879	-200.000	-0.003	-0.139
-723.864	8.831	-0.244	0.186
-722.850	159.109	-0.125	-0.175
-721.835	-200.000	0.021	-0.265
-720.821	593.697	0.160	-0.401
-719.806	-93.421	-0.078	-0.022
-718.791	699.015	0.042	0.111
-717.777	-28.385	-0.187	0.109
-716.762	-116.259	-0.272	0.051
-715.748	-8.006	0.197	-0.134
-714.733	-125.843	-0.256	-0.039
-713.718	-159.174	0.059	-0.003
-712.704	36.478	0.212	-0.190
-711.689	275.869	-0.009	0.015
-710.675	1.399	0.275	-0.200
-709.660	212.243	-0.112	-0.179
-708.645	387.277	0.151	-0.316
-707.631	121.517	-0.059	-0.075
-706.616	-1.817	0.158	-0.112
-705.602	-62.122	-0.074	-0.031
-704.587	-175.234	-0.217	0.006
-703.572	311.956	0.099	-0.189
-702.558	79.007	-0.221	0.240
-701.543	-200.000	0.020	0.191
-700.529	-200.000	0.002	-0.083
-699.514	39.738	0.092	0.084
-698.499	-80.527	-0.258	-0.087
-697.485	-148.653	0.219	0.018
-696.470	-94.033	0.145	-0.040
-695.456	-119.760	-0.199	-0.035
-694.441	800.000	-0.107	-0.367
-693.426	800.000	0.057	-0.213
-692.412	-13.039	-0.282	0.186
-691.397	-200.000	-0.059	-0.292
-690.383	3.908	-0.250	0.185
-689.368	-87.243	-0.238	-0.073
-688.354	-66.425	-0.086	0.035
-687.339	-193.792	0.114	-0.001
-686.324	-21.312	0.020	0.013
-685.310	800.000	-0.006	-0.024
-684.295	539.020	-0.186	-0.447
-683.281	-26.808	0.279	-0.165
-682.266	-108.449	-0.349	-0.076
-681.251	-20.502	-0.081	-0.051
-680.237	-200.000	-0.015	-0.140
-679.222	-32.174	0.312	-0.176
-678.208	539.368	0.023	0.055
-677.193	189.600	0.152	-0.231
-676.178	-200.000	-0.009	-0.087
-675.164	119.185	-0.104	0.130
-674.149	-47.417	-0.086	0.042
-673.135	230.765	0.108	0.179
-672.120	42.601	0.053	0.048
-671.105	-20.473	0.140	-0.087
-670.091	-182.253	-0.211	0.004
-669.076	-108.086	0.340	0.075
-668.062	-73.207	-0.377	0.140
-667.047	-113.741	0.189	-0.037
-666.032	16.623	0.211	-0.168
-665.018	2.749	-0.294	-0.215
-664.003	800.000	0.103	-0.311
-662.989	68.401	-0.107	-0.111
-661.974	800.000	0.059	-0.193
-660.959	-113.881	-0.064	0.013
-659.945	74.210	-0.140	0.149
-658.930	-2.872	-0.068	-0.048
-657.916	-85.806	-0.339	-0.106
-656.901	108.651	0.246	0.297
-655.886	113.552	-0.065	-0.079
-654.872	800.000	0.022	-0.075
-653.857	-200.000	0.025	-0.474
-652.843	11.367	-0.186	-0.143
-651.828	96.000	0.031	0.036
-650.814	34.057	0.163	0.143
-649.799	-168.736	-0.195	-0.007
-648.784	-108.116	-0.144	0.032
-647.770	16.606	-0.366	0.292
-646.755	-200.000	0.004	-0.527
-645.741	-61.031	0.020	-0.009
-644.726	-137.107	0.213	-0.025
-643.711	85.934	-0.139	0.154
-642.697	-200.000	0.009	-0.095
-641.682	-3.360	0.072	0.051
-640.668	128.580	0.098	0.126
-639.653	52.718	0.289	-0.278
-638.638	79.458	0.071	-0.077
-637.624	-200.000	0.062	-0.298
-636.609	227.600	0.262	-0.430
-635.595	-18.116	0.180	-0.114
-634.580	25.425	0.257	0.216
-633.565	800.000	0.054	-0.209
-632.551	-129.790	0.221	-0.031
-631.536	-200.000	-0.038	-0.285
-630.522	147.525	-0.092	-0.124
-629.507	-150.778	-0.323	0.025
-628.492	-93.107	0.298	-0.084
-627.478	-82.930	-0.226	-0.074
-626.463	-31.263	0.156	-0.089
-625.449	8.306	-0.189	-0.143
-624.434	-45.520	0.174	0.087
-623.419	-65.222	-0.064	-0.026
-622.405	201.322	0.030	0.046
-621.390	217.354	0.071	0.114
-620.376	36.674	0.209	0.186
-619.361	20.520	-0.230	0.187
-618.346	-77.840	0.435	-0.151
-617.332	-106.138	-0.234	-0.053
-616.317	105.299	-0.103	0.123
-615.303	163.666	0.115	-0.164
-614.288	-15.123	0.164	-0.106
-613.273	-77.856	0.064	0.022
-612.259	218.270	-0.198	0.319
-611.244	800.000	-0.132	0.380
-610.230	-56.620	0.019	0.009
-609.215	-147.457	0.064	0.005
-608.201	-76.228	-0.304	-0.108
-607.186	-200.000	-0.020	-0.191
-606.171	57.708	-0.047	-0.046
-605.157	-138.329	0.157	-0.018
-604.142	-123.405	-0.047	0.008
-603.128	746.761	-0.110	0.297
-602.113	-112.412	0.281	-0.057
-601.098	26.647	-0.194	-0.163
-600.084	60.156	0.252	0.251
-599.069	-50.667	-0.280	-0.133
-598.055	-20.273	-0.053	-0.033
-597.040	-132.673	-0.062	-0.008
-596.025	-146.920	-0.180	0.016
-595.011	-200.000	0.027	-0.192
-593.996	-72.813	-0.319	-0.118
-592.982	125.635	0.153	0.194
-591.967	56.661	0.085	-0.083
-590.952	153.058	0.196	-0.270
-589.938	-200.000	0.031	-0.334
-588.923	-59.061	0.101	0.044
-587.909	-182.824	0.111	-0.002
-586.894	-92.661	-0.317	0.089
-585.879	-85.724	-0.393	-0.123
-584.865	390.670	-0.098	-0.204
-583.850	-13.215	0.055	-0.036
-582.836	-52.739	-0.102	0.047
-581.821	800.000	0.057	0.221
-580.806	-101.583	-0.105	0.026
-579.792	-121.840	0.222	0.037
-578.777	-120.073	0.185	-0.032
-577.763	-200.000	-0.021	-0.111
-576.748	61.614	0.230	-0.230
-575.733	-53.413	0.208	0.096
-574.719	79.063	0.242	0.261
-573.704	-200.000	-0.006	0.035
-572.690	88.282	-0.191	0.214
-571.675	-195.964	-0.238	0.002
-570.661	-174.568	-0.176	-0.005
-569.646	150.956	0.112	0.153
-568.631	-107.490	-0.283	-0.062
-567.617	-104.808	-0.293	-0.068
-566.602	576.725	-0.057	0.140
-565.588	438.397	0.075	0.165
-564.573	15.062	-0.325	0.256
-563.558	-81.803	-0.314	-0.103
-562.544	182.628	0.193	0.287
-561.529	-128.751	0.313	0.044
-560.515	435.117	0.021	-0.046
-559.500	-35.708	0.259	0.141
-558.485	-64.081	-0.232	0.095
-557.471	-140.609	0.207	-0.022
-556.456	265.755	-0.031	0.055
-555.442	-200.000	0.103	-0.000
-554.427	181.024	-0.192	0.283
-553.412	-118.157	-0.131	-0.024
-552.398	-22.794	-0.097	0.059
-551.383	-62.641	-0.189	0.079
-550.369	340.379	0.071	0.140
-549.354	374.581	0.048	0.099
-548.339	-200.000	0.006	-0.220
-547.325	-157.941	0.096	-0.006
-546.310	-130.031	0.104	-0.014
-545.296	-31.043	0.273	-0.155
-544.281	-152.490	0.233	-0.017
-543.266	-15.981	-0.038	-0.024
-542.252	64.662	-0.113	-0.114
-541.237	121.496	0.226	0.283
-540.223	45.655	0.178	-0.165
-539.208	239.519	-0.249	0.417
-538.193	-145.758	0.149	-0.013
-537.179	800.000	0.119	-0.339
-536.164	-200.000	0.006	0.168
-535.150	117.068	-0.115	-0.142
-534.135	-74.405	-0.162	0.059
-533.121	-88.612	-0.182	-0.054
-532.106	226.782	-0.110	0.180
-531.091	-200.000	-0.023	-0.251
-530.077	102.275	0.283	-0.333
-529.062	-200.000	0.012	-0.214
-528.048	228.268	0.061	-0.101
-527.033	333.300	0.072	-0.141
-526.018	160.857	0.037	-0.051
-525.004	800.000	-0.074	0.220
-523.989	-75.961	0.320	0.114
-522.975	-99.025	-0.378	0.096
-521.960	248.460	-0.222	-0.377
-520.945	160.810	-0.314	-0.440
-519.931	-97.490	0.356	0.093
-518.916	-116.769	0.269	0.050
-517.902	800.000	0.080	-0.238
-516.887	69.754	-0.229	-0.237
-515.872	-53.043	-0.192	-0.089
-514.858	40.470	0.066	-0.059
-513.843	-119.217	-0.170	0.030
-512.829	800.000	-0.041	-0.177
-511.814	25.382	0.163	0.136
-510.799	800.000	0.021	0.060
-509.785	-131.012	0.289	-0.039
-508.770	-47.493	-0.137	0.067
-507.756	-24.106	0.323	0.194
-506.741	-97.823	-0.115	0.030
-505.726	16.643	-0.142	0.113
-504.712	-200.000	-0.069	-0.311
-503.697	-127.881	-0.098	-0.014
-502.683	-164.221	0.217	-0.010
-501.668	-130.226	-0.316	-0.043
-500.653	609.997	-0.035	-0.087
-499.639	-28.713	0.262	-0.151
-498.624	800.000	0.042	-0.171
-497.610	80.574	-0.099	0.107
-496.595	16.942	-0.180	0.143
-495.581	-36.535	-0.189	-0.102
-494.566	-200.000	-0.064	0.390
-493.551	-74.888	-0.393	0.141
-492.537	135.087	-0.047	-0.061
-491.522	-152.415	0.327	-0.024
-490.508	-17.316	0.301	0.190
-489.493	367.069	0.097	-0.196
-488.478	-82.020	-0.245	0.080
-487.464	800.000	-0.082	-0.315
-486.449	-126.973	0.350	-0.052
-485.435	-18.070	-0.079	0.050
-484.420	800.000	-0.042	0.181
-483.405	-74.341	-0.217	0.079
-482.391	-200.000	-0.006	-0.239
-481.376	-147.425	0.091	-0.008
-480.362	388.845	0.083	-0.172
-479.347	-87.357	0.181	-0.055
-478.332	-28.064	0.074	-0.043
-477.318	31.247	-0.103	0.089
-476.303	58.120	0.061	-0.060
-475.289	111.636	-0.127	-0.154
-474.274	-117.702	0.121	0.022
-473.259	-96.138	-0.294	-0.078
-472.245	159.825	-0.125	-0.175
-471.230	-86.889	0.428	0.131
-470.216	5.513	-0.234	0.173
-469.201	-200.000	0.016	0.109
-468.186	610.627	-0.132	0.330
-467.172	-158.417	-0.089	0.005
-466.157	-200.000	-0.019	-0.263
-465.143	-103.248	0.128	0.030
-464.128	-154.471	0.357	-0.024
-463.113	332.459	-0.096	-0.186
-462.099	-33.458	-0.192	-0.107
-461.084	-53.577	-0.233	-0.107
-460.070	186.310	0.056	0.083
-459.055	800.000	0.086	0.327
-458.040	-102.356	-0.101	0.024
-457.026	-48.766	0.163	-0.079
-456.011	-150.619	-0.511	-0.039
-454.997	-96.334	-0.314	-0.083
-453.982	-68.531	0.098	0.038
-452.968	439.866	-0.174	-0.382
-451.953	74.876	0.164	0.173
-450.938	-19.105	-0.088	0.055
-449.924	-191.991	-0.083	0.001
-448.909	-79.111	0.072	-0.025
-447.895	403.207	0.059	-0.125
-446.880	-34.490	-0.129	-0.071
-445.865	98.922	-0.155	-0.179
-444.851	406.607	0.133	0.282
-443.836	-83.976	0.241	0.077
-442.822	126.913	-0.082	-0.104
-441.807	-36.755	-0.175	-0.094
-440.792	47.097	0.090	0.084
-439.778	260.444	0.118	0.205
-438.763	-200.000	-0.029	-0.182
-437.749	-13.216	-0.163	0.106
-436.734	-150.794	0.091	0.007
-435.719	-200.000	0.102	0.461
-434.705	612.286	0.137	-0.343
-433.690	800.000	-0.136	0.413
-432.676	-112.111	0.042	0.008
-431.661	111.326	0.117	-0.141
-430.646	15.618	0.175	0.138
-429.632	774.795	0.102	-0.277
-428.617	-200.000	0.040	-0.404
-427.603	-164.561	0.155	0.007
-426.588	-92.445	0.411	-0.116
-425.573	-164.207	0.262	0.012
-424.559	800.000	-0.027	0.107
-423.544	-200.000	-0.277	-0.000
-422.530	23.190	-0.078	0.064
-421.515	282.831	0.111	0.200
-420.500	68.837	0.160	0.164
-419.486	-200.000	-0.022	0.221
-418.471	-151.911	0.029	-0.002
-417.457	800.000	-0.139	-0.511
-416.442	-200.000	0.038	-0.291
-415.428	800.000	0.053	0.173
-414.413	-200.000	0.021	0.158
-413.398	-134.478	-0.238	0.029
-412.384	-86.435	-0.093	0.029
-411.369	59.286	0.052	-0.052
-410.355	39.701	0.124	-0.112
-409.340	188.593	0.140	-0.210
-408.325	-49.401	-0.046	-0.022
-407.311	-200.000	0.040	-0.513
-406.296	-200.000	-0.002	-0.375
-405.282	-135.738	0.066	0.008
-404.267	-63.750	0.198	0.081
-403.252	51.639	0.013	-0.012
-402.238	-200.000	-0.073	-0.341
-401.223	-200.000	0.002	-0.143
-400.209	-31.657	-0.051	-0.028
-399.194	-29.242	-0.202	-0.116
-398.179	-139.505	0.159	0.017
-397.165	-96.764	-0.021	-0.005
-396.150	21.187	-0.294	0.239
-395.136	800.000	0.012	0.044
-394.121	-41.437	0.112	-0.058
-393.106	800.000	0.058	-0.188
-392.092	-68.745	-0.112	-0.043
-391.077	-166.941	-0.190	0.008
-390.063	-151.782	-0.125	0.009
-389.048	544.868	0.036	-0.085
-388.033	89.619	-0.110	0.123
-387.019	-200.000	-0.000	-0.180
-386.004	-28.867	0.199	0.114
-384.990	9.251	0.081	-0.061
-383.975	57.598	0.123	0.121
-382.960	16.814	-0.120	0.095
-381.946	126.518	0.105	-0.132
-380.931	-92.744	0.129	0.036
-379.917	800.000	-0.098	0.292
-378.902	127.240	0.133	0.168
-377.888	-168.064	0.247	0.010
-376.873	84.621	0.090	0.098
-375.858	800.000	-0.037	0.135
-374.844	-200.000	0.012	-0.349
-373.829	-13.194	-0.145	0.094
-372.815	-200.000	0.025	-0.221
-371.800	82.051	0.159	0.173
-370.785	800.000	-0.122	0.480
-369.771	108.686	0.124	-0.148
-368.756	-5.148	-0.215	0.148
-367.742	19.826	-0.076	0.061
-366.727	-200.000	0.035	0.233
-365.712	291.784	-0.049	0.089
-364.698	-37.398	-0.154	0.082
-363.683	191.204	-0.208	0.312
-362.669	-153.438	0.108	-0.007
-361.654	-6.339	0.174	-0.119
-360.639	800.000	-0.051	0.176
-359.625	-4.279	0.324	0.224
-358.610	-57.267	0.238	-0.105
-357.596	337.086	0.093	0.180
-356.581	-73.121	-0.141	0.052
-355.566	-102.098	0.134	-0.032
-354.552	609.746	-0.079	0.197
-353.537	-168.111	0.202	0.008
-352.523	-92.835	0.432	0.121
-351.508	-20.502	0.192	-0.118
-350.493	-120.252	-0.187	0.032
-349.479	417.434	0.099	-0.211
-348.464	113.604	-0.108	-0.131
-347.450	180.673	0.098	0.143
-346.435	800.000	0.022	-0.084
-345.420	130.355	0.238	-0.305
-344.406	-153.632	-0.493	0.034
-343.391	-89.332	-0.277	-0.081
-342.377	56.632	0.249	-0.242
-341.362	101.398	-0.154	0.179
-340.348	-146.805	0.151	0.013
-339.333	-132.022	-0.092	0.012
-338.318	18.427	-0.295	0.235
-337.304	282.240	-0.180	0.321
-336.289	-69.903	-0.336	-0.128
-335.275	-56.430	-0.079	0.035
-334.260	-121.379	-0.401	0.067
-333.245	-198.958	-0.214	0.001
-332.231	414.948	-0.043	0.092
-331.216	103.373	0.196	0.229
-330.202	26.706	-0.074	-0.062
-329.187	-43.873	0.360	-0.180
-328.172	-91.142	0.228	0.065
-327.158	44.325	0.191	0.175
-326.143	-183.170	-0.266	-0.005
-325.129	-200.000	-0.031	0.287
-324.114	28.729	-0.113	-0.095
-323.099	189.695	-0.180	-0.269
-322.085	68.437	-0.154	-0.157
-321.070	240.066	0.119	-0.197
-320.056	-81.916	-0.215	0.070
-319.041	-3.699	0.188	-0.130
-318.026	-135.818	0.358	0.042
-317.012	-110.094	-0.098	-0.020
-315.997	247.665	0.099	-0.167
-314.983	-200.000	0.039	-0.200
-313.968	-200.000	-0.019	-0.314
-312.953	337.933	0.045	-0.087
-311.939	18.588	-0.300	-0.239
-310.924	102.476	0.134	0.157
-309.910	761.855	-0.043	0.116
-308.895	-89.654	-0.447	0.131
-307.880	279.750	-0.170	-0.303
-306.866	-71.290	0.081	0.030
-305.851	-66.507	0.083	-0.033
-304.837	-200.000	-0.035	-0.231
-303.822	99.515	0.176	-0.203
-302.807	644.654	0.150	0.382
-301.793	40.823	-0.176	0.158
-300.778	536.264	-0.102	-0.240
-299.764	375.819	-0.144	-0.293
-298.749	-71.436	-0.294	-0.110
-297.735	-200.000	0.120	-0.592
-296.720	-79.276	-0.203	-0.069
-295.705	-200.000	0.068	0.354
-294.691	784.494	-0.084	0.230
-293.676	800.000	0.055	0.166
-292.662	-200.000	-0.043	0.239
-291.647	52.633	-0.132	-0.125
-290.632	-87.090	0.226	0.068
-289.618	54.785	0.103	0.099
-288.603	800.000	-0.038	-0.125
-287.589	-200.000	0.052	-0.252
-286.574	-78.386	0.380	-0.130
-285.559	36.866	0.119	0.105
-284.545	-200.000	-0.024	-0.277
-283.530	574.621	-0.127	-0.309
-282.516	710.649	-0.058	0.152
-281.501	35.855	0.072	-0.063
-280.486	426.557	0.026	-0.055
-279.472	64.977	-0.312	0.313
-278.457	-60.231	-0.141	-0.060
-277.443	180.439	0.060	0.088
-276.428	-3.016	0.092	-0.064
-275.413	-62.485	0.144	-0.059
-274.399	-34.131	-0.234	0.128
-273.384	57.958	0.212	0.207
-272.370	320.205	-0.035	0.066
-271.355	311.166	0.086	0.159
-270.340	-96.022	-0.154	0.041
-269.326	800.000	-0.044	-0.126
-268.311	-82.009	-0.195	0.063
-267.297	54.288	-0.134	-0.129
-266.282	-43.129	-0.165	-0.083
-265.267	357.926	0.119	-0.237
-264.253	264.863	0.165	-0.286
-263.238	-18.727	0.090	0.056
-262.224	68.221	-0.164	0.167
-261.209	111.067	-0.079	0.095
-260.195	-200.000	0.000	0.134
-259.180	178.687	-0.186	0.270
-258.165	-75.395	-0.137	-0.048
-257.151	-200.000	0.026	0.295
-256.136	-8.849	0.190	0.127
-255.122	-14.952	-0.161	-0.103
-254.107	-170.505	-0.360	-0.012
-253.092	629.888	0.119	0.299
-252.078	-164.952	0.171	-0.008
-251.063	-185.214	-0.380	-0.006
-250.049	-137.647	0.235	0.026
-249.034	-74.222	0.276	-0.099
-248.019	-118.564	-0.206	0.036
-247.005	-148.112	0.107	-0.009
-245.990	-133.484	-0.178	0.022
-244.976	-135.736	0.114	-0.013
-243.961	327.631	-0.061	0.115
-242.946	-200.000	0.024	0.361
-241.932	-163.216	0.127	0.006
-240.917	186.972	-0.120	-0.177
-239.903	-46.123	-0.227	0.111
-238.888	-90.373	-0.116	0.033
-237.873	-142.149	0.133	-0.013
-236.859	128.365	0.103	-0.130
-235.844	226.567	-0.136	-0.220
-234.830	18.864	0.099	-0.079
-233.815	573.700	-0.057	0.139
-232.800	93.099	0.131	0.147
-231.786	-99.138	0.170	0.043
-230.771	-28.767	-0.062	0.036
-229.757	94.830	-0.206	-0.233
-228.742	-162.249	-0.408	0.020
-227.727	491.077	0.214	0.487
-226.713	76.003	-0.354	0.372
-225.698	-158.178	0.238	-0.014
-224.684	-42.703	0.150	-0.076
-223.669	-82.410	0.087	-0.028
-222.655	-21.882	0.276	0.167
-221.640	-4.273	0.159	0.110
-220.625	800.000	-0.086	0.304
-219.611	-161.540	-0.248	-0.013
-218.596	552.304	-0.071	0.169
-217.582	-200.000	0.023	0.279
-216.567	-200.000	-0.038	-0.219
-215.552	-200.000	0.050	-0.260
-214.538	47.351	-0.013	0.012
-213.523	-200.000	0.041	0.208
-212.509	77.515	-0.312	-0.330
-211.494	150.809	0.269	0.363
-210.479	-98.299	0.308	0.078
-209.465	-21.890	0.234	-0.141
-208.450	-37.077	0.137	0.073
-207.436	-84.625	-0.350	0.109
-206.421	-9.658	0.154	-0.102
-205.406	-200.000	-0.061	-0.426
-204.392	-200.000	0.064	0.292
-203.377	-113.140	0.482	-0.094
-202.363	409.099	0.086	-0.180
-201.348	-200.000	-0.008	0.046
-200.333	141.301	-0.071	-0.094
-199.319	-116.467	0.153	0.028
-198.304	107.308	0.201	0.237
-197.290	800.000	-0.059	-0.169
-196.275	119.384	0.100	0.123
-195.260	-159.073	0.412	0.023
-194.246	37.824	-0.273	-0.240
-193.231	-200.000	0.009	0.116
-192.217	800.000	0.079	0.259
-191.202	326.697	0.075	-0.142
-190.187	-95.734	0.155	0.041
-189.173	207.699	-0.125	0.194
-188.158	-200.000	0.004	0.199
-187.144	109.206	0.152	0.181
-186.129	800.000	0.066	0.247
-185.114	-200.000	-0.054	-0.273
-184.100	155.283	0.046	-0.062
-183.085	-10.888	-0.219	0.144
-182.071	82.204	-0.104	0.111
-181.056	-158.741	0.191	-0.011
-180.042	212.734	0.142	0.221
-179.027	-48.898	-0.077	0.037
-178.012	106.921	0.132	0.155
-176.998	-131.107	0.129	-0.017
-175.983	-4.647	0.101	0.069
-174.969	-200.000	0.037	0.277
-173.954	-88.632	-0.222	-0.065
-172.939	506.858	-0.018	0.041
-171.925	111.671	-0.192	0.229
-170.910	-200.000	0.003	0.331
-169.896	-124.025	0.237	0.037
-168.881	-39.209	0.159	-0.083
-167.866	-200.000	0.017	0.194
-166.852	19.304	-0.264	-0.210
-165.837	-20.438	0.337	0.205
-164.823	487.152	-0.182	-0.411
-163.808	-112.302	0.039	-0.008
-162.793	132.381	0.114	-0.145
-161.779	-71.399	-0.118	-0.044
-160.764	-200.000	0.007	-0.185
-159.750	-38.364	0.055	0.029
-158.735	-200.000	0.011	0.330
-157.720	-133.600	-0.589	-0.073
-156.706	34.951	-0.108	-0.094
-155.691	-46.989	0.207	-0.100
-154.677	-200.000	-0.009	0.278
-153.662	800.000	0.054	-0.150
-152.647	141.496	-0.101	-0.133
-151.633	277.820	-0.055	0.097
-150.618	121.294	0.072	-0.089
-149.604	51.862	0.086	-0.081
-148.589	-93.917	-0.453	-0.123
-147.574	-77.127	0.239	0.082
-146.560	800.000	0.055	-0.179
-145.545	120.908	0.121	0.149
-144.531	-114.405	-0.160	-0.030
-143.516	133.110	0.093	0.119
-142.502	-66.188	-0.026	0.010
-141.487	-200.000	0.020	-0.219
-140.472	163.808	-0.239	-0.333
-139.458	-200.000	-0.059	0.265
-138.443	-43.098	-0.130	-0.065
-137.429	-19.629	0.333	0.204
-136.414	344.182	-0.085	-0.165
-135.399	-200.000	-0.030	0.272
-134.385	800.000	-0.142	0.458
-133.370	-200.000	0.004	0.194
-132.356	-105.959	-0.172	0.038
-131.341	-192.143	-0.087	-0.001
-130.326	-6.310	0.229	0.155
-129.312	800.000	0.040	-0.125
-128.297	-163.767	0.314	-0.015
-127.283	-83.664	0.126	0.040
-126.268	-126.476	0.414	-0.061
-125.253	-154.551	-0.230	0.015
-124.239	-200.000	0.030	0.248
-123.224	307.381	0.167	0.307
-122.210	58.851	-0.099	0.097
-121.195	-72.937	0.103	0.037
-120.180	107.333	-0.185	0.217
-119.166	-200.000	-0.047	0.527
-118.151	141.553	-0.087	-0.113
-117.137	117.386	-0.116	0.141
-116.122	-121.047	-0.275	0.046
-115.107	-154.460	-0.303	0.020
-114.093	-106.977	-0.114	0.025
-113.078	133.082	0.224	0.286
-112.064	-21.340	0.049	0.029
-111.049	-179.435	-0.222	-0.005
-110.034	-123.956	0.192	-0.030
-109.020	111.309	0.056	-0.066
-108.005	-200.000	-0.007	0.180
-106.991	-178.174	0.385	-0.009
-105.976	257.024	0.096	0.163
-104.962	-200.000	-0.027	0.202
-103.947	297.155	-0.190	0.344
-102.932	224.863	0.147	-0.235
-101.918	800.000	0.055	-0.208
-100.903	-200.000	0.052	-0.293
-99.889	443.724	-0.098	-0.212
-98.874	-200.000	-0.002	0.391
-97.859	250.235	0.127	-0.213
-96.845	-200.000	0.011	0.255
-95.830	-78.464	-0.264	0.089
-94.816	800.000	-0.062	0.179
-93.801	-123.917	-0.136	0.021
-92.786	800.000	-0.050	-0.182
-91.772	-200.000	0.007	0.248
-90.757	-129.540	0.184	-0.025
-89.743	-59.224	0.090	-0.038
-88.728	121.931	0.297	-0.366
-87.713	551.906	0.111	-0.264
-86.699	366.671	-0.092	-0.183
-85.684	-74.270	0.105	0.037
-84.670	-65.374	-0.137	0.054
-83.655	-200.000	-0.026	0.286
-82.640	-153.021	0.072	-0.005
-81.626	-200.000	-0.033	0.251
-80.611	7.760	-0.089	-0.065
-79.597	-130.666	-0.321	0.043
-78.582	-87.965	0.076	-0.022
-77.567	30.894	0.267	-0.225
-76.553	593.009	-0.052	-0.126
-75.538	17.103	0.177	-0.138
-74.524	22.312	0.104	0.084
-73.509	-143.142	-0.338	-0.032
-72.494	-200.000	0.079	0.374
-71.480	-38.457	0.129	0.067
-70.465	800.000	0.050	-0.216
-69.451	-74.588	-0.153	-0.054
-68.436	800.000	0.062	0.212
-67.422	-200.000	0.038	-0.172
-66.407	-200.000	0.005	-0.133
-65.392	-82.077	-0.203	-0.065
-64.378	59.473	0.224	0.218
-63.363	-61.228	-0.269	0.112
-62.349	2.527	0.421	0.301
-61.334	54.214	-0.793	-0.753
-60.319	-200.000	0.091	0.621
-59.305	-200.000	-0.204	-0.902
-58.290	221.543	0.599	0.950
-57.276	346.837	0.826	1.604
-56.261	-200.000	96.926	568.979
-55.246	629.515	1401.497	3495.481
-54.232	185.486	2621.060	3839.148
-53.217	114.290	2313.673	2777.772
-52.203	43.619	1923.945	1735.703
-51.188	37.407	1710.024	1495.061
-50.173	34.708	1665.345	1435.688
-49.159	51.420	1713.687	1605.141
-48.144	54.696	1730.790	1646.055
-47.130	37.239	1686.964	1473.396
-46.115	34.218	1672.485	1437.916
-45.100	34.089	1667.152	1432.307
-44.086	34.030	1664.700	1429.696
-43.071	34.072	1662.268	1427.869
-42.057	34.034	1659.710	1425.329
-41.042	34.028	1657.771	1423.560
-40.027	33.996	1656.138	1421.860
-39.013	34.161	1653.087	1420.418
-37.998	34.018	1651.960	1418.330
-36.984	33.973	1650.825	1416.964
-35.969	34.119	1649.390	1416.760
-34.954	34.190	1647.201	1415.356
-33.940	34.169	1645.357	1413.557
-32.925	34.207	1643.688	1412.345
-31.911	34.252	1641.862	1411.055
-30.896	34.121	1640.542	1408.898
-29.881	34.179	1638.848	1407.817
-28.867	34.146	1637.116	1406.026
-27.852	34.215	1635.349	1404.962
-26.838	34.280	1633.724	1403.993
-25.823	34.131	1633.036	1402.243
-24.809	34.225	1631.486	1401.550
-23.794	34.227	1629.924	1400.165
-22.779	34.140	1628.932	1398.620
-21.765	34.232	1626.166	1396.865
-20.750	34.138	1625.114	1395.217
-19.736	34.243	1623.576	1394.610
-18.721	34.218	1622.133	1393.131
-17.706	34.132	1620.996	1391.475
-16.692	34.253	1619.174	1390.733
-15.677	34.246	1617.443	1389.140
-14.663	34.216	1616.443	1388.008
-13.648	34.236	1614.944	1386.817
-12.633	34.294	1613.441	1385.887
-11.619	34.239	1611.901	1384.112
-10.604	34.174	1610.460	1382.349
-9.590	34.185	1609.311	1381.387
-8.575	34.273	1607.708	1380.595
-7.560	34.253	1606.176	1379.081
-6.546	34.240	1605.455	1378.315
-5.531	34.293	1604.210	1377.567
-4.517	34.207	1602.838	1375.714
-3.502	34.247	1602.218	1375.418
-2.487	34.327	1600.264	1374.267
-1.473	34.094	1588.994	1362.860
-0.458	31.386	1569.517	1326.911
0.556	26.706	1569.571	1293.376
1.571	24.160	1593.592	1294.574
2.586	23.584	1607.422	1301.467
3.600	21.044	1554.509	1240.476
4.615	13.100	1445.204	1100.419
5.629	6.211	1380.957	1007.406
6.644	5.150	1372.716	994.545
7.659	4.984	1371.450	992.487
8.673	4.967	1370.506	991.607
9.688	4.979	1368.504	990.147
10.702	4.869	1365.798	987.404
11.717	8.134	1372.096	1012.634
12.731	15.813	1385.858	1071.787
13.746	19.642	1391.416	1100.426
14.761	18.698	1388.897	1092.333
15.775	17.457	1386.000	1082.068
16.790	16.367	1383.202	1072.870
17.804	15.669	1380.569	1066.308
18.819	15.307	1379.016	1062.721
19.834	14.937	1378.200	1059.653
20.848	14.687	1376.980	1057.042
21.863	14.404	1375.696	1054.173
22.877	14.324	1374.115	1052.361
23.892	14.286	1373.321	1051.422
24.907	14.211	1372.702	1050.379
25.921	14.273	1371.724	1049.929
26.936	14.346	1370.970	1049.719
27.950	14.462	1369.291	1049.068
28.965	14.526	1367.997	1048.387
29.980	14.518	1367.852	1048.131
30.994	14.637	1366.434	1047.699
32.009	14.592	1365.446	1046.568
33.023	14.633	1364.054	1045.666
34.038	14.575	1362.349	1043.901
35.053	14.563	1360.713	1042.481
36.067	14.551	1360.149	1041.881
37.082	14.532	1359.238	1040.973
38.096	14.580	1358.031	1040.260
39.111	14.605	1357.647	1040.030
40.126	14.485	1356.692	1038.454
41.140	14.400	1355.598	1037.002
42.155	14.280	1355.275	1035.915
43.169	14.287	1354.891	1035.573
44.184	14.362	1353.948	1035.225
45.199	14.311	1354.351	1035.122
46.213	14.302	1353.843	1034.589
47.228	14.431	1352.708	1034.429
48.242	14.425	1351.438	1033.330
49.257	14.480	1349.554	1032.139
50.271	14.459	1348.169	1030.859
51.286	14.470	1347.378	1030.233
52.301	14.454	1345.947	1028.947
53.315	14.348	1344.806	1027.330
54.330	14.277	1343.850	1026.069
55.344	14.224	1342.774	1024.833
56.359	14.283	1341.728	1024.307
57.374	14.219	1340.780	1023.101
58.388	14.247	1339.708	1022.364
59.403	14.141	1339.659	1021.584
60.417	14.254	1338.203	1021.076
61.432	14.179	1337.991	1020.362
62.447	14.137	1336.877	1019.168
63.461	14.075	1335.856	1017.920
64.476	14.033	1334.932	1016.868
65.490	14.063	1333.806	1016.103
66.505	14.082	1332.062	1014.800
67.520	14.127	1330.816	1014.036
68.534	14.205	1329.857	1013.692
69.549	14.097	1329.185	1012.428
70.563	14.148	1328.203	1011.904
71.578	14.024	1327.131	1010.242
72.593	14.047	1325.955	1009.401
73.607	13.964	1325.376	1008.366
74.622	14.124	1323.884	1008.114
75.636	14.068	1323.717	1007.553
76.651	14.027	1322.438	1006.244
77.666	14.050	1322.325	1006.206
78.680	14.089	1321.975	1006.087
79.695	14.154	1320.943	1005.608
80.709	14.138	1320.302	1004.935
81.724	14.145	1319.549	1004.312
82.739	14.276	1318.545	1004.253
83.753	14.307	1318.033	1003.958
84.768	14.433	1316.509	1003.467
85.782	14.472	1315.868	1003.129
86.797	14.507	1314.322	1002.067
87.812	14.453	1312.939	1000.599
88.826	14.379	1312.024	999.370
89.841	14.483	1310.030	998.388
90.855	14.570	1309.719	998.581
91.870	14.471	1309.329	997.606
92.884	14.494	1308.118	996.729
93.899	14.540	1307.278	996.278
94.914	14.636	1306.606	996.253
95.928	14.599	1305.851	995.365
96.943	14.579	1304.756	994.322
97.957	14.526	1304.069	993.394
98.972	14.441	1302.954	991.952
99.987	14.483	1301.971	991.366
101.001	14.513	1300.653	990.452
102.016	14.494	1299.919	989.696
103.030	14.554	1299.042	989.295
104.045	14.600	1297.963	988.657
105.060	14.464	1296.877	986.937
106.074	14.427	1295.534	985.610
107.089	14.228	1294.167	983.307
108.103	14.121	1292.925	981.646
109.118	14.203	1291.611	981.045
110.133	14.294	1290.221	980.435
111.147	14.241	1288.780	978.943
112.162	14.229	1287.806	978.049
113.176	14.398	1286.217	977.744
114.191	14.339	1285.220	976.553
115.206	14.304	1284.392	975.635
116.220	14.307	1282.949	974.471
117.235	14.303	1281.824	973.507
118.249	14.409	1280.758	973.232
119.264	14.227	1280.086	971.573
120.279	14.230	1278.695	970.445
121.293	14.169	1277.814	969.337
122.308	14.225	1276.901	968.883
123.322	14.154	1275.448	967.284
124.337	14.221	1274.127	966.587
125.352	14.231	1272.999	965.699
126.366	14.189	1272.523	965.010
127.381	14.236	1271.361	964.316
128.395	14.151	1270.574	963.145
129.410	14.229	1269.484	962.681
130.424	14.266	1268.815	962.302
131.439	14.181	1267.742	960.916
132.454	14.304	1266.951	960.938
133.468	14.346	1265.776	960.206
134.483	14.421	1265.052	960.000
135.497	14.313	1264.303	958.730
136.512	14.326	1262.838	957.607
137.527	14.374	1261.396	956.707
138.541	14.346	1259.985	955.388
139.556	14.382	1258.513	954.394
140.570	14.439	1258.328	954.494
141.585	14.375	1257.007	953.044
142.600	14.570	1255.341	952.812
143.614	14.586	1254.543	952.211
144.629	14.626	1253.265	951.387
145.643	14.625	1252.118	950.424
146.658	14.362	1251.391	948.292
147.673	14.459	1249.506	947.330
148.687	14.301	1248.472	945.564
149.702	14.508	1246.692	945.306
150.716	14.380	1245.707	943.752
151.731	14.404	1244.531	942.916
152.746	14.494	1243.241	942.359
153.760	14.415	1242.293	941.116
154.775	14.425	1241.134	940.210
155.789	14.622	1240.133	940.479
156.804	14.626	1239.491	939.930
157.819	14.573	1238.130	938.519
158.833	14.634	1237.434	938.248
159.848	14.673	1236.289	937.516
160.862	14.656	1235.570	936.792
161.877	14.632	1233.988	935.375
162.892	14.526	1233.310	934.186
163.906	14.462	1232.333	933.005
164.921	14.431	1232.067	932.548
165.935	14.592	1230.573	932.234
166.950	14.506	1230.292	931.456
167.964	14.507	1229.556	930.823
168.979	14.595	1228.714	930.595
169.994	14.660	1227.543	929.989
171.008	14.680	1226.882	929.518
172.023	14.686	1226.282	929.011
173.037	14.748	1225.761	928.884
174.052	14.618	1224.953	927.465
175.067	14.627	1223.409	926.263
176.081	14.536	1223.102	925.443
177.096	14.654	1221.613	924.891
178.110	14.598	1220.800	923.882
179.125	14.633	1219.562	923.058
180.140	14.728	1218.096	922.388
181.154	14.611	1217.122	920.923
182.169	14.836	1215.342	920.736
183.183	14.743	1214.659	919.624
184.198	14.786	1213.808	919.135
185.213	14.815	1212.795	918.447
186.227	14.879	1211.417	917.674
187.242	14.889	1210.261	916.771
188.256	15.001	1209.164	916.476
189.271	14.961	1208.302	915.520
190.286	14.845	1206.989	913.809
191.300	14.536	1206.869	911.950
192.315	14.679	1205.165	911.362
193.329	14.656	1205.269	911.234
194.344	14.689	1204.407	910.680
195.359	14.750	1203.990	910.618
196.373	14.830	1203.259	910.422
197.388	14.996	1203.004	911.050
198.402	14.906	1202.694	910.247
199.417	15.106	1202.047	910.761
200.432	15.136	1200.808	909.908
201.446	15.016	1200.403	908.867
202.461	15.218	1199.074	908.879
203.475	15.081	1198.700	907.769
204.490	15.108	1196.792	906.392
205.504	14.980	1195.755	904.833
206.519	15.076	1194.328	904.194
207.534	14.873	1193.755	902.583
208.548	15.111	1192.217	902.622
209.563	15.118	1191.218	901.823
210.577	15.089	1190.717	901.208
211.592	15.106	1189.896	900.602
212.607	15.229	1188.735	900.302
213.621	15.256	1188.390	900.105
214.636	15.132	1187.319	898.550
215.650	15.152	1186.512	897.964
216.665	15.209	1185.533	897.454
217.680	15.283	1184.519	897.001
218.694	15.334	1183.839	896.681
219.709	15.327	1182.915	895.860
220.723	15.310	1182.108	895.080
221.738	15.304	1181.343	894.394
222.753	15.333	1180.645	893.937
223.767	15.310	1180.253	893.437
224.782	15.420	1179.336	893.254
225.796	15.494	1178.775	893.142
226.811	15.434	1178.232	892.335
227.826	15.458	1177.515	891.835
228.840	15.429	1176.506	890.840
229.855	15.369	1175.868	889.961
230.869	15.477	1174.658	889.538
231.884	15.277	1174.342	888.163
232.899	15.424	1173.215	888.006
233.913	15.317	1172.405	886.751
234.928	15.289	1171.879	886.125
235.942	15.390	1170.903	885.844
236.957	15.340	1170.254	885.009
237.972	15.218	1169.632	883.817
238.986	15.323	1169.177	883.947
240.001	15.392	1168.122	883.439
241.015	15.411	1167.145	882.720
242.030	15.434	1166.433	882.224
243.045	15.436	1166.240	882.009
244.059	15.459	1165.038	881.142
245.074	15.428	1164.181	880.254
246.088	15.589	1163.369	880.406
247.103	15.596	1162.453	879.672
248.117	15.620	1162.093	879.448
249.132	15.745	1161.576	879.633
250.147	15.912	1161.021	880.008
251.161	15.993	1159.738	879.377
252.176	15.966	1159.250	878.792
253.190	15.914	1158.420	877.811
254.205	15.890	1158.266	877.496
255.220	15.866	1157.916	877.025
256.234	15.934	1157.537	877.014
257.249	16.044	1156.062	876.391
258.263	15.997	1155.537	875.672
259.278	16.013	1155.156	875.390
260.293	16.088	1154.032	874.849
261.307	16.133	1153.569	874.653
262.322	16.022	1153.423	873.888
263.336	15.989	1152.387	872.856
264.351	16.164	1151.866	873.292
265.366	16.074	1151.685	872.610
266.380	16.112	1150.564	871.880
267.395	16.149	1149.633	871.290
268.409	16.128	1148.744	870.432
269.424	16.045	1148.320	869.605
270.439	16.087	1147.686	869.263
271.453	16.087	1146.989	868.656
272.468	16.135	1145.487	867.689
273.482	16.178	1144.633	867.189
274.497	16.112	1144.376	866.577
275.512	16.140	1143.543	866.013
276.526	16.109	1142.780	865.202
277.541	16.196	1142.157	865.097
278.555	16.058	1141.517	863.832
279.570	16.124	1141.119	863.788
280.585	16.223	1140.364	863.647
281.599	16.326	1139.364	863.345
282.614	16.196	1138.516	861.959
283.628	16.279	1136.973	861.139
284.643	16.315	1135.944	860.466
285.657	16.262	1135.386	859.698
286.672	16.275	1134.649	859.129
287.687	16.285	1134.058	858.654
288.701	16.349	1132.640	857.829
289.716	16.328	1131.779	856.998
290.730	16.395	1131.316	856.909
291.745	16.296	1130.928	856.039
292.760	16.342	1130.397	855.794
293.774	16.364	1130.042	855.561
294.789	16.561	1128.829	855.563
295.803	16.469	1128.511	854.780
296.818	16.377	1127.692	853.620
297.833	16.365	1127.293	853.185
298.847	16.454	1125.905	852.504
299.862	16.513	1125.051	852.080
300.876	16.523	1124.308	851.493
301.891	16.524	1123.804	851.043
302.906	16.653	1123.225	851.175
303.920	16.580	1122.624	850.279
304.935	16.607	1122.260	850.061
305.949	16.778	1121.430	850.220
306.964	16.709	1120.825	849.339
307.979	16.718	1120.157	848.801
308.993	16.566	1119.597	847.540
310.008	16.753	1118.534	847.595
311.022	16.740	1117.456	846.642
312.037	16.722	1116.809	845.983
313.052	16.747	1115.968	845.397
314.066	16.618	1115.129	844.046
315.081	16.582	1114.227	843.107
316.095	16.455	1113.541	841.880
317.110	16.595	1112.933	842.046
318.125	16.617	1112.462	841.725
319.139	16.640	1111.364	840.929
320.154	16.630	1110.836	840.408
321.168	16.612	1110.387	839.902
322.183	16.629	1109.770	839.448
323.197	16.681	1109.015	839.059
324.212	16.726	1108.476	838.801
325.227	16.829	1107.607	838.580
326.241	16.760	1106.940	837.659
327.256	16.681	1106.447	836.823
328.270	16.905	1104.863	836.652
329.285	16.794	1104.083	835.444
330.300	16.730	1103.425	834.554
331.314	16.819	1102.471	834.197
332.329	16.799	1101.300	833.142
333.343	16.856	1100.795	832.964
334.358	16.932	1099.822	832.529
335.373	16.906	1099.228	831.875
336.387	16.965	1098.564	831.591
337.402	16.997	1097.883	831.155
338.416	16.881	1097.497	830.224
339.431	17.046	1096.607	830.283
340.446	17.148	1095.769	830.075
341.460	17.273	1095.223	830.200
342.475	17.216	1094.324	829.163
343.489	17.179	1093.529	828.310
344.504	17.163	1092.533	827.402
345.519	17.286	1091.663	827.268
346.533	17.326	1090.782	826.721
347.548	17.281	1089.881	825.748
348.562	17.340	1088.903	825.220
349.577	17.320	1088.410	824.679
350.592	17.192	1087.816	823.533
351.606	17.169	1087.154	822.847
352.621	17.021	1086.345	821.448
353.635	17.155	1085.425	821.325
354.650	17.073	1085.023	820.551
355.665	17.165	1084.367	820.428
356.679	17.192	1083.755	820.022
357.694	17.267	1083.171	819.873
358.708	17.309	1082.292	819.334
359.723	17.265	1081.892	818.750
360.738	17.285	1081.210	818.253
361.752	17.276	1080.739	817.785
362.767	17.394	1079.915	817.654
363.781	17.294	1079.389	816.702
364.796	17.459	1078.707	816.909
365.810	17.516	1078.322	816.818
366.825	17.429	1078.108	816.166
367.840	17.638	1077.269	816.460
368.854	17.548	1076.526	815.393
369.869	17.672	1076.034	815.541
370.883	17.563	1074.894	814.087
371.898	17.450	1074.068	812.846
372.913	17.501	1073.479	812.573
373.927	17.558	1073.381	812.698
374.942	17.606	1072.752	812.380
375.956	17.692	1071.997	812.145
376.971	17.709	1071.449	811.741
377.986	17.754	1070.867	811.441
379.000	17.859	1070.143	811.320
380.015	17.867	1069.679	810.935
381.029	17.824	1069.335	810.398
382.044	17.781	1068.827	809.737
383.059	17.717	1068.006	808.739
384.073	17.769	1067.071	808.207
385.088	17.803	1066.177	807.618
386.102	17.937	1064.800	807.137
387.117	17.842	1063.946	805.971
388.132	17.720	1063.438	804.939
389.146	17.804	1062.192	804.322
390.161	17.781	1061.520	803.633
391.175	17.780	1061.110	803.245
392.190	17.934	1060.448	803.398
393.205	17.920	1060.015	802.934
394.219	17.892	1059.191	802.105
395.234	17.846	1058.392	801.214
396.248	17.935	1056.901	800.430
397.263	17.797	1056.090	799.100
398.278	17.781	1055.676	798.642
399.292	17.882	1054.659	798.274
400.307	17.716	1053.734	796.728
401.321	17.774	1053.196	796.522
402.336	17.770	1052.979	796.268
403.350	17.850	1052.103	795.908
404.365	17.964	1050.814	795.396
405.380	17.894	1050.477	794.744
406.394	17.741	1050.205	793.755
407.409	18.031	1049.002	794.121
408.423	18.044	1048.653	793.846
409.438	18.109	1047.932	793.535
410.453	18.206	1047.242	793.392
411.467	18.116	1046.422	792.282
412.482	18.238	1045.785	792.295
413.496	18.168	1045.274	791.512
414.511	18.225	1044.641	791.228
415.526	18.402	1044.163	791.614
416.540	18.366	1043.802	791.105
417.555	18.362	1043.447	790.748
418.569	18.385	1042.730	790.238
419.584	18.386	1042.347	789.882
420.599	18.343	1041.853	789.242
421.613	147.974	1400.560	1791.614
422.628	135.323	1452.842	1791.729
