DTS Sentinel unit serial number:	SN413079Multiplexer serial number:	ORYXHardware model number:	OX4-SRSoftware version number:	ORYX F/W v4.00 Oryx Data Collector v3.7.2.0data status	okinstallation	princeton_trtdifferential loss correction	single-endedforward channel	channel 2reverse channel	N/Adate	2019/09/15time	02:03:35forward acquisition time	60.00reverse acquisition time	0.00gamma	496.2192k internal	0.2326k external	0.2326temperature offset calibration	1.0029default loss term (dB/km)	0.3790temperature slope calibration	1.0000multiplexer offset coefficient	1.0000multiplexer slope coefficient	1.0000fibre end	0.00T internal ref (°C)	31.75T ext. ref 1 (°C)	4.52T ext. ref 2 (°C)	26.47length (m)	temperature (°C)	Stokes	anti-Stokes-747.200	-200.000	-0.044	-0.251
-746.185	-200.000	0.038	-0.243
-745.171	-102.351	0.477	-0.115
-744.156	-50.491	0.123	0.059
-743.142	179.453	0.160	-0.236
-742.127	22.837	-0.098	-0.081
-741.112	-200.000	-0.034	0.292
-740.098	-200.000	0.041	0.199
-739.083	-55.272	-0.144	-0.065
-738.069	397.383	-0.225	0.475
-737.054	-181.803	-0.347	0.007
-736.039	-200.000	-0.045	-0.271
-735.025	-88.521	0.132	-0.040
-734.010	19.542	-0.107	-0.086
-732.996	-200.000	0.028	0.197
-731.981	-45.545	-0.112	-0.056
-730.966	-66.903	-0.235	0.094
-729.952	40.691	-0.275	-0.250
-728.937	144.226	-0.193	0.259
-727.923	93.709	-0.317	-0.362
-726.908	247.372	-0.063	0.107
-725.894	110.752	0.300	-0.364
-724.879	720.985	0.010	0.028
-723.864	-200.000	0.034	-0.248
-722.850	-200.000	-0.064	-0.315
-721.835	-177.667	0.061	0.001
-720.821	-76.410	-0.516	0.183
-719.806	467.016	-0.060	0.135
-718.791	-136.002	-0.087	0.010
-717.777	-140.043	-0.179	-0.019
-716.762	-88.918	0.128	0.038
-715.748	-183.944	-0.211	0.004
-714.733	592.792	0.072	0.180
-713.718	-200.000	-0.004	-0.388
-712.704	-68.234	-0.168	0.066
-711.689	424.615	-0.102	0.221
-710.675	-58.545	0.034	0.015
-709.660	-166.256	-0.282	-0.012
-708.645	-97.687	-0.295	-0.077
-707.631	481.517	-0.076	-0.173
-706.616	285.967	0.191	0.348
-705.602	40.484	-0.083	-0.075
-704.587	132.783	0.003	-0.004
-703.572	-116.206	0.049	-0.009
-702.558	113.530	-0.080	0.098
-701.543	149.363	0.120	0.164
-700.529	-61.948	-0.065	-0.027
-699.514	-59.365	-0.149	0.065
-698.499	-104.421	-0.250	0.058
-697.485	-200.000	0.066	0.380
-696.470	-122.218	0.387	0.064
-695.456	-125.375	-0.134	0.021
-694.441	146.966	0.176	-0.239
-693.426	-162.779	0.217	0.011
-692.412	-129.244	-0.138	0.019
-691.397	-9.650	-0.266	-0.179
-690.383	396.993	-0.183	-0.386
-689.368	501.919	0.163	-0.379
-688.354	-174.371	-0.316	-0.009
-687.339	-200.000	-0.028	0.359
-686.324	28.788	0.198	0.168
-685.310	0.040	-0.422	0.303
-684.295	-125.196	-0.416	-0.064
-683.281	397.329	0.154	0.324
-682.266	534.357	0.058	-0.139
-681.251	800.000	-0.044	-0.127
-680.237	-128.729	0.161	0.023
-679.222	120.921	-0.174	-0.218
-678.208	-200.000	-0.004	-0.227
-677.193	-200.000	0.054	-0.450
-676.178	80.196	0.169	0.183
-675.164	201.516	-0.108	-0.167
-674.149	-94.023	-0.065	0.018
-673.135	133.419	-0.222	-0.289
-672.120	21.714	-0.233	-0.191
-671.105	33.565	-0.094	-0.082
-670.091	-32.481	-0.275	0.154
-669.076	365.884	-0.132	-0.267
-668.062	-98.692	-0.184	-0.047
-667.047	-27.400	-0.087	-0.051
-666.032	313.530	0.080	0.152
-665.018	38.229	-0.205	-0.184
-664.003	-200.000	-0.018	0.123
-662.989	-200.000	-0.075	-0.420
-661.974	-65.980	0.158	-0.063
-660.959	800.000	-0.099	0.286
-659.945	-119.875	-0.462	-0.080
-658.930	-115.087	-0.256	-0.049
-657.916	363.011	0.085	0.171
-656.901	-23.575	0.239	-0.144
-655.886	800.000	0.027	-0.097
-654.872	101.020	-0.195	-0.228
-653.857	-133.948	-0.249	0.031
-652.843	-183.371	-0.229	0.004
-651.828	-30.820	-0.074	0.042
-650.814	91.254	-0.193	0.218
-649.799	-118.029	0.364	-0.065
-648.784	-200.000	0.032	-0.148
-647.770	-200.000	0.003	0.122
-646.755	-34.194	-0.184	-0.102
-645.741	398.608	0.075	-0.158
-644.726	-76.518	0.170	-0.060
-643.711	-71.581	-0.141	0.053
-642.697	296.196	-0.106	0.196
-641.682	-52.217	0.261	-0.122
-640.668	58.497	-0.084	-0.083
-639.653	-18.031	0.168	0.106
-638.638	800.000	0.079	-0.285
-637.624	594.539	0.045	-0.113
-636.609	79.161	0.206	0.222
-635.595	19.717	0.080	-0.065
-634.580	638.544	0.025	-0.063
-633.565	-70.174	-0.024	0.009
-632.551	71.069	0.130	0.135
-631.536	277.666	0.071	-0.127
-630.522	650.540	-0.031	0.080
-629.507	10.306	0.168	0.128
-628.492	-200.000	-0.033	-0.209
-627.478	-50.314	-0.193	-0.092
-626.463	-200.000	0.037	-0.228
-625.449	191.720	0.044	0.067
-624.434	-27.126	-0.341	-0.200
-623.419	147.204	0.126	0.170
-622.405	-98.604	-0.122	0.031
-621.390	-5.450	-0.157	-0.108
-620.376	-45.807	0.091	0.045
-619.361	48.567	0.159	0.149
-618.346	50.326	0.079	-0.075
-617.332	-94.944	-0.296	-0.080
-616.317	-86.476	-0.160	0.049
-615.303	644.925	0.085	-0.218
-614.288	257.930	-0.252	-0.435
-613.273	-79.919	-0.181	0.061
-612.259	-200.000	-0.004	-0.017
-611.244	17.204	-0.121	-0.097
-610.230	-38.105	0.452	0.241
-609.215	-43.674	-0.191	0.096
-608.201	-200.000	-0.006	0.147
-607.186	800.000	0.088	-0.278
-606.171	-133.783	-0.307	-0.038
-605.157	-78.761	-0.153	-0.052
-604.142	-200.000	0.049	-0.486
-603.128	-200.000	0.052	-0.271
-602.113	166.256	0.021	-0.030
-601.098	288.248	-0.131	-0.237
-600.084	-75.109	0.127	0.045
-599.069	-45.881	-0.336	-0.166
-598.055	252.991	-0.152	-0.260
-597.040	-134.131	0.290	0.036
-596.025	418.000	0.158	0.338
-595.011	158.018	-0.127	0.176
-593.996	-167.543	-0.215	0.009
-592.982	-95.288	-0.038	-0.010
-591.967	-128.105	-0.222	-0.032
-590.952	-138.769	0.151	0.017
-589.938	19.210	0.392	-0.315
-588.923	141.383	0.347	-0.460
-587.909	75.448	0.093	-0.099
-586.894	85.049	0.067	0.073
-585.879	-96.381	-0.121	-0.032
-584.865	-60.512	0.268	-0.114
-583.850	145.984	-0.209	0.281
-582.836	-111.556	-0.323	0.066
-581.821	-76.790	0.293	0.103
-580.806	-11.770	-0.241	-0.159
-579.792	313.039	-0.225	0.424
-578.777	88.980	0.161	0.180
-577.763	-107.447	-0.211	0.046
-576.748	-26.612	-0.090	0.053
-575.733	-39.756	0.191	-0.100
-574.719	800.000	0.069	0.208
-573.704	-156.127	0.155	0.010
-572.690	250.423	-0.035	0.059
-571.675	800.000	0.122	0.413
-570.661	672.051	-0.090	-0.235
-569.646	-200.000	0.007	-0.344
-568.631	168.234	-0.117	0.166
-567.617	-200.000	-0.017	-0.251
-566.602	-200.000	0.063	0.316
-565.588	-108.199	0.160	-0.035
-564.573	111.089	-0.085	0.103
-563.558	157.553	-0.093	0.128
-562.544	-107.609	-0.268	0.059
-561.529	24.731	0.176	0.146
-560.515	-200.000	0.050	0.320
-559.500	-191.457	-0.148	0.001
-558.485	-32.745	-0.240	0.133
-557.471	-50.209	-0.246	0.116
-556.456	-32.927	-0.143	-0.079
-555.442	-75.744	0.235	0.083
-554.427	244.002	-0.159	-0.266
-553.412	-200.000	-0.037	0.211
-552.398	-62.962	0.093	-0.039
-551.383	-200.000	-0.002	0.081
-550.369	121.816	0.296	-0.369
-549.354	800.000	-0.066	0.279
-548.339	-200.000	0.015	0.267
-547.325	-31.452	0.283	0.159
-546.310	-57.781	-0.158	-0.069
-545.296	-125.925	0.483	-0.073
-544.281	43.127	0.184	0.168
-543.266	207.636	-0.153	0.239
-542.252	-49.442	-0.279	0.133
-541.237	-91.607	0.258	-0.073
-540.223	43.250	-0.120	-0.110
-539.208	-68.062	0.311	0.121
-538.193	-200.000	-0.008	0.112
-537.179	-118.732	-0.173	0.031
-536.164	125.590	-0.070	0.089
-535.150	30.952	0.029	0.025
-534.135	-81.159	-0.161	0.053
-533.121	111.319	-0.168	-0.202
-532.106	-85.235	0.161	-0.050
-531.091	482.317	-0.176	0.400
-530.077	-73.062	0.170	0.062
-529.062	-20.676	-0.217	0.134
-528.048	-200.000	-0.135	-0.642
-527.033	208.408	0.053	0.083
-526.018	179.096	-0.115	-0.169
-525.004	-84.456	0.168	0.053
-523.989	800.000	0.105	-0.454
-522.975	-69.754	0.430	0.164
-521.960	-108.023	0.129	-0.028
-520.945	142.309	-0.173	-0.230
-519.931	370.073	-0.161	-0.325
-518.916	263.353	0.140	0.243
-517.902	237.606	0.075	-0.124
-516.887	57.693	0.340	0.332
-515.872	-200.000	0.009	0.265
-514.858	-200.000	0.000	0.133
-513.843	-152.483	0.111	-0.008
-512.829	17.884	0.238	-0.189
-511.814	227.311	0.072	0.116
-510.799	-39.648	-0.281	0.147
-509.785	-200.000	-0.021	0.189
-508.770	-71.493	0.160	-0.060
-507.756	178.430	-0.065	0.096
-506.741	630.997	-0.075	-0.189
-505.726	97.911	0.144	0.166
-504.712	-45.516	0.156	-0.077
-503.697	71.433	0.104	-0.108
-502.683	-200.000	0.015	0.130
-501.668	12.093	-0.298	-0.229
-500.653	246.116	0.060	-0.101
-499.639	39.127	0.067	0.060
-498.624	226.039	0.120	-0.195
-497.610	4.667	0.104	0.077
-496.595	150.064	0.018	-0.024
-495.581	-141.203	0.297	-0.030
-494.566	21.674	0.330	-0.268
-493.551	37.601	0.138	-0.123
-492.537	800.000	-0.122	-0.343
-491.522	-100.285	0.142	0.035
-490.508	437.635	-0.053	-0.115
-489.493	800.000	-0.072	0.218
-488.478	-200.000	0.006	0.327
-487.464	120.457	-0.031	0.039
-486.449	-200.000	0.005	-0.058
-485.435	-200.000	0.073	-0.322
-484.420	191.943	0.071	-0.106
-483.405	23.274	-0.159	-0.131
-482.391	235.414	0.094	-0.154
-481.376	-151.346	0.113	-0.008
-480.362	-8.188	0.210	-0.141
-479.347	-190.190	0.084	0.001
-478.332	118.145	0.217	0.267
-477.318	113.508	-0.181	-0.220
-476.303	-60.454	-0.165	-0.070
-475.289	372.277	0.076	0.154
-474.274	594.026	0.053	0.130
-473.259	-200.000	0.018	-0.221
-472.245	232.845	-0.160	-0.262
-471.230	-160.655	0.111	-0.006
-470.216	153.886	0.275	0.376
-469.201	-110.499	-0.233	-0.048
-468.186	-41.419	-0.142	0.073
-467.172	-200.000	0.040	0.230
-466.157	-63.697	0.457	0.187
-465.143	-56.866	0.044	-0.019
-464.128	251.110	-0.044	-0.074
-463.113	-32.920	0.110	0.061
-462.099	-200.000	0.043	-0.266
-461.084	118.146	-0.215	0.264
-460.070	102.439	0.068	0.079
-459.055	659.199	-0.041	-0.106
-458.040	-106.761	-0.179	0.040
-457.026	740.984	0.050	0.135
-456.011	26.073	0.037	0.031
-454.997	756.543	-0.074	0.198
-453.982	99.123	0.022	0.026
-452.968	40.687	0.265	0.238
-451.953	264.338	0.074	0.128
-450.938	599.820	0.016	-0.040
-449.924	-200.000	-0.024	0.105
-448.909	-142.176	0.066	0.007
-447.895	45.961	0.191	-0.176
-446.880	81.274	-0.038	0.041
-445.865	-187.270	-0.262	-0.004
-444.851	800.000	-0.063	0.190
-443.836	-70.807	0.037	0.014
-442.822	-19.141	0.260	0.161
-441.807	-200.000	0.069	0.326
-440.792	209.579	0.104	-0.162
-439.778	-200.000	0.004	0.298
-438.763	769.211	-0.074	0.199
-437.749	37.433	-0.186	-0.165
-436.734	-92.015	0.092	0.026
-435.719	-200.000	0.026	-0.134
-434.705	-96.522	-0.311	0.082
-433.690	800.000	-0.030	-0.113
-432.676	462.469	-0.166	0.368
-431.661	59.268	-0.300	0.295
-430.646	-125.684	-0.226	-0.034
-429.632	-200.000	0.003	-0.180
-428.617	208.945	0.186	-0.290
-427.603	800.000	-0.097	0.273
-426.588	-200.000	-0.039	0.190
-425.573	47.931	0.148	0.138
-424.559	-126.777	-0.200	0.029
-423.544	9.291	-0.234	0.176
-422.530	81.017	0.139	0.150
-421.515	62.239	0.052	0.052
-420.500	369.559	-0.057	0.115
-419.486	-200.000	-0.023	-0.265
-418.471	-200.000	-0.003	0.278
-417.457	-93.102	-0.161	0.045
-416.442	-26.678	-0.227	-0.132
-415.428	-77.729	-0.239	0.082
-414.413	-97.505	0.374	-0.097
-413.398	-37.911	-0.224	0.118
-412.384	-200.000	0.022	-0.242
-411.369	-77.716	0.123	-0.042
-410.355	-46.252	0.087	-0.043
-409.340	-200.000	0.055	0.434
-408.325	-200.000	-0.025	-0.213
-407.311	24.189	0.165	-0.135
-406.296	-87.165	-0.190	0.057
-405.282	-90.397	-0.325	0.094
-404.267	-128.432	-0.321	0.045
-403.252	-17.724	-0.167	0.104
-402.238	-200.000	0.016	-0.136
-401.223	-200.000	0.001	0.167
-400.209	48.949	0.391	-0.365
-399.194	-41.423	-0.228	-0.117
-398.179	75.531	-0.166	0.175
-397.165	-56.702	0.016	0.007
-396.150	-82.822	0.205	0.066
-395.136	-93.314	-0.058	0.016
-394.121	-148.979	-0.336	-0.027
-393.106	-126.257	-0.182	-0.027
-392.092	23.593	-0.143	-0.117
-391.077	-40.575	-0.061	0.032
-390.063	246.074	0.086	0.144
-389.048	181.673	0.098	0.144
-388.033	-3.798	0.065	0.045
-387.019	271.244	0.058	0.102
-386.004	-11.483	-0.248	0.162
-384.990	-200.000	0.037	-0.295
-383.975	-172.596	-0.131	-0.004
-382.960	298.631	0.061	-0.112
-381.946	-52.892	-0.252	0.116
-380.931	-118.471	0.366	0.065
-379.917	800.000	-0.067	0.233
-378.902	-183.659	0.149	0.003
-377.888	189.158	0.187	0.279
-376.873	-6.877	-0.173	-0.117
-375.858	-96.615	0.106	-0.028
-374.844	32.674	0.254	-0.218
-373.829	68.973	-0.244	-0.249
-372.815	-200.000	0.028	-0.239
-371.800	228.733	0.231	0.374
-370.785	65.428	-0.057	0.057
-369.771	-33.994	-0.134	0.073
-368.756	-36.583	-0.163	-0.087
-367.742	171.860	0.157	0.225
-366.727	-200.000	-0.042	0.270
-365.712	800.000	0.093	-0.329
-364.698	-128.666	0.208	-0.029
-363.683	-66.769	0.073	-0.029
-362.669	-71.945	-0.170	-0.063
-361.654	-177.520	0.347	-0.008
-360.639	-62.199	0.328	-0.136
-359.625	-200.000	0.016	-0.089
-358.610	-54.731	-0.250	-0.112
-357.596	580.576	-0.057	0.140
-356.581	0.274	0.127	0.090
-355.566	800.000	0.042	-0.128
-354.552	-39.532	-0.085	0.044
-353.537	-200.000	0.162	-0.000
-352.523	385.746	0.097	0.200
-351.508	-200.000	-0.049	-0.225
-350.493	800.000	-0.035	-0.129
-349.479	-5.710	0.297	-0.202
-348.464	800.000	-0.073	-0.206
-347.450	220.839	-0.176	-0.281
-346.435	63.129	0.033	0.033
-345.420	-126.488	-0.410	-0.060
-344.406	154.779	-0.123	0.168
-343.391	253.391	-0.143	-0.243
-342.377	447.520	0.022	0.048
-341.362	-43.351	-0.038	0.019
-340.348	-200.000	-0.023	-0.144
-339.333	-70.368	0.278	0.105
-338.318	-87.275	0.111	-0.033
-337.304	-146.260	0.080	-0.007
-336.289	-88.752	0.183	-0.054
-335.275	124.515	0.185	-0.231
-334.260	-98.073	-0.090	0.023
-333.245	800.000	0.062	0.214
-332.231	36.333	0.133	0.117
-331.216	-144.889	0.050	-0.005
-330.202	13.139	-0.092	0.071
-329.187	-101.896	-0.086	-0.021
-328.172	800.000	0.113	0.415
-327.158	-182.712	0.204	-0.004
-326.143	756.343	0.044	0.118
-325.129	-43.614	-0.281	-0.141
-324.114	-200.000	-0.097	0.489
-323.099	218.228	-0.144	-0.229
-322.085	-172.443	0.324	-0.010
-321.070	142.865	0.093	-0.123
-320.056	800.000	0.095	-0.357
-319.041	-129.908	-0.195	0.027
-318.026	132.139	-0.066	0.084
-317.012	442.338	0.079	-0.171
-315.997	-102.386	-0.350	0.083
-314.983	391.469	0.103	-0.211
-313.968	-200.000	-0.073	-0.532
-312.953	-102.658	-0.359	0.085
-311.939	128.291	0.137	-0.173
-310.924	800.000	0.009	0.036
-309.910	91.548	-0.144	-0.160
-308.895	800.000	0.083	-0.257
-307.880	-44.029	-0.494	0.246
-306.866	-143.573	0.164	0.015
-305.851	239.801	0.048	0.079
-304.837	67.426	-0.121	0.122
-303.822	-200.000	-0.013	-0.207
-302.807	762.739	0.113	-0.305
-301.793	-200.000	-0.057	0.401
-300.778	-2.571	0.199	0.138
-299.764	103.318	-0.123	0.143
-298.749	583.873	-0.082	-0.200
-297.735	390.607	0.140	0.289
-296.720	247.571	0.080	-0.135
-295.705	-12.849	-0.092	0.059
-294.691	-33.496	0.194	-0.106
-293.676	230.948	-0.140	-0.228
-292.662	46.046	-0.264	-0.242
-291.647	-200.000	0.000	-0.251
-290.632	-46.640	-0.232	-0.113
-289.618	-64.213	-0.250	0.101
-288.603	-200.000	0.030	-0.290
-287.589	645.906	0.076	0.192
-286.574	-159.403	0.199	0.011
-285.559	-127.344	0.170	0.024
-284.545	-145.205	0.186	-0.017
-283.530	-84.327	-0.260	-0.082
-282.516	130.427	0.122	-0.155
-281.501	-48.250	0.102	-0.049
-280.486	800.000	0.089	0.360
-279.472	-187.510	-0.190	-0.003
-278.457	-186.748	-0.371	-0.005
-277.443	-55.540	-0.237	0.105
-276.428	800.000	0.043	0.137
-275.413	28.035	-0.118	-0.099
-274.399	800.000	0.105	0.317
-273.384	-200.000	-0.008	0.099
-272.370	-115.893	-0.207	0.038
-271.355	-70.039	0.124	-0.047
-270.340	-163.420	-0.375	0.018
-269.326	-88.542	0.203	-0.060
-268.311	-14.622	-0.115	0.073
-267.297	-57.117	-0.078	0.034
-266.282	350.583	-0.126	0.246
-265.267	-99.405	0.183	0.046
-264.253	207.716	-0.302	0.467
-263.238	-150.722	-0.357	0.027
-262.224	-63.219	0.107	0.044
-261.209	136.196	0.108	-0.139
-260.195	-18.474	-0.158	0.098
-259.180	-113.191	-0.055	-0.011
-258.165	291.061	0.072	-0.130
-257.151	466.895	0.113	-0.250
-256.136	-116.314	-0.458	0.084
-255.122	224.188	-0.103	0.165
-254.107	-195.884	-0.332	-0.002
-253.092	-130.730	0.126	0.017
-252.078	23.247	-0.331	-0.269
-251.063	-36.423	-0.274	-0.146
-250.049	43.663	-0.166	-0.150
-249.034	110.874	-0.118	0.140
-248.019	-142.951	-0.336	0.032
-247.005	-40.299	-0.139	0.072
-245.990	-26.602	0.387	0.224
-244.976	23.197	0.083	-0.068
-243.961	800.000	-0.024	0.088
-242.946	552.606	0.048	0.114
-241.932	-44.515	0.239	0.118
-240.917	388.867	-0.048	0.098
-239.903	122.089	0.122	0.151
-238.888	800.000	-0.010	0.028
-237.873	8.306	0.308	0.229
-236.859	254.012	-0.110	0.187
-235.844	-200.000	-0.039	0.269
-234.830	416.135	-0.010	-0.021
-233.815	-107.424	0.125	0.027
-232.800	-200.000	-0.015	-0.300
-231.786	474.396	0.074	-0.164
-230.771	-30.038	-0.064	0.036
-229.757	520.531	0.083	0.193
-228.742	-95.463	-0.135	-0.036
-227.727	-103.613	-0.607	-0.141
-226.713	-200.000	0.034	-0.262
-225.698	319.812	-0.060	0.113
-224.684	800.000	-0.044	-0.149
-223.669	219.264	0.201	0.318
-222.655	-200.000	-0.019	-0.207
-221.640	138.260	0.017	0.022
-220.625	-200.000	-0.002	0.042
-219.611	-126.616	-0.546	-0.080
-218.596	-89.387	0.034	0.010
-217.582	-88.702	0.085	0.025
-216.567	-39.147	0.210	0.109
-215.552	99.361	0.139	0.159
-214.538	-90.743	0.480	-0.137
-213.523	-60.278	-0.087	-0.037
-212.509	-177.771	0.230	-0.005
-211.494	-46.256	-0.084	0.041
-210.479	-109.205	-0.117	0.024
-209.465	456.545	-0.016	-0.035
-208.450	125.906	0.156	-0.195
-207.436	-55.037	0.241	0.107
-206.421	215.955	-0.190	-0.298
-205.406	-139.223	0.391	0.042
-204.392	800.000	0.071	-0.287
-203.377	80.161	0.099	0.105
-202.363	-115.820	0.325	-0.060
-201.348	606.760	-0.158	-0.388
-200.333	601.203	0.083	-0.203
-199.319	-149.827	0.162	0.012
-198.304	-89.315	-0.055	-0.016
-197.290	244.520	0.163	0.270
-196.275	-68.108	-0.122	-0.047
-195.260	-131.431	0.161	-0.021
-194.246	-55.603	0.171	-0.076
-193.231	16.471	-0.072	-0.056
-192.217	17.548	0.096	0.075
-191.202	-139.466	0.122	0.013
-190.187	-93.497	0.189	0.052
-189.173	-73.046	0.210	-0.076
-188.158	800.000	-0.038	-0.120
-187.144	121.136	-0.083	-0.102
-186.129	-104.551	0.184	0.042
-185.114	255.652	-0.122	0.207
-184.100	-122.261	-0.158	0.026
-183.085	-60.688	0.158	0.066
-182.071	800.000	-0.033	0.099
-181.056	-148.384	0.062	-0.005
-180.042	-200.000	0.028	-0.180
-179.027	529.257	-0.054	0.126
-178.012	51.988	0.176	-0.165
-176.998	2.818	0.161	0.115
-175.983	-200.000	-0.004	0.368
-174.969	-130.917	0.041	0.005
-173.954	-123.816	-0.231	-0.036
-172.939	800.000	0.077	-0.222
-171.925	-18.281	-0.141	0.087
-170.910	-71.322	0.244	-0.090
-169.896	1.286	-0.190	-0.135
-168.881	143.642	0.059	-0.078
-167.866	-162.426	-0.309	-0.015
-166.852	294.939	-0.121	-0.217
-165.837	232.774	0.117	-0.190
-164.823	-155.161	0.165	-0.011
-163.808	-54.540	-0.294	-0.131
-162.793	-200.000	-0.004	0.367
-161.779	384.994	-0.146	-0.297
-160.764	-200.000	0.005	0.037
-159.750	800.000	-0.044	0.173
-158.735	800.000	-0.070	0.241
-157.720	44.056	-0.316	-0.286
-156.706	-66.894	0.249	-0.097
-155.691	37.653	-0.109	-0.096
-154.677	-57.456	0.313	-0.135
-153.662	-54.187	0.049	-0.022
-152.647	89.344	-0.070	0.077
-151.633	800.000	0.087	0.239
-150.618	110.762	0.165	-0.195
-149.604	-200.000	-0.017	0.091
-148.589	-118.043	-0.128	-0.023
-147.574	-16.607	0.047	0.029
-146.560	73.145	-0.197	-0.203
-145.545	36.261	-0.195	-0.169
-144.531	8.214	-0.287	0.213
-143.516	-92.608	0.148	0.041
-142.502	-38.769	-0.064	0.033
-141.487	-55.713	0.225	0.099
-140.472	-200.000	-0.004	0.029
-139.458	186.508	-0.064	-0.093
-138.443	189.501	0.091	-0.134
-137.429	88.113	-0.128	-0.140
-136.414	-10.644	0.200	-0.131
-135.399	-133.339	-0.282	0.035
-134.385	58.774	-0.169	-0.164
-133.370	-84.532	0.107	0.033
-132.356	197.229	-0.087	0.130
-131.341	-200.000	0.021	-0.369
-130.326	521.141	-0.163	-0.378
-129.312	-32.321	-0.077	0.042
-128.297	595.150	-0.189	0.461
-127.283	-200.000	-0.037	-0.188
-126.268	800.000	-0.091	0.263
-125.253	-104.883	-0.169	0.038
-124.239	-138.107	0.324	0.035
-123.224	-200.000	-0.032	0.212
-122.210	-24.471	-0.121	0.071
-121.195	-81.907	0.328	-0.106
-120.180	-200.000	-0.026	-0.191
-119.166	-68.445	0.219	-0.084
-118.151	-195.318	-0.086	0.001
-117.137	274.287	-0.125	-0.218
-116.122	105.326	0.266	-0.309
-115.107	800.000	-0.043	-0.183
-114.093	-70.537	0.197	-0.073
-113.078	-42.548	-0.318	-0.159
-112.064	-148.699	-0.038	-0.003
-111.049	-200.000	-0.011	0.241
-110.034	225.708	0.052	0.083
-109.020	-111.361	0.252	0.051
-108.005	-200.000	0.031	0.212
-106.991	-50.022	0.239	0.111
-105.976	60.463	-0.144	0.141
-104.962	331.893	0.151	0.286
-103.947	-108.082	0.241	-0.051
-102.932	-53.299	-0.285	-0.129
-101.918	322.192	0.026	0.048
-100.903	-87.796	0.072	0.021
-99.889	800.000	-0.111	0.310
-98.874	277.972	0.140	-0.245
-97.859	-200.000	-0.057	-0.325
-96.845	-83.562	0.074	0.023
-95.830	-136.755	0.208	-0.024
-94.816	153.878	0.086	-0.116
-93.801	40.552	-0.262	-0.232
-92.786	172.049	0.127	0.180
-91.772	-44.290	0.301	0.149
-90.757	157.600	0.137	-0.186
-89.743	103.077	-0.173	-0.199
-88.728	-37.782	0.101	-0.053
-87.713	39.544	0.107	0.094
-86.699	-112.493	-0.058	0.011
-85.684	281.724	0.139	0.245
-84.670	686.736	-0.046	0.117
-83.655	750.869	0.082	-0.218
-82.640	-200.000	0.017	-0.193
-81.626	37.542	0.076	-0.067
-80.611	179.564	0.085	0.122
-79.597	70.347	-0.235	0.238
-78.582	-200.000	-0.047	-0.303
-77.567	-200.000	0.048	-0.303
-76.553	-15.603	-0.210	0.132
-75.538	-64.608	-0.108	0.043
-74.524	40.442	0.059	0.053
-73.509	709.798	0.023	-0.060
-72.494	-74.373	0.264	0.094
-71.480	275.549	0.145	-0.253
-70.465	-81.996	-0.111	0.036
-69.451	-49.347	0.131	-0.062
-68.436	-174.236	-0.114	-0.003
-67.422	284.648	0.183	-0.323
-66.407	214.682	-0.165	-0.256
-65.392	47.895	-0.153	0.141
-64.378	1.054	-0.104	0.073
-63.363	411.708	-0.102	-0.213
-62.349	-200.000	-0.018	-0.083
-61.334	275.236	-0.765	-1.333
-60.319	265.654	0.364	0.623
-59.305	800.000	-0.191	-0.748
-58.290	70.511	0.982	0.997
-57.276	313.642	0.806	1.488
-56.261	-200.000	96.762	602.889
-55.246	646.360	1378.814	3458.364
-54.232	197.086	2565.244	3841.969
-53.217	113.875	2269.125	2708.526
-52.203	41.331	1895.994	1683.627
-51.188	35.081	1686.086	1450.028
-50.173	32.419	1641.694	1392.134
-49.159	50.116	1688.773	1565.137
-48.144	51.869	1705.439	1593.659
-47.130	34.638	1666.378	1429.535
-46.115	31.974	1651.992	1397.332
-45.100	31.683	1647.432	1391.262
-44.086	31.751	1644.518	1389.247
-43.071	31.749	1641.651	1386.756
-42.057	31.597	1639.887	1384.087
-41.042	31.697	1637.523	1382.771
-40.027	31.688	1635.708	1381.121
-39.013	31.593	1633.983	1378.908
-37.998	31.570	1632.206	1377.188
-36.984	31.668	1630.673	1376.556
-35.969	31.701	1629.601	1375.838
-34.954	31.763	1627.735	1374.669
-33.940	31.716	1626.424	1373.156
-32.925	31.743	1624.295	1371.508
-31.911	31.738	1622.633	1370.007
-30.896	31.677	1621.005	1368.134
-29.881	31.733	1619.066	1366.855
-28.867	31.720	1617.561	1365.435
-27.852	31.703	1616.038	1363.970
-26.838	31.713	1614.589	1362.764
-25.823	31.741	1613.280	1361.807
-24.809	31.769	1611.749	1360.665
-23.794	31.768	1610.294	1359.377
-22.779	31.811	1608.981	1358.531
-21.765	31.794	1607.249	1356.886
-20.750	31.806	1605.408	1355.366
-19.736	31.783	1604.573	1354.441
-18.721	31.840	1602.650	1353.179
-17.706	31.811	1601.465	1351.911
-16.692	31.822	1599.763	1350.502
-15.677	31.672	1599.082	1348.790
-14.663	31.806	1597.220	1348.136
-13.648	31.916	1595.624	1347.520
-12.633	31.791	1594.270	1345.428
-11.619	31.794	1592.392	1343.808
-10.604	31.755	1591.176	1342.453
-9.590	31.821	1590.055	1341.929
-8.575	31.834	1588.531	1340.676
-7.560	31.785	1587.898	1339.743
-6.546	31.827	1586.059	1338.437
-5.531	31.775	1585.494	1337.539
-4.517	31.808	1584.466	1336.852
-3.502	31.848	1582.853	1335.722
-2.487	31.873	1581.021	1334.300
-1.473	31.497	1569.635	1321.982
-0.458	28.864	1550.346	1287.277
0.556	24.478	1551.070	1255.364
1.571	22.050	1574.380	1256.767
2.586	21.576	1586.824	1263.168
3.600	19.164	1533.324	1203.632
4.615	11.663	1425.572	1070.026
5.629	5.596	1364.898	986.275
6.644	4.608	1357.351	974.547
7.659	4.569	1355.476	972.868
8.673	4.448	1354.378	971.240
9.688	4.465	1353.383	970.546
10.702	4.431	1350.440	968.139
11.717	7.195	1355.570	989.009
12.731	14.380	1368.216	1043.284
13.746	19.068	1375.066	1077.847
14.761	18.744	1373.879	1074.798
15.775	17.830	1371.068	1066.786
16.790	16.728	1368.505	1057.819
17.804	15.919	1366.273	1050.955
18.819	15.457	1364.900	1046.923
19.834	15.293	1363.851	1045.004
20.848	15.031	1362.293	1042.088
21.863	14.740	1361.471	1039.553
22.877	14.666	1359.893	1037.802
23.892	14.647	1359.148	1037.021
24.907	14.578	1358.857	1036.276
25.921	14.633	1357.277	1035.326
26.936	14.740	1356.846	1035.565
27.950	14.711	1356.060	1034.693
28.965	14.827	1354.506	1034.133
29.980	14.859	1353.955	1033.822
30.994	14.916	1352.268	1032.795
32.009	14.955	1351.457	1032.323
33.023	15.042	1349.464	1031.248
34.038	14.958	1348.130	1029.620
35.053	14.874	1347.284	1028.367
36.067	14.783	1345.991	1026.729
37.082	14.850	1345.141	1026.400
38.096	14.870	1344.213	1025.725
39.111	14.856	1343.270	1024.825
40.126	14.790	1342.517	1023.757
41.140	14.622	1341.451	1021.826
42.155	14.518	1341.325	1021.002
43.169	14.493	1341.330	1020.760
44.184	14.497	1340.915	1020.384
45.199	14.645	1339.931	1020.449
46.213	14.729	1339.493	1020.536
47.228	14.785	1338.691	1020.175
48.242	14.774	1337.546	1019.146
49.257	14.734	1335.801	1017.485
50.271	14.707	1334.778	1016.451
51.286	14.797	1333.813	1016.174
52.301	14.706	1332.222	1014.320
53.315	14.688	1331.253	1013.383
54.330	14.661	1330.186	1012.316
55.344	14.617	1328.951	1011.020
56.359	14.601	1327.984	1010.098
57.374	14.662	1326.360	1009.145
58.388	14.665	1326.028	1008.817
59.403	14.529	1325.467	1007.481
60.417	14.525	1325.004	1007.016
61.432	14.600	1323.896	1006.538
62.447	14.501	1323.130	1005.267
63.461	14.456	1322.145	1004.158
64.476	14.335	1321.033	1002.496
65.490	14.460	1319.368	1001.899
66.505	14.483	1318.537	1001.316
67.520	14.421	1317.183	999.828
68.534	14.490	1315.921	999.192
69.549	14.509	1315.184	998.660
70.563	14.556	1313.808	997.810
71.578	14.366	1312.711	995.750
72.593	14.442	1311.848	995.464
73.607	14.199	1311.716	993.825
74.622	14.324	1310.693	993.705
75.636	14.319	1309.591	992.749
76.651	14.433	1308.538	992.542
77.666	14.332	1308.582	991.889
78.680	14.327	1308.413	991.643
79.695	14.456	1307.125	991.347
80.709	14.431	1306.681	990.774
81.724	14.531	1305.946	990.725
82.739	14.541	1304.926	989.920
83.753	14.745	1303.525	989.976
84.768	14.842	1302.782	989.900
85.782	14.890	1301.816	989.365
86.797	14.960	1300.288	988.528
87.812	14.783	1299.169	986.548
88.826	14.739	1298.256	985.507
89.841	14.667	1297.479	984.403
90.855	14.830	1296.101	984.233
91.870	14.755	1295.896	983.550
92.884	14.942	1294.353	983.388
93.899	14.872	1294.045	982.660
94.914	14.872	1293.121	981.868
95.928	14.853	1292.012	980.827
96.943	14.855	1291.182	980.120
97.957	14.742	1290.192	978.623
98.972	14.788	1288.964	977.876
99.987	14.845	1287.982	977.375
101.001	14.837	1287.137	976.601
102.016	14.833	1286.391	975.924
103.030	14.995	1285.061	975.772
104.045	14.797	1284.879	974.395
105.060	14.772	1282.975	972.718
106.074	14.680	1281.590	971.049
107.089	14.509	1280.201	968.915
108.103	14.510	1279.170	968.056
109.118	14.529	1277.886	967.109
110.133	14.551	1276.550	966.138
111.147	14.509	1274.954	964.605
112.162	14.591	1274.101	964.349
113.176	14.610	1272.877	963.444
114.191	14.617	1271.850	962.621
115.206	14.589	1270.966	961.705
116.220	14.659	1269.187	960.678
117.235	14.570	1268.794	959.785
118.249	14.642	1267.465	959.108
119.264	14.503	1266.401	957.420
120.279	14.649	1265.609	957.573
121.293	14.640	1264.093	956.291
122.308	14.429	1263.370	954.450
123.322	14.332	1262.542	953.187
124.337	14.426	1261.174	952.606
125.352	14.432	1259.876	951.578
126.366	14.451	1258.988	950.930
127.381	14.494	1258.125	950.437
128.395	14.510	1256.567	949.269
129.410	14.511	1256.116	948.847
130.424	14.513	1255.075	947.992
131.439	14.557	1254.107	947.424
132.454	14.584	1253.458	947.004
133.468	14.590	1252.509	946.237
134.483	14.637	1251.480	945.641
135.497	14.622	1250.594	944.804
136.512	14.623	1249.471	943.881
137.527	14.624	1248.226	942.858
138.541	14.644	1246.636	941.688
139.556	14.787	1245.038	941.205
140.570	14.813	1244.272	940.690
141.585	14.869	1243.255	940.152
142.600	14.781	1242.511	939.011
143.614	14.858	1241.170	938.348
144.629	14.737	1240.744	937.259
145.643	14.991	1238.812	937.140
146.658	14.849	1237.665	935.398
147.673	14.685	1236.420	933.457
148.687	14.797	1235.156	933.048
149.702	14.696	1233.975	931.508
150.716	14.643	1232.893	930.311
151.731	14.797	1231.553	930.075
152.746	14.700	1230.742	928.844
153.760	14.851	1229.001	928.286
154.775	14.808	1228.523	927.605
155.789	14.851	1227.964	927.338
156.804	15.002	1226.186	926.751
157.819	14.971	1225.286	925.815
158.833	15.029	1224.290	925.303
159.848	15.044	1223.316	924.567
160.862	14.993	1222.190	923.350
161.877	14.926	1221.371	922.282
162.892	14.898	1220.077	921.067
163.906	14.864	1219.247	920.176
164.921	14.840	1218.375	919.305
165.935	14.859	1217.477	918.649
166.950	14.927	1216.580	918.263
167.964	14.994	1215.910	918.043
168.979	15.056	1214.588	917.304
169.994	14.983	1214.322	916.624
171.008	14.858	1213.572	915.290
172.023	15.053	1212.669	915.598
173.037	14.955	1212.418	914.789
174.052	15.037	1210.965	914.057
175.067	14.904	1209.819	912.387
176.081	14.995	1208.657	911.926
177.096	14.913	1208.116	910.991
178.110	14.928	1206.854	910.043
179.125	14.933	1206.105	909.423
180.140	14.959	1204.940	908.605
181.154	14.977	1203.585	907.603
182.169	15.083	1202.452	907.238
183.183	15.149	1201.453	906.765
184.198	15.218	1200.205	906.113
185.213	15.201	1199.421	905.351
186.227	15.166	1198.222	904.176
187.242	15.214	1197.031	903.459
188.256	15.275	1196.449	903.268
189.271	15.289	1195.358	902.441
190.286	15.110	1194.554	900.789
191.300	14.906	1193.292	898.661
192.315	14.894	1192.350	897.810
193.329	14.866	1192.099	897.387
194.344	14.990	1191.340	897.404
195.359	15.027	1190.568	896.939
196.373	15.147	1190.679	897.589
197.388	15.250	1189.929	897.492
198.402	15.421	1189.440	897.962
199.417	15.358	1188.661	896.960
200.432	15.533	1188.040	897.343
201.446	15.474	1186.953	896.130
202.461	15.559	1185.985	895.772
203.475	15.442	1185.469	894.681
204.490	15.483	1184.060	893.757
205.504	15.326	1182.861	891.935
206.519	15.379	1181.577	891.168
207.534	15.405	1180.484	890.408
208.548	15.428	1179.413	889.638
209.563	15.323	1179.200	888.843
210.577	15.418	1177.791	888.208
211.592	15.497	1177.201	888.102
212.607	15.495	1176.274	887.312
213.621	15.497	1175.417	886.599
214.636	15.523	1174.427	885.911
215.650	15.511	1173.746	885.253
216.665	15.482	1172.567	884.137
217.680	15.586	1171.938	884.129
218.694	15.707	1171.106	884.062
219.709	15.691	1169.908	882.994
220.723	15.777	1169.057	882.726
221.738	15.697	1168.941	882.137
222.753	15.708	1167.939	881.361
223.767	15.622	1167.398	880.426
224.782	15.840	1166.531	880.835
225.796	15.784	1166.081	880.126
226.811	15.820	1165.291	879.636
227.826	15.766	1164.569	878.735
228.840	15.644	1164.097	877.659
229.855	15.755	1163.029	877.359
230.869	15.676	1162.948	876.810
231.884	15.688	1161.888	875.996
232.899	15.715	1160.734	875.186
233.913	15.574	1160.237	874.000
234.928	15.624	1159.197	873.398
235.942	15.570	1159.016	872.907
236.957	15.609	1157.708	872.047
237.972	15.705	1157.158	872.050
238.986	15.663	1156.574	871.317
240.001	15.732	1155.732	870.964
241.015	15.602	1155.225	869.831
242.030	15.629	1154.466	869.322
243.045	15.832	1153.507	869.574
244.059	15.757	1152.898	868.651
245.074	15.821	1151.725	868.019
246.088	15.851	1151.173	867.681
247.103	16.032	1150.125	867.747
248.117	16.006	1149.610	867.148
249.132	16.031	1149.018	866.750
250.147	16.100	1148.362	866.537
251.161	16.215	1147.744	866.585
252.176	16.145	1147.431	865.912
253.190	16.319	1146.607	866.106
254.205	16.344	1145.932	865.647
255.220	16.345	1145.242	865.051
256.234	16.390	1144.584	864.711
257.249	16.329	1144.391	864.176
258.263	16.380	1143.516	863.700
259.278	16.316	1142.744	862.712
260.293	16.323	1142.209	862.270
261.307	16.521	1141.610	862.750
262.322	16.583	1140.561	862.196
263.336	16.543	1139.953	861.456
264.351	16.567	1139.458	861.131
265.366	16.592	1138.957	860.802
266.380	16.623	1137.999	860.158
267.395	16.488	1137.292	858.860
268.409	16.476	1136.233	857.927
269.424	16.499	1135.452	857.378
270.439	16.511	1134.876	856.925
271.453	16.448	1134.522	856.267
272.468	16.480	1133.272	855.408
273.482	16.558	1132.364	855.040
274.497	16.439	1132.007	854.094
275.512	16.328	1131.768	853.275
276.526	16.387	1130.892	852.838
277.541	16.490	1130.191	852.755
278.555	16.518	1129.449	852.260
279.570	16.500	1128.745	851.562
280.585	16.684	1127.960	851.819
281.599	16.562	1127.323	850.652
282.614	16.505	1126.247	849.478
283.628	16.599	1125.007	848.940
284.643	16.569	1124.186	848.094
285.657	16.695	1123.241	847.935
286.672	16.594	1122.356	846.688
287.687	16.620	1121.438	846.050
288.701	16.740	1120.839	846.123
289.716	16.758	1120.087	845.572
290.730	16.734	1119.517	844.946
291.745	16.693	1118.468	843.878
292.760	16.771	1117.602	843.536
293.774	16.833	1117.477	843.677
294.789	16.843	1116.956	843.260
295.803	16.784	1116.346	842.427
296.818	16.685	1115.708	841.382
297.833	16.776	1114.715	841.010
298.847	16.762	1114.064	840.376
299.862	16.761	1113.140	839.598
300.876	16.834	1112.756	839.598
301.891	16.867	1111.938	839.068
302.906	16.983	1111.166	838.983
303.920	17.099	1110.621	839.073
304.935	17.018	1110.180	838.263
305.949	17.094	1109.616	838.138
306.964	17.147	1108.722	837.654
307.979	17.063	1108.026	836.639
308.993	16.922	1107.190	835.238
310.008	17.053	1106.371	835.193
311.022	17.184	1105.761	835.299
312.037	17.250	1104.733	834.774
313.052	17.038	1103.720	832.893
314.066	16.994	1102.819	831.928
315.081	16.942	1101.887	830.895
316.095	17.017	1101.041	830.550
317.110	17.135	1100.582	830.707
318.125	17.056	1100.286	830.024
319.139	16.918	1099.115	828.394
320.154	17.041	1098.401	828.380
321.168	17.064	1097.688	827.882
322.183	17.118	1097.297	827.777
323.197	17.075	1097.090	827.339
324.212	17.083	1095.904	826.408
325.227	17.030	1095.334	825.650
326.241	17.062	1095.073	825.535
327.256	16.932	1094.416	824.336
328.270	16.958	1093.298	823.548
329.285	17.016	1092.611	823.238
330.300	17.038	1091.710	822.592
331.314	17.082	1090.206	821.601
332.329	17.049	1089.795	821.055
333.343	17.166	1088.835	820.828
334.358	17.189	1088.333	820.486
335.373	17.201	1087.348	819.728
336.387	17.309	1086.788	819.754
337.402	17.278	1085.562	818.608
338.416	17.320	1085.198	818.465
339.431	17.369	1084.773	818.308
340.446	17.460	1084.196	818.236
341.460	17.408	1083.200	817.163
342.475	17.482	1082.572	816.974
343.489	17.623	1081.470	816.745
344.504	17.636	1080.638	816.104
345.519	17.653	1079.763	815.453
346.533	17.615	1079.415	814.940
347.548	17.696	1078.452	814.525
348.562	17.693	1077.703	813.874
349.577	17.554	1076.787	812.447
350.592	17.455	1076.172	811.437
351.606	17.374	1075.300	810.323
352.621	17.535	1074.501	810.414
353.635	17.385	1073.961	809.224
354.650	17.492	1073.379	809.220
355.665	17.462	1072.712	808.505
356.679	17.521	1072.093	808.248
357.694	17.516	1071.428	807.653
358.708	17.549	1070.801	807.264
359.723	17.627	1070.298	807.183
360.738	17.603	1069.856	806.666
361.752	17.662	1068.957	806.194
362.767	17.651	1068.436	805.676
363.781	17.527	1067.954	804.657
364.796	17.886	1066.812	805.418
365.810	17.892	1066.653	805.257
366.825	17.991	1066.198	805.309
367.840	17.979	1065.598	804.727
368.854	18.029	1065.272	804.646
369.869	17.934	1064.541	803.574
370.883	17.874	1063.705	802.590
371.898	18.002	1062.501	802.214
372.913	17.912	1062.308	801.571
373.927	18.009	1061.776	801.555
374.942	18.078	1061.196	801.371
375.956	17.962	1060.728	800.404
376.971	18.014	1059.888	799.942
377.986	18.049	1059.273	799.569
379.000	18.122	1059.086	799.699
380.015	18.043	1058.777	799.027
381.029	18.151	1057.928	798.819
382.044	18.264	1057.013	798.584
383.059	18.184	1056.505	797.758
384.073	18.151	1055.723	796.945
385.088	18.344	1054.422	796.786
386.102	18.232	1053.692	795.644
387.117	18.193	1052.576	794.552
388.132	18.113	1051.969	793.650
389.146	18.089	1051.100	792.815
390.161	18.076	1050.208	792.010
391.175	18.022	1049.513	791.167
392.190	18.178	1048.971	791.409
393.205	18.240	1048.278	791.106
394.219	18.164	1047.633	790.195
395.234	18.222	1046.738	789.719
396.248	18.317	1045.268	788.976
397.263	18.134	1044.783	787.697
398.278	18.170	1043.754	787.018
399.292	18.076	1043.361	786.218
400.307	18.116	1042.418	785.625
401.321	18.168	1041.749	785.289
402.336	18.106	1041.196	784.518
403.350	18.221	1040.430	784.400
404.365	18.159	1039.943	783.678
405.380	18.182	1039.350	783.267
406.394	18.264	1038.528	782.956
407.409	18.366	1037.547	782.609
408.423	18.350	1037.036	782.084
409.438	18.513	1036.152	782.089
410.453	18.413	1035.795	781.297
411.467	18.644	1034.580	781.362
412.482	18.598	1034.641	781.132
413.496	18.679	1033.811	780.802
414.511	18.570	1033.352	779.892
415.526	18.687	1032.838	779.969
416.540	18.765	1032.517	780.011
417.555	18.705	1031.946	779.237
418.569	18.547	1031.848	778.376
419.584	18.665	1030.879	778.110
420.599	18.714	1030.814	778.216
421.613	150.560	1400.595	1794.549
422.628	137.380	1454.462	1794.638
