DTS Sentinel unit serial number:	SN413079Multiplexer serial number:	ORYXHardware model number:	OX4-SRSoftware version number:	ORYX F/W v4.00 Oryx Data Collector v3.7.2.0data status	okinstallation	princeton_trtdifferential loss correction	single-endedforward channel	channel 2reverse channel	N/Adate	2019/09/14time	14:39:35forward acquisition time	60.00reverse acquisition time	0.00gamma	496.2192k internal	0.2301k external	0.2301temperature offset calibration	1.0137default loss term (dB/km)	0.3790temperature slope calibration	1.0000multiplexer offset coefficient	1.0000multiplexer slope coefficient	1.0000fibre end	0.00T internal ref (°C)	39.25T ext. ref 1 (°C)	4.98T ext. ref 2 (°C)	34.81length (m)	temperature (°C)	Stokes	anti-Stokes-747.200	-44.973	-0.261	0.133
-746.185	-61.205	0.254	0.109
-745.171	800.000	0.017	0.073
-744.156	217.549	-0.145	0.236
-743.142	-0.487	0.061	0.044
-742.127	-7.241	0.121	0.083
-741.112	800.000	0.110	0.340
-740.098	800.000	-0.092	0.315
-739.083	-188.074	0.066	0.001
-738.069	36.543	-0.175	0.157
-737.054	-94.401	-0.069	0.019
-736.039	47.782	-0.117	-0.111
-735.025	-200.000	0.027	0.252
-734.010	-200.000	0.054	0.297
-732.996	-173.209	0.020	-0.001
-731.981	-97.447	-0.369	-0.098
-730.966	-200.000	0.039	0.280
-729.952	-51.679	0.191	0.091
-728.937	335.313	-0.280	-0.553
-727.923	339.952	-0.145	-0.288
-726.908	344.084	0.068	0.135
-725.894	-19.651	-0.125	0.079
-724.879	76.704	-0.135	0.146
-723.864	-78.669	-0.081	-0.028
-722.850	-179.782	0.447	-0.010
-721.835	-5.683	0.082	-0.057
-720.821	-155.368	0.079	-0.005
-719.806	201.220	0.142	-0.222
-718.791	93.619	-0.112	-0.129
-717.777	154.099	-0.130	-0.182
-716.762	800.000	-0.009	-0.033
-715.748	181.845	-0.081	0.122
-714.733	37.579	0.126	-0.114
-713.718	-200.000	-0.023	-0.196
-712.704	-116.052	0.097	-0.018
-711.689	31.341	0.046	0.040
-710.675	-117.819	-0.244	0.045
-709.660	197.268	-0.134	0.209
-708.645	800.000	0.042	-0.169
-707.631	-103.590	-0.232	0.055
-706.616	-131.941	0.194	0.026
-705.602	800.000	-0.058	0.211
-704.587	-26.940	-0.185	0.110
-703.572	-31.575	0.077	0.044
-702.558	50.249	-0.070	-0.067
-701.543	-4.648	0.249	-0.175
-700.529	-48.377	0.242	0.119
-699.514	-4.712	0.154	-0.108
-698.499	-200.000	0.041	-0.189
-697.485	332.490	-0.109	0.214
-696.470	-87.192	0.376	-0.116
-695.456	15.770	-0.328	-0.263
-694.441	-200.000	-0.026	0.257
-693.426	-200.000	0.009	0.181
-692.412	800.000	0.032	0.140
-691.397	-69.861	0.286	0.111
-690.383	592.970	-0.123	-0.308
-689.368	354.522	-0.106	-0.214
-688.354	-88.454	-0.322	0.098
-687.339	-200.000	-0.002	-0.321
-686.324	-200.000	-0.011	0.079
-685.310	364.924	0.086	0.177
-684.295	87.436	-0.275	0.309
-683.281	6.726	0.019	-0.014
-682.266	-15.046	-0.202	0.132
-681.251	-73.123	-0.308	0.115
-680.237	-128.909	0.223	0.032
-679.222	-49.710	0.105	0.051
-678.208	-61.143	-0.247	-0.106
-677.193	-74.056	-0.219	-0.081
-676.178	230.636	0.086	0.144
-675.164	122.020	-0.165	0.210
-674.149	473.132	0.139	-0.319
-673.135	800.000	0.093	-0.379
-672.120	-200.000	0.005	0.208
-671.105	-135.438	-0.236	0.029
-670.091	-95.670	-0.174	0.047
-669.076	468.025	0.095	0.216
-668.062	32.146	-0.075	0.066
-667.047	-15.968	0.189	-0.123
-666.032	493.064	-0.183	-0.426
-665.018	-38.153	0.290	0.156
-664.003	336.454	-0.216	0.426
-662.989	-79.997	0.150	0.051
-661.974	200.546	-0.058	0.091
-660.959	180.364	-0.153	0.229
-659.945	-200.000	0.015	-0.224
-658.930	-200.000	0.023	0.360
-657.916	74.288	0.220	0.235
-656.901	-54.251	0.354	0.163
-655.886	567.211	-0.143	-0.353
-654.872	429.988	0.069	-0.152
-653.857	672.202	0.039	0.103
-652.843	-100.412	0.219	-0.055
-651.828	-34.508	0.298	0.166
-650.814	34.227	-0.323	0.286
-649.799	-58.278	-0.272	0.120
-648.784	96.341	-0.049	-0.057
-647.770	-68.680	-0.080	-0.032
-646.755	-110.178	0.194	0.041
-645.741	-200.000	0.035	-0.296
-644.726	-200.000	0.047	-0.252
-643.711	-145.761	0.313	-0.028
-642.697	509.078	0.045	0.107
-641.682	-80.785	0.256	0.086
-640.668	56.739	-0.106	-0.104
-639.653	800.000	-0.037	-0.146
-638.638	6.142	-0.131	-0.099
-637.624	-200.000	-0.004	-0.182
-636.609	-48.516	0.098	0.048
-635.595	17.346	0.234	-0.189
-634.580	-200.000	-0.063	0.560
-633.565	-42.971	0.458	0.236
-632.551	-129.250	0.127	-0.018
-631.536	-37.818	0.342	-0.184
-630.522	800.000	-0.045	-0.146
-629.507	81.708	0.158	0.174
-628.492	-69.387	0.236	-0.092
-627.478	-200.000	-0.002	-0.137
-626.463	80.003	0.244	0.266
-625.449	252.466	0.219	0.379
-624.434	-96.972	0.226	-0.060
-623.419	277.238	-0.153	0.277
-622.405	240.272	0.052	0.088
-621.390	-129.270	0.066	0.009
-620.376	69.509	-0.211	-0.221
-619.361	216.443	-0.143	-0.231
-618.346	-35.929	0.254	-0.139
-617.332	-200.000	-0.001	-0.430
-616.317	-36.448	0.048	-0.026
-615.303	390.090	0.065	-0.137
-614.288	-200.000	0.028	-0.133
-613.273	-151.959	-0.380	0.028
-612.259	119.328	-0.137	-0.171
-611.244	590.349	0.047	-0.118
-610.230	64.017	0.207	-0.211
-609.215	165.406	-0.089	0.128
-608.201	800.000	-0.127	0.368
-607.186	-112.803	-0.189	0.038
-606.171	66.970	-0.031	-0.032
-605.157	800.000	0.141	-0.454
-604.142	-84.641	0.144	0.046
-603.128	-200.000	0.022	0.202
-602.113	-200.000	0.012	0.227
-601.098	448.179	-0.065	0.144
-600.084	-2.952	0.082	0.058
-599.069	-200.000	0.020	0.261
-598.055	512.190	0.046	0.109
-597.040	-133.619	-0.079	0.010
-596.025	-166.315	0.209	-0.009
-595.011	-91.466	-0.237	0.069
-593.996	111.730	0.238	-0.291
-592.982	-200.000	-0.018	-0.089
-591.967	-200.000	0.054	-0.244
-590.952	-200.000	-0.010	-0.206
-589.938	65.227	0.150	0.154
-588.923	-1.426	0.181	0.129
-587.909	24.593	-0.262	-0.220
-586.894	-120.655	0.222	0.038
-585.879	-93.681	0.386	0.108
-584.865	-200.000	0.025	0.212
-583.850	62.682	0.293	0.297
-582.836	-98.495	-0.433	0.112
-581.821	76.160	0.244	-0.261
-580.806	-180.456	0.312	-0.007
-579.792	800.000	-0.030	-0.095
-578.777	11.314	0.303	-0.235
-577.763	-76.268	-0.205	-0.073
-576.748	50.721	-0.120	-0.115
-575.733	800.000	-0.043	-0.178
-574.719	6.878	-0.239	0.180
-573.704	800.000	0.059	0.245
-572.690	535.095	0.031	-0.074
-571.675	331.461	0.129	-0.252
-570.661	-91.329	-0.052	0.015
-569.646	800.000	0.086	-0.266
-568.631	599.057	0.038	-0.096
-567.617	37.124	0.070	-0.063
-566.602	-112.533	0.146	-0.030
-565.588	800.000	-0.041	-0.158
-564.573	-200.000	-0.025	-0.148
-563.558	574.937	0.087	-0.214
-562.544	-88.550	0.146	-0.044
-561.529	2.525	0.212	-0.155
-560.515	337.033	-0.118	-0.232
-559.500	52.431	0.214	-0.207
-558.485	800.000	-0.082	-0.253
-557.471	210.045	-0.100	-0.159
-556.456	-83.843	-0.322	0.104
-555.442	-148.183	-0.114	-0.010
-554.427	-93.472	0.245	-0.069
-553.412	-200.000	0.007	-0.224
-552.398	-27.082	0.156	0.092
-551.383	-52.997	-0.387	-0.180
-550.369	484.275	-0.059	-0.135
-549.354	800.000	0.124	-0.406
-548.339	-74.942	0.081	0.029
-547.325	-35.186	-0.274	-0.151
-546.310	-146.941	0.171	-0.015
-545.296	800.000	-0.093	0.325
-544.281	-134.301	-0.037	0.005
-543.266	-119.059	0.153	-0.027
-542.252	-173.295	0.207	0.006
-541.237	-110.163	0.138	-0.029
-540.223	-200.000	0.035	0.246
-539.208	707.611	-0.083	-0.222
-538.193	196.682	0.112	0.172
-537.179	-146.376	-0.232	-0.020
-536.164	-112.661	-0.237	0.048
-535.150	-193.513	-0.018	-0.000
-534.135	-134.512	0.279	-0.034
-533.121	800.000	-0.058	-0.174
-532.106	8.614	-0.400	-0.305
-531.091	-24.376	-0.221	0.133
-530.077	800.000	-0.012	-0.047
-529.062	278.951	0.085	-0.154
-528.048	-97.015	0.049	0.013
-527.033	-111.336	-0.110	0.023
-526.018	-35.009	0.149	-0.082
-525.004	800.000	0.032	0.099
-523.989	45.031	-0.136	-0.127
-522.975	-19.053	-0.198	-0.124
-521.960	93.824	-0.114	0.130
-520.945	0.319	0.058	-0.042
-519.931	-25.377	-0.323	0.193
-518.916	800.000	-0.146	0.433
-517.902	49.950	-0.042	-0.040
-516.887	-3.533	-0.073	0.051
-515.872	300.181	-0.150	0.279
-514.858	-134.636	0.075	0.009
-513.843	395.116	-0.034	0.071
-512.829	447.776	0.092	-0.205
-511.814	108.435	0.220	0.265
-510.799	-46.628	0.043	-0.021
-509.785	-200.000	-0.042	0.262
-508.770	-200.000	0.001	-0.006
-507.756	-200.000	-0.041	0.258
-506.741	44.258	0.165	0.153
-505.726	-84.323	0.084	0.027
-504.712	60.572	-0.227	-0.227
-503.697	-101.788	0.228	-0.056
-502.683	-200.000	-0.014	0.113
-501.668	-119.299	0.107	-0.019
-500.653	-49.724	0.168	-0.081
-499.639	-136.397	-0.112	0.013
-498.624	302.462	0.102	0.190
-497.610	-8.619	0.161	0.109
-496.595	48.535	-0.080	-0.076
-495.581	9.897	0.288	0.221
-494.566	-97.354	-0.045	0.012
-493.551	27.562	0.193	-0.164
-492.537	-98.095	-0.183	0.047
-491.522	-200.000	-0.088	0.431
-490.508	182.496	-0.168	0.250
-489.493	95.174	0.070	0.081
-488.478	251.463	-0.039	0.067
-487.464	-116.134	0.070	-0.013
-486.449	-81.376	0.050	-0.017
-485.435	271.671	0.168	0.298
-484.420	-99.699	0.348	0.088
-483.405	-200.000	-0.031	0.215
-482.391	-65.254	-0.188	-0.076
-481.376	800.000	-0.041	-0.118
-480.362	-23.658	-0.064	-0.039
-479.347	-200.000	-0.016	-0.137
-478.332	126.696	0.119	-0.152
-477.318	154.383	-0.025	-0.035
-476.303	208.152	0.183	0.289
-475.289	26.265	-0.212	0.179
-474.274	-15.274	0.195	-0.126
-473.259	363.665	0.071	-0.145
-472.245	-164.130	-0.321	0.015
-471.230	-200.000	0.057	-0.272
-470.216	-157.647	-0.133	-0.008
-469.201	-153.787	-0.038	0.003
-468.186	-30.376	0.408	0.234
-467.172	-32.544	0.335	0.188
-466.157	32.879	0.290	-0.254
-465.143	127.988	-0.190	0.243
-464.128	-200.000	-0.018	-0.169
-463.113	-200.000	0.026	-0.357
-462.099	41.436	-0.143	-0.130
-461.084	-200.000	0.009	-0.168
-460.070	113.020	0.173	0.212
-459.055	800.000	-0.030	0.128
-458.040	-133.970	0.388	-0.049
-457.026	-150.619	0.326	-0.025
-456.011	800.000	0.030	0.126
-454.997	470.735	0.080	0.182
-453.982	30.653	0.112	-0.097
-452.968	-83.813	-0.156	-0.050
-451.953	-151.103	0.253	-0.019
-450.938	-55.301	0.287	-0.130
-449.924	201.941	0.027	-0.041
-448.909	800.000	-0.072	-0.199
-447.895	642.572	-0.147	-0.379
-446.880	800.000	0.050	0.213
-445.865	-200.000	0.059	0.307
-444.851	-200.000	-0.008	-0.055
-443.836	-200.000	-0.016	-0.188
-442.822	-67.937	-0.075	-0.030
-441.807	-200.000	-0.024	-0.139
-440.792	72.572	-0.118	0.124
-439.778	-41.324	-0.111	0.058
-438.763	112.754	0.123	0.150
-437.749	-200.000	0.046	0.246
-436.734	-200.000	0.044	0.214
-435.719	800.000	0.093	0.363
-434.705	-200.000	0.009	0.204
-433.690	308.231	0.062	0.116
-432.676	-81.642	-0.053	-0.018
-431.661	-12.251	-0.202	-0.133
-430.646	263.731	0.156	0.273
-429.632	-90.840	-0.333	0.097
-428.617	21.081	0.303	-0.248
-427.603	515.916	-0.116	0.274
-426.588	0.319	0.266	0.191
-425.573	71.534	-0.197	-0.206
-424.559	-200.000	-0.008	-0.179
-423.544	-200.000	-0.005	-0.081
-422.530	23.172	0.287	-0.237
-421.515	800.000	0.023	0.094
-420.500	399.339	-0.175	-0.368
-419.486	26.709	0.164	0.138
-418.471	-161.616	-0.402	0.021
-417.457	-92.163	-0.272	-0.077
-416.442	-115.242	-0.217	0.041
-415.428	101.513	-0.162	0.190
-414.413	-186.019	0.189	0.003
-413.398	-178.112	0.057	-0.001
-412.384	-30.836	-0.530	-0.302
-411.369	-200.000	0.037	0.269
-410.355	-200.000	0.019	0.230
-409.340	800.000	0.028	-0.121
-408.325	-200.000	-0.019	-0.255
-407.311	-200.000	-0.021	-0.276
-406.296	800.000	-0.074	0.265
-405.282	-200.000	-0.038	0.215
-404.267	-49.160	0.065	-0.031
-403.252	-98.308	-0.263	-0.068
-402.238	-200.000	0.031	-0.369
-401.223	-65.324	-0.294	0.119
-400.209	765.661	0.038	0.105
-399.194	-16.509	0.330	0.210
-398.179	-200.000	-0.025	-0.421
-397.165	-200.000	-0.022	-0.126
-396.150	647.464	0.028	-0.073
-395.136	106.449	0.245	0.292
-394.121	800.000	-0.065	-0.262
-393.106	-200.000	-0.010	-0.056
-392.092	132.224	-0.249	0.322
-391.077	-175.795	-0.291	0.008
-390.063	251.611	-0.051	0.088
-389.048	352.536	-0.119	-0.237
-388.033	67.506	0.030	-0.030
-387.019	-108.508	-0.315	0.068
-386.004	-92.270	0.287	-0.081
-384.990	-200.000	-0.035	0.370
-383.975	277.746	0.185	-0.330
-382.960	35.826	0.225	-0.199
-381.946	-62.513	0.349	-0.146
-380.931	-0.401	-0.211	0.151
-379.917	-200.000	-0.001	-0.205
-378.902	-91.141	-0.215	0.062
-377.888	297.935	-0.078	0.144
-376.873	47.272	-0.086	0.081
-375.858	438.616	-0.143	0.314
-374.844	-200.000	-0.031	0.346
-373.829	363.227	0.120	-0.243
-372.815	289.457	0.049	0.088
-371.800	-188.946	-0.258	-0.003
-370.785	1.325	0.138	-0.099
-369.771	-125.231	-0.149	0.023
-368.756	29.161	-0.281	-0.240
-367.742	-160.186	-0.117	0.006
-366.727	800.000	-0.038	-0.142
-365.712	103.518	-0.015	-0.018
-364.698	-200.000	-0.013	0.360
-363.683	-75.313	0.145	-0.052
-362.669	-18.841	-0.084	-0.053
-361.654	47.949	0.067	0.063
-360.639	52.745	-0.116	0.111
-359.625	47.075	-0.166	0.155
-358.610	185.336	0.117	0.174
-357.596	-81.291	-0.365	0.121
-356.581	-60.264	-0.368	-0.157
-355.566	-200.000	-0.204	0.000
-354.552	-74.578	-0.168	-0.061
-353.537	800.000	-0.062	0.206
-352.523	-102.423	0.426	-0.102
-351.508	36.850	0.058	-0.051
-350.493	-81.538	-0.107	-0.035
-349.479	155.645	0.037	0.051
-348.464	503.869	-0.118	0.274
-347.450	174.319	-0.049	0.070
-346.435	355.202	0.045	0.091
-345.420	-200.000	-0.003	0.067
-344.406	178.900	-0.081	0.119
-343.391	-12.143	0.265	-0.174
-342.377	588.247	-0.116	-0.287
-341.362	327.183	-0.157	-0.303
-340.348	800.000	0.153	0.439
-339.333	-105.477	-0.200	0.046
-338.318	-25.822	0.160	-0.095
-337.304	-66.164	-0.129	0.052
-336.289	800.000	-0.044	0.129
-335.275	-200.000	-0.015	-0.087
-334.260	597.723	-0.089	0.222
-333.245	800.000	0.031	0.098
-332.231	-200.000	0.008	0.080
-331.216	-134.102	-0.301	-0.037
-330.202	-200.000	0.042	0.477
-329.187	-200.000	0.021	-0.179
-328.172	-12.860	0.169	-0.110
-327.158	800.000	-0.047	0.191
-326.143	-162.144	-0.495	0.025
-325.129	131.054	-0.075	-0.097
-324.114	800.000	0.106	-0.322
-323.099	603.337	0.020	0.049
-322.085	-127.291	0.064	-0.009
-321.070	-200.000	0.019	-0.386
-320.056	-148.246	-0.334	0.028
-319.041	-200.000	0.050	-0.397
-318.026	-161.600	-0.098	0.005
-317.012	-200.000	-0.014	0.128
-315.997	-200.000	-0.028	0.224
-314.983	347.496	0.033	-0.064
-313.968	-39.644	0.061	-0.032
-312.953	-200.000	0.077	-0.000
-311.939	-200.000	0.052	-0.315
-310.924	800.000	0.018	-0.060
-309.910	96.506	-0.045	-0.052
-308.895	800.000	-0.128	-0.393
-307.880	26.357	-0.115	-0.097
-306.866	621.607	-0.113	-0.286
-305.851	-200.000	-0.002	0.076
-304.837	161.059	-0.089	0.125
-303.822	-200.000	-0.007	0.154
-302.807	265.992	-0.058	0.101
-301.793	-142.675	-0.146	-0.014
-300.778	-200.000	-0.006	0.184
-299.764	-21.205	0.105	-0.064
-298.749	-127.568	0.385	0.056
-297.735	-200.000	-0.022	-0.210
-296.720	800.000	0.011	0.037
-295.705	-186.520	0.051	0.001
-294.691	-135.230	0.398	-0.048
-293.676	-69.157	-0.214	-0.083
-292.662	410.582	0.165	0.350
-291.647	-159.838	0.211	-0.012
-290.632	-200.000	-0.068	0.369
-289.618	800.000	-0.020	0.080
-288.603	-130.180	-0.230	-0.031
-287.589	-142.737	-0.320	0.031
-286.574	-18.689	-0.508	-0.317
-285.559	-87.774	-0.180	-0.054
-284.545	522.506	0.124	0.292
-283.530	30.543	0.195	-0.167
-282.516	-200.000	-0.062	0.294
-281.501	17.348	-0.126	-0.100
-280.486	-200.000	-0.069	-0.344
-279.472	-29.314	-0.416	0.238
-278.457	-4.711	-0.188	-0.130
-277.443	-105.717	0.096	-0.022
-276.428	80.584	-0.169	0.182
-275.413	800.000	-0.067	-0.192
-274.399	-200.000	-0.031	0.324
-273.384	552.835	0.025	0.060
-272.370	32.864	-0.275	0.239
-271.355	311.553	-0.063	-0.118
-270.340	-45.154	-0.106	0.053
-269.326	800.000	0.103	0.290
-268.311	-27.722	0.132	0.077
-267.297	-200.000	-0.008	-0.141
-266.282	238.799	0.119	0.197
-265.267	-181.587	0.137	0.003
-264.253	800.000	0.024	-0.093
-263.238	73.499	-0.254	0.266
-262.224	69.814	-0.101	0.105
-261.209	-113.255	-0.136	0.027
-260.195	67.456	-0.173	-0.177
-259.180	-88.740	0.309	0.092
-258.165	18.171	0.080	0.064
-257.151	-200.000	0.030	0.432
-256.136	23.975	-0.130	-0.107
-255.122	466.109	0.106	-0.237
-254.107	40.963	0.124	0.112
-253.092	-28.344	0.078	-0.045
-252.078	800.000	-0.021	-0.089
-251.063	-71.256	0.280	0.105
-250.049	-49.075	-0.100	-0.048
-249.034	117.639	-0.190	0.234
-248.019	-200.000	0.023	-0.119
-247.005	-22.305	-0.231	0.140
-245.990	-146.009	0.105	0.009
-244.976	-200.000	-0.008	-0.106
-243.961	-25.248	-0.195	-0.116
-242.946	154.065	-0.083	-0.114
-241.932	8.325	0.148	-0.112
-240.917	-144.279	0.365	0.034
-239.903	-47.102	0.140	0.068
-238.888	800.000	0.082	0.286
-237.873	-200.000	0.015	-0.074
-236.859	800.000	0.074	0.309
-235.844	-196.651	-0.442	0.003
-234.830	355.211	0.048	-0.095
-233.815	385.291	-0.021	0.042
-232.800	-78.819	0.062	-0.021
-231.786	740.537	-0.048	-0.128
-230.771	511.497	-0.188	-0.437
-229.757	-200.000	-0.006	-0.131
-228.742	-200.000	0.031	0.272
-227.727	-77.269	0.251	0.087
-226.713	-92.375	-0.133	0.038
-225.698	-200.000	0.054	-0.395
-224.684	39.344	0.089	0.079
-223.669	-200.000	0.003	0.209
-222.655	61.576	0.222	-0.220
-221.640	-200.000	-0.004	0.209
-220.625	44.167	0.160	0.146
-219.611	287.780	0.105	-0.190
-218.596	-97.257	-0.424	-0.111
-217.582	-143.077	-0.258	0.025
-216.567	-200.000	0.040	-0.247
-215.552	2.749	0.227	0.164
-214.538	10.987	-0.306	-0.233
-213.523	-200.000	0.015	0.195
-212.509	35.389	0.077	0.067
-211.494	800.000	0.137	0.451
-210.479	32.612	0.158	-0.137
-209.465	-200.000	0.015	-0.120
-208.450	-32.325	-0.129	-0.072
-207.436	-200.000	0.019	0.185
-206.421	646.225	0.076	0.193
-205.406	33.071	0.292	0.253
-204.392	303.615	-0.050	-0.092
-203.377	-79.110	0.076	0.026
-202.363	-200.000	-0.017	-0.116
-201.348	-82.178	-0.359	0.117
-200.333	-82.373	0.133	-0.043
-199.319	-80.429	-0.199	-0.066
-198.304	77.582	-0.154	0.163
-197.290	-130.990	0.306	-0.041
-196.275	-200.000	0.010	-0.416
-195.260	800.000	0.076	-0.234
-194.246	800.000	0.050	-0.192
-193.231	-119.705	0.377	-0.065
-192.217	245.330	0.066	-0.111
-191.202	-51.303	-0.180	-0.084
-190.187	800.000	0.118	0.362
-189.173	5.778	-0.112	0.082
-188.158	-200.000	0.014	-0.326
-187.144	-200.000	0.011	-0.217
-186.129	-52.920	0.099	0.045
-185.114	375.122	-0.102	-0.207
-184.100	-76.600	-0.201	-0.070
-183.085	-180.466	0.216	-0.004
-182.071	-165.036	0.174	0.008
-181.056	20.060	0.088	-0.071
-180.042	800.000	0.026	-0.103
-179.027	-200.000	0.018	-0.137
-178.012	-200.000	-0.016	0.232
-176.998	291.091	-0.100	-0.182
-175.983	17.985	-0.134	0.106
-174.969	800.000	0.021	-0.058
-173.954	-56.138	0.154	0.068
-172.939	-200.000	-0.022	0.172
-171.925	-200.000	-0.005	0.171
-170.910	-81.234	-0.234	0.077
-169.896	24.710	0.039	0.032
-168.881	105.600	0.102	-0.121
-167.866	187.782	0.245	-0.364
-166.852	-108.306	-0.427	-0.092
-165.837	800.000	-0.143	0.408
-164.823	6.199	0.048	0.036
-163.808	-189.607	-0.193	0.002
-162.793	141.718	-0.079	0.104
-161.779	-55.944	0.118	0.053
-160.764	-33.619	-0.241	-0.133
-159.750	139.910	-0.030	-0.040
-158.735	-200.000	-0.014	0.198
-157.720	232.946	0.126	0.206
-156.706	-89.675	-0.032	0.009
-155.691	-200.000	-0.025	-0.128
-154.677	800.000	-0.063	0.253
-153.662	-85.336	0.306	-0.095
-152.647	-86.785	0.257	0.078
-151.633	-102.679	-0.056	-0.013
-150.618	54.496	-0.138	-0.132
-149.604	-117.457	-0.247	0.045
-148.589	-24.627	-0.372	0.220
-147.574	429.369	-0.138	0.297
-146.560	-171.625	-0.189	0.006
-145.545	-131.274	0.405	-0.054
-144.531	-151.111	-0.087	0.007
-143.516	145.166	0.266	-0.354
-142.502	251.109	0.087	-0.147
-141.487	396.483	0.116	-0.240
-140.472	-200.000	0.045	-0.272
-139.458	494.304	-0.134	-0.307
-138.443	115.387	-0.062	-0.075
-137.429	58.194	0.411	-0.402
-136.414	-35.023	0.160	-0.087
-135.399	32.183	-0.225	-0.193
-134.385	-30.055	-0.064	0.036
-133.370	-200.000	-0.027	0.125
-132.356	-200.000	0.019	0.096
-131.341	10.709	0.078	0.059
-130.326	-37.309	0.180	-0.096
-129.312	68.449	0.123	0.126
-128.297	48.947	-0.122	-0.114
-127.283	-95.327	0.158	0.042
-126.268	-10.299	-0.285	0.188
-125.253	800.000	0.030	-0.124
-124.239	-57.495	-0.158	-0.069
-123.224	800.000	0.017	0.060
-122.210	98.781	-0.323	-0.371
-121.195	446.931	-0.120	-0.263
-120.180	519.721	0.041	-0.095
-119.166	-200.000	-0.018	0.113
-118.151	-47.019	0.055	-0.027
-117.137	-49.085	-0.223	-0.106
-116.122	-200.000	-0.008	-0.504
-115.107	-115.604	-0.152	0.028
-114.093	-200.000	-0.001	-0.095
-113.078	513.295	0.045	0.104
-112.064	100.721	0.108	0.124
-111.049	-200.000	0.034	0.357
-110.034	-101.776	-0.369	-0.089
-109.020	145.231	-0.160	-0.213
-108.005	-85.445	0.167	0.052
-106.991	-75.492	0.106	-0.038
-105.976	-144.899	0.344	0.031
-104.962	89.312	0.246	0.273
-103.947	-138.662	-0.120	0.013
-102.932	-200.000	0.003	-0.251
-101.918	-147.168	0.185	0.016
-100.903	-174.982	-0.161	-0.004
-99.889	-120.305	0.090	0.015
-98.874	29.356	0.408	0.345
-97.859	391.352	0.096	-0.197
-96.845	800.000	-0.034	-0.133
-95.830	74.238	-0.145	-0.151
-94.816	-35.956	0.193	0.104
-93.801	-35.394	0.108	0.059
-92.786	186.807	0.151	0.223
-91.772	210.591	0.148	-0.232
-90.757	-125.135	0.079	-0.012
-89.743	-126.158	0.327	-0.049
-88.728	235.450	0.153	0.251
-87.713	235.522	0.096	-0.158
-86.699	-153.452	-0.424	0.029
-85.684	10.863	-0.206	-0.156
-84.670	800.000	-0.056	-0.193
-83.655	-171.571	-0.515	-0.017
-82.640	800.000	-0.073	-0.202
-81.626	800.000	-0.032	0.126
-80.611	-200.000	-0.011	0.192
-79.597	-200.000	0.003	0.119
-78.582	800.000	0.071	-0.219
-77.567	-172.581	0.165	0.005
-76.553	-200.000	0.194	0.000
-75.538	800.000	0.068	-0.259
-74.524	-23.922	-0.266	0.158
-73.509	150.553	0.063	0.085
-72.494	162.275	0.125	-0.174
-71.480	128.807	0.142	-0.180
-70.465	-117.515	0.264	-0.047
-69.451	276.278	-0.183	-0.322
-68.436	156.529	0.051	0.070
-67.422	-109.744	0.173	0.036
-66.407	36.080	-0.197	-0.172
-65.392	-138.619	-0.211	0.023
-64.378	-16.646	-0.354	-0.222
-63.363	-138.751	-0.320	0.035
-62.349	-70.785	-0.040	0.015
-61.334	76.011	-0.764	-0.803
-60.319	-98.611	0.294	0.074
-59.305	-200.000	0.075	-1.007
-58.290	513.241	0.253	0.586
-57.276	437.208	0.742	1.605
-56.261	-200.000	79.842	494.530
-55.246	557.507	1358.912	3252.026
-54.232	182.905	2595.260	3802.104
-53.217	114.585	2363.012	2857.771
-52.203	48.071	1971.959	1829.596
-51.188	42.414	1756.354	1584.983
-50.173	39.725	1710.254	1522.602
-49.159	53.807	1747.234	1665.425
-48.144	58.116	1765.863	1716.675
-47.130	42.401	1728.525	1559.522
-46.115	39.361	1713.793	1522.692
-45.100	39.220	1709.121	1517.397
-44.086	39.190	1706.769	1515.016
-43.071	39.133	1704.247	1512.276
-42.057	39.102	1701.999	1509.987
-41.042	39.211	1699.337	1508.404
-40.027	39.198	1697.650	1506.741
-39.013	39.060	1695.936	1504.102
-37.998	39.077	1694.439	1502.847
-36.984	39.106	1693.019	1501.751
-35.969	39.155	1691.219	1500.465
-34.954	39.402	1689.116	1500.427
-33.940	39.312	1687.457	1498.209
-32.925	39.228	1686.014	1496.226
-31.911	39.222	1683.914	1494.258
-30.896	39.296	1681.702	1492.799
-29.881	39.314	1680.058	1491.420
-28.867	39.286	1678.656	1489.902
-27.852	39.373	1677.256	1489.261
-26.838	39.310	1675.564	1487.223
-25.823	39.224	1674.651	1485.697
-24.809	39.383	1673.142	1485.505
-23.794	39.235	1671.780	1483.115
-22.779	39.322	1670.088	1482.212
-21.765	39.293	1668.389	1480.428
-20.750	39.206	1666.980	1478.468
-19.736	39.224	1665.193	1476.958
-18.721	39.325	1663.704	1476.338
-17.706	39.297	1661.809	1474.386
-16.692	39.239	1660.354	1472.604
-15.677	39.222	1659.225	1471.419
-14.663	39.320	1657.925	1470.941
-13.648	39.299	1656.024	1469.033
-12.633	39.250	1654.877	1467.597
-11.619	39.208	1653.337	1465.855
-10.604	39.231	1651.494	1464.336
-9.590	39.242	1650.340	1463.339
-8.575	39.178	1649.374	1461.946
-7.560	39.314	1647.335	1461.089
-6.546	39.328	1646.176	1460.111
-5.531	39.282	1645.674	1459.266
-4.517	39.172	1644.011	1456.915
-3.502	39.254	1642.803	1456.397
-2.487	39.338	1641.528	1455.825
-1.473	39.182	1629.988	1444.394
-0.458	36.374	1609.104	1405.422
0.556	33.608	1607.006	1366.777
1.571	30.460	1631.717	1364.592
2.586	29.186	1645.028	1366.156
3.600	25.067	1589.910	1290.673
4.615	14.990	1473.389	1128.370
5.629	6.541	1402.777	1019.743
6.644	5.098	1393.848	1003.879
7.659	5.003	1392.337	1002.094
8.673	4.871	1391.492	1000.549
9.688	4.948	1389.500	999.523
10.702	4.821	1387.592	997.244
11.717	8.474	1394.102	1025.305
12.731	17.382	1411.144	1095.352
13.746	22.189	1417.885	1131.508
14.761	21.126	1414.778	1122.096
15.775	19.915	1411.417	1111.565
16.790	18.875	1408.639	1102.609
17.804	17.970	1406.598	1095.111
18.819	17.597	1405.115	1091.470
19.834	17.385	1404.013	1089.165
20.848	17.076	1402.952	1086.266
21.863	16.895	1401.433	1083.838
22.877	16.745	1400.022	1081.691
23.892	16.835	1399.378	1081.674
24.907	16.667	1398.474	1079.807
25.921	16.757	1397.652	1079.652
26.936	16.679	1396.940	1078.505
27.950	16.873	1395.497	1078.536
28.965	16.849	1395.003	1077.900
29.980	16.869	1393.939	1077.110
30.994	17.030	1392.437	1076.875
32.009	17.056	1391.478	1076.204
33.023	17.097	1389.751	1075.037
34.038	16.944	1388.397	1072.924
35.053	16.905	1387.487	1071.878
36.067	16.944	1385.590	1070.569
37.082	16.995	1385.295	1070.564
38.096	16.952	1384.450	1069.547
39.111	17.038	1383.307	1069.110
40.126	16.861	1382.849	1067.547
41.140	16.699	1381.740	1065.575
42.155	16.667	1381.423	1065.036
43.169	16.600	1380.927	1064.136
44.184	16.641	1380.632	1064.076
45.199	16.599	1380.070	1063.281
46.213	16.642	1379.709	1063.184
47.228	16.814	1378.976	1063.604
48.242	16.849	1377.517	1062.600
49.257	16.824	1376.205	1061.338
50.271	16.764	1374.606	1059.636
51.286	16.826	1373.608	1059.163
52.301	16.806	1371.892	1057.618
53.315	16.783	1370.710	1056.470
54.330	16.752	1369.511	1055.260
55.344	16.730	1368.210	1054.029
56.359	16.779	1367.267	1053.513
57.374	16.524	1366.788	1051.468
58.388	16.620	1365.797	1051.205
59.403	16.518	1365.804	1050.484
60.417	16.493	1364.657	1049.353
61.432	16.528	1363.755	1048.786
62.447	16.475	1362.319	1047.262
63.461	16.476	1361.252	1046.353
64.476	16.392	1360.276	1044.993
65.490	16.424	1359.070	1044.172
66.505	16.462	1357.673	1043.238
67.520	16.610	1356.342	1043.034
68.534	16.479	1355.168	1041.235
69.549	16.519	1354.280	1040.703
70.563	16.453	1353.184	1039.369
71.578	16.330	1352.025	1037.626
72.593	16.351	1351.280	1037.095
73.607	16.362	1350.202	1036.241
74.622	16.377	1349.526	1035.723
75.636	16.265	1348.884	1034.456
76.651	16.346	1348.028	1034.202
77.666	16.399	1347.532	1034.052
78.680	16.305	1347.337	1033.239
79.695	16.428	1346.046	1032.906
80.709	16.474	1345.303	1032.526
81.724	16.566	1344.691	1032.527
82.739	16.580	1343.853	1031.877
83.753	16.740	1343.151	1032.220
84.768	16.877	1342.062	1032.131
85.782	16.881	1341.016	1031.258
86.797	16.863	1339.850	1030.162
87.812	16.816	1338.511	1028.751
88.826	16.744	1337.431	1027.394
89.841	16.833	1336.305	1026.981
90.855	16.822	1335.387	1026.114
91.870	16.908	1334.217	1025.649
92.884	16.886	1333.807	1025.109
93.899	16.862	1333.163	1024.376
94.914	17.052	1332.090	1024.608
95.928	17.082	1331.081	1023.921
96.943	16.974	1330.007	1022.357
97.957	16.887	1329.020	1020.981
98.972	16.919	1328.092	1020.371
99.987	16.982	1326.866	1019.721
101.001	17.022	1325.495	1018.812
102.016	16.979	1325.224	1018.261
103.030	16.948	1323.938	1016.992
104.045	16.870	1323.305	1015.951
105.060	16.847	1321.941	1014.673
106.074	16.676	1320.663	1012.583
107.089	16.560	1318.744	1010.329
108.103	16.546	1317.949	1009.546
109.118	16.508	1316.568	1008.174
110.133	16.553	1314.724	1006.940
111.147	16.528	1313.913	1006.082
112.162	16.566	1312.634	1005.235
113.176	16.548	1311.684	1004.315
114.191	16.685	1310.566	1004.181
115.206	16.656	1309.589	1003.171
116.220	16.525	1308.511	1001.484
117.235	16.663	1307.066	1001.107
118.249	16.635	1306.195	1000.184
119.264	16.598	1304.812	998.817
120.279	16.619	1303.401	997.770
121.293	16.559	1302.321	996.505
122.308	16.338	1301.741	994.673
123.322	16.490	1300.348	994.415
124.337	16.484	1299.168	993.386
125.352	16.490	1298.059	992.484
126.366	16.432	1296.972	991.229
127.381	16.471	1296.279	990.840
128.395	16.483	1294.999	989.841
129.410	16.491	1294.368	989.319
130.424	16.629	1293.311	989.233
131.439	16.559	1292.558	988.158
132.454	16.567	1291.769	987.512
133.468	16.775	1290.457	987.635
134.483	16.712	1289.923	986.774
135.497	16.663	1288.960	985.663
136.512	16.652	1287.714	984.558
137.527	16.690	1286.000	983.384
138.541	16.756	1284.771	982.738
139.556	16.753	1283.751	981.853
140.570	16.880	1282.781	981.760
141.585	16.981	1281.284	981.112
142.600	16.976	1280.257	980.212
143.614	17.005	1279.287	979.548
144.629	16.978	1278.565	978.755
145.643	17.028	1277.129	977.855
146.658	16.905	1276.255	976.394
147.673	16.799	1274.467	974.331
148.687	16.759	1273.354	973.165
149.702	16.665	1272.046	971.540
150.716	16.657	1270.653	970.339
151.731	16.808	1269.258	970.058
152.746	16.689	1268.575	968.767
153.760	16.862	1266.809	968.318
154.775	16.945	1265.847	967.972
155.789	16.948	1264.966	967.229
156.804	16.921	1263.800	966.102
157.819	16.982	1262.606	965.449
158.833	17.028	1262.028	965.181
159.848	17.136	1260.960	964.894
160.862	17.143	1259.697	963.880
161.877	17.011	1258.589	962.201
162.892	16.774	1257.461	959.910
163.906	16.744	1256.654	959.040
164.921	16.805	1255.722	958.588
165.935	16.778	1255.059	957.847
166.950	16.907	1254.229	957.858
167.964	16.947	1253.294	957.281
168.979	16.841	1252.909	956.304
169.994	16.942	1252.051	956.138
171.008	16.916	1251.339	955.359
172.023	17.038	1250.468	955.296
173.037	17.104	1249.467	954.822
174.052	17.160	1248.573	954.365
175.067	16.951	1247.824	952.536
176.081	16.900	1246.618	951.245
177.096	16.919	1245.490	950.407
178.110	16.907	1244.563	949.546
179.125	16.953	1243.590	948.979
180.140	16.963	1241.924	947.679
181.154	17.120	1240.757	947.583
182.169	16.987	1239.967	946.151
183.183	17.171	1238.804	946.208
184.198	17.187	1237.251	945.028
185.213	17.191	1236.124	944.103
186.227	17.114	1235.272	942.942
187.242	17.276	1234.109	942.870
188.256	17.346	1233.502	942.710
189.271	17.310	1232.315	941.521
190.286	17.187	1231.136	939.856
191.300	16.938	1230.323	937.774
192.315	16.774	1229.698	936.308
193.329	16.899	1228.883	936.298
194.344	16.964	1228.232	936.076
195.359	17.094	1227.474	936.135
196.373	17.204	1227.232	936.472
197.388	17.143	1227.095	935.951
198.402	17.388	1226.661	936.885
199.417	17.479	1225.778	936.628
200.432	17.495	1225.011	936.046
201.446	17.586	1224.120	935.780
202.461	17.547	1223.343	934.891
203.475	17.507	1222.198	933.713
204.490	17.484	1220.758	932.407
205.504	17.346	1219.879	930.897
206.519	17.358	1218.799	930.057
207.534	17.324	1217.142	928.525
208.548	17.389	1216.069	927.976
209.563	17.336	1215.320	927.036
210.577	17.311	1214.386	926.102
211.592	17.383	1213.677	925.876
212.607	17.618	1212.875	926.457
213.621	17.551	1211.832	925.218
214.636	17.463	1210.753	923.832
215.650	17.619	1209.997	924.020
216.665	17.554	1209.101	922.900
217.680	17.712	1208.408	923.149
218.694	17.721	1207.829	922.669
219.709	17.731	1206.551	921.666
220.723	17.639	1206.020	920.683
221.738	17.701	1205.411	920.470
222.753	17.694	1204.530	919.681
223.767	17.820	1203.549	919.526
224.782	17.800	1202.975	918.899
225.796	17.929	1202.207	918.929
226.811	17.845	1201.860	918.128
227.826	17.734	1200.826	916.661
228.840	17.713	1200.122	915.929
229.855	17.724	1199.733	915.611
230.869	17.732	1198.552	914.670
231.884	17.714	1197.638	913.798
232.899	17.677	1196.858	912.921
233.913	17.604	1196.071	911.850
234.928	17.587	1195.781	911.459
235.942	17.524	1195.190	910.587
236.957	17.599	1193.807	909.857
237.972	17.555	1193.253	909.119
238.986	17.663	1192.413	908.973
240.001	17.694	1191.695	908.511
241.015	17.604	1190.865	907.322
242.030	17.726	1190.151	907.344
243.045	17.771	1189.535	907.035
244.059	17.752	1188.606	906.145
245.074	17.762	1188.087	905.721
246.088	17.815	1187.001	905.095
247.103	17.950	1186.187	905.110
248.117	18.024	1185.624	904.989
249.132	18.149	1184.933	905.043
250.147	18.301	1184.485	905.429
251.161	18.323	1183.508	904.718
252.176	18.319	1183.053	904.266
253.190	18.348	1182.352	903.807
254.205	18.345	1182.177	903.577
255.220	18.364	1181.091	902.766
256.234	18.394	1180.589	902.460
257.249	18.404	1179.667	901.728
258.263	18.488	1178.853	901.466
259.278	18.512	1178.390	901.157
260.293	18.451	1178.127	900.556
261.307	18.562	1177.175	900.331
262.322	18.492	1176.432	899.320
263.336	18.507	1175.710	898.765
264.351	18.500	1175.597	898.563
265.366	18.561	1174.953	898.309
266.380	18.554	1173.975	897.448
267.395	18.518	1173.264	896.633
268.409	18.515	1172.298	895.804
269.424	18.549	1171.494	895.288
270.439	18.416	1171.368	894.417
271.453	18.463	1170.405	893.845
272.468	18.446	1169.400	892.914
273.482	18.381	1168.690	891.954
274.497	18.524	1168.132	892.192
275.512	18.417	1167.286	890.910
276.526	18.461	1166.584	890.524
277.541	18.539	1165.602	890.100
278.555	18.587	1165.014	889.820
279.570	18.481	1164.819	889.046
280.585	18.653	1163.849	889.116
281.599	18.705	1163.097	888.731
282.614	18.710	1161.748	887.648
283.628	18.626	1160.510	886.190
284.643	18.624	1159.659	885.453
285.657	18.588	1158.766	884.507
286.672	18.670	1157.580	883.946
287.687	18.614	1157.127	883.232
288.701	18.701	1156.251	882.932
289.716	18.683	1155.563	882.237
290.730	18.750	1154.427	881.634
291.745	18.801	1154.060	881.539
292.760	18.745	1153.771	880.952
293.774	18.772	1153.264	880.625
294.789	18.844	1152.484	880.325
295.803	18.864	1151.639	879.704
296.818	18.832	1150.822	878.837
297.833	18.802	1150.190	878.120
298.847	18.785	1149.566	877.480
299.862	18.793	1148.525	876.648
300.876	18.879	1147.778	876.442
301.891	18.860	1147.315	875.911
302.906	18.930	1146.596	875.642
303.920	18.980	1146.121	875.458
304.935	19.132	1145.370	875.577
305.949	19.146	1144.565	874.959
306.964	19.124	1144.114	874.426
307.979	19.107	1142.855	873.299
308.993	19.057	1142.321	872.557
310.008	19.178	1141.397	872.388
311.022	19.137	1140.832	871.673
312.037	19.204	1139.604	870.995
313.052	18.940	1139.274	869.333
314.066	18.880	1138.279	868.191
315.081	18.916	1137.143	867.431
316.095	18.954	1136.169	866.803
317.110	18.826	1135.680	865.709
318.125	18.922	1134.823	865.462
319.139	18.953	1134.096	864.987
320.154	18.947	1133.513	864.433
321.168	18.870	1133.054	863.621
322.183	18.975	1132.224	863.438
323.197	19.119	1131.487	863.521
324.212	19.074	1131.157	862.970
325.227	19.084	1130.432	862.391
326.241	18.964	1130.331	861.636
327.256	19.001	1129.454	861.076
328.270	19.093	1128.079	860.413
329.285	19.042	1126.781	859.090
330.300	19.005	1126.235	858.414
331.314	19.073	1125.047	857.773
332.329	19.084	1124.158	857.071
333.343	19.131	1123.369	856.627
334.358	19.170	1122.479	856.070
335.373	19.152	1122.095	855.612
336.387	19.279	1121.089	855.397
337.402	19.371	1120.040	854.977
338.416	19.333	1119.450	854.262
339.431	19.397	1119.079	854.222
340.446	19.503	1118.625	854.325
341.460	19.464	1118.040	853.610
342.475	19.584	1117.330	853.585
343.489	19.524	1116.131	852.298
344.504	19.643	1115.235	852.124
345.519	19.616	1114.774	851.566
346.533	19.679	1113.819	851.070
347.548	19.703	1112.957	850.455
348.562	19.733	1111.856	849.687
349.577	19.578	1111.477	848.558
350.592	19.466	1110.245	846.992
351.606	19.469	1109.469	846.338
352.621	19.512	1108.877	846.026
353.635	19.405	1108.166	844.884
354.650	19.441	1107.587	844.543
355.665	19.551	1106.727	844.351
356.679	19.568	1106.364	844.084
357.694	19.605	1105.414	843.465
358.708	19.698	1104.877	843.434
359.723	19.713	1104.074	842.817
360.738	19.614	1103.977	842.188
361.752	19.664	1103.300	841.839
362.767	19.676	1102.673	841.345
363.781	19.764	1101.850	841.069
364.796	19.773	1101.242	840.576
365.810	19.893	1100.906	840.830
366.825	19.970	1100.231	840.615
367.840	20.097	1099.731	840.772
368.854	20.175	1098.751	840.325
369.869	20.018	1098.406	839.229
370.883	20.004	1097.411	838.327
371.898	19.892	1097.015	837.407
372.913	19.929	1096.122	836.828
373.927	19.945	1095.628	836.458
374.942	20.077	1095.253	836.732
375.956	20.043	1094.696	836.072
376.971	20.142	1093.709	835.719
377.986	20.131	1092.973	835.028
379.000	20.115	1093.006	834.902
380.015	20.237	1092.045	834.682
381.029	20.121	1091.750	833.825
382.044	20.233	1090.864	833.616
383.059	20.259	1090.078	833.064
384.073	20.051	1089.661	831.672
385.088	20.330	1088.295	831.897
386.102	20.245	1087.369	830.705
387.117	20.168	1086.731	829.777
388.132	20.060	1085.742	828.429
389.146	20.033	1084.550	827.318
390.161	20.119	1083.933	827.187
391.175	20.129	1082.834	826.323
392.190	20.174	1082.749	826.400
393.205	20.183	1082.160	825.918
394.219	20.238	1081.087	825.291
395.234	20.294	1080.053	824.693
396.248	20.189	1079.146	823.427
397.263	20.175	1077.802	822.264
398.278	20.102	1077.196	821.384
399.292	20.139	1076.589	821.021
400.307	20.036	1075.970	819.992
401.321	20.034	1075.255	819.361
402.336	20.194	1074.168	819.218
403.350	20.150	1073.754	818.623
404.365	20.116	1073.109	817.899
405.380	20.304	1072.335	818.121
406.394	20.288	1071.473	817.315
407.409	20.379	1070.781	817.146
408.423	20.435	1070.679	817.260
409.438	20.515	1069.689	816.803
410.453	20.569	1068.917	816.400
411.467	20.484	1068.394	815.526
412.482	20.583	1067.750	815.427
413.496	20.702	1066.819	815.202
414.511	20.557	1066.581	814.268
415.526	20.735	1066.037	814.616
416.540	20.889	1065.402	814.779
417.555	20.816	1064.658	813.797
418.569	20.748	1064.187	813.047
419.584	20.743	1063.545	812.460
420.599	20.724	1063.501	812.266
421.613	144.451	1393.040	1754.510
422.628	132.928	1441.059	1754.652
