DTS Sentinel unit serial number:	SN413079Multiplexer serial number:	ORYXHardware model number:	OX4-SRSoftware version number:	ORYX F/W v4.00 Oryx Data Collector v3.7.2.0data status	okinstallation	princeton_trtdifferential loss correction	single-endedforward channel	channel 2reverse channel	N/Adate	2019/09/14time	05:35:34forward acquisition time	60.00reverse acquisition time	0.00gamma	496.2192k internal	0.2336k external	0.2336temperature offset calibration	1.0133default loss term (dB/km)	0.3790temperature slope calibration	1.0000multiplexer offset coefficient	1.0000multiplexer slope coefficient	1.0000fibre end	0.00T internal ref (°C)	26.94T ext. ref 1 (°C)	3.40T ext. ref 2 (°C)	21.78length (m)	temperature (°C)	Stokes	anti-Stokes-747.200	232.558	-0.211	-0.348
-746.185	800.000	0.025	0.103
-745.171	164.416	-0.080	0.113
-744.156	141.109	-0.173	-0.229
-743.142	-55.158	-0.229	-0.104
-742.127	-200.000	0.027	0.122
-741.112	-200.000	0.024	0.127
-740.098	141.542	0.135	0.180
-739.083	-200.000	-0.026	0.208
-738.069	93.146	-0.329	0.374
-737.054	-31.592	-0.232	0.131
-736.039	-149.217	-0.159	-0.013
-735.025	-200.000	-0.464	-0.002
-734.010	-8.091	-0.116	-0.079
-732.996	-200.000	-0.006	0.087
-731.981	-7.999	0.107	0.073
-730.966	-200.000	0.011	0.307
-729.952	25.482	0.174	-0.145
-728.937	278.690	-0.075	-0.134
-727.923	-200.000	0.010	0.061
-726.908	19.761	-0.178	0.144
-725.894	-0.793	-0.269	-0.191
-724.879	-69.348	-0.120	0.046
-723.864	-14.566	-0.145	0.093
-722.850	-27.125	0.239	-0.140
-721.835	29.390	-0.152	0.129
-720.821	109.311	0.264	-0.317
-719.806	125.935	-0.108	0.137
-718.791	39.986	0.194	-0.175
-717.777	524.923	-0.156	-0.367
-716.762	-56.857	-0.232	-0.103
-715.748	800.000	0.090	0.357
-714.733	58.384	-0.181	-0.178
-713.718	65.728	-0.039	0.040
-712.704	800.000	-0.061	0.229
-711.689	-122.468	-0.137	-0.022
-710.675	800.000	-0.028	-0.100
-709.660	-62.898	0.277	0.115
-708.645	-188.327	0.167	-0.002
-707.631	293.042	0.048	0.089
-706.616	56.289	-0.127	0.123
-705.602	172.533	0.112	-0.161
-704.587	728.559	-0.107	0.287
-703.572	-122.662	-0.132	0.022
-702.558	446.039	-0.059	0.129
-701.543	-200.000	-0.041	0.228
-700.529	-109.809	0.174	0.037
-699.514	-200.000	0.023	0.317
-698.499	800.000	0.069	0.279
-697.485	-200.000	-0.042	0.235
-696.470	16.180	-0.136	0.107
-695.456	105.286	-0.138	-0.164
-694.441	77.650	0.267	-0.285
-693.426	-73.376	-0.232	0.085
-692.412	180.746	-0.236	0.347
-691.397	-200.000	0.026	0.195
-690.383	113.112	-0.134	-0.163
-689.368	-200.000	0.073	0.363
-688.354	-200.000	-0.040	-0.483
-687.339	-145.270	0.306	0.028
-686.324	14.207	-0.401	0.313
-685.310	243.328	0.094	0.158
-684.295	-113.303	-0.063	-0.012
-683.281	100.657	-0.114	0.133
-682.266	665.874	0.070	0.181
-681.251	800.000	-0.040	0.115
-680.237	-44.458	0.329	0.165
-679.222	-126.517	0.293	0.044
-678.208	192.833	-0.060	0.091
-677.193	-200.000	-0.017	0.105
-676.178	531.342	-0.126	-0.299
-675.164	169.272	0.097	-0.139
-674.149	-52.116	-0.216	-0.100
-673.135	-200.000	0.017	-0.383
-672.120	41.795	0.118	-0.107
-671.105	-99.630	-0.357	0.090
-670.091	157.062	0.120	-0.166
-669.076	-193.298	-0.438	-0.004
-668.062	-200.000	0.041	-0.403
-667.047	445.733	0.041	0.090
-666.032	-200.000	-0.014	-0.160
-665.018	-43.020	-0.173	0.088
-664.003	-200.000	0.034	-0.281
-662.989	582.646	0.132	-0.325
-661.974	-200.000	-0.271	-0.000
-660.959	158.190	-0.057	-0.079
-659.945	420.360	0.128	0.274
-658.930	-33.599	-0.051	0.028
-657.916	-130.620	0.209	0.028
-656.901	26.692	0.053	0.045
-655.886	11.595	0.247	-0.189
-654.872	-200.000	0.004	-0.033
-653.857	-137.836	-0.113	-0.013
-652.843	-200.000	0.082	-0.443
-651.828	-28.567	0.247	-0.142
-650.814	1.446	0.065	-0.047
-649.799	83.290	-0.169	-0.185
-648.784	-200.000	-0.014	-0.289
-647.770	-200.000	-0.051	-0.293
-646.755	-5.143	-0.070	0.048
-645.741	-200.000	-0.027	0.140
-644.726	-161.135	0.088	-0.005
-643.711	-77.670	0.171	0.059
-642.697	87.676	-0.191	-0.212
-641.682	800.000	-0.098	-0.320
-640.668	327.663	0.165	0.316
-639.653	-116.427	0.245	-0.045
-638.638	-38.887	-0.078	0.041
-637.624	-122.723	-0.068	-0.011
-636.609	800.000	-0.129	0.500
-635.595	-105.521	0.205	-0.046
-634.580	800.000	0.077	-0.278
-633.565	270.843	0.174	-0.306
-632.551	-200.000	-0.023	0.140
-631.536	-94.963	-0.186	-0.050
-630.522	-159.340	0.032	0.002
-629.507	29.082	-0.113	-0.096
-628.492	-152.503	-0.281	-0.020
-627.478	59.153	-0.110	0.109
-626.463	0.812	0.363	0.260
-625.449	77.193	0.116	0.124
-624.434	20.796	-0.086	0.070
-623.419	800.000	-0.011	0.032
-622.405	102.234	0.018	0.021
-621.390	-99.637	0.193	0.048
-620.376	-200.000	-0.004	-0.154
-619.361	-173.645	-0.115	-0.003
-618.346	-19.210	-0.356	0.221
-617.332	98.250	0.173	0.199
-616.317	-3.368	-0.137	-0.096
-615.303	463.585	-0.041	0.091
-614.288	363.058	-0.154	0.309
-613.273	-200.000	-0.001	-0.029
-612.259	800.000	-0.011	0.040
-611.244	-3.728	0.296	-0.206
-610.230	88.102	-0.311	0.344
-609.215	-146.202	0.087	0.008
-608.201	800.000	-0.039	0.112
-607.186	-200.000	-0.019	0.131
-606.171	-94.593	0.177	-0.048
-605.157	-200.000	-0.002	0.245
-604.142	346.078	-0.262	0.515
-603.128	8.107	-0.164	-0.123
-602.113	39.221	-0.090	0.081
-601.098	-110.948	0.168	0.035
-600.084	-67.750	-0.340	-0.133
-599.069	800.000	0.108	0.299
-598.055	-97.857	-0.164	0.042
-597.040	8.231	-0.237	0.178
-596.025	-145.759	-0.148	0.013
-595.011	-57.379	-0.097	0.043
-593.996	24.255	0.127	-0.104
-592.982	-63.491	-0.109	-0.045
-591.967	199.172	-0.249	0.381
-590.952	30.424	-0.212	-0.181
-589.938	112.208	0.051	0.062
-588.923	-93.148	-0.365	-0.101
-587.909	87.291	0.073	-0.081
-586.894	-200.000	0.007	0.206
-585.879	-151.096	-0.150	0.011
-584.865	11.091	-0.282	-0.215
-583.850	-79.646	0.431	0.145
-582.836	104.816	0.116	-0.136
-581.821	-149.051	0.130	0.010
-580.806	6.624	0.502	-0.373
-579.792	37.800	0.067	-0.060
-578.777	-41.540	-0.129	0.066
-577.763	-200.000	0.018	0.332
-576.748	4.515	-0.439	0.322
-575.733	25.797	-0.171	0.142
-574.719	-95.459	0.190	0.051
-573.704	800.000	-0.044	0.126
-572.690	-200.000	-0.001	-0.130
-571.675	-151.041	0.271	0.020
-570.661	800.000	-0.050	-0.217
-569.646	-200.000	-0.023	0.187
-568.631	-200.000	0.013	0.276
-567.617	-65.548	-0.210	0.084
-566.602	-200.000	-0.296	-0.001
-565.588	211.451	-0.060	-0.095
-564.573	-2.464	0.079	-0.055
-563.558	-164.281	-0.421	0.019
-562.544	306.723	0.134	0.249
-561.529	75.596	-0.232	0.245
-560.515	371.539	-0.144	-0.291
-559.500	800.000	-0.035	0.096
-558.485	157.373	0.157	0.217
-557.471	800.000	-0.082	-0.309
-556.456	-69.701	-0.072	-0.028
-555.442	-102.634	0.090	0.021
-554.427	-139.720	-0.214	0.023
-553.412	174.091	-0.139	-0.201
-552.398	-200.000	0.044	0.302
-551.383	-170.755	0.332	-0.011
-550.369	91.611	0.081	0.091
-549.354	78.556	-0.141	-0.150
-548.339	176.107	0.108	0.157
-547.325	185.555	0.146	-0.215
-546.310	-90.713	-0.217	-0.062
-545.296	-200.000	0.019	-0.098
-544.281	81.811	0.048	-0.052
-543.266	6.250	0.193	-0.142
-542.252	-106.567	-0.318	-0.071
-541.237	-15.773	-0.170	-0.108
-540.223	210.699	-0.206	-0.323
-539.208	166.461	-0.071	-0.100
-538.193	-146.328	0.130	-0.011
-537.179	142.050	0.125	0.165
-536.164	-43.721	0.512	0.257
-535.150	282.354	-0.022	0.039
-534.135	-10.420	-0.247	0.163
-533.121	43.068	-0.122	-0.110
-532.106	-200.000	-0.028	-0.480
-531.091	101.105	0.115	0.134
-530.077	692.079	-0.148	0.386
-529.062	-112.437	0.034	0.007
-528.048	133.120	0.029	-0.037
-527.033	205.524	-0.098	-0.151
-526.018	-200.000	-0.003	-0.028
-525.004	-195.181	-0.021	0.000
-523.989	-200.000	0.007	-0.039
-522.975	800.000	-0.043	-0.185
-521.960	-87.216	0.139	-0.042
-520.945	-122.776	0.292	-0.047
-519.931	103.230	-0.239	-0.279
-518.916	35.816	0.265	0.232
-517.902	473.437	-0.122	0.273
-516.887	308.767	0.047	-0.088
-515.872	-5.708	0.177	-0.121
-514.858	17.813	-0.183	-0.145
-513.843	479.159	-0.079	0.178
-512.829	-146.374	0.254	0.022
-511.814	48.806	0.118	0.110
-510.799	-56.602	-0.020	-0.009
-509.785	421.345	-0.108	0.230
-508.770	-111.094	0.222	-0.045
-507.756	13.817	-0.402	0.311
-506.741	-78.286	-0.234	0.080
-505.726	-61.122	0.131	-0.055
-504.712	-200.000	-0.023	0.307
-503.697	-53.177	-0.177	-0.081
-502.683	257.215	0.159	0.272
-501.668	-200.000	0.039	0.215
-500.653	800.000	-0.068	-0.251
-499.639	192.584	0.214	0.321
-498.624	-139.425	0.168	0.018
-497.610	-20.482	-0.363	0.222
-496.595	2.943	-0.207	0.150
-495.581	-38.066	-0.275	-0.145
-494.566	16.844	0.168	0.132
-493.551	-200.000	-0.007	-0.269
-492.537	-200.000	0.003	-0.147
-491.522	204.228	-0.043	-0.066
-490.508	-200.000	0.017	0.150
-489.493	-156.049	0.107	-0.007
-488.478	227.548	0.260	-0.421
-487.464	-74.216	0.332	-0.120
-486.449	289.132	0.125	-0.226
-485.435	-58.522	0.216	0.093
-484.420	800.000	0.024	-0.074
-483.405	553.658	0.018	0.043
-482.391	-47.989	-0.107	0.051
-481.376	-200.000	0.002	-0.185
-480.362	337.627	0.108	0.209
-479.347	92.365	-0.065	-0.073
-478.332	396.548	0.129	-0.268
-477.318	-191.593	-0.086	0.001
-476.303	800.000	0.142	0.498
-475.289	-33.162	0.309	0.170
-474.274	-54.014	-0.057	-0.026
-473.259	151.555	-0.146	-0.198
-472.245	-44.016	0.179	-0.089
-471.230	-5.269	0.173	0.118
-470.216	-118.230	0.432	0.077
-469.201	21.205	0.191	0.154
-468.186	800.000	-0.089	-0.252
-467.172	-200.000	0.001	-0.344
-466.157	85.910	-0.021	-0.023
-465.143	99.223	0.139	0.160
-464.128	-0.336	0.167	-0.118
-463.113	-76.836	-0.313	-0.109
-462.099	-200.000	-0.076	-0.351
-461.084	33.066	-0.166	0.143
-460.070	-47.384	-0.234	-0.113
-459.055	-118.145	-0.319	-0.057
-458.040	-200.000	0.008	-0.135
-457.026	199.994	0.069	0.105
-456.011	101.378	-0.134	-0.155
-454.997	629.047	-0.026	-0.066
-453.982	338.778	0.089	0.172
-452.968	-0.921	0.221	-0.155
-451.953	-19.698	0.185	-0.113
-450.938	565.140	-0.051	0.123
-449.924	-27.031	-0.170	-0.099
-448.909	-106.102	-0.074	-0.016
-447.895	800.000	0.081	-0.308
-446.880	-200.000	0.002	-0.438
-445.865	-129.188	0.136	-0.019
-444.851	-200.000	0.050	-0.238
-443.836	15.262	0.248	-0.193
-442.822	121.249	0.119	-0.147
-441.807	800.000	-0.108	0.318
-440.792	-200.000	0.015	0.364
-439.778	-137.957	0.086	-0.009
-438.763	53.925	0.157	0.149
-437.749	-137.121	-0.090	0.010
-436.734	67.842	0.274	0.278
-435.719	334.891	0.059	0.113
-434.705	-96.013	0.191	0.051
-433.690	536.146	-0.105	-0.246
-432.676	415.154	-0.178	-0.376
-431.661	800.000	-0.113	0.397
-430.646	-44.252	0.173	0.086
-429.632	-200.000	0.055	-0.307
-428.617	-14.218	-0.299	-0.191
-427.603	0.355	-0.276	0.195
-426.588	-200.000	-0.006	-0.487
-425.573	185.797	0.234	0.345
-424.559	800.000	0.016	0.062
-423.544	194.217	0.048	0.072
-422.530	-38.005	-0.324	-0.170
-421.515	-139.842	-0.178	0.019
-420.500	-2.765	-0.077	-0.053
-419.486	-200.000	0.008	0.081
-418.471	475.991	-0.086	0.193
-417.457	25.338	0.117	-0.096
-416.442	-200.000	-0.011	-0.125
-415.428	28.666	-0.342	0.287
-414.413	-57.921	0.302	-0.131
-413.398	-200.000	-0.023	0.165
-412.384	-123.680	0.467	-0.073
-411.369	140.258	0.181	-0.237
-410.355	-200.000	0.027	0.269
-409.340	-50.760	-0.167	0.078
-408.325	35.251	-0.272	-0.237
-407.311	-92.190	0.178	-0.050
-406.296	-118.255	-0.386	0.068
-405.282	-185.735	0.160	0.002
-404.267	-69.838	0.126	-0.047
-403.252	-84.311	0.092	-0.029
-402.238	-114.628	-0.386	0.073
-401.223	-96.393	0.097	0.026
-400.209	-50.607	-0.207	0.097
-399.194	56.229	0.156	-0.150
-398.179	-200.000	0.002	-0.244
-397.165	-142.149	0.342	-0.034
-396.150	-33.326	0.239	0.131
-395.136	-88.025	0.317	0.094
-394.121	-186.525	0.181	-0.003
-393.106	-110.270	-0.134	0.028
-392.092	559.653	0.042	0.100
-391.077	65.150	-0.148	-0.148
-390.063	30.131	-0.110	0.093
-389.048	82.949	-0.114	0.123
-388.033	-147.550	-0.363	-0.030
-387.019	800.000	-0.097	0.301
-386.004	-95.401	-0.300	0.080
-384.990	-9.392	-0.076	0.050
-383.975	-110.804	-0.132	-0.027
-382.960	-200.000	-0.027	-0.297
-381.946	800.000	-0.044	-0.124
-380.931	-128.717	-0.206	0.029
-379.917	682.680	-0.090	-0.231
-378.902	-117.904	0.151	-0.027
-377.888	98.208	0.326	0.371
-376.873	32.097	-0.267	0.228
-375.858	23.825	-0.188	0.153
-374.844	54.134	-0.105	0.100
-373.829	45.491	-0.044	0.041
-372.815	249.842	-0.129	0.217
-371.800	-200.000	-0.026	-0.292
-370.785	-80.703	0.085	0.028
-369.771	-22.381	-0.048	0.029
-368.756	1.389	-0.133	0.095
-367.742	-42.675	-0.059	-0.030
-366.727	3.889	-0.117	-0.084
-365.712	-24.210	0.189	-0.111
-364.698	29.805	0.138	0.116
-363.683	-29.342	-0.265	0.150
-362.669	800.000	-0.053	0.174
-361.654	800.000	0.042	-0.134
-360.639	281.915	-0.072	0.128
-359.625	-186.498	-0.145	0.002
-358.610	-200.000	0.012	0.177
-357.596	-200.000	-0.040	0.249
-356.581	-35.350	-0.192	-0.103
-355.566	-70.366	0.179	0.067
-354.552	-64.912	0.209	-0.084
-353.537	800.000	-0.097	0.272
-352.523	573.247	-0.073	-0.177
-351.508	107.730	-0.056	-0.066
-350.493	-42.522	-0.192	0.097
-349.479	-200.000	-0.013	-0.175
-348.464	-20.262	-0.197	0.120
-347.450	-6.274	0.181	-0.122
-346.435	38.428	0.146	-0.128
-345.420	-200.000	0.056	-0.378
-344.406	-29.428	-0.067	0.038
-343.391	357.344	-0.162	0.320
-342.377	-23.735	-0.098	0.058
-341.362	45.973	-0.084	-0.077
-340.348	-65.175	-0.367	-0.146
-339.333	-56.670	-0.270	0.118
-338.318	-21.152	-0.343	-0.207
-337.304	-200.000	0.017	-0.204
-336.289	-200.000	-0.006	0.054
-335.275	323.575	-0.106	0.199
-334.260	-200.000	0.000	-0.277
-333.245	800.000	0.083	0.262
-332.231	-24.380	0.159	0.094
-331.216	-200.000	-0.014	-0.102
-330.202	-134.971	0.102	0.012
-329.187	-14.239	-0.133	0.085
-328.172	-85.770	-0.118	-0.036
-327.158	800.000	-0.072	-0.262
-326.143	-200.000	-0.016	-0.085
-325.129	516.814	0.123	-0.285
-324.114	33.601	-0.096	-0.083
-323.099	1.693	0.165	-0.118
-322.085	485.327	0.050	-0.112
-321.070	301.762	0.137	0.250
-320.056	800.000	0.009	0.034
-319.041	267.751	0.144	0.249
-318.026	-70.668	0.155	-0.058
-317.012	-200.000	0.006	0.086
-315.997	197.320	0.088	-0.133
-314.983	-200.000	0.037	-0.235
-313.968	-164.463	-0.408	-0.018
-312.953	-10.476	0.304	0.199
-311.939	-17.867	-0.317	-0.196
-310.924	-200.000	-0.017	-0.437
-309.910	-116.038	0.098	0.018
-308.895	-93.493	0.233	-0.064
-307.880	800.000	-0.052	-0.192
-306.866	74.906	0.241	-0.250
-305.851	77.169	0.248	0.260
-304.837	-105.311	-0.114	-0.026
-303.822	-119.136	0.124	-0.021
-302.807	-86.779	0.136	-0.041
-301.793	158.264	-0.275	0.376
-300.778	-200.000	-0.016	0.204
-299.764	6.098	-0.189	0.139
-298.749	-107.104	0.278	0.061
-297.735	-147.729	0.106	-0.009
-296.720	-200.000	-0.068	0.305
-295.705	800.000	0.099	-0.340
-294.691	-97.213	0.118	-0.030
-293.676	-69.877	-0.194	-0.073
-292.662	517.934	-0.219	0.507
-291.647	-200.000	0.048	0.248
-290.632	112.160	-0.224	0.267
-289.618	-37.924	0.251	0.132
-288.603	-29.002	0.172	0.097
-287.589	-97.580	0.064	-0.016
-286.574	508.563	-0.058	0.134
-285.559	19.355	-0.165	0.131
-284.545	241.261	0.091	0.149
-283.530	30.884	0.114	0.097
-282.516	265.820	0.112	0.193
-281.501	-20.522	0.257	0.156
-280.486	-81.121	-0.395	0.129
-279.472	-147.917	-0.098	0.008
-278.457	14.458	0.229	-0.177
-277.443	0.298	0.255	-0.179
-276.428	423.309	0.098	0.208
-275.413	-200.000	0.018	-0.156
-274.399	-200.000	0.026	-0.203
-273.384	247.079	0.122	-0.203
-272.370	-73.013	0.148	0.054
-271.355	6.239	-0.311	-0.227
-270.340	-200.000	0.016	-0.086
-269.326	-200.000	-0.024	0.108
-268.311	800.000	0.057	0.244
-267.297	-55.978	0.298	-0.131
-266.282	155.429	-0.182	-0.247
-265.267	-27.143	-0.149	-0.086
-264.253	-86.436	-0.162	0.049
-263.238	210.304	0.106	-0.164
-262.224	151.663	-0.155	-0.208
-261.209	-23.817	0.483	-0.285
-260.195	81.839	0.044	-0.046
-259.180	607.314	-0.092	-0.227
-258.165	30.868	0.245	0.207
-257.151	800.000	-0.057	0.229
-256.136	540.277	0.063	-0.148
-255.122	105.390	-0.065	-0.076
-254.107	226.923	0.057	-0.091
-253.092	-156.156	-0.213	0.013
-252.078	56.519	-0.101	-0.097
-251.063	-200.000	-0.044	-0.283
-250.049	-44.725	-0.063	0.031
-249.034	-115.788	0.270	0.050
-248.019	-200.000	-0.007	0.257
-247.005	-67.847	-0.309	-0.119
-245.990	59.683	-0.168	0.163
-244.976	800.000	-0.059	0.192
-243.961	22.858	-0.235	-0.190
-242.946	-200.000	0.008	-0.043
-241.932	-171.724	-0.088	-0.003
-240.917	56.136	0.052	0.050
-239.903	476.352	-0.062	0.138
-238.888	-58.859	-0.147	-0.063
-237.873	-200.000	0.022	0.244
-236.859	44.080	0.182	-0.165
-235.844	-31.096	-0.213	-0.118
-234.830	-126.166	-0.315	0.046
-233.815	-61.693	0.160	-0.066
-232.800	-200.000	-0.057	0.250
-231.786	-200.000	0.023	0.101
-230.771	-43.738	0.041	0.020
-229.757	-9.522	0.364	-0.239
-228.742	452.784	-0.073	-0.159
-227.727	160.138	-0.071	0.098
-226.713	800.000	-0.100	-0.305
-225.698	512.296	-0.053	-0.121
-224.684	-26.613	0.241	0.139
-223.669	-200.000	0.009	-0.085
-222.655	-200.000	-0.013	-0.161
-221.640	-121.688	-0.217	-0.035
-220.625	48.293	-0.206	-0.190
-219.611	800.000	-0.008	-0.031
-218.596	94.867	0.171	0.191
-217.582	-50.025	0.190	0.089
-216.567	800.000	0.075	0.249
-215.552	-129.210	-0.041	-0.006
-214.538	3.806	0.163	-0.117
-213.523	-10.702	0.328	-0.213
-212.509	-45.560	0.141	-0.069
-211.494	-138.888	0.171	-0.018
-210.479	163.330	0.178	0.247
-209.465	-200.000	-0.034	-0.209
-208.450	427.773	0.150	0.318
-207.436	105.441	-0.250	-0.290
-206.421	207.102	-0.037	-0.057
-205.406	-145.538	0.070	0.006
-204.392	-117.315	0.592	-0.106
-203.377	193.824	-0.169	0.252
-202.363	-200.000	0.029	0.291
-201.348	28.707	0.154	0.128
-200.333	-200.000	-0.005	-0.067
-199.319	-55.824	-0.042	-0.018
-198.304	-7.366	-0.187	-0.124
-197.290	-129.223	0.451	0.062
-196.275	800.000	-0.050	-0.192
-195.260	-92.401	-0.139	-0.039
-194.246	-91.321	0.359	0.101
-193.231	248.069	0.130	0.216
-192.217	573.924	-0.041	-0.098
-191.202	1.421	0.206	-0.146
-190.187	-71.637	0.272	-0.100
-189.173	-30.198	0.282	-0.158
-188.158	-78.406	-0.269	0.091
-187.144	-200.000	0.023	0.111
-186.129	382.561	-0.005	-0.009
-185.114	157.510	-0.241	0.328
-184.100	-200.000	-0.026	0.318
-183.085	16.674	0.128	0.100
-182.071	-73.460	0.197	-0.071
-181.056	-200.000	-0.072	0.392
-180.042	-32.177	0.250	-0.137
-179.027	-133.986	0.223	0.027
-178.012	-180.277	0.231	0.005
-176.998	800.000	-0.085	-0.363
-175.983	800.000	-0.030	0.101
-174.969	-88.754	0.218	0.064
-173.954	800.000	-0.012	-0.050
-172.939	-28.840	0.239	-0.135
-171.925	-76.091	-0.309	-0.107
-170.910	-200.000	0.014	-0.278
-169.896	202.292	-0.138	-0.210
-168.881	800.000	0.029	-0.092
-167.866	-43.474	-0.144	-0.072
-166.852	-44.204	-0.111	-0.055
-165.837	-85.871	0.251	0.076
-164.823	-200.000	-0.006	-0.155
-163.808	385.010	-0.083	-0.168
-162.793	27.152	0.136	0.112
-161.779	-110.580	-0.260	0.053
-160.764	160.588	0.098	0.135
-159.750	-81.816	0.314	-0.101
-158.735	-200.000	0.005	-0.222
-157.720	800.000	-0.069	-0.198
-156.706	-169.302	-0.099	-0.004
-155.691	260.837	0.097	-0.165
-154.677	366.325	0.099	-0.197
-153.662	-200.000	-0.014	-0.202
-152.647	-80.443	0.128	0.042
-151.633	145.946	0.035	0.046
-150.618	-127.891	0.038	-0.005
-149.604	-200.000	0.002	-0.062
-148.589	217.928	0.079	-0.124
-147.574	136.961	-0.137	0.175
-146.560	-97.607	-0.176	0.045
-145.545	-200.000	0.008	0.159
-144.531	-146.581	-0.160	0.014
-143.516	800.000	0.049	-0.152
-142.502	-200.000	-0.063	0.305
-141.487	-17.343	0.122	-0.076
-140.472	9.041	-0.293	0.217
-139.458	-21.281	-0.104	-0.062
-138.443	-142.630	0.157	0.015
-137.429	-71.928	-0.188	0.069
-136.414	-110.092	-0.575	-0.118
-135.399	40.290	-0.099	0.088
-134.385	-7.333	0.173	0.115
-133.370	26.053	-0.196	-0.160
-132.356	0.516	-0.128	-0.089
-131.341	800.000	0.054	0.159
-130.326	-54.083	0.364	0.162
-129.312	-200.000	0.030	0.160
-128.297	265.211	0.239	0.408
-127.283	53.836	0.139	0.131
-126.268	-200.000	-0.050	0.296
-125.253	-60.743	-0.118	-0.049
-124.239	-77.310	0.289	-0.098
-123.224	202.818	-0.123	-0.186
-122.210	10.802	0.184	-0.138
-121.195	-200.000	-0.005	-0.022
-120.180	800.000	-0.066	0.201
-119.166	-200.000	-0.004	0.080
-118.151	86.489	-0.083	0.090
-117.137	700.604	0.102	0.264
-116.122	84.827	-0.155	0.167
-115.107	-51.580	0.276	-0.126
-114.093	203.104	-0.075	0.113
-113.078	34.630	0.212	0.182
-112.064	-141.395	0.167	-0.017
-111.049	-90.631	0.228	-0.065
-110.034	372.519	-0.037	0.073
-109.020	-40.186	0.158	0.081
-108.005	800.000	-0.072	0.264
-106.991	24.596	0.164	-0.133
-105.976	153.420	0.226	0.303
-104.962	-95.666	0.261	-0.069
-103.947	-161.002	0.299	0.015
-102.932	-48.921	0.251	-0.118
-101.918	-200.000	0.012	0.208
-100.903	50.987	-0.078	-0.073
-99.889	309.767	-0.097	0.178
-98.874	-200.000	-0.025	0.264
-97.859	275.838	0.193	-0.335
-96.845	73.944	-0.143	-0.147
-95.830	-120.943	0.324	0.053
-94.816	-41.498	-0.185	0.093
-93.801	-131.654	-0.097	-0.012
-92.786	-75.896	0.194	-0.067
-91.772	-200.000	0.023	0.168
-90.757	-70.483	-0.245	0.091
-89.743	-200.000	-0.014	0.307
-88.728	-113.969	-0.201	0.038
-87.713	-154.223	0.141	0.009
-86.699	-46.644	-0.109	-0.052
-85.684	9.792	0.246	0.183
-84.670	800.000	-0.043	0.155
-83.655	800.000	-0.056	0.210
-82.640	-85.447	0.322	0.098
-81.626	-152.221	-0.349	0.025
-80.611	71.683	-0.290	0.295
-79.597	-200.000	-0.038	-0.164
-78.582	71.476	-0.141	-0.143
-77.567	46.820	-0.114	0.104
-76.553	-168.051	0.252	-0.010
-75.538	123.807	-0.111	0.136
-74.524	800.000	0.095	0.285
-73.509	-200.000	0.003	-0.233
-72.494	-200.000	-0.007	0.128
-71.480	800.000	0.068	0.284
-70.465	-6.047	-0.318	0.213
-69.451	68.020	0.186	0.187
-68.436	-18.486	-0.213	0.130
-67.422	-121.423	0.108	0.018
-66.407	612.253	-0.066	0.162
-65.392	132.174	-0.038	-0.048
-64.378	-200.000	0.034	-0.305
-63.363	-200.000	-0.038	0.352
-62.349	36.067	-0.280	0.241
-61.334	292.237	-0.663	-1.181
-60.319	11.940	0.485	0.365
-59.305	-200.000	-0.258	-1.189
-58.290	614.283	0.520	1.273
-57.276	423.967	0.853	1.794
-56.261	-200.000	116.637	663.462
-55.246	529.940	1533.712	3542.208
-54.232	174.599	2717.532	3843.480
-53.217	101.677	2303.206	2625.599
-52.203	36.331	1907.273	1643.961
-51.188	30.098	1696.850	1415.116
-50.173	27.614	1655.027	1361.658
-49.159	49.643	1712.181	1576.501
-48.144	47.834	1725.571	1575.062
-47.130	29.678	1682.887	1400.071
-46.115	26.937	1668.736	1367.616
-45.100	26.889	1662.972	1362.483
-44.086	26.845	1661.048	1360.521
-43.071	26.833	1658.077	1357.941
-42.057	26.780	1656.471	1356.174
-41.042	26.799	1654.173	1354.383
-40.027	26.881	1651.931	1353.110
-39.013	26.839	1649.912	1351.089
-37.998	26.797	1648.727	1349.750
-36.984	26.816	1647.286	1348.659
-35.969	26.898	1645.815	1348.006
-34.954	26.958	1644.035	1346.946
-33.940	26.877	1642.574	1345.088
-32.925	26.926	1640.778	1343.928
-31.911	26.938	1638.850	1342.385
-30.896	26.960	1636.859	1340.868
-29.881	26.934	1634.998	1339.094
-28.867	26.938	1633.515	1337.859
-27.852	26.975	1631.871	1336.728
-26.838	26.901	1630.456	1334.975
-25.823	26.977	1629.358	1334.584
-24.809	26.978	1628.342	1333.706
-23.794	26.979	1626.706	1332.317
-22.779	26.886	1625.280	1330.416
-21.765	26.941	1623.581	1329.372
-20.750	26.955	1622.234	1328.324
-19.736	26.889	1620.678	1326.511
-18.721	26.954	1619.412	1325.897
-17.706	26.941	1617.736	1324.377
-16.692	26.909	1616.033	1322.700
-15.677	27.010	1614.571	1322.188
-14.663	26.990	1613.516	1321.119
-13.648	27.031	1611.698	1319.877
-12.633	26.964	1610.662	1318.492
-11.619	26.941	1609.184	1317.066
-10.604	27.016	1607.457	1316.143
-9.590	27.005	1606.235	1315.008
-8.575	27.012	1605.085	1314.067
-7.560	27.076	1603.354	1313.057
-6.546	26.871	1603.005	1311.241
-5.531	27.021	1601.632	1311.148
-4.517	26.989	1600.424	1309.877
-3.502	27.004	1598.877	1308.665
-2.487	27.067	1597.276	1307.755
-1.473	26.670	1586.057	1295.684
-0.458	23.935	1566.399	1260.219
0.556	21.487	1568.413	1230.009
1.571	19.192	1592.617	1232.473
2.586	18.787	1604.089	1238.318
3.600	16.524	1549.112	1180.001
4.615	9.741	1441.216	1053.544
5.629	4.308	1381.921	975.999
6.644	3.410	1375.261	965.588
7.659	3.440	1373.959	964.779
8.673	3.360	1372.922	963.460
9.688	3.380	1371.378	962.420
10.702	3.419	1367.629	959.943
11.717	6.034	1372.761	979.793
12.731	13.140	1385.476	1033.376
13.746	19.108	1395.248	1078.064
14.761	20.346	1396.357	1086.578
15.775	19.677	1394.546	1080.893
16.790	18.683	1392.136	1072.716
17.804	17.928	1389.726	1066.055
18.819	17.483	1388.470	1062.219
19.834	17.360	1387.468	1060.590
20.848	17.197	1386.486	1058.733
21.863	17.015	1384.719	1056.157
22.877	16.953	1383.406	1054.672
23.892	16.862	1382.459	1053.293
24.907	16.766	1382.081	1052.317
25.921	16.838	1380.680	1051.605
26.936	16.850	1380.259	1051.262
27.950	16.935	1379.414	1051.055
28.965	17.006	1378.301	1050.551
29.980	17.099	1377.285	1050.259
30.994	17.094	1376.070	1049.208
32.009	17.152	1374.802	1048.510
33.023	17.236	1373.936	1048.276
34.038	17.115	1372.559	1046.388
35.053	17.121	1371.113	1045.230
36.067	17.143	1369.899	1044.346
37.082	17.001	1369.426	1043.019
38.096	17.181	1367.903	1042.875
39.111	17.119	1367.896	1042.392
40.126	17.056	1366.733	1041.028
41.140	16.812	1365.444	1038.461
42.155	16.752	1364.805	1037.514
43.169	16.715	1364.737	1037.146
44.184	16.733	1364.446	1036.942
45.199	16.722	1364.042	1036.474
46.213	16.827	1363.347	1036.495
47.228	16.892	1362.737	1036.339
48.242	16.960	1361.264	1035.540
49.257	17.019	1359.910	1034.781
50.271	16.995	1358.447	1033.429
51.286	17.054	1356.935	1032.545
52.301	16.856	1356.532	1030.947
53.315	16.833	1354.942	1029.507
54.330	16.727	1354.025	1028.077
55.344	16.732	1352.588	1026.921
56.359	16.774	1351.671	1026.391
57.374	16.852	1350.478	1025.864
58.388	16.753	1350.002	1024.814
59.403	16.684	1349.719	1024.093
60.417	16.576	1349.392	1023.099
61.432	16.660	1347.835	1022.337
62.447	16.533	1346.840	1020.722
63.461	16.528	1345.448	1019.552
64.476	16.477	1344.896	1018.730
65.490	16.508	1343.594	1017.845
66.505	16.552	1341.639	1016.535
67.520	16.563	1340.692	1015.796
68.534	16.669	1339.210	1015.218
69.549	16.579	1338.403	1013.978
70.563	16.566	1337.184	1012.885
71.578	16.498	1336.067	1011.543
72.593	16.450	1335.060	1010.404
73.607	16.461	1334.438	1009.909
74.622	16.370	1333.951	1008.907
75.636	16.448	1333.336	1008.822
76.651	16.475	1332.463	1008.231
77.666	16.541	1331.739	1007.985
78.680	16.569	1331.456	1007.851
79.695	16.494	1331.357	1007.240
80.709	16.590	1330.463	1007.046
81.724	16.733	1329.271	1006.903
82.739	16.849	1328.515	1006.930
83.753	16.919	1327.710	1006.650
84.768	16.951	1326.711	1005.995
85.782	17.037	1325.466	1005.466
86.797	17.046	1324.419	1004.639
87.812	16.895	1323.355	1002.849
88.826	16.914	1322.189	1001.989
89.841	16.966	1321.068	1001.356
90.855	17.060	1320.002	1001.018
91.870	17.150	1318.928	1000.646
92.884	17.124	1318.187	999.840
93.899	17.049	1317.446	998.746
94.914	17.115	1316.786	998.548
95.928	17.151	1315.895	997.995
96.943	17.073	1315.353	997.035
97.957	17.077	1313.762	995.764
98.972	17.055	1313.434	995.299
99.987	17.043	1312.237	994.238
101.001	17.084	1311.178	993.585
102.016	17.050	1310.468	992.760
103.030	17.124	1308.811	991.851
104.045	17.022	1308.360	990.827
105.060	16.981	1307.007	989.473
106.074	16.702	1305.481	986.606
107.089	16.647	1303.852	984.964
108.103	16.584	1302.618	983.581
109.118	16.584	1301.614	982.738
110.133	16.592	1300.210	981.636
111.147	16.653	1298.674	980.744
112.162	16.714	1297.412	980.054
113.176	16.700	1296.723	979.368
114.191	16.718	1295.527	978.483
115.206	16.729	1294.309	977.539
116.220	16.761	1292.653	976.384
117.235	16.834	1291.694	975.997
118.249	16.654	1290.834	974.226
119.264	16.664	1289.730	973.363
120.279	16.576	1288.727	972.013
121.293	16.627	1287.325	971.163
122.308	16.577	1286.150	969.901
123.322	16.588	1285.327	969.262
124.337	16.512	1284.360	968.009
125.352	16.454	1282.941	966.524
126.366	16.423	1282.072	965.608
127.381	16.571	1280.810	965.415
128.395	16.510	1279.888	964.287
129.410	16.517	1278.994	963.568
130.424	16.536	1278.221	963.008
131.439	16.736	1276.843	963.021
132.454	16.708	1276.192	962.283
133.468	16.718	1275.136	961.459
134.483	16.738	1275.027	961.410
135.497	16.694	1273.751	960.109
136.512	16.760	1272.929	959.781
137.527	16.861	1270.803	958.664
138.541	16.753	1269.728	957.160
139.556	16.908	1268.000	956.647
140.570	16.796	1267.762	955.750
141.585	16.965	1266.272	955.492
142.600	17.023	1265.102	954.851
143.614	17.117	1264.387	954.759
144.629	17.228	1263.272	954.453
145.643	17.135	1262.067	952.935
146.658	16.972	1260.835	951.007
147.673	16.855	1259.793	949.483
148.687	16.787	1258.796	948.268
149.702	16.805	1256.633	946.653
150.716	16.743	1255.925	945.692
151.731	16.807	1254.743	945.076
152.746	16.760	1253.556	943.833
153.760	16.941	1252.428	943.908
154.775	17.046	1251.282	943.546
155.789	17.066	1250.175	942.741
156.804	16.987	1249.275	941.537
157.819	17.023	1248.401	940.999
158.833	17.191	1247.240	940.968
159.848	17.165	1246.653	940.301
160.862	17.155	1245.236	939.090
161.877	16.994	1244.088	937.254
162.892	16.861	1243.146	935.728
163.906	16.910	1242.158	935.173
164.921	16.912	1241.397	934.526
165.935	16.998	1240.557	934.283
166.950	17.039	1239.860	933.903
167.964	16.989	1238.885	932.810
168.979	17.048	1238.042	932.416
169.994	16.978	1237.116	931.251
171.008	16.950	1236.741	930.733
172.023	17.175	1235.886	931.243
173.037	17.200	1235.643	931.112
174.052	17.172	1234.282	929.855
175.067	17.049	1232.900	928.058
176.081	16.946	1232.155	926.849
177.096	16.825	1231.055	925.280
178.110	17.020	1229.813	925.331
179.125	16.922	1228.902	924.026
180.140	16.989	1227.484	923.246
181.154	17.052	1226.110	922.473
182.169	17.200	1225.024	922.376
183.183	17.304	1224.041	922.117
184.198	17.242	1223.020	920.933
185.213	17.261	1221.553	919.852
186.227	17.317	1220.880	919.565
187.242	17.316	1219.737	918.617
188.256	17.349	1219.053	918.200
189.271	17.517	1217.748	918.040
190.286	17.225	1216.744	915.628
191.300	17.054	1215.665	913.814
192.315	16.904	1215.101	912.504
193.329	16.855	1214.569	911.760
194.344	16.935	1214.002	911.685
195.359	17.047	1213.498	911.825
196.373	17.241	1212.953	912.379
197.388	17.365	1212.621	912.710
198.402	17.426	1212.316	912.729
199.417	17.586	1211.460	912.861
200.432	17.714	1210.745	912.927
201.446	17.646	1210.240	912.099
202.461	17.743	1208.619	911.316
203.475	17.713	1208.193	910.754
204.490	17.649	1206.395	908.976
205.504	17.518	1205.669	907.654
206.519	17.461	1204.398	906.311
207.534	17.387	1203.272	904.990
208.548	17.497	1201.982	904.523
209.563	17.445	1201.576	903.865
210.577	17.581	1200.405	903.621
211.592	17.554	1199.791	902.936
212.607	17.689	1199.031	903.002
213.621	17.719	1197.883	902.219
214.636	17.720	1197.083	901.539
215.650	17.573	1196.659	900.361
216.665	17.732	1195.531	900.274
217.680	17.771	1194.892	899.919
218.694	17.837	1193.836	899.390
219.709	17.903	1192.867	898.931
220.723	17.690	1192.497	897.449
221.738	17.786	1191.747	897.311
222.753	17.834	1190.763	896.746
223.767	17.774	1189.847	895.661
224.782	17.840	1189.583	895.730
225.796	17.877	1189.118	895.491
226.811	17.922	1188.133	894.905
227.826	17.857	1187.147	893.744
228.840	17.853	1186.297	893.006
229.855	17.710	1185.901	891.878
230.869	17.755	1185.382	891.648
231.884	17.680	1183.893	890.056
232.899	17.792	1183.065	889.937
233.913	17.741	1182.410	889.102
234.928	17.690	1181.881	888.358
235.942	17.609	1180.889	887.112
236.957	17.646	1179.970	886.538
237.972	17.730	1179.372	886.446
238.986	17.666	1178.568	885.433
240.001	17.659	1177.901	884.813
241.015	17.777	1177.093	884.741
242.030	17.755	1176.124	883.823
243.045	17.960	1175.307	884.189
244.059	17.806	1175.025	883.102
245.074	17.819	1174.108	882.402
246.088	17.924	1173.084	882.098
247.103	17.968	1172.603	881.886
248.117	18.077	1171.987	881.907
249.132	18.222	1171.233	882.010
250.147	18.308	1170.715	881.985
251.161	18.424	1169.962	881.933
252.176	18.420	1169.326	881.359
253.190	18.512	1168.836	881.382
254.205	18.587	1168.200	881.208
255.220	18.654	1167.436	880.898
256.234	18.545	1167.037	879.962
257.249	18.635	1166.105	879.641
258.263	18.489	1165.407	878.288
259.278	18.548	1164.861	878.104
260.293	18.563	1164.682	877.965
261.307	18.627	1163.690	877.468
262.322	18.593	1163.187	876.840
263.336	18.679	1162.312	876.542
264.351	18.781	1161.975	876.728
265.366	18.752	1160.849	875.656
266.380	18.654	1160.721	874.983
267.395	18.730	1159.242	874.175
268.409	18.671	1158.326	873.107
269.424	18.569	1158.176	872.397
270.439	18.515	1157.724	871.703
271.453	18.590	1156.541	871.119
272.468	18.503	1155.650	869.928
273.482	18.479	1155.021	869.256
274.497	18.457	1154.633	868.775
275.512	18.573	1153.648	868.545
276.526	18.479	1152.821	867.369
277.541	18.616	1152.250	867.555
278.555	18.626	1151.555	867.008
279.570	18.644	1151.072	866.657
280.585	18.756	1150.437	866.670
281.599	18.835	1149.153	866.025
282.614	18.682	1147.874	864.215
283.628	18.657	1147.022	863.371
284.643	18.694	1145.943	862.666
285.657	18.721	1145.115	862.102
286.672	18.612	1144.200	860.789
287.687	18.707	1143.518	860.677
288.701	18.741	1142.713	860.167
289.716	18.747	1141.709	859.362
290.730	18.746	1141.471	859.102
291.745	18.748	1140.557	858.351
292.760	18.742	1139.873	857.726
293.774	18.886	1139.315	857.951
294.789	18.989	1138.994	858.149
295.803	19.001	1138.230	857.559
296.818	18.890	1136.953	855.967
297.833	18.706	1136.573	854.689
298.847	18.858	1135.570	854.613
299.862	18.868	1134.459	853.750
300.876	18.921	1134.016	853.607
301.891	18.939	1133.777	853.438
302.906	18.976	1132.929	852.911
303.920	19.149	1131.887	852.909
304.935	19.171	1131.475	852.629
305.949	19.350	1130.940	853.036
306.964	19.212	1130.222	851.737
307.979	19.197	1129.385	850.955
308.993	19.096	1128.721	849.882
310.008	19.218	1127.793	849.709
311.022	19.161	1127.200	848.906
312.037	19.181	1126.444	848.360
313.052	19.098	1125.643	847.276
314.066	19.128	1124.071	846.164
315.081	18.946	1123.364	844.666
316.095	18.935	1123.009	844.266
317.110	18.853	1122.322	843.274
318.125	18.893	1121.613	842.863
319.139	18.863	1121.106	842.259
320.154	18.924	1120.196	841.800
321.168	18.988	1119.645	841.624
322.183	19.054	1118.804	841.241
323.197	19.045	1118.283	840.731
324.212	19.169	1117.716	840.837
325.227	19.073	1117.257	839.950
326.241	19.249	1116.442	840.118
327.256	19.122	1115.578	838.778
328.270	19.111	1114.615	837.922
329.285	19.120	1113.833	837.307
330.300	19.061	1112.830	836.191
331.314	18.965	1112.106	835.105
332.329	19.097	1110.809	834.701
333.343	19.165	1109.960	834.316
334.358	19.353	1109.081	834.491
335.373	19.373	1108.527	834.101
336.387	19.299	1107.818	833.134
337.402	19.262	1107.513	832.653
338.416	19.353	1106.442	832.212
339.431	19.418	1105.868	832.020
340.446	19.654	1105.251	832.621
341.460	19.733	1104.212	832.143
342.475	19.608	1103.912	831.243
343.489	19.688	1102.963	830.838
344.504	19.792	1101.854	830.429
345.519	19.855	1101.352	830.279
346.533	19.827	1100.578	829.490
347.548	19.848	1099.712	828.862
348.562	19.810	1098.793	827.917
349.577	19.608	1098.116	826.367
350.592	19.518	1097.192	825.167
351.606	19.475	1096.735	824.543
352.621	19.476	1096.025	823.943
353.635	19.435	1095.206	823.059
354.650	19.508	1094.115	822.515
355.665	19.695	1093.829	823.119
356.679	19.606	1093.372	822.277
357.694	19.617	1092.752	821.791
358.708	19.743	1091.772	821.580
359.723	19.538	1091.747	820.512
360.738	19.765	1091.003	820.959
361.752	19.678	1090.346	819.980
362.767	19.628	1089.892	819.329
363.781	19.744	1089.227	819.304
364.796	19.988	1088.607	819.921
365.810	20.084	1087.603	819.548
366.825	20.001	1087.266	818.829
367.840	20.104	1087.169	819.169
368.854	20.195	1086.533	819.046
369.869	20.071	1085.736	817.791
370.883	20.097	1084.614	816.995
371.898	19.940	1083.948	815.683
372.913	20.096	1082.974	815.611
373.927	20.084	1082.980	815.487
374.942	20.011	1082.676	814.843
375.956	20.037	1082.089	814.448
376.971	20.114	1081.129	814.015
377.986	20.266	1080.607	814.267
379.000	20.365	1080.066	814.250
380.015	20.315	1079.684	813.656
381.029	20.377	1079.025	813.379
382.044	20.299	1078.370	812.447
383.059	20.317	1077.654	811.921
384.073	20.270	1076.764	810.957
385.088	20.253	1075.874	810.136
386.102	20.377	1074.889	809.901
387.117	20.407	1073.711	809.083
388.132	20.085	1073.211	807.133
389.146	20.217	1071.781	806.601
390.161	20.195	1071.360	806.109
391.175	20.101	1071.046	805.363
392.190	20.137	1070.576	805.107
393.205	20.356	1069.453	805.210
394.219	20.408	1068.236	804.463
395.234	20.253	1067.559	803.164
396.248	20.306	1066.787	802.756
397.263	20.298	1065.533	801.703
398.278	20.197	1064.923	800.708
399.292	20.117	1064.433	799.901
400.307	20.065	1063.664	799.009
401.321	20.099	1062.787	798.437
402.336	20.058	1062.400	797.889
403.350	20.080	1061.390	797.162
404.365	20.085	1061.113	796.906
405.380	20.318	1060.172	797.197
406.394	20.205	1059.302	795.955
407.409	20.392	1059.105	796.596
408.423	20.503	1057.983	796.187
409.438	20.494	1057.494	795.707
410.453	20.722	1056.314	795.795
411.467	20.739	1055.823	795.431
412.482	20.705	1055.248	794.772
413.496	20.684	1054.889	794.334
414.511	20.744	1054.200	794.021
415.526	20.850	1053.414	793.841
416.540	20.833	1053.627	793.851
417.555	20.818	1053.332	793.494
418.569	20.780	1052.850	792.888
419.584	20.806	1051.869	792.197
420.599	20.656	1051.637	791.269
421.613	155.258	1405.096	1797.148
422.628	142.399	1456.573	1797.232
