DTS Sentinel unit serial number:	SN413079Multiplexer serial number:	ORYXHardware model number:	OX4-SRSoftware version number:	ORYX F/W v4.00 Oryx Data Collector v3.7.2.0data status	okinstallation	princeton_trtdifferential loss correction	single-endedforward channel	channel 2reverse channel	N/Adate	2019/09/10time	19:29:11forward acquisition time	60.00reverse acquisition time	0.00gamma	496.2192k internal	0.2325k external	0.2325temperature offset calibration	0.9943default loss term (dB/km)	0.3790temperature slope calibration	1.0000multiplexer offset coefficient	1.0000multiplexer slope coefficient	1.0000fibre end	0.00T internal ref (°C)	33.50T ext. ref 1 (°C)	-0.39T ext. ref 2 (°C)	26.11length (m)	temperature (°C)	Stokes	anti-Stokes-747.200	-143.218	-0.059	-0.006
-746.185	245.181	-0.211	0.359
-745.171	-0.063	-0.274	0.197
-744.156	-200.000	-0.004	-0.056
-743.142	-112.053	0.302	-0.061
-742.127	-200.000	0.018	-0.229
-741.112	-76.937	0.266	-0.094
-740.098	-75.396	-0.231	0.083
-739.083	-200.000	-0.031	0.170
-738.069	-115.233	0.377	0.072
-737.054	50.028	-0.041	-0.039
-736.039	42.880	0.142	-0.130
-735.025	150.671	-0.009	-0.012
-734.010	644.580	0.079	0.204
-732.996	145.923	-0.110	-0.148
-731.981	-200.000	-0.045	0.310
-730.966	-6.222	0.227	-0.156
-729.952	-51.467	0.128	0.061
-728.937	-22.893	-0.070	-0.042
-727.923	-54.233	0.078	-0.036
-726.908	154.462	0.120	-0.166
-725.894	403.711	-0.102	0.216
-724.879	569.300	0.045	-0.111
-723.864	800.000	-0.114	-0.388
-722.850	-104.736	-0.284	-0.066
-721.835	-52.999	0.178	0.082
-720.821	-46.118	0.189	-0.094
-719.806	-200.000	-0.017	-0.250
-718.791	-200.000	0.007	-0.041
-717.777	366.721	-0.092	0.188
-716.762	166.684	0.132	-0.189
-715.748	800.000	-0.044	0.154
-714.733	-26.552	0.235	0.138
-713.718	21.502	-0.188	-0.154
-712.704	-200.000	0.010	-0.064
-711.689	-143.901	-0.323	0.031
-710.675	-14.331	0.092	0.060
-709.660	-200.000	0.019	-0.210
-708.645	-7.468	0.215	-0.147
-707.631	120.093	0.074	0.092
-706.616	190.784	0.150	-0.227
-705.602	-52.194	0.422	-0.197
-704.587	635.965	0.069	-0.176
-703.572	328.514	0.135	-0.261
-702.558	-119.398	0.389	-0.068
-701.543	27.376	-0.194	0.165
-700.529	-82.376	-0.165	0.054
-699.514	327.807	0.066	0.128
-698.499	-200.000	-0.048	-0.324
-697.485	-113.192	0.191	-0.038
-696.470	-46.804	-0.473	-0.233
-695.456	76.281	-0.169	-0.180
-694.441	40.408	0.177	-0.160
-693.426	69.497	-0.104	-0.108
-692.412	-200.000	0.022	-0.312
-691.397	774.787	-0.125	0.343
-690.383	-12.341	0.146	-0.096
-689.368	48.941	-0.179	-0.169
-688.354	-150.335	0.045	0.004
-687.339	-117.326	-0.160	0.029
-686.324	135.713	-0.132	-0.173
-685.310	-200.000	0.088	0.436
-684.295	-42.749	-0.073	0.038
-683.281	189.625	0.093	0.141
-682.266	-71.035	-0.185	-0.070
-681.251	-200.000	-0.049	-0.393
-680.237	69.439	0.206	0.214
-679.222	800.000	-0.036	-0.141
-678.208	143.688	0.263	-0.353
-677.193	-54.023	-0.136	0.062
-676.178	-116.511	-0.258	0.048
-675.164	800.000	-0.123	0.386
-674.149	268.755	-0.034	0.061
-673.135	-120.266	0.223	0.038
-672.120	-113.778	0.241	-0.047
-671.105	800.000	-0.102	0.378
-670.091	640.465	-0.059	0.151
-669.076	-77.595	-0.259	-0.090
-668.062	-142.782	-0.286	-0.028
-667.047	38.123	0.030	0.027
-666.032	228.244	-0.220	0.361
-665.018	-84.946	0.115	-0.036
-664.003	-21.383	-0.176	-0.108
-662.989	76.871	-0.258	0.276
-661.974	-200.000	-0.004	-0.295
-660.959	37.950	-0.116	-0.104
-659.945	-200.000	-0.007	-0.032
-658.930	-200.000	0.052	0.325
-657.916	256.310	0.039	0.067
-656.901	78.404	0.148	-0.159
-655.886	-177.820	0.296	-0.007
-654.872	-200.000	0.009	-0.204
-653.857	147.112	-0.138	-0.187
-652.843	-175.618	-0.207	-0.006
-651.828	-98.351	0.244	-0.063
-650.814	800.000	-0.051	-0.149
-649.799	-200.000	0.014	-0.368
-648.784	740.358	0.117	0.315
-647.770	-45.190	-0.322	-0.161
-646.755	-200.000	-0.076	-0.479
-645.741	151.259	-0.170	-0.232
-644.726	259.701	0.054	0.093
-643.711	139.469	-0.059	0.078
-642.697	-9.499	0.040	0.027
-641.682	-122.854	0.380	0.062
-640.668	-200.000	-0.065	-0.345
-639.653	155.690	-0.212	-0.294
-638.638	-200.000	-0.006	0.286
-637.624	-134.467	0.291	0.036
-636.609	-28.043	0.125	-0.073
-635.595	70.073	-0.083	-0.086
-634.580	-9.206	-0.085	-0.057
-633.565	11.374	0.179	0.138
-632.551	32.685	0.074	-0.064
-631.536	-200.000	0.008	-0.036
-630.522	317.258	-0.162	0.308
-629.507	214.528	-0.186	-0.296
-628.492	-23.832	-0.148	0.089
-627.478	-21.526	-0.082	0.050
-626.463	431.187	-0.092	0.200
-625.449	153.231	0.033	0.045
-624.434	194.089	0.082	0.125
-623.419	305.066	-0.127	-0.236
-622.405	-36.822	0.173	0.093
-621.390	161.090	0.133	0.186
-620.376	-132.667	0.119	-0.015
-619.361	46.056	-0.090	0.084
-618.346	512.820	-0.087	-0.203
-617.332	-200.000	0.018	0.232
-616.317	405.569	-0.106	-0.224
-615.303	-146.689	-0.250	-0.022
-614.288	111.226	0.229	-0.277
-613.273	-140.363	-0.078	-0.008
-612.259	99.821	-0.183	-0.213
-611.244	-55.949	-0.073	0.033
-610.230	-125.256	0.142	0.022
-609.215	-7.067	-0.427	-0.291
-608.201	-55.106	-0.344	0.155
-607.186	164.745	0.064	0.090
-606.171	228.072	-0.043	-0.070
-605.157	-99.142	0.177	-0.045
-604.142	526.974	-0.126	-0.298
-603.128	-200.000	0.006	-0.076
-602.113	800.000	0.017	-0.056
-601.098	-30.746	0.174	0.099
-600.084	800.000	-0.091	0.330
-599.069	90.506	-0.142	-0.159
-598.055	-200.000	0.056	-0.351
-597.040	-158.231	0.017	0.001
-596.025	-200.000	-0.054	-0.253
-595.011	70.702	0.296	0.307
-593.996	190.655	0.244	0.368
-592.982	-68.881	0.306	-0.118
-591.967	163.851	0.116	0.164
-590.952	-146.552	0.092	-0.008
-589.938	800.000	-0.012	0.050
-588.923	-108.811	0.346	0.074
-587.909	410.330	-0.060	0.128
-586.894	-13.677	-0.102	-0.066
-585.879	-97.662	0.156	-0.040
-584.865	216.057	0.172	0.274
-583.850	496.785	-0.151	-0.348
-582.836	78.296	-0.165	-0.177
-581.821	202.850	-0.181	-0.281
-580.806	23.394	-0.312	-0.257
-579.792	-88.349	-0.247	-0.074
-578.777	177.524	-0.150	-0.218
-577.763	-113.038	0.204	-0.040
-576.748	13.437	-0.131	-0.102
-575.733	-59.327	0.033	0.014
-574.719	784.507	0.041	0.114
-573.704	368.947	0.100	-0.203
-572.690	800.000	-0.053	0.232
-571.675	47.192	-0.128	0.120
-570.661	-200.000	0.010	-0.186
-569.646	-166.569	-0.184	-0.008
-568.631	800.000	0.044	-0.160
-567.617	151.269	0.032	-0.043
-566.602	-152.878	0.156	0.011
-565.588	33.013	-0.064	-0.056
-564.573	-63.916	-0.541	0.222
-563.558	17.356	-0.176	-0.140
-562.544	-200.000	0.021	0.156
-561.529	-140.231	-0.150	-0.016
-560.515	-84.042	-0.167	-0.053
-559.500	-200.000	0.065	-0.310
-558.485	471.572	-0.149	-0.337
-557.471	-14.625	-0.417	-0.268
-556.456	294.834	-0.097	-0.178
-555.442	85.214	-0.174	-0.191
-554.427	800.000	0.049	-0.155
-553.412	33.165	-0.050	0.043
-552.398	-119.946	-0.164	0.028
-551.383	-63.866	-0.322	0.132
-550.369	32.955	0.134	-0.117
-549.354	800.000	0.024	-0.066
-548.339	-84.043	0.152	-0.048
-547.325	-200.000	-0.006	0.170
-546.310	-2.957	0.018	-0.013
-545.296	-108.697	-0.225	0.048
-544.281	-39.514	0.227	-0.119
-543.266	-101.480	-0.248	-0.060
-542.252	800.000	-0.026	0.111
-541.237	-29.017	-0.136	0.078
-540.223	-93.594	-0.245	0.068
-539.208	800.000	0.015	0.063
-538.193	-157.275	0.258	-0.016
-537.179	-50.686	0.230	0.108
-536.164	-65.855	0.056	-0.022
-535.150	-200.000	0.030	0.347
-534.135	-200.000	0.016	0.219
-533.121	-200.000	0.004	0.078
-532.106	-74.752	0.105	0.038
-531.091	200.699	0.061	0.094
-530.077	383.274	0.158	0.326
-529.062	-113.466	0.058	0.011
-528.048	141.474	-0.174	0.231
-527.033	-200.000	-0.007	-0.086
-526.018	-200.000	0.030	-0.197
-525.004	800.000	0.027	0.109
-523.989	800.000	0.108	-0.392
-522.975	-200.000	0.018	0.113
-521.960	225.850	0.218	0.353
-520.945	209.729	-0.031	0.048
-519.931	-4.071	0.216	-0.150
-518.916	130.655	0.144	0.184
-517.902	-148.788	-0.192	0.016
-516.887	-4.076	-0.174	0.121
-515.872	41.481	0.172	0.155
-514.858	143.630	-0.101	-0.135
-513.843	29.964	-0.239	-0.203
-512.829	-111.255	-0.117	0.024
-511.814	174.970	-0.204	0.295
-510.799	800.000	-0.064	-0.192
-509.785	-58.521	0.185	0.080
-508.770	111.959	0.155	-0.187
-507.756	-112.299	-0.165	-0.033
-506.741	-156.693	0.362	-0.022
-505.726	800.000	-0.080	0.261
-504.712	-121.128	-0.081	-0.014
-503.697	-157.529	-0.035	-0.002
-502.683	193.075	0.141	-0.214
-501.668	-93.457	0.056	-0.016
-500.653	78.929	-0.087	0.093
-499.639	29.335	0.152	0.129
-498.624	276.371	0.074	0.131
-497.610	-200.000	0.007	0.305
-496.595	800.000	0.075	-0.249
-495.581	-113.578	-0.281	0.055
-494.566	209.031	0.123	0.192
-493.551	85.658	0.200	0.219
-492.537	75.179	-0.208	0.219
-491.522	800.000	0.045	-0.140
-490.508	-200.000	0.025	-0.404
-489.493	130.756	0.166	-0.213
-488.478	5.155	0.165	-0.122
-487.464	204.641	0.176	0.272
-486.449	-77.266	-0.152	-0.053
-485.435	800.000	0.085	0.240
-484.420	-42.525	-0.281	0.143
-483.405	-86.334	0.016	0.005
-482.391	-200.000	-0.051	-0.280
-481.376	222.082	0.141	-0.227
-480.362	-69.797	0.284	-0.108
-479.347	216.620	-0.088	-0.139
-478.332	-200.000	-0.016	0.097
-477.318	-32.878	-0.223	0.124
-476.303	800.000	0.043	0.135
-475.289	24.767	0.212	-0.175
-474.274	-42.027	-0.234	0.119
-473.259	-89.304	-0.316	0.093
-472.245	-200.000	0.019	-0.115
-471.230	44.054	-0.034	-0.031
-470.216	-200.000	0.009	-0.160
-469.201	552.278	0.062	-0.149
-468.186	348.642	-0.183	0.359
-467.172	19.729	0.212	-0.170
-466.157	-116.605	-0.278	0.051
-465.143	800.000	-0.139	0.583
-464.128	-90.958	-0.355	0.102
-463.113	59.506	-0.082	0.081
-462.099	-8.111	0.177	-0.119
-461.084	800.000	-0.043	0.138
-460.070	130.491	0.127	0.163
-459.055	60.443	-0.207	0.204
-458.040	50.574	-0.050	0.047
-457.026	-69.008	0.166	0.064
-456.011	169.818	-0.064	0.091
-454.997	-90.829	-0.105	-0.030
-453.982	-124.699	-0.137	0.021
-452.968	-200.000	0.051	0.266
-451.953	1.635	0.111	0.080
-450.938	-200.000	0.072	-0.390
-449.924	-185.169	0.087	0.001
-448.909	-102.922	0.154	-0.036
-447.895	-89.318	-0.048	-0.014
-446.880	84.039	-0.175	-0.191
-445.865	-58.777	-0.151	-0.065
-444.851	-94.919	0.118	-0.032
-443.836	-67.136	0.383	-0.151
-442.822	800.000	-0.048	-0.135
-441.807	-200.000	-0.068	-0.389
-440.792	351.961	0.134	0.264
-439.778	-161.208	0.177	-0.009
-438.763	-200.000	0.006	-0.202
-437.749	39.167	-0.078	-0.070
-436.734	233.744	0.195	0.320
-435.719	-157.398	-0.193	0.012
-434.705	-176.657	-0.257	-0.007
-433.690	-20.038	0.181	-0.111
-432.676	-200.000	-0.011	-0.073
-431.661	800.000	0.051	0.203
-430.646	800.000	0.073	-0.274
-429.632	800.000	0.047	-0.140
-428.617	-74.608	-0.308	-0.111
-427.603	-6.456	-0.129	0.088
-426.588	398.901	-0.024	-0.050
-425.573	426.960	0.092	0.198
-424.559	131.297	-0.234	-0.300
-423.544	-180.498	0.123	0.003
-422.530	-107.723	0.099	0.021
-421.515	-163.246	0.112	-0.005
-420.500	72.761	0.040	-0.042
-419.486	-156.113	0.269	-0.017
-418.471	31.829	-0.131	0.113
-417.457	53.330	0.132	-0.126
-416.442	-113.796	0.097	-0.019
-415.428	784.404	0.046	-0.126
-414.413	113.461	0.140	0.169
-413.398	28.356	0.154	-0.129
-412.384	-34.286	0.064	-0.035
-411.369	-135.241	0.377	-0.045
-410.355	-200.000	0.003	-0.139
-409.340	-9.676	0.244	0.162
-408.325	800.000	0.038	0.108
-407.311	222.593	-0.299	-0.480
-406.296	-200.000	0.112	0.496
-405.282	-200.000	0.004	0.149
-404.267	149.572	-0.145	0.196
-403.252	-43.672	-0.071	-0.036
-402.238	4.803	0.142	0.104
-401.223	-200.000	-0.031	0.159
-400.209	62.080	0.250	-0.249
-399.194	143.914	-0.080	0.106
-398.179	262.352	0.221	-0.381
-397.165	4.274	-0.185	0.135
-396.150	-7.115	-0.529	0.357
-395.136	-200.000	0.015	0.186
-394.121	800.000	-0.068	-0.275
-393.106	-69.984	-0.271	-0.103
-392.092	-200.000	0.066	0.403
-391.077	800.000	0.072	0.262
-390.063	-109.680	-0.193	-0.040
-389.048	-200.000	-0.034	-0.168
-388.033	263.151	0.113	0.195
-387.019	-23.155	-0.071	-0.043
-386.004	-200.000	-0.031	0.141
-384.990	543.095	-0.127	-0.301
-383.975	-131.660	0.036	-0.005
-382.960	-200.000	0.054	-0.269
-381.946	5.465	-0.279	-0.205
-380.931	53.971	0.299	0.286
-379.917	-43.989	-0.228	-0.114
-378.902	-200.000	0.067	-0.345
-377.888	-200.000	0.253	-0.001
-376.873	237.490	-0.190	0.313
-375.858	147.469	-0.181	0.242
-374.844	-193.824	0.338	0.003
-373.829	800.000	0.058	-0.215
-372.815	376.961	-0.110	0.223
-371.800	-43.810	0.234	-0.117
-370.785	12.651	-0.027	-0.021
-369.771	620.972	0.069	0.172
-368.756	-200.000	-0.007	-0.079
-367.742	-200.000	-0.039	0.293
-366.727	-200.000	-0.015	0.249
-365.712	89.633	0.128	0.142
-364.698	70.159	0.385	0.395
-363.683	-0.135	-0.047	0.033
-362.669	-88.889	0.381	-0.112
-361.654	-50.014	0.314	-0.148
-360.639	138.432	0.055	-0.072
-359.625	-29.341	0.111	-0.063
-358.610	62.069	0.200	0.199
-357.596	-10.801	-0.221	-0.145
-356.581	0.854	0.034	0.024
-355.566	-97.989	0.236	-0.061
-354.552	68.571	-0.154	0.157
-353.537	-41.170	-0.307	-0.157
-352.523	-33.579	-0.125	-0.068
-351.508	800.000	-0.125	0.427
-350.493	-200.000	0.024	0.354
-349.479	142.804	0.077	-0.101
-348.464	-71.282	-0.334	0.124
-347.450	-29.029	-0.149	0.085
-346.435	-200.000	-0.036	0.221
-345.420	800.000	-0.067	0.250
-344.406	203.468	0.151	0.232
-343.391	-200.000	0.106	0.690
-342.377	63.734	0.276	-0.276
-341.362	800.000	0.066	-0.208
-340.348	800.000	0.040	-0.148
-339.333	347.184	0.186	-0.363
-338.318	-200.000	-0.005	0.083
-337.304	-78.753	-0.322	-0.109
-336.289	90.676	-0.066	-0.073
-335.275	-91.623	-0.505	-0.143
-334.260	-28.641	0.147	-0.084
-333.245	800.000	-0.061	0.209
-332.231	5.439	-0.094	0.069
-331.216	-47.921	-0.369	-0.178
-330.202	130.510	-0.084	-0.107
-329.187	423.718	0.086	0.183
-328.172	-168.646	0.366	-0.014
-327.158	-133.353	-0.149	0.019
-326.143	326.170	-0.185	0.351
-325.129	-162.646	-0.034	-0.002
-324.114	151.433	0.053	-0.072
-323.099	347.207	0.046	0.090
-322.085	-5.284	-0.062	0.042
-321.070	-86.665	-0.216	-0.066
-320.056	-45.437	-0.447	-0.220
-319.041	800.000	-0.141	0.483
-318.026	573.916	0.146	0.353
-317.012	-200.000	-0.005	0.093
-315.997	-147.738	-0.225	0.019
-314.983	-200.000	0.012	0.251
-313.968	800.000	0.018	0.058
-312.953	377.333	0.026	0.053
-311.939	-63.617	0.530	0.216
-310.924	373.866	0.077	0.156
-309.910	-200.000	-0.006	0.183
-308.895	15.105	0.080	0.062
-307.880	81.006	0.244	0.261
-306.866	260.159	0.017	0.029
-305.851	-200.000	0.041	-0.196
-304.837	-200.000	-0.016	0.103
-303.822	-8.182	0.231	0.154
-302.807	-200.000	0.007	0.369
-301.793	705.212	0.062	-0.162
-300.778	-200.000	-0.025	0.189
-299.764	-30.913	0.083	0.046
-298.749	-80.376	0.359	-0.119
-297.735	95.597	-0.174	-0.197
-296.720	-83.039	-0.237	-0.076
-295.705	-3.691	0.147	0.101
-294.691	254.142	-0.125	-0.211
-293.676	-166.255	-0.319	-0.013
-292.662	-62.842	-0.069	-0.029
-291.647	240.324	0.074	0.122
-290.632	-200.000	-0.005	0.039
-289.618	-200.000	-0.023	0.140
-288.603	-200.000	-0.006	-0.124
-287.589	53.522	0.079	-0.075
-286.574	356.862	0.129	0.255
-285.559	-47.573	0.235	-0.113
-284.545	5.825	0.225	0.165
-283.530	220.925	-0.080	0.128
-282.516	-111.361	-0.108	-0.022
-281.501	33.319	0.199	-0.171
-280.486	329.808	-0.190	-0.363
-279.472	-121.259	0.338	0.056
-278.457	-129.901	0.397	-0.054
-277.443	-2.926	-0.072	-0.050
-276.428	417.987	0.048	0.101
-275.413	197.574	0.006	0.009
-274.399	-109.738	-0.056	-0.012
-273.384	308.012	-0.164	-0.303
-272.370	-105.883	-0.083	0.019
-271.355	-135.365	-0.103	0.012
-270.340	283.499	-0.076	-0.135
-269.326	-6.646	-0.176	0.119
-268.311	144.811	0.083	-0.110
-267.297	626.173	0.036	-0.089
-266.282	16.018	0.216	0.168
-265.267	-47.007	-0.194	0.094
-264.253	3.194	0.312	-0.225
-263.238	-30.151	-0.312	0.176
-262.224	174.693	0.287	0.411
-261.209	197.623	0.054	-0.081
-260.195	800.000	-0.023	-0.078
-259.180	-200.000	-0.008	0.076
-258.165	241.449	-0.221	0.366
-257.151	-168.095	-0.339	0.013
-256.136	-166.502	0.232	0.010
-255.122	-68.175	-0.403	0.155
-254.107	-175.526	-0.145	-0.004
-253.092	-115.871	0.116	0.021
-252.078	-56.918	0.196	0.086
-251.063	139.134	-0.157	0.204
-250.049	9.438	0.305	-0.229
-249.034	52.707	-0.115	-0.109
-248.019	800.000	-0.026	0.072
-247.005	464.539	0.050	0.111
-245.990	619.302	-0.008	0.021
-244.976	-82.818	-0.412	-0.132
-243.961	56.427	-0.118	-0.114
-242.946	-108.754	-0.089	-0.019
-241.932	-16.354	0.127	-0.080
-240.917	-25.562	-0.072	-0.042
-239.903	-200.000	-0.009	-0.195
-238.888	-124.700	-0.515	-0.079
-237.873	-200.000	-0.027	-0.174
-236.859	-17.362	-0.065	0.041
-235.844	-116.640	-0.285	-0.052
-234.830	184.370	-0.115	-0.169
-233.815	-98.431	-0.308	-0.078
-232.800	300.220	0.098	0.178
-231.786	-149.418	-0.261	-0.021
-230.771	-108.561	-0.282	-0.060
-229.757	106.054	-0.068	-0.080
-228.742	5.487	0.179	0.130
-227.727	-30.270	0.191	0.107
-226.713	-117.831	0.083	0.015
-225.698	388.823	0.111	-0.227
-224.684	47.365	0.139	0.128
-223.669	-90.868	-0.178	-0.051
-222.655	800.000	-0.073	-0.284
-221.640	68.255	0.104	-0.105
-220.625	652.276	0.135	-0.341
-219.611	95.001	-0.075	0.084
-218.596	144.991	0.157	0.208
-217.582	10.008	0.130	-0.097
-216.567	-33.231	-0.186	0.102
-215.552	-2.387	0.213	-0.148
-214.538	-42.185	-0.267	-0.135
-213.523	-200.000	-0.022	-0.363
-212.509	42.934	0.121	0.109
-211.494	-144.005	0.113	0.010
-210.479	-94.250	0.232	0.063
-209.465	-23.412	-0.123	-0.073
-208.450	-190.692	0.423	0.004
-207.436	57.848	0.160	0.155
-206.421	-200.000	0.054	0.241
-205.406	-141.734	-0.068	-0.007
-204.392	55.801	0.137	0.131
-203.377	-200.000	-0.037	0.240
-202.363	-128.235	0.259	0.036
-201.348	800.000	-0.042	-0.120
-200.333	407.258	-0.012	-0.025
-199.319	-17.334	0.249	0.155
-198.304	-144.411	-0.246	-0.023
-197.290	-70.141	0.322	0.121
-196.275	-200.000	-0.015	0.227
-195.260	-181.107	0.246	0.005
-194.246	206.383	0.090	-0.139
-193.231	-130.425	-0.441	0.059
-192.217	132.506	-0.226	0.288
-191.202	-42.444	0.294	-0.148
-190.187	280.485	-0.099	-0.175
-189.173	-76.868	-0.158	-0.055
-188.158	-92.242	0.202	-0.056
-187.144	397.984	0.096	-0.199
-186.129	761.370	-0.060	0.160
-185.114	-200.000	0.045	-0.266
-184.100	-124.571	0.131	-0.020
-183.085	-69.018	-0.189	0.072
-182.071	-200.000	-0.008	0.217
-181.056	800.000	0.042	0.151
-180.042	-107.065	0.166	-0.036
-179.027	239.761	-0.064	-0.106
-178.012	30.341	0.285	-0.241
-176.998	1.935	0.544	-0.388
-175.983	150.733	-0.174	-0.234
-174.969	-68.480	0.076	-0.029
-173.954	-121.386	0.363	-0.060
-172.939	-16.292	0.292	-0.183
-171.925	-45.053	0.196	0.096
-170.910	-200.000	0.002	-0.311
-169.896	-19.960	0.146	-0.089
-168.881	249.544	0.164	0.274
-167.866	-200.000	0.014	0.254
-166.852	-11.110	-0.108	0.070
-165.837	781.219	0.090	-0.243
-164.823	-125.001	-0.340	0.052
-163.808	75.710	0.032	0.033
-162.793	-31.409	0.096	0.053
-161.779	800.000	0.030	-0.106
-160.764	146.763	-0.080	-0.107
-159.750	353.663	-0.152	-0.298
-158.735	193.534	0.150	-0.224
-157.720	-99.699	0.031	-0.008
-156.706	-120.476	-0.327	-0.055
-155.691	-200.000	0.079	-0.380
-154.677	-68.726	-0.331	-0.126
-153.662	-5.497	0.162	-0.110
-152.647	-97.832	0.143	-0.037
-151.633	-70.142	0.151	-0.056
-150.618	47.156	-0.154	-0.141
-149.604	22.032	-0.277	-0.223
-148.589	630.950	-0.053	0.132
-147.574	54.987	0.270	-0.257
-146.560	-179.886	0.068	0.001
-145.545	-10.408	-0.126	0.082
-144.531	106.601	-0.172	-0.202
-143.516	113.606	0.144	0.173
-142.502	-120.383	0.268	0.045
-141.487	169.140	0.115	-0.162
-140.472	703.291	0.053	0.138
-139.458	7.922	-0.149	0.110
-138.443	-119.427	0.063	-0.011
-137.429	-200.000	-0.015	0.177
-136.414	9.891	-0.088	0.066
-135.399	464.712	0.074	-0.163
-134.385	6.512	0.104	-0.076
-133.370	-45.548	-0.385	0.188
-132.356	286.746	0.118	0.211
-131.341	800.000	0.022	0.080
-130.326	-66.103	-0.354	0.139
-129.312	-129.045	0.123	0.017
-128.297	697.440	-0.076	-0.196
-127.283	47.170	0.212	0.195
-126.268	215.811	-0.067	-0.104
-125.253	550.319	0.107	0.253
-124.239	-9.296	0.103	-0.068
-123.224	800.000	0.104	-0.282
-122.210	50.932	0.332	-0.310
-121.195	32.304	0.080	0.068
-120.180	-200.000	-0.055	-0.264
-119.166	175.681	-0.078	-0.111
-118.151	364.935	-0.046	0.091
-117.137	-200.000	-0.053	-0.255
-116.122	800.000	0.016	-0.060
-115.107	211.560	0.128	0.199
-114.093	800.000	-0.001	0.003
-113.078	-77.606	0.282	-0.096
-112.064	-15.127	-0.173	-0.109
-111.049	-200.000	0.011	0.177
-110.034	800.000	0.052	0.154
-109.020	-104.487	0.187	-0.043
-108.005	327.379	-0.069	0.131
-106.991	-33.352	0.233	0.127
-105.976	-94.557	-0.172	0.046
-104.962	-200.000	-0.001	-0.166
-103.947	-27.330	0.235	-0.135
-102.932	-200.000	-0.075	0.000
-101.918	-88.081	0.229	0.068
-100.903	151.205	-0.081	0.108
-99.889	153.093	-0.144	0.194
-98.874	-79.780	-0.159	0.053
-97.859	-200.000	0.024	0.164
-96.845	800.000	-0.012	0.048
-95.830	125.574	-0.082	0.102
-94.816	61.522	-0.117	0.115
-93.801	10.039	-0.316	-0.236
-92.786	800.000	-0.024	-0.073
-91.772	150.461	0.167	0.223
-90.757	-124.838	0.183	-0.028
-89.743	299.355	0.069	0.126
-88.728	-37.311	-0.363	0.191
-87.713	73.991	0.276	0.285
-86.699	-200.000	0.005	0.221
-85.684	-200.000	0.019	0.111
-84.670	-136.899	-0.041	-0.005
-83.655	396.550	0.070	-0.144
-82.640	-44.615	-0.067	0.033
-81.626	-7.184	-0.178	-0.119
-80.611	-41.545	-0.091	-0.046
-79.597	-68.763	-0.113	0.043
-78.582	447.602	0.091	-0.197
-77.567	35.184	0.244	0.210
-76.553	380.550	-0.119	0.241
-75.538	-18.099	0.182	-0.112
-74.524	-123.222	-0.200	0.031
-73.509	-100.505	-0.363	0.088
-72.494	-200.000	0.003	0.156
-71.480	-200.000	-0.004	-0.215
-70.465	800.000	-0.008	-0.026
-69.451	126.347	0.140	0.174
-68.436	120.341	-0.104	0.127
-67.422	446.836	0.092	0.198
-66.407	283.257	0.130	-0.230
-65.392	-200.000	-0.034	0.202
-64.378	-66.231	0.172	-0.067
-63.363	-145.816	0.303	0.027
-62.349	-71.215	0.199	-0.073
-61.334	66.198	-1.023	-1.020
-60.319	738.221	0.195	0.515
-59.305	-200.000	-0.031	-1.060
-58.290	113.792	0.637	0.761
-57.276	319.381	0.815	1.518
-56.261	-200.000	102.977	620.283
-55.246	595.946	1445.457	3514.832
-54.232	181.240	2659.095	3839.782
-53.217	110.844	2302.156	2721.100
-52.203	42.805	1914.798	1713.401
-51.188	36.770	1704.371	1479.112
-50.173	34.040	1660.091	1420.273
-49.159	51.183	1711.825	1595.006
-48.144	53.308	1728.144	1626.263
-47.130	36.258	1683.722	1457.094
-46.115	33.447	1668.918	1423.143
-45.100	33.338	1664.249	1418.291
-44.086	33.348	1661.242	1415.749
-43.071	33.392	1658.348	1413.552
-42.057	33.333	1655.515	1410.645
-41.042	33.298	1654.146	1409.163
-40.027	33.478	1651.569	1408.250
-39.013	33.404	1649.475	1405.855
-37.998	33.311	1648.485	1404.268
-36.984	33.397	1647.132	1403.698
-35.969	33.386	1646.324	1402.867
-34.954	33.568	1643.893	1402.090
-33.940	33.401	1642.043	1399.223
-32.925	33.503	1639.878	1398.078
-31.911	33.471	1638.416	1396.534
-30.896	33.589	1636.527	1395.740
-29.881	33.466	1635.452	1393.863
-28.867	33.513	1633.059	1392.111
-27.852	33.510	1631.442	1390.661
-26.838	33.448	1629.980	1388.899
-25.823	33.514	1628.681	1388.221
-24.809	33.517	1627.216	1386.938
-23.794	33.613	1625.488	1386.116
-22.779	33.578	1624.048	1384.579
-21.765	33.495	1622.448	1382.551
-20.750	33.474	1620.975	1381.089
-19.736	33.564	1619.295	1380.258
-18.721	33.582	1617.761	1379.023
-17.706	33.423	1616.473	1376.715
-16.692	33.523	1614.662	1375.849
-15.677	33.524	1613.195	1374.551
-14.663	33.569	1611.822	1373.652
-13.648	33.591	1610.640	1372.750
-12.633	33.545	1609.225	1371.154
-11.619	33.464	1607.750	1369.259
-10.604	33.512	1606.466	1368.459
-9.590	33.574	1605.350	1367.902
-8.575	33.617	1603.657	1366.714
-7.560	33.533	1602.535	1365.097
-6.546	33.560	1601.434	1364.302
-5.531	33.520	1600.321	1363.011
-4.517	33.569	1598.807	1362.021
-3.502	33.540	1597.996	1361.069
-2.487	33.577	1596.513	1360.012
-1.473	33.120	1584.589	1346.551
-0.458	29.908	1564.046	1306.414
0.556	23.636	1563.503	1270.612
1.571	21.016	1586.845	1270.413
2.586	20.607	1600.492	1278.219
3.600	18.749	1548.154	1223.087
4.615	10.058	1438.147	1078.332
5.629	1.511	1371.071	973.397
6.644	-0.235	1361.832	955.643
7.659	-0.386	1360.557	953.704
8.673	-0.462	1359.579	952.448
9.688	-0.487	1357.972	951.084
10.702	-0.599	1354.784	948.057
11.717	2.874	1361.453	974.711
12.731	12.122	1379.655	1046.928
13.746	18.530	1389.381	1095.279
14.761	19.068	1389.352	1098.597
15.775	19.058	1389.114	1098.247
16.790	19.155	1388.187	1098.034
17.804	19.279	1387.457	1098.149
18.819	19.429	1387.392	1098.957
19.834	19.390	1387.164	1098.430
20.848	19.486	1385.817	1097.877
21.863	19.506	1384.769	1097.079
22.877	19.430	1384.205	1096.055
23.892	19.490	1383.084	1095.450
24.907	19.518	1382.489	1095.059
25.921	19.483	1381.471	1093.932
26.936	19.556	1380.318	1093.385
27.950	19.478	1379.160	1091.878
28.965	19.489	1378.054	1090.972
29.980	19.485	1376.925	1089.959
30.994	19.480	1375.653	1088.825
32.009	19.507	1374.136	1087.701
33.023	19.455	1373.260	1086.579
34.038	19.510	1372.202	1085.993
35.053	19.448	1370.886	1084.468
36.067	19.487	1370.175	1084.052
37.082	19.413	1369.512	1082.965
38.096	19.466	1368.322	1082.266
39.111	19.503	1367.518	1081.763
40.126	19.377	1367.262	1080.674
41.140	19.464	1366.039	1080.155
42.155	19.444	1365.848	1079.788
43.169	19.478	1365.807	1079.873
44.184	19.399	1365.773	1079.254
45.199	19.493	1364.948	1079.093
46.213	19.508	1364.336	1078.605
47.228	19.415	1363.623	1077.367
48.242	19.531	1361.983	1076.703
49.257	19.449	1360.863	1075.211
50.271	19.464	1359.374	1074.029
51.286	19.524	1357.809	1073.071
52.301	19.437	1356.544	1071.439
53.315	19.538	1355.537	1071.175
54.330	19.376	1355.158	1069.776
55.344	19.397	1353.887	1068.806
56.359	19.402	1352.803	1067.891
57.374	19.469	1352.219	1067.750
58.388	19.403	1351.826	1066.933
59.403	19.524	1351.129	1067.039
60.417	19.564	1349.970	1066.273
61.432	19.486	1349.360	1065.217
62.447	19.517	1348.539	1064.663
63.461	19.520	1347.377	1063.675
64.476	19.481	1346.212	1062.420
65.490	19.436	1344.796	1060.929
66.505	19.491	1343.383	1060.057
67.520	19.402	1342.545	1058.758
68.534	19.556	1341.085	1058.458
69.549	19.436	1339.915	1056.706
70.563	19.505	1339.042	1056.343
71.578	19.449	1338.377	1055.385
72.593	19.372	1337.652	1054.250
73.607	19.479	1336.961	1054.265
74.622	19.575	1335.694	1053.758
75.636	19.472	1335.087	1052.558
76.651	19.548	1333.957	1052.039
77.666	19.518	1334.068	1051.852
78.680	19.415	1333.236	1050.476
79.695	19.532	1331.883	1050.027
80.709	19.556	1331.223	1049.559
81.724	19.515	1330.186	1048.398
82.739	19.507	1329.716	1047.887
83.753	19.456	1328.263	1046.343
84.768	19.555	1327.090	1045.924
85.782	19.383	1326.424	1044.266
86.797	19.514	1325.191	1043.991
87.812	19.454	1324.242	1042.792
88.826	19.587	1322.794	1042.364
89.841	19.547	1321.731	1041.189
90.855	19.534	1320.496	1040.044
91.870	19.579	1319.822	1039.696
92.884	19.523	1319.297	1038.852
93.899	19.532	1318.192	1037.942
94.914	19.551	1317.650	1037.538
95.928	19.579	1316.552	1036.753
96.943	19.589	1315.603	1035.974
97.957	19.599	1314.848	1035.345
98.972	19.505	1314.177	1034.163
99.987	19.570	1313.249	1033.730
101.001	19.596	1311.978	1032.797
102.016	19.616	1311.142	1032.167
103.030	19.652	1309.869	1031.288
104.045	19.581	1309.094	1030.159
105.060	19.552	1308.122	1029.133
106.074	19.553	1306.901	1028.085
107.089	19.649	1306.062	1027.904
108.103	19.603	1305.021	1026.721
109.118	19.622	1303.665	1025.681
110.133	19.692	1302.504	1025.090
111.147	19.647	1301.104	1023.632
112.162	19.573	1300.301	1022.468
113.176	19.622	1298.730	1021.431
114.191	19.625	1297.908	1020.716
115.206	19.656	1296.880	1019.997
116.220	19.593	1295.851	1018.729
117.235	19.565	1294.936	1017.755
118.249	19.644	1293.768	1017.210
119.264	19.597	1292.514	1015.860
120.279	19.535	1291.829	1014.866
121.293	19.659	1290.884	1014.759
122.308	19.697	1289.781	1014.026
123.322	19.770	1288.403	1013.281
124.337	19.631	1287.607	1011.750
125.352	19.763	1286.175	1011.310
126.366	19.691	1285.492	1010.262
127.381	19.818	1284.569	1010.191
128.395	19.661	1283.332	1008.214
129.410	19.740	1282.829	1008.188
130.424	19.733	1281.794	1007.244
131.439	19.663	1281.365	1006.411
132.454	19.707	1279.941	1005.458
133.468	19.617	1279.698	1004.654
134.483	19.654	1278.713	1004.007
135.497	19.587	1278.140	1003.081
136.512	19.565	1277.048	1002.006
137.527	19.705	1275.464	1001.485
138.541	19.672	1274.005	1000.063
139.556	19.621	1272.529	998.518
140.570	19.660	1271.707	998.012
141.585	19.723	1270.074	997.003
142.600	19.637	1269.228	995.757
143.614	19.653	1268.114	994.885
144.629	19.593	1267.472	993.952
145.643	19.546	1266.432	992.778
146.658	19.540	1265.231	991.711
147.673	19.692	1264.166	991.661
148.687	19.527	1263.488	990.096
149.702	19.538	1262.365	989.194
150.716	19.646	1260.671	988.392
151.731	19.660	1259.515	987.483
152.746	19.689	1258.621	986.857
153.760	19.710	1257.651	986.129
154.775	19.678	1256.756	985.156
155.789	19.638	1255.891	984.164
156.804	19.712	1254.650	983.530
157.819	19.599	1253.920	982.226
158.833	19.586	1253.786	981.961
159.848	19.671	1252.617	981.439
160.862	19.707	1251.647	980.797
161.877	19.763	1250.166	979.868
162.892	19.735	1249.658	979.226
163.906	19.675	1249.344	978.552
164.921	19.677	1248.775	978.032
165.935	19.681	1247.439	976.923
166.950	19.759	1246.736	976.726
167.964	19.765	1245.820	975.952
168.979	19.761	1245.884	975.898
169.994	19.829	1244.998	975.498
171.008	19.855	1244.548	975.203
172.023	19.873	1243.448	974.356
173.037	19.776	1243.023	973.396
174.052	19.738	1241.919	972.232
175.067	19.817	1240.973	971.849
176.081	19.790	1240.496	971.235
177.096	19.743	1239.534	970.135
178.110	19.744	1238.513	969.251
179.125	19.904	1237.106	968.961
180.140	19.791	1236.741	967.958
181.154	19.818	1235.183	966.802
182.169	19.790	1233.997	965.634
183.183	19.777	1233.254	964.893
184.198	19.731	1232.217	963.740
185.213	19.842	1231.373	963.616
186.227	19.937	1229.838	962.857
187.242	19.826	1229.087	961.568
188.256	19.741	1228.652	960.669
189.271	19.813	1227.907	960.403
190.286	19.931	1226.621	959.967
191.300	19.836	1226.423	959.199
192.315	19.862	1225.792	958.766
193.329	19.863	1225.391	958.372
194.344	19.844	1225.061	957.922
195.359	19.851	1224.428	957.379
196.373	19.849	1223.593	956.633
197.388	19.816	1223.529	956.318
198.402	19.741	1222.974	955.380
199.417	19.890	1221.977	955.343
200.432	19.881	1221.408	954.762
201.446	19.919	1220.934	954.520
202.461	19.744	1220.541	953.163
203.475	19.925	1219.216	953.039
204.490	19.767	1218.497	951.524
205.504	19.861	1217.185	950.928
206.519	19.955	1216.377	950.734
207.534	19.930	1215.547	949.863
208.548	19.972	1214.249	948.991
209.563	19.940	1213.691	948.296
210.577	19.896	1212.869	947.334
211.592	19.955	1211.684	946.647
212.607	19.986	1211.329	946.452
213.621	19.996	1210.724	945.953
214.636	19.859	1209.959	944.521
215.650	19.976	1208.935	944.277
216.665	19.977	1207.590	943.147
217.680	19.965	1206.804	942.384
218.694	19.966	1206.249	941.872
219.709	19.927	1206.085	941.454
220.723	20.041	1205.007	941.145
221.738	19.838	1204.148	939.292
222.753	19.873	1203.339	938.763
223.767	20.052	1202.877	939.294
224.782	20.147	1202.206	939.197
225.796	20.155	1201.733	938.793
226.811	20.124	1200.968	937.940
227.826	20.054	1200.718	937.287
228.840	20.037	1200.254	936.746
229.855	20.127	1198.992	936.166
230.869	20.122	1198.235	935.465
231.884	20.159	1197.641	935.120
232.899	20.030	1196.882	933.747
233.913	20.069	1196.488	933.567
234.928	20.135	1195.770	933.279
235.942	20.116	1195.483	932.872
236.957	20.146	1194.350	932.068
237.972	20.150	1193.756	931.540
238.986	20.119	1192.928	930.649
240.001	20.224	1192.144	930.517
241.015	20.247	1191.674	930.188
242.030	20.223	1190.725	929.239
243.045	20.182	1190.398	928.683
244.059	20.246	1189.432	928.190
245.074	20.286	1188.502	927.596
246.088	20.305	1187.831	927.091
247.103	20.257	1187.125	926.198
248.117	20.245	1186.706	925.728
249.132	20.158	1185.667	924.371
250.147	20.373	1184.692	924.675
251.161	20.307	1184.367	923.989
252.176	20.367	1183.390	923.462
253.190	20.331	1182.731	922.674
254.205	20.329	1182.331	922.269
255.220	20.226	1181.869	921.284
256.234	20.298	1181.204	921.062
257.249	20.328	1180.644	920.706
258.263	20.278	1179.935	919.805
259.278	20.315	1179.417	919.519
260.293	20.379	1178.902	919.374
261.307	20.387	1178.479	919.003
262.322	20.211	1178.085	917.682
263.336	20.394	1177.031	917.748
264.351	20.383	1176.484	917.185
265.366	20.333	1175.659	916.197
266.380	20.392	1175.112	915.998
267.395	20.417	1173.995	915.181
268.409	20.385	1173.656	914.663
269.424	20.266	1173.394	913.752
270.439	20.325	1172.838	913.551
271.453	20.378	1172.104	913.175
272.468	20.395	1171.173	912.458
273.482	20.380	1170.491	911.769
274.497	20.435	1169.908	911.522
275.512	20.434	1169.634	911.221
276.526	20.424	1168.592	910.279
277.541	20.396	1168.101	909.669
278.555	20.384	1167.498	909.058
279.570	20.492	1166.517	908.778
280.585	20.479	1165.717	908.006
281.599	20.491	1164.709	907.202
282.614	20.464	1163.964	906.399
283.628	20.494	1163.133	905.828
284.643	20.485	1162.148	904.936
285.657	20.516	1161.385	904.422
286.672	20.485	1160.897	903.801
287.687	20.580	1159.990	903.508
288.701	20.689	1159.297	903.454
289.716	20.690	1158.224	902.546
290.730	20.564	1157.958	901.605
291.745	20.662	1156.934	901.236
292.760	20.593	1156.651	900.577
293.774	20.634	1156.045	900.236
294.789	20.680	1155.478	899.957
295.803	20.769	1154.694	899.722
296.818	20.594	1154.349	898.469
297.833	20.762	1153.285	898.429
298.847	20.721	1152.883	897.825
299.862	20.688	1151.895	896.806
300.876	20.666	1151.357	896.194
301.891	20.724	1150.663	895.876
302.906	20.729	1150.480	895.679
303.920	20.691	1149.437	894.593
304.935	20.638	1149.239	894.085
305.949	20.758	1148.516	894.063
306.964	20.744	1147.789	893.346
307.979	20.742	1147.118	892.733
308.993	20.832	1146.359	892.527
310.008	20.769	1145.641	891.563
311.022	20.757	1145.102	891.004
312.037	20.850	1143.869	890.440
313.052	20.732	1143.383	889.379
314.066	20.778	1142.801	889.083
315.081	20.840	1141.820	888.558
316.095	20.755	1141.253	887.605
317.110	20.855	1140.548	887.486
318.125	20.897	1139.542	886.841
319.139	20.819	1139.387	886.245
320.154	20.944	1138.268	885.932
321.168	20.892	1137.814	885.236
322.183	20.857	1137.369	884.635
323.197	20.887	1136.861	884.312
324.212	20.976	1135.920	883.953
325.227	20.925	1136.007	883.683
326.241	21.004	1135.242	883.411
327.256	20.832	1134.652	882.001
328.270	20.886	1133.643	881.415
329.285	20.935	1132.477	880.679
330.300	20.998	1131.647	880.269
331.314	20.854	1131.158	879.088
332.329	21.056	1130.249	879.323
333.343	21.121	1129.030	878.621
334.358	21.009	1128.564	877.618
335.373	21.064	1128.215	877.544
336.387	21.124	1127.320	877.073
337.402	21.043	1126.621	876.046
338.416	20.983	1126.014	875.192
339.431	21.014	1125.797	875.106
340.446	21.172	1124.667	874.938
341.460	21.066	1124.083	873.875
342.475	21.132	1123.315	873.535
343.489	21.171	1122.352	872.902
344.504	21.224	1121.213	872.204
345.519	21.238	1120.556	871.686
346.533	21.270	1119.735	871.128
347.548	21.355	1118.994	870.901
348.562	21.185	1118.556	869.635
349.577	21.168	1117.907	868.966
350.592	21.133	1117.312	868.255
351.606	21.115	1116.667	867.588
352.621	21.263	1115.863	867.622
353.635	21.195	1115.312	866.778
354.650	21.233	1114.469	866.233
355.665	21.171	1114.077	865.547
356.679	21.253	1113.344	865.305
357.694	21.260	1113.123	865.095
358.708	21.269	1112.042	864.219
359.723	21.203	1111.565	863.446
360.738	21.249	1110.780	862.987
361.752	21.358	1110.297	863.075
362.767	21.346	1109.849	862.589
363.781	21.341	1109.268	862.041
364.796	21.339	1108.610	861.440
365.810	21.307	1108.217	860.902
366.825	21.333	1107.366	860.292
367.840	21.391	1106.912	860.150
368.854	21.416	1106.458	859.840
369.869	21.457	1105.662	859.349
370.883	21.522	1104.876	858.984
371.898	21.440	1104.215	857.989
372.913	21.417	1103.729	857.423
373.927	21.348	1103.499	856.831
374.942	21.415	1102.720	856.478
375.956	21.476	1102.295	856.370
376.971	21.494	1101.880	856.058
377.986	21.520	1100.978	855.412
379.000	21.595	1100.724	855.507
380.015	21.441	1100.288	854.337
381.029	21.540	1099.305	853.983
382.044	21.464	1098.733	853.090
383.059	21.602	1097.766	852.938
384.073	21.615	1097.094	852.404
385.088	21.610	1096.326	851.706
386.102	21.468	1095.672	850.435
387.117	21.563	1094.809	850.148
388.132	21.601	1093.555	849.285
389.146	21.511	1093.349	848.612
390.161	21.574	1092.571	848.242
391.175	21.546	1092.194	847.734
392.190	21.679	1090.959	847.346
393.205	21.642	1090.108	846.431
394.219	21.631	1089.307	845.681
395.234	21.660	1088.586	845.188
396.248	21.746	1087.441	844.636
397.263	21.765	1086.814	844.169
398.278	21.731	1086.186	843.441
399.292	21.924	1085.322	843.623
400.307	21.803	1085.155	842.840
401.321	21.788	1084.799	842.412
402.336	21.784	1083.779	841.529
403.350	21.648	1083.569	840.639
404.365	21.794	1082.866	840.718
405.380	21.811	1081.916	839.987
406.394	21.843	1080.972	839.336
407.409	21.872	1080.279	838.860
408.423	21.857	1079.434	838.060
409.438	21.853	1079.297	837.859
410.453	21.898	1078.643	837.492
411.467	21.928	1077.530	836.695
412.482	21.819	1077.330	835.949
413.496	21.973	1076.203	835.730
414.511	21.983	1075.364	835.054
415.526	22.019	1075.115	834.958
416.540	21.846	1074.799	833.816
417.555	21.887	1074.393	833.621
418.569	21.924	1073.875	833.322
419.584	22.037	1073.175	833.242
420.599	22.056	1072.498	832.734
421.613	148.046	1396.790	1792.947
422.628	136.536	1444.014	1793.057
