DTS Sentinel unit serial number:	SN413079Multiplexer serial number:	ORYXHardware model number:	OX4-SRSoftware version number:	ORYX F/W v4.00 Oryx Data Collector v3.7.2.0data status	okinstallation	princeton_trtdifferential loss correction	single-endedforward channel	channel 2reverse channel	N/Adate	2019/09/14time	04:07:34forward acquisition time	60.00reverse acquisition time	0.00gamma	496.2192k internal	0.2336k external	0.2336temperature offset calibration	1.0128default loss term (dB/km)	0.3790temperature slope calibration	1.0000multiplexer offset coefficient	1.0000multiplexer slope coefficient	1.0000fibre end	0.00T internal ref (°C)	26.69T ext. ref 1 (°C)	3.31T ext. ref 2 (°C)	21.82length (m)	temperature (°C)	Stokes	anti-Stokes-747.200	-200.000	-0.023	-0.333
-746.185	-200.000	0.035	0.226
-745.171	800.000	0.124	-0.350
-744.156	-123.801	-0.156	0.025
-743.142	-55.145	-0.204	0.092
-742.127	-140.205	-0.085	0.009
-741.112	189.075	0.171	0.257
-740.098	-138.219	-0.280	-0.031
-739.083	-45.453	0.315	0.157
-738.069	216.313	-0.065	0.103
-737.054	-200.000	0.038	0.208
-736.039	-84.318	-0.482	0.153
-735.025	79.089	-0.125	0.134
-734.010	-200.000	0.011	-0.077
-732.996	800.000	-0.082	-0.319
-731.981	-200.000	-0.020	0.134
-730.966	209.593	-0.054	0.086
-729.952	127.261	-0.109	0.139
-728.937	-53.988	-0.312	-0.142
-727.923	-158.768	0.092	-0.005
-726.908	-146.015	0.461	0.041
-725.894	106.808	0.244	-0.291
-724.879	800.000	-0.026	0.098
-723.864	8.474	-0.061	0.046
-722.850	14.904	0.224	0.176
-721.835	489.376	-0.060	-0.137
-720.821	-35.807	0.118	0.064
-719.806	-77.278	-0.182	0.064
-718.791	-112.689	0.210	-0.042
-717.777	-200.000	-0.043	-0.260
-716.762	729.740	0.146	0.390
-715.748	181.264	-0.192	0.283
-714.733	-27.449	0.100	0.058
-713.718	130.920	-0.144	0.186
-712.704	59.363	0.227	-0.225
-711.689	-171.129	-0.178	-0.006
-710.675	-200.000	-0.001	0.130
-709.660	-200.000	-0.023	0.241
-708.645	338.357	0.201	0.392
-707.631	575.609	-0.055	-0.135
-706.616	-200.000	0.017	-0.125
-705.602	800.000	-0.058	-0.192
-704.587	-106.294	0.219	-0.049
-703.572	-200.000	-0.024	0.110
-702.558	-21.807	0.250	-0.152
-701.543	112.351	0.250	-0.304
-700.529	800.000	-0.080	0.240
-699.514	-72.544	0.289	0.107
-698.499	-82.159	-0.331	0.108
-697.485	-128.703	-0.408	0.058
-696.470	79.035	0.165	-0.178
-695.456	-19.840	-0.449	-0.278
-694.441	53.825	0.100	0.096
-693.426	74.562	-0.130	0.137
-692.412	-200.000	-0.035	0.181
-691.397	-107.314	-0.189	0.042
-690.383	-168.284	-0.065	0.003
-689.368	-164.507	0.246	-0.011
-688.354	-45.422	0.053	-0.026
-687.339	-28.948	-0.253	0.146
-686.324	14.411	-0.114	-0.089
-685.310	481.645	-0.119	0.271
-684.295	800.000	-0.063	0.263
-683.281	285.174	0.161	0.290
-682.266	-63.015	0.212	0.088
-681.251	-200.000	-0.007	-0.078
-680.237	-200.000	0.022	0.166
-679.222	-200.000	0.005	0.032
-678.208	-200.000	0.045	-0.262
-677.193	72.648	0.077	0.080
-676.178	-200.000	0.010	0.068
-675.164	-55.359	-0.305	0.137
-674.149	-22.375	0.097	0.059
-673.135	-190.279	0.051	-0.001
-672.120	-200.000	0.012	-0.174
-671.105	345.296	0.037	-0.073
-670.091	22.388	0.084	-0.068
-669.076	141.971	0.192	-0.255
-668.062	-149.722	-0.471	-0.037
-667.047	302.599	0.024	-0.045
-666.032	-31.192	0.189	0.107
-665.018	800.000	-0.032	-0.113
-664.003	53.290	-0.105	-0.101
-662.989	-1.474	-0.296	-0.209
-661.974	451.120	-0.034	-0.075
-660.959	-118.136	-0.047	-0.008
-659.945	498.696	0.023	-0.052
-658.930	-27.573	0.137	-0.080
-657.916	-159.181	-0.447	-0.025
-656.901	-94.629	-0.192	0.052
-655.886	18.128	-0.269	0.215
-654.872	229.564	-0.049	-0.080
-653.857	-200.000	-0.002	-0.160
-652.843	800.000	-0.019	0.061
-651.828	-176.642	0.086	-0.002
-650.814	-147.364	0.219	0.019
-649.799	-45.689	0.089	-0.044
-648.784	-107.302	0.185	-0.041
-647.770	800.000	0.105	-0.306
-646.755	800.000	0.120	0.342
-645.741	79.735	0.279	-0.300
-644.726	497.212	-0.102	0.236
-643.711	-61.890	0.399	-0.167
-642.697	800.000	0.080	-0.250
-641.682	-143.791	-0.238	-0.023
-640.668	149.279	0.027	-0.037
-639.653	-159.545	0.181	-0.010
-638.638	-27.588	0.432	0.251
-637.624	10.675	-0.232	-0.177
-636.609	63.306	0.011	0.011
-635.595	319.310	0.062	0.117
-634.580	25.010	-0.218	-0.180
-633.565	-115.567	-0.214	-0.040
-632.551	140.407	-0.091	0.120
-631.536	153.053	0.070	-0.095
-630.522	275.506	0.096	0.170
-629.507	-132.436	0.386	-0.050
-628.492	800.000	0.004	0.011
-627.478	-200.000	0.019	-0.102
-626.463	800.000	0.033	-0.112
-625.449	104.564	-0.094	-0.110
-624.434	-127.130	0.183	0.027
-623.419	-200.000	0.024	-0.175
-622.405	-112.846	-0.324	-0.064
-621.390	-147.179	-0.343	-0.029
-620.376	-113.648	0.411	-0.080
-619.361	-167.796	-0.027	0.001
-618.346	0.586	0.106	-0.075
-617.332	167.434	-0.151	0.215
-616.317	-62.723	-0.259	0.107
-615.303	-200.000	0.052	-0.320
-614.288	-172.449	-0.191	-0.006
-613.273	-130.448	0.180	0.024
-612.259	800.000	-0.011	0.038
-611.244	131.033	-0.067	0.086
-610.230	19.030	-0.293	-0.235
-609.215	-134.575	0.202	0.025
-608.201	71.650	-0.217	0.225
-607.186	-51.884	-0.403	-0.187
-606.171	610.769	0.091	-0.228
-605.157	-200.000	-0.010	-0.259
-604.142	342.414	0.067	0.132
-603.128	-200.000	-0.004	0.175
-602.113	-172.917	-0.130	0.004
-601.098	69.773	0.105	-0.108
-600.084	341.895	0.096	0.188
-599.069	86.558	0.215	-0.237
-598.055	588.845	0.111	0.273
-597.040	800.000	0.067	0.207
-596.025	800.000	0.080	-0.288
-595.011	-0.481	0.321	-0.227
-593.996	-90.917	-0.428	0.123
-592.982	150.761	-0.241	0.327
-591.967	-167.333	-0.222	0.009
-590.952	426.620	0.230	-0.494
-589.938	24.672	0.457	-0.378
-588.923	78.058	0.082	-0.087
-587.909	152.628	-0.070	0.096
-586.894	27.535	0.157	-0.132
-585.879	336.062	-0.021	-0.041
-584.865	94.007	0.119	-0.135
-583.850	52.370	-0.284	0.270
-582.836	-54.447	-0.037	-0.017
-581.821	38.069	-0.177	-0.157
-580.806	4.656	-0.130	-0.095
-579.792	241.192	-0.098	-0.163
-578.777	56.414	0.168	0.163
-577.763	8.620	-0.125	-0.094
-576.748	-93.063	-0.182	-0.051
-575.733	-57.017	0.217	-0.095
-574.719	189.311	0.109	-0.163
-573.704	64.692	-0.092	-0.093
-572.690	-36.658	-0.386	-0.207
-571.675	-200.000	0.009	-0.175
-570.661	-55.312	-0.410	0.183
-569.646	-72.978	-0.284	-0.104
-568.631	178.423	-0.072	-0.105
-567.617	-130.857	-0.056	-0.008
-566.602	75.640	-0.198	0.209
-565.588	-200.000	-0.065	0.308
-564.573	74.201	0.141	-0.148
-563.558	-76.783	0.378	-0.132
-562.544	-86.852	0.109	-0.033
-561.529	55.205	0.098	0.094
-560.515	-27.043	-0.221	-0.128
-559.500	-96.437	0.426	-0.112
-558.485	-200.000	-0.004	-0.114
-557.471	-111.171	-0.175	0.036
-556.456	18.011	-0.086	0.068
-555.442	301.333	0.152	-0.279
-554.427	266.756	-0.039	0.068
-553.412	773.630	0.161	-0.439
-552.398	28.605	-0.146	0.124
-551.383	-88.697	0.252	0.075
-550.369	-99.832	0.128	-0.032
-549.354	-200.000	-0.038	0.272
-548.339	188.435	0.034	0.051
-547.325	800.000	-0.069	-0.238
-546.310	-140.984	-0.286	0.029
-545.296	23.679	0.176	0.144
-544.281	800.000	-0.052	-0.177
-543.266	62.798	-0.273	-0.272
-542.252	-38.409	-0.148	-0.078
-541.237	95.666	0.083	0.094
-540.223	137.152	0.086	0.112
-539.208	21.949	-0.269	-0.219
-538.193	800.000	-0.041	-0.122
-537.179	10.793	0.272	-0.207
-536.164	145.869	0.106	0.141
-535.150	-55.469	0.170	-0.076
-534.135	-77.817	-0.111	-0.038
-533.121	-200.000	0.044	-0.354
-532.106	-27.777	0.333	0.192
-531.091	-75.021	-0.065	0.023
-530.077	-141.431	0.265	0.027
-529.062	-38.439	-0.223	0.117
-528.048	-81.863	-0.100	-0.033
-527.033	-92.716	-0.078	0.022
-526.018	204.521	-0.054	0.083
-525.004	134.469	0.088	-0.114
-523.989	-104.505	-0.271	-0.062
-522.975	159.258	-0.132	-0.183
-521.960	800.000	0.035	0.096
-520.945	800.000	0.046	-0.167
-519.931	7.084	-0.074	0.055
-518.916	-156.561	-0.201	-0.012
-517.902	800.000	-0.041	-0.118
-516.887	-144.235	-0.051	0.005
-515.872	800.000	0.083	0.242
-514.858	-186.658	0.171	0.002
-513.843	-200.000	0.037	0.288
-512.829	-114.432	0.030	0.006
-511.814	-200.000	-0.010	-0.179
-510.799	-200.000	0.007	0.092
-509.785	22.769	0.140	0.114
-508.770	-65.042	-0.175	-0.070
-507.756	800.000	-0.099	-0.362
-506.741	-112.996	0.161	0.032
-505.726	54.649	0.321	0.308
-504.712	332.149	0.031	0.060
-503.697	16.191	-0.137	0.107
-502.683	-74.214	0.076	0.027
-501.668	-200.000	-0.027	0.162
-500.653	346.433	-0.036	0.071
-499.639	-200.000	0.011	0.396
-498.624	5.264	-0.139	-0.102
-497.610	786.066	-0.028	-0.076
-496.595	51.388	-0.131	-0.124
-495.581	-63.462	-0.187	-0.076
-494.566	-158.257	-0.034	0.002
-493.551	30.174	-0.145	0.123
-492.537	-65.528	-0.113	-0.045
-491.522	-200.000	0.020	0.163
-490.508	-136.478	-0.115	0.013
-489.493	420.556	0.176	0.375
-488.478	-0.583	-0.311	0.219
-487.464	127.709	-0.045	-0.056
-486.449	-14.367	0.242	-0.155
-485.435	58.401	-0.237	-0.231
-484.420	196.144	-0.130	0.196
-483.405	23.304	0.040	0.032
-482.391	-101.703	-0.432	-0.104
-481.376	62.619	-0.019	-0.019
-480.362	-169.724	-0.269	0.010
-479.347	-69.287	-0.325	0.124
-478.332	-12.427	-0.221	0.143
-477.318	-13.593	-0.220	0.141
-476.303	800.000	0.063	-0.204
-475.289	439.652	0.127	-0.275
-474.274	-200.000	0.012	0.206
-473.259	-200.000	-0.015	0.206
-472.245	-161.304	0.348	-0.018
-471.230	-33.393	-0.123	-0.068
-470.216	-200.000	0.025	0.156
-469.201	107.903	0.095	-0.113
-468.186	-137.168	0.148	-0.017
-467.172	12.539	-0.207	0.158
-466.157	35.605	-0.036	0.031
-465.143	-96.414	-0.115	-0.030
-464.128	64.870	-0.046	-0.047
-463.113	-148.715	-0.248	0.020
-462.099	800.000	0.046	0.142
-461.084	800.000	0.079	-0.217
-460.070	-200.000	0.000	-0.116
-459.055	43.270	0.134	-0.122
-458.040	-200.000	-0.100	-0.000
-457.026	275.089	0.160	-0.281
-456.011	-89.852	-0.081	-0.024
-454.997	-34.448	0.089	0.048
-453.982	66.566	-0.128	0.129
-452.968	-63.811	-0.131	0.053
-451.953	24.826	-0.119	-0.098
-450.938	75.699	0.164	0.172
-449.924	-200.000	0.038	0.228
-448.909	-135.348	0.144	-0.017
-447.895	-151.319	-0.202	-0.015
-446.880	175.208	0.021	0.030
-445.865	-23.962	0.043	-0.026
-444.851	513.157	0.168	0.389
-443.836	-127.126	0.096	-0.014
-442.822	40.345	-0.194	-0.173
-441.807	-110.711	0.276	-0.056
-440.792	223.001	-0.086	0.138
-439.778	44.673	-0.084	0.077
-438.763	-15.964	0.215	0.136
-437.749	-26.747	0.296	0.172
-436.734	-200.000	0.003	0.033
-435.719	84.155	0.173	0.188
-434.705	-101.374	-0.265	-0.064
-433.690	93.388	0.050	0.056
-432.676	-117.630	-0.235	0.042
-431.661	-200.000	0.017	0.268
-430.646	78.586	0.068	-0.072
-429.632	203.833	-0.145	-0.223
-428.617	-50.207	-0.195	-0.092
-427.603	-183.646	-0.299	0.005
-426.588	104.970	0.110	0.129
-425.573	-200.000	-0.054	0.321
-424.559	179.625	0.234	-0.340
-423.544	800.000	0.055	-0.167
-422.530	800.000	0.017	-0.055
-421.515	373.662	-0.080	0.161
-420.500	-151.437	0.195	0.014
-419.486	800.000	0.063	-0.232
-418.471	273.557	0.168	-0.294
-417.457	346.381	-0.097	0.189
-416.442	-25.166	0.154	-0.090
-415.428	627.551	0.127	-0.317
-414.413	47.628	-0.096	-0.089
-413.398	59.395	-0.094	0.092
-412.384	800.000	-0.048	-0.157
-411.369	92.998	0.098	0.110
-410.355	1.364	0.262	-0.187
-409.340	320.356	-0.035	0.066
-408.325	-43.423	0.086	0.043
-407.311	2.201	-0.159	-0.114
-406.296	124.895	0.204	0.254
-405.282	-40.714	0.300	-0.154
-404.267	-116.822	-0.253	-0.046
-403.252	286.424	-0.069	0.124
-402.238	-102.084	-0.141	-0.034
-401.223	-200.000	-0.004	-0.180
-400.209	-178.429	-0.077	-0.002
-399.194	-200.000	0.063	0.282
-398.179	800.000	-0.029	-0.091
-397.165	-56.535	0.148	-0.065
-396.150	-82.184	0.158	-0.051
-395.136	-200.000	0.125	-0.000
-394.121	472.214	-0.124	0.276
-393.106	82.690	0.101	-0.109
-392.092	-200.000	0.019	-0.140
-391.077	800.000	0.055	0.216
-390.063	408.051	-0.106	0.222
-389.048	-200.000	-0.048	0.258
-388.033	530.562	-0.178	0.417
-387.019	-200.000	0.010	0.068
-386.004	652.844	-0.062	0.156
-384.990	-44.639	-0.156	-0.077
-383.975	301.648	0.166	0.303
-382.960	576.872	-0.194	-0.470
-381.946	209.488	0.174	-0.271
-380.931	75.162	-0.161	0.168
-379.917	-66.254	0.284	0.112
-378.902	-181.190	0.115	0.002
-377.888	670.936	-0.081	0.208
-376.873	-75.395	-0.345	-0.122
-375.858	87.203	0.408	-0.447
-374.844	800.000	-0.028	0.116
-373.829	-200.000	0.006	-0.121
-372.815	0.969	-0.222	0.158
-371.800	684.973	0.017	0.044
-370.785	-63.307	-0.104	0.042
-369.771	-46.004	-0.226	-0.110
-368.756	-30.330	-0.152	-0.085
-367.742	-146.694	0.138	-0.012
-366.727	-200.000	0.003	0.021
-365.712	-60.867	0.343	-0.144
-364.698	-160.529	-0.096	0.005
-363.683	474.768	0.115	0.257
-362.669	800.000	0.081	0.303
-361.654	800.000	-0.073	0.235
-360.639	-24.163	-0.175	0.104
-359.625	-200.000	0.003	0.179
-358.610	665.537	0.105	-0.269
-357.596	163.474	-0.133	-0.185
-356.581	-73.538	0.534	0.193
-355.566	-139.322	-0.275	0.029
-354.552	-59.804	-0.184	-0.078
-353.537	-200.000	-0.002	-0.051
-352.523	-30.958	0.056	0.031
-351.508	-200.000	-0.007	-0.451
-350.493	-37.005	0.217	-0.115
-349.479	-69.213	0.146	0.055
-348.464	-200.000	-0.007	0.279
-347.450	-200.000	0.014	0.063
-346.435	-148.403	-0.231	0.019
-345.420	260.580	-0.109	0.186
-344.406	280.696	-0.125	-0.221
-343.391	800.000	-0.038	0.140
-342.377	-39.622	0.045	-0.023
-341.362	-82.133	0.172	0.055
-340.348	-136.149	0.057	0.007
-339.333	0.629	0.227	-0.161
-338.318	-88.459	-0.349	0.103
-337.304	-200.000	-0.067	0.334
-336.289	-92.053	0.182	-0.051
-335.275	-33.773	-0.004	0.002
-334.260	-107.890	0.299	0.064
-333.245	108.100	-0.153	0.180
-332.231	-41.988	-0.241	-0.122
-331.216	421.473	-0.115	0.244
-330.202	-49.078	-0.075	-0.035
-329.187	60.113	0.210	0.206
-328.172	-126.581	0.112	0.016
-327.158	-16.093	-0.138	-0.087
-326.143	82.785	0.110	-0.118
-325.129	-124.538	-0.188	-0.029
-324.114	543.715	0.062	0.146
-323.099	229.674	-0.157	0.253
-322.085	-9.836	-0.044	0.029
-321.070	23.201	-0.150	0.122
-320.056	-30.542	0.207	0.116
-319.041	-194.895	0.293	0.002
-318.026	-6.096	0.148	0.100
-317.012	-200.000	-0.020	0.161
-315.997	363.423	0.155	-0.307
-314.983	-178.981	-0.153	-0.003
-313.968	6.662	0.227	0.166
-312.953	800.000	0.051	-0.146
-311.939	-7.918	0.168	-0.112
-310.924	74.288	0.087	0.091
-309.910	-200.000	0.022	-0.196
-308.895	-200.000	-0.042	0.201
-307.880	800.000	0.042	-0.138
-306.866	-150.821	-0.358	-0.027
-305.851	-145.392	-0.162	0.014
-304.837	800.000	-0.018	0.055
-303.822	632.767	0.038	-0.094
-302.807	-50.321	0.307	0.143
-301.793	-80.386	-0.306	0.101
-300.778	-26.628	0.040	-0.023
-299.764	-3.514	0.276	0.189
-298.749	269.139	-0.136	0.236
-297.735	-29.494	0.278	-0.157
-296.720	-80.910	-0.271	0.089
-295.705	192.065	-0.137	-0.204
-294.691	-129.953	-0.220	-0.030
-293.676	-200.000	0.032	0.162
-292.662	-200.000	0.053	0.242
-291.647	-37.098	0.122	-0.065
-290.632	288.363	-0.125	0.222
-289.618	800.000	0.099	0.291
-288.603	-95.430	0.143	-0.038
-287.589	-27.260	0.059	0.034
-286.574	17.013	-0.105	-0.082
-285.559	-200.000	0.053	-0.289
-284.545	-27.732	0.190	0.109
-283.530	-130.157	-0.303	-0.041
-282.516	-200.000	-0.032	-0.404
-281.501	-152.809	-0.371	0.026
-280.486	-99.641	0.132	0.033
-279.472	800.000	0.068	0.203
-278.457	267.055	-0.086	-0.148
-277.443	800.000	0.073	0.208
-276.428	-96.060	0.235	0.062
-275.413	-200.000	-0.008	0.179
-274.399	-129.332	0.208	-0.028
-273.384	-200.000	0.012	0.229
-272.370	92.101	0.102	0.113
-271.355	-81.145	-0.108	0.035
-270.340	102.531	0.115	-0.133
-269.326	159.788	-0.144	-0.197
-268.311	-200.000	-0.021	0.320
-267.297	800.000	0.097	0.275
-266.282	-9.020	0.096	0.063
-265.267	187.938	-0.041	0.060
-264.253	-36.006	-0.154	-0.082
-263.238	555.173	-0.027	0.064
-262.224	40.852	0.175	0.156
-261.209	-167.541	0.284	0.011
-260.195	-165.528	-0.318	-0.014
-259.180	713.647	-0.018	0.046
-258.165	800.000	0.093	-0.298
-257.151	-30.353	0.171	-0.096
-256.136	800.000	0.084	0.236
-255.122	-54.280	0.071	-0.032
-254.107	-33.708	-0.123	-0.067
-253.092	-141.333	0.368	0.037
-252.078	-4.503	-0.115	-0.078
-251.063	328.500	0.117	-0.221
-250.049	-200.000	-0.046	0.311
-249.034	37.723	0.132	-0.115
-248.019	9.315	-0.116	0.086
-247.005	-34.562	-0.196	-0.106
-245.990	-165.399	-0.323	0.014
-244.976	103.703	-0.056	0.065
-243.961	-47.616	0.166	-0.079
-242.946	-114.039	-0.061	-0.012
-241.932	-71.327	-0.209	0.077
-240.917	190.675	0.310	0.459
-239.903	-7.299	-0.123	-0.082
-238.888	30.061	0.236	-0.198
-237.873	159.818	0.231	-0.317
-236.859	-131.326	0.202	0.026
-235.844	-46.799	-0.314	-0.151
-234.830	-115.338	-0.002	0.000
-233.815	280.798	0.101	0.178
-232.800	-0.767	-0.123	0.086
-231.786	-36.893	0.097	-0.051
-230.771	294.560	0.192	-0.346
-229.757	16.209	-0.188	-0.146
-228.742	-100.156	-0.165	-0.040
-227.727	-200.000	0.045	-0.261
-226.713	-200.000	-0.051	0.236
-225.698	3.187	0.124	-0.089
-224.684	-200.000	-0.021	-0.106
-223.669	-134.496	-0.325	-0.039
-222.655	-103.737	0.165	0.038
-221.640	105.022	0.081	-0.094
-220.625	-40.857	-0.265	-0.135
-219.611	74.071	0.392	0.405
-218.596	434.573	0.039	0.083
-217.582	364.661	-0.048	-0.096
-216.567	-139.436	-0.083	0.009
-215.552	-32.072	0.307	-0.169
-214.538	-138.331	-0.425	0.046
-213.523	-95.938	0.268	0.070
-212.509	-102.400	0.158	0.037
-211.494	-200.000	-0.067	-0.419
-210.479	-25.397	-0.213	0.124
-209.465	800.000	-0.059	0.230
-208.450	22.561	0.317	-0.255
-207.436	134.730	0.085	0.108
-206.421	251.025	0.050	-0.084
-205.406	-200.000	0.037	-0.448
-204.392	410.865	0.095	-0.198
-203.377	-176.893	0.131	-0.003
-202.363	-130.940	-0.330	-0.043
-201.348	-12.842	0.287	-0.184
-200.333	-134.351	-0.142	0.017
-199.319	68.622	0.066	-0.067
-198.304	245.703	-0.030	0.050
-197.290	-200.000	-0.045	-0.192
-196.275	-174.758	-0.388	-0.011
-195.260	-200.000	0.006	0.238
-194.246	800.000	0.034	-0.119
-193.231	73.998	-0.187	-0.193
-192.217	-43.415	0.380	-0.189
-191.202	-143.133	-0.291	-0.028
-190.187	305.971	-0.096	-0.175
-189.173	5.396	0.030	0.022
-188.158	-115.105	0.264	-0.049
-187.144	-128.429	-0.204	0.028
-186.129	-200.000	-0.013	-0.090
-185.114	-149.720	0.048	0.004
-184.100	12.814	0.028	0.021
-183.085	-200.000	-0.019	-0.269
-182.071	-100.143	0.370	0.090
-181.056	36.874	-0.147	0.128
-180.042	-97.083	-0.145	-0.037
-179.027	800.000	0.061	-0.239
-178.012	34.104	-0.210	-0.180
-176.998	616.596	-0.081	0.201
-175.983	340.947	0.137	0.263
-174.969	-162.031	0.270	0.013
-173.954	60.339	0.104	0.101
-172.939	-102.280	0.235	0.055
-171.925	800.000	-0.056	-0.197
-170.910	531.947	0.063	0.146
-169.896	800.000	-0.070	-0.199
-168.881	493.534	0.042	0.095
-167.866	-200.000	0.027	0.296
-166.852	-141.213	0.365	-0.036
-165.837	-115.105	-0.329	0.061
-164.823	12.778	-0.083	0.063
-163.808	-108.556	-0.100	-0.021
-162.793	-200.000	0.059	0.372
-161.779	-200.000	0.009	0.425
-160.764	31.577	0.041	-0.035
-159.750	-155.376	-0.054	0.003
-158.735	-187.576	-0.216	-0.003
-157.720	-11.555	0.244	0.158
-156.706	-30.038	-0.194	0.109
-155.691	-86.411	-0.055	-0.017
-154.677	378.923	-0.161	0.323
-153.662	-84.867	0.109	0.034
-152.647	-200.000	-0.051	-0.315
-151.633	-54.414	0.095	0.042
-150.618	43.996	0.183	-0.164
-149.604	-68.503	-0.435	-0.165
-148.589	-200.000	-0.019	0.098
-147.574	190.914	-0.104	-0.153
-146.560	-200.000	-0.067	0.396
-145.545	800.000	0.121	0.497
-144.531	800.000	-0.125	0.371
-143.516	-19.170	0.156	0.095
-142.502	52.447	0.114	-0.107
-141.487	-122.036	0.105	0.017
-140.472	74.481	0.233	-0.241
-139.458	800.000	0.033	-0.120
-138.443	22.470	-0.085	-0.068
-137.429	472.671	0.116	0.256
-136.414	-200.000	-0.025	-0.141
-135.399	-200.000	-0.005	0.066
-134.385	-50.534	0.068	-0.031
-133.370	64.055	0.213	0.210
-132.356	-90.685	-0.352	0.100
-131.341	800.000	-0.084	-0.278
-130.326	-19.445	-0.417	0.253
-129.312	429.348	-0.025	0.053
-128.297	196.758	0.069	0.103
-127.283	-200.000	0.030	-0.175
-126.268	800.000	0.020	-0.069
-125.253	-121.750	-0.157	0.025
-124.239	162.278	-0.143	-0.197
-123.224	-79.464	0.350	0.116
-122.210	-200.000	-0.010	0.077
-121.195	168.571	0.075	-0.104
-120.180	-103.125	0.119	0.028
-119.166	53.924	0.208	0.196
-118.151	-73.488	0.048	-0.017
-117.137	-80.879	-0.038	0.012
-116.122	-71.605	0.157	0.058
-115.107	104.938	-0.116	0.134
-114.093	546.658	0.096	0.225
-113.078	800.000	-0.080	-0.279
-112.064	-81.610	0.143	-0.046
-111.049	35.217	0.129	-0.111
-110.034	-200.000	-0.005	0.111
-109.020	403.564	-0.096	-0.198
-108.005	-200.000	0.006	0.128
-106.991	-100.676	0.163	-0.039
-105.976	61.694	0.037	0.036
-104.962	-64.865	0.265	0.105
-103.947	192.649	0.086	-0.128
-102.932	-128.580	0.249	-0.035
-101.918	-111.130	-0.325	-0.065
-100.903	-100.335	0.216	0.052
-99.889	-200.000	-0.005	0.275
-98.874	-62.111	0.090	0.037
-97.859	-77.799	0.256	-0.087
-96.845	-200.000	-0.003	0.110
-95.830	800.000	-0.031	-0.128
-94.816	800.000	0.086	0.336
-93.801	-200.000	-0.007	-0.149
-92.786	-6.151	0.079	-0.053
-91.772	-165.602	0.094	0.004
-90.757	508.624	0.096	0.218
-89.743	-89.115	0.103	-0.030
-88.728	130.824	-0.188	0.236
-87.713	-102.950	0.176	0.041
-86.699	-64.401	-0.239	-0.095
-85.684	-20.464	-0.258	0.155
-84.670	-33.204	-0.351	-0.191
-83.655	-176.712	-0.124	-0.003
-82.640	-30.724	0.236	0.130
-81.626	-41.369	0.238	-0.120
-80.611	-94.947	0.214	-0.057
-79.597	-75.082	-0.130	-0.046
-78.582	372.571	0.101	-0.201
-77.567	591.789	-0.045	-0.110
-76.553	-24.467	-0.201	0.117
-75.538	800.000	-0.078	0.256
-74.524	800.000	-0.031	-0.125
-73.509	-94.041	-0.329	0.088
-72.494	-17.309	0.253	-0.156
-71.480	-108.843	-0.140	-0.029
-70.465	588.647	0.145	-0.351
-69.451	-121.507	0.447	-0.073
-68.436	-26.517	0.057	-0.033
-67.422	58.701	0.053	0.051
-66.407	-27.014	0.289	-0.165
-65.392	245.131	0.090	0.148
-64.378	90.118	-0.220	-0.240
-63.363	398.347	-0.156	0.319
-62.349	-68.819	-0.163	0.062
-61.334	88.153	-0.864	-0.937
-60.319	112.358	0.561	0.663
-59.305	500.699	-0.524	-1.181
-58.290	272.637	0.790	1.364
-57.276	575.291	0.565	1.348
-56.261	-200.000	116.874	655.411
-55.246	517.708	1539.473	3520.497
-54.232	174.139	2721.663	3843.627
-53.217	100.660	2301.772	2613.638
-52.203	35.862	1906.631	1638.858
-51.188	29.858	1696.483	1412.502
-50.173	27.506	1654.105	1359.628
-49.159	48.701	1711.277	1568.060
-48.144	47.009	1725.679	1568.368
-47.130	29.332	1683.083	1397.133
-46.115	26.732	1668.572	1365.478
-45.100	26.563	1663.535	1360.026
-44.086	26.650	1660.835	1358.421
-43.071	26.473	1658.873	1355.437
-42.057	26.546	1655.554	1353.214
-41.042	26.529	1654.059	1351.809
-40.027	26.551	1652.283	1350.469
-39.013	26.522	1649.913	1348.267
-37.998	26.555	1648.371	1347.198
-36.984	26.542	1646.630	1345.624
-35.969	26.699	1645.425	1345.753
-34.954	26.727	1643.473	1344.310
-33.940	26.733	1642.214	1343.271
-32.925	26.689	1640.416	1341.423
-31.911	26.627	1638.715	1339.515
-30.896	26.688	1636.721	1338.289
-29.881	26.683	1635.383	1337.104
-28.867	26.718	1633.305	1335.609
-27.852	26.676	1632.160	1334.309
-26.838	26.660	1630.873	1333.085
-25.823	26.673	1629.422	1331.942
-24.809	26.705	1628.367	1331.262
-23.794	26.732	1626.533	1329.908
-22.779	26.647	1625.646	1328.506
-21.765	26.785	1623.425	1327.649
-20.750	26.656	1622.168	1325.626
-19.736	26.699	1620.960	1324.901
-18.721	26.650	1619.554	1323.339
-17.706	26.685	1618.095	1322.351
-16.692	26.705	1616.190	1320.888
-15.677	26.737	1614.862	1319.985
-14.663	26.791	1613.447	1319.167
-13.648	26.805	1612.017	1318.047
-12.633	26.705	1610.968	1316.413
-11.619	26.728	1609.071	1314.979
-10.604	26.652	1607.990	1313.493
-9.590	26.687	1606.334	1312.335
-8.575	26.763	1604.711	1311.509
-7.560	26.810	1603.466	1310.782
-6.546	26.700	1603.319	1309.812
-5.531	26.771	1601.578	1308.849
-4.517	26.696	1600.437	1307.329
-3.502	26.695	1599.489	1306.495
-2.487	26.804	1597.353	1305.479
-1.473	26.472	1585.830	1293.638
-0.458	23.823	1566.324	1258.936
0.556	21.208	1569.090	1228.683
1.571	19.110	1593.248	1232.482
2.586	18.687	1605.476	1238.779
3.600	16.542	1550.622	1181.382
4.615	9.750	1442.885	1054.914
5.629	4.202	1383.784	976.733
6.644	3.427	1376.558	966.693
7.659	3.144	1376.194	964.576
8.673	3.295	1374.979	964.583
9.688	3.384	1372.278	963.162
10.702	3.280	1369.845	960.719
11.717	5.851	1374.423	979.922
12.731	13.060	1387.628	1034.573
13.746	19.113	1397.215	1079.709
14.761	20.394	1398.519	1088.657
15.775	19.607	1396.905	1082.374
16.790	18.657	1393.848	1073.971
17.804	17.883	1391.912	1067.541
18.819	17.556	1390.255	1064.134
19.834	17.267	1389.629	1061.756
20.848	17.168	1388.354	1060.069
21.863	16.992	1386.900	1057.768
22.877	16.932	1385.556	1056.275
23.892	16.822	1384.559	1054.741
24.907	16.702	1384.476	1053.834
25.921	16.760	1383.314	1053.215
26.936	16.901	1381.786	1052.840
27.950	16.924	1381.111	1052.370
28.965	16.991	1380.141	1051.954
29.980	17.103	1378.687	1051.451
30.994	17.203	1377.774	1051.278
32.009	17.189	1377.038	1050.536
33.023	17.237	1375.412	1049.500
34.038	17.115	1374.081	1047.636
35.053	17.039	1372.957	1046.221
36.067	17.004	1372.044	1045.215
37.082	16.997	1370.943	1044.242
38.096	17.031	1370.178	1043.776
39.111	17.118	1369.202	1043.475
40.126	16.981	1368.545	1042.039
41.140	16.805	1366.795	1039.534
42.155	16.635	1366.851	1038.441
43.169	16.597	1366.690	1037.998
44.184	16.668	1365.914	1037.749
45.199	16.704	1365.237	1037.367
46.213	16.794	1365.471	1038.003
47.228	16.968	1364.448	1038.198
48.242	16.956	1362.934	1036.882
49.257	16.883	1361.617	1035.339
50.271	16.934	1360.302	1034.561
51.286	16.914	1359.363	1033.631
52.301	16.959	1357.738	1032.581
53.315	16.784	1357.070	1030.916
54.330	16.819	1355.589	1029.912
55.344	16.715	1354.354	1028.252
56.359	16.724	1353.234	1027.365
57.374	16.688	1352.527	1026.519
58.388	16.514	1351.676	1024.724
59.403	16.576	1351.215	1024.660
60.417	16.670	1350.501	1024.601
61.432	16.536	1349.711	1023.097
62.447	16.619	1347.844	1022.095
63.461	16.576	1347.022	1021.121
64.476	16.537	1345.964	1019.996
65.490	16.587	1344.607	1019.178
66.505	16.502	1343.371	1017.638
67.520	16.563	1341.724	1016.667
68.534	16.609	1341.182	1016.441
69.549	16.515	1340.199	1015.046
70.563	16.442	1339.260	1013.806
71.578	16.407	1337.511	1012.181
72.593	16.417	1336.157	1011.130
73.607	16.388	1335.833	1010.619
74.622	16.381	1335.042	1009.890
75.636	16.480	1334.463	1009.956
76.651	16.429	1333.826	1009.077
77.666	16.445	1333.654	1008.953
78.680	16.361	1333.102	1007.945
79.695	16.486	1332.408	1008.077
80.709	16.580	1331.874	1008.146
81.724	16.754	1330.694	1008.198
82.739	16.825	1329.784	1007.843
83.753	16.779	1329.546	1007.295
84.768	16.901	1328.328	1007.010
85.782	17.010	1327.380	1006.852
86.797	16.999	1325.550	1005.305
87.812	16.860	1324.452	1003.560
88.826	16.862	1324.051	1003.180
89.841	16.931	1322.399	1002.249
90.855	16.943	1321.589	1001.620
91.870	17.062	1320.527	1001.429
92.884	17.008	1320.104	1000.697
93.899	17.102	1318.731	1000.121
94.914	17.143	1318.432	1000.051
95.928	17.136	1317.439	999.165
96.943	17.075	1316.351	997.896
97.957	17.007	1315.218	996.549
98.972	17.008	1314.492	995.916
99.987	17.010	1313.705	995.240
101.001	17.040	1312.431	994.366
102.016	17.061	1311.283	993.529
103.030	17.095	1310.899	993.349
104.045	16.897	1309.927	991.367
105.060	17.016	1308.031	990.543
106.074	16.771	1306.507	987.870
107.089	16.623	1305.215	985.945
108.103	16.594	1303.824	984.636
109.118	16.518	1302.725	983.279
110.133	16.508	1301.313	982.066
111.147	16.580	1300.038	981.436
112.162	16.585	1298.651	980.333
113.176	16.660	1297.516	979.823
114.191	16.742	1296.682	979.582
115.206	16.800	1295.189	978.698
116.220	16.623	1294.113	976.777
117.235	16.695	1293.379	976.552
118.249	16.605	1292.600	975.358
119.264	16.723	1290.724	974.534
120.279	16.506	1289.906	972.584
121.293	16.477	1288.588	971.336
122.308	16.505	1287.479	970.578
123.322	16.521	1286.363	969.744
124.337	16.421	1285.545	968.467
125.352	16.343	1284.530	967.169
126.366	16.474	1283.312	966.919
127.381	16.451	1282.829	966.333
128.395	16.453	1280.938	964.838
129.410	16.477	1280.457	964.524
130.424	16.431	1280.095	963.905
131.439	16.609	1278.819	963.876
132.454	16.608	1278.153	963.281
133.468	16.575	1277.307	962.371
134.483	16.747	1276.583	962.719
135.497	16.697	1275.303	961.385
136.512	16.646	1274.160	960.148
137.527	16.661	1272.847	959.158
138.541	16.706	1271.163	958.060
139.556	16.926	1269.900	958.267
140.570	16.887	1269.272	957.487
141.585	16.935	1268.172	956.840
142.600	16.845	1267.356	955.635
143.614	17.102	1265.906	955.903
144.629	17.111	1265.115	955.273
145.643	17.142	1263.728	954.316
146.658	16.934	1262.897	952.433
147.673	16.850	1261.260	950.647
148.687	16.705	1260.160	948.922
149.702	16.639	1258.972	947.569
150.716	16.692	1257.395	946.598
151.731	16.725	1256.351	945.912
152.746	16.814	1255.268	945.509
153.760	16.823	1254.485	944.886
154.775	16.864	1253.095	943.982
155.789	16.992	1251.854	943.678
156.804	17.109	1251.019	943.615
157.819	17.028	1250.758	942.882
158.833	17.200	1249.227	942.602
159.848	17.174	1248.566	941.876
160.862	17.238	1247.369	941.245
161.877	16.948	1246.463	938.872
162.892	16.814	1245.108	937.027
163.906	16.790	1244.762	936.552
164.921	16.871	1243.230	935.762
165.935	16.940	1242.639	935.615
166.950	17.013	1241.899	935.378
167.964	16.902	1241.423	934.326
168.979	16.920	1240.492	933.642
169.994	16.871	1239.862	932.816
171.008	17.014	1238.711	932.651
172.023	17.067	1238.148	932.434
173.037	17.131	1237.613	932.303
174.052	17.119	1236.675	931.449
175.067	17.026	1235.104	929.671
176.081	16.896	1234.287	928.262
177.096	16.818	1233.577	927.221
178.110	16.876	1232.228	926.441
179.125	16.973	1230.805	925.817
180.140	17.049	1229.433	925.119
181.154	17.011	1228.663	924.251
182.169	17.130	1227.242	923.749
183.183	17.270	1226.321	923.735
184.198	17.255	1225.636	923.055
185.213	17.186	1224.172	921.495
186.227	17.418	1222.540	921.444
187.242	17.354	1221.548	920.268
188.256	17.322	1221.316	919.838
189.271	17.429	1219.693	919.112
190.286	17.249	1219.051	917.575
191.300	17.023	1217.955	915.450
192.315	16.949	1217.390	914.544
193.329	16.968	1216.348	913.784
194.344	17.091	1215.918	914.044
195.359	17.133	1215.020	913.511
196.373	17.217	1214.805	913.723
197.388	17.241	1214.387	913.454
198.402	17.526	1214.184	914.750
199.417	17.518	1213.621	914.202
200.432	17.571	1212.882	913.850
201.446	17.673	1211.935	913.606
202.461	17.695	1211.371	913.219
203.475	17.711	1210.201	912.342
204.490	17.361	1209.267	909.682
205.504	17.443	1207.167	908.462
206.519	17.435	1206.642	907.940
207.534	17.345	1205.147	906.255
208.548	17.466	1203.870	905.861
209.563	17.458	1203.419	905.399
210.577	17.460	1202.801	904.866
211.592	17.659	1201.692	905.004
212.607	17.597	1201.134	904.178
213.621	17.675	1200.274	903.862
214.636	17.686	1199.187	903.024
215.650	17.616	1198.404	901.985
216.665	17.669	1197.668	901.633
217.680	17.811	1196.932	901.744
218.694	17.834	1195.849	900.971
219.709	17.767	1195.083	899.962
220.723	17.820	1194.157	899.466
221.738	17.820	1193.260	898.708
222.753	17.759	1192.631	897.837
223.767	17.945	1191.778	898.092
224.782	17.913	1191.411	897.566
225.796	17.949	1191.164	897.489
226.811	17.934	1190.015	896.469
227.826	17.740	1189.377	894.891
228.840	17.880	1188.152	894.623
229.855	17.747	1187.877	893.637
230.869	17.740	1187.086	892.929
231.884	17.741	1186.189	892.182
232.899	17.621	1185.571	891.010
233.913	17.622	1184.301	889.982
234.928	17.534	1184.113	889.300
235.942	17.702	1182.737	889.064
236.957	17.558	1182.148	887.793
237.972	17.606	1181.728	887.649
238.986	17.589	1181.212	887.097
240.001	17.742	1179.977	886.884
241.015	17.756	1179.193	886.287
242.030	17.692	1178.743	885.541
243.045	17.953	1177.562	885.929
244.059	17.909	1176.839	885.080
245.074	17.873	1176.391	884.476
246.088	17.970	1175.317	884.092
247.103	17.957	1174.758	883.525
248.117	18.098	1173.492	883.224
249.132	18.236	1173.241	883.672
250.147	18.321	1172.949	883.811
251.161	18.374	1172.010	883.301
252.176	18.434	1171.431	883.092
253.190	18.419	1170.714	882.400
254.205	18.500	1170.216	882.363
255.220	18.668	1169.591	882.674
256.234	18.585	1168.945	881.683
257.249	18.494	1168.503	880.807
258.263	18.564	1167.435	880.281
259.278	18.612	1166.711	879.906
260.293	18.646	1166.214	879.626
261.307	18.620	1165.639	878.980
262.322	18.669	1165.258	878.867
263.336	18.561	1164.332	877.537
264.351	18.632	1163.882	877.484
265.366	18.684	1163.162	877.128
266.380	18.734	1162.241	876.612
267.395	18.617	1161.581	875.440
268.409	18.442	1160.824	873.900
269.424	18.588	1160.169	874.073
270.439	18.504	1159.125	872.783
271.453	18.552	1158.447	872.438
272.468	18.510	1158.167	871.934
273.482	18.447	1156.928	870.608
274.497	18.389	1156.427	869.856
275.512	18.429	1156.015	869.675
276.526	18.489	1155.004	869.142
277.541	18.603	1154.371	869.165
278.555	18.666	1153.269	868.577
279.570	18.604	1152.917	867.924
280.585	18.750	1152.369	868.169
281.599	18.917	1150.872	867.808
282.614	18.720	1149.725	865.873
283.628	18.741	1148.762	865.177
284.643	18.614	1148.169	864.014
285.657	18.607	1147.534	863.427
286.672	18.762	1146.100	863.048
287.687	18.715	1145.807	862.514
288.701	18.744	1144.798	861.828
289.716	18.764	1144.130	861.347
290.730	18.629	1143.598	860.196
291.745	18.725	1142.858	860.040
292.760	18.812	1141.879	859.663
293.774	18.808	1141.858	859.555
294.789	18.917	1141.073	859.429
295.803	18.929	1140.572	859.036
296.818	18.847	1139.572	857.799
297.833	18.879	1138.666	857.200
298.847	18.856	1137.966	856.482
299.862	18.881	1137.143	855.911
300.876	18.978	1136.372	855.739
301.891	19.004	1135.772	855.340
302.906	19.074	1134.893	854.951
303.920	19.180	1134.301	854.957
304.935	19.221	1134.242	855.038
305.949	19.271	1133.894	854.948
306.964	19.383	1132.637	854.482
307.979	19.225	1131.443	852.720
308.993	19.217	1131.103	852.349
310.008	19.173	1130.737	851.782
311.022	19.228	1129.642	851.154
312.037	19.267	1128.651	850.523
313.052	19.117	1127.846	849.103
314.066	19.043	1126.636	847.752
315.081	18.943	1125.823	846.571
316.095	18.951	1125.045	845.951
317.110	18.960	1124.569	845.564
318.125	18.980	1123.903	845.085
319.139	19.081	1122.612	844.538
320.154	18.905	1122.413	843.448
321.168	18.954	1122.024	843.323
322.183	18.970	1121.593	842.999
323.197	19.123	1120.483	842.843
324.212	19.202	1119.438	842.366
325.227	19.141	1119.427	841.986
326.241	19.156	1118.670	841.417
327.256	19.140	1117.676	840.515
328.270	18.996	1116.606	838.932
329.285	19.030	1116.021	838.585
330.300	19.025	1115.174	837.849
331.314	19.171	1114.203	837.757
332.329	19.043	1113.063	836.202
333.343	18.994	1112.820	835.709
334.358	19.235	1111.485	835.802
335.373	19.236	1110.892	835.289
336.387	19.284	1110.004	834.781
337.402	19.329	1109.522	834.562
338.416	19.393	1108.732	834.202
339.431	19.440	1107.936	833.757
340.446	19.589	1107.485	834.065
341.460	19.606	1106.770	833.535
342.475	19.592	1106.230	832.985
343.489	19.608	1105.307	832.293
344.504	19.672	1104.572	831.974
345.519	19.877	1103.167	831.829
346.533	19.861	1102.763	831.371
347.548	19.775	1101.932	830.262
348.562	19.868	1101.091	830.001
349.577	19.641	1100.060	828.062
350.592	19.546	1099.524	827.128
351.606	19.486	1098.849	826.258
352.621	19.421	1097.928	825.185
353.635	19.480	1097.392	824.991
354.650	19.548	1096.415	824.508
355.665	19.471	1095.787	823.596
356.679	19.574	1094.998	823.421
357.694	19.643	1094.785	823.514
358.708	19.712	1094.263	823.377
359.723	19.655	1093.624	822.551
360.738	19.730	1092.731	822.164
361.752	19.696	1092.179	821.516
362.767	19.761	1091.843	821.501
363.781	19.723	1091.128	820.706
364.796	19.796	1090.763	820.710
365.810	19.909	1090.043	820.631
366.825	20.030	1089.270	820.546
367.840	20.154	1088.838	820.738
368.854	20.190	1088.501	820.582
369.869	20.091	1087.917	819.600
370.883	20.080	1086.893	818.703
371.898	19.903	1086.353	817.386
372.913	19.900	1085.456	816.629
373.927	20.028	1085.008	816.824
374.942	20.141	1084.479	816.881
375.956	20.129	1083.788	816.232
376.971	20.076	1083.378	815.604
377.986	20.111	1082.719	815.202
379.000	20.171	1082.262	815.066
380.015	20.304	1081.730	815.220
381.029	20.381	1080.742	814.763
382.044	20.340	1080.037	813.965
383.059	20.187	1079.625	812.867
384.073	20.281	1078.301	812.240
385.088	20.288	1077.947	811.934
386.102	20.202	1076.935	810.698
387.117	20.292	1075.467	809.941
388.132	20.148	1074.683	808.607
389.146	20.110	1074.155	807.957
390.161	20.102	1073.337	807.238
391.175	20.152	1072.574	806.824
392.190	20.291	1071.739	806.769
393.205	20.271	1071.132	806.148
394.219	20.190	1070.587	805.291
395.234	20.158	1069.697	804.402
396.248	20.180	1068.396	803.452
397.263	20.142	1067.819	802.776
398.278	20.179	1066.927	802.202
399.292	20.044	1066.290	801.030
400.307	20.091	1065.397	800.503
401.321	20.043	1064.854	799.804
402.336	20.076	1064.133	799.343
403.350	20.182	1063.154	799.028
404.365	20.089	1062.528	798.057
405.380	20.121	1061.835	797.614
406.394	20.307	1061.055	797.813
407.409	20.334	1060.272	797.276
408.423	20.434	1060.015	797.470
409.438	20.625	1059.202	797.667
410.453	20.538	1058.319	796.533
411.467	20.657	1057.897	796.690
412.482	20.564	1057.232	795.691
413.496	20.731	1056.453	795.800
414.511	20.766	1055.584	795.233
415.526	20.845	1055.371	795.365
416.540	20.941	1055.249	795.638
417.555	20.811	1054.734	794.586
418.569	20.686	1054.112	793.478
419.584	20.733	1053.724	793.331
420.599	20.751	1053.037	792.823
421.613	155.481	1404.528	1797.658
422.628	142.685	1455.678	1797.764
