DTS Sentinel unit serial number:	SN413079Multiplexer serial number:	ORYXHardware model number:	OX4-SRSoftware version number:	ORYX F/W v4.00 Oryx Data Collector v3.7.2.0data status	okinstallation	princeton_trtdifferential loss correction	single-endedforward channel	channel 2reverse channel	N/Adate	2019/09/18time	10:15:35forward acquisition time	60.00reverse acquisition time	0.00gamma	496.2192k internal	0.2333k external	0.2333temperature offset calibration	0.9981default loss term (dB/km)	0.3790temperature slope calibration	1.0000multiplexer offset coefficient	1.0000multiplexer slope coefficient	1.0000fibre end	0.00T internal ref (°C)	27.94T ext. ref 1 (°C)	0.33T ext. ref 2 (°C)	24.26length (m)	temperature (°C)	Stokes	anti-Stokes-747.200	800.000	-0.098	0.290
-746.185	-25.901	0.251	0.149
-745.171	800.000	0.136	0.379
-744.156	-189.940	-0.213	0.002
-743.142	-60.854	0.200	-0.085
-742.127	-92.586	-0.477	0.135
-741.112	-27.129	0.437	0.256
-740.098	-200.000	-0.085	0.438
-739.083	42.262	0.128	-0.117
-738.069	-127.844	-0.142	-0.021
-737.054	26.023	-0.052	-0.043
-736.039	-61.917	-0.197	-0.083
-735.025	552.106	-0.140	-0.339
-734.010	-3.579	0.146	-0.102
-732.996	106.762	-0.212	-0.253
-731.981	90.118	-0.208	0.234
-730.966	22.395	-0.171	-0.141
-729.952	-148.158	0.045	0.004
-728.937	-67.652	0.125	0.049
-727.923	70.807	-0.045	0.046
-726.908	800.000	0.071	-0.254
-725.894	-200.000	-0.113	-0.702
-724.879	-200.000	0.064	-0.357
-723.864	-29.953	0.255	0.146
-722.850	416.352	0.012	0.027
-721.835	39.794	0.059	-0.053
-720.821	-55.271	0.083	-0.037
-719.806	-200.000	-0.017	0.224
-718.791	-79.230	-0.093	-0.032
-717.777	-169.853	-0.174	0.006
-716.762	-2.999	-0.019	0.013
-715.748	-200.000	-0.019	0.142
-714.733	178.546	-0.106	0.156
-713.718	193.262	-0.244	-0.370
-712.704	250.331	0.073	-0.125
-711.689	-132.780	0.411	-0.053
-710.675	-200.000	0.036	-0.304
-709.660	-200.000	0.031	-0.208
-708.645	-109.651	-0.169	0.036
-707.631	-200.000	0.025	-0.111
-706.616	-200.000	0.006	0.099
-705.602	137.767	-0.116	-0.153
-704.587	800.000	-0.076	0.267
-703.572	-200.000	0.026	0.185
-702.558	80.147	0.259	-0.280
-701.543	-200.000	0.068	-0.424
-700.529	104.654	0.059	-0.070
-699.514	181.813	-0.152	0.225
-698.499	800.000	-0.060	0.216
-697.485	6.058	0.168	-0.125
-696.470	-16.121	0.287	-0.183
-695.456	-200.000	-0.029	0.317
-694.441	-29.737	0.180	0.103
-693.426	-119.675	-0.197	0.034
-692.412	-96.282	-0.260	-0.069
-691.397	-200.000	-0.031	-0.180
-690.383	800.000	-0.025	-0.085
-689.368	459.329	0.129	-0.287
-688.354	144.784	-0.093	0.124
-687.339	69.001	-0.195	-0.201
-686.324	-115.703	-0.127	-0.024
-685.310	656.133	-0.074	-0.191
-684.295	-64.057	-0.096	0.039
-683.281	345.641	-0.095	-0.187
-682.266	240.625	0.181	0.303
-681.251	36.805	0.109	0.097
-680.237	-200.000	0.009	-0.080
-679.222	6.225	-0.215	0.160
-678.208	-200.000	0.003	-0.029
-677.193	-200.000	-0.002	-0.189
-676.178	31.978	-0.160	-0.138
-675.164	-200.000	-0.075	-0.388
-674.149	28.150	-0.127	-0.107
-673.135	-34.448	-0.081	-0.045
-672.120	-93.753	0.338	0.094
-671.105	-75.095	-0.261	0.094
-670.091	55.623	0.024	0.024
-669.076	43.581	0.096	0.088
-668.062	-200.000	0.035	0.314
-667.047	-14.650	0.204	-0.131
-666.032	-200.000	0.003	0.045
-665.018	44.791	0.174	-0.160
-664.003	-92.315	-0.104	0.029
-662.989	-124.055	-0.158	0.025
-661.974	-200.000	0.010	0.057
-660.959	217.815	0.062	-0.100
-659.945	-101.287	-0.342	-0.084
-658.930	49.234	0.168	0.158
-657.916	71.484	0.170	-0.176
-656.901	-99.459	-0.148	0.037
-655.886	-159.453	-0.142	-0.008
-654.872	-24.189	0.211	0.126
-653.857	-52.059	-0.271	-0.126
-652.843	-9.501	0.094	-0.063
-651.828	-8.355	-0.102	-0.069
-650.814	55.787	0.068	-0.066
-649.799	299.142	0.113	-0.209
-648.784	72.277	-0.048	0.050
-647.770	800.000	0.022	0.066
-646.755	-141.416	0.294	0.030
-645.741	-67.880	-0.140	0.055
-644.726	243.378	0.028	0.048
-643.711	-16.679	-0.067	0.042
-642.697	-110.114	0.122	-0.026
-641.682	154.044	0.135	-0.186
-640.668	-200.000	0.003	-0.019
-639.653	-200.000	0.028	-0.311
-638.638	38.863	0.100	-0.089
-637.624	-181.550	-0.118	0.002
-636.609	-104.064	-0.245	-0.057
-635.595	683.061	-0.117	-0.305
-634.580	57.641	0.141	-0.138
-633.565	650.092	0.067	0.172
-632.551	21.415	0.222	-0.180
-631.536	381.594	0.168	-0.345
-630.522	93.150	-0.157	0.177
-629.507	-149.286	-0.151	0.012
-628.492	412.842	0.206	-0.437
-627.478	65.866	0.124	0.125
-626.463	-103.176	0.055	0.013
-625.449	-58.012	0.128	0.056
-624.434	37.769	-0.300	0.267
-623.419	-200.000	-0.028	-0.144
-622.405	24.215	0.011	0.009
-621.390	40.622	0.042	-0.038
-620.376	53.159	0.082	-0.079
-619.361	402.094	-0.090	-0.188
-618.346	-23.435	-0.249	-0.150
-617.332	-111.457	0.344	0.070
-616.317	-200.000	0.064	0.285
-615.303	-162.175	-0.152	0.008
-614.288	-108.563	0.072	0.015
-613.273	80.197	0.088	0.095
-612.259	-105.058	0.102	0.023
-611.244	-200.000	0.000	0.033
-610.230	-159.578	-0.090	-0.005
-609.215	800.000	-0.138	0.541
-608.201	-200.000	-0.060	0.310
-607.186	287.237	0.029	-0.053
-606.171	730.355	0.030	0.079
-605.157	-166.593	-0.315	0.013
-604.142	-200.000	0.002	0.234
-603.128	647.656	0.075	0.192
-602.113	-110.417	0.192	0.040
-601.098	21.488	0.076	0.062
-600.084	-50.735	-0.188	-0.088
-599.069	-21.985	-0.167	-0.102
-598.055	-121.058	0.108	0.018
-597.040	-200.000	-0.004	0.057
-596.025	418.427	-0.181	0.388
-595.011	-74.847	-0.163	-0.059
-593.996	66.845	-0.165	-0.168
-592.982	-200.000	-0.003	-0.066
-591.967	-200.000	0.023	-0.360
-590.952	-141.460	-0.222	-0.022
-589.938	140.100	-0.208	0.274
-588.923	46.555	0.124	-0.115
-587.909	-17.614	-0.106	0.066
-586.894	44.219	0.099	-0.091
-585.879	121.391	-0.104	0.129
-584.865	-122.586	-0.208	0.034
-583.850	165.639	-0.036	-0.052
-582.836	632.370	0.053	-0.133
-581.821	-200.000	0.075	0.347
-580.806	-200.000	-0.045	-0.242
-579.792	117.148	0.218	-0.268
-578.777	-196.302	-0.011	0.000
-577.763	-74.262	-0.083	0.030
-576.748	-200.000	-0.026	-0.175
-575.733	-47.880	-0.442	-0.214
-574.719	-38.485	0.060	0.032
-573.704	41.390	-0.282	-0.255
-572.690	-103.760	-0.192	-0.045
-571.675	52.203	-0.186	0.177
-570.661	440.721	-0.062	-0.136
-569.646	800.000	0.026	0.102
-568.631	27.494	0.282	0.237
-567.617	-163.456	0.073	0.003
-566.602	-12.799	0.324	-0.211
-565.588	-21.147	-0.278	0.170
-564.573	-130.362	0.048	0.006
-563.558	-200.000	0.042	-0.313
-562.544	-121.650	0.080	-0.013
-561.529	-45.060	-0.373	-0.185
-560.515	-200.000	-0.002	-0.104
-559.500	-200.000	-0.006	0.189
-558.485	205.473	-0.142	-0.220
-557.471	800.000	0.070	0.237
-556.456	-200.000	0.011	-0.336
-555.442	800.000	-0.030	0.084
-554.427	348.549	0.099	-0.194
-553.412	639.643	-0.131	-0.332
-552.398	800.000	-0.033	-0.108
-551.383	800.000	-0.008	-0.033
-550.369	-200.000	0.001	0.181
-549.354	102.854	-0.177	0.207
-548.339	-156.617	0.277	0.017
-547.325	-200.000	-0.044	0.351
-546.310	-118.249	-0.306	-0.054
-545.296	800.000	0.020	0.082
-544.281	-200.000	-0.014	-0.244
-543.266	148.084	0.125	-0.168
-542.252	-22.374	-0.174	0.105
-541.237	374.546	-0.122	0.248
-540.223	105.766	-0.119	0.141
-539.208	-106.984	0.310	0.068
-538.193	-71.243	0.091	0.034
-537.179	29.010	-0.263	-0.222
-536.164	52.926	-0.220	0.210
-535.150	553.055	0.052	0.124
-534.135	-93.280	0.351	0.097
-533.121	-43.103	-0.211	-0.107
-532.106	-48.778	-0.279	0.134
-531.091	-200.000	-0.042	0.296
-530.077	494.308	0.189	0.433
-529.062	68.214	-0.117	-0.120
-528.048	-149.061	0.119	-0.010
-527.033	-175.619	0.441	0.012
-526.018	800.000	-0.062	-0.195
-525.004	71.800	-0.139	0.144
-523.989	-90.867	-0.229	-0.066
-522.975	6.840	-0.174	0.129
-521.960	-135.843	-0.200	-0.024
-520.945	-125.985	-0.014	0.002
-519.931	-133.735	0.188	-0.023
-518.916	-76.092	-0.232	0.082
-517.902	-163.822	0.316	-0.015
-516.887	-79.235	0.354	0.120
-515.872	261.274	-0.322	0.555
-514.858	-200.000	-0.024	0.304
-513.843	-200.000	-0.012	-0.273
-512.829	140.827	-0.210	-0.276
-511.814	-27.847	-0.284	-0.164
-510.799	86.962	0.144	-0.159
-509.785	45.985	0.135	0.124
-508.770	58.706	-0.093	-0.091
-507.756	406.802	-0.053	-0.111
-506.741	218.494	-0.049	-0.078
-505.726	-200.000	-0.028	-0.155
-504.712	0.967	-0.215	0.154
-503.697	116.091	-0.156	-0.190
-502.683	-200.000	-0.047	0.316
-501.668	24.540	0.385	-0.317
-500.653	87.578	-0.177	-0.195
-499.639	-200.000	0.027	0.273
-498.624	-200.000	0.012	-0.128
-497.610	394.873	0.065	0.134
-496.595	86.230	0.059	0.064
-495.581	800.000	0.061	0.176
-494.566	-200.000	-0.042	-0.224
-493.551	800.000	-0.074	0.233
-492.537	166.084	0.054	-0.075
-491.522	125.125	-0.053	-0.066
-490.508	-101.032	0.132	-0.032
-489.493	-17.235	0.112	0.070
-488.478	-179.336	0.113	-0.002
-487.464	-55.244	0.161	-0.072
-486.449	214.287	0.052	0.081
-485.435	620.268	0.053	0.134
-484.420	-39.402	-0.410	-0.214
-483.405	207.387	-0.094	-0.145
-482.391	-178.781	0.325	-0.007
-481.376	-133.849	-0.424	0.052
-480.362	-164.972	-0.285	0.013
-479.347	-125.263	-0.264	-0.040
-478.332	-15.868	-0.232	0.147
-477.318	800.000	-0.026	0.089
-476.303	581.570	-0.057	-0.138
-475.289	-42.691	-0.050	0.025
-474.274	-37.590	0.131	0.069
-473.259	-62.231	-0.085	0.035
-472.245	283.682	0.082	0.146
-471.230	244.052	-0.098	0.164
-470.216	-89.393	0.295	0.086
-469.201	-90.013	0.163	0.047
-468.186	-100.822	0.063	-0.016
-467.172	-85.289	-0.192	-0.060
-466.157	-19.407	0.347	-0.214
-465.143	800.000	-0.072	-0.239
-464.128	-99.095	0.244	-0.061
-463.113	-175.539	0.129	-0.003
-462.099	19.454	0.169	-0.135
-461.084	-148.740	0.346	0.028
-460.070	387.946	-0.093	-0.191
-459.055	-59.037	0.226	0.097
-458.040	181.324	0.200	-0.292
-457.026	584.817	0.068	0.166
-456.011	-124.989	-0.192	0.029
-454.997	154.282	-0.111	-0.151
-453.982	-51.387	0.077	-0.036
-452.968	-135.646	-0.261	0.031
-451.953	-173.726	0.232	0.007
-450.938	-200.000	-0.022	0.246
-449.924	-200.000	0.036	0.261
-448.909	-67.396	0.090	0.035
-447.895	86.912	-0.141	0.155
-446.880	1.816	-0.216	0.155
-445.865	62.358	-0.131	0.130
-444.851	-18.078	-0.310	-0.193
-443.836	-127.038	0.147	0.021
-442.822	17.968	0.230	0.182
-441.807	-114.289	0.037	0.007
-440.792	-90.763	0.335	-0.096
-439.778	-41.227	-0.205	0.105
-438.763	56.925	-0.136	0.132
-437.749	-29.019	0.123	0.070
-436.734	403.961	-0.244	-0.510
-435.719	539.926	0.111	-0.263
-434.705	-190.965	0.178	-0.002
-433.690	-104.489	-0.184	-0.042
-432.676	132.660	0.124	0.159
-431.661	-115.485	0.147	-0.027
-430.646	800.000	0.034	0.094
-429.632	-200.000	-0.024	-0.130
-428.617	-48.853	-0.324	-0.154
-427.603	-200.000	0.006	0.379
-426.588	-44.489	0.143	0.071
-425.573	-71.620	-0.074	-0.027
-424.559	584.488	0.085	-0.207
-423.544	66.714	0.191	0.193
-422.530	-9.255	-0.212	-0.141
-421.515	-27.357	0.134	0.077
-420.500	-200.000	0.043	0.367
-419.486	-130.347	-0.187	-0.025
-418.471	-157.786	0.386	-0.023
-417.457	-200.000	-0.009	-0.215
-416.442	800.000	0.035	-0.127
-415.428	-64.277	-0.024	-0.010
-414.413	-72.550	-0.425	0.156
-413.398	84.690	-0.059	-0.064
-412.384	-97.581	0.229	-0.059
-411.369	800.000	-0.072	-0.228
-410.355	800.000	0.051	0.179
-409.340	209.390	0.085	-0.132
-408.325	-200.000	0.022	-0.331
-407.311	64.239	0.093	0.093
-406.296	-28.567	0.289	0.165
-405.282	-200.000	-0.004	0.258
-404.267	-200.000	-0.013	-0.083
-403.252	-200.000	-0.076	-0.483
-402.238	-129.900	0.137	0.019
-401.223	72.610	-0.098	0.102
-400.209	800.000	0.045	0.190
-399.194	-136.000	0.091	0.011
-398.179	575.523	0.047	0.113
-397.165	-24.384	-0.154	0.091
-396.150	109.531	-0.021	-0.025
-395.136	3.856	0.165	0.119
-394.121	290.721	0.183	-0.330
-393.106	-21.757	-0.258	0.156
-392.092	241.977	0.063	-0.104
-391.077	-43.218	0.093	0.047
-390.063	-63.417	0.106	0.043
-389.048	172.370	-0.052	0.074
-388.033	-82.672	0.236	0.076
-387.019	740.659	0.069	-0.183
-386.004	-76.029	-0.161	0.056
-384.990	-200.000	0.017	-0.141
-383.975	185.118	0.214	0.315
-382.960	16.286	-0.146	-0.114
-381.946	-200.000	-0.014	-0.140
-380.931	-106.801	-0.488	0.107
-379.917	-72.930	0.229	0.083
-378.902	-200.000	-0.031	-0.184
-377.888	800.000	0.131	0.363
-376.873	-60.087	0.352	0.149
-375.858	-58.618	0.319	0.137
-374.844	-149.932	0.081	0.006
-373.829	12.137	-0.178	-0.135
-372.815	1.424	-0.158	0.112
-371.800	233.212	-0.178	0.290
-370.785	-200.000	0.034	-0.273
-369.771	76.580	0.288	-0.302
-368.756	-79.612	-0.290	0.097
-367.742	-59.280	-0.387	-0.165
-366.727	-117.795	0.152	0.027
-365.712	195.441	0.099	0.149
-364.698	800.000	-0.049	-0.136
-363.683	278.497	-0.163	0.287
-362.669	-200.000	-0.054	-0.380
-361.654	284.073	0.100	0.178
-360.639	127.042	0.169	0.213
-359.625	800.000	-0.048	-0.177
-358.610	11.343	0.245	0.186
-357.596	23.102	-0.153	0.124
-356.581	-200.000	0.080	0.000
-355.566	-38.084	0.121	-0.064
-354.552	800.000	-0.072	-0.235
-353.537	800.000	0.019	0.051
-352.523	-141.965	-0.102	0.010
-351.508	-200.000	-0.033	-0.214
-350.493	800.000	0.040	-0.125
-349.479	142.250	-0.156	0.205
-348.464	344.512	-0.044	0.085
-347.450	54.850	0.112	0.107
-346.435	45.139	-0.171	0.156
-345.420	-132.573	-0.202	-0.026
-344.406	-77.420	-0.024	-0.008
-343.391	303.668	-0.120	0.221
-342.377	282.300	-0.061	0.109
-341.362	-71.442	-0.223	-0.083
-340.348	-48.590	0.376	0.179
-339.333	-18.921	0.281	0.173
-338.318	-65.330	0.052	-0.021
-337.304	143.108	0.211	0.278
-336.289	800.000	-0.108	-0.311
-335.275	-16.433	-0.389	-0.244
-334.260	-157.493	0.068	0.004
-333.245	-200.000	0.026	0.196
-332.231	126.275	0.169	0.212
-331.216	35.469	0.304	-0.264
-330.202	-88.022	0.108	0.032
-329.187	-28.809	0.239	0.136
-328.172	77.516	-0.028	0.030
-327.158	-50.745	-0.096	-0.045
-326.143	-30.918	-0.137	0.076
-325.129	-200.000	-0.000	-0.284
-324.114	-140.402	0.159	0.016
-323.099	-106.611	-0.214	0.047
-322.085	148.938	0.152	-0.203
-321.070	-125.187	0.067	-0.010
-320.056	-200.000	0.014	-0.200
-319.041	355.428	0.073	-0.144
-318.026	80.976	-0.237	0.253
-317.012	800.000	-0.041	-0.163
-315.997	-19.442	-0.265	-0.162
-314.983	-103.371	0.197	0.046
-313.968	-41.863	-0.336	-0.171
-312.953	-116.940	0.203	0.037
-311.939	-45.544	0.138	0.068
-310.924	419.084	-0.031	0.065
-309.910	177.100	0.135	-0.194
-308.895	-189.925	0.353	0.004
-307.880	-88.033	0.154	-0.046
-306.866	458.920	0.050	-0.110
-305.851	-96.769	-0.248	-0.064
-304.837	-188.596	-0.127	0.002
-303.822	-140.467	0.101	0.010
-302.807	-11.996	-0.156	-0.101
-301.793	-200.000	-0.020	-0.324
-300.778	800.000	-0.113	-0.462
-299.764	-200.000	-0.011	0.252
-298.749	-51.584	-0.192	0.089
-297.735	-2.176	-0.184	0.128
-296.720	605.702	0.116	-0.285
-295.705	244.788	0.087	-0.144
-294.691	129.071	-0.209	-0.264
-293.676	319.269	0.079	0.148
-292.662	92.005	-0.197	0.219
-291.647	378.366	-0.036	0.073
-290.632	-12.546	-0.131	0.084
-289.618	800.000	0.040	-0.129
-288.603	-200.000	0.026	-0.270
-287.589	197.459	0.237	-0.357
-286.574	-101.527	-0.215	0.052
-285.559	800.000	-0.048	-0.154
-284.545	-33.687	-0.219	0.119
-283.530	-47.183	-0.401	0.193
-282.516	-38.990	0.340	0.177
-281.501	28.114	0.074	0.061
-280.486	87.679	0.146	0.160
-279.472	75.549	-0.189	0.197
-278.457	-113.572	-0.095	0.018
-277.443	-81.554	-0.309	-0.100
-276.428	-112.793	0.086	-0.017
-275.413	109.038	-0.054	-0.064
-274.399	-74.056	-0.220	-0.079
-273.384	-200.000	0.042	0.195
-272.370	5.617	0.129	-0.094
-271.355	-200.000	-0.051	0.539
-270.340	-54.202	0.330	0.148
-269.326	-87.910	0.229	-0.068
-268.311	-85.109	-0.177	-0.055
-267.297	-200.000	0.019	-0.130
-266.282	-32.644	-0.224	-0.123
-265.267	-27.122	0.168	0.097
-264.253	246.712	0.111	-0.185
-263.238	-99.345	-0.132	-0.033
-262.224	199.853	-0.216	0.326
-261.209	-8.877	0.318	0.210
-260.195	467.953	0.095	0.211
-259.180	-77.413	0.341	0.117
-258.165	26.825	-0.488	-0.403
-257.151	800.000	-0.121	-0.459
-256.136	-29.594	0.241	-0.136
-255.122	738.273	0.080	-0.212
-254.107	6.523	-0.309	0.227
-253.092	-101.123	0.122	0.029
-252.078	-109.882	0.420	0.087
-251.063	325.842	0.153	0.290
-250.049	43.123	-0.064	-0.058
-249.034	25.492	0.245	-0.201
-248.019	152.965	-0.191	-0.257
-247.005	59.008	-0.209	-0.203
-245.990	146.530	0.159	-0.210
-244.976	-200.000	-0.035	0.184
-243.961	-66.658	0.115	-0.045
-242.946	-90.585	-0.187	-0.053
-241.932	790.035	-0.056	-0.153
-240.917	-79.471	0.413	-0.138
-239.903	-109.393	-0.246	0.051
-238.888	25.614	0.091	-0.075
-237.873	800.000	0.086	0.312
-236.859	-29.350	-0.211	0.119
-235.844	-57.996	-0.188	-0.081
-234.830	342.012	0.195	-0.376
-233.815	-17.312	0.139	-0.086
-232.800	296.120	0.142	-0.256
-231.786	-128.097	-0.346	-0.049
-230.771	-170.041	-0.229	0.008
-229.757	-82.116	-0.218	0.070
-228.742	800.000	-0.077	-0.257
-227.727	-194.918	-0.127	0.001
-226.713	163.731	-0.284	0.393
-225.698	-200.000	0.096	0.489
-224.684	17.961	-0.059	-0.046
-223.669	194.929	-0.103	-0.155
-222.655	-95.831	0.385	-0.101
-221.640	-60.651	0.213	0.089
-220.625	26.255	0.251	0.206
-219.611	473.688	-0.124	0.276
-218.596	352.833	0.077	-0.150
-217.582	-56.359	-0.187	-0.082
-216.567	-0.215	-0.072	0.051
-215.552	-35.650	-0.140	0.075
-214.538	29.166	0.142	-0.119
-213.523	653.056	0.137	0.346
-212.509	-200.000	-0.023	0.306
-211.494	0.979	0.122	0.086
-210.479	328.073	-0.014	-0.027
-209.465	11.271	-0.243	-0.183
-208.450	800.000	-0.060	-0.165
-207.436	-106.939	0.507	-0.110
-206.421	-18.997	-0.286	-0.175
-205.406	169.795	0.208	-0.293
-204.392	-1.439	0.138	0.096
-203.377	-106.666	0.354	-0.077
-202.363	-105.993	0.066	0.015
-201.348	-92.778	0.109	0.030
-200.333	162.544	0.073	0.101
-199.319	74.014	0.074	0.076
-198.304	752.606	-0.040	-0.106
-197.290	132.946	0.157	0.200
-196.275	-158.269	0.056	-0.003
-195.260	-165.630	-0.134	0.006
-194.246	-52.478	0.083	0.038
-193.231	-84.359	-0.182	0.057
-192.217	99.213	0.285	0.325
-191.202	185.121	0.216	0.316
-190.187	283.437	-0.036	0.064
-189.173	-138.625	-0.360	-0.039
-188.158	-95.157	-0.084	-0.022
-187.144	-200.000	-0.002	-0.186
-186.129	141.820	-0.158	-0.205
-185.114	-115.850	0.330	-0.061
-184.100	476.277	-0.073	0.161
-183.085	147.280	0.082	0.108
-182.071	-200.000	0.005	0.172
-181.056	-40.360	-0.217	-0.111
-180.042	578.723	-0.135	0.324
-179.027	88.836	0.150	-0.164
-178.012	-92.346	0.390	-0.108
-176.998	-200.000	0.020	0.138
-175.983	-200.000	0.103	-0.483
-174.969	147.164	0.197	-0.260
-173.954	-124.286	0.037	0.006
-172.939	11.536	-0.072	-0.055
-171.925	230.731	0.262	0.422
-170.910	-20.607	-0.139	0.084
-169.896	-84.007	-0.187	-0.059
-168.881	21.320	-0.179	0.143
-167.866	286.977	0.130	-0.231
-166.852	-200.000	-0.081	0.357
-165.837	115.680	-0.136	0.163
-164.823	800.000	-0.067	0.208
-163.808	-34.368	-0.287	-0.155
-162.793	220.828	-0.118	-0.186
-161.779	378.025	0.239	-0.480
-160.764	129.339	-0.066	-0.083
-159.750	-39.143	0.119	-0.061
-158.735	800.000	0.051	-0.162
-157.720	800.000	0.060	0.219
-156.706	218.147	0.070	-0.110
-155.691	-99.361	0.194	0.048
-154.677	16.436	0.071	-0.055
-153.662	-154.272	-0.116	-0.008
-152.647	492.855	0.194	0.437
-151.633	800.000	0.085	0.349
-150.618	-75.802	0.299	0.104
-149.604	214.388	0.042	-0.066
-148.589	565.613	0.096	-0.229
-147.574	-126.398	0.042	0.006
-146.560	21.772	-0.106	0.084
-145.545	-90.195	0.151	0.043
-144.531	120.943	-0.223	0.273
-143.516	-107.283	0.089	0.019
-142.502	41.377	0.113	-0.100
-141.487	-200.000	-0.014	0.338
-140.472	263.566	0.105	0.179
-139.458	10.868	0.168	-0.126
-138.443	39.285	0.232	0.204
-137.429	668.308	0.097	0.246
-136.414	540.540	-0.170	0.398
-135.399	49.684	-0.111	-0.103
-134.385	-162.639	-0.174	0.008
-133.370	661.450	0.110	0.279
-132.356	-200.000	0.018	0.100
-131.341	44.978	0.203	0.184
-130.326	-58.342	-0.075	-0.032
-129.312	89.854	-0.104	-0.114
-128.297	-172.402	0.216	-0.007
-127.283	3.334	0.283	-0.202
-126.268	800.000	0.071	0.204
-125.253	63.067	-0.172	0.170
-124.239	-62.102	-0.117	-0.048
-123.224	195.836	0.103	-0.154
-122.210	-200.000	-0.022	0.414
-121.195	-8.485	-0.276	0.182
-120.180	-56.627	0.230	-0.100
-119.166	-187.002	0.315	-0.004
-118.151	-108.135	-0.122	-0.026
-117.137	-80.078	-0.117	0.039
-116.122	-112.970	0.224	0.043
-115.107	141.219	-0.175	0.228
-114.093	478.192	-0.056	-0.124
-113.078	800.000	-0.075	-0.239
-112.064	325.588	0.098	0.185
-111.049	90.905	0.026	0.028
-110.034	800.000	-0.055	0.223
-109.020	163.931	0.191	0.264
-108.005	755.893	-0.055	0.145
-106.991	-11.889	0.219	0.141
-105.976	-8.838	-0.155	-0.102
-104.962	-122.306	-0.226	-0.036
-103.947	-140.118	0.437	0.045
-102.932	240.367	0.063	0.103
-101.918	542.499	0.131	0.307
-100.903	16.040	-0.209	0.162
-99.889	-200.000	0.026	-0.159
-98.874	88.470	0.268	0.292
-97.859	-191.235	0.170	0.002
-96.845	-99.160	-0.276	0.068
-95.830	-179.653	0.115	0.002
-94.816	71.447	-0.321	0.326
-93.801	-200.000	0.072	-0.513
-92.786	-200.000	0.013	-0.176
-91.772	-121.261	0.387	0.063
-90.757	-59.568	0.322	-0.135
-89.743	-176.241	0.107	-0.003
-88.728	77.933	-0.237	-0.248
-87.713	194.022	0.032	0.047
-86.699	71.539	0.045	0.046
-85.684	59.989	0.027	-0.026
-84.670	8.815	-0.192	0.142
-83.655	98.275	0.131	0.147
-82.640	456.703	0.057	0.124
-81.626	-137.514	-0.115	-0.013
-80.611	-134.818	-0.189	0.022
-79.597	128.014	-0.120	0.150
-78.582	-200.000	-0.053	-0.478
-77.567	-200.000	0.001	-0.014
-76.553	-3.137	0.166	-0.113
-75.538	11.770	-0.152	0.114
-74.524	338.702	0.039	0.075
-73.509	106.995	-0.221	0.257
-72.494	159.543	0.221	0.301
-71.480	376.246	-0.116	0.231
-70.465	82.813	0.081	0.086
-69.451	800.000	0.015	-0.050
-68.436	-13.327	0.385	-0.244
-67.422	23.486	-0.259	0.209
-66.407	-51.999	0.378	0.172
-65.392	-200.000	0.011	-0.090
-64.378	-39.789	-0.219	0.112
-63.363	-18.551	0.257	-0.157
-62.349	-200.000	0.088	0.390
-61.334	67.833	-0.916	-0.917
-60.319	132.355	0.488	0.615
-59.305	800.000	-0.381	-1.147
-58.290	245.109	0.770	1.268
-57.276	800.000	0.554	1.610
-56.261	-200.000	109.405	596.789
-55.246	427.553	1523.147	3217.327
-54.232	141.417	2719.988	3523.928
-53.217	95.673	2326.134	2597.791
-52.203	37.067	1927.911	1669.756
-51.188	31.108	1713.635	1438.342
-50.173	28.569	1670.870	1383.271
-49.159	48.119	1725.230	1578.550
-48.144	48.096	1739.690	1591.541
-47.130	30.722	1698.017	1422.050
-46.115	28.084	1683.284	1389.642
-45.100	27.901	1678.339	1384.119
-44.086	27.831	1675.772	1381.414
-43.071	27.825	1673.360	1379.328
-42.057	27.807	1670.808	1377.038
-41.042	27.778	1668.656	1374.990
-40.027	27.892	1666.531	1374.038
-39.013	27.742	1664.592	1371.259
-37.998	27.762	1663.308	1370.296
-36.984	27.823	1661.900	1369.544
-35.969	27.816	1660.434	1368.227
-34.954	27.881	1658.759	1367.280
-33.940	27.905	1656.968	1365.927
-32.925	27.913	1655.196	1364.474
-31.911	27.953	1653.238	1363.104
-30.896	27.959	1651.198	1361.409
-29.881	27.890	1650.024	1359.875
-28.867	27.936	1648.187	1358.650
-27.852	27.918	1646.743	1357.275
-26.838	27.976	1645.032	1356.235
-25.823	27.892	1644.225	1354.899
-24.809	27.943	1643.197	1354.371
-23.794	27.863	1641.723	1352.508
-22.779	27.986	1640.128	1352.056
-21.765	28.005	1638.282	1350.616
-20.750	27.974	1636.766	1349.085
-19.736	27.970	1635.102	1347.635
-18.721	28.014	1634.460	1347.378
-17.706	28.040	1632.434	1345.841
-16.692	27.838	1631.736	1343.723
-15.677	28.081	1629.518	1343.631
-14.663	28.071	1628.195	1342.412
-13.648	28.051	1626.904	1341.152
-12.633	28.030	1625.153	1339.503
-11.619	27.931	1623.967	1337.745
-10.604	28.004	1622.494	1337.011
-9.590	27.977	1620.884	1335.435
-8.575	28.017	1619.915	1334.873
-7.560	28.045	1618.539	1333.895
-6.546	27.887	1617.821	1332.098
-5.531	28.018	1616.337	1331.776
-4.517	27.987	1615.124	1330.495
-3.502	28.117	1613.601	1330.133
-2.487	28.171	1612.082	1329.224
-1.473	27.990	1600.686	1318.469
-0.458	25.517	1582.227	1285.550
0.556	20.633	1583.882	1256.073
1.571	18.496	1608.944	1260.141
2.586	18.088	1621.753	1267.037
3.600	16.548	1567.751	1213.696
4.615	9.110	1456.866	1077.978
5.629	1.794	1392.699	983.317
6.644	0.438	1384.341	968.624
7.659	0.370	1383.274	967.356
8.673	0.301	1381.966	965.913
9.688	0.212	1380.133	963.979
10.702	0.126	1376.783	961.007
11.717	3.475	1382.352	986.254
12.731	11.457	1394.578	1046.215
13.746	16.450	1401.311	1083.254
14.761	16.891	1400.838	1085.616
15.775	16.290	1398.489	1079.856
16.790	15.277	1396.123	1071.463
17.804	14.488	1394.094	1064.773
18.819	14.182	1392.242	1061.318
19.834	13.912	1390.921	1058.492
20.848	13.555	1390.065	1055.475
21.863	13.346	1388.729	1053.037
22.877	13.289	1387.201	1051.420
23.892	13.199	1386.317	1050.088
24.907	13.141	1385.429	1048.954
25.921	13.202	1384.390	1048.463
26.936	13.225	1383.573	1047.897
27.950	13.208	1383.002	1047.263
28.965	13.198	1382.111	1046.433
29.980	13.300	1380.667	1045.893
30.994	13.342	1379.592	1045.251
32.009	13.314	1378.855	1044.422
33.023	13.416	1377.445	1043.907
34.038	13.332	1376.836	1042.818
35.053	13.316	1375.265	1041.436
36.067	13.369	1374.435	1041.049
37.082	13.256	1374.138	1040.024
38.096	13.389	1372.373	1039.429
39.111	13.355	1372.022	1038.859
40.126	13.338	1370.986	1037.878
41.140	13.182	1370.287	1036.276
42.155	13.122	1370.056	1035.637
43.169	13.126	1369.764	1035.345
44.184	13.209	1369.265	1035.399
45.199	13.216	1368.576	1034.828
46.213	13.175	1368.119	1034.138
47.228	13.342	1366.881	1034.151
48.242	13.376	1365.607	1033.310
49.257	13.198	1364.555	1031.312
50.271	13.249	1362.766	1030.184
51.286	13.284	1361.560	1029.402
52.301	13.322	1360.088	1028.433
53.315	13.244	1359.296	1027.262
54.330	13.165	1358.699	1026.225
55.344	13.266	1356.823	1025.344
56.359	13.118	1356.123	1023.811
57.374	13.132	1354.929	1022.901
58.388	13.140	1354.227	1022.333
59.403	13.135	1354.063	1022.085
60.417	13.110	1353.362	1021.313
61.432	13.127	1352.172	1020.430
62.447	13.099	1351.099	1019.355
63.461	13.084	1349.952	1018.311
64.476	13.127	1348.587	1017.451
65.490	13.187	1347.532	1016.938
66.505	13.194	1346.033	1015.757
67.520	13.173	1344.846	1014.646
68.534	13.152	1343.887	1013.704
69.549	13.225	1343.055	1013.432
70.563	13.150	1341.937	1012.040
71.578	13.071	1340.761	1010.578
72.593	13.045	1339.591	1009.452
73.607	13.055	1338.635	1008.701
74.622	13.028	1338.072	1008.022
75.636	12.962	1337.549	1007.134
76.651	13.160	1336.211	1007.248
77.666	12.969	1335.731	1005.632
78.680	13.101	1335.107	1005.879
79.695	13.062	1334.512	1005.101
80.709	13.110	1333.875	1004.824
81.724	13.191	1332.568	1004.246
82.739	13.181	1331.861	1003.564
83.753	13.195	1330.601	1002.611
84.768	13.236	1329.953	1002.281
85.782	13.330	1328.594	1001.734
86.797	13.340	1326.872	1000.409
87.812	13.203	1325.859	998.731
88.826	13.203	1324.884	997.906
89.841	13.258	1323.637	997.212
90.855	13.211	1322.884	996.275
91.870	13.310	1321.965	996.088
92.884	13.242	1321.342	995.121
93.899	13.389	1319.854	994.797
94.914	13.312	1319.487	993.970
95.928	13.353	1318.385	993.295
96.943	13.386	1317.393	992.660
97.957	13.318	1316.802	991.716
98.972	13.353	1315.548	990.895
99.987	13.343	1314.359	989.855
101.001	13.291	1313.543	988.839
102.016	13.337	1312.298	988.089
103.030	13.326	1311.689	987.479
104.045	13.288	1310.415	986.208
105.060	13.348	1309.222	985.576
106.074	13.275	1307.879	984.049
107.089	13.152	1306.831	982.437
108.103	13.140	1305.482	981.268
109.118	13.257	1303.773	980.588
110.133	13.132	1302.781	979.016
111.147	13.178	1301.429	978.185
112.162	13.252	1300.111	977.547
113.176	13.357	1299.128	977.341
114.191	13.174	1298.333	975.575
115.206	13.222	1297.187	974.909
116.220	13.155	1296.092	973.606
117.235	13.292	1294.763	973.329
118.249	13.240	1293.796	972.209
119.264	13.231	1292.043	970.754
120.279	13.241	1291.297	970.164
121.293	13.213	1290.589	969.383
122.308	13.160	1289.596	968.243
123.322	13.257	1288.467	967.874
124.337	13.144	1287.672	966.535
125.352	13.221	1286.214	965.803
126.366	13.247	1285.108	965.036
127.381	13.196	1284.295	964.045
128.395	13.257	1283.061	963.389
129.410	13.263	1281.585	962.230
130.424	13.249	1281.051	961.666
131.439	13.388	1279.917	961.533
132.454	13.207	1279.325	959.953
133.468	13.274	1278.239	959.443
134.483	13.308	1277.236	958.800
135.497	13.241	1276.650	957.888
136.512	13.287	1274.692	956.601
137.527	13.324	1273.645	955.943
138.541	13.267	1271.904	954.227
139.556	13.263	1270.944	953.395
140.570	13.251	1269.908	952.464
141.585	13.406	1268.305	952.071
142.600	13.413	1267.109	951.131
143.614	13.401	1266.236	950.321
144.629	13.471	1265.038	949.742
145.643	13.534	1264.013	949.246
146.658	13.311	1263.219	947.288
147.673	13.295	1261.585	945.890
148.687	13.346	1260.075	944.967
149.702	13.503	1258.573	944.650
150.716	13.360	1257.801	943.171
151.731	13.346	1256.686	942.170
152.746	13.434	1255.130	941.422
153.760	13.455	1253.910	940.546
154.775	13.373	1252.966	939.286
155.789	13.418	1251.801	938.585
156.804	13.470	1250.705	937.974
157.819	13.499	1249.994	937.526
158.833	13.577	1248.693	936.906
159.848	13.525	1247.926	935.953
160.862	13.569	1246.851	935.312
161.877	13.485	1245.284	933.583
162.892	13.510	1244.371	932.956
163.906	13.518	1243.740	932.445
164.921	13.431	1242.612	931.026
165.935	13.443	1242.091	930.621
166.950	13.509	1241.397	930.393
167.964	13.438	1240.726	929.407
168.979	13.581	1239.782	929.422
169.994	13.581	1239.045	928.783
171.008	13.504	1238.316	927.728
172.023	13.613	1237.072	927.320
173.037	13.679	1236.168	926.931
174.052	13.776	1235.050	926.549
175.067	13.647	1234.105	925.040
176.081	13.634	1233.395	924.352
177.096	13.736	1232.167	923.918
178.110	13.579	1231.479	922.449
179.125	13.633	1230.372	921.839
180.140	13.674	1228.759	920.779
181.154	13.677	1227.644	919.875
182.169	13.683	1226.756	919.162
183.183	13.693	1225.707	918.353
184.198	13.858	1224.239	918.082
185.213	13.756	1223.049	916.543
186.227	13.761	1222.420	916.018
187.242	13.898	1220.692	915.397
188.256	13.843	1220.002	914.498
189.271	13.937	1219.003	914.186
190.286	13.874	1217.846	912.891
191.300	13.761	1217.140	911.662
192.315	13.756	1216.536	911.098
193.329	13.784	1215.652	910.511
194.344	13.742	1215.409	910.018
195.359	13.875	1214.338	909.865
196.373	13.888	1214.035	909.626
197.388	13.917	1213.440	909.260
198.402	14.038	1213.130	909.609
199.417	14.001	1212.569	908.908
200.432	14.026	1211.307	908.017
201.446	14.035	1210.569	907.433
202.461	14.015	1209.705	906.593
203.475	14.035	1208.872	906.002
204.490	14.008	1207.567	904.791
205.504	14.034	1206.474	904.034
206.519	14.060	1205.326	903.240
207.534	14.059	1203.559	901.829
208.548	14.022	1202.794	900.973
209.563	14.122	1201.652	900.579
210.577	14.204	1201.098	900.529
211.592	14.304	1199.988	900.156
212.607	14.236	1199.459	899.315
213.621	14.167	1198.585	898.206
214.636	14.144	1197.799	897.412
215.650	14.219	1196.859	897.032
216.665	14.247	1195.652	896.200
217.680	14.297	1194.865	895.803
218.694	14.259	1194.401	895.173
219.709	14.300	1193.289	894.478
220.723	14.249	1192.960	893.877
221.738	14.299	1191.889	893.263
222.753	14.382	1190.832	892.840
223.767	14.295	1190.638	892.147
224.782	14.302	1190.059	891.672
225.796	14.446	1189.089	891.637
226.811	14.422	1188.404	890.919
227.826	14.464	1187.783	890.597
228.840	14.430	1187.127	889.843
229.855	14.415	1186.409	889.145
230.869	14.380	1185.174	887.955
231.884	14.405	1184.698	887.654
232.899	14.402	1184.266	887.239
233.913	14.395	1183.257	886.363
234.928	14.377	1182.415	885.562
235.942	14.378	1181.641	884.908
236.957	14.359	1181.481	884.608
237.972	14.432	1180.436	884.135
238.986	14.435	1179.763	883.567
240.001	14.428	1178.748	882.693
241.015	14.489	1177.595	882.074
242.030	14.427	1177.077	881.278
243.045	14.533	1175.916	880.892
244.059	14.563	1175.407	880.589
245.074	14.560	1175.251	880.382
246.088	14.602	1173.766	879.411
247.103	14.471	1173.406	878.373
248.117	14.607	1172.569	878.389
249.132	14.651	1171.953	878.081
250.147	14.671	1170.894	877.315
251.161	14.726	1170.523	877.244
252.176	14.681	1169.679	876.299
253.190	14.773	1168.831	876.070
254.205	14.843	1168.350	876.001
255.220	14.908	1167.502	875.627
256.234	14.830	1167.156	874.880
257.249	14.831	1166.386	874.232
258.263	14.876	1165.993	874.093
259.278	14.934	1164.986	873.564
260.293	14.925	1164.635	873.176
261.307	14.855	1164.498	872.631
262.322	15.001	1163.136	872.292
263.336	15.059	1162.210	871.825
264.351	15.105	1161.512	871.465
265.366	15.152	1161.018	871.261
266.380	15.056	1160.205	870.073
267.395	15.119	1159.297	869.643
268.409	15.094	1158.909	869.147
269.424	15.057	1158.109	868.278
270.439	15.111	1157.559	868.069
271.453	15.134	1156.699	867.465
272.468	15.076	1155.909	866.494
273.482	15.074	1155.460	866.072
274.497	15.038	1154.781	865.301
275.512	15.154	1153.976	865.218
276.526	15.007	1153.492	864.024
277.541	15.068	1152.612	863.600
278.555	15.175	1151.992	863.609
279.570	15.186	1150.941	862.804
280.585	15.223	1150.138	862.316
281.599	15.280	1149.095	861.753
282.614	15.289	1147.977	860.879
283.628	15.347	1147.179	860.505
284.643	15.218	1146.453	859.223
285.657	15.324	1145.346	858.863
286.672	15.335	1144.681	858.344
287.687	15.282	1143.865	857.383
288.701	15.319	1142.823	856.715
289.716	15.287	1142.187	856.000
290.730	15.316	1142.062	855.976
291.745	15.444	1140.661	855.504
292.760	15.423	1140.448	855.160
293.774	15.496	1139.373	854.651
294.789	15.537	1138.735	854.309
295.803	15.533	1138.244	853.841
296.818	15.395	1137.475	852.486
297.833	15.471	1136.959	852.415
298.847	15.557	1135.637	851.783
299.862	15.539	1135.111	851.223
300.876	15.435	1135.028	850.556
301.891	15.549	1134.036	850.312
302.906	15.636	1133.146	850.012
303.920	15.636	1132.649	849.565
304.935	15.587	1132.268	848.957
305.949	15.684	1131.310	848.654
306.964	15.719	1130.396	848.069
307.979	15.724	1129.662	847.468
308.993	15.653	1128.848	846.422
310.008	15.804	1128.039	846.503
311.022	15.864	1127.455	846.291
312.037	15.868	1126.505	845.523
313.052	15.652	1125.671	843.738
314.066	15.696	1124.768	843.206
315.081	15.645	1124.083	842.364
316.095	15.686	1123.432	842.005
317.110	15.704	1122.713	841.483
318.125	15.690	1122.035	840.829
319.139	15.558	1121.377	839.601
320.154	15.820	1119.978	839.792
321.168	15.760	1119.706	839.209
322.183	15.782	1119.160	838.839
323.197	15.848	1118.353	838.486
324.212	15.816	1117.953	837.956
325.227	15.850	1117.203	837.486
326.241	15.763	1116.784	836.668
327.256	15.905	1115.421	836.277
328.270	15.770	1114.546	834.878
329.285	15.825	1113.864	834.565
330.300	15.867	1112.958	834.018
331.314	15.718	1112.425	832.808
332.329	15.963	1111.047	832.913
333.343	15.866	1110.359	831.845
334.358	15.861	1109.091	830.797
335.373	15.963	1108.671	830.912
336.387	16.039	1107.797	830.557
337.402	16.098	1107.074	830.234
338.416	15.977	1106.337	829.013
339.431	16.092	1105.693	829.020
340.446	15.996	1105.257	828.150
341.460	16.111	1104.621	828.164
342.475	16.290	1103.445	828.088
343.489	16.162	1102.936	827.006
344.504	16.139	1101.855	826.007
345.519	16.322	1100.870	826.093
346.533	16.293	1100.265	825.425
347.548	16.253	1099.662	824.704
348.562	16.290	1098.931	824.264
349.577	16.291	1097.860	823.388
350.592	16.207	1097.087	822.329
351.606	16.233	1096.269	821.770
352.621	16.232	1095.713	821.273
353.635	16.147	1095.067	820.304
354.650	16.250	1094.289	820.148
355.665	16.249	1093.737	819.658
356.679	16.147	1093.545	818.949
357.694	16.283	1092.940	819.082
358.708	16.288	1092.231	818.500
359.723	16.377	1091.359	818.210
360.738	16.330	1090.814	817.500
361.752	16.377	1089.951	817.008
362.767	16.414	1089.376	816.684
363.781	16.473	1088.538	816.269
364.796	16.471	1088.111	815.864
365.810	16.479	1087.524	815.393
366.825	16.417	1087.168	814.754
367.840	16.629	1086.455	815.170
368.854	16.556	1086.074	814.459
369.869	16.556	1085.057	813.625
370.883	16.591	1084.016	812.939
371.898	16.628	1083.435	812.608
372.913	16.495	1083.132	811.674
373.927	16.615	1082.359	811.594
374.942	16.790	1081.934	812.047
375.956	16.610	1081.546	810.818
376.971	16.677	1080.405	810.211
377.986	16.668	1080.439	810.125
379.000	16.789	1079.793	810.146
380.015	16.736	1079.358	809.496
381.029	16.786	1078.370	808.921
382.044	16.819	1077.661	808.477
383.059	16.765	1076.920	807.592
384.073	16.812	1075.949	807.013
385.088	16.846	1075.274	806.599
386.102	16.900	1074.001	805.830
387.117	16.860	1073.237	804.995
388.132	16.888	1072.153	804.245
389.146	16.867	1071.858	803.849
390.161	16.818	1071.009	802.910
391.175	16.835	1070.175	802.297
392.190	16.978	1069.597	802.468
393.205	16.965	1069.023	801.904
394.219	16.904	1068.608	801.235
395.234	16.925	1067.486	800.422
396.248	16.851	1066.255	799.076
397.263	17.059	1064.936	798.998
398.278	16.933	1064.495	798.004
399.292	16.871	1063.997	797.267
400.307	16.930	1063.364	796.998
401.321	16.858	1062.944	796.279
402.336	16.968	1061.767	795.840
403.350	16.934	1061.307	795.266
404.365	17.017	1060.437	794.932
405.380	17.130	1059.732	794.861
406.394	17.102	1059.161	794.235
407.409	17.104	1058.197	793.449
408.423	17.126	1057.394	792.880
409.438	17.125	1057.062	792.556
410.453	17.174	1056.062	791.965
411.467	17.188	1055.510	791.547
412.482	17.179	1055.007	791.057
413.496	17.301	1054.023	790.814
414.511	17.335	1053.607	790.591
415.526	17.304	1053.599	790.370
416.540	17.448	1052.536	790.173
417.555	17.480	1052.163	789.972
418.569	17.340	1051.394	788.676
419.584	17.464	1051.092	788.955
420.599	17.422	1050.788	788.459
421.613	104.534	1326.903	1476.144
422.628	96.189	1367.086	1476.230
