DTS Sentinel unit serial number:	SN413079Multiplexer serial number:	ORYXHardware model number:	OX4-SRSoftware version number:	ORYX F/W v4.00 Oryx Data Collector v3.7.2.0data status	okinstallation	princeton_trtdifferential loss correction	single-endedforward channel	channel 2reverse channel	N/Adate	2019/09/16time	05:55:35forward acquisition time	60.00reverse acquisition time	0.00gamma	496.2192k internal	0.2334k external	0.2334temperature offset calibration	0.9977default loss term (dB/km)	0.3790temperature slope calibration	1.0000multiplexer offset coefficient	1.0000multiplexer slope coefficient	1.0000fibre end	0.00T internal ref (°C)	27.41T ext. ref 1 (°C)	11.24T ext. ref 2 (°C)	22.17length (m)	temperature (°C)	Stokes	anti-Stokes-747.200	-115.982	0.041	-0.008
-746.185	21.655	-0.307	0.251
-745.171	157.281	0.119	0.166
-744.156	-139.020	-0.306	0.033
-743.142	-200.000	0.002	-0.109
-742.127	353.979	0.197	0.393
-741.112	-9.497	0.606	0.406
-740.098	1.240	-0.157	0.113
-739.083	-56.067	-0.142	-0.063
-738.069	-33.624	-0.337	-0.187
-737.054	-25.481	0.041	-0.024
-736.039	79.861	0.162	0.175
-735.025	-22.010	0.189	0.115
-734.010	-200.000	-0.023	-0.237
-732.996	-72.612	0.354	0.131
-731.981	-66.862	-0.522	-0.207
-730.966	-53.824	0.229	0.105
-729.952	349.482	0.139	0.276
-728.937	800.000	-0.089	0.301
-727.923	-101.248	0.181	0.044
-726.908	800.000	0.076	0.331
-725.894	98.300	-0.125	0.144
-724.879	-200.000	-0.060	-0.322
-723.864	-95.685	0.287	-0.077
-722.850	-14.353	-0.090	0.058
-721.835	445.990	-0.093	-0.206
-720.821	-130.190	-0.240	0.033
-719.806	98.942	-0.132	-0.153
-718.791	297.911	-0.157	0.290
-717.777	12.936	0.123	-0.096
-716.762	74.957	0.296	-0.313
-715.748	800.000	0.058	0.174
-714.733	134.261	0.224	0.291
-713.718	96.483	-0.163	-0.187
-712.704	-65.159	-0.324	-0.131
-711.689	800.000	-0.034	0.135
-710.675	-114.934	0.155	-0.030
-709.660	16.785	-0.125	-0.099
-708.645	42.928	0.154	-0.141
-707.631	-3.624	-0.069	0.048
-706.616	131.459	0.237	0.306
-705.602	178.932	-0.094	-0.137
-704.587	-58.739	-0.258	0.112
-703.572	-136.123	0.303	0.036
-702.558	-143.416	-0.419	-0.040
-701.543	123.292	0.060	0.075
-700.529	-200.000	-0.025	0.133
-699.514	800.000	-0.078	0.268
-698.499	-91.816	-0.304	-0.087
-697.485	412.099	0.113	-0.241
-696.470	-46.512	-0.012	0.006
-695.456	398.932	0.134	0.281
-694.441	44.502	0.106	0.097
-693.426	41.275	-0.029	0.026
-692.412	-36.072	-0.299	-0.162
-691.397	19.330	-0.148	-0.119
-690.383	-110.385	-0.111	-0.023
-689.368	-11.442	0.334	-0.220
-688.354	554.393	0.051	0.123
-687.339	135.233	0.139	-0.181
-686.324	-137.634	0.161	0.018
-685.310	-14.246	-0.299	0.193
-684.295	-137.474	-0.281	0.032
-683.281	-200.000	0.023	0.293
-682.266	-17.496	-0.216	-0.136
-681.251	-0.881	0.207	0.147
-680.237	800.000	-0.050	-0.162
-679.222	-163.102	-0.236	-0.011
-678.208	-22.696	-0.165	0.100
-677.193	-200.000	0.018	-0.301
-676.178	131.462	0.207	-0.266
-675.164	188.285	0.056	-0.084
-674.149	5.789	0.172	0.127
-673.135	-200.000	-0.047	-0.278
-672.120	-154.115	-0.038	0.003
-671.105	800.000	-0.104	0.304
-670.091	-96.563	0.070	0.018
-669.076	-196.304	-0.174	-0.001
-668.062	213.718	-0.118	-0.186
-667.047	-146.045	-0.198	-0.018
-666.032	512.404	-0.021	-0.048
-665.018	342.048	-0.161	0.316
-664.003	457.029	-0.126	0.281
-662.989	-129.287	0.029	-0.004
-661.974	-53.527	-0.347	-0.159
-660.959	217.261	-0.033	-0.053
-659.945	277.397	-0.167	-0.297
-658.930	20.420	0.245	-0.199
-657.916	800.000	-0.024	0.092
-656.901	-4.691	0.297	0.206
-655.886	800.000	-0.055	0.205
-654.872	89.372	-0.153	-0.171
-653.857	-99.628	0.133	-0.033
-652.843	-200.000	0.002	-0.014
-651.828	389.041	-0.055	0.115
-650.814	-200.000	0.033	-0.150
-649.799	336.401	-0.108	-0.209
-648.784	-200.000	0.026	-0.140
-647.770	73.709	-0.240	-0.252
-646.755	143.092	-0.055	0.074
-645.741	78.710	0.138	-0.148
-644.726	-56.028	0.189	0.085
-643.711	45.828	-0.122	0.113
-642.697	-65.011	-0.266	-0.107
-641.682	800.000	-0.088	0.303
-640.668	186.963	-0.022	-0.033
-639.653	-200.000	0.067	-0.341
-638.638	136.236	0.139	-0.181
-637.624	-52.641	-0.364	0.168
-636.609	11.989	0.198	0.153
-635.595	800.000	-0.059	-0.184
-634.580	-200.000	-0.013	-0.324
-633.565	-29.857	0.210	-0.120
-632.551	-87.785	-0.088	-0.027
-631.536	-83.345	-0.094	-0.030
-630.522	800.000	0.049	0.155
-629.507	165.456	0.060	0.085
-628.492	-116.173	-0.078	-0.015
-627.478	-54.597	0.148	0.067
-626.463	3.127	0.146	-0.106
-625.449	-87.108	-0.114	0.035
-624.434	-89.962	0.419	0.122
-623.419	508.898	-0.114	0.265
-622.405	8.865	-0.363	0.274
-621.390	-200.000	-0.027	0.288
-620.376	-200.000	0.012	-0.064
-619.361	143.076	0.179	0.238
-618.346	-6.991	0.309	0.210
-617.332	-16.674	-0.176	-0.112
-616.317	-120.076	0.204	0.035
-615.303	-153.143	0.192	0.013
-614.288	125.067	0.232	0.293
-613.273	-137.040	-0.252	-0.029
-612.259	317.086	0.089	0.169
-611.244	-17.954	0.364	-0.228
-610.230	193.798	-0.106	-0.160
-609.215	-31.957	0.118	0.066
-608.201	290.160	-0.055	-0.100
-607.186	-88.656	0.191	-0.057
-606.171	29.894	-0.457	0.390
-605.157	200.853	-0.207	0.318
-604.142	-200.000	0.014	0.064
-603.128	57.638	0.215	-0.210
-602.113	-15.803	-0.063	0.040
-601.098	303.946	-0.358	-0.663
-600.084	799.177	-0.125	0.344
-599.069	183.661	0.021	0.030
-598.055	-97.126	-0.171	0.045
-597.040	-5.965	-0.099	0.068
-596.025	142.117	-0.073	0.097
-595.011	-100.308	-0.278	0.069
-593.996	-200.000	0.011	-0.082
-592.982	7.814	-0.107	-0.080
-591.967	122.216	0.162	-0.202
-590.952	180.740	-0.087	-0.128
-589.938	800.000	-0.074	0.227
-588.923	-44.728	0.144	-0.072
-587.909	305.774	0.184	-0.342
-586.894	-67.278	0.206	0.081
-585.879	-1.211	0.177	-0.125
-584.865	306.074	-0.014	0.026
-583.850	-141.592	0.216	0.022
-582.836	214.654	-0.092	0.146
-581.821	19.514	-0.248	0.199
-580.806	139.412	-0.153	-0.201
-579.792	20.056	-0.164	0.132
-578.777	572.450	0.113	0.275
-577.763	156.927	0.128	-0.176
-576.748	-82.035	-0.133	-0.043
-575.733	-31.850	-0.274	0.153
-574.719	104.408	0.156	-0.184
-573.704	-169.197	0.409	-0.015
-572.690	234.653	-0.114	0.187
-571.675	-200.000	-0.007	0.149
-570.661	-200.000	-0.015	0.228
-569.646	29.793	0.176	0.150
-568.631	193.095	-0.060	-0.091
-567.617	-81.646	0.114	-0.037
-566.602	-22.417	-0.408	-0.247
-565.588	254.260	0.096	0.164
-564.573	-200.000	-0.027	-0.187
-563.558	63.954	0.340	0.341
-562.544	-17.896	0.191	0.120
-561.529	-99.094	-0.474	-0.120
-560.515	-200.000	0.028	-0.171
-559.500	-33.549	-0.346	-0.190
-558.485	800.000	-0.007	-0.026
-557.471	-200.000	-0.021	0.167
-556.456	112.282	0.180	0.218
-555.442	21.045	0.044	-0.036
-554.427	-19.768	0.187	-0.115
-553.412	193.427	0.129	-0.195
-552.398	-200.000	-0.012	-0.159
-551.383	-158.815	-0.341	0.019
-550.369	298.585	-0.049	0.090
-549.354	-200.000	0.012	0.307
-548.339	89.126	-0.104	-0.116
-547.325	800.000	-0.086	0.289
-546.310	139.822	-0.111	0.146
-545.296	-32.911	-0.195	0.108
-544.281	31.101	-0.191	-0.163
-543.266	-115.419	0.091	-0.017
-542.252	-113.130	0.223	0.044
-541.237	224.055	-0.135	0.218
-540.223	-100.539	0.181	0.045
-539.208	4.229	-0.229	-0.167
-538.193	6.361	-0.294	0.217
-537.179	-141.653	0.071	-0.007
-536.164	-196.597	-0.119	-0.001
-535.150	-99.113	-0.139	0.035
-534.135	225.666	-0.298	0.482
-533.121	-200.000	-0.006	-0.035
-532.106	800.000	-0.069	-0.193
-531.091	-200.000	-0.020	-0.123
-530.077	17.041	0.170	-0.134
-529.062	2.465	-0.099	-0.072
-528.048	-94.111	-0.099	-0.027
-527.033	-35.904	-0.102	0.055
-526.018	-10.499	-0.196	-0.129
-525.004	-98.541	-0.212	-0.054
-523.989	800.000	0.074	-0.294
-522.975	-165.185	-0.161	0.007
-521.960	115.242	0.066	-0.080
-520.945	650.262	-0.147	-0.376
-519.931	-54.054	-0.216	0.098
-518.916	-103.229	0.168	0.040
-517.902	800.000	-0.105	0.303
-516.887	-49.753	-0.164	-0.078
-515.872	-137.448	-0.180	0.020
-514.858	-102.550	-0.311	0.074
-513.843	800.000	0.005	0.021
-512.829	189.437	0.068	0.101
-511.814	3.606	-0.165	0.120
-510.799	-71.021	0.310	0.116
-509.785	800.000	0.079	0.306
-508.770	115.538	0.110	0.134
-507.756	492.046	0.092	0.209
-506.741	800.000	-0.141	0.494
-505.726	-102.241	-0.096	0.023
-504.712	41.680	0.179	0.161
-503.697	545.238	-0.117	-0.279
-502.683	-48.738	0.280	0.134
-501.668	-200.000	0.029	-0.346
-500.653	-108.781	0.173	-0.037
-499.639	-122.662	0.192	0.031
-498.624	-74.561	0.302	0.108
-497.610	-200.000	0.026	0.435
-496.595	428.092	0.153	-0.328
-495.581	-0.995	0.176	0.124
-494.566	136.031	0.341	-0.442
-493.551	-82.753	0.076	0.024
-492.537	-8.705	0.160	0.107
-491.522	16.266	0.107	0.084
-490.508	-97.751	0.180	0.046
-489.493	35.941	-0.246	-0.215
-488.478	-149.040	0.219	0.017
-487.464	-192.565	0.187	0.002
-486.449	24.344	0.094	0.078
-485.435	152.457	0.043	0.059
-484.420	66.732	-0.194	-0.196
-483.405	-29.957	-0.281	-0.159
-482.391	-154.155	-0.148	-0.010
-481.376	-200.000	-0.001	-0.217
-480.362	-97.394	0.164	0.043
-479.347	-2.420	-0.136	0.095
-478.332	800.000	-0.033	0.093
-477.318	98.873	0.134	-0.154
-476.303	-200.000	-0.053	-0.439
-475.289	254.741	-0.181	0.308
-474.274	-152.604	-0.378	0.027
-473.259	199.250	-0.096	-0.146
-472.245	81.228	-0.110	0.118
-471.230	-132.829	-0.093	-0.012
-470.216	-120.471	0.147	0.025
-469.201	608.463	0.007	-0.016
-468.186	574.137	0.174	-0.421
-467.172	-144.424	-0.145	-0.013
-466.157	-81.983	-0.236	0.077
-465.143	-80.043	0.469	-0.156
-464.128	800.000	-0.113	-0.401
-463.113	-26.767	0.143	-0.083
-462.099	-52.197	-0.193	-0.089
-461.084	-86.649	0.364	0.111
-460.070	-54.315	0.223	-0.100
-459.055	-43.704	0.066	0.033
-458.040	-93.575	-0.486	0.133
-457.026	-200.000	-0.037	-0.196
-456.011	-94.589	0.410	0.111
-454.997	19.568	-0.133	-0.106
-453.982	564.693	-0.051	0.124
-452.968	385.504	0.153	-0.314
-451.953	-99.599	0.269	0.067
-450.938	157.930	0.231	-0.318
-449.924	78.602	0.115	-0.122
-448.909	82.521	0.213	-0.229
-447.895	-95.338	-0.198	0.053
-446.880	27.890	0.110	-0.092
-445.865	-52.853	0.066	-0.030
-444.851	-161.939	0.093	-0.005
-443.836	-109.156	-0.267	-0.056
-442.822	129.114	0.188	-0.238
-441.807	50.750	-0.209	-0.196
-440.792	168.695	-0.151	0.214
-439.778	800.000	0.061	-0.239
-438.763	-200.000	-0.027	-0.150
-437.749	242.833	-0.352	-0.585
-436.734	-123.350	0.141	0.022
-435.719	-111.835	-0.346	0.069
-434.705	49.839	-0.074	0.069
-433.690	5.622	-0.095	0.070
-432.676	-200.000	0.008	-0.136
-431.661	488.530	-0.089	-0.201
-430.646	-56.723	0.178	-0.078
-429.632	335.974	-0.108	-0.208
-428.617	131.779	-0.210	-0.268
-427.603	60.313	-0.082	-0.080
-426.588	-200.000	0.041	-0.238
-425.573	-102.217	0.497	-0.118
-424.559	800.000	0.011	0.039
-423.544	-11.992	-0.108	-0.070
-422.530	-200.000	0.019	-0.184
-421.515	-82.832	0.027	-0.009
-420.500	6.936	-0.197	-0.146
-419.486	-10.082	-0.297	0.196
-418.471	-182.184	0.091	-0.002
-417.457	800.000	0.127	-0.469
-416.442	-76.012	-0.293	-0.103
-415.428	19.056	0.220	-0.175
-414.413	-59.234	0.140	0.060
-413.398	-60.635	0.145	-0.061
-412.384	6.561	-0.148	-0.109
-411.369	-10.343	-0.163	0.108
-410.355	-200.000	-0.007	-0.091
-409.340	83.587	-0.113	-0.122
-408.325	67.671	0.164	-0.166
-407.311	-95.970	0.234	-0.062
-406.296	97.120	-0.065	-0.074
-405.282	-94.731	-0.217	0.058
-404.267	555.398	0.099	0.236
-403.252	0.912	-0.112	0.080
-402.238	-97.087	0.299	-0.078
-401.223	127.182	-0.136	0.171
-400.209	-200.000	-0.005	-0.101
-399.194	-200.000	-0.032	-0.219
-398.179	40.178	0.215	0.191
-397.165	-18.571	0.226	-0.140
-396.150	-67.257	-0.130	-0.051
-395.136	40.595	-0.175	0.156
-394.121	32.957	-0.391	-0.335
-393.106	26.800	0.246	-0.204
-392.092	17.107	0.192	-0.151
-391.077	17.484	0.147	-0.116
-390.063	800.000	-0.067	0.227
-389.048	136.363	0.034	0.044
-388.033	-111.346	0.031	-0.006
-387.019	-83.594	0.450	-0.143
-386.004	-38.123	0.273	0.143
-384.990	751.195	-0.066	-0.175
-383.975	-109.718	0.490	-0.102
-382.960	800.000	-0.017	-0.060
-381.946	661.044	0.097	0.248
-380.931	549.792	0.092	-0.217
-379.917	162.795	-0.137	-0.190
-378.902	672.696	-0.075	-0.192
-377.888	-51.474	0.116	0.054
-376.873	-117.452	-0.129	0.023
-375.858	-122.273	0.064	-0.010
-374.844	-41.335	0.271	-0.138
-373.829	-61.601	0.149	-0.062
-372.815	435.763	-0.085	0.183
-371.800	69.963	-0.060	-0.061
-370.785	-139.634	-0.358	-0.038
-369.771	-200.000	-0.001	0.301
-368.756	-106.804	0.443	-0.097
-367.742	-113.086	0.290	0.057
-366.727	-200.000	0.064	0.385
-365.712	131.730	0.086	0.109
-364.698	-160.617	0.264	0.014
-363.683	800.000	0.046	-0.153
-362.669	-110.392	-0.144	0.030
-361.654	-83.152	0.265	0.084
-360.639	158.882	-0.115	0.158
-359.625	134.253	-0.019	-0.024
-358.610	-103.034	0.130	-0.031
-357.596	76.577	0.138	0.145
-356.581	-21.996	-0.229	0.138
-355.566	135.200	-0.229	0.295
-354.552	-200.000	-0.009	-0.082
-353.537	-109.444	0.127	0.026
-352.523	-99.730	-0.631	-0.156
-351.508	-200.000	-0.044	-0.242
-350.493	64.573	0.145	0.145
-349.479	-55.304	0.269	0.119
-348.464	73.066	0.159	0.165
-347.450	-146.697	-0.300	-0.026
-346.435	157.818	0.100	-0.136
-345.420	800.000	0.106	-0.291
-344.406	800.000	0.014	-0.052
-343.391	175.563	0.051	0.074
-342.377	-4.818	-0.177	-0.121
-341.362	413.833	0.237	-0.500
-340.348	-200.000	-0.002	0.101
-339.333	95.565	0.031	0.035
-338.318	25.557	-0.189	0.155
-337.304	-200.000	0.022	0.154
-336.289	-200.000	-0.038	-0.169
-335.275	162.956	-0.070	-0.097
-334.260	130.314	-0.225	0.285
-333.245	-200.000	-0.051	0.222
-332.231	-32.052	-0.183	-0.101
-331.216	126.969	0.111	0.139
-330.202	43.824	0.291	-0.263
-329.187	-68.706	-0.439	-0.168
-328.172	127.881	-0.041	-0.052
-327.158	376.015	-0.088	-0.178
-326.143	306.033	-0.091	-0.167
-325.129	162.571	0.206	-0.286
-324.114	-16.983	0.147	0.091
-323.099	-200.000	-0.001	-0.141
-322.085	134.334	-0.166	-0.213
-321.070	137.559	0.157	0.203
-320.056	645.561	0.144	0.364
-319.041	146.753	0.196	0.261
-318.026	-67.064	-0.240	0.093
-317.012	800.000	0.127	0.455
-315.997	-163.611	-0.162	0.008
-314.983	140.976	-0.087	-0.114
-313.968	-200.000	0.011	-0.445
-312.953	68.151	-0.127	0.129
-311.939	-200.000	-0.285	0.000
-310.924	-200.000	-0.026	0.169
-309.910	-200.000	0.022	-0.096
-308.895	-200.000	-0.030	0.156
-307.880	-172.140	-0.149	0.005
-306.866	-200.000	-0.020	-0.108
-305.851	800.000	-0.105	-0.328
-304.837	-200.000	0.020	0.145
-303.822	157.552	0.241	0.329
-302.807	124.145	-0.069	-0.086
-301.793	131.647	0.114	-0.145
-300.778	522.981	0.083	-0.192
-299.764	-9.360	0.102	0.067
-298.749	370.973	-0.126	0.253
-297.735	-52.610	-0.093	0.042
-296.720	105.099	-0.076	0.089
-295.705	454.087	-0.210	-0.460
-294.691	-182.341	-0.335	-0.006
-293.676	261.235	-0.190	0.325
-292.662	110.122	0.107	0.127
-291.647	-124.969	0.333	-0.051
-290.632	-87.081	0.239	0.072
-289.618	-200.000	-0.032	0.228
-288.603	-43.947	-0.120	-0.060
-287.589	-200.000	-0.045	-0.384
-286.574	-3.320	-0.395	0.272
-285.559	-200.000	0.013	0.212
-284.545	245.905	-0.095	-0.158
-283.530	-174.346	0.094	-0.003
-282.516	-114.021	0.213	-0.041
-281.501	-200.000	-0.023	0.147
-280.486	-30.752	0.227	0.127
-279.472	-200.000	-0.475	-0.002
-278.457	-200.000	-0.006	-0.137
-277.443	-38.172	-0.074	-0.039
-276.428	-200.000	-0.011	0.107
-275.413	36.480	-0.135	-0.118
-274.399	59.402	-0.144	0.140
-273.384	-200.000	0.013	0.230
-272.370	-200.000	0.019	0.306
-271.355	712.115	-0.088	0.230
-270.340	-54.980	0.413	-0.184
-269.326	8.283	-0.160	-0.118
-268.311	51.888	-0.143	0.135
-267.297	26.971	0.180	0.149
-266.282	-40.500	0.172	-0.088
-265.267	-76.789	0.246	0.085
-264.253	-59.383	0.100	-0.043
-263.238	-171.861	0.198	-0.006
-262.224	14.537	-0.179	-0.138
-261.209	-21.616	-0.174	-0.105
-260.195	-29.935	0.318	0.179
-259.180	12.460	0.185	-0.141
-258.165	-200.000	0.000	-0.083
-257.151	205.470	-0.123	0.188
-256.136	-0.730	0.144	0.100
-255.122	800.000	0.081	0.253
-254.107	-200.000	0.035	-0.240
-253.092	-23.183	-0.176	-0.105
-252.078	-31.078	-0.081	0.045
-251.063	-27.783	0.002	-0.001
-250.049	208.180	-0.137	-0.211
-249.034	-200.000	-0.004	-0.135
-248.019	-200.000	-0.009	0.176
-247.005	65.325	0.206	0.205
-245.990	149.496	-0.055	0.073
-244.976	800.000	0.066	0.212
-243.961	-200.000	-0.017	-0.166
-242.946	52.897	-0.070	0.066
-241.932	-200.000	-0.010	0.062
-240.917	74.069	0.130	-0.134
-239.903	800.000	0.028	-0.106
-238.888	-11.320	-0.266	-0.172
-237.873	-141.569	-0.121	-0.012
-236.859	346.441	0.147	-0.284
-235.844	-70.264	-0.445	0.167
-234.830	-81.336	-0.210	0.068
-233.815	401.526	0.128	0.266
-232.800	-26.737	0.187	-0.108
-231.786	-127.280	-0.134	0.019
-230.771	-117.763	-0.148	-0.026
-229.757	-9.082	0.170	-0.112
-228.742	96.241	0.259	-0.292
-227.727	-106.882	-0.259	-0.057
-226.713	-136.895	0.180	-0.020
-225.698	-200.000	0.027	-0.257
-224.684	312.820	-0.067	0.124
-223.669	-68.454	-0.058	-0.022
-222.655	329.119	0.118	0.224
-221.640	-200.000	-0.243	0.000
-220.625	194.591	-0.077	0.115
-219.611	197.716	0.147	0.221
-218.596	800.000	-0.057	0.244
-217.582	382.085	-0.036	0.073
-216.567	-4.033	0.219	-0.149
-215.552	800.000	0.039	0.110
-214.538	-142.562	-0.132	-0.013
-213.523	-50.336	-0.233	0.108
-212.509	343.188	-0.140	-0.269
-211.494	-200.000	-0.005	0.113
-210.479	800.000	-0.048	0.171
-209.465	800.000	-0.083	0.245
-208.450	210.409	0.146	0.226
-207.436	190.527	0.046	0.068
-206.421	112.062	0.208	0.248
-205.406	67.531	-0.095	0.096
-204.392	-79.646	0.246	0.082
-203.377	-133.161	0.090	0.011
-202.363	2.288	0.164	-0.117
-201.348	168.773	-0.158	-0.222
-200.333	113.148	0.149	0.177
-199.319	-200.000	0.059	0.417
-198.304	36.400	0.313	0.272
-197.290	555.851	0.069	0.162
-196.275	-109.115	0.257	0.054
-195.260	-173.738	-0.640	-0.019
-194.246	-78.371	0.088	-0.030
-193.231	-65.297	0.514	-0.204
-192.217	-136.034	0.091	-0.011
-191.202	-8.404	-0.094	0.062
-190.187	10.731	-0.167	-0.126
-189.173	1.800	0.039	-0.027
-188.158	52.124	0.135	0.127
-187.144	409.569	0.024	-0.050
-186.129	20.536	-0.139	0.111
-185.114	-20.323	0.301	-0.182
-184.100	-12.681	-0.206	-0.132
-183.085	-200.000	-0.023	0.124
-182.071	800.000	0.008	0.021
-181.056	800.000	-0.033	-0.099
-180.042	3.486	0.132	0.095
-179.027	-200.000	0.009	-0.133
-178.012	-65.732	0.254	0.100
-176.998	68.630	0.143	0.145
-175.983	-100.796	0.067	0.016
-174.969	544.034	0.032	0.075
-173.954	-155.040	-0.223	0.014
-172.939	-48.684	-0.063	-0.030
-171.925	-46.948	0.166	0.079
-170.910	800.000	0.028	0.084
-169.896	-81.553	0.184	0.060
-168.881	27.278	0.163	0.135
-167.866	-75.279	-0.220	-0.077
-166.852	64.975	-0.139	-0.138
-165.837	-200.000	-0.022	-0.123
-164.823	43.768	-0.283	0.255
-163.808	-170.584	0.139	0.005
-162.793	271.184	-0.110	0.189
-161.779	768.553	-0.102	0.273
-160.764	273.758	-0.137	0.239
-159.750	184.737	0.170	-0.248
-158.735	-200.000	-0.018	0.170
-157.720	-141.787	-0.132	0.013
-156.706	-81.671	-0.142	-0.046
-155.691	158.695	-0.228	0.311
-154.677	571.230	0.043	-0.102
-153.662	551.189	0.093	-0.218
-152.647	-32.503	0.274	0.150
-151.633	-200.000	-0.030	0.223
-150.618	-200.000	0.015	-0.126
-149.604	-200.000	0.059	-0.310
-148.589	-151.347	0.165	0.012
-147.574	-200.000	-0.045	0.296
-146.560	272.685	-0.100	0.173
-145.545	47.622	0.037	-0.034
-144.531	-200.000	-0.051	0.261
-143.516	231.029	0.196	-0.315
-142.502	-57.036	-0.428	-0.185
-141.487	219.220	0.100	-0.158
-140.472	800.000	-0.058	0.174
-139.458	226.701	-0.186	0.297
-138.443	-200.000	0.041	0.248
-137.429	-200.000	0.006	-0.138
-136.414	-76.059	0.288	0.100
-135.399	14.953	-0.130	-0.100
-134.385	219.006	0.253	-0.397
-133.370	-186.422	-0.317	-0.004
-132.356	336.908	-0.099	-0.189
-131.341	-200.000	0.044	0.196
-130.326	88.535	0.158	0.172
-129.312	-200.000	-0.059	0.306
-128.297	508.236	-0.154	-0.352
-127.283	-72.310	-0.267	-0.097
-126.268	-200.000	0.011	0.297
-125.253	-155.036	-0.194	-0.012
-124.239	24.196	0.230	0.187
-123.224	74.492	0.213	0.219
-122.210	435.715	0.090	0.193
-121.195	220.869	0.132	0.207
-120.180	-15.080	-0.302	0.189
-119.166	-133.401	0.185	-0.023
-118.151	35.317	-0.174	-0.150
-117.137	-67.967	0.344	0.132
-116.122	-200.000	-0.014	0.183
-115.107	414.891	0.088	-0.184
-114.093	800.000	0.157	0.521
-113.078	-155.625	0.049	0.003
-112.064	-40.694	0.171	0.087
-111.049	56.209	0.162	0.154
-110.034	28.424	0.210	0.174
-109.020	198.897	0.235	0.353
-108.005	-137.126	0.180	0.020
-106.991	60.567	-0.107	0.104
-105.976	245.756	0.122	0.202
-104.962	-200.000	-0.050	0.324
-103.947	-200.000	-0.030	-0.460
-102.932	66.610	-0.133	-0.133
-101.918	-129.268	0.027	0.004
-100.903	550.210	0.043	0.101
-99.889	-73.347	0.511	0.183
-98.874	800.000	-0.057	-0.163
-97.859	-149.818	-0.088	-0.007
-96.845	576.920	-0.103	-0.246
-95.830	-95.350	-0.278	-0.073
-94.816	-143.446	0.116	0.011
-93.801	-32.331	-0.027	-0.015
-92.786	318.254	0.124	0.230
-91.772	-200.000	-0.073	0.367
-90.757	420.470	-0.178	0.374
-89.743	122.806	0.233	0.286
-88.728	-92.183	-0.351	0.097
-87.713	106.505	0.339	-0.393
-86.699	-200.000	0.013	0.235
-85.684	236.621	0.124	0.201
-84.670	-96.882	0.124	0.032
-83.655	74.417	-0.056	0.058
-82.640	-45.585	0.343	0.166
-81.626	-200.000	-0.011	-0.126
-80.611	800.000	-0.098	-0.283
-79.597	-12.042	-0.043	-0.028
-78.582	9.558	-0.140	-0.104
-77.567	-200.000	0.010	-0.208
-76.553	-200.000	0.000	-0.127
-75.538	-60.822	0.299	-0.124
-74.524	800.000	0.042	-0.135
-73.509	800.000	0.081	-0.311
-72.494	-146.245	0.217	0.019
-71.480	-97.321	0.384	-0.098
-70.465	-200.000	0.087	0.389
-69.451	215.957	0.081	-0.126
-68.436	-157.716	-0.394	0.023
-67.422	-200.000	0.028	0.292
-66.407	-13.235	-0.051	0.032
-65.392	408.906	0.157	0.324
-64.378	-200.000	-0.029	0.145
-63.363	244.319	0.073	-0.121
-62.349	800.000	-0.096	-0.299
-61.334	80.994	-1.068	-1.128
-60.319	388.347	0.212	0.429
-59.305	-200.000	-0.243	-1.127
-58.290	245.403	0.664	1.093
-57.276	-200.000	0.368	1.667
-56.261	-200.000	113.697	643.033
-55.246	467.723	1509.394	3311.635
-54.232	145.831	2687.178	3524.060
-53.217	96.915	2295.662	2574.243
-52.203	36.357	1906.090	1644.092
-51.188	30.517	1696.783	1419.062
-50.173	28.176	1654.806	1366.438
-49.159	50.152	1709.397	1578.645
-48.144	48.894	1723.893	1582.450
-47.130	30.206	1682.275	1404.346
-46.115	27.491	1667.742	1371.747
-45.100	27.294	1663.396	1366.642
-44.086	27.329	1660.450	1364.430
-43.071	27.323	1657.819	1362.165
-42.057	27.211	1655.794	1359.611
-41.042	27.264	1653.468	1358.040
-40.027	27.391	1651.498	1357.319
-39.013	27.321	1649.137	1354.802
-37.998	27.345	1647.778	1353.808
-36.984	27.357	1646.594	1352.876
-35.969	27.388	1645.302	1351.987
-34.954	27.501	1643.257	1351.089
-33.940	27.363	1641.905	1348.904
-32.925	27.354	1640.079	1347.282
-31.911	27.393	1638.063	1345.864
-30.896	27.449	1635.955	1344.493
-29.881	27.433	1634.691	1343.278
-28.867	27.424	1633.334	1342.049
-27.852	27.430	1631.529	1340.557
-26.838	27.373	1630.132	1338.934
-25.823	27.362	1629.121	1337.968
-24.809	27.384	1627.810	1337.001
-23.794	27.378	1626.129	1335.520
-22.779	27.465	1624.348	1334.648
-21.765	27.405	1622.929	1332.989
-20.750	27.456	1621.277	1331.948
-19.736	27.390	1620.368	1330.667
-18.721	27.485	1618.844	1330.060
-17.706	27.369	1618.022	1328.485
-16.692	27.405	1615.874	1326.930
-15.677	27.479	1614.288	1326.111
-14.663	27.480	1612.912	1324.933
-13.648	27.419	1611.923	1323.625
-12.633	27.469	1609.834	1322.222
-11.619	27.480	1608.803	1321.407
-10.604	27.297	1607.377	1318.851
-9.590	27.373	1606.148	1318.342
-8.575	27.536	1604.136	1317.816
-7.560	27.510	1603.164	1316.778
-6.546	27.339	1602.945	1315.310
-5.531	27.436	1601.268	1314.581
-4.517	27.424	1600.064	1313.459
-3.502	27.472	1599.165	1313.014
-2.487	27.536	1597.215	1311.821
-1.473	27.158	1585.579	1299.508
-0.458	24.552	1566.660	1265.518
0.556	19.532	1568.424	1235.944
1.571	17.373	1592.102	1238.786
2.586	17.162	1605.491	1247.544
3.600	16.757	1555.352	1205.589
4.615	14.383	1456.939	1113.365
5.629	11.815	1402.447	1055.089
6.644	11.254	1394.722	1045.587
7.659	11.205	1393.904	1044.570
8.673	11.334	1392.397	1044.173
9.688	11.157	1390.866	1041.797
10.702	11.163	1387.376	1039.129
11.717	12.344	1389.074	1047.846
12.731	15.105	1394.052	1069.166
13.746	17.344	1397.094	1085.711
14.761	17.659	1395.824	1086.639
15.775	16.774	1393.284	1078.930
16.790	15.651	1390.721	1069.708
17.804	14.762	1389.039	1062.666
18.819	14.317	1387.008	1058.190
19.834	14.092	1385.635	1055.623
20.848	13.828	1384.434	1052.938
21.863	13.604	1383.199	1050.487
22.877	13.402	1382.008	1048.207
23.892	13.334	1381.197	1047.073
24.907	13.388	1380.365	1046.692
25.921	13.405	1379.480	1046.035
26.936	13.385	1378.451	1045.037
27.950	13.477	1377.434	1044.752
28.965	13.471	1376.866	1044.190
29.980	13.547	1375.432	1043.491
30.994	13.665	1373.944	1043.012
32.009	13.732	1373.348	1042.889
33.023	13.719	1371.463	1041.281
34.038	13.668	1370.067	1039.813
35.053	13.586	1369.211	1038.551
36.067	13.527	1368.434	1037.501
37.082	13.497	1367.168	1036.261
38.096	13.567	1366.289	1035.942
39.111	13.619	1365.291	1035.419
40.126	13.455	1364.648	1033.819
41.140	13.394	1363.581	1032.538
42.155	13.355	1363.051	1031.803
43.169	13.331	1363.290	1031.742
44.184	13.355	1362.597	1031.275
45.199	13.396	1361.667	1030.732
46.213	13.484	1360.955	1030.654
47.228	13.546	1360.592	1030.673
48.242	13.443	1359.442	1029.067
49.257	13.485	1357.668	1027.894
50.271	13.544	1355.715	1026.691
51.286	13.530	1354.637	1025.701
52.301	13.503	1353.029	1024.224
53.315	13.383	1352.633	1023.091
54.330	13.314	1351.885	1022.007
55.344	13.364	1350.509	1021.188
56.359	13.438	1349.380	1020.700
57.374	13.378	1348.585	1019.636
58.388	13.278	1347.825	1018.357
59.403	13.316	1347.359	1018.147
60.417	13.255	1346.664	1017.157
61.432	13.386	1345.421	1016.933
62.447	13.247	1344.422	1015.238
63.461	13.219	1343.203	1014.050
64.476	13.225	1342.032	1013.116
65.490	13.173	1341.299	1012.152
66.505	13.162	1339.587	1010.708
67.520	13.339	1338.469	1010.857
68.534	13.234	1337.695	1009.537
69.549	13.314	1336.362	1008.932
70.563	13.275	1335.465	1007.926
71.578	13.201	1334.844	1006.920
72.593	13.143	1333.548	1005.497
73.607	13.127	1332.699	1004.672
74.622	13.130	1332.293	1004.293
75.636	13.198	1331.328	1003.892
76.651	13.211	1330.259	1003.076
77.666	13.317	1329.452	1003.024
78.680	13.242	1329.713	1002.673
79.695	13.205	1328.881	1001.737
80.709	13.266	1327.662	1001.094
81.724	13.346	1326.891	1000.914
82.739	13.344	1326.193	1000.286
83.753	13.386	1325.240	999.733
84.768	13.511	1324.355	999.728
85.782	13.515	1322.851	998.530
86.797	13.599	1321.554	997.968
87.812	13.369	1320.679	995.832
88.826	13.456	1319.254	995.197
89.841	13.511	1318.442	994.827
90.855	13.513	1317.576	994.096
91.870	13.449	1316.897	993.111
92.884	13.626	1315.719	993.196
93.899	13.609	1315.013	992.471
94.914	13.581	1314.334	991.705
95.928	13.656	1313.266	991.257
96.943	13.667	1312.161	990.402
97.957	13.480	1311.689	988.843
98.972	13.557	1310.135	988.046
99.987	13.650	1308.831	987.529
101.001	13.513	1308.341	986.255
102.016	13.590	1306.902	985.537
103.030	13.508	1306.346	984.547
104.045	13.523	1305.205	983.690
105.060	13.516	1303.994	982.648
106.074	13.369	1302.494	980.561
107.089	13.321	1301.356	979.332
108.103	13.245	1300.216	977.937
109.118	13.370	1298.330	977.172
110.133	13.397	1296.956	976.209
111.147	13.347	1296.250	975.294
112.162	13.334	1295.318	974.430
113.176	13.450	1293.709	973.819
114.191	13.517	1292.875	973.500
115.206	13.405	1291.639	971.822
116.220	13.391	1290.374	970.705
117.235	13.389	1289.447	969.907
118.249	13.417	1288.532	969.300
119.264	13.385	1287.107	967.952
120.279	13.338	1286.053	966.802
121.293	13.315	1284.986	965.780
122.308	13.340	1284.127	965.191
123.322	13.235	1283.553	964.062
124.337	13.328	1281.960	963.327
125.352	13.306	1280.643	962.120
126.366	13.280	1279.493	961.020
127.381	13.298	1278.402	960.219
128.395	13.303	1277.420	959.428
129.410	13.210	1276.407	958.042
130.424	13.379	1275.663	958.380
131.439	13.419	1274.425	957.598
132.454	13.440	1273.315	956.799
133.468	13.447	1272.821	956.380
134.483	13.393	1272.244	955.555
135.497	13.427	1271.272	954.933
136.512	13.463	1269.934	954.055
137.527	13.437	1268.442	952.697
138.541	13.389	1267.160	951.372
139.556	13.386	1265.867	950.301
140.570	13.565	1264.784	950.433
141.585	13.571	1263.482	949.406
142.600	13.595	1262.690	948.861
143.614	13.558	1261.729	947.842
144.629	13.681	1260.304	947.395
145.643	13.670	1259.200	946.416
146.658	13.618	1257.911	945.067
147.673	13.548	1256.555	943.563
148.687	13.581	1255.616	942.963
149.702	13.578	1253.675	941.407
150.716	13.438	1253.123	940.117
151.731	13.393	1251.465	938.532
152.746	13.607	1250.321	938.802
153.760	13.539	1249.005	937.349
154.775	13.646	1247.959	937.086
155.789	13.725	1246.682	936.491
156.804	13.685	1245.803	935.523
157.819	13.754	1244.965	935.197
158.833	13.738	1244.031	934.322
159.848	13.803	1243.129	933.929
160.862	13.820	1241.658	932.835
161.877	13.624	1241.287	931.375
162.892	13.587	1240.238	930.298
163.906	13.700	1238.744	929.729
164.921	13.485	1238.943	928.591
165.935	13.677	1237.261	928.320
166.950	13.699	1236.526	927.809
167.964	13.745	1236.042	927.623
168.979	13.772	1235.116	926.997
169.994	13.751	1234.524	926.354
171.008	13.712	1233.679	925.420
172.023	13.837	1232.433	925.101
173.037	13.854	1232.089	924.854
174.052	13.891	1230.655	923.904
175.067	13.754	1229.702	922.343
176.081	13.782	1228.901	921.815
177.096	13.723	1228.136	920.831
178.110	13.659	1227.130	919.644
179.125	13.734	1225.798	918.979
180.140	13.760	1224.798	918.291
181.154	13.716	1223.673	917.122
182.169	13.882	1221.837	916.580
183.183	13.994	1221.013	916.503
184.198	13.924	1219.832	915.149
185.213	14.038	1218.473	914.672
186.227	13.911	1217.934	913.493
187.242	13.951	1216.640	912.656
188.256	14.001	1215.876	912.278
189.271	14.092	1214.872	911.947
190.286	13.945	1213.840	910.282
191.300	13.842	1212.692	908.781
192.315	13.800	1212.217	908.114
193.329	13.683	1211.986	907.219
194.344	13.796	1211.062	907.066
195.359	13.895	1210.313	906.966
196.373	13.992	1209.847	907.063
197.388	14.083	1209.234	907.022
198.402	14.091	1208.766	906.635
199.417	14.114	1208.255	906.295
200.432	14.274	1207.106	906.226
201.446	14.317	1206.373	905.828
202.461	14.231	1205.536	904.652
203.475	14.355	1204.520	904.483
204.490	14.206	1203.412	902.764
205.504	14.156	1201.996	901.351
206.519	14.200	1201.082	900.824
207.534	14.233	1199.652	899.850
208.548	14.182	1198.755	898.819
209.563	14.193	1198.225	898.401
210.577	14.168	1197.262	897.466
211.592	14.286	1195.957	897.045
212.607	14.326	1195.277	896.669
213.621	14.325	1194.814	896.237
214.636	14.317	1193.381	895.043
215.650	14.415	1192.387	894.741
216.665	14.409	1191.781	894.177
217.680	14.424	1190.650	893.330
218.694	14.481	1189.872	892.969
219.709	14.499	1189.105	892.413
220.723	14.460	1188.493	891.668
221.738	14.539	1187.359	891.159
222.753	14.489	1186.998	890.543
223.767	14.560	1186.527	890.491
224.782	14.577	1185.892	890.023
225.796	14.547	1185.444	889.447
226.811	14.664	1184.389	889.199
227.826	14.565	1183.742	888.111
228.840	14.590	1183.464	887.958
229.855	14.492	1182.352	886.525
230.869	14.601	1181.144	886.117
231.884	14.490	1180.842	885.221
232.899	14.488	1179.909	884.435
233.913	14.455	1179.370	883.775
234.928	14.454	1178.285	882.881
235.942	14.497	1177.498	882.440
236.957	14.519	1176.897	882.028
237.972	14.489	1176.217	881.280
238.986	14.472	1175.371	880.481
240.001	14.504	1174.675	880.052
241.015	14.686	1173.557	880.093
242.030	14.620	1173.293	879.470
243.045	14.653	1172.113	878.683
244.059	14.727	1171.325	878.405
245.074	14.733	1170.431	877.686
246.088	14.758	1169.606	877.120
247.103	14.780	1169.249	876.891
248.117	14.786	1168.527	876.304
249.132	14.970	1167.640	876.524
250.147	14.912	1167.518	876.051
251.161	15.022	1166.261	875.609
252.176	14.995	1165.463	874.791
253.190	15.121	1164.940	874.979
254.205	15.099	1164.543	874.487
255.220	15.104	1164.010	874.033
256.234	15.165	1163.238	873.699
257.249	15.088	1162.495	872.661
258.263	15.134	1161.645	872.183
259.278	15.091	1161.315	871.633
260.293	15.129	1160.643	871.251
261.307	15.166	1159.858	870.779
262.322	15.165	1159.234	870.226
263.336	15.181	1158.871	869.962
264.351	15.349	1157.877	870.009
265.366	15.301	1157.397	869.323
266.380	15.277	1156.461	868.419
267.395	15.232	1155.668	867.511
268.409	15.262	1154.691	866.858
269.424	15.148	1154.260	865.866
270.439	15.226	1153.953	865.964
271.453	15.190	1152.874	864.890
272.468	15.142	1152.103	863.991
273.482	15.285	1151.059	863.867
274.497	15.192	1150.876	863.171
275.512	15.296	1150.209	863.135
276.526	15.230	1149.561	862.231
277.541	15.294	1148.619	861.779
278.555	15.236	1148.260	861.131
279.570	15.378	1147.246	861.027
280.585	15.552	1146.026	860.926
281.599	15.408	1145.386	859.631
282.614	15.382	1144.567	858.807
283.628	15.469	1142.968	857.975
284.643	15.433	1142.530	857.389
285.657	15.420	1141.781	856.681
286.672	15.415	1140.822	855.863
287.687	15.435	1139.713	855.057
288.701	15.515	1138.832	854.728
289.716	15.420	1138.102	853.620
290.730	15.394	1137.501	852.962
291.745	15.460	1137.267	853.046
292.760	15.548	1135.982	852.455
293.774	15.626	1135.473	852.394
294.789	15.597	1135.219	851.978
295.803	15.591	1134.705	851.486
296.818	15.611	1133.750	850.799
297.833	15.657	1133.049	850.428
298.847	15.559	1132.243	849.254
299.862	15.578	1131.440	848.670
300.876	15.663	1131.000	848.693
301.891	15.679	1130.243	848.134
302.906	15.600	1129.711	847.258
303.920	15.695	1129.098	847.206
304.935	15.752	1128.184	846.730
305.949	15.868	1127.605	846.804
306.964	15.872	1126.731	846.094
307.979	15.924	1125.992	845.725
308.993	15.743	1125.775	844.576
310.008	15.792	1124.688	843.931
311.022	15.830	1123.878	843.439
312.037	15.906	1123.093	843.158
313.052	15.910	1121.804	842.137
314.066	15.791	1121.003	840.867
315.081	15.782	1120.301	840.218
316.095	15.823	1119.437	839.701
317.110	15.720	1119.042	838.816
318.125	15.787	1117.841	838.176
319.139	15.713	1117.319	837.341
320.154	15.741	1116.623	836.886
321.168	15.752	1115.956	836.365
322.183	15.876	1115.547	836.602
323.197	15.968	1114.496	836.197
324.212	15.899	1114.044	835.443
325.227	15.896	1113.527	834.967
326.241	16.003	1112.630	834.748
327.256	15.925	1112.142	833.921
328.270	15.925	1110.857	832.886
329.285	16.053	1109.747	832.613
330.300	15.954	1109.138	831.594
331.314	15.949	1107.873	830.543
332.329	15.951	1106.967	829.805
333.343	15.969	1106.475	829.447
334.358	16.008	1105.449	828.801
335.373	16.033	1104.722	828.304
336.387	16.095	1103.961	827.966
337.402	16.119	1103.150	827.402
338.416	16.140	1102.592	827.009
339.431	16.071	1102.080	826.217
340.446	16.237	1101.080	826.207
341.460	16.325	1100.463	826.098
342.475	16.290	1099.678	825.268
343.489	16.251	1099.055	824.535
344.504	16.374	1098.142	824.377
345.519	16.385	1097.071	823.556
346.533	16.368	1096.564	823.016
347.548	16.359	1095.910	822.411
348.562	16.409	1095.036	821.926
349.577	16.349	1093.959	820.755
350.592	16.293	1093.641	820.169
351.606	16.301	1092.678	819.415
352.621	16.277	1092.113	818.799
353.635	16.233	1091.612	818.139
354.650	16.329	1090.381	817.611
355.665	16.244	1090.037	816.869
356.679	16.379	1089.133	816.773
357.694	16.365	1088.828	816.405
358.708	16.438	1087.983	816.047
359.723	16.407	1087.346	815.351
360.738	16.426	1087.159	815.230
361.752	16.491	1086.308	814.832
362.767	16.441	1086.155	814.402
363.781	16.580	1085.129	814.230
364.796	16.548	1084.439	813.487
365.810	16.667	1083.881	813.569
366.825	16.650	1083.381	813.041
367.840	16.701	1083.017	812.939
368.854	16.771	1082.363	812.712
369.869	16.786	1081.648	812.178
370.883	16.814	1080.449	811.336
371.898	16.679	1080.027	810.304
372.913	16.730	1079.270	809.908
373.927	16.770	1078.654	809.563
374.942	16.752	1078.391	809.208
375.956	16.867	1077.456	808.986
376.971	16.818	1077.234	808.514
377.986	16.829	1076.510	807.950
379.000	16.892	1076.053	807.836
380.015	16.957	1075.322	807.527
381.029	17.020	1074.892	807.430
382.044	17.088	1073.898	806.937
383.059	17.079	1073.221	806.313
384.073	17.030	1072.293	805.315
385.088	16.988	1071.579	804.507
386.102	17.001	1071.187	804.200
387.117	16.920	1069.984	802.846
388.132	16.941	1068.684	801.898
389.146	16.925	1068.068	801.288
390.161	16.954	1067.487	800.918
391.175	16.993	1066.836	800.542
392.190	17.017	1066.080	800.020
393.205	17.082	1065.352	799.708
394.219	17.099	1064.489	799.067
395.234	17.032	1063.350	797.827
396.248	16.961	1062.812	797.020
397.263	16.972	1061.920	796.330
398.278	16.936	1061.256	795.594
399.292	16.834	1060.668	794.604
400.307	17.043	1059.585	794.703
401.321	17.022	1059.204	794.249
402.336	17.015	1058.345	793.499
403.350	17.009	1057.926	793.088
404.365	17.155	1056.947	792.967
405.380	17.068	1056.290	792.000
406.394	17.110	1055.837	791.785
407.409	17.192	1054.942	791.425
408.423	17.259	1054.208	791.115
409.438	17.169	1053.777	790.302
410.453	17.319	1052.972	790.329
411.467	17.409	1051.832	789.819
412.482	17.426	1051.397	789.502
413.496	17.470	1050.803	789.189
414.511	17.378	1050.446	788.426
415.526	17.574	1049.761	788.749
416.540	17.481	1049.145	787.788
417.555	17.614	1048.432	787.795
418.569	17.492	1048.150	786.951
419.584	17.443	1047.648	786.278
420.599	17.609	1046.982	786.477
421.613	104.729	1326.116	1476.280
422.628	96.280	1366.743	1476.360
