DTS Sentinel unit serial number:	SN413079Multiplexer serial number:	ORYXHardware model number:	OX4-SRSoftware version number:	ORYX F/W v4.00 Oryx Data Collector v3.7.2.0data status	okinstallation	princeton_trtdifferential loss correction	single-endedforward channel	channel 2reverse channel	N/Adate	2019/09/17time	07:43:35forward acquisition time	60.00reverse acquisition time	0.00gamma	496.2192k internal	0.2335k external	0.2335temperature offset calibration	0.9975default loss term (dB/km)	0.3790temperature slope calibration	1.0000multiplexer offset coefficient	1.0000multiplexer slope coefficient	1.0000fibre end	0.00T internal ref (°C)	27.19T ext. ref 1 (°C)	0.13T ext. ref 2 (°C)	21.95length (m)	temperature (°C)	Stokes	anti-Stokes-747.200	471.724	-0.069	0.156
-746.185	64.055	-0.058	0.059
-745.171	-200.000	-0.018	0.101
-744.156	2.179	-0.102	-0.074
-743.142	-159.330	-0.246	0.014
-742.127	-200.000	0.079	0.432
-741.112	-200.000	0.043	-0.300
-740.098	-40.972	0.101	-0.052
-739.083	-200.000	0.014	0.335
-738.069	-128.879	-0.346	0.049
-737.054	-200.000	0.086	0.535
-736.039	89.159	-0.271	-0.304
-735.025	-113.830	0.136	-0.026
-734.010	-78.545	-0.309	0.106
-732.996	-21.252	-0.025	0.015
-731.981	-23.121	0.238	0.144
-730.966	-25.342	-0.056	-0.033
-729.952	25.236	0.195	-0.163
-728.937	81.306	-0.178	-0.193
-727.923	-27.073	-0.268	0.157
-726.908	-123.144	0.349	0.056
-725.894	-183.422	-0.099	-0.002
-724.879	144.241	-0.019	-0.026
-723.864	61.562	0.241	0.241
-722.850	189.728	0.258	-0.388
-721.835	-69.267	-0.050	-0.019
-720.821	-167.665	-0.166	-0.007
-719.806	800.000	-0.115	0.428
-718.791	-73.479	-0.237	0.087
-717.777	-200.000	0.051	0.275
-716.762	-16.899	-0.231	0.147
-715.748	-32.680	-0.162	0.090
-714.733	-112.575	-0.219	-0.044
-713.718	-200.000	0.015	0.082
-712.704	9.535	0.050	0.038
-711.689	-33.540	-0.062	-0.034
-710.675	501.195	-0.022	0.052
-709.660	-200.000	0.015	-0.136
-708.645	-83.242	0.164	0.053
-707.631	62.778	0.253	0.254
-706.616	-200.000	-0.008	0.120
-705.602	24.838	-0.259	0.215
-704.587	-67.490	0.127	-0.050
-703.572	611.844	-0.011	0.029
-702.558	-200.000	0.001	-0.016
-701.543	273.458	-0.146	0.260
-700.529	800.000	0.016	-0.056
-699.514	-200.000	-0.053	-0.269
-698.499	-200.000	0.002	-0.013
-697.485	30.300	-0.111	-0.095
-696.470	59.726	0.135	0.134
-695.456	-200.000	-0.034	0.237
-694.441	-200.000	0.027	-0.156
-693.426	96.811	0.290	0.333
-692.412	18.148	0.225	-0.180
-691.397	5.765	0.215	-0.159
-690.383	-39.077	0.050	-0.026
-689.368	29.200	-0.403	-0.343
-688.354	800.000	0.035	-0.121
-687.339	800.000	-0.033	0.116
-686.324	-54.405	0.301	-0.137
-685.310	-200.000	0.021	0.112
-684.295	-94.626	-0.495	0.135
-683.281	-127.901	-0.179	-0.026
-682.266	-37.731	-0.147	0.078
-681.251	-6.817	-0.139	0.095
-680.237	13.500	-0.076	0.059
-679.222	35.152	0.140	0.123
-678.208	737.752	-0.088	0.236
-677.193	800.000	-0.078	-0.279
-676.178	-101.448	-0.300	-0.073
-675.164	800.000	0.083	0.261
-674.149	19.218	0.241	-0.194
-673.135	35.056	-0.203	0.178
-672.120	800.000	0.067	-0.270
-671.105	-9.261	-0.226	-0.152
-670.091	55.610	-0.210	-0.204
-669.076	800.000	-0.015	0.064
-668.062	-174.331	-0.438	-0.013
-667.047	15.734	-0.050	0.039
-666.032	36.518	-0.076	-0.068
-665.018	800.000	-0.075	-0.307
-664.003	-200.000	-0.060	0.324
-662.989	-90.913	0.088	-0.025
-661.974	8.653	0.108	-0.082
-660.959	-86.234	-0.316	0.097
-659.945	-27.900	0.223	-0.129
-658.930	-200.000	-0.030	0.405
-657.916	148.958	-0.114	-0.154
-656.901	-51.074	-0.163	0.076
-655.886	570.145	0.029	-0.070
-654.872	-200.000	-0.007	0.063
-653.857	-200.000	-0.007	0.124
-652.843	104.902	-0.230	-0.272
-651.828	-137.333	-0.208	-0.024
-650.814	32.145	-0.044	-0.038
-649.799	307.001	-0.061	0.113
-648.784	-200.000	-0.035	-0.232
-647.770	800.000	0.053	-0.178
-646.755	-200.000	-0.279	0.000
-645.741	-200.000	-0.032	0.252
-644.726	72.422	-0.025	0.026
-643.711	-69.306	0.187	-0.072
-642.697	-134.659	0.138	0.017
-641.682	-46.892	-0.243	-0.119
-640.668	3.409	0.199	-0.145
-639.653	226.567	0.135	-0.219
-638.638	800.000	-0.106	-0.323
-637.624	-151.423	0.332	-0.025
-636.609	33.724	0.186	0.162
-635.595	612.448	-0.178	-0.445
-634.580	-57.307	0.062	0.027
-633.565	322.883	-0.284	0.541
-632.551	68.252	-0.127	0.131
-631.536	-200.000	0.058	0.276
-630.522	413.218	-0.197	0.419
-629.507	140.274	-0.138	-0.182
-628.492	196.175	-0.093	0.142
-627.478	-52.483	0.136	0.063
-626.463	800.000	0.012	0.042
-625.449	800.000	0.074	0.211
-624.434	195.751	-0.078	-0.119
-623.419	-29.883	-0.429	0.244
-622.405	-200.000	-0.033	0.179
-621.390	349.507	0.119	0.235
-620.376	245.393	0.116	-0.195
-619.361	-200.000	-0.026	-0.293
-618.346	92.196	0.043	-0.048
-617.332	-117.277	-0.129	-0.024
-616.317	800.000	-0.074	0.280
-615.303	-77.250	0.073	0.025
-614.288	-57.036	-0.100	-0.044
-613.273	800.000	-0.062	0.264
-612.259	-200.000	-0.038	-0.248
-611.244	-142.463	-0.275	0.027
-610.230	-200.000	-0.019	-0.191
-609.215	526.509	0.065	-0.154
-608.201	-200.000	-0.002	-0.031
-607.186	45.579	0.076	0.070
-606.171	310.508	0.156	0.293
-605.157	-200.000	-0.043	-0.332
-604.142	-99.236	-0.124	0.031
-603.128	-200.000	0.010	-0.201
-602.113	-200.000	-0.026	0.176
-601.098	203.269	0.042	0.065
-600.084	593.494	0.115	0.285
-599.069	107.101	-0.218	0.259
-598.055	45.245	-0.248	0.229
-597.040	50.409	0.367	-0.346
-596.025	550.630	0.030	-0.071
-595.011	800.000	0.052	-0.215
-593.996	401.457	-0.031	0.064
-592.982	-57.591	-0.041	-0.018
-591.967	50.577	0.144	-0.136
-590.952	-154.682	-0.102	-0.007
-589.938	148.392	0.026	-0.035
-588.923	-2.436	-0.119	0.083
-587.909	-116.826	0.225	-0.041
-586.894	-128.407	0.117	-0.017
-585.879	157.732	0.104	-0.144
-584.865	24.044	0.299	0.247
-583.850	-46.251	-0.348	0.171
-582.836	195.276	0.060	0.091
-581.821	-108.852	0.203	-0.043
-580.806	186.327	0.074	-0.110
-579.792	0.895	-0.201	0.143
-578.777	-147.507	0.286	-0.024
-577.763	75.199	-0.303	-0.319
-576.748	-174.465	-0.329	-0.009
-575.733	-200.000	-0.048	0.285
-574.719	-146.129	-0.185	0.016
-573.704	-124.387	0.159	0.025
-572.690	226.973	-0.054	-0.088
-571.675	-139.740	0.306	-0.032
-570.661	-200.000	0.002	0.135
-569.646	-135.359	-0.122	0.015
-568.631	-21.489	-0.049	0.030
-567.617	176.229	-0.195	-0.282
-566.602	765.687	-0.113	0.308
-565.588	262.448	-0.174	0.302
-564.573	-64.436	0.542	0.220
-563.558	123.920	-0.088	0.110
-562.544	-73.344	0.111	0.040
-561.529	-117.335	-0.391	-0.071
-560.515	20.488	-0.221	0.178
-559.500	-200.000	-0.010	0.104
-558.485	346.421	0.087	0.170
-557.471	-172.864	0.446	0.014
-556.456	-140.172	-0.057	0.006
-555.442	-172.967	-0.276	0.009
-554.427	76.735	0.099	-0.104
-553.412	-77.923	0.262	-0.090
-552.398	800.000	-0.007	0.025
-551.383	93.266	-0.023	-0.026
-550.369	-200.000	0.004	-0.368
-549.354	-142.876	-0.055	-0.005
-548.339	112.596	0.250	-0.301
-547.325	-145.197	0.259	-0.023
-546.310	80.073	-0.056	0.060
-545.296	69.558	0.136	-0.139
-544.281	-95.804	0.133	0.035
-543.266	42.727	-0.125	0.114
-542.252	800.000	-0.063	-0.179
-541.237	800.000	0.067	-0.189
-540.223	339.446	-0.105	0.203
-539.208	-200.000	0.009	0.188
-538.193	198.804	0.182	0.278
-537.179	-200.000	-0.006	-0.067
-536.164	-184.704	-0.274	-0.004
-535.150	800.000	-0.063	0.238
-534.135	8.772	-0.178	0.134
-533.121	-200.000	-0.028	0.444
-532.106	800.000	-0.016	0.064
-531.091	-141.602	0.284	0.029
-530.077	227.652	0.114	0.185
-529.062	236.583	-0.124	0.204
-528.048	528.401	0.167	-0.394
-527.033	109.775	-0.245	-0.293
-526.018	-8.833	-0.201	-0.134
-525.004	112.238	-0.090	-0.108
-523.989	110.178	-0.142	-0.169
-522.975	-200.000	-0.026	0.454
-521.960	-200.000	-0.011	-0.194
-520.945	331.947	0.079	-0.151
-519.931	-44.994	0.138	-0.069
-518.916	-22.217	-0.191	0.116
-517.902	-54.306	-0.390	0.176
-516.887	-103.981	-0.390	-0.091
-515.872	-97.899	0.293	-0.075
-514.858	-57.758	-0.123	-0.054
-513.843	379.634	0.103	0.209
-512.829	-18.821	0.158	-0.098
-511.814	19.628	-0.116	-0.093
-510.799	111.612	-0.288	-0.346
-509.785	-150.870	-0.146	0.011
-508.770	-200.000	0.009	0.227
-507.756	-67.456	0.230	-0.090
-506.741	297.535	0.167	0.306
-505.726	-113.670	-0.386	-0.075
-504.712	-70.379	0.074	0.028
-503.697	485.473	-0.180	0.408
-502.683	202.670	0.091	0.140
-501.668	300.563	0.019	0.035
-500.653	81.181	-0.268	-0.288
-499.639	347.259	0.056	0.109
-498.624	800.000	-0.027	0.113
-497.610	8.273	0.051	-0.038
-496.595	-200.000	-0.016	0.151
-495.581	37.405	0.202	-0.178
-494.566	300.110	0.041	-0.075
-493.551	-50.910	0.321	-0.150
-492.537	-29.672	-0.218	0.124
-491.522	-58.528	-0.155	-0.067
-490.508	-161.281	0.193	0.010
-489.493	51.575	-0.221	0.209
-488.478	-85.847	-0.203	0.062
-487.464	66.063	-0.112	0.114
-486.449	156.853	-0.119	0.164
-485.435	-71.489	-0.600	0.223
-484.420	-66.199	-0.111	-0.044
-483.405	-46.547	0.456	-0.223
-482.391	-12.894	0.279	0.181
-481.376	-72.201	-0.046	0.017
-480.362	151.993	-0.165	-0.223
-479.347	-200.000	0.001	-0.153
-478.332	88.115	0.026	0.029
-477.318	256.848	-0.060	-0.102
-476.303	-200.000	-0.044	0.208
-475.289	-200.000	0.009	0.162
-474.274	94.091	0.120	0.135
-473.259	-200.000	-0.033	0.237
-472.245	-200.000	-0.055	-0.435
-471.230	-106.701	0.129	-0.028
-470.216	-200.000	0.023	0.105
-469.201	-117.362	-0.321	-0.058
-468.186	800.000	0.113	-0.341
-467.172	-19.403	-0.273	-0.169
-466.157	-12.072	0.063	-0.041
-465.143	-89.382	-0.310	-0.091
-464.128	-11.074	0.288	0.189
-463.113	422.127	0.113	-0.240
-462.099	570.988	-0.076	0.183
-461.084	-96.281	-0.182	0.048
-460.070	-58.431	-0.286	-0.123
-459.055	112.025	0.238	-0.286
-458.040	800.000	0.142	-0.457
-457.026	107.878	0.147	0.174
-456.011	-200.000	-0.038	-0.195
-454.997	-200.000	-0.007	0.248
-453.982	-200.000	-0.022	-0.153
-452.968	88.312	-0.046	-0.051
-451.953	-107.154	-0.302	-0.066
-450.938	-200.000	0.011	-0.108
-449.924	192.343	-0.063	-0.094
-448.909	-200.000	-0.034	0.179
-447.895	186.423	0.126	-0.186
-446.880	-50.562	-0.351	-0.165
-445.865	800.000	0.033	-0.092
-444.851	-84.094	-0.155	-0.049
-443.836	177.889	0.109	0.158
-442.822	46.788	0.217	0.201
-441.807	-59.983	-0.280	0.119
-440.792	-77.898	-0.223	0.076
-439.778	800.000	-0.070	-0.221
-438.763	45.973	-0.076	-0.070
-437.749	-200.000	-0.040	-0.298
-436.734	293.883	-0.124	0.225
-435.719	-58.113	0.112	-0.049
-434.705	800.000	0.070	-0.201
-433.690	113.379	-0.097	-0.117
-432.676	-200.000	0.025	-0.197
-431.661	275.942	-0.051	-0.089
-430.646	320.255	-0.046	-0.087
-429.632	-200.000	0.010	-0.172
-428.617	-124.324	-0.193	-0.030
-427.603	-76.205	0.142	0.050
-426.588	-13.987	0.114	0.073
-425.573	664.218	0.047	0.121
-424.559	121.632	0.094	-0.117
-423.544	-34.119	-0.280	0.153
-422.530	188.317	-0.143	-0.212
-421.515	204.756	0.167	-0.256
-420.500	-89.142	-0.224	0.066
-419.486	86.514	-0.103	-0.113
-418.471	-163.616	0.568	0.027
-417.457	800.000	0.060	0.185
-416.442	-113.809	-0.218	0.042
-415.428	-43.924	-0.258	-0.129
-414.413	252.022	0.088	-0.149
-413.398	130.896	-0.229	0.291
-412.384	-36.670	0.106	0.056
-411.369	75.721	-0.230	-0.241
-410.355	-200.000	0.021	0.162
-409.340	31.562	0.112	-0.096
-408.325	-132.385	0.417	-0.053
-407.311	-2.702	-0.343	0.238
-406.296	152.699	0.083	-0.113
-405.282	172.309	0.172	0.246
-404.267	419.696	0.148	-0.315
-403.252	31.999	0.216	0.184
-402.238	-200.000	-0.057	0.306
-401.223	137.874	-0.173	-0.225
-400.209	101.554	-0.194	0.224
-399.194	67.671	-0.232	0.235
-398.179	-51.868	0.235	0.109
-397.165	-200.000	0.046	0.257
-396.150	-98.278	-0.152	-0.039
-395.136	-20.830	0.044	-0.026
-394.121	58.491	0.110	-0.107
-393.106	62.303	-0.220	0.217
-392.092	-200.000	0.008	0.058
-391.077	177.705	0.036	-0.051
-390.063	-200.000	-0.015	-0.119
-389.048	-23.856	-0.161	0.096
-388.033	-35.040	-0.104	0.056
-387.019	-200.000	0.008	-0.223
-386.004	800.000	0.019	-0.077
-384.990	588.486	-0.061	-0.150
-383.975	-123.467	-0.055	-0.009
-382.960	800.000	0.038	-0.116
-381.946	-200.000	-0.052	0.260
-380.931	-90.889	-0.205	0.058
-379.917	-109.691	0.271	-0.057
-378.902	-200.000	0.086	0.525
-377.888	-53.668	-0.555	0.251
-376.873	178.885	0.214	0.310
-375.858	-47.076	-0.011	0.005
-374.844	-106.547	0.297	-0.066
-373.829	124.678	0.315	0.393
-372.815	500.703	0.146	0.334
-371.800	-200.000	-0.040	-0.200
-370.785	800.000	-0.067	-0.281
-369.771	-30.563	0.090	0.050
-368.756	25.115	-0.083	0.068
-367.742	6.883	-0.182	0.134
-366.727	22.391	-0.174	-0.141
-365.712	-200.000	0.022	0.404
-364.698	-81.731	-0.081	-0.026
-363.683	-200.000	0.031	-0.376
-362.669	516.113	0.048	0.112
-361.654	-151.095	0.075	-0.006
-360.639	-38.923	-0.324	0.169
-359.625	692.458	-0.092	0.239
-358.610	-34.779	0.193	0.105
-357.596	646.919	0.131	-0.331
-356.581	-80.209	-0.074	0.024
-355.566	-119.468	0.241	-0.041
-354.552	166.301	-0.132	-0.185
-353.537	472.257	-0.156	0.348
-352.523	363.031	0.221	-0.439
-351.508	13.816	0.199	-0.153
-350.493	-200.000	-0.028	-0.174
-349.479	800.000	-0.120	-0.404
-348.464	124.490	0.200	0.249
-347.450	36.948	0.201	-0.176
-346.435	175.351	-0.172	0.247
-345.420	800.000	-0.138	0.493
-344.406	43.575	-0.133	-0.120
-343.391	42.479	-0.097	0.088
-342.377	-200.000	0.008	-0.079
-341.362	89.464	0.083	0.092
-340.348	355.793	-0.061	0.120
-339.333	177.714	0.203	0.293
-338.318	205.450	-0.196	-0.302
-337.304	-62.807	-0.013	-0.005
-336.289	67.278	-0.095	-0.096
-335.275	-26.111	-0.162	0.094
-334.260	-200.000	0.020	0.125
-333.245	-42.677	0.120	0.060
-332.231	390.013	-0.105	-0.215
-331.216	94.207	0.235	0.264
-330.202	65.126	0.057	-0.057
-329.187	-78.946	-0.279	0.094
-328.172	-143.140	0.276	0.026
-327.158	-53.866	0.084	0.038
-326.143	-152.131	0.123	0.009
-325.129	-200.000	0.036	-0.346
-324.114	99.917	-0.141	-0.162
-323.099	2.388	-0.138	-0.099
-322.085	-139.455	0.344	0.036
-321.070	-48.888	-0.227	-0.108
-320.056	-200.000	-0.056	0.304
-319.041	-200.000	0.003	-0.158
-318.026	-114.270	-0.258	-0.049
-317.012	-97.025	-0.370	0.096
-315.997	285.886	0.054	0.095
-314.983	800.000	-0.061	-0.177
-313.968	119.245	0.259	-0.317
-312.953	-200.000	0.079	0.349
-311.939	-200.000	0.023	-0.144
-310.924	-200.000	-0.012	-0.205
-309.910	556.963	0.107	-0.255
-308.895	-4.791	-0.353	-0.240
-307.880	-200.000	0.024	-0.244
-306.866	113.164	-0.160	0.191
-305.851	221.969	0.087	0.138
-304.837	57.578	-0.072	-0.069
-303.822	145.795	0.158	-0.209
-302.807	0.260	0.256	-0.180
-301.793	392.595	-0.068	-0.139
-300.778	19.963	-0.192	0.153
-299.764	-200.000	-0.017	-0.143
-298.749	-200.000	0.009	0.110
-297.735	-200.000	0.014	0.269
-296.720	-68.963	0.185	-0.071
-295.705	40.133	0.264	0.234
-294.691	-86.199	-0.148	0.045
-293.676	-200.000	0.003	0.180
-292.662	59.653	-0.233	0.227
-291.647	-144.077	0.202	0.019
-290.632	-127.647	0.434	0.062
-289.618	-200.000	-0.029	-0.222
-288.603	59.161	0.252	-0.245
-287.589	-77.103	-0.338	0.116
-286.574	361.946	0.111	-0.219
-285.559	169.854	0.084	0.119
-284.545	-200.000	0.007	0.403
-283.530	-133.508	0.148	-0.018
-282.516	-4.144	0.259	0.177
-281.501	-76.053	0.151	-0.053
-280.486	800.000	-0.053	-0.183
-279.472	87.343	0.408	-0.445
-278.457	40.309	-0.226	-0.200
-277.443	404.040	0.090	0.188
-276.428	510.582	-0.046	-0.105
-275.413	800.000	-0.070	-0.270
-274.399	-157.577	-0.340	0.020
-273.384	758.648	0.081	0.217
-272.370	-140.879	-0.457	-0.046
-271.355	800.000	-0.021	-0.076
-270.340	-200.000	-0.040	-0.240
-269.326	335.971	-0.075	-0.143
-268.311	800.000	0.037	0.158
-267.297	93.663	0.162	0.181
-266.282	-98.123	0.209	0.053
-265.267	516.777	-0.099	-0.229
-264.253	296.024	-0.238	0.429
-263.238	60.755	0.141	-0.138
-262.224	76.987	-0.126	-0.132
-261.209	-200.000	0.009	0.102
-260.195	-90.933	0.435	0.123
-259.180	-95.627	0.368	-0.097
-258.165	-172.484	-0.197	-0.006
-257.151	324.179	0.127	0.239
-256.136	-107.134	0.306	-0.067
-255.122	-39.893	-0.223	-0.115
-254.107	-148.785	0.287	0.023
-253.092	135.002	-0.008	-0.010
-252.078	-200.000	0.016	-0.080
-251.063	176.185	0.080	0.115
-250.049	260.192	-0.107	-0.182
-249.034	-123.034	-0.099	0.016
-248.019	80.759	0.115	-0.123
-247.005	-200.000	-0.003	0.211
-245.990	33.454	-0.198	-0.170
-244.976	-200.000	0.054	0.313
-243.961	-30.872	0.201	-0.112
-242.946	-50.192	-0.209	-0.097
-241.932	-200.000	0.007	-0.154
-240.917	9.279	-0.257	-0.192
-239.903	-120.580	0.121	-0.020
-238.888	-11.167	0.248	-0.161
-237.873	19.157	-0.140	0.111
-236.859	-6.235	-0.016	0.011
-235.844	302.749	0.158	0.288
-234.830	307.600	0.145	-0.266
-233.815	-200.000	-0.066	-0.386
-232.800	-2.772	-0.164	0.113
-231.786	134.338	-0.064	-0.082
-230.771	57.382	0.138	0.133
-229.757	139.828	-0.079	0.102
-228.742	-38.494	0.176	-0.092
-227.727	30.932	-0.076	0.064
-226.713	-147.652	0.171	-0.014
-225.698	51.193	-0.210	0.196
-224.684	-104.176	0.139	-0.032
-223.669	-152.586	-0.323	0.023
-222.655	322.628	-0.261	0.490
-221.640	375.469	0.079	0.159
-220.625	2.169	-0.130	-0.093
-219.611	-98.269	0.181	0.046
-218.596	800.000	0.107	0.302
-217.582	-36.797	0.159	0.084
-216.567	133.948	0.122	0.156
-215.552	419.733	-0.022	-0.047
-214.538	-92.666	0.100	-0.028
-213.523	-35.316	0.151	0.081
-212.509	-10.240	0.106	0.069
-211.494	-4.491	0.376	-0.256
-210.479	113.547	0.178	-0.212
-209.465	80.296	0.393	-0.416
-208.450	800.000	-0.063	-0.227
-207.436	-62.894	0.202	-0.082
-206.421	69.581	0.106	-0.108
-205.406	101.561	0.048	-0.055
-204.392	483.620	-0.174	0.388
-203.377	-144.194	-0.091	-0.008
-202.363	-200.000	-0.006	-0.166
-201.348	175.391	0.175	0.250
-200.333	308.515	0.056	-0.102
-199.319	-41.775	-0.351	0.177
-198.304	1.709	-0.262	0.186
-197.290	19.769	0.292	-0.231
-196.275	753.364	0.092	-0.246
-195.260	570.071	0.144	-0.344
-194.246	800.000	-0.056	-0.158
-193.231	-35.684	0.297	0.159
-192.217	131.330	0.259	0.327
-191.202	69.583	0.307	-0.311
-190.187	-200.000	-0.003	-0.287
-189.173	-20.052	0.265	-0.161
-188.158	280.652	0.086	-0.150
-187.144	350.205	0.102	0.199
-186.129	586.185	-0.021	0.052
-185.114	-66.300	0.067	-0.026
-184.100	179.226	0.017	-0.025
-183.085	229.293	-0.287	-0.461
-182.071	800.000	0.050	0.159
-181.056	-113.431	0.248	-0.048
-180.042	48.481	-0.177	-0.163
-179.027	565.251	-0.092	0.220
-178.012	237.538	0.100	0.164
-176.998	-200.000	0.009	-0.230
-175.983	800.000	0.103	-0.354
-174.969	-174.171	-0.235	0.007
-173.954	-177.483	0.035	-0.001
-172.939	800.000	0.074	0.315
-171.925	-121.427	-0.111	0.018
-170.910	-134.285	-0.140	0.017
-169.896	-200.000	-0.040	0.201
-168.881	-149.648	0.108	0.008
-167.866	-17.642	0.219	-0.135
-166.852	-96.090	0.332	-0.087
-165.837	800.000	0.022	0.086
-164.823	14.178	-0.116	0.088
-163.808	-165.977	-0.005	0.000
-162.793	-58.416	-0.531	0.227
-161.779	125.842	0.070	-0.087
-160.764	-200.000	0.021	-0.255
-159.750	-117.951	0.316	-0.056
-158.735	-33.514	0.169	-0.092
-157.720	5.346	-0.172	0.125
-156.706	159.938	0.115	0.157
-155.691	-160.355	0.253	0.013
-154.677	211.406	0.047	0.073
-153.662	-129.602	0.148	-0.020
-152.647	-140.256	-0.233	-0.024
-151.633	-81.151	0.044	0.014
-150.618	-106.819	0.218	0.047
-149.604	-73.071	0.132	-0.048
-148.589	-163.384	0.030	0.001
-147.574	-144.760	-0.274	-0.025
-146.560	-82.885	-0.131	-0.042
-145.545	34.343	0.289	0.248
-144.531	-138.661	-0.365	0.039
-143.516	379.082	-0.110	0.221
-142.502	-164.481	-0.280	-0.013
-141.487	224.228	-0.167	-0.265
-140.472	602.941	-0.145	-0.355
-139.458	-153.166	0.227	0.016
-138.443	-94.322	0.230	-0.062
-137.429	-72.719	0.124	-0.045
-136.414	351.054	0.127	-0.247
-135.399	-92.079	-0.058	0.016
-134.385	-200.000	0.053	0.273
-133.370	-94.732	0.202	0.054
-132.356	-200.000	-0.027	0.245
-131.341	800.000	0.072	0.271
-130.326	-200.000	-0.058	-0.288
-129.312	103.940	-0.095	-0.109
-128.297	-174.719	0.381	0.011
-127.283	495.371	-0.062	0.140
-126.268	-76.177	-0.223	-0.077
-125.253	-200.000	-0.038	0.184
-124.239	-200.000	-0.034	0.299
-123.224	-136.848	0.303	0.034
-122.210	570.627	0.044	0.104
-121.195	-139.071	0.033	0.003
-120.180	-130.176	-0.216	0.029
-119.166	190.291	0.145	0.213
-118.151	344.986	0.111	0.214
-117.137	-200.000	0.059	0.331
-116.122	-78.944	-0.248	0.083
-115.107	-113.289	0.081	-0.016
-114.093	171.841	0.068	-0.096
-113.078	74.429	-0.130	-0.134
-112.064	800.000	-0.049	-0.183
-111.049	800.000	-0.091	-0.305
-110.034	97.939	-0.040	-0.045
-109.020	308.076	0.064	0.117
-108.005	-172.858	0.211	0.006
-106.991	18.696	0.206	-0.161
-105.976	-0.910	-0.328	-0.228
-104.962	-200.000	-0.018	0.093
-103.947	-58.686	0.168	0.071
-102.932	-169.410	0.226	-0.008
-101.918	-90.535	-0.146	0.041
-100.903	43.064	0.086	0.077
-99.889	-34.644	0.084	0.045
-98.874	56.348	-0.288	0.274
-97.859	137.258	0.258	0.330
-96.845	100.158	0.283	0.322
-95.830	-165.449	0.206	0.009
-94.816	792.676	-0.089	0.239
-93.801	-4.033	0.160	-0.109
-92.786	-102.379	0.050	-0.012
-91.772	-64.399	-0.432	0.172
-90.757	426.888	-0.103	0.218
-89.743	73.769	0.171	0.175
-88.728	440.318	0.109	-0.234
-87.713	66.188	-0.283	0.282
-86.699	-120.974	-0.490	0.081
-85.684	-34.766	-0.193	-0.103
-84.670	780.693	-0.052	-0.139
-83.655	329.655	-0.163	0.308
-82.640	140.549	0.087	0.112
-81.626	-58.167	0.200	0.085
-80.611	-85.732	0.378	0.115
-79.597	17.242	-0.143	-0.111
-78.582	390.499	-0.082	0.167
-77.567	-169.978	-0.112	0.004
-76.553	-91.144	0.084	0.023
-75.538	800.000	-0.074	0.202
-74.524	183.322	-0.090	0.131
-73.509	-200.000	-0.015	0.159
-72.494	800.000	0.055	-0.173
-71.480	44.805	0.275	0.248
-70.465	21.154	0.379	0.301
-69.451	-68.109	-0.208	0.079
-68.436	34.279	-0.041	-0.035
-67.422	-88.479	-0.063	0.018
-66.407	-200.000	-0.003	0.280
-65.392	-16.983	0.243	0.150
-64.378	172.041	0.156	0.219
-63.363	-186.424	-0.216	0.003
-62.349	800.000	-0.102	0.411
-61.334	196.076	-0.925	-1.377
-60.319	4.407	0.473	0.340
-59.305	543.724	-0.549	-1.282
-58.290	433.486	0.634	1.346
-57.276	483.104	0.769	1.710
-56.261	-200.000	114.045	646.903
-55.246	474.047	1507.134	3324.994
-54.232	146.850	2680.776	3525.273
-53.217	96.908	2286.782	2563.851
-52.203	36.197	1897.538	1635.126
-51.188	30.283	1688.465	1410.125
-50.173	27.928	1646.714	1357.722
-49.159	49.614	1702.149	1567.707
-48.144	48.187	1716.052	1569.692
-47.130	29.926	1674.765	1395.768
-46.115	27.318	1659.892	1363.795
-45.100	27.063	1655.231	1358.009
-44.086	27.002	1653.041	1355.702
-43.071	27.032	1650.479	1353.768
-42.057	27.013	1648.450	1351.911
-41.042	27.006	1645.964	1349.767
-40.027	27.022	1644.300	1348.463
-39.013	26.971	1641.865	1346.040
-37.998	27.043	1640.131	1345.097
-36.984	27.140	1638.672	1344.565
-35.969	27.174	1637.525	1343.821
-34.954	27.179	1636.022	1342.570
-33.940	27.206	1634.019	1341.077
-32.925	27.124	1632.617	1339.266
-31.911	27.225	1630.695	1338.379
-30.896	27.146	1629.062	1336.406
-29.881	27.129	1627.540	1334.976
-28.867	27.255	1625.510	1334.181
-27.852	27.222	1624.030	1332.677
-26.838	27.136	1623.005	1331.152
-25.823	27.254	1621.193	1330.472
-24.809	27.174	1620.415	1329.198
-23.794	27.207	1618.810	1328.071
-22.779	27.175	1617.812	1326.964
-21.765	27.156	1616.037	1325.319
-20.750	27.088	1614.328	1323.373
-19.736	27.206	1613.092	1323.160
-18.721	27.245	1611.691	1322.245
-17.706	27.249	1610.386	1321.150
-16.692	27.240	1608.036	1319.104
-15.677	27.280	1607.146	1318.611
-14.663	27.319	1605.347	1317.365
-13.648	27.259	1604.350	1316.063
-12.633	27.249	1602.851	1314.705
-11.619	27.174	1601.569	1313.062
-10.604	27.245	1599.477	1311.807
-9.590	27.226	1598.768	1311.034
-8.575	27.269	1597.567	1310.307
-7.560	27.250	1595.802	1308.671
-6.546	27.216	1594.863	1307.605
-5.531	27.177	1594.230	1306.758
-4.517	27.218	1592.856	1305.875
-3.502	27.207	1591.623	1304.731
-2.487	27.417	1589.617	1304.538
-1.473	27.063	1577.819	1292.287
-0.458	24.174	1559.174	1256.622
0.556	18.817	1560.309	1224.556
1.571	16.408	1584.280	1225.800
2.586	16.113	1596.608	1233.075
3.600	14.885	1543.524	1183.288
4.615	8.155	1436.258	1056.500
5.629	1.471	1373.468	967.771
6.644	0.195	1366.099	954.409
7.659	0.138	1364.446	952.807
8.673	0.114	1363.453	951.879
9.688	0.063	1361.978	950.446
10.702	-0.065	1358.070	946.823
11.717	3.208	1362.924	970.792
12.731	11.081	1374.930	1029.196
13.746	16.407	1383.153	1069.044
14.761	17.117	1382.804	1073.168
15.775	16.196	1380.698	1065.624
16.790	15.178	1377.990	1057.023
17.804	14.479	1375.797	1050.838
18.819	14.102	1374.561	1047.428
19.834	13.867	1372.521	1044.306
20.848	13.644	1371.071	1041.708
21.863	13.370	1370.202	1039.235
22.877	13.222	1368.852	1037.189
23.892	13.185	1368.135	1036.321
24.907	13.204	1367.361	1035.764
25.921	13.273	1366.237	1035.250
26.936	13.286	1365.414	1034.616
27.950	13.216	1364.380	1033.306
28.965	13.229	1363.701	1032.780
29.980	13.442	1362.419	1033.051
30.994	13.359	1361.904	1032.048
32.009	13.440	1361.089	1031.843
33.023	13.457	1359.793	1030.879
34.038	13.444	1358.528	1029.748
35.053	13.376	1357.480	1028.434
36.067	13.255	1356.632	1026.951
37.082	13.347	1355.886	1026.867
38.096	13.354	1354.929	1026.093
39.111	13.292	1354.629	1025.391
40.126	13.315	1353.621	1024.681
41.140	13.291	1352.362	1023.492
42.155	13.162	1352.298	1022.555
43.169	13.236	1351.863	1022.592
44.184	13.148	1351.528	1021.704
45.199	13.089	1351.205	1021.000
46.213	13.237	1350.572	1021.350
47.228	13.297	1349.140	1020.549
48.242	13.314	1348.330	1019.950
49.257	13.254	1346.784	1018.319
50.271	13.232	1345.133	1016.844
51.286	13.231	1344.175	1016.026
52.301	13.320	1342.653	1015.330
53.315	13.244	1341.309	1013.755
54.330	13.188	1340.782	1012.929
55.344	13.234	1339.336	1012.029
56.359	13.109	1338.618	1010.631
57.374	13.209	1337.431	1010.252
58.388	13.129	1336.809	1009.206
59.403	13.054	1336.728	1008.600
60.417	13.226	1335.198	1008.403
61.432	13.097	1334.655	1007.118
62.447	13.040	1333.815	1006.050
63.461	13.018	1332.220	1004.623
64.476	13.035	1331.554	1004.136
65.490	13.118	1329.833	1003.252
66.505	13.026	1328.732	1001.773
67.520	13.018	1327.804	1000.937
68.534	13.151	1326.384	1000.584
69.549	13.047	1325.726	999.371
70.563	13.179	1324.043	998.812
71.578	13.073	1323.144	997.402
72.593	12.962	1322.571	996.213
73.607	13.038	1321.332	995.648
74.622	13.084	1320.452	995.174
75.636	13.094	1319.743	994.611
76.651	12.959	1319.167	993.278
77.666	13.012	1318.520	993.023
78.680	13.043	1318.107	992.812
79.695	12.992	1317.204	991.738
80.709	13.032	1316.295	991.202
81.724	13.157	1315.492	991.259
82.739	13.164	1314.395	990.392
83.753	13.197	1313.766	990.024
84.768	13.276	1312.452	989.418
85.782	13.227	1311.235	988.124
86.797	13.257	1310.190	987.429
87.812	13.236	1309.063	986.364
88.826	13.220	1307.898	985.306
89.841	13.260	1306.406	984.335
90.855	13.197	1306.185	983.702
91.870	13.266	1305.080	983.192
92.884	13.279	1304.362	982.641
93.899	13.287	1303.547	981.987
94.914	13.367	1302.370	981.491
95.928	13.383	1301.761	981.039
96.943	13.350	1300.628	979.905
97.957	13.325	1299.512	978.827
98.972	13.280	1298.875	977.996
99.987	13.225	1297.985	976.916
101.001	13.308	1296.729	976.375
102.016	13.287	1295.788	975.452
103.030	13.404	1294.931	975.415
104.045	13.351	1293.841	974.195
105.060	13.303	1292.482	972.799
106.074	13.152	1291.418	971.024
107.089	13.116	1290.243	969.845
108.103	13.198	1288.916	969.245
109.118	13.216	1287.268	968.025
110.133	13.262	1286.233	967.430
111.147	13.211	1284.940	966.075
112.162	13.116	1284.000	964.727
113.176	13.326	1282.826	964.981
114.191	13.251	1281.877	963.748
115.206	13.188	1280.863	962.532
116.220	13.148	1279.714	961.349
117.235	13.265	1278.421	960.974
118.249	13.293	1277.663	960.485
119.264	13.231	1276.356	959.055
120.279	13.119	1275.341	957.557
121.293	13.197	1274.166	957.045
122.308	13.046	1273.296	955.432
123.322	13.158	1272.285	955.238
124.337	13.130	1271.181	954.160
125.352	13.180	1269.937	953.432
126.366	13.071	1269.124	952.109
127.381	13.168	1268.103	951.818
128.395	13.100	1266.852	950.399
129.410	13.151	1266.071	950.026
130.424	13.124	1265.260	949.174
131.439	13.205	1264.622	949.081
132.454	13.283	1263.264	948.425
133.468	13.146	1262.431	946.927
134.483	13.232	1261.781	946.849
135.497	13.149	1260.966	945.678
136.512	13.370	1258.878	945.296
137.527	13.127	1258.371	943.440
138.541	13.246	1256.768	942.834
139.556	13.282	1255.553	942.046
140.570	13.270	1254.834	941.354
141.585	13.297	1252.930	939.999
142.600	13.444	1251.507	939.679
143.614	13.318	1251.176	938.631
144.629	13.429	1249.768	938.125
145.643	13.406	1248.650	937.073
146.658	13.436	1247.462	936.264
147.673	13.397	1246.270	935.066
148.687	13.287	1244.768	933.238
149.702	13.396	1243.514	932.831
150.716	13.310	1242.348	931.385
151.731	13.294	1241.207	930.363
152.746	13.290	1240.074	929.405
153.760	13.350	1238.791	928.700
154.775	13.437	1237.753	928.328
155.789	13.364	1237.002	927.272
156.804	13.523	1235.368	926.856
157.819	13.472	1235.085	926.276
158.833	13.496	1233.751	925.325
159.848	13.556	1232.793	924.861
160.862	13.545	1232.329	924.370
161.877	13.467	1230.903	922.785
162.892	13.441	1229.698	921.654
163.906	13.411	1228.595	920.582
164.921	13.565	1227.549	920.568
165.935	13.524	1226.781	919.684
166.950	13.535	1226.001	919.079
167.964	13.586	1225.286	918.746
168.979	13.567	1224.942	918.299
169.994	13.530	1224.414	917.616
171.008	13.555	1223.316	916.851
172.023	13.591	1222.440	916.315
173.037	13.558	1221.665	915.472
174.052	13.636	1220.776	915.156
175.067	13.621	1219.499	914.030
176.081	13.596	1218.451	913.026
177.096	13.607	1217.659	912.417
178.110	13.616	1216.490	911.506
179.125	13.610	1215.542	910.685
180.140	13.525	1214.477	909.341
181.154	13.622	1213.065	908.731
182.169	13.673	1211.939	908.089
183.183	13.691	1210.835	907.281
184.198	13.727	1209.820	906.633
185.213	13.748	1208.724	905.848
186.227	13.815	1207.154	904.959
187.242	13.807	1206.232	904.144
188.256	13.888	1205.198	903.726
189.271	13.955	1204.121	903.203
190.286	13.710	1203.618	901.415
191.300	13.636	1202.893	900.393
192.315	13.669	1201.857	899.714
193.329	13.662	1201.315	899.194
194.344	13.744	1200.705	899.099
195.359	13.710	1200.406	898.610
196.373	13.807	1199.741	898.559
197.388	13.939	1199.154	898.757
198.402	13.939	1198.593	898.258
199.417	14.004	1197.623	897.802
200.432	14.046	1196.838	897.358
201.446	14.190	1195.909	897.357
202.461	14.174	1195.555	896.929
203.475	14.093	1194.502	895.623
204.490	14.058	1193.030	894.254
205.504	13.992	1191.592	892.739
206.519	14.113	1190.462	892.462
207.534	13.978	1189.929	891.264
208.548	14.086	1188.510	890.701
209.563	14.078	1187.968	890.171
210.577	14.152	1186.813	889.624
211.592	14.149	1186.149	889.032
212.607	14.165	1185.557	888.590
213.621	14.185	1184.567	887.879
214.636	14.219	1183.532	887.208
215.650	14.152	1182.621	886.088
216.665	14.196	1181.889	885.696
217.680	14.221	1180.967	885.060
218.694	14.219	1179.998	884.241
219.709	14.355	1179.205	884.293
220.723	14.252	1178.465	883.116
221.738	14.303	1177.994	882.953
222.753	14.384	1176.950	882.520
223.767	14.262	1176.662	881.583
224.782	14.365	1175.703	881.329
225.796	14.456	1174.948	881.165
226.811	14.325	1174.401	879.986
227.826	14.288	1173.775	879.242
228.840	14.451	1172.957	879.414
229.855	14.487	1171.875	878.716
230.869	14.434	1171.207	877.855
231.884	14.392	1170.324	876.898
232.899	14.330	1169.552	875.913
233.913	14.264	1169.039	875.106
234.928	14.356	1168.510	875.117
235.942	14.383	1167.352	874.311
236.957	14.303	1166.947	873.510
237.972	14.400	1166.307	873.464
238.986	14.350	1165.445	872.481
240.001	14.345	1165.076	872.100
241.015	14.449	1163.795	871.608
242.030	14.380	1163.128	870.671
243.045	14.544	1161.975	870.587
244.059	14.498	1161.442	869.870
245.074	14.524	1160.676	869.357
246.088	14.562	1159.846	868.851
247.103	14.649	1159.101	868.672
248.117	14.620	1158.025	867.636
249.132	14.671	1157.549	867.469
250.147	14.792	1157.092	867.681
251.161	14.742	1156.263	866.720
252.176	14.821	1155.694	866.625
253.190	14.819	1155.373	866.299
254.205	14.824	1154.577	865.649
255.220	14.928	1153.663	865.428
256.234	14.858	1153.587	864.932
257.249	14.860	1152.687	864.189
258.263	14.856	1152.225	863.746
259.278	14.903	1151.508	863.374
260.293	14.806	1151.070	862.470
261.307	15.030	1149.919	862.687
262.322	15.180	1149.118	862.782
263.336	15.055	1148.660	861.718
264.351	14.980	1148.373	861.041
265.366	15.021	1147.429	860.468
266.380	15.111	1146.722	860.324
267.395	15.084	1145.830	859.438
268.409	15.006	1145.182	858.476
269.424	15.090	1144.763	858.519
270.439	14.974	1144.666	857.773
271.453	15.054	1143.394	857.158
272.468	15.143	1142.180	856.626
273.482	15.015	1141.704	855.536
274.497	15.116	1141.004	855.455
275.512	15.042	1140.413	854.559
276.526	15.009	1139.901	853.927
277.541	15.105	1138.982	853.656
278.555	15.137	1138.102	853.081
279.570	15.182	1137.528	852.806
280.585	15.073	1137.106	851.859
281.599	15.256	1135.936	851.839
282.614	15.258	1134.989	851.063
283.628	15.332	1133.546	850.281
284.643	15.164	1132.696	848.717
285.657	15.180	1132.062	848.245
286.672	15.223	1131.144	847.702
287.687	15.279	1130.392	847.348
288.701	15.278	1129.532	846.622
289.716	15.289	1128.944	846.160
290.730	15.242	1128.187	845.284
291.745	15.363	1127.025	844.946
292.760	15.366	1126.546	844.527
293.774	15.342	1126.582	844.357
294.789	15.412	1125.720	843.991
295.803	15.477	1124.995	843.697
296.818	15.410	1124.066	842.590
297.833	15.362	1123.537	841.878
298.847	15.449	1123.214	841.998
299.862	15.480	1121.930	841.118
300.876	15.469	1121.413	840.600
301.891	15.472	1120.718	840.018
302.906	15.544	1119.699	839.544
303.920	15.602	1119.000	839.232
304.935	15.590	1118.278	838.556
305.949	15.606	1117.604	838.058
306.964	15.715	1117.285	838.286
307.979	15.625	1116.207	836.955
308.993	15.589	1115.957	836.516
310.008	15.738	1114.661	836.213
311.022	15.667	1114.110	835.370
312.037	15.721	1113.198	834.883
313.052	15.643	1112.540	833.925
314.066	15.686	1111.619	833.376
315.081	15.588	1110.488	831.968
316.095	15.542	1109.890	831.218
317.110	15.638	1109.159	831.071
318.125	15.712	1108.194	830.641
319.139	15.743	1107.366	830.103
320.154	15.715	1106.799	829.465
321.168	15.786	1106.340	829.395
322.183	15.779	1105.952	828.996
323.197	15.699	1105.396	828.116
324.212	15.774	1104.642	827.843
325.227	15.683	1104.096	826.917
326.241	15.802	1103.086	826.668
327.256	15.843	1102.408	826.291
328.270	15.722	1101.855	825.207
329.285	15.806	1100.471	824.512
330.300	15.812	1099.840	823.994
331.314	15.878	1098.826	823.487
332.329	15.714	1097.878	821.900
333.343	15.857	1097.098	821.943
334.358	15.931	1095.787	821.246
335.373	16.017	1095.301	821.232
336.387	15.935	1094.504	820.158
337.402	16.024	1093.789	819.986
338.416	16.009	1093.737	819.803
339.431	15.992	1093.070	819.148
340.446	16.035	1092.305	818.708
341.460	16.128	1091.343	818.369
342.475	16.076	1090.647	817.521
343.489	16.142	1089.621	816.998
344.504	16.180	1088.950	816.609
345.519	16.307	1087.907	816.365
346.533	16.249	1087.145	815.442
347.548	16.219	1086.817	814.979
348.562	16.444	1085.591	815.074
349.577	16.230	1084.761	813.346
350.592	16.202	1084.109	812.650
351.606	16.073	1083.795	811.722
352.621	16.239	1082.982	811.838
353.635	16.165	1082.377	810.958
354.650	16.265	1081.608	810.791
355.665	16.179	1080.716	809.637
356.679	16.149	1080.668	809.386
357.694	16.314	1079.689	809.373
358.708	16.309	1078.846	808.644
359.723	16.373	1078.408	808.551
360.738	16.401	1077.585	807.996
361.752	16.420	1076.880	807.487
362.767	16.363	1076.444	806.816
363.781	16.382	1076.064	806.554
364.796	16.343	1075.694	806.015
365.810	16.372	1075.039	805.592
366.825	16.549	1074.229	805.758
367.840	16.503	1073.863	805.194
368.854	16.633	1073.162	805.217
369.869	16.638	1072.200	804.444
370.883	16.574	1071.528	803.569
371.898	16.589	1070.903	803.100
372.913	16.474	1070.366	802.077
373.927	16.518	1069.869	801.846
374.942	16.618	1069.106	801.677
375.956	16.763	1068.383	801.749
376.971	16.672	1068.054	800.998
377.986	16.727	1067.172	800.529
379.000	16.760	1066.638	800.211
380.015	16.733	1066.298	799.760
381.029	16.814	1065.624	799.566
382.044	16.801	1064.996	798.959
383.059	16.707	1064.221	797.866
384.073	16.902	1063.287	798.012
385.088	16.896	1062.519	797.339
386.102	16.798	1061.589	796.108
387.117	16.929	1060.786	796.050
388.132	16.747	1060.016	794.549
389.146	16.715	1059.503	793.945
390.161	16.814	1058.421	793.526
391.175	16.788	1057.364	792.546
392.190	16.928	1056.782	792.691
393.205	16.981	1056.117	792.368
394.219	16.924	1055.421	791.513
395.234	16.726	1054.641	789.931
396.248	16.900	1053.574	789.875
397.263	16.936	1052.531	789.190
398.278	16.979	1051.261	788.367
399.292	16.853	1051.061	787.564
400.307	16.916	1050.649	787.479
401.321	16.868	1049.854	786.589
402.336	16.818	1049.441	785.978
403.350	16.880	1048.763	785.686
404.365	16.915	1048.085	785.275
405.380	16.944	1047.256	784.717
406.394	17.097	1046.309	784.643
407.409	17.034	1045.956	784.020
408.423	17.089	1045.252	783.674
409.438	17.111	1044.296	782.993
410.453	17.227	1043.583	782.921
411.467	17.137	1042.881	781.914
412.482	17.275	1042.195	781.961
413.496	17.352	1041.514	781.735
414.511	17.291	1041.101	781.075
415.526	17.235	1040.689	780.442
416.540	17.345	1040.206	780.516
417.555	17.344	1039.486	779.903
418.569	17.336	1039.167	779.557
419.584	17.320	1038.700	779.065
420.599	17.388	1038.319	779.020
421.613	105.206	1324.926	1477.522
422.628	96.515	1366.628	1477.622
