DTS Sentinel unit serial number:	SN413079Multiplexer serial number:	ORYXHardware model number:	OX4-SRSoftware version number:	ORYX F/W v4.00 Oryx Data Collector v3.7.2.0data status	okinstallation	princeton_trtdifferential loss correction	single-endedforward channel	channel 2reverse channel	N/Adate	2019/09/18time	21:39:34forward acquisition time	60.00reverse acquisition time	0.00gamma	496.2192k internal	0.2346k external	0.2346temperature offset calibration	1.0018default loss term (dB/km)	0.3790temperature slope calibration	1.0000multiplexer offset coefficient	1.0000multiplexer slope coefficient	1.0000fibre end	0.00T internal ref (°C)	25.00T ext. ref 1 (°C)	0.82T ext. ref 2 (°C)	18.33length (m)	temperature (°C)	Stokes	anti-Stokes-747.200	87.690	0.154	-0.171
-746.185	753.893	0.134	0.361
-745.171	-111.040	-0.031	0.006
-744.156	14.965	-0.136	0.106
-743.142	25.323	-0.161	0.134
-742.127	166.151	-0.112	0.159
-741.112	37.008	0.235	0.208
-740.098	77.882	-0.114	-0.121
-739.083	-53.932	0.259	-0.118
-738.069	456.592	-0.140	0.310
-737.054	-137.051	0.205	-0.023
-736.039	-189.043	-0.424	0.005
-735.025	73.439	0.218	-0.228
-734.010	-156.182	-0.316	0.020
-732.996	-61.910	-0.263	-0.110
-731.981	793.304	-0.083	-0.227
-730.966	-200.000	0.049	-0.370
-729.952	-76.679	-0.197	-0.069
-728.937	-38.520	0.152	0.080
-727.923	-200.000	-0.030	-0.233
-726.908	-34.091	0.109	-0.060
-725.894	22.413	-0.343	-0.280
-724.879	75.329	0.053	-0.055
-723.864	-21.110	-0.343	0.209
-722.850	140.365	0.371	-0.489
-721.835	-160.629	0.060	-0.003
-720.821	19.023	0.055	-0.044
-719.806	259.980	-0.021	-0.035
-718.791	-200.000	-0.005	-0.070
-717.777	-0.022	-0.223	0.159
-716.762	447.630	0.078	-0.171
-715.748	35.971	-0.144	-0.127
-714.733	-200.000	0.004	-0.028
-713.718	800.000	0.052	0.176
-712.704	-200.000	0.001	0.349
-711.689	-70.622	0.174	0.066
-710.675	-141.159	0.205	-0.021
-709.660	-200.000	-0.003	0.144
-708.645	-173.821	0.256	-0.008
-707.631	800.000	-0.078	-0.276
-706.616	-127.950	0.055	0.008
-705.602	69.775	-0.076	0.078
-704.587	-97.507	0.255	0.066
-703.572	40.632	0.184	0.166
-702.558	17.128	-0.231	-0.183
-701.543	-111.877	-0.109	-0.022
-700.529	-125.513	0.241	-0.037
-699.514	800.000	-0.073	0.208
-698.499	20.697	-0.121	0.098
-697.485	-90.293	-0.327	-0.095
-696.470	-105.577	-0.185	-0.042
-695.456	800.000	0.015	0.057
-694.441	45.378	0.157	-0.145
-693.426	195.931	-0.035	0.053
-692.412	800.000	-0.107	-0.298
-691.397	1.355	0.209	-0.150
-690.383	800.000	0.058	0.174
-689.368	163.158	0.022	-0.032
-688.354	193.133	0.152	0.230
-687.339	102.374	-0.083	0.097
-686.324	22.491	-0.181	-0.147
-685.310	-200.000	0.024	-0.136
-684.295	-63.851	-0.058	0.024
-683.281	800.000	-0.079	-0.305
-682.266	-141.972	0.074	0.007
-681.251	32.138	-0.252	-0.217
-680.237	3.500	0.247	0.180
-679.222	-200.000	-0.023	-0.240
-678.208	28.586	-0.219	-0.184
-677.193	-16.698	0.349	0.220
-676.178	-6.310	-0.245	-0.167
-675.164	31.171	-0.279	-0.239
-674.149	-93.863	-0.287	-0.079
-673.135	-87.902	0.177	-0.053
-672.120	16.121	0.129	-0.102
-671.105	222.896	0.087	-0.140
-670.091	800.000	-0.097	-0.279
-669.076	-35.813	0.215	0.116
-668.062	92.887	0.110	-0.123
-667.047	-200.000	0.008	-0.058
-666.032	-112.945	0.222	0.044
-665.018	800.000	0.137	-0.394
-664.003	-66.761	0.169	0.067
-662.989	-31.994	-0.228	-0.127
-661.974	-133.308	0.523	0.066
-660.959	458.935	-0.175	0.388
-659.945	-14.614	-0.355	0.227
-658.930	-109.811	-0.055	0.011
-657.916	261.538	0.120	0.207
-656.901	-200.000	-0.027	-0.300
-655.886	-200.000	0.014	-0.194
-654.872	0.562	0.102	-0.073
-653.857	9.907	0.206	-0.156
-652.843	268.208	-0.062	0.108
-651.828	262.932	0.066	0.114
-650.814	250.785	-0.094	-0.159
-649.799	79.323	0.129	-0.138
-648.784	129.469	-0.200	-0.255
-647.770	36.728	0.236	-0.208
-646.755	-176.511	-0.235	-0.006
-645.741	-200.000	-0.004	-0.262
-644.726	-102.058	0.082	-0.020
-643.711	100.810	0.086	0.099
-642.697	59.529	-0.107	0.105
-641.682	13.789	0.086	0.067
-640.668	-82.902	-0.439	0.141
-639.653	-200.000	-0.015	0.246
-638.638	628.209	0.063	-0.159
-637.624	-200.000	0.208	-0.001
-636.609	-102.795	0.091	-0.022
-635.595	-70.127	-0.239	0.091
-634.580	-38.378	0.041	0.022
-633.565	109.129	-0.008	0.009
-632.551	-91.627	0.405	-0.115
-631.536	-119.103	-0.257	-0.045
-630.522	-200.000	0.019	-0.283
-629.507	-200.000	-0.014	-0.296
-628.492	125.746	0.236	-0.297
-627.478	-58.687	-0.339	0.146
-626.463	-115.358	0.382	0.072
-625.449	52.093	0.112	-0.106
-624.434	733.702	0.074	0.197
-623.419	-104.478	-0.423	-0.097
-622.405	730.276	-0.252	-0.671
-621.390	-30.228	-0.403	-0.228
-620.376	-200.000	-0.088	-0.404
-619.361	-6.698	-0.065	-0.044
-618.346	-174.074	-0.139	0.004
-617.332	77.227	-0.025	0.027
-616.317	-74.491	-0.230	0.082
-615.303	-140.310	-0.164	-0.017
-614.288	800.000	0.066	-0.239
-613.273	-34.596	0.328	0.179
-612.259	105.119	0.055	-0.064
-611.244	-39.163	0.072	-0.038
-610.230	-200.000	0.002	0.269
-609.215	6.193	-0.361	0.266
-608.201	9.373	-0.120	0.090
-607.186	800.000	-0.044	0.146
-606.171	800.000	0.072	-0.228
-605.157	437.458	-0.124	-0.270
-604.142	283.465	0.158	-0.282
-603.128	-13.193	0.426	0.275
-602.113	-109.941	0.230	0.048
-601.098	-200.000	0.072	-0.520
-600.084	-200.000	0.031	-0.313
-599.069	-105.519	0.169	-0.038
-598.055	-97.607	-0.376	-0.097
-597.040	298.955	-0.016	-0.029
-596.025	-137.263	0.313	-0.035
-595.011	-24.246	0.076	-0.045
-593.996	753.123	0.080	0.215
-592.982	-115.422	-0.241	0.045
-591.967	343.237	-0.054	0.106
-590.952	-127.228	-0.196	0.028
-589.938	-14.516	0.157	0.100
-588.923	254.693	-0.111	-0.189
-587.909	-200.000	0.002	-0.119
-586.894	-72.752	-0.168	0.062
-585.879	104.824	-0.237	0.277
-584.865	800.000	0.132	0.386
-583.850	-200.000	0.028	0.237
-582.836	-49.545	-0.117	-0.055
-581.821	-87.425	-0.136	-0.041
-580.806	160.893	-0.036	-0.050
-579.792	66.022	0.178	0.179
-578.777	227.512	-0.156	0.253
-577.763	-123.161	0.095	-0.015
-576.748	460.627	0.059	-0.130
-575.733	-200.000	0.026	0.266
-574.719	347.498	0.133	-0.259
-573.704	48.534	-0.105	0.098
-572.690	-200.000	-0.024	0.242
-571.675	800.000	-0.036	0.134
-570.661	-77.349	0.116	0.040
-569.646	-117.318	0.189	-0.034
-568.631	-37.135	-0.119	0.063
-567.617	-36.301	-0.178	-0.095
-566.602	-200.000	0.059	0.268
-565.588	-200.000	0.024	0.203
-564.573	3.746	-0.254	0.184
-563.558	-54.129	0.141	0.064
-562.544	-15.869	0.107	-0.068
-561.529	270.166	-0.140	-0.244
-560.515	800.000	-0.061	0.207
-559.500	-3.637	-0.265	0.183
-558.485	-32.206	-0.340	0.188
-557.471	-107.296	0.225	-0.049
-556.456	-22.159	0.404	-0.243
-555.442	186.630	0.117	0.173
-554.427	-200.000	-0.048	0.476
-553.412	32.907	0.167	0.144
-552.398	299.249	-0.030	0.056
-551.383	-200.000	-0.003	0.079
-550.369	-98.612	0.275	-0.070
-549.354	104.949	0.155	0.182
-548.339	-13.748	-0.153	0.098
-547.325	100.317	0.084	-0.097
-546.310	-200.000	-0.021	-0.107
-545.296	800.000	-0.110	0.378
-544.281	-22.625	0.038	-0.023
-543.266	-200.000	0.040	-0.190
-542.252	-143.840	0.255	0.024
-541.237	-200.000	-0.031	0.171
-540.223	-19.727	-0.498	0.305
-539.208	-82.584	0.214	0.069
-538.193	124.415	0.087	0.108
-537.179	35.108	-0.116	-0.101
-536.164	94.842	0.123	-0.138
-535.150	0.447	-0.129	0.091
-534.135	-51.948	-0.165	0.076
-533.121	-45.651	0.145	-0.071
-532.106	241.740	0.113	0.187
-531.091	-114.586	0.129	0.025
-530.077	32.916	0.157	0.135
-529.062	324.229	0.168	0.319
-528.048	105.268	-0.063	0.074
-527.033	-22.266	0.115	-0.069
-526.018	-163.227	0.439	0.021
-525.004	348.736	-0.126	0.246
-523.989	-200.000	0.006	-0.259
-522.975	-200.000	0.006	-0.030
-521.960	100.321	0.219	0.252
-520.945	800.000	-0.077	-0.290
-519.931	-15.804	-0.058	0.037
-518.916	185.949	-0.150	0.221
-517.902	-30.357	0.216	0.121
-516.887	-126.496	0.078	0.011
-515.872	-141.943	0.276	-0.027
-514.858	85.048	-0.168	0.182
-513.843	244.153	-0.071	0.118
-512.829	-200.000	0.009	0.241
-511.814	800.000	-0.041	0.163
-510.799	423.420	-0.061	0.131
-509.785	-79.053	-0.052	0.017
-508.770	94.151	0.082	-0.092
-507.756	-200.000	-0.008	0.351
-506.741	-132.306	-0.176	-0.022
-505.726	1.140	-0.232	-0.165
-504.712	81.462	-0.151	-0.162
-503.697	179.615	-0.086	-0.125
-502.683	-200.000	-0.004	-0.102
-501.668	3.328	-0.223	-0.161
-500.653	36.682	0.232	0.203
-499.639	-62.306	0.512	0.211
-498.624	800.000	-0.038	0.108
-497.610	-200.000	-0.036	0.307
-496.595	1.287	0.043	-0.030
-495.581	-200.000	0.050	-0.271
-494.566	507.630	0.058	0.132
-493.551	-61.752	-0.098	-0.040
-492.537	747.719	0.117	0.311
-491.522	-200.000	0.009	-0.150
-490.508	800.000	-0.030	0.106
-489.493	800.000	-0.032	0.100
-488.478	-31.012	-0.136	0.076
-487.464	-55.698	0.110	-0.049
-486.449	-17.269	0.093	-0.058
-485.435	133.190	0.421	-0.538
-484.420	14.192	0.443	-0.342
-483.405	45.523	-0.081	0.074
-482.391	123.856	-0.070	-0.087
-481.376	93.980	-0.338	0.379
-480.362	-200.000	0.017	-0.153
-479.347	285.949	0.161	-0.288
-478.332	-35.940	-0.198	0.106
-477.318	-126.569	0.146	-0.022
-476.303	20.300	0.138	0.110
-475.289	-38.032	-0.297	0.156
-474.274	800.000	-0.113	0.366
-473.259	13.498	-0.089	-0.069
-472.245	-200.000	-0.024	-0.148
-471.230	-58.903	0.219	0.094
-470.216	-200.000	-0.049	-0.349
-469.201	2.824	-0.167	0.120
-468.186	-200.000	0.020	0.178
-467.172	-200.000	-0.038	0.310
-466.157	110.805	-0.074	0.088
-465.143	58.788	0.148	0.144
-464.128	196.741	-0.037	0.055
-463.113	364.451	0.085	-0.168
-462.099	483.885	0.206	0.464
-461.084	55.362	0.212	-0.203
-460.070	-124.666	-0.070	-0.011
-459.055	59.702	-0.271	0.264
-458.040	-49.187	-0.243	0.115
-457.026	-54.376	0.301	0.135
-456.011	-111.671	-0.462	0.093
-454.997	149.100	-0.104	0.140
-453.982	800.000	-0.014	0.041
-452.968	-63.893	0.174	0.070
-451.953	-163.299	-0.171	-0.008
-450.938	800.000	-0.086	-0.248
-449.924	-122.416	0.369	0.059
-448.909	95.481	0.205	-0.232
-447.895	-200.000	-0.023	0.134
-446.880	418.878	-0.050	-0.106
-445.865	-81.657	-0.287	0.093
-444.851	-116.154	-0.072	-0.013
-443.836	-33.737	-0.305	-0.166
-442.822	-40.984	0.219	0.112
-441.807	-71.270	-0.105	0.039
-440.792	-75.406	0.062	-0.022
-439.778	-166.808	-0.236	-0.010
-438.763	181.350	0.229	0.332
-437.749	800.000	0.135	0.431
-436.734	-200.000	-0.002	0.109
-435.719	800.000	-0.027	-0.089
-434.705	-161.494	-0.178	0.009
-433.690	21.946	-0.125	0.101
-432.676	-172.068	0.380	0.012
-431.661	232.392	0.305	-0.494
-430.646	-52.708	-0.153	0.070
-429.632	-84.292	0.415	0.130
-428.617	800.000	-0.084	-0.278
-427.603	-18.826	-0.208	-0.128
-426.588	-123.505	0.058	0.009
-425.573	-7.440	0.241	0.161
-424.559	-200.000	-0.148	0.000
-423.544	-72.773	-0.071	0.026
-422.530	-64.660	-0.418	-0.167
-421.515	80.154	-0.194	-0.206
-420.500	-163.588	-0.270	0.013
-419.486	-200.000	0.040	-0.288
-418.471	225.381	-0.097	0.155
-417.457	88.991	0.100	0.110
-416.442	122.241	-0.111	-0.137
-415.428	55.597	0.159	-0.152
-414.413	-62.369	-0.245	0.101
-413.398	-110.956	-0.154	0.031
-412.384	416.527	0.059	0.124
-411.369	-75.338	0.242	0.085
-410.355	-105.824	0.145	0.032
-409.340	81.454	-0.244	-0.260
-408.325	-200.000	-0.033	-0.230
-407.311	-200.000	-0.001	0.198
-406.296	-200.000	-0.009	-0.226
-405.282	114.602	-0.158	-0.191
-404.267	282.734	-0.102	0.182
-403.252	-35.347	0.220	-0.118
-402.238	355.102	0.125	-0.246
-401.223	424.323	0.198	-0.420
-400.209	-68.052	-0.098	-0.038
-399.194	-68.342	-0.084	0.032
-398.179	8.069	-0.112	-0.083
-397.165	-38.831	-0.337	-0.175
-396.150	117.464	-0.131	-0.159
-395.136	-104.100	-0.332	0.076
-394.121	-186.360	0.198	0.003
-393.106	-132.933	-0.114	-0.014
-392.092	70.109	-0.301	-0.306
-391.077	199.641	0.129	0.195
-390.063	-89.317	0.055	-0.016
-389.048	14.351	0.470	0.361
-388.033	74.676	-0.189	0.196
-387.019	-63.621	0.219	-0.088
-386.004	800.000	0.075	-0.308
-384.990	-200.000	0.008	0.039
-383.975	446.953	-0.051	0.110
-382.960	-200.000	-0.002	-0.024
-381.946	-17.880	-0.079	0.049
-380.931	16.854	-0.419	0.327
-379.917	348.905	0.065	0.126
-378.902	35.175	-0.078	-0.067
-377.888	444.596	-0.090	-0.196
-376.873	-94.151	0.305	-0.082
-375.858	353.945	0.157	0.307
-374.844	-153.866	-0.416	0.028
-373.829	-200.000	-0.021	-0.137
-372.815	-200.000	0.038	0.323
-371.800	-73.668	0.243	0.087
-370.785	-17.888	0.120	-0.074
-369.771	-72.801	0.378	0.137
-368.756	-97.432	0.257	-0.066
-367.742	-189.833	0.211	0.002
-366.727	-134.238	-0.305	0.037
-365.712	-139.204	0.435	0.046
-364.698	-135.902	0.088	0.010
-363.683	-7.063	0.294	-0.197
-362.669	-108.248	0.242	-0.052
-361.654	-95.839	0.366	0.096
-360.639	-70.089	0.285	-0.107
-359.625	552.568	0.081	-0.191
-358.610	-113.473	-0.319	0.062
-357.596	-200.000	0.027	0.310
-356.581	284.565	0.036	-0.063
-355.566	-134.940	-0.277	-0.033
-354.552	-57.877	-0.156	-0.067
-353.537	-121.849	-0.143	0.023
-352.523	-161.735	0.160	0.008
-351.508	-62.372	-0.082	-0.034
-350.493	345.916	0.018	-0.034
-349.479	-51.580	0.069	-0.032
-348.464	-200.000	-0.023	0.239
-347.450	56.113	0.080	-0.076
-346.435	-81.578	0.100	0.032
-345.420	-162.500	0.119	-0.006
-344.406	21.883	-0.175	0.140
-343.391	-136.567	0.212	0.024
-342.377	-163.285	-0.125	-0.006
-341.362	10.691	0.162	-0.122
-340.348	-66.463	-0.410	-0.160
-339.333	4.380	0.437	-0.315
-338.318	493.238	0.060	-0.136
-337.304	-40.999	-0.214	-0.109
-336.289	-200.000	-0.020	0.105
-335.275	-94.039	0.106	-0.029
-334.260	-129.619	0.297	0.040
-333.245	176.529	-0.225	0.322
-332.231	167.415	-0.110	-0.154
-331.216	482.524	0.103	-0.231
-330.202	-87.758	0.101	0.030
-329.187	27.665	0.210	0.174
-328.172	-156.151	0.175	0.011
-327.158	-200.000	-0.039	-0.357
-326.143	-200.000	-0.031	-0.203
-325.129	185.645	0.151	-0.221
-324.114	-67.038	0.179	-0.070
-323.099	-106.660	0.244	0.053
-322.085	799.962	0.035	0.094
-321.070	264.115	0.092	0.158
-320.056	572.058	0.056	0.135
-319.041	-150.673	0.180	-0.014
-318.026	17.000	-0.041	0.032
-317.012	800.000	0.043	0.151
-315.997	22.526	0.263	-0.212
-314.983	-154.511	-0.056	0.004
-313.968	664.166	0.049	-0.125
-312.953	243.556	0.079	-0.130
-311.939	-26.568	-0.155	-0.090
-310.924	-102.444	0.227	0.053
-309.910	-200.000	-0.008	-0.112
-308.895	19.600	-0.260	0.205
-307.880	-30.361	-0.108	-0.060
-306.866	800.000	0.024	-0.088
-305.851	800.000	-0.005	-0.016
-304.837	-67.521	-0.175	-0.067
-303.822	203.238	-0.089	0.135
-302.807	-200.000	-0.015	-0.369
-301.793	-200.000	0.003	0.033
-300.778	-181.437	-0.124	-0.002
-299.764	275.344	-0.099	0.173
-298.749	126.948	-0.092	-0.114
-297.735	-174.888	0.246	-0.007
-296.720	-200.000	-0.054	-0.289
-295.705	-21.344	0.242	-0.145
-294.691	800.000	-0.043	-0.175
-293.676	800.000	-0.054	-0.148
-292.662	642.411	0.076	-0.191
-291.647	176.583	-0.057	-0.082
-290.632	-42.358	-0.198	0.099
-289.618	-200.000	-0.018	-0.113
-288.603	463.442	-0.016	0.035
-287.589	-200.000	0.010	0.058
-286.574	99.365	-0.097	0.110
-285.559	800.000	0.091	0.341
-284.545	171.349	-0.031	0.043
-283.530	-39.477	0.366	-0.189
-282.516	23.510	-0.244	0.197
-281.501	131.185	-0.164	0.207
-280.486	121.471	-0.274	0.336
-279.472	190.059	-0.016	-0.023
-278.457	268.814	0.078	0.134
-277.443	222.140	0.213	-0.337
-276.428	-51.373	-0.134	-0.062
-275.413	-30.414	-0.207	0.115
-274.399	800.000	0.018	0.059
-273.384	-32.403	-0.399	0.218
-272.370	154.119	-0.047	-0.063
-271.355	800.000	0.082	0.292
-270.340	-174.323	-0.146	0.004
-269.326	-27.614	-0.225	0.128
-268.311	-200.000	0.051	0.344
-267.297	285.960	-0.117	-0.207
-266.282	267.499	-0.069	-0.119
-265.267	61.161	0.070	-0.069
-264.253	40.813	-0.107	-0.095
-263.238	800.000	0.070	-0.230
-262.224	57.796	-0.427	-0.410
-261.209	725.566	-0.027	-0.070
-260.195	800.000	0.133	-0.366
-259.180	800.000	0.048	-0.191
-258.165	62.668	-0.119	0.116
-257.151	61.498	0.052	0.050
-256.136	-26.817	0.095	-0.055
-255.122	135.277	0.275	-0.351
-254.107	800.000	0.024	-0.082
-253.092	673.926	0.126	-0.320
-252.078	114.866	-0.251	-0.301
-251.063	21.502	-0.156	-0.124
-250.049	-200.000	0.011	-0.240
-249.034	431.319	-0.069	0.146
-248.019	-80.286	-0.160	0.052
-247.005	88.675	0.053	0.058
-245.990	800.000	-0.034	-0.098
-244.976	321.136	0.090	-0.169
-243.961	-25.195	0.243	-0.141
-242.946	-200.000	-0.001	-0.023
-241.932	-200.000	-0.014	0.194
-240.917	-200.000	0.017	-0.196
-239.903	350.278	-0.073	0.141
-238.888	265.898	0.067	0.115
-237.873	59.549	-0.259	0.251
-236.859	800.000	0.072	-0.204
-235.844	-25.506	-0.277	-0.161
-234.830	58.880	-0.094	0.091
-233.815	-200.000	-0.021	-0.241
-232.800	-81.591	0.210	0.068
-231.786	-200.000	-0.010	-0.208
-230.771	671.884	-0.101	-0.257
-229.757	90.194	-0.134	-0.147
-228.742	436.042	-0.049	0.104
-227.727	146.441	-0.213	0.281
-226.713	163.874	-0.254	0.351
-225.698	-35.893	0.159	0.084
-224.684	-78.186	0.201	-0.068
-223.669	-0.900	0.294	-0.204
-222.655	-125.208	0.182	0.027
-221.640	-46.545	0.126	0.060
-220.625	-200.000	-0.064	0.287
-219.611	-47.641	-0.148	-0.070
-218.596	-101.790	-0.156	0.037
-217.582	-123.414	-0.325	0.051
-216.567	635.299	0.214	-0.531
-215.552	634.021	0.151	-0.375
-214.538	-200.000	0.037	-0.256
-213.523	304.857	-0.162	0.294
-212.509	-35.648	0.105	0.056
-211.494	-31.825	0.173	-0.095
-210.479	50.644	-0.267	-0.247
-209.465	8.503	0.328	0.242
-208.450	-80.980	0.264	-0.086
-207.436	121.898	-0.240	-0.293
-206.421	4.083	0.246	0.176
-205.406	-200.000	-0.007	0.336
-204.392	23.518	0.107	-0.086
-203.377	51.977	0.364	0.340
-202.363	94.075	0.084	0.093
-201.348	800.000	-0.078	-0.324
-200.333	-130.579	0.188	0.025
-199.319	-18.507	0.324	-0.198
-198.304	24.676	-0.085	0.069
-197.290	-4.953	-0.078	-0.053
-196.275	800.000	0.141	-0.419
-195.260	-30.476	-0.171	-0.095
-194.246	26.077	-0.155	0.126
-193.231	-114.672	0.280	-0.053
-192.217	-39.545	0.199	-0.102
-191.202	-119.441	-0.285	-0.048
-190.187	-71.184	-0.111	-0.041
-189.173	184.965	0.008	-0.012
-188.158	-103.214	-0.400	-0.092
-187.144	114.382	0.165	0.197
-186.129	-100.555	-0.378	0.091
-185.114	-62.919	-0.302	-0.122
-184.100	-19.245	-0.604	0.367
-183.085	-51.182	0.178	-0.081
-182.071	-42.354	-0.300	-0.150
-181.056	729.026	-0.117	0.305
-180.042	800.000	0.179	-0.540
-179.027	29.532	0.149	-0.124
-178.012	800.000	0.059	0.226
-176.998	71.473	-0.151	0.154
-175.983	-20.087	0.308	-0.186
-174.969	-200.000	-0.016	0.223
-173.954	441.905	-0.076	0.162
-172.939	415.300	0.117	0.243
-171.925	-186.768	-0.354	-0.005
-170.910	148.076	0.096	0.127
-169.896	272.791	-0.018	-0.031
-168.881	-200.000	0.037	-0.299
-167.866	239.844	0.074	-0.121
-166.852	-98.478	-0.080	-0.020
-165.837	409.341	0.117	-0.241
-164.823	-123.441	-0.268	-0.042
-163.808	52.179	0.110	0.102
-162.793	-200.000	0.083	0.452
-161.779	70.282	-0.227	0.229
-160.764	207.753	0.078	-0.119
-159.750	32.220	0.168	-0.141
-158.735	330.056	-0.046	-0.087
-157.720	-200.000	-0.025	0.191
-156.706	-70.976	0.183	0.067
-155.691	800.000	-0.069	0.201
-154.677	184.576	0.113	0.163
-153.662	696.929	-0.181	0.465
-152.647	-123.054	-0.116	0.018
-151.633	356.499	0.100	0.196
-150.618	-200.000	-0.022	-0.235
-149.604	3.373	0.203	0.145
-148.589	229.784	0.142	0.226
-147.574	-55.118	0.283	-0.124
-146.560	201.660	0.191	-0.288
-145.545	188.586	-0.037	-0.055
-144.531	174.616	0.122	0.172
-143.516	-108.313	-0.077	0.016
-142.502	47.681	0.325	0.296
-141.487	-39.245	-0.191	0.098
-140.472	168.972	-0.096	-0.133
-139.458	-200.000	0.017	0.314
-138.443	-200.000	0.051	-0.296
-137.429	161.829	0.086	0.117
-136.414	236.922	0.148	-0.239
-135.399	-200.000	-0.042	0.381
-134.385	248.871	0.172	-0.284
-133.370	800.000	-0.015	0.058
-132.356	-57.506	0.332	-0.142
-131.341	-12.261	-0.354	0.226
-130.326	91.357	0.226	0.248
-129.312	800.000	-0.061	-0.185
-128.297	298.282	-0.015	0.028
-127.283	-35.912	-0.088	0.046
-126.268	292.193	0.167	-0.297
-125.253	-107.270	-0.350	-0.075
-124.239	-47.531	-0.070	0.033
-123.224	75.147	0.286	0.294
-122.210	285.464	-0.040	0.070
-121.195	-95.273	-0.160	0.042
-120.180	-89.683	0.186	0.053
-119.166	333.765	0.163	-0.308
-118.151	744.937	0.053	0.138
-117.137	-147.208	0.351	-0.029
-116.122	-23.550	0.084	0.049
-115.107	-200.000	-0.013	-0.106
-114.093	-18.841	0.190	-0.115
-113.078	71.079	0.118	-0.120
-112.064	2.776	0.317	0.224
-111.049	472.816	-0.134	-0.293
-110.034	-120.093	-0.083	-0.014
-109.020	89.643	0.094	-0.102
-108.005	-38.166	-0.262	-0.135
-106.991	-96.297	0.257	-0.066
-105.976	-200.000	0.008	0.371
-104.962	38.403	-0.316	0.275
-103.947	-200.000	-0.044	-0.358
-102.932	800.000	0.085	-0.249
-101.918	-99.929	-0.296	0.072
-100.903	-80.721	-0.055	-0.018
-99.889	46.021	0.175	0.158
-98.874	121.635	-0.140	-0.170
-97.859	-200.000	0.049	-0.225
-96.845	-200.000	0.013	0.111
-95.830	158.705	0.117	-0.158
-94.816	187.366	-0.167	0.244
-93.801	-185.850	-0.132	0.002
-92.786	-200.000	-0.013	0.190
-91.772	-44.395	0.335	0.164
-90.757	-200.000	0.063	0.320
-89.743	-200.000	-0.020	0.452
-88.728	-158.732	0.163	0.009
-87.713	71.049	-0.043	-0.043
-86.699	-62.800	0.165	0.067
-85.684	8.503	0.425	0.312
-84.670	140.287	0.168	0.217
-83.655	-110.102	0.232	0.047
-82.640	86.040	-0.113	-0.121
-81.626	-123.234	-0.142	-0.022
-80.611	11.034	0.152	-0.113
-79.597	54.064	0.256	-0.240
-78.582	746.040	0.014	0.038
-77.567	-106.367	-0.259	-0.057
-76.553	-200.000	-0.044	0.355
-75.538	-200.000	0.014	0.183
-74.524	-155.726	0.185	-0.012
-73.509	291.340	0.207	-0.367
-72.494	354.902	0.024	0.046
-71.480	-74.855	-0.065	-0.023
-70.465	121.667	0.199	-0.241
-69.451	690.154	0.085	-0.217
-68.436	-147.127	0.122	-0.010
-67.422	-109.569	0.303	0.062
-66.407	124.427	-0.084	0.103
-65.392	-200.000	-0.003	0.136
-64.378	-119.607	-0.203	-0.034
-63.363	190.564	0.082	0.120
-62.349	25.750	-0.137	0.111
-61.334	99.182	-0.767	-0.863
-60.319	187.636	0.546	0.793
-59.305	241.020	-0.729	-1.185
-58.290	170.453	0.958	1.335
-57.276	800.000	0.512	1.384
-56.261	-200.000	119.566	623.856
-55.246	421.071	1532.309	3197.819
-54.232	148.493	2688.913	3534.976
-53.217	92.184	2266.576	2485.336
-52.203	33.704	1883.460	1594.171
-51.188	28.046	1681.099	1380.257
-50.173	25.717	1642.256	1331.116
-49.159	45.221	1709.053	1533.510
-48.144	43.734	1721.109	1533.016
-47.130	27.634	1672.815	1370.141
-46.115	25.066	1657.673	1338.536
-45.100	24.994	1652.463	1333.744
-44.086	24.917	1650.245	1331.328
-43.071	24.909	1647.629	1329.099
-42.057	24.811	1645.623	1326.706
-41.042	24.864	1643.724	1325.517
-40.027	24.997	1641.534	1324.677
-39.013	24.810	1640.327	1322.272
-37.998	24.864	1638.680	1321.290
-36.984	24.872	1637.149	1320.057
-35.969	24.985	1635.355	1319.396
-34.954	25.018	1634.179	1318.637
-33.940	25.024	1631.946	1316.825
-32.925	25.058	1630.550	1315.900
-31.911	25.015	1629.042	1314.315
-30.896	25.013	1627.576	1313.063
-29.881	24.939	1626.256	1311.405
-28.867	25.041	1624.388	1310.591
-27.852	25.042	1623.076	1309.488
-26.838	24.996	1621.593	1307.903
-25.823	24.995	1620.366	1306.857
-24.809	25.065	1619.027	1306.230
-23.794	25.015	1617.435	1304.534
-22.779	25.046	1615.927	1303.489
-21.765	24.975	1614.543	1301.808
-20.750	24.977	1613.128	1300.627
-19.736	25.012	1611.739	1299.713
-18.721	25.008	1610.595	1298.707
-17.706	24.998	1608.572	1296.955
-16.692	25.035	1606.836	1295.766
-15.677	25.008	1605.555	1294.486
-14.663	25.052	1604.542	1293.941
-13.648	25.029	1602.978	1292.460
-12.633	24.966	1601.395	1290.678
-11.619	25.067	1599.685	1289.980
-10.604	25.075	1598.597	1289.106
-9.590	24.942	1597.294	1287.047
-8.575	25.081	1596.010	1286.957
-7.560	25.111	1594.782	1286.135
-6.546	25.082	1593.879	1285.147
-5.531	25.027	1592.605	1283.678
-4.517	25.020	1591.261	1282.494
-3.502	25.080	1590.030	1281.875
-2.487	25.132	1588.791	1281.198
-1.473	24.529	1576.749	1267.159
-0.458	21.235	1556.958	1228.080
0.556	16.507	1557.418	1194.714
1.571	13.963	1580.721	1194.217
2.586	13.837	1592.539	1202.127
3.600	13.014	1539.564	1156.272
4.615	7.560	1435.068	1041.992
5.629	1.839	1375.734	962.754
6.644	0.864	1368.078	951.183
7.659	0.742	1367.031	949.609
8.673	0.848	1366.240	949.638
9.688	0.826	1363.999	947.862
10.702	0.612	1360.683	944.133
11.717	3.344	1364.778	964.002
12.731	10.270	1374.937	1014.629
13.746	15.910	1382.854	1055.845
14.761	17.428	1384.114	1066.230
15.775	16.734	1382.686	1060.688
16.790	15.756	1379.760	1052.235
17.804	15.054	1377.650	1046.148
18.819	14.648	1376.498	1042.648
19.834	14.421	1374.716	1039.786
20.848	14.171	1373.626	1037.310
21.863	13.891	1372.611	1034.707
22.877	13.727	1371.094	1032.454
23.892	13.675	1370.377	1031.497
24.907	13.632	1369.614	1030.566
25.921	13.745	1368.643	1030.443
26.936	13.691	1367.756	1029.353
27.950	13.737	1366.938	1028.928
28.965	13.844	1365.629	1028.517
29.980	13.837	1364.445	1027.488
30.994	14.012	1363.284	1027.606
32.009	13.878	1362.824	1026.343
33.023	13.910	1361.400	1025.374
34.038	13.847	1360.549	1024.255
35.053	13.873	1359.712	1023.696
36.067	13.729	1358.443	1021.765
37.082	13.770	1357.942	1021.546
38.096	13.920	1356.458	1021.266
39.111	13.889	1355.858	1020.528
40.126	13.828	1354.831	1019.294
41.140	13.828	1354.080	1018.639
42.155	13.708	1353.738	1017.554
43.169	13.569	1353.790	1016.651
44.184	13.673	1353.547	1017.015
45.199	13.656	1352.887	1016.325
46.213	13.713	1352.258	1016.115
47.228	13.742	1351.356	1015.524
48.242	13.748	1349.873	1014.354
49.257	13.768	1348.333	1013.229
50.271	13.826	1346.781	1012.326
51.286	13.762	1345.910	1011.190
52.301	13.862	1344.227	1010.446
53.315	13.774	1343.577	1009.336
54.330	13.699	1342.978	1008.339
55.344	13.747	1341.170	1007.183
56.359	13.726	1340.112	1006.174
57.374	13.694	1339.235	1005.234
58.388	13.674	1338.662	1004.592
59.403	13.583	1338.273	1003.662
60.417	13.618	1337.715	1003.366
61.432	13.646	1336.369	1002.435
62.447	13.637	1335.442	1001.595
63.461	13.550	1334.553	1000.314
64.476	13.543	1333.124	999.115
65.490	13.623	1331.876	998.573
66.505	13.634	1330.694	997.662
67.520	13.690	1329.422	996.957
68.534	13.691	1328.077	995.870
69.549	13.673	1327.341	995.118
70.563	13.651	1325.548	993.553
71.578	13.556	1324.958	992.457
72.593	13.643	1324.220	992.335
73.607	13.576	1323.577	991.368
74.622	13.533	1322.763	990.415
75.636	13.556	1321.977	989.873
76.651	13.544	1321.338	989.233
77.666	13.544	1320.627	988.613
78.680	13.598	1319.648	988.117
79.695	13.553	1319.100	987.354
80.709	13.678	1318.126	987.279
81.724	13.696	1317.225	986.627
82.739	13.653	1316.021	985.380
83.753	13.721	1314.679	984.689
84.768	13.829	1313.993	984.729
85.782	13.877	1312.593	983.878
86.797	13.800	1311.204	982.292
87.812	13.763	1310.490	981.457
88.826	13.694	1309.535	980.245
89.841	13.755	1308.316	979.606
90.855	13.795	1307.200	978.922
91.870	13.726	1306.487	977.891
92.884	13.819	1305.361	977.513
93.899	13.801	1305.167	977.174
94.914	13.870	1304.580	977.050
95.928	13.886	1303.084	975.940
96.943	13.784	1302.399	974.739
97.957	13.687	1302.067	973.838
98.972	13.878	1300.598	973.775
99.987	13.791	1299.306	972.210
101.001	13.907	1298.288	972.043
102.016	13.823	1296.940	970.456
103.030	13.820	1296.685	970.157
104.045	13.819	1295.694	969.326
105.060	13.765	1294.296	967.879
106.074	13.659	1292.987	966.197
107.089	13.588	1291.775	964.794
108.103	13.612	1290.635	963.999
109.118	13.667	1289.258	963.200
110.133	13.730	1287.502	962.169
111.147	13.667	1286.704	961.122
112.162	13.869	1284.846	960.819
113.176	13.748	1283.993	959.399
114.191	13.722	1283.266	958.621
115.206	13.738	1281.940	957.635
116.220	13.719	1280.831	956.614
117.235	13.815	1279.519	956.104
118.249	13.770	1278.588	955.061
119.264	13.703	1277.921	954.092
120.279	13.755	1276.503	953.252
121.293	13.702	1275.546	952.147
122.308	13.774	1274.376	951.604
123.322	13.674	1273.329	950.161
124.337	13.610	1272.901	949.395
125.352	13.723	1271.181	948.672
126.366	13.766	1270.124	948.044
127.381	13.663	1269.176	946.663
128.395	13.707	1267.716	945.742
129.410	13.737	1266.899	945.220
130.424	13.730	1266.207	944.581
131.439	13.735	1265.382	943.910
132.454	13.781	1264.223	943.222
133.468	13.706	1263.522	942.194
134.483	13.760	1262.704	941.807
135.497	13.706	1261.464	940.491
136.512	13.748	1260.178	939.688
137.527	13.755	1258.630	938.492
138.541	13.674	1257.792	937.321
139.556	13.781	1255.834	936.385
140.570	13.804	1255.070	935.863
141.585	13.818	1254.143	935.169
142.600	13.922	1252.779	934.653
143.614	13.903	1252.098	933.956
144.629	13.909	1250.898	933.014
145.643	13.895	1249.662	931.927
146.658	13.982	1248.268	931.296
147.673	13.845	1247.244	929.683
148.687	13.747	1246.317	928.360
149.702	13.778	1244.401	927.025
150.716	13.775	1243.711	926.412
151.731	13.841	1242.720	925.956
152.746	13.861	1241.317	924.940
153.760	13.952	1239.775	924.219
154.775	13.886	1238.749	923.006
155.789	13.879	1238.015	922.335
156.804	14.072	1236.186	921.961
157.819	14.129	1235.374	921.590
158.833	14.038	1234.531	920.378
159.848	14.008	1233.567	919.411
160.862	14.065	1232.462	918.822
161.877	14.010	1231.592	917.785
162.892	13.952	1230.641	916.677
163.906	13.864	1229.797	915.483
164.921	14.012	1228.493	915.244
165.935	14.093	1227.192	914.644
166.950	14.055	1227.493	914.574
167.964	14.139	1225.931	913.790
168.979	14.157	1225.392	913.408
169.994	14.099	1224.528	912.366
171.008	14.111	1223.936	911.911
172.023	14.087	1223.327	911.244
173.037	14.147	1222.767	911.076
174.052	14.196	1221.386	910.233
175.067	14.225	1220.266	909.478
176.081	14.169	1219.201	908.297
177.096	14.127	1218.590	907.530
178.110	14.175	1217.099	906.603
179.125	14.111	1216.086	905.418
180.140	14.215	1215.082	905.160
181.154	14.258	1213.681	904.266
182.169	14.251	1212.375	903.176
183.183	14.291	1211.154	902.402
184.198	14.407	1209.912	902.026
185.213	14.255	1209.057	900.484
186.227	14.299	1208.227	900.025
187.242	14.340	1207.048	899.291
188.256	14.297	1206.048	898.232
189.271	14.304	1205.104	897.487
190.286	14.173	1204.477	896.238
191.300	14.213	1203.437	895.598
192.315	14.282	1202.813	895.428
193.329	14.226	1202.016	894.453
194.344	14.268	1201.350	894.102
195.359	14.318	1200.659	893.778
196.373	14.321	1200.459	893.566
197.388	14.361	1200.096	893.431
198.402	14.449	1198.944	892.967
199.417	14.495	1198.464	892.779
200.432	14.517	1197.765	892.296
201.446	14.524	1196.873	891.586
202.461	14.523	1196.087	890.918
203.475	14.500	1194.826	889.780
204.490	14.579	1193.492	889.126
205.504	14.582	1192.423	888.270
206.519	14.583	1191.167	887.259
207.534	14.450	1190.249	885.791
208.548	14.593	1189.258	885.733
209.563	14.616	1188.409	885.144
210.577	14.558	1187.613	884.166
211.592	14.569	1187.024	883.707
212.607	14.733	1186.177	883.866
213.621	14.664	1184.711	882.334
214.636	14.659	1183.853	881.590
215.650	14.634	1183.610	881.198
216.665	14.754	1181.969	880.531
217.680	14.715	1181.437	879.850
218.694	14.707	1180.433	878.984
219.709	14.847	1179.569	878.997
220.723	14.761	1179.125	878.135
221.738	14.774	1178.057	877.330
222.753	14.725	1177.305	876.438
223.767	14.846	1176.733	876.570
224.782	14.856	1176.340	876.251
225.796	14.962	1175.533	876.125
226.811	14.969	1174.728	875.489
227.826	14.903	1174.544	874.927
228.840	14.903	1173.413	874.007
229.855	14.784	1173.034	873.024
230.869	14.793	1172.343	872.481
231.884	14.848	1170.986	871.681
232.899	14.855	1170.489	871.272
233.913	14.871	1169.440	870.496
234.928	14.862	1168.992	870.040
235.942	14.913	1167.750	869.300
236.957	14.890	1167.470	868.897
237.972	14.889	1166.146	867.827
238.986	15.043	1165.711	868.228
240.001	15.036	1165.001	867.588
241.015	14.826	1164.324	865.918
242.030	14.978	1163.292	865.861
243.045	15.123	1162.142	865.675
244.059	15.074	1162.223	865.405
245.074	15.055	1160.970	864.301
246.088	15.053	1160.113	863.576
247.103	15.098	1159.374	863.182
248.117	15.125	1158.839	862.842
249.132	15.096	1158.367	862.265
250.147	15.287	1157.246	862.339
251.161	15.230	1156.800	861.636
252.176	15.145	1156.323	860.768
253.190	15.268	1155.065	860.390
254.205	15.353	1154.318	860.192
255.220	15.362	1154.256	860.116
256.234	15.392	1153.534	859.656
257.249	15.226	1153.186	858.470
258.263	15.372	1152.207	858.410
259.278	15.461	1151.506	858.271
260.293	15.499	1150.903	857.938
261.307	15.408	1150.509	857.104
262.322	15.491	1149.891	856.990
263.336	15.486	1148.774	856.059
264.351	15.540	1148.022	855.694
265.366	15.501	1147.536	855.058
266.380	15.561	1146.466	854.493
267.395	15.552	1146.443	854.351
268.409	15.501	1145.653	853.431
269.424	15.489	1144.955	852.775
270.439	15.474	1144.567	852.330
271.453	15.546	1143.715	851.985
272.468	15.457	1142.732	850.729
273.482	15.530	1141.890	850.398
274.497	15.524	1141.714	850.161
275.512	15.584	1140.831	849.729
276.526	15.715	1139.458	849.295
277.541	15.587	1139.157	848.350
278.555	15.593	1138.432	847.765
279.570	15.692	1137.467	847.471
280.585	15.747	1136.765	847.147
281.599	15.644	1135.993	845.979
282.614	15.733	1135.011	845.622
283.628	15.745	1133.994	844.849
284.643	15.760	1133.198	844.259
285.657	15.796	1132.102	843.543
286.672	15.773	1131.121	842.624
287.687	15.830	1130.202	842.150
288.701	15.879	1129.444	841.757
289.716	15.842	1129.204	841.317
290.730	15.954	1127.925	840.850
291.745	15.852	1127.644	840.058
292.760	15.935	1126.564	839.594
293.774	15.834	1126.618	839.052
294.789	16.040	1125.470	839.150
295.803	15.956	1125.107	838.385
296.818	15.942	1124.183	837.555
297.833	16.079	1123.216	837.441
298.847	15.904	1122.811	836.199
299.862	15.931	1121.752	835.467
300.876	15.969	1121.326	835.266
301.891	16.009	1121.059	835.189
302.906	16.092	1119.894	834.662
303.920	16.093	1119.622	834.386
304.935	16.161	1118.571	833.868
305.949	16.240	1118.154	833.870
306.964	16.287	1117.064	833.220
307.979	16.187	1116.427	832.174
308.993	16.196	1115.770	831.656
310.008	16.191	1115.124	831.079
311.022	16.311	1114.153	830.871
312.037	16.213	1113.394	829.748
313.052	16.194	1112.099	828.620
314.066	16.115	1111.869	827.984
315.081	16.270	1110.844	827.907
316.095	16.159	1110.288	826.875
317.110	16.179	1109.467	826.288
318.125	16.249	1108.625	825.934
319.139	16.227	1108.138	825.390
320.154	16.188	1107.527	824.668
321.168	16.219	1107.016	824.366
322.183	16.347	1106.357	824.430
323.197	16.235	1106.175	823.673
324.212	16.252	1105.170	822.938
325.227	16.284	1104.514	822.532
326.241	16.283	1103.622	821.786
327.256	16.331	1102.770	821.314
328.270	16.325	1102.097	820.709
329.285	16.267	1101.362	819.809
330.300	16.402	1100.032	819.400
331.314	16.418	1099.141	818.744
332.329	16.328	1098.305	817.612
333.343	16.348	1097.540	817.068
334.358	16.415	1097.045	816.949
335.373	16.375	1096.305	816.136
336.387	16.581	1095.044	816.116
337.402	16.544	1094.637	815.565
338.416	16.504	1094.187	814.965
339.431	16.523	1093.534	814.497
340.446	16.603	1092.720	814.204
341.460	16.632	1091.938	813.688
342.475	16.598	1091.241	812.934
343.489	16.646	1090.043	812.198
344.504	16.734	1089.132	811.871
345.519	16.660	1088.509	810.980
346.533	16.802	1087.691	810.979
347.548	16.688	1086.943	809.804
348.562	16.775	1086.245	809.625
349.577	16.686	1085.739	808.753
350.592	16.697	1084.755	808.000
351.606	16.694	1083.950	807.314
352.621	16.600	1083.590	806.527
353.635	16.679	1082.845	806.277
354.650	16.700	1081.803	805.529
355.665	16.859	1081.270	805.819
356.679	16.819	1080.357	804.879
357.694	16.924	1079.851	804.926
358.708	16.939	1079.262	804.488
359.723	17.079	1078.312	804.371
360.738	16.931	1077.870	803.271
361.752	16.881	1077.796	802.907
362.767	16.865	1077.281	802.377
363.781	16.998	1076.494	802.351
364.796	17.009	1075.632	801.686
365.810	17.034	1074.997	801.263
366.825	17.111	1074.355	801.077
367.840	17.056	1073.933	800.430
368.854	17.088	1073.565	800.237
369.869	17.082	1072.887	799.631
370.883	17.035	1072.008	798.685
371.898	17.015	1070.990	797.760
372.913	16.966	1070.734	797.270
373.927	17.025	1070.246	797.114
374.942	17.064	1069.811	796.901
375.956	17.197	1069.031	796.872
376.971	17.317	1068.435	796.923
377.986	17.172	1067.772	795.675
379.000	17.222	1067.214	795.425
380.015	17.495	1066.163	795.849
381.029	17.359	1065.761	794.841
382.044	17.452	1065.111	794.721
383.059	17.433	1064.260	793.930
384.073	17.360	1063.633	793.047
385.088	17.442	1062.808	792.746
386.102	17.294	1062.102	791.462
387.117	17.407	1061.295	791.312
388.132	17.336	1060.198	790.098
389.146	17.381	1059.506	789.720
390.161	17.224	1059.104	788.622
391.175	17.325	1058.219	788.360
392.190	17.355	1057.425	787.838
393.205	17.380	1056.774	787.399
394.219	17.398	1055.632	786.564
395.234	17.395	1054.742	785.817
396.248	17.381	1053.863	785.025
397.263	17.403	1052.910	784.348
398.278	17.458	1052.088	783.918
399.292	17.537	1051.450	783.737
400.307	17.511	1050.620	782.933
401.321	17.417	1050.144	782.074
402.336	17.421	1049.700	781.693
403.350	17.474	1048.962	781.320
404.365	17.432	1048.047	780.375
405.380	17.521	1047.640	780.412
406.394	17.590	1046.814	780.041
407.409	17.574	1045.904	779.222
408.423	17.681	1045.132	779.067
409.438	17.684	1044.710	778.698
410.453	17.586	1043.935	777.605
411.467	17.685	1043.111	777.371
412.482	17.862	1042.403	777.584
413.496	17.694	1042.353	776.711
414.511	17.837	1041.308	776.517
415.526	17.858	1040.986	776.302
416.540	17.944	1040.034	775.912
417.555	17.843	1039.959	775.330
418.569	17.862	1039.423	774.947
419.584	17.880	1038.624	774.367
420.599	17.807	1038.625	773.967
421.613	109.301	1327.787	1487.807
422.628	100.370	1369.824	1487.893
