DTS Sentinel unit serial number:	SN413079Multiplexer serial number:	ORYXHardware model number:	OX4-SRSoftware version number:	ORYX F/W v4.00 Oryx Data Collector v3.7.2.0data status	okinstallation	princeton_trtdifferential loss correction	single-endedforward channel	channel 2reverse channel	N/Adate	2019/09/11time	23:37:10forward acquisition time	60.00reverse acquisition time	0.00gamma	496.2192k internal	0.2325k external	0.2325temperature offset calibration	1.0075default loss term (dB/km)	0.3790temperature slope calibration	1.0000multiplexer offset coefficient	1.0000multiplexer slope coefficient	1.0000fibre end	0.00T internal ref (°C)	34.14T ext. ref 1 (°C)	1.87T ext. ref 2 (°C)	28.45length (m)	temperature (°C)	Stokes	anti-Stokes-747.200	-200.000	0.026	0.205
-746.185	624.060	-0.155	0.394
-745.171	-200.000	-0.028	-0.150
-744.156	105.921	0.199	-0.237
-743.142	427.249	-0.063	0.136
-742.127	-84.191	-0.182	-0.058
-741.112	-200.000	0.020	0.137
-740.098	-200.000	-0.010	0.411
-739.083	800.000	-0.028	0.094
-738.069	73.967	-0.293	0.311
-737.054	513.825	0.056	0.131
-736.039	-18.310	-0.346	0.218
-735.025	634.228	-0.187	0.478
-734.010	-24.941	-0.147	0.088
-732.996	176.774	-0.103	0.152
-731.981	110.923	-0.160	-0.194
-730.966	-81.145	-0.168	0.056
-729.952	-57.590	-0.398	-0.176
-728.937	-200.000	0.028	-0.279
-727.923	354.358	-0.223	-0.447
-726.908	-67.614	0.055	0.022
-725.894	-58.423	-0.189	0.083
-724.879	277.384	-0.128	-0.229
-723.864	-200.000	0.019	-0.190
-722.850	-98.838	-0.042	0.011
-721.835	-7.118	-0.336	0.230
-720.821	-86.045	0.293	0.091
-719.806	-200.000	-0.002	0.068
-718.791	-10.518	-0.301	0.201
-717.777	272.297	-0.107	-0.190
-716.762	759.525	-0.067	0.184
-715.748	-24.528	-0.179	0.108
-714.733	223.009	0.064	0.103
-713.718	-79.439	-0.100	0.034
-712.704	-51.776	0.348	0.163
-711.689	-200.000	-0.018	0.427
-710.675	627.065	0.058	0.148
-709.660	488.910	-0.071	-0.163
-708.645	-200.000	0.003	-0.380
-707.631	82.041	0.210	-0.229
-706.616	-12.859	-0.251	-0.165
-705.602	800.000	-0.123	-0.374
-704.587	343.089	-0.180	0.356
-703.572	763.998	-0.090	-0.248
-702.558	-124.665	0.074	0.012
-701.543	-45.759	-0.128	0.064
-700.529	54.929	-0.123	-0.120
-699.514	-200.000	-0.003	0.043
-698.499	196.242	-0.159	-0.244
-697.485	-200.000	-0.019	-0.191
-696.470	-52.294	-0.131	0.061
-695.456	412.797	0.081	-0.174
-694.441	-107.827	-0.364	0.080
-693.426	324.322	0.046	-0.088
-692.412	101.581	0.103	0.121
-691.397	60.130	0.312	0.310
-690.383	57.395	0.155	0.153
-689.368	638.624	-0.088	-0.226
-688.354	-25.259	0.342	-0.204
-687.339	800.000	-0.051	0.148
-686.324	624.061	0.026	0.065
-685.310	-159.090	0.270	0.015
-684.295	47.214	-0.184	0.172
-683.281	800.000	0.069	-0.225
-682.266	-200.000	0.075	-0.410
-681.251	543.115	0.019	-0.046
-680.237	-130.048	-0.208	0.029
-679.222	65.812	-0.104	-0.106
-678.208	-1.383	-0.153	-0.109
-677.193	4.800	0.200	-0.148
-676.178	-109.317	0.350	0.075
-675.164	735.751	0.102	-0.276
-674.149	50.744	-0.112	-0.107
-673.135	-157.080	0.343	0.021
-672.120	-85.450	-0.216	0.068
-671.105	800.000	-0.063	-0.222
-670.091	39.769	0.143	0.129
-669.076	-200.000	0.006	0.062
-668.062	88.313	-0.155	-0.173
-667.047	-7.767	-0.205	-0.139
-666.032	-37.770	-0.323	-0.173
-665.018	10.421	-0.085	0.065
-664.003	-200.000	-0.057	0.420
-662.989	-82.660	0.321	-0.105
-661.974	-20.499	0.426	-0.264
-660.959	-142.690	0.105	0.010
-659.945	25.559	-0.229	-0.192
-658.930	150.334	-0.060	0.082
-657.916	99.183	-0.244	-0.284
-656.901	-46.514	-0.154	0.076
-655.886	-200.000	-0.031	-0.249
-654.872	-115.249	0.289	0.055
-653.857	-131.118	0.062	-0.008
-652.843	447.235	-0.147	-0.324
-651.828	-172.151	0.270	0.009
-650.814	-11.276	-0.171	0.113
-649.799	-64.759	0.139	0.057
-648.784	6.348	-0.196	0.146
-647.770	85.830	-0.158	0.174
-646.755	125.062	-0.113	0.143
-645.741	95.108	0.076	-0.087
-644.726	-200.000	-0.001	-0.203
-643.711	-153.211	0.270	-0.019
-642.697	44.480	-0.166	-0.154
-641.682	30.034	-0.092	0.079
-640.668	21.929	-0.217	0.178
-639.653	58.328	0.241	-0.237
-638.638	139.084	-0.135	-0.179
-637.624	-122.203	-0.212	0.035
-636.609	-200.000	-0.035	-0.168
-635.595	-120.472	0.284	0.048
-634.580	-200.000	-0.013	-0.216
-633.565	68.953	-0.176	0.182
-632.551	128.794	0.129	-0.166
-631.536	89.635	-0.071	0.080
-630.522	-166.315	0.372	-0.016
-629.507	-200.000	0.019	0.346
-628.492	-200.000	-0.035	0.231
-627.478	-129.752	-0.157	0.022
-626.463	-136.517	-0.057	0.007
-625.449	-18.617	-0.148	-0.093
-624.434	800.000	0.057	-0.175
-623.419	-94.355	0.120	-0.033
-622.405	-200.000	0.011	-0.330
-621.390	600.649	-0.088	-0.218
-620.376	41.223	-0.117	-0.106
-619.361	-200.000	-0.007	-0.336
-618.346	92.493	0.184	-0.208
-617.332	-137.323	-0.095	-0.011
-616.317	-200.000	-0.013	0.077
-615.303	800.000	-0.032	-0.106
-614.288	-200.000	-0.066	-0.337
-613.273	-15.948	-0.249	-0.159
-612.259	-97.207	-0.171	-0.045
-611.244	127.922	-0.071	0.091
-610.230	209.955	0.095	-0.149
-609.215	-99.631	0.258	-0.065
-608.201	-9.310	0.110	-0.074
-607.186	800.000	0.114	-0.366
-606.171	115.709	0.119	-0.146
-605.157	-25.259	-0.350	0.208
-604.142	-200.000	-0.036	0.262
-603.128	153.382	-0.141	0.193
-602.113	53.521	0.074	-0.072
-601.098	367.028	0.048	0.097
-600.084	-147.362	0.210	0.018
-599.069	800.000	-0.075	0.242
-598.055	-80.140	-0.194	0.065
-597.040	185.016	0.149	-0.222
-596.025	66.934	-0.130	-0.133
-595.011	98.315	0.197	0.228
-593.996	12.402	-0.170	0.131
-592.982	269.306	-0.143	-0.253
-591.967	-87.426	0.049	-0.015
-590.952	103.594	0.134	0.158
-589.938	-176.661	-0.082	-0.002
-588.923	52.575	-0.140	-0.134
-587.909	-78.368	-0.288	0.099
-586.894	3.195	-0.062	0.045
-585.879	-48.566	0.245	0.118
-584.865	138.877	-0.203	0.268
-583.850	800.000	0.080	0.255
-582.836	-71.896	0.196	-0.073
-581.821	-85.401	-0.125	-0.039
-580.806	-200.000	-0.020	-0.243
-579.792	-92.110	0.335	-0.095
-578.777	-160.016	-0.404	-0.022
-577.763	-81.112	-0.334	0.111
-576.748	800.000	-0.075	0.225
-575.733	41.150	-0.276	-0.250
-574.719	236.035	-0.144	0.239
-573.704	394.233	-0.071	0.149
-572.690	-200.000	0.002	0.063
-571.675	65.810	0.063	0.064
-570.661	-76.238	0.147	0.052
-569.646	-79.022	0.276	-0.094
-568.631	-115.227	0.088	0.017
-567.617	103.085	-0.029	0.034
-566.602	800.000	0.038	0.126
-565.588	-129.272	-0.066	-0.009
-564.573	-200.000	0.004	0.026
-563.558	346.234	-0.166	-0.328
-562.544	-112.878	-0.176	-0.035
-561.529	-200.000	-0.032	0.323
-560.515	531.367	-0.091	0.217
-559.500	50.225	0.068	-0.065
-558.485	-200.000	0.006	0.186
-557.471	-200.000	-0.024	-0.156
-556.456	-37.778	-0.061	0.033
-555.442	71.559	-0.087	0.090
-554.427	61.483	0.016	0.016
-553.412	163.530	0.064	0.091
-552.398	54.375	-0.011	-0.011
-551.383	-53.103	0.165	0.076
-550.369	175.496	-0.119	0.173
-549.354	734.419	-0.076	-0.204
-548.339	-50.342	0.236	-0.112
-547.325	-200.000	-0.025	0.270
-546.310	291.294	-0.122	-0.221
-545.296	-79.362	-0.124	0.042
-544.281	-139.899	0.119	0.013
-543.266	150.979	-0.070	0.095
-542.252	312.373	-0.125	-0.235
-541.237	664.437	-0.042	0.107
-540.223	-85.981	0.460	-0.143
-539.208	-116.904	-0.026	-0.005
-538.193	387.205	0.134	0.277
-537.179	-181.361	0.348	-0.007
-536.164	-200.000	-0.005	0.102
-535.150	100.812	-0.183	0.213
-534.135	66.867	-0.282	0.287
-533.121	-13.089	-0.381	-0.248
-532.106	-37.008	0.081	-0.043
-531.091	800.000	-0.060	0.225
-530.077	115.677	-0.074	-0.090
-529.062	-6.970	0.134	0.091
-528.048	617.062	-0.120	-0.301
-527.033	382.345	0.108	-0.223
-526.018	188.058	0.210	-0.313
-525.004	-121.701	-0.367	-0.061
-523.989	-74.351	-0.144	-0.052
-522.975	-175.821	-0.132	0.004
-521.960	292.974	-0.121	-0.221
-520.945	-133.841	-0.413	0.051
-519.931	-200.000	0.012	0.166
-518.916	113.905	0.104	-0.126
-517.902	-42.825	-0.075	-0.038
-516.887	1.050	-0.390	0.280
-515.872	48.166	-0.169	0.158
-514.858	-103.858	-0.326	-0.076
-513.843	-12.086	0.155	-0.101
-512.829	429.032	-0.075	-0.163
-511.814	-200.000	0.008	0.134
-510.799	-200.000	0.016	-0.214
-509.785	259.127	0.067	-0.116
-508.770	-93.534	0.151	-0.042
-507.756	197.149	-0.118	-0.179
-506.741	-36.914	-0.341	-0.183
-505.726	58.894	-0.206	0.202
-504.712	-64.550	0.042	-0.017
-503.697	140.153	0.313	-0.413
-502.683	-162.468	0.071	0.004
-501.668	36.345	-0.121	-0.106
-500.653	-103.328	-0.102	0.024
-499.639	-71.050	-0.311	0.117
-498.624	800.000	-0.044	0.158
-497.610	-88.438	-0.117	0.035
-496.595	-25.002	-0.285	0.169
-495.581	-53.466	-0.132	-0.060
-494.566	-6.637	0.149	0.101
-493.551	-178.950	-0.171	-0.004
-492.537	-105.746	-0.335	0.076
-491.522	-200.000	0.053	-0.280
-490.508	-200.000	-0.003	-0.242
-489.493	-179.849	0.297	0.006
-488.478	188.126	-0.029	0.043
-487.464	-82.016	-0.154	-0.050
-486.449	81.556	-0.032	-0.034
-485.435	-129.642	0.126	0.017
-484.420	-104.702	0.130	0.030
-483.405	-51.307	0.267	-0.125
-482.391	86.631	0.144	-0.159
-481.376	-200.000	-0.024	-0.398
-480.362	-153.961	-0.246	0.017
-479.347	-200.000	-0.041	-0.188
-478.332	-130.556	0.211	-0.029
-477.318	-37.312	0.472	-0.252
-476.303	79.046	-0.243	0.259
-475.289	-200.000	0.030	-0.299
-474.274	-200.000	0.021	0.305
-473.259	46.099	-0.184	0.170
-472.245	-62.725	-0.222	0.092
-471.230	261.620	0.135	-0.233
-470.216	-200.000	-0.012	0.336
-469.201	800.000	0.053	0.202
-468.186	309.759	-0.193	-0.361
-467.172	267.110	0.086	-0.151
-466.157	-42.059	-0.139	0.071
-465.143	-10.663	0.133	-0.088
-464.128	497.375	0.049	0.113
-463.113	450.108	-0.053	0.116
-462.099	-200.000	-0.006	0.271
-461.084	-125.208	0.375	-0.057
-460.070	-50.557	0.079	-0.037
-459.055	800.000	0.057	-0.226
-458.040	116.196	-0.089	-0.109
-457.026	-54.039	0.156	-0.071
-456.011	1.293	0.125	0.090
-454.997	-47.519	0.412	0.200
-453.982	487.504	-0.125	-0.285
-452.968	-20.034	0.274	0.169
-451.953	-73.539	0.321	-0.117
-450.938	-117.722	0.076	0.014
-449.924	214.195	0.069	0.109
-448.909	-130.811	-0.198	-0.027
-447.895	-163.038	0.151	-0.007
-446.880	-102.482	0.172	0.041
-445.865	-134.381	0.146	-0.018
-444.851	-200.000	0.054	-0.255
-443.836	532.668	0.085	-0.200
-442.822	197.768	0.113	-0.172
-441.807	86.719	0.299	0.329
-440.792	-169.619	-0.168	-0.006
-439.778	800.000	-0.047	-0.186
-438.763	-94.689	0.306	-0.083
-437.749	42.949	0.173	0.158
-436.734	528.023	0.151	0.354
-435.719	-32.242	-0.205	0.114
-434.705	-200.000	-0.030	-0.200
-433.690	14.770	0.132	0.103
-432.676	65.267	-0.207	0.209
-431.661	-104.140	0.143	-0.033
-430.646	166.327	-0.098	0.138
-429.632	-109.275	-0.089	-0.019
-428.617	561.238	-0.108	0.260
-427.603	98.507	0.290	-0.333
-426.588	47.000	0.210	0.195
-425.573	-13.314	-0.135	0.087
-424.559	-147.359	0.035	0.003
-423.544	-200.000	0.005	-0.077
-422.530	-117.026	-0.194	-0.035
-421.515	45.684	-0.164	0.151
-420.500	209.775	-0.219	-0.342
-419.486	-200.000	-0.019	0.455
-418.471	800.000	0.054	0.159
-417.457	-162.129	-0.066	-0.003
-416.442	498.789	-0.020	-0.046
-415.428	166.715	0.122	-0.172
-414.413	-200.000	0.007	-0.100
-413.398	800.000	0.097	0.408
-412.384	-163.783	-0.127	-0.006
-411.369	-126.441	0.101	-0.015
-410.355	157.505	0.189	0.261
-409.340	-127.685	-0.167	0.024
-408.325	-50.886	-0.210	-0.098
-407.311	800.000	-0.046	-0.135
-406.296	-22.724	-0.056	0.034
-405.282	-200.000	0.002	-0.175
-404.267	-200.000	-0.019	0.164
-403.252	356.238	-0.030	0.060
-402.238	82.641	-0.077	0.083
-401.223	-46.939	0.223	-0.108
-400.209	559.691	0.024	-0.058
-399.194	-128.076	0.119	-0.017
-398.179	175.982	-0.146	-0.211
-397.165	280.046	0.144	0.257
-396.150	295.579	0.077	0.140
-395.136	800.000	0.029	0.096
-394.121	-37.783	-0.113	0.060
-393.106	800.000	-0.101	0.279
-392.092	-200.000	-0.008	-0.094
-391.077	-128.406	0.111	-0.016
-390.063	296.985	-0.114	-0.208
-389.048	-54.046	0.290	0.132
-388.033	-200.000	-0.005	-0.025
-387.019	319.841	-0.045	-0.085
-386.004	-27.114	-0.267	0.155
-384.990	-73.767	0.359	-0.130
-383.975	611.321	0.073	0.182
-382.960	-200.000	0.033	-0.390
-381.946	-27.636	-0.145	-0.083
-380.931	276.277	0.032	0.056
-379.917	-200.000	0.054	0.259
-378.902	-17.623	0.117	-0.073
-377.888	-44.438	0.153	-0.076
-376.873	-200.000	0.035	0.171
-375.858	-18.748	-0.182	-0.113
-374.844	259.413	0.198	0.341
-373.829	-11.903	0.167	0.109
-372.815	593.488	-0.073	0.179
-371.800	92.603	0.088	-0.099
-370.785	-200.000	-0.012	0.110
-369.771	241.047	0.060	0.100
-368.756	766.666	0.125	-0.339
-367.742	136.004	0.007	0.009
-366.727	800.000	-0.039	0.157
-365.712	11.766	-0.284	-0.217
-364.698	-200.000	-0.018	-0.111
-363.683	-19.803	-0.207	0.127
-362.669	70.083	-0.108	-0.111
-361.654	-86.960	0.141	-0.043
-360.639	96.460	0.190	0.217
-359.625	427.850	0.164	0.351
-358.610	-74.275	0.271	0.097
-357.596	6.708	0.044	0.032
-356.581	239.125	0.094	0.155
-355.566	350.334	-0.090	0.177
-354.552	35.773	0.022	-0.019
-353.537	-200.000	0.029	-0.265
-352.523	-3.315	-0.168	0.116
-351.508	-69.441	-0.217	-0.083
-350.493	-115.444	0.102	-0.019
-349.479	-200.000	-0.017	-0.325
-348.464	-60.780	-0.090	0.038
-347.450	-53.711	0.068	0.031
-346.435	-20.614	0.035	0.021
-345.420	-79.475	0.172	-0.058
-344.406	800.000	-0.038	-0.123
-343.391	-17.284	0.199	-0.124
-342.377	-31.901	-0.099	-0.055
-341.362	-130.568	0.175	0.023
-340.348	800.000	0.056	0.174
-339.333	-49.932	-0.229	-0.108
-338.318	-89.124	0.154	-0.045
-337.304	-94.727	-0.076	0.020
-336.289	-200.000	0.023	0.227
-335.275	192.300	0.204	-0.306
-334.260	-39.799	-0.436	0.226
-333.245	800.000	0.091	-0.333
-332.231	71.139	0.335	0.345
-331.216	-200.000	0.012	0.313
-330.202	-173.978	-0.098	-0.003
-329.187	309.875	-0.105	0.196
-328.172	61.341	-0.162	0.160
-327.158	-58.031	-0.263	0.114
-326.143	345.402	0.132	0.257
-325.129	81.170	0.182	0.195
-324.114	800.000	-0.084	0.309
-323.099	-144.049	-0.127	0.012
-322.085	68.743	0.128	-0.131
-321.070	800.000	-0.068	0.189
-320.056	-46.003	0.444	0.217
-319.041	-200.000	-0.011	-0.502
-318.026	266.103	-0.053	-0.091
-317.012	-22.210	-0.046	0.028
-315.997	-200.000	-0.061	-0.404
-314.983	206.569	-0.077	-0.119
-313.968	-135.229	-0.256	0.031
-312.953	361.641	-0.033	0.065
-311.939	-200.000	0.045	-0.222
-310.924	-110.861	0.265	-0.054
-309.910	-200.000	-0.031	0.256
-308.895	800.000	-0.054	-0.229
-307.880	408.652	-0.242	-0.507
-306.866	29.503	0.277	0.234
-305.851	-158.065	-0.251	0.015
-304.837	-5.663	-0.156	-0.106
-303.822	55.526	0.441	-0.423
-302.807	-200.000	-0.042	0.300
-301.793	491.122	0.148	-0.335
-300.778	53.791	0.058	0.055
-299.764	-94.820	-0.123	0.033
-298.749	-41.343	0.201	0.102
-297.735	-32.498	-0.425	0.235
-296.720	10.822	-0.375	0.284
-295.705	782.663	0.078	-0.212
-294.691	-5.849	-0.235	0.159
-293.676	-200.000	-0.027	-0.256
-292.662	-16.639	0.154	0.096
-291.647	24.640	-0.049	0.040
-290.632	27.435	-0.097	-0.081
-289.618	68.897	0.190	-0.193
-288.603	-154.889	0.259	-0.017
-287.589	-56.193	0.220	-0.097
-286.574	737.226	-0.119	0.317
-285.559	-58.526	0.202	-0.087
-284.545	-97.303	-0.113	-0.029
-283.530	-60.318	-0.267	0.113
-282.516	800.000	0.051	0.150
-281.501	-87.757	0.195	-0.058
-280.486	95.483	0.175	0.198
-279.472	-116.188	0.207	-0.038
-278.457	-200.000	0.020	-0.105
-277.443	-46.519	-0.480	-0.233
-276.428	431.649	-0.156	-0.335
-275.413	-118.305	-0.209	0.037
-274.399	449.810	0.104	-0.228
-273.384	-200.000	-0.044	-0.338
-272.370	134.243	0.061	0.078
-271.355	-191.397	0.137	-0.001
-270.340	106.434	0.107	-0.125
-269.326	88.645	-0.067	0.074
-268.311	-89.003	-0.188	-0.055
-267.297	-200.000	-0.062	-0.284
-266.282	800.000	-0.039	-0.116
-265.267	76.267	0.107	-0.112
-264.253	-200.000	-0.002	0.012
-263.238	80.769	0.196	0.210
-262.224	-25.669	-0.160	0.094
-261.209	800.000	-0.067	-0.184
-260.195	-87.001	0.106	0.032
-259.180	-69.752	0.321	-0.121
-258.165	92.161	-0.152	0.170
-257.151	-88.652	-0.057	0.017
-256.136	10.425	-0.103	0.078
-255.122	252.739	-0.018	0.030
-254.107	-200.000	-0.027	0.249
-253.092	-2.367	-0.123	0.085
-252.078	-100.701	0.166	0.041
-251.063	-33.545	-0.166	-0.090
-250.049	-85.553	0.084	-0.026
-249.034	800.000	-0.037	0.146
-248.019	278.482	-0.018	-0.031
-247.005	46.753	0.090	-0.082
-245.990	-43.011	0.352	-0.177
-244.976	28.870	0.078	0.066
-243.961	-25.754	-0.349	-0.204
-242.946	800.000	0.033	0.114
-241.932	-200.000	0.070	0.317
-240.917	313.033	-0.114	0.213
-239.903	-200.000	-0.025	0.218
-238.888	281.436	0.168	0.298
-237.873	-200.000	0.010	0.048
-236.859	8.401	0.134	0.100
-235.844	-200.000	-0.052	-0.284
-234.830	51.502	0.269	-0.253
-233.815	-165.062	0.081	0.004
-232.800	-200.000	-0.028	0.173
-231.786	-200.000	0.065	-0.394
-230.771	-141.616	-0.153	0.015
-229.757	-200.000	0.057	0.346
-228.742	-200.000	0.001	-0.170
-227.727	-200.000	-0.012	0.158
-226.713	12.630	0.131	0.100
-225.698	-169.416	-0.266	-0.010
-224.684	-92.030	0.201	0.056
-223.669	104.451	0.192	0.223
-222.655	-132.909	0.144	-0.018
-221.640	800.000	0.046	0.155
-220.625	410.510	0.110	-0.230
-219.611	-70.383	-0.237	-0.089
-218.596	643.877	-0.121	-0.304
-217.582	-144.344	0.244	-0.022
-216.567	104.730	-0.077	0.090
-215.552	-200.000	-0.052	-0.238
-214.538	-200.000	0.026	-0.267
-213.523	-78.459	0.279	-0.094
-212.509	-145.699	0.267	0.024
-211.494	-46.765	0.348	-0.168
-210.479	-200.000	0.022	-0.333
-209.465	-67.934	0.207	0.080
-208.450	-55.601	0.122	-0.054
-207.436	354.061	0.055	0.108
-206.421	800.000	0.055	0.225
-205.406	-192.937	0.200	-0.002
-204.392	-200.000	0.052	0.249
-203.377	-84.439	-0.649	-0.203
-202.363	-200.000	-0.012	0.117
-201.348	474.672	0.075	0.167
-200.333	34.741	0.062	0.054
-199.319	29.134	0.211	0.177
-198.304	46.489	0.209	-0.191
-197.290	-200.000	0.021	0.282
-196.275	18.073	-0.246	-0.194
-195.260	-200.000	-0.017	-0.227
-194.246	-72.600	-0.210	-0.077
-193.231	-31.055	-0.149	0.083
-192.217	-56.192	-0.073	-0.032
-191.202	800.000	0.033	0.104
-190.187	-57.803	0.031	-0.013
-189.173	-81.677	0.066	-0.021
-188.158	-30.066	-0.279	0.157
-187.144	92.157	-0.111	-0.124
-186.129	-140.630	-0.272	0.028
-185.114	93.122	-0.230	-0.257
-184.100	800.000	0.037	-0.127
-183.085	800.000	-0.068	0.291
-182.071	-29.600	-0.035	-0.020
-181.056	800.000	-0.056	0.236
-180.042	800.000	-0.017	0.069
-179.027	13.831	-0.134	0.103
-178.012	470.529	0.029	-0.065
-176.998	-57.683	0.027	0.012
-175.983	-121.363	0.347	-0.057
-174.969	118.476	-0.083	0.101
-173.954	361.690	-0.088	0.174
-172.939	-108.950	0.321	-0.068
-171.925	-12.465	-0.216	0.139
-170.910	87.779	0.082	0.090
-169.896	-136.160	0.106	-0.012
-168.881	-153.340	0.198	0.014
-167.866	66.335	-0.169	0.169
-166.852	-92.885	0.262	-0.072
-165.837	-74.868	0.317	0.112
-164.823	800.000	0.019	-0.055
-163.808	263.749	-0.180	0.310
-162.793	-125.109	-0.172	0.026
-161.779	-32.554	0.329	0.181
-160.764	-23.073	-0.354	0.210
-159.750	611.761	0.043	0.106
-158.735	301.833	-0.160	-0.291
-157.720	800.000	-0.024	0.095
-156.706	563.233	0.076	0.181
-155.691	-2.093	-0.128	-0.089
-154.677	18.809	-0.180	-0.142
-153.662	285.559	0.117	-0.208
-152.647	65.403	0.089	-0.088
-151.633	179.534	0.131	-0.189
-150.618	145.602	-0.130	0.172
-149.604	-91.234	0.260	0.073
-148.589	-200.000	-0.029	0.178
-147.574	-69.871	-0.178	0.067
-146.560	-200.000	0.005	-0.252
-145.545	-175.077	-0.426	0.012
-144.531	194.461	-0.083	0.124
-143.516	232.163	-0.147	0.238
-142.502	-200.000	-0.012	-0.090
-141.487	211.528	0.115	-0.178
-140.472	218.700	-0.116	0.183
-139.458	354.005	-0.043	0.085
-138.443	-90.704	0.158	0.045
-137.429	33.255	-0.140	0.120
-136.414	416.708	-0.010	-0.020
-135.399	69.052	0.219	0.222
-134.385	800.000	0.073	0.226
-133.370	367.828	-0.207	-0.412
-132.356	162.125	-0.056	-0.077
-131.341	62.181	0.128	-0.125
-130.326	122.929	-0.181	0.223
-129.312	213.045	0.267	0.416
-128.297	-200.000	0.082	0.355
-127.283	530.351	0.098	0.228
-126.268	-200.000	0.003	0.204
-125.253	-60.965	-0.090	0.037
-124.239	-74.288	0.050	-0.018
-123.224	78.151	-0.134	-0.141
-122.210	-51.079	-0.161	0.074
-121.195	800.000	-0.068	0.247
-120.180	-200.000	-0.009	0.172
-119.166	800.000	-0.084	-0.240
-118.151	-124.842	0.274	0.042
-117.137	-42.566	-0.160	-0.080
-116.122	-200.000	0.031	0.368
-115.107	-39.046	-0.306	-0.158
-114.093	-200.000	0.000	-0.273
-113.078	800.000	0.119	-0.357
-112.064	-7.454	-0.310	0.207
-111.049	214.706	-0.175	0.273
-110.034	339.609	-0.078	0.149
-109.020	-57.290	-0.284	0.123
-108.005	-200.000	0.022	0.258
-106.991	-200.000	-0.013	0.136
-105.976	-200.000	-0.005	-0.187
-104.962	153.084	-0.312	0.420
-103.947	161.830	0.130	-0.179
-102.932	-153.892	0.244	0.016
-101.918	-200.000	0.045	0.576
-100.903	146.521	0.120	-0.159
-99.889	-152.572	0.377	0.027
-98.874	662.193	0.083	0.210
-97.859	34.181	-0.102	-0.087
-96.845	-179.676	0.012	0.000
-95.830	200.802	0.089	0.135
-94.816	-55.458	-0.134	0.059
-93.801	107.034	0.125	-0.147
-92.786	800.000	0.134	-0.393
-91.772	-115.625	0.274	-0.051
-90.757	800.000	-0.035	0.130
-89.743	-200.000	0.019	0.239
-88.728	800.000	-0.128	0.467
-87.713	-123.779	-0.114	0.018
-86.699	129.427	-0.079	0.099
-85.684	-200.000	0.015	0.283
-84.670	-200.000	-0.030	-0.145
-83.655	-200.000	-0.006	0.053
-82.640	-200.000	-0.001	0.024
-81.626	-92.616	-0.062	-0.017
-80.611	-91.591	-0.036	-0.010
-79.597	-35.306	-0.192	0.103
-78.582	-200.000	-0.021	-0.199
-77.567	-119.583	0.208	-0.035
-76.553	-195.590	0.098	0.001
-75.538	546.707	-0.056	-0.131
-74.524	477.514	0.096	-0.214
-73.509	800.000	-0.091	0.291
-72.494	192.373	0.167	0.247
-71.480	-141.625	-0.261	-0.026
-70.465	32.712	0.241	-0.205
-69.451	-200.000	-0.016	-0.170
-68.436	84.972	0.199	0.214
-67.422	398.234	0.077	0.158
-66.407	800.000	0.052	0.222
-65.392	-8.263	-0.202	0.134
-64.378	110.391	0.203	-0.240
-63.363	38.315	-0.181	0.159
-62.349	800.000	-0.104	0.296
-61.334	144.548	-0.793	-1.041
-60.319	30.664	0.424	0.356
-59.305	354.249	-0.606	-1.184
-58.290	185.157	0.707	1.031
-57.276	227.706	0.906	1.449
-56.261	-200.000	97.678	588.861
-55.246	555.534	1391.843	3291.833
-54.232	154.034	2596.168	3497.371
-53.217	108.479	2281.678	2675.631
-52.203	43.507	1899.768	1706.038
-51.188	37.365	1689.962	1471.254
-50.173	34.639	1645.871	1412.674
-49.159	52.771	1693.604	1589.985
-48.144	55.713	1711.265	1628.534
-47.130	37.112	1668.228	1450.212
-46.115	34.196	1653.675	1415.853
-45.100	34.081	1648.642	1410.636
-44.086	34.035	1646.028	1408.003
-43.071	34.009	1643.398	1405.502
-42.057	34.007	1640.655	1403.092
-41.042	34.063	1638.739	1401.804
-40.027	34.153	1636.638	1400.618
-39.013	34.050	1635.074	1398.467
-37.998	33.945	1633.578	1396.360
-36.984	34.078	1632.102	1396.015
-35.969	34.145	1630.872	1395.403
-34.954	34.180	1628.584	1393.648
-33.940	34.127	1626.941	1391.796
-32.925	34.174	1625.343	1390.717
-31.911	34.148	1623.608	1388.990
-30.896	34.117	1622.418	1387.687
-29.881	34.178	1620.443	1386.389
-28.867	34.101	1618.407	1384.031
-27.852	34.156	1616.990	1383.162
-26.838	34.134	1615.558	1381.728
-25.823	34.130	1614.433	1380.681
-24.809	34.107	1612.810	1379.071
-23.794	34.161	1611.709	1378.469
-22.779	34.157	1610.130	1377.027
-21.765	34.143	1608.507	1375.483
-20.750	34.049	1607.478	1373.875
-19.736	34.244	1605.279	1373.348
-18.721	34.215	1603.847	1371.859
-17.706	34.194	1602.063	1370.124
-16.692	34.235	1600.705	1369.208
-15.677	34.162	1599.846	1367.894
-14.663	34.196	1597.821	1366.352
-13.648	34.214	1596.860	1365.603
-12.633	34.150	1595.582	1364.000
-11.619	34.288	1593.169	1362.865
-10.604	34.102	1592.168	1360.624
-9.590	34.135	1590.951	1359.768
-8.575	34.240	1589.841	1359.514
-7.560	34.110	1588.981	1357.798
-6.546	34.094	1587.469	1356.337
-5.531	34.173	1586.332	1355.875
-4.517	34.237	1584.897	1355.051
-3.502	34.233	1584.162	1354.344
-2.487	34.270	1582.096	1352.781
-1.473	33.965	1570.979	1341.074
-0.458	31.299	1551.651	1305.910
0.556	28.024	1552.973	1276.377
1.571	25.810	1576.936	1280.241
2.586	25.603	1591.544	1290.498
3.600	22.936	1538.226	1228.631
4.615	12.956	1426.879	1074.886
5.629	3.690	1359.025	965.944
6.644	2.006	1350.394	949.254
7.659	2.000	1348.265	947.637
8.673	1.782	1347.500	945.665
9.688	1.683	1345.679	943.688
10.702	1.507	1342.459	940.259
11.717	5.096	1349.997	967.744
12.731	15.543	1369.784	1047.298
13.746	23.854	1383.820	1110.060
14.761	25.903	1386.216	1124.687
15.775	26.199	1385.785	1126.084
16.790	26.269	1385.326	1126.049
17.804	26.295	1384.425	1125.380
18.819	26.413	1384.915	1126.409
19.834	26.547	1384.299	1126.646
20.848	26.670	1383.024	1126.273
21.863	26.661	1382.482	1125.672
22.877	26.675	1381.545	1124.902
23.892	26.574	1380.459	1123.291
24.907	26.602	1379.486	1122.570
25.921	26.638	1379.036	1122.327
26.936	26.714	1377.727	1121.636
27.950	26.622	1376.555	1120.010
28.965	26.595	1375.766	1119.106
29.980	26.600	1374.545	1118.043
30.994	26.588	1372.940	1116.568
32.009	26.634	1372.153	1116.109
33.023	26.522	1370.825	1114.239
34.038	26.685	1369.639	1114.182
35.053	26.557	1368.597	1112.446
36.067	26.609	1368.121	1112.280
37.082	26.589	1367.124	1111.247
38.096	26.618	1365.824	1110.273
39.111	26.707	1365.196	1110.207
40.126	26.549	1364.911	1108.911
41.140	26.655	1363.776	1108.541
42.155	26.619	1363.718	1108.173
43.169	26.625	1364.040	1108.373
44.184	26.553	1363.342	1107.269
45.199	26.684	1363.031	1107.718
46.213	26.680	1362.218	1106.934
47.228	26.568	1361.765	1105.789
48.242	26.615	1360.399	1104.868
49.257	26.653	1358.895	1103.776
50.271	26.583	1357.292	1101.956
51.286	26.625	1356.369	1101.361
52.301	26.554	1355.100	1099.800
53.315	26.554	1354.361	1099.103
54.330	26.630	1353.340	1098.640
55.344	26.555	1352.271	1097.220
56.359	26.585	1350.832	1096.138
57.374	26.550	1350.315	1095.408
58.388	26.592	1349.992	1095.302
59.403	26.590	1349.351	1094.678
60.417	26.627	1348.561	1094.159
61.432	26.525	1348.095	1093.069
62.447	26.617	1347.260	1092.850
63.461	26.628	1345.959	1091.769
64.476	26.638	1344.941	1090.906
65.490	26.524	1344.286	1089.589
66.505	26.576	1342.212	1088.123
67.520	26.631	1341.371	1087.676
68.534	26.602	1340.156	1086.420
69.549	26.633	1339.677	1086.122
70.563	26.673	1337.993	1084.903
71.578	26.648	1337.485	1084.242
72.593	26.740	1336.268	1083.711
73.607	26.579	1336.461	1082.811
74.622	26.684	1335.129	1082.265
75.636	26.637	1334.642	1081.493
76.651	26.608	1334.008	1080.708
77.666	26.628	1333.633	1080.426
78.680	26.687	1332.991	1080.167
79.695	26.506	1332.612	1078.680
80.709	26.611	1330.594	1077.580
81.724	26.522	1330.287	1076.703
82.739	26.616	1329.593	1076.607
83.753	26.632	1328.131	1075.425
84.768	26.686	1327.103	1074.814
85.782	26.690	1326.133	1073.962
86.797	26.669	1325.022	1072.839
87.812	26.624	1324.124	1071.749
88.826	26.715	1322.840	1071.156
89.841	26.667	1322.007	1070.105
90.855	26.726	1320.805	1069.383
91.870	26.615	1320.076	1068.045
92.884	26.638	1319.554	1067.661
93.899	26.774	1318.564	1067.565
94.914	26.665	1318.089	1066.444
95.928	26.615	1317.457	1065.547
96.943	26.638	1316.738	1065.005
97.957	26.809	1315.629	1065.017
98.972	26.798	1314.639	1064.060
99.987	26.802	1313.546	1063.104
101.001	26.693	1312.811	1061.775
102.016	26.673	1312.131	1061.013
103.030	26.777	1310.805	1060.457
104.045	26.651	1310.390	1059.293
105.060	26.709	1309.187	1058.564
106.074	26.659	1308.636	1057.733
107.089	26.689	1307.246	1056.693
108.103	26.853	1306.013	1056.556
109.118	26.733	1305.164	1055.076
110.133	26.822	1304.260	1054.773
111.147	26.829	1303.472	1054.084
112.162	26.750	1302.154	1052.461
113.176	26.667	1301.386	1051.270
114.191	26.899	1300.308	1051.652
115.206	26.684	1299.744	1049.853
116.220	26.747	1298.180	1048.860
117.235	26.835	1296.911	1048.250
118.249	26.682	1296.505	1046.945
119.264	26.810	1295.485	1046.768
120.279	26.752	1294.777	1045.772
121.293	26.704	1294.257	1044.983
122.308	26.790	1292.827	1044.231
123.322	26.733	1292.792	1043.780
124.337	26.768	1291.873	1043.149
125.352	26.866	1290.628	1042.611
126.366	26.854	1290.112	1042.034
127.381	26.820	1289.010	1040.860
128.395	26.813	1287.767	1039.722
129.410	26.831	1287.099	1039.191
130.424	26.827	1286.530	1038.619
131.439	26.777	1285.746	1037.608
132.454	26.754	1285.195	1036.941
133.468	26.781	1284.479	1036.423
134.483	26.754	1284.065	1035.846
135.497	26.680	1283.189	1034.626
136.512	26.837	1281.887	1034.377
137.527	26.665	1281.065	1032.645
138.541	26.779	1279.790	1032.174
139.556	26.853	1278.283	1031.290
140.570	26.767	1277.877	1030.380
141.585	26.658	1277.069	1029.017
142.600	26.761	1275.881	1028.556
143.614	26.794	1274.846	1027.815
144.629	26.813	1273.663	1026.877
145.643	26.772	1272.608	1025.707
146.658	26.781	1271.842	1025.047
147.673	26.721	1270.836	1023.811
148.687	26.677	1270.469	1023.177
149.702	26.683	1268.697	1021.691
150.716	26.763	1267.681	1021.233
151.731	26.823	1266.698	1020.689
152.746	26.802	1265.452	1019.477
153.760	26.648	1265.136	1018.262
154.775	26.723	1264.143	1017.794
155.789	26.811	1263.167	1017.414
156.804	26.812	1262.149	1016.512
157.819	26.823	1260.952	1015.521
158.833	26.859	1260.670	1015.400
159.848	26.882	1259.672	1014.638
160.862	26.861	1258.688	1013.639
161.877	26.883	1258.313	1013.368
162.892	26.882	1257.955	1012.986
163.906	26.768	1257.014	1011.502
164.921	26.799	1256.202	1010.934
165.935	26.902	1255.205	1010.614
166.950	26.973	1254.584	1010.419
167.964	26.897	1254.408	1009.765
168.979	26.870	1253.658	1008.922
169.994	26.948	1252.870	1008.634
171.008	26.830	1252.358	1007.476
172.023	26.927	1251.342	1007.106
173.037	26.848	1250.968	1006.278
174.052	26.927	1249.934	1005.794
175.067	27.008	1249.020	1005.419
176.081	26.918	1248.341	1004.287
177.096	26.913	1247.899	1003.812
178.110	26.870	1246.889	1002.676
179.125	26.854	1246.174	1001.922
180.140	26.865	1245.090	1001.024
181.154	26.949	1243.677	1000.262
182.169	27.027	1242.495	999.653
183.183	26.952	1242.001	998.753
184.198	27.087	1240.603	998.283
185.213	27.024	1239.391	996.876
186.227	26.996	1238.985	996.303
187.242	26.995	1238.191	995.572
188.256	27.000	1237.200	994.718
189.271	27.037	1236.366	994.161
190.286	26.935	1235.811	993.069
191.300	27.017	1235.325	993.040
192.315	26.886	1235.031	991.997
193.329	26.971	1234.197	991.701
194.344	27.093	1233.488	991.710
195.359	27.097	1233.101	991.334
196.373	26.925	1233.044	990.264
197.388	26.927	1232.428	989.691
198.402	26.909	1232.378	989.468
199.417	26.913	1231.590	988.768
200.432	27.041	1230.819	988.758
201.446	27.048	1230.261	988.261
202.461	27.058	1229.460	987.584
203.475	27.072	1229.118	987.297
204.490	26.931	1228.192	985.702
205.504	26.936	1226.981	984.667
206.519	27.140	1225.764	984.712
207.534	27.144	1224.649	983.752
208.548	27.066	1224.285	982.946
209.563	27.082	1223.504	982.319
210.577	27.057	1222.760	981.500
211.592	27.171	1222.064	981.472
212.607	27.122	1221.347	980.545
213.621	27.288	1219.823	980.131
214.636	27.222	1219.538	979.455
215.650	27.146	1218.587	978.198
216.665	27.127	1217.846	977.415
217.680	27.245	1216.685	977.030
218.694	27.146	1215.829	975.726
219.709	27.146	1215.536	975.405
220.723	27.191	1214.781	974.955
221.738	27.110	1214.215	973.977
222.753	27.029	1213.330	972.746
223.767	27.198	1212.408	972.827
224.782	27.190	1212.286	972.599
225.796	27.229	1211.943	972.447
226.811	27.172	1211.088	971.368
227.826	27.197	1210.493	970.941
228.840	27.184	1209.894	970.305
229.855	27.208	1209.145	969.746
230.869	27.238	1208.601	969.386
231.884	27.282	1207.602	968.730
232.899	27.288	1207.028	968.215
233.913	27.341	1206.541	968.023
234.928	27.259	1206.380	967.372
235.942	27.271	1205.624	966.742
236.957	27.254	1204.857	965.954
237.972	27.180	1204.554	965.229
238.986	27.266	1203.666	964.890
240.001	27.336	1202.875	964.540
241.015	27.381	1202.195	964.148
242.030	27.414	1201.587	963.750
243.045	27.332	1201.028	962.786
244.059	27.375	1199.595	961.776
245.074	27.382	1198.964	961.221
246.088	27.420	1198.429	960.909
247.103	27.474	1197.807	960.611
248.117	27.547	1196.512	959.872
249.132	27.354	1196.214	958.531
250.147	27.512	1195.575	958.769
251.161	27.469	1194.625	957.695
252.176	27.520	1193.900	957.296
253.190	27.572	1193.252	956.962
254.205	27.459	1192.756	955.888
255.220	27.442	1192.425	955.447
256.234	27.474	1191.942	955.145
257.249	27.527	1190.960	954.554
258.263	27.425	1190.146	953.281
259.278	27.476	1190.135	953.453
260.293	27.641	1189.419	953.662
261.307	27.497	1188.973	952.465
262.322	27.520	1188.034	951.750
263.336	27.534	1187.533	951.339
264.351	27.416	1187.094	950.285
265.366	27.569	1185.863	950.016
266.380	27.508	1185.630	949.422
267.395	27.411	1185.186	948.481
268.409	27.543	1183.990	948.127
269.424	27.494	1183.423	947.333
270.439	27.538	1183.281	947.362
271.453	27.498	1182.803	946.688
272.468	27.472	1181.908	945.756
273.482	27.492	1180.949	945.006
274.497	27.564	1180.617	945.029
275.512	27.602	1180.440	945.003
276.526	27.648	1179.550	944.447
277.541	27.661	1178.735	943.775
278.555	27.693	1177.870	943.164
279.570	27.725	1177.004	942.553
280.585	27.795	1176.352	942.311
281.599	27.718	1175.649	941.268
282.614	27.784	1174.511	940.610
283.628	27.751	1173.925	939.891
284.643	27.719	1173.049	938.942
285.657	27.717	1172.229	938.191
286.672	27.719	1171.510	937.544
287.687	27.749	1170.534	936.831
288.701	27.774	1170.020	936.465
289.716	27.673	1169.775	935.671
290.730	27.739	1168.509	934.911
291.745	27.735	1168.250	934.602
292.760	27.882	1167.291	934.504
293.774	27.893	1166.888	934.156
294.789	27.879	1166.443	933.643
295.803	27.844	1165.930	932.973
296.818	27.784	1165.238	932.031
297.833	27.833	1164.583	931.675
298.847	27.826	1163.968	931.064
299.862	27.743	1163.209	929.950
300.876	27.859	1162.647	930.008
301.891	28.055	1161.912	930.337
302.906	28.065	1160.879	929.480
303.920	27.947	1160.629	928.595
304.935	27.974	1160.001	928.150
305.949	27.964	1159.060	927.266
306.964	27.986	1158.448	926.802
307.979	28.025	1158.066	926.611
308.993	27.953	1157.415	925.645
310.008	27.948	1156.737	924.995
311.022	27.969	1156.016	924.443
312.037	27.982	1155.563	924.065
313.052	28.020	1154.351	923.205
314.066	27.965	1153.804	922.409
315.081	27.981	1152.908	921.691
316.095	27.971	1152.545	921.269
317.110	28.011	1151.575	920.613
318.125	27.989	1151.148	920.084
319.139	28.026	1150.351	919.551
320.154	28.032	1149.902	919.138
321.168	28.017	1149.488	918.653
322.183	28.063	1148.827	918.274
323.197	28.058	1148.346	917.780
324.212	28.117	1147.351	917.203
325.227	28.109	1147.190	916.949
326.241	28.120	1146.831	916.641
327.256	28.068	1146.083	915.700
328.270	28.108	1144.751	914.755
329.285	28.049	1144.478	914.158
330.300	28.145	1143.370	913.671
331.314	27.948	1142.632	912.020
332.329	28.315	1141.621	912.961
333.343	28.206	1141.145	911.958
334.358	28.313	1140.025	911.516
335.373	28.343	1139.777	911.383
336.387	28.356	1139.279	910.971
337.402	28.298	1138.317	909.832
338.416	28.298	1137.489	909.088
339.431	28.282	1137.313	908.791
340.446	28.436	1136.298	908.663
341.460	28.229	1136.154	907.440
342.475	28.428	1135.160	907.550
343.489	28.329	1134.353	906.335
344.504	28.321	1133.085	905.203
345.519	28.405	1132.490	905.065
346.533	28.404	1131.957	904.553
347.548	28.434	1131.263	904.065
348.562	28.450	1130.455	903.417
349.577	28.428	1129.807	902.711
350.592	28.263	1129.372	901.473
351.606	28.428	1128.194	901.263
352.621	28.462	1127.718	900.972
353.635	28.344	1127.308	899.983
354.650	28.371	1127.010	899.800
355.665	28.542	1125.690	899.502
356.679	28.528	1125.405	899.127
357.694	28.500	1124.945	898.544
358.708	28.474	1124.244	897.775
359.723	28.510	1123.198	897.036
360.738	28.534	1122.531	896.546
361.752	28.519	1122.186	896.115
362.767	28.469	1121.881	895.547
363.781	28.524	1121.563	895.482
364.796	28.656	1120.582	895.264
365.810	28.528	1120.167	894.232
366.825	28.543	1119.653	893.814
367.840	28.591	1119.143	893.561
368.854	28.663	1118.254	893.120
369.869	28.718	1117.558	892.756
370.883	28.665	1116.705	891.737
371.898	28.603	1116.589	891.264
372.913	28.622	1116.066	890.858
373.927	28.757	1115.016	890.596
374.942	28.759	1114.881	890.423
375.956	28.733	1114.289	889.742
376.971	28.747	1113.259	888.909
377.986	28.748	1112.914	888.559
379.000	28.671	1112.975	888.156
380.015	28.813	1112.030	888.011
381.029	28.736	1111.400	887.059
382.044	28.835	1110.629	886.845
383.059	28.942	1109.607	886.464
384.073	28.847	1109.287	885.669
385.088	28.912	1108.426	885.218
386.102	28.697	1108.080	883.828
387.117	28.864	1106.813	883.544
388.132	28.789	1106.016	882.471
389.146	28.696	1105.604	881.614
390.161	28.857	1104.774	881.650
391.175	28.800	1104.492	881.072
392.190	28.963	1103.527	881.004
393.205	28.936	1102.857	880.261
394.219	28.995	1101.854	879.668
395.234	28.955	1101.601	879.194
396.248	28.931	1100.463	878.097
397.263	29.040	1099.570	877.824
398.278	28.958	1099.283	877.125
399.292	29.033	1098.460	876.749
400.307	28.965	1098.229	876.164
401.321	28.940	1097.356	875.271
402.336	28.991	1096.879	875.057
403.350	29.058	1095.734	874.381
404.365	29.071	1095.214	873.951
405.380	29.027	1094.608	873.184
406.394	29.153	1093.812	873.069
407.409	29.024	1093.758	872.335
408.423	29.060	1092.669	871.562
409.438	29.096	1092.068	871.172
410.453	29.269	1091.170	871.198
411.467	29.259	1090.573	870.598
412.482	29.296	1089.738	870.031
413.496	29.124	1089.378	868.853
414.511	29.194	1089.098	868.882
415.526	29.101	1088.926	868.229
416.540	29.186	1088.064	867.865
417.555	29.143	1087.122	866.838
418.569	29.312	1086.942	867.409
419.584	29.270	1086.450	866.745
420.599	29.312	1086.230	866.688
421.613	102.755	1318.440	1449.339
422.628	95.731	1352.238	1449.466
