DTS Sentinel unit serial number:	SN413079Multiplexer serial number:	ORYXHardware model number:	OX4-SRSoftware version number:	ORYX F/W v4.00 Oryx Data Collector v3.7.2.0data status	okinstallation	princeton_trtdifferential loss correction	single-endedforward channel	channel 2reverse channel	N/Adate	2019/09/15time	01:27:34forward acquisition time	60.00reverse acquisition time	0.00gamma	496.2192k internal	0.2325k external	0.2325temperature offset calibration	1.0034default loss term (dB/km)	0.3790temperature slope calibration	1.0000multiplexer offset coefficient	1.0000multiplexer slope coefficient	1.0000fibre end	0.00T internal ref (°C)	31.87T ext. ref 1 (°C)	4.51T ext. ref 2 (°C)	26.76length (m)	temperature (°C)	Stokes	anti-Stokes-747.200	-29.787	0.057	-0.033
-746.185	-200.000	0.075	0.000
-745.171	-200.000	0.005	0.156
-744.156	165.823	-0.068	0.098
-743.142	-153.279	0.079	-0.006
-742.127	453.197	0.065	-0.146
-741.112	-200.000	0.013	-0.108
-740.098	50.434	0.109	0.104
-739.083	-197.266	-0.312	0.002
-738.069	-53.053	0.154	0.071
-737.054	-200.000	-0.090	-0.412
-736.039	197.337	-0.146	-0.225
-735.025	-200.000	0.023	0.224
-734.010	-200.000	0.022	-0.255
-732.996	200.616	-0.179	-0.277
-731.981	-161.847	0.221	-0.011
-730.966	94.565	-0.257	0.294
-729.952	21.474	-0.126	-0.103
-728.937	-125.924	-0.307	0.047
-727.923	-72.322	0.118	0.044
-726.908	-56.381	0.050	-0.022
-725.894	-119.806	-0.141	0.024
-724.879	-20.428	-0.101	0.062
-723.864	-200.000	-0.015	-0.354
-722.850	-4.878	0.193	-0.134
-721.835	148.764	-0.092	0.125
-720.821	-111.312	-0.168	0.035
-719.806	-173.018	0.206	-0.006
-718.791	800.000	-0.046	0.159
-717.777	-95.834	-0.118	0.032
-716.762	-22.796	0.233	0.142
-715.748	451.928	-0.153	-0.341
-714.733	93.430	-0.350	-0.399
-713.718	108.809	-0.079	0.095
-712.704	-4.003	-0.100	-0.070
-711.689	207.994	0.049	-0.077
-710.675	-52.922	-0.121	-0.056
-709.660	-14.311	0.298	-0.194
-708.645	-200.000	0.007	-0.276
-707.631	15.541	-0.150	-0.119
-706.616	-200.000	-0.043	-0.247
-705.602	247.752	-0.101	0.172
-704.587	-77.691	-0.161	-0.056
-703.572	-16.893	-0.143	0.091
-702.558	-200.000	0.019	-0.122
-701.543	85.679	0.197	-0.218
-700.529	-158.739	-0.207	0.012
-699.514	-42.845	0.412	-0.211
-698.499	-91.588	0.253	-0.073
-697.485	309.714	-0.173	0.325
-696.470	-81.138	-0.240	0.080
-695.456	-200.000	-0.005	0.166
-694.441	-51.990	0.447	0.209
-693.426	-200.000	0.029	-0.147
-692.412	800.000	0.075	-0.221
-691.397	800.000	0.006	-0.025
-690.383	-86.268	-0.646	-0.200
-689.368	-89.879	0.308	0.091
-688.354	-200.000	-0.020	0.179
-687.339	-4.267	0.175	-0.122
-686.324	120.692	-0.183	-0.229
-685.310	800.000	-0.054	0.204
-684.295	-200.000	-0.025	0.200
-683.281	710.748	0.090	-0.240
-682.266	-157.105	0.241	0.015
-681.251	-102.432	-0.278	-0.067
-680.237	453.056	-0.105	0.233
-679.222	-200.000	-0.034	-0.243
-678.208	-9.444	0.124	0.083
-677.193	-16.364	0.118	-0.075
-676.178	-63.765	-0.204	-0.084
-675.164	-104.626	-0.241	0.056
-674.149	55.022	-0.092	-0.090
-673.135	-127.993	0.090	-0.013
-672.120	-25.325	-0.148	-0.088
-671.105	800.000	-0.117	0.398
-670.091	800.000	0.066	0.232
-669.076	322.904	0.052	-0.101
-668.062	40.109	-0.337	-0.305
-667.047	-47.302	0.317	0.155
-666.032	-13.468	0.181	-0.118
-665.018	29.458	-0.241	-0.206
-664.003	147.141	0.165	-0.224
-662.989	-69.649	-0.185	0.071
-661.974	278.296	0.238	0.427
-660.959	158.568	0.047	0.065
-659.945	-19.671	0.202	-0.126
-658.930	30.687	-0.366	-0.315
-657.916	800.000	0.081	-0.301
-656.901	224.164	0.124	0.201
-655.886	-200.000	-0.038	-0.394
-654.872	48.946	0.060	-0.056
-653.857	196.365	-0.055	-0.085
-652.843	-129.012	-0.074	0.010
-651.828	432.432	0.139	0.302
-650.814	15.130	-0.186	0.146
-649.799	-36.618	-0.135	-0.073
-648.784	-119.067	-0.278	0.049
-647.770	-112.016	-0.143	0.029
-646.755	352.703	0.094	-0.188
-645.741	-48.616	-0.207	-0.100
-644.726	800.000	-0.043	-0.140
-643.711	800.000	0.068	-0.212
-642.697	800.000	-0.004	-0.016
-641.682	215.074	0.031	-0.050
-640.668	-100.823	0.217	0.054
-639.653	-139.565	-0.129	-0.014
-638.638	492.592	-0.168	-0.386
-637.624	-173.690	-0.522	-0.016
-636.609	118.096	0.063	0.078
-635.595	-100.338	0.103	-0.026
-634.580	-200.000	-0.038	-0.191
-633.565	16.546	0.219	-0.174
-632.551	437.907	-0.033	0.073
-631.536	-50.423	0.481	-0.228
-630.522	-200.000	0.101	-0.491
-629.507	800.000	0.038	0.160
-628.492	-200.000	0.020	-0.242
-627.478	-130.470	-0.213	-0.029
-626.463	123.136	0.132	0.166
-625.449	-200.000	-0.021	0.155
-624.434	-101.666	-0.361	0.088
-623.419	-113.161	-0.155	0.031
-622.405	-18.234	-0.115	0.072
-621.390	800.000	0.114	0.321
-620.376	72.420	-0.224	-0.234
-619.361	-200.000	0.055	-0.321
-618.346	-87.604	0.126	0.038
-617.332	273.574	-0.111	-0.197
-616.317	-200.000	0.001	-0.093
-615.303	800.000	0.073	0.271
-614.288	172.395	0.081	-0.117
-613.273	-37.863	-0.239	-0.127
-612.259	-200.000	0.028	0.139
-611.244	800.000	0.013	-0.047
-610.230	398.156	-0.094	-0.197
-609.215	279.577	-0.155	0.278
-608.201	-187.423	-0.295	0.004
-607.186	67.848	-0.093	0.096
-606.171	-135.219	-0.154	-0.019
-605.157	589.284	-0.058	-0.142
-604.142	159.616	0.157	-0.219
-603.128	89.422	0.250	-0.279
-602.113	-10.956	0.255	-0.169
-601.098	-0.698	-0.160	-0.114
-600.084	203.772	-0.221	-0.343
-599.069	166.171	0.112	-0.159
-598.055	800.000	-0.063	-0.207
-597.040	-83.455	-0.196	-0.063
-596.025	-200.000	0.006	0.428
-595.011	-200.000	-0.009	-0.258
-593.996	-6.403	0.198	0.135
-592.982	21.582	0.383	-0.313
-591.967	38.971	0.203	-0.182
-590.952	239.349	-0.252	-0.420
-589.938	323.872	0.141	0.270
-588.923	50.646	-0.338	0.321
-587.909	-200.000	-0.031	0.200
-586.894	606.012	0.197	-0.492
-585.879	-66.251	0.191	-0.076
-584.865	424.391	-0.054	-0.117
-583.850	33.618	0.143	-0.124
-582.836	-30.609	0.301	0.171
-581.821	240.838	-0.080	-0.133
-580.806	-106.635	0.167	-0.037
-579.792	-185.833	0.166	0.002
-578.777	467.636	-0.067	-0.150
-577.763	-200.000	0.007	-0.083
-576.748	411.155	0.031	-0.065
-575.733	-136.057	-0.244	0.029
-574.719	-200.000	0.009	-0.052
-573.704	-198.302	-0.250	0.001
-572.690	-200.000	-0.026	-0.148
-571.675	-188.849	0.294	-0.004
-570.661	163.540	-0.043	0.060
-569.646	-78.220	-0.072	-0.025
-568.631	-74.884	0.077	-0.028
-567.617	599.587	-0.065	0.161
-566.602	800.000	-0.045	-0.192
-565.588	-200.000	-0.019	0.224
-564.573	760.639	-0.120	-0.326
-563.558	-107.166	0.080	-0.018
-562.544	-179.447	-0.314	-0.007
-561.529	45.773	0.168	-0.156
-560.515	192.008	0.236	0.356
-559.500	-23.331	0.254	-0.153
-558.485	300.252	-0.075	-0.139
-557.471	37.809	0.181	0.161
-556.456	-200.000	0.020	0.322
-555.442	-17.669	0.104	-0.066
-554.427	377.511	-0.112	0.229
-553.412	63.110	0.067	-0.068
-552.398	197.569	-0.182	0.278
-551.383	-6.345	-0.219	-0.150
-550.369	-200.000	0.001	0.020
-549.354	318.722	-0.169	-0.320
-548.339	3.567	-0.266	-0.194
-547.325	-200.000	0.063	-0.337
-546.310	-90.791	0.286	0.083
-545.296	473.107	0.141	0.317
-544.281	-200.000	-0.002	-0.024
-543.266	800.000	0.141	0.407
-542.252	-62.826	0.159	0.066
-541.237	-9.419	0.095	-0.064
-540.223	165.810	-0.110	0.156
-539.208	-103.108	-0.081	0.019
-538.193	-166.576	-0.116	-0.005
-537.179	-73.258	-0.184	0.067
-536.164	-200.000	-0.019	0.210
-535.150	-65.707	-0.201	0.080
-534.135	-59.696	0.184	0.079
-533.121	-200.000	0.008	0.219
-532.106	-84.557	0.204	-0.064
-531.091	-83.546	0.068	-0.022
-530.077	-139.280	0.377	0.041
-529.062	471.331	-0.064	0.143
-528.048	126.956	0.168	-0.213
-527.033	171.028	0.221	-0.317
-526.018	688.447	-0.132	0.346
-525.004	-49.375	0.167	0.080
-523.989	-95.183	0.193	0.052
-522.975	786.821	0.039	-0.108
-521.960	-200.000	-0.006	0.198
-520.945	-23.360	0.208	-0.125
-519.931	765.489	0.051	-0.139
-518.916	142.104	-0.077	0.103
-517.902	-58.987	0.211	-0.091
-516.887	-200.000	0.025	0.136
-515.872	44.728	-0.058	0.054
-514.858	-61.476	0.278	0.117
-513.843	139.184	0.158	0.208
-512.829	-175.393	0.422	0.012
-511.814	73.033	-0.183	0.191
-510.799	4.790	-0.262	0.193
-509.785	-134.641	-0.049	-0.006
-508.770	800.000	0.040	-0.122
-507.756	-200.000	0.062	0.423
-506.741	-200.000	0.029	0.232
-505.726	221.252	-0.119	0.192
-504.712	-168.971	-0.346	-0.013
-503.697	-200.000	-0.043	-0.265
-502.683	-10.108	-0.299	0.198
-501.668	-163.338	-0.132	0.006
-500.653	697.040	-0.104	-0.272
-499.639	-200.000	0.020	-0.364
-498.624	753.403	0.099	-0.266
-497.610	30.759	-0.224	0.192
-496.595	-66.504	0.159	-0.063
-495.581	-111.813	0.216	-0.044
-494.566	-124.635	-0.248	-0.038
-493.551	800.000	0.100	-0.283
-492.537	31.327	0.139	0.119
-491.522	-37.485	-0.324	-0.173
-490.508	-5.799	0.152	-0.104
-489.493	-68.647	-0.060	0.023
-488.478	49.135	0.094	0.089
-487.464	87.773	-0.092	0.102
-486.449	800.000	-0.029	-0.092
-485.435	1.261	0.218	0.157
-484.420	-113.623	-0.222	0.043
-483.405	-200.000	-0.055	0.379
-482.391	-200.000	0.042	-0.320
-481.376	-152.893	-0.104	0.007
-480.362	-200.000	0.017	-0.146
-479.347	-56.165	-0.186	0.083
-478.332	800.000	-0.049	0.139
-477.318	131.648	0.091	-0.117
-476.303	-200.000	-0.038	-0.173
-475.289	800.000	0.119	0.341
-474.274	22.775	0.166	0.136
-473.259	80.657	-0.104	-0.112
-472.245	154.381	0.210	0.288
-471.230	-155.409	0.256	-0.017
-470.216	-200.000	0.056	0.261
-469.201	37.509	-0.283	0.251
-468.186	-3.330	0.193	0.134
-467.172	4.186	-0.263	-0.192
-466.157	800.000	-0.054	0.221
-465.143	-152.360	0.191	-0.014
-464.128	109.927	-0.237	0.284
-463.113	-200.000	0.005	-0.076
-462.099	-21.879	-0.105	0.064
-461.084	-200.000	0.005	-0.183
-460.070	-49.679	-0.273	-0.129
-459.055	-200.000	-0.023	-0.215
-458.040	-106.039	-0.105	0.024
-457.026	-200.000	0.004	0.156
-456.011	55.523	-0.211	-0.204
-454.997	-18.323	0.155	-0.097
-453.982	167.501	0.158	0.224
-452.968	-107.300	0.202	0.044
-451.953	-200.000	-0.390	-0.000
-450.938	280.709	0.127	-0.226
-449.924	-200.000	0.016	0.215
-448.909	29.299	-0.206	0.175
-447.895	217.061	0.121	-0.192
-446.880	-45.058	0.207	0.103
-445.865	87.376	0.246	0.272
-444.851	-3.005	0.131	-0.091
-443.836	-156.674	-0.312	0.019
-442.822	729.401	-0.083	-0.220
-441.807	224.006	0.174	0.280
-440.792	-200.000	-0.060	0.305
-439.778	-23.368	-0.239	0.143
-438.763	-24.052	0.239	-0.143
-437.749	-119.770	-0.257	-0.044
-436.734	-84.531	-0.110	0.035
-435.719	-200.000	0.033	0.215
-434.705	-54.056	-0.270	-0.123
-433.690	-200.000	-0.028	0.197
-432.676	514.827	-0.153	0.355
-431.661	626.895	-0.077	0.195
-430.646	-200.000	-0.011	-0.263
-429.632	18.676	0.109	0.087
-428.617	571.049	0.034	0.083
-427.603	476.961	-0.052	-0.116
-426.588	621.141	-0.037	-0.093
-425.573	-57.001	-0.223	-0.098
-424.559	-145.787	0.263	0.023
-423.544	-9.930	0.302	0.200
-422.530	33.664	0.252	0.218
-421.515	-8.420	0.104	0.070
-420.500	346.728	0.098	0.193
-419.486	50.893	0.206	-0.194
-418.471	49.670	0.101	0.095
-417.457	-35.450	-0.549	0.297
-416.442	-200.000	-0.028	-0.424
-415.428	-93.923	0.275	-0.075
-414.413	246.631	0.128	0.215
-413.398	-200.000	-0.008	-0.299
-412.384	368.672	0.063	-0.127
-411.369	-200.000	-0.001	-0.198
-410.355	-2.666	0.022	-0.015
-409.340	-187.662	-0.138	-0.002
-408.325	169.288	0.174	-0.247
-407.311	-31.822	0.246	0.138
-406.296	258.603	0.112	-0.193
-405.282	-37.945	0.188	0.099
-404.267	-127.175	0.072	-0.010
-403.252	-200.000	0.042	0.205
-402.238	311.976	-0.083	-0.154
-401.223	-194.369	-0.440	0.004
-400.209	-76.115	-0.250	0.088
-399.194	105.069	-0.111	-0.130
-398.179	-200.000	-0.002	-0.263
-397.165	71.175	0.289	0.298
-396.150	69.421	-0.076	-0.078
-395.136	-200.000	-0.246	0.001
-394.121	-200.000	0.012	-0.155
-393.106	-88.553	0.105	-0.031
-392.092	6.148	-0.172	0.127
-391.077	328.446	0.070	0.133
-390.063	-200.000	-0.025	-0.161
-389.048	800.000	0.069	-0.200
-388.033	139.202	-0.114	-0.149
-387.019	-39.930	0.130	0.067
-386.004	-4.468	0.173	0.119
-384.990	-200.000	-0.064	0.385
-383.975	10.955	0.371	-0.282
-382.960	-131.856	-0.153	0.020
-381.946	8.502	0.136	0.102
-380.931	-199.987	-0.264	0.001
-379.917	-63.483	0.240	0.098
-378.902	-46.553	-0.300	0.146
-377.888	-129.030	-0.161	0.022
-376.873	93.546	0.191	0.216
-375.858	-107.637	0.225	0.049
-374.844	800.000	0.058	-0.163
-373.829	179.082	-0.114	0.166
-372.815	411.449	-0.005	-0.010
-371.800	-121.470	-0.360	-0.060
-370.785	-200.000	-0.017	0.180
-369.771	-200.000	0.001	0.181
-368.756	-119.644	-0.286	-0.049
-367.742	-200.000	-0.010	-0.216
-366.727	-57.806	-0.008	-0.003
-365.712	275.969	-0.104	-0.184
-364.698	15.745	-0.238	-0.186
-363.683	-70.473	0.165	0.062
-362.669	319.617	0.061	-0.116
-361.654	18.981	-0.323	0.258
-360.639	-134.009	-0.134	-0.016
-359.625	-200.000	-0.021	-0.326
-358.610	-179.350	-0.309	0.007
-357.596	5.458	-0.417	0.306
-356.581	-45.544	-0.113	0.056
-355.566	800.000	0.080	0.236
-354.552	-200.000	-0.068	-0.364
-353.537	35.713	-0.032	-0.028
-352.523	-69.007	0.260	-0.100
-351.508	-32.462	-0.343	-0.190
-350.493	-200.000	-0.011	0.122
-349.479	-16.747	0.049	-0.031
-348.464	-200.000	0.010	-0.399
-347.450	800.000	0.049	-0.137
-346.435	-200.000	-0.023	0.268
-345.420	-0.273	0.271	-0.192
-344.406	-200.000	-0.013	-0.495
-343.391	-31.426	-0.099	-0.055
-342.377	119.269	-0.071	0.087
-341.362	-63.217	0.044	0.018
-340.348	-158.281	0.029	-0.002
-339.333	-200.000	0.107	0.494
-338.318	84.506	0.112	-0.122
-337.304	53.170	0.136	-0.129
-336.289	520.303	0.040	-0.093
-335.275	800.000	0.053	0.185
-334.260	-200.000	-0.002	-0.019
-333.245	82.091	0.224	-0.241
-332.231	-45.595	0.291	0.143
-331.216	-70.303	-0.362	-0.136
-330.202	-200.000	-0.017	0.148
-329.187	-120.364	-0.255	0.043
-328.172	-106.025	-0.494	-0.110
-327.158	800.000	-0.155	0.458
-326.143	-200.000	-0.028	-0.418
-325.129	-86.340	-0.243	-0.074
-324.114	58.931	-0.078	0.076
-323.099	110.837	0.170	0.203
-322.085	-102.193	0.026	-0.006
-321.070	-67.847	0.429	-0.166
-320.056	221.276	0.067	-0.107
-319.041	-144.654	-0.218	0.020
-318.026	-50.182	0.152	0.071
-317.012	-96.303	0.242	-0.064
-315.997	-5.839	-0.343	0.233
-314.983	800.000	-0.057	-0.215
-313.968	-200.000	0.012	-0.106
-312.953	-94.638	0.248	0.067
-311.939	-94.983	0.354	-0.095
-310.924	-12.452	0.234	0.151
-309.910	36.252	0.171	0.150
-308.895	-101.233	0.222	-0.054
-307.880	-200.000	0.010	0.181
-306.866	-56.115	-0.160	-0.071
-305.851	421.899	0.047	0.099
-304.837	800.000	0.067	-0.259
-303.822	632.182	-0.034	0.086
-302.807	-49.701	-0.251	-0.118
-301.793	-29.890	0.116	0.066
-300.778	-200.000	-0.038	0.186
-299.764	-158.350	0.234	0.013
-298.749	800.000	-0.120	0.416
-297.735	-99.171	0.114	0.029
-296.720	-200.000	0.028	0.281
-295.705	-9.611	0.017	0.011
-294.691	-149.268	0.196	-0.016
-293.676	328.357	-0.104	-0.199
-292.662	800.000	-0.045	-0.137
-291.647	-82.063	-0.415	-0.134
-290.632	355.875	-0.063	-0.125
-289.618	616.062	-0.094	-0.234
-288.603	-47.513	-0.182	0.088
-287.589	800.000	0.093	-0.317
-286.574	-200.000	0.013	-0.259
-285.559	40.869	0.189	0.169
-284.545	315.738	0.074	0.138
-283.530	-200.000	-0.004	0.297
-282.516	156.929	0.107	-0.146
-281.501	41.336	-0.204	0.183
-280.486	-3.781	-0.180	0.124
-279.472	-197.752	0.118	0.001
-278.457	-98.279	-0.063	-0.016
-277.443	-200.000	0.005	0.343
-276.428	-37.933	0.084	-0.044
-275.413	389.350	-0.048	0.098
-274.399	-106.014	-0.183	0.041
-273.384	646.663	-0.080	-0.202
-272.370	-35.913	0.261	-0.140
-271.355	-32.146	0.265	-0.147
-270.340	13.723	0.167	-0.128
-269.326	-106.977	-0.120	0.026
-268.311	137.060	0.168	0.218
-267.297	-152.691	-0.234	-0.016
-266.282	84.503	0.199	-0.216
-265.267	-40.978	-0.143	0.073
-264.253	-200.000	0.019	0.299
-263.238	-200.000	0.001	0.112
-262.224	800.000	-0.038	0.133
-261.209	-200.000	0.035	-0.285
-260.195	-48.593	0.177	-0.084
-259.180	-155.327	-0.077	-0.005
-258.165	800.000	-0.119	0.380
-257.151	-200.000	0.014	0.131
-256.136	-200.000	-0.003	0.091
-255.122	-95.829	0.334	-0.088
-254.107	216.616	0.055	-0.087
-253.092	-58.174	0.241	-0.104
-252.078	800.000	-0.025	-0.096
-251.063	-53.821	-0.095	0.043
-250.049	-200.000	-0.052	-0.264
-249.034	-200.000	0.064	0.000
-248.019	-200.000	-0.014	0.078
-247.005	-200.000	0.023	-0.184
-245.990	227.790	-0.166	-0.267
-244.976	800.000	0.035	-0.122
-243.961	436.776	0.038	0.083
-242.946	549.817	0.053	-0.125
-241.932	-131.890	0.309	-0.040
-240.917	-71.865	-0.260	-0.096
-239.903	-53.533	-0.161	0.073
-238.888	800.000	-0.037	0.128
-237.873	428.049	-0.060	-0.127
-236.859	219.850	-0.116	0.184
-235.844	-200.000	-0.001	0.008
-234.830	-154.880	0.219	-0.014
-233.815	-110.730	-0.090	-0.018
-232.800	673.575	0.095	-0.245
-231.786	800.000	-0.018	0.060
-230.771	54.621	0.115	0.110
-229.757	-200.000	0.020	-0.146
-228.742	-82.132	0.194	-0.062
-227.727	525.912	0.108	0.252
-226.713	-135.056	-0.072	-0.009
-225.698	88.250	0.167	0.184
-224.684	-48.143	-0.267	0.128
-223.669	-53.368	0.124	0.056
-222.655	434.210	0.107	0.231
-221.640	-200.000	-0.016	0.185
-220.625	-189.827	-0.135	-0.002
-219.611	-31.089	-0.172	0.096
-218.596	37.333	0.121	0.106
-217.582	800.000	-0.048	-0.193
-216.567	-200.000	0.069	-0.358
-215.552	38.221	-0.013	0.011
-214.538	-61.111	-0.279	-0.116
-213.523	800.000	-0.034	-0.095
-212.509	13.113	0.179	0.137
-211.494	-200.000	-0.035	0.168
-210.479	-140.034	-0.381	0.040
-209.465	-56.756	0.332	0.145
-208.450	-151.126	0.520	-0.039
-207.436	-200.000	0.020	-0.306
-206.421	73.114	-0.206	-0.213
-205.406	-200.000	0.012	-0.165
-204.392	-11.166	0.422	0.275
-203.377	-200.000	0.022	0.127
-202.363	-0.359	0.280	0.197
-201.348	-66.762	-0.240	0.094
-200.333	-197.849	0.369	0.002
-199.319	-76.886	-0.056	-0.020
-198.304	169.360	0.141	-0.199
-197.290	800.000	0.049	0.205
-196.275	4.729	-0.084	-0.061
-195.260	17.575	0.173	-0.136
-194.246	67.738	-0.054	0.054
-193.231	98.566	-0.140	0.160
-192.217	45.417	-0.338	0.308
-191.202	29.496	-0.024	0.021
-190.187	-129.982	0.136	0.018
-189.173	-17.769	-0.346	0.215
-188.158	-50.997	0.177	0.082
-187.144	-49.823	-0.153	-0.072
-186.129	90.057	0.123	0.136
-185.114	-58.713	0.204	0.087
-184.100	-200.000	0.007	0.154
-183.085	-117.468	-0.107	-0.019
-182.071	143.374	0.150	-0.198
-181.056	-120.176	0.195	0.033
-180.042	25.566	-0.059	0.048
-179.027	142.809	0.113	-0.149
-178.012	-200.000	0.050	-0.218
-176.998	5.993	-0.166	0.122
-175.983	-31.964	-0.085	-0.047
-174.969	306.276	0.112	0.206
-173.954	-70.421	0.398	0.149
-172.939	571.487	0.024	0.058
-171.925	-200.000	0.003	0.151
-170.910	-200.000	0.003	0.243
-169.896	-200.000	0.010	-0.184
-168.881	711.799	0.109	-0.285
-167.866	-200.000	0.014	0.211
-166.852	-200.000	-0.035	0.162
-165.837	-110.621	-0.264	0.054
-164.823	-116.638	0.306	0.056
-163.808	-63.373	-0.346	-0.140
-162.793	-73.329	-0.197	0.071
-161.779	117.516	-0.208	-0.253
-160.764	143.054	-0.162	0.213
-159.750	-103.510	0.362	0.084
-158.735	-118.568	-0.076	0.013
-157.720	-200.000	0.030	0.202
-156.706	-161.054	-0.372	-0.019
-155.691	0.884	-0.134	0.095
-154.677	653.205	0.019	-0.048
-153.662	800.000	-0.057	-0.163
-152.647	-42.015	-0.079	-0.040
-151.633	305.443	-0.193	-0.353
-150.618	-200.000	0.015	0.300
-149.604	-130.984	0.021	0.003
-148.589	-55.279	-0.127	0.056
-147.574	6.294	0.335	0.245
-146.560	170.645	-0.113	0.159
-145.545	-0.105	-0.112	0.079
-144.531	-200.000	0.040	0.190
-143.516	446.673	-0.061	0.132
-142.502	-32.097	-0.253	0.139
-141.487	-200.000	-0.008	0.166
-140.472	126.846	-0.106	0.133
-139.458	172.892	0.019	-0.027
-138.443	-38.537	-0.252	-0.131
-137.429	-100.020	0.075	0.018
-136.414	800.000	0.046	-0.152
-135.399	-136.831	0.253	-0.029
-134.385	163.862	-0.094	0.131
-133.370	145.525	0.176	-0.232
-132.356	7.786	0.166	-0.123
-131.341	228.016	0.257	0.412
-130.326	-43.738	-0.036	-0.018
-129.312	144.193	-0.130	0.171
-128.297	-200.000	0.007	-0.033
-127.283	362.928	0.042	-0.083
-126.268	-56.027	-0.150	0.066
-125.253	23.054	0.149	-0.120
-124.239	-52.629	0.363	-0.165
-123.224	90.970	-0.162	0.179
-122.210	29.255	0.149	-0.125
-121.195	397.554	-0.031	-0.064
-120.180	204.242	0.087	-0.133
-119.166	95.684	-0.149	0.167
-118.151	28.584	-0.164	0.137
-117.137	-85.151	0.343	0.106
-116.122	-122.122	-0.195	0.032
-115.107	269.734	0.072	-0.125
-114.093	-107.093	-0.134	0.029
-113.078	329.368	-0.062	0.118
-112.064	44.950	0.277	-0.251
-111.049	-200.000	-0.025	0.116
-110.034	-24.766	-0.150	0.088
-109.020	800.000	-0.082	0.318
-108.005	12.317	-0.023	0.017
-106.991	688.706	-0.192	0.494
-105.976	-78.320	0.091	0.031
-104.962	-51.176	-0.052	-0.024
-103.947	-200.000	-0.021	-0.152
-102.932	32.666	0.123	-0.105
-101.918	-74.742	-0.337	0.119
-100.903	40.898	0.331	0.294
-99.889	800.000	0.017	-0.063
-98.874	-99.588	-0.217	-0.054
-97.859	-105.990	0.267	0.059
-96.845	12.666	0.100	0.076
-95.830	-200.000	0.025	0.118
-94.816	76.484	0.115	0.120
-93.801	-200.000	0.012	0.252
-92.786	-161.715	-0.072	-0.004
-91.772	-193.760	0.204	0.002
-90.757	-135.297	-0.233	0.027
-89.743	-164.215	-0.332	0.015
-88.728	-55.194	0.073	0.032
-87.713	783.858	-0.173	-0.466
-86.699	-83.837	-0.409	0.128
-85.684	-156.487	0.294	-0.018
-84.670	79.541	-0.155	-0.164
-83.655	-11.398	0.285	0.185
-82.640	-97.946	0.005	0.001
-81.626	-133.768	-0.235	-0.029
-80.611	455.949	0.042	0.092
-79.597	-129.104	-0.074	0.010
-78.582	-200.000	-0.017	0.091
-77.567	-200.000	0.001	-0.171
-76.553	-200.000	0.009	0.157
-75.538	-54.022	0.212	0.095
-74.524	-122.900	0.287	-0.046
-73.509	-168.891	0.138	0.005
-72.494	800.000	0.078	0.258
-71.480	204.045	-0.107	-0.162
-70.465	-200.000	-0.007	0.054
-69.451	-200.000	0.009	0.064
-68.436	800.000	0.046	0.170
-67.422	598.452	0.081	0.198
-66.407	122.852	-0.228	-0.281
-65.392	146.515	-0.137	-0.180
-64.378	800.000	0.033	0.118
-63.363	-126.286	0.119	0.017
-62.349	-6.605	0.438	0.293
-61.334	247.209	-0.667	-1.106
-60.319	61.617	0.561	0.548
-59.305	-200.000	-0.188	-0.844
-58.290	227.668	0.735	1.175
-57.276	800.000	0.554	1.565
-56.261	-200.000	95.764	594.589
-55.246	657.696	1370.897	3462.686
-54.232	198.701	2555.560	3842.994
-53.217	113.357	2268.177	2703.926
-52.203	41.368	1896.687	1685.290
-51.188	35.138	1686.119	1451.120
-50.173	32.496	1642.255	1393.788
-49.159	50.144	1688.952	1566.192
-48.144	51.663	1705.919	1593.256
-47.130	34.819	1666.320	1431.467
-46.115	32.047	1652.140	1398.609
-45.100	31.878	1647.411	1393.299
-44.086	31.784	1644.784	1390.322
-43.071	31.897	1641.892	1388.662
-42.057	31.765	1639.659	1385.738
-41.042	31.778	1637.557	1384.006
-40.027	31.856	1635.719	1382.973
-39.013	31.746	1633.948	1380.605
-37.998	31.635	1632.768	1378.739
-36.984	31.761	1631.079	1378.184
-35.969	31.834	1629.501	1377.336
-34.954	31.916	1627.462	1376.156
-33.940	31.840	1626.142	1374.427
-32.925	31.847	1624.575	1373.102
-31.911	31.845	1622.754	1371.490
-30.896	31.865	1620.960	1370.068
-29.881	31.900	1619.293	1368.864
-28.867	31.873	1617.929	1367.454
-27.852	31.910	1615.957	1366.002
-26.838	31.895	1614.243	1364.392
-25.823	31.887	1613.164	1363.369
-24.809	31.876	1612.110	1362.344
-23.794	31.896	1610.005	1360.657
-22.779	31.909	1608.986	1359.832
-21.765	31.854	1607.745	1358.335
-20.750	31.896	1605.641	1356.809
-19.736	31.921	1604.336	1355.830
-18.721	31.964	1602.672	1354.683
-17.706	31.842	1601.981	1353.158
-16.692	31.896	1599.746	1351.606
-15.677	31.879	1598.933	1350.749
-14.663	31.988	1597.049	1349.882
-13.648	31.892	1595.876	1348.149
-12.633	31.919	1594.480	1347.109
-11.619	31.970	1592.931	1346.118
-10.604	31.906	1591.321	1344.246
-9.590	31.822	1590.323	1342.747
-8.575	31.888	1589.173	1342.194
-7.560	31.919	1587.735	1341.146
-6.546	32.033	1586.116	1340.539
-5.531	31.984	1585.054	1339.237
-4.517	31.876	1584.280	1337.764
-3.502	31.891	1583.303	1336.990
-2.487	32.006	1581.305	1336.069
-1.473	31.727	1569.314	1323.912
-0.458	28.898	1550.182	1287.936
0.556	24.620	1551.049	1256.158
1.571	22.344	1574.333	1258.639
2.586	21.857	1586.553	1264.788
3.600	19.352	1533.601	1204.982
4.615	11.771	1425.947	1070.850
5.629	5.422	1364.723	984.904
6.644	4.617	1357.049	974.234
7.659	4.582	1355.041	972.489
8.673	4.400	1354.622	970.965
9.688	4.432	1352.644	969.662
10.702	4.384	1349.845	967.270
11.717	7.252	1355.296	989.012
12.731	14.435	1368.648	1043.798
13.746	19.030	1375.128	1077.494
14.761	18.840	1373.662	1075.064
15.775	17.833	1370.904	1066.518
16.790	16.771	1368.428	1057.866
17.804	16.021	1365.926	1051.165
18.819	15.476	1365.189	1047.107
19.834	15.272	1363.658	1044.569
20.848	15.016	1362.673	1042.127
21.863	14.887	1361.048	1039.991
22.877	14.759	1359.825	1038.165
23.892	14.742	1359.068	1037.393
24.907	14.690	1358.194	1036.307
25.921	14.773	1357.067	1035.871
26.936	14.771	1356.306	1035.188
27.950	14.894	1354.717	1034.643
28.965	14.921	1354.483	1034.540
29.980	14.996	1353.231	1033.959
30.994	14.917	1352.494	1032.814
32.009	15.089	1351.202	1032.799
33.023	14.923	1349.872	1030.665
34.038	14.932	1348.415	1029.522
35.053	14.919	1347.089	1028.338
36.067	14.922	1346.047	1027.465
37.082	14.910	1345.527	1026.906
38.096	14.920	1344.139	1025.815
39.111	14.886	1343.732	1025.209
40.126	14.846	1342.722	1024.103
41.140	14.616	1342.367	1022.330
42.155	14.580	1341.533	1021.387
43.169	14.571	1341.300	1021.063
44.184	14.703	1340.586	1021.233
45.199	14.587	1340.597	1020.441
46.213	14.659	1339.878	1020.248
47.228	14.783	1339.294	1020.468
48.242	14.847	1337.855	1019.672
49.257	14.861	1336.222	1018.424
50.271	14.740	1334.887	1016.578
51.286	14.805	1333.769	1016.034
52.301	14.783	1332.638	1014.946
53.315	14.816	1330.904	1013.740
54.330	14.702	1330.034	1012.293
55.344	14.705	1328.912	1011.372
56.359	14.739	1328.275	1010.998
57.374	14.628	1327.256	1009.461
58.388	14.592	1326.452	1008.546
59.403	14.543	1326.228	1007.991
60.417	14.551	1325.138	1007.121
61.432	14.591	1324.454	1006.751
62.447	14.566	1323.200	1005.560
63.461	14.535	1322.145	1004.479
64.476	14.476	1321.076	1003.224
65.490	14.509	1320.201	1002.674
66.505	14.532	1318.479	1001.411
67.520	14.503	1317.222	1000.198
68.534	14.614	1315.841	999.723
69.549	14.565	1314.873	998.605
70.563	14.460	1314.254	997.418
71.578	14.482	1312.880	996.419
72.593	14.407	1311.936	995.168
73.607	14.336	1311.318	994.189
74.622	14.423	1310.374	993.900
75.636	14.362	1309.902	993.092
76.651	14.367	1309.012	992.359
77.666	14.429	1308.488	992.245
78.680	14.421	1308.423	992.058
79.695	14.440	1307.207	991.160
80.709	14.550	1306.544	991.226
81.724	14.609	1305.701	990.846
82.739	14.660	1305.071	990.585
83.753	14.676	1304.135	989.881
84.768	14.848	1303.155	990.071
85.782	14.882	1301.939	989.258
86.797	14.852	1300.638	988.009
87.812	14.731	1299.510	986.350
88.826	14.820	1298.326	985.888
89.841	14.830	1297.358	985.126
90.855	14.921	1296.363	984.815
91.870	14.882	1295.313	983.705
92.884	14.929	1294.632	983.376
93.899	14.949	1293.886	982.838
94.914	14.907	1293.346	982.092
95.928	14.977	1292.115	981.485
96.943	14.931	1291.244	980.468
97.957	14.940	1290.569	979.919
98.972	14.946	1289.189	978.817
99.987	14.893	1288.196	977.667
101.001	14.855	1287.587	976.898
102.016	14.958	1286.057	976.254
103.030	14.928	1285.205	975.344
104.045	14.810	1284.981	974.400
105.060	14.745	1283.664	972.936
106.074	14.671	1281.839	971.038
107.089	14.637	1280.476	969.720
108.103	14.571	1279.041	968.167
109.118	14.582	1278.193	967.500
110.133	14.602	1276.939	966.583
111.147	14.568	1275.310	965.066
112.162	14.593	1273.938	964.091
113.176	14.667	1273.037	963.748
114.191	14.662	1272.006	962.852
115.206	14.695	1271.287	962.412
116.220	14.629	1269.598	960.671
117.235	14.612	1268.784	959.871
118.249	14.579	1267.811	958.859
119.264	14.644	1266.617	958.246
120.279	14.506	1265.644	956.632
121.293	14.487	1264.937	955.909
122.308	14.567	1263.987	955.561
123.322	14.498	1262.889	954.252
124.337	14.512	1261.065	952.869
125.352	14.465	1259.739	951.513
126.366	14.529	1258.657	950.978
127.381	14.646	1257.501	950.687
128.395	14.522	1257.077	949.577
129.410	14.578	1256.063	949.046
130.424	14.571	1255.227	948.292
131.439	14.576	1254.229	947.482
132.454	14.617	1253.302	946.927
133.468	14.744	1252.121	946.673
134.483	14.719	1251.877	946.261
135.497	14.662	1250.534	944.840
136.512	14.712	1249.409	944.188
137.527	14.629	1248.031	942.599
138.541	14.677	1246.964	941.978
139.556	14.660	1245.990	941.065
140.570	14.852	1244.796	941.159
141.585	14.938	1243.446	940.541
142.600	14.864	1242.328	939.198
143.614	15.041	1241.408	939.412
144.629	14.972	1240.299	938.101
145.643	14.919	1239.580	937.174
146.658	14.888	1237.772	935.554
147.673	14.864	1236.479	934.360
148.687	14.761	1235.674	933.095
149.702	14.747	1233.844	931.550
150.716	14.771	1232.803	930.817
151.731	14.716	1231.888	929.739
152.746	14.723	1230.585	928.712
153.760	14.846	1229.468	928.469
154.775	14.998	1228.104	928.199
155.789	14.999	1227.099	927.362
156.804	14.925	1226.448	926.379
157.819	14.903	1225.410	925.390
158.833	15.006	1224.472	925.169
159.848	15.095	1223.767	925.049
160.862	15.117	1222.593	924.200
161.877	14.887	1221.836	922.280
162.892	14.913	1220.352	921.222
163.906	14.913	1219.707	920.649
164.921	14.779	1219.020	919.316
165.935	14.798	1218.131	918.666
166.950	14.996	1216.961	918.788
167.964	15.020	1216.287	918.330
168.979	14.930	1215.680	917.300
169.994	14.948	1214.562	916.471
171.008	14.922	1214.344	916.083
172.023	15.070	1213.385	916.090
173.037	15.126	1212.670	915.772
174.052	15.043	1211.648	914.470
175.067	15.076	1210.163	913.445
176.081	14.989	1209.410	912.322
177.096	14.962	1208.648	911.522
178.110	14.937	1207.879	910.726
179.125	15.026	1205.952	909.676
180.140	15.101	1204.818	909.145
181.154	15.046	1204.064	908.197
182.169	15.165	1202.353	907.471
183.183	15.136	1201.950	906.932
184.198	15.223	1200.462	906.197
185.213	15.053	1199.734	904.646
186.227	15.360	1197.586	904.605
187.242	15.210	1197.696	903.797
188.256	15.356	1196.243	903.411
189.271	15.393	1195.365	902.867
190.286	15.126	1194.569	900.750
191.300	14.978	1193.812	899.304
192.315	14.881	1192.479	897.700
193.329	14.974	1191.951	897.718
194.344	15.092	1191.606	898.011
195.359	15.097	1191.087	897.573
196.373	15.156	1190.333	897.237
197.388	15.232	1190.162	897.437
198.402	15.411	1189.589	897.882
199.417	15.452	1188.773	897.408
200.432	15.534	1187.951	897.145
201.446	15.574	1187.377	896.846
202.461	15.616	1186.546	896.361
203.475	15.662	1185.619	895.827
204.490	15.497	1184.017	893.659
205.504	15.445	1182.828	892.407
206.519	15.395	1181.733	891.239
207.534	15.437	1180.489	890.442
208.548	15.389	1179.877	889.651
209.563	15.344	1178.876	888.577
210.577	15.475	1177.687	888.295
211.592	15.472	1177.418	887.997
212.607	15.621	1176.589	888.079
213.621	15.515	1175.714	886.780
214.636	15.601	1174.322	886.110
215.650	15.652	1173.820	885.920
216.665	15.512	1173.102	884.561
217.680	15.756	1171.750	884.745
218.694	15.801	1171.281	884.552
219.709	15.673	1170.867	883.489
220.723	15.725	1170.000	883.029
221.738	15.727	1169.334	882.459
222.753	15.702	1168.216	881.405
223.767	15.771	1167.555	881.191
224.782	15.740	1167.185	880.669
225.796	15.907	1166.491	880.941
226.811	15.796	1165.909	879.847
227.826	15.789	1165.012	879.052
228.840	15.751	1164.359	878.286
229.855	15.880	1163.565	878.279
230.869	15.826	1162.134	876.840
231.884	15.829	1161.551	876.341
232.899	15.811	1160.898	875.676
233.913	15.693	1160.325	874.551
234.928	15.705	1159.697	874.063
235.942	15.666	1158.666	873.008
236.957	15.652	1158.215	872.516
237.972	15.713	1157.871	872.498
238.986	15.698	1156.702	871.462
240.001	15.775	1156.318	871.493
241.015	15.719	1155.319	870.374
242.030	15.806	1154.676	870.261
243.045	15.827	1153.706	869.563
244.059	15.803	1153.080	868.889
245.074	15.875	1152.161	868.496
246.088	15.900	1151.427	867.991
247.103	15.946	1150.235	867.254
248.117	16.034	1149.528	867.098
249.132	16.153	1149.165	867.356
250.147	16.304	1148.297	867.402
251.161	16.246	1148.129	866.902
252.176	16.191	1147.437	866.018
253.190	16.386	1146.365	866.133
254.205	16.324	1146.244	865.647
255.220	16.460	1145.546	865.741
256.234	16.471	1144.635	865.031
257.249	16.433	1144.181	864.415
258.263	16.524	1143.239	864.095
259.278	16.417	1142.789	863.130
260.293	16.622	1141.859	863.399
261.307	16.505	1141.298	862.301
262.322	16.361	1141.582	861.702
263.336	16.453	1140.464	861.256
264.351	16.607	1139.735	861.410
265.366	16.516	1139.375	860.600
266.380	16.623	1138.148	860.138
267.395	16.556	1137.370	859.135
268.409	16.490	1136.650	858.183
269.424	16.524	1136.042	857.818
270.439	16.563	1135.573	857.585
271.453	16.526	1134.806	856.743
272.468	16.513	1133.576	855.672
273.482	16.442	1133.128	854.899
274.497	16.331	1132.865	854.067
275.512	16.514	1131.942	854.220
276.526	16.553	1131.460	853.976
277.541	16.559	1130.548	853.241
278.555	16.662	1129.773	853.102
279.570	16.621	1129.122	852.328
280.585	16.594	1128.325	851.515
281.599	16.663	1127.116	850.873
282.614	16.588	1126.277	849.789
283.628	16.625	1125.368	849.212
284.643	16.526	1124.496	847.984
285.657	16.780	1123.052	848.090
286.672	16.543	1122.756	846.604
287.687	16.721	1121.609	846.555
288.701	16.695	1120.737	845.692
289.716	16.813	1119.744	845.456
290.730	16.567	1119.604	844.049
291.745	16.697	1118.825	844.037
292.760	16.702	1118.042	843.395
293.774	16.865	1117.320	843.587
294.789	16.928	1116.810	843.443
295.803	16.878	1116.451	842.846
296.818	16.780	1115.665	841.694
297.833	16.691	1115.179	840.810
298.847	16.836	1113.918	840.502
299.862	16.869	1113.457	840.245
300.876	16.856	1112.656	839.502
301.891	16.954	1112.032	839.443
302.906	16.917	1111.363	838.680
303.920	16.910	1110.979	838.282
304.935	16.938	1110.583	838.044
305.949	17.181	1109.687	838.494
306.964	17.040	1109.306	837.436
307.979	17.104	1107.575	836.370
308.993	17.055	1107.509	836.004
310.008	17.102	1106.811	835.638
311.022	17.117	1106.014	835.035
312.037	17.137	1104.944	834.252
313.052	17.122	1104.010	833.400
314.066	17.040	1103.231	832.337
315.081	16.980	1101.942	830.993
316.095	16.893	1101.496	830.158
317.110	16.927	1100.892	829.796
318.125	17.025	1099.780	829.366
319.139	17.090	1099.001	829.020
320.154	17.086	1098.526	828.572
321.168	17.049	1097.856	827.810
322.183	17.108	1097.266	827.579
323.197	17.092	1096.825	827.095
324.212	17.106	1096.435	826.798
325.227	17.071	1096.194	826.370
326.241	17.087	1094.986	825.465
327.256	17.083	1094.225	824.801
328.270	17.119	1093.706	824.512
329.285	17.111	1092.580	823.549
330.300	17.025	1091.688	822.388
331.314	17.052	1090.923	821.872
332.329	17.169	1089.897	821.588
333.343	17.159	1089.011	820.802
334.358	17.147	1088.292	820.128
335.373	17.223	1087.622	819.916
336.387	17.261	1087.298	819.786
337.402	17.330	1086.215	819.227
338.416	17.370	1085.102	818.510
339.431	17.418	1085.026	818.610
340.446	17.476	1084.760	818.617
341.460	17.479	1083.882	817.895
342.475	17.569	1083.023	817.606
343.489	17.620	1082.080	817.067
344.504	17.599	1081.148	816.190
345.519	17.726	1080.112	815.941
346.533	17.731	1079.507	815.440
347.548	17.783	1078.342	814.736
348.562	17.710	1078.087	814.121
349.577	17.646	1077.301	813.151
350.592	17.549	1076.272	811.837
351.606	17.535	1075.524	811.136
352.621	17.554	1074.906	810.687
353.635	17.479	1074.240	809.756
354.650	17.361	1074.024	808.962
355.665	17.508	1073.044	808.850
356.679	17.529	1072.143	808.198
357.694	17.589	1071.911	808.239
358.708	17.654	1071.257	807.980
359.723	17.728	1070.449	807.652
360.738	17.677	1069.680	806.759
361.752	17.669	1069.481	806.496
362.767	17.705	1068.904	806.163
363.781	17.577	1068.597	805.256
364.796	17.850	1067.595	805.717
365.810	17.792	1067.264	805.123
366.825	17.864	1066.777	805.026
367.840	17.990	1066.163	805.085
368.854	18.042	1065.578	804.813
369.869	18.099	1064.222	803.986
370.883	18.111	1063.442	803.385
371.898	17.902	1062.898	801.921
372.913	17.896	1062.622	801.613
373.927	17.980	1062.010	801.472
374.942	17.952	1061.316	800.750
375.956	18.022	1061.138	800.869
376.971	18.039	1060.415	800.332
377.986	18.019	1060.056	799.897
379.000	18.209	1058.923	799.862
380.015	18.227	1059.078	799.992
381.029	18.196	1058.254	799.154
382.044	18.202	1057.240	798.345
383.059	18.246	1056.640	798.025
384.073	18.230	1055.763	797.219
385.088	18.264	1054.934	796.683
386.102	18.327	1054.148	796.311
387.117	18.303	1052.876	795.166
388.132	18.158	1051.985	793.753
389.146	18.133	1051.551	793.236
390.161	18.157	1050.701	792.637
391.175	18.213	1049.842	792.176
392.190	18.262	1049.198	791.847
393.205	18.321	1048.646	791.635
394.219	18.304	1048.030	791.021
395.234	18.180	1047.220	789.766
396.248	18.224	1045.972	788.958
397.263	18.210	1044.769	787.919
398.278	18.274	1043.732	787.360
399.292	18.067	1043.310	786.021
400.307	18.069	1042.546	785.383
401.321	18.239	1041.983	785.672
402.336	18.113	1041.654	784.774
403.350	18.105	1040.963	784.148
404.365	18.191	1040.392	784.045
405.380	18.279	1039.398	783.626
406.394	18.275	1038.695	783.010
407.409	18.450	1037.726	783.011
408.423	18.496	1037.347	782.867
409.438	18.454	1036.696	782.115
410.453	18.500	1036.131	781.827
411.467	18.628	1035.453	781.832
412.482	18.582	1034.786	781.048
413.496	18.647	1034.111	780.765
414.511	18.739	1033.420	780.593
415.526	18.695	1033.018	780.020
416.540	18.739	1032.684	779.898
417.555	18.720	1032.224	779.396
418.569	18.784	1031.392	778.990
419.584	18.738	1030.987	778.407
420.599	18.718	1030.777	778.089
421.613	150.801	1400.777	1795.698
422.628	137.597	1454.695	1795.795
