DTS Sentinel unit serial number:	SN413079Multiplexer serial number:	ORYXHardware model number:	OX4-SRSoftware version number:	ORYX F/W v4.00 Oryx Data Collector v3.7.2.0data status	okinstallation	princeton_trtdifferential loss correction	single-endedforward channel	channel 2reverse channel	N/Adate	2019/09/15time	06:23:35forward acquisition time	60.00reverse acquisition time	0.00gamma	496.2192k internal	0.2326k external	0.2326temperature offset calibration	1.0035default loss term (dB/km)	0.3790temperature slope calibration	1.0000multiplexer offset coefficient	1.0000multiplexer slope coefficient	1.0000fibre end	0.00T internal ref (°C)	30.50T ext. ref 1 (°C)	4.84T ext. ref 2 (°C)	25.32length (m)	temperature (°C)	Stokes	anti-Stokes-747.200	-164.364	-0.406	0.019
-746.185	-126.219	0.241	-0.036
-745.171	-168.457	-0.301	0.012
-744.156	-200.000	0.012	0.139
-743.142	-43.623	0.241	0.122
-742.127	44.299	-0.200	0.185
-741.112	-153.496	0.139	0.010
-740.098	-75.933	0.149	-0.053
-739.083	-88.090	0.105	0.032
-738.069	-200.000	-0.070	0.410
-737.054	137.570	0.215	-0.284
-736.039	-87.716	0.149	0.045
-735.025	-107.192	-0.038	-0.009
-734.010	738.865	0.126	0.342
-732.996	-111.549	-0.248	0.051
-731.981	-5.733	0.174	-0.121
-730.966	512.323	-0.136	-0.321
-729.952	-200.000	0.018	-0.148
-728.937	42.445	-0.173	0.159
-727.923	800.000	0.031	0.095
-726.908	-26.230	-0.481	-0.285
-725.894	304.956	-0.121	-0.226
-724.879	-37.507	0.037	-0.020
-723.864	-19.241	-0.068	-0.042
-722.850	61.246	0.126	-0.127
-721.835	-31.716	-0.276	-0.156
-720.821	407.784	0.076	-0.161
-719.806	-113.504	0.267	-0.053
-718.791	-77.588	-0.265	0.093
-717.777	800.000	0.111	-0.325
-716.762	800.000	-0.054	-0.208
-715.748	-200.000	-0.042	-0.202
-714.733	7.789	-0.135	-0.102
-713.718	-23.543	0.062	0.037
-712.704	215.274	0.020	-0.032
-711.689	154.128	0.069	-0.096
-710.675	-200.000	0.013	-0.118
-709.660	230.754	-0.069	0.115
-708.645	800.000	0.065	0.217
-707.631	257.211	0.056	-0.097
-706.616	140.633	0.145	0.192
-705.602	-200.000	-0.003	0.035
-704.587	241.355	0.151	-0.255
-703.572	-200.000	-0.003	0.149
-702.558	-96.028	0.309	-0.083
-701.543	-119.252	0.271	-0.048
-700.529	-80.811	0.313	-0.104
-699.514	-200.000	-0.062	-0.307
-698.499	800.000	-0.050	-0.150
-697.485	800.000	-0.064	0.249
-696.470	-112.546	-0.319	0.064
-695.456	-71.012	-0.098	-0.037
-694.441	92.767	0.238	0.270
-693.426	800.000	-0.054	-0.172
-692.412	-27.685	0.113	-0.066
-691.397	225.179	0.212	0.346
-690.383	483.676	-0.084	0.193
-689.368	-107.099	-0.250	0.056
-688.354	-49.789	0.234	0.112
-687.339	-74.982	0.058	0.021
-686.324	353.895	-0.124	-0.248
-685.310	23.068	0.009	-0.008
-684.295	209.590	-0.031	-0.048
-683.281	-87.090	0.139	0.043
-682.266	-35.218	-0.073	-0.040
-681.251	-41.501	-0.373	-0.193
-680.237	170.363	0.269	-0.387
-679.222	-56.623	-0.442	-0.197
-678.208	-111.297	-0.145	-0.030
-677.193	-19.280	-0.292	-0.182
-676.178	251.337	0.165	0.283
-675.164	-126.196	0.089	0.013
-674.149	223.715	-0.097	0.158
-673.135	-39.194	-0.157	0.083
-672.120	65.927	0.199	0.203
-671.105	-200.000	0.005	-0.057
-670.091	-55.811	0.469	-0.211
-669.076	-94.798	-0.366	-0.100
-668.062	800.000	0.052	0.174
-667.047	-91.891	-0.438	-0.125
-666.032	-200.000	0.043	-0.308
-665.018	-27.460	0.319	0.187
-664.003	43.375	0.026	0.024
-662.989	800.000	-0.057	-0.190
-661.974	-174.348	-0.319	0.009
-660.959	-200.000	-0.052	0.509
-659.945	-72.839	0.169	-0.063
-658.930	-41.533	0.169	-0.087
-657.916	-90.327	0.157	-0.046
-656.901	800.000	0.047	0.190
-655.886	376.981	-0.097	-0.200
-654.872	250.789	-0.214	0.365
-653.857	-200.000	0.016	-0.309
-652.843	-200.000	-0.041	0.203
-651.828	291.630	-0.093	-0.170
-650.814	-12.903	-0.126	0.083
-649.799	-17.389	-0.353	0.223
-648.784	-41.874	-0.258	-0.133
-647.770	319.528	-0.067	-0.127
-646.755	-42.379	-0.214	-0.110
-645.741	392.935	0.221	-0.463
-644.726	800.000	-0.127	-0.354
-643.711	-163.799	0.122	-0.006
-642.697	-51.678	0.208	0.097
-641.682	-184.158	0.057	0.001
-640.668	-200.000	0.040	0.308
-639.653	-5.931	0.036	-0.024
-638.638	-115.038	0.101	0.019
-637.624	800.000	-0.031	-0.096
-636.609	-200.000	0.003	-0.065
-635.595	-200.000	-0.043	0.309
-634.580	-56.732	0.294	-0.130
-633.565	70.972	-0.099	0.103
-632.551	-12.264	-0.269	0.177
-631.536	-59.116	-0.207	0.090
-630.522	170.270	0.219	-0.315
-629.507	-102.697	0.140	0.034
-628.492	-1.196	-0.145	-0.103
-627.478	-200.000	0.027	-0.173
-626.463	10.815	-0.278	0.213
-625.449	65.080	-0.074	-0.075
-624.434	55.783	-0.071	-0.069
-623.419	-109.835	0.355	-0.075
-622.405	-105.431	-0.150	0.034
-621.390	492.616	0.038	0.087
-620.376	-200.000	-0.031	0.149
-619.361	0.837	-0.028	-0.020
-618.346	-60.261	-0.109	-0.047
-617.332	-192.104	-0.652	0.006
-616.317	10.866	0.175	0.134
-615.303	-164.273	0.353	-0.016
-614.288	-125.435	0.177	0.027
-613.273	153.325	-0.062	0.085
-612.259	-200.000	0.046	-0.316
-611.244	-89.446	-0.240	-0.071
-610.230	-90.367	-0.494	-0.144
-609.215	48.037	0.086	-0.080
-608.201	715.307	0.113	-0.301
-607.186	-108.334	0.092	0.020
-606.171	348.437	-0.053	0.104
-605.157	316.449	-0.030	-0.057
-604.142	261.982	0.109	0.190
-603.128	788.447	0.059	-0.161
-602.113	-132.036	0.171	-0.022
-601.098	34.754	-0.117	-0.102
-600.084	-57.322	0.069	-0.031
-599.069	-200.000	-0.037	-0.168
-598.055	444.047	0.069	0.151
-597.040	21.533	-0.250	0.204
-596.025	800.000	0.031	-0.092
-595.011	-91.231	-0.234	0.067
-593.996	-179.697	-0.202	-0.004
-592.982	288.657	0.092	0.167
-591.967	491.937	-0.042	-0.096
-590.952	-55.809	0.116	-0.052
-589.938	154.276	-0.012	0.016
-588.923	-36.228	-0.061	-0.033
-587.909	-80.391	-0.375	0.125
-586.894	137.153	-0.119	0.156
-585.879	-40.700	-0.071	-0.037
-584.865	-112.529	0.385	-0.077
-583.850	-200.000	-0.021	-0.276
-582.836	43.054	-0.275	0.252
-581.821	56.872	0.138	0.135
-580.806	800.000	0.037	-0.118
-579.792	45.445	-0.123	0.114
-578.777	62.900	0.192	0.193
-577.763	800.000	0.053	0.174
-576.748	-200.000	-0.021	-0.184
-575.733	22.045	-0.397	0.325
-574.719	-163.881	0.172	0.008
-573.704	107.640	0.056	0.067
-572.690	109.529	0.289	0.347
-571.675	216.850	0.092	-0.146
-570.661	102.514	-0.162	0.190
-569.646	-200.000	0.016	0.143
-568.631	-33.979	-0.364	-0.201
-567.617	205.422	0.068	-0.106
-566.602	-107.493	-0.083	0.018
-565.588	-200.000	0.008	-0.054
-564.573	212.235	0.159	-0.250
-563.558	557.933	0.150	0.363
-562.544	-127.570	-0.236	-0.034
-561.529	-200.000	0.016	0.071
-560.515	369.517	-0.111	0.225
-559.500	-54.808	0.071	0.032
-558.485	49.998	0.078	0.074
-557.471	-84.391	-0.165	-0.052
-556.456	-171.345	-0.202	-0.007
-555.442	800.000	-0.104	0.379
-554.427	-80.438	-0.365	0.122
-553.412	196.292	-0.084	-0.129
-552.398	-24.751	-0.218	0.130
-551.383	370.717	-0.117	0.238
-550.369	61.491	-0.129	-0.128
-549.354	-92.838	-0.165	-0.046
-548.339	-175.240	0.181	-0.005
-547.325	84.782	0.196	-0.215
-546.310	702.914	0.061	-0.160
-545.296	209.265	-0.084	-0.131
-544.281	483.454	0.108	0.246
-543.266	-200.000	0.013	-0.074
-542.252	-17.961	0.249	-0.156
-541.237	-109.562	0.068	-0.014
-540.223	214.388	0.166	-0.264
-539.208	800.000	0.009	-0.034
-538.193	-64.518	0.154	-0.063
-537.179	177.399	0.178	0.259
-536.164	-19.432	-0.272	0.169
-535.150	327.659	0.063	-0.121
-534.135	-200.000	0.055	-0.287
-533.121	52.392	-0.062	0.060
-532.106	414.467	-0.066	0.140
-531.091	81.234	-0.234	0.252
-530.077	-79.027	0.238	0.081
-529.062	-200.000	-0.043	0.202
-528.048	-200.000	0.017	-0.096
-527.033	-55.432	-0.034	0.015
-526.018	-74.085	0.581	-0.210
-525.004	44.397	-0.152	-0.140
-523.989	39.856	0.197	-0.177
-522.975	-200.000	0.010	0.228
-521.960	-84.434	-0.143	0.045
-520.945	-122.789	0.024	0.004
-519.931	520.076	0.088	0.206
-518.916	-158.710	-0.167	-0.010
-517.902	800.000	0.117	-0.398
-516.887	295.032	0.165	0.302
-515.872	800.000	0.057	0.177
-514.858	321.252	-0.147	0.280
-513.843	-200.000	0.028	-0.168
-512.829	-200.000	-0.010	0.084
-511.814	754.486	-0.044	-0.118
-510.799	13.747	-0.242	0.188
-509.785	18.668	0.087	-0.069
-508.770	-67.036	-0.099	-0.039
-507.756	-37.621	-0.258	0.137
-506.741	-124.189	-0.232	-0.036
-505.726	-38.510	0.157	-0.083
-504.712	660.837	0.076	0.195
-503.697	-78.586	-0.187	0.064
-502.683	104.769	-0.076	-0.090
-501.668	571.549	0.098	-0.238
-500.653	-120.407	0.309	-0.052
-499.639	31.443	0.136	0.117
-498.624	-58.516	0.219	0.095
-497.610	-22.292	-0.364	0.221
-496.595	510.771	-0.115	0.267
-495.581	70.232	-0.123	-0.126
-494.566	800.000	0.012	-0.040
-493.551	160.703	-0.074	-0.103
-492.537	-126.332	0.232	-0.035
-491.522	800.000	-0.096	-0.307
-490.508	-200.000	-0.042	0.235
-489.493	197.135	-0.105	-0.159
-488.478	-98.470	0.273	0.070
-487.464	59.209	0.254	-0.250
-486.449	800.000	-0.100	-0.313
-485.435	84.100	0.080	0.087
-484.420	125.708	0.031	-0.039
-483.405	800.000	-0.024	0.087
-482.391	-99.867	0.174	0.044
-481.376	-20.890	-0.163	-0.100
-480.362	-103.569	0.251	-0.059
-479.347	-21.606	0.109	-0.066
-478.332	800.000	0.079	-0.218
-477.318	-131.245	-0.343	-0.045
-476.303	800.000	0.120	0.359
-475.289	-24.416	-0.347	0.207
-474.274	-95.312	-0.196	-0.053
-473.259	-200.000	-0.019	-0.239
-472.245	22.372	-0.227	-0.185
-471.230	-200.000	-0.045	-0.300
-470.216	103.713	0.077	0.090
-469.201	-200.000	0.014	-0.209
-468.186	147.027	0.044	-0.059
-467.172	212.155	0.027	0.042
-466.157	43.242	0.026	-0.024
-465.143	287.565	-0.037	-0.066
-464.128	221.983	0.156	-0.250
-463.113	-10.300	-0.190	0.126
-462.099	-95.262	-0.376	-0.101
-461.084	89.906	-0.126	0.140
-460.070	800.000	0.051	-0.196
-459.055	-23.574	0.017	0.010
-458.040	-28.950	-0.352	-0.202
-457.026	-22.863	0.238	-0.143
-456.011	-200.000	0.001	-0.014
-454.997	-122.292	-0.011	-0.002
-453.982	-35.044	0.287	0.156
-452.968	800.000	-0.038	0.143
-451.953	-13.208	-0.146	-0.095
-450.938	-75.448	0.040	0.014
-449.924	347.612	0.085	-0.166
-448.909	-86.340	0.112	0.034
-447.895	-114.716	0.443	-0.084
-446.880	147.914	0.201	0.271
-445.865	-58.212	0.289	0.126
-444.851	-200.000	-0.013	0.141
-443.836	-11.461	0.162	0.106
-442.822	-200.000	-0.025	-0.207
-441.807	-22.961	-0.191	-0.115
-440.792	-55.648	0.372	-0.166
-439.778	42.800	-0.049	0.044
-438.763	470.530	-0.123	0.275
-437.749	-141.459	-0.127	-0.013
-436.734	60.036	0.214	-0.211
-435.719	-81.769	0.120	0.039
-434.705	305.325	0.139	-0.258
-433.690	-200.000	0.001	-0.065
-432.676	-71.310	-0.122	0.046
-431.661	-200.000	-0.012	0.083
-430.646	-145.447	-0.206	-0.018
-429.632	-95.737	0.150	-0.040
-428.617	59.454	-0.132	0.130
-427.603	151.214	0.279	0.379
-426.588	-200.000	0.008	0.322
-425.573	-40.797	-0.189	0.098
-424.559	-200.000	0.000	-0.237
-423.544	-200.000	-0.045	-0.427
-422.530	321.649	-0.040	0.076
-421.515	-184.966	0.278	0.004
-420.500	-71.508	0.056	-0.021
-419.486	-66.363	-0.119	-0.047
-418.471	-55.169	0.081	0.036
-417.457	6.601	-0.189	0.140
-416.442	73.674	0.167	0.174
-415.428	-94.074	-0.169	0.046
-414.413	-82.752	0.156	-0.050
-413.398	-129.406	0.299	0.041
-412.384	-131.521	0.194	0.025
-411.369	800.000	-0.056	-0.172
-410.355	-84.303	0.165	-0.052
-409.340	520.857	-0.035	-0.081
-408.325	31.541	0.156	-0.134
-407.311	257.981	0.054	0.092
-406.296	531.857	-0.109	-0.256
-405.282	-151.755	0.380	-0.028
-404.267	-200.000	0.022	0.133
-403.252	529.459	-0.042	-0.098
-402.238	-102.630	0.054	0.013
-401.223	471.689	-0.085	-0.191
-400.209	335.305	-0.201	-0.388
-399.194	-63.550	0.196	0.080
-398.179	-105.048	0.084	0.019
-397.165	398.423	-0.031	0.065
-396.150	800.000	0.100	-0.297
-395.136	-119.644	0.120	0.021
-394.121	-200.000	-0.043	0.279
-393.106	-118.930	-0.281	-0.049
-392.092	-11.984	0.206	-0.134
-391.077	-48.843	0.115	0.055
-390.063	16.120	-0.160	0.126
-389.048	-53.364	0.043	0.020
-388.033	-200.000	0.068	-0.302
-387.019	-53.108	-0.240	-0.110
-386.004	-168.490	-0.161	0.006
-384.990	439.367	-0.032	0.070
-383.975	800.000	-0.073	0.260
-382.960	23.359	0.215	0.176
-381.946	-200.000	-0.055	0.370
-380.931	-30.691	-0.318	0.179
-379.917	-100.162	0.157	-0.039
-378.902	-125.096	-0.292	0.045
-377.888	345.579	-0.097	-0.189
-376.873	516.291	0.164	-0.381
-375.858	-200.000	0.019	0.342
-374.844	13.835	-0.163	-0.126
-373.829	-61.005	-0.098	-0.041
-372.815	-200.000	0.040	-0.252
-371.800	515.150	0.055	0.128
-370.785	-200.000	0.014	0.249
-369.771	95.169	0.067	0.076
-368.756	27.472	0.149	-0.125
-367.742	-137.827	-0.262	0.029
-366.727	-200.000	0.016	-0.146
-365.712	524.030	0.146	-0.342
-364.698	800.000	-0.027	0.091
-363.683	83.429	-0.178	-0.192
-362.669	90.707	0.238	-0.265
-361.654	-51.932	0.174	-0.081
-360.639	-58.519	0.099	-0.043
-359.625	438.841	-0.141	0.306
-358.610	-200.000	-0.053	0.230
-357.596	-18.807	0.197	-0.122
-356.581	340.310	0.114	-0.222
-355.566	638.017	-0.019	0.049
-354.552	-200.000	-0.014	-0.077
-353.537	-200.000	-0.050	0.225
-352.523	-200.000	-0.017	0.309
-351.508	-117.871	0.248	0.044
-350.493	-105.163	-0.115	0.026
-349.479	21.086	0.105	0.084
-348.464	-200.000	0.054	-0.332
-347.450	800.000	0.072	0.223
-346.435	241.751	-0.145	-0.240
-345.420	-200.000	-0.054	-0.310
-344.406	-135.801	0.061	0.007
-343.391	-82.465	-0.192	0.062
-342.377	-134.290	0.178	0.022
-341.362	-200.000	0.028	0.284
-340.348	-29.301	-0.109	-0.062
-339.333	43.691	0.059	0.053
-338.318	-200.000	0.029	0.229
-337.304	-13.364	-0.316	0.204
-336.289	148.722	-0.208	-0.280
-335.275	-63.678	0.480	0.195
-334.260	-149.508	-0.135	0.011
-333.245	-200.000	-0.012	0.112
-332.231	80.616	-0.088	-0.094
-331.216	-41.172	0.081	0.041
-330.202	289.924	-0.136	0.244
-329.187	43.558	0.109	-0.099
-328.172	-46.535	0.177	0.086
-327.158	23.971	0.234	-0.191
-326.143	79.493	0.126	0.134
-325.129	-109.519	0.228	0.048
-324.114	800.000	-0.061	-0.176
-323.099	-83.145	-0.413	0.132
-322.085	22.339	-0.085	0.069
-321.070	147.520	-0.107	0.143
-320.056	626.262	-0.088	0.219
-319.041	2.662	0.073	0.053
-318.026	-87.362	0.135	0.041
-317.012	-200.000	-0.010	0.312
-315.997	800.000	-0.055	0.216
-314.983	215.444	0.151	-0.238
-313.968	-200.000	-0.022	-0.116
-312.953	800.000	-0.117	-0.446
-311.939	29.952	0.188	-0.159
-310.924	-130.303	0.286	-0.039
-309.910	800.000	0.016	-0.071
-308.895	-127.381	0.108	-0.016
-307.880	287.466	0.080	-0.144
-306.866	-12.448	-0.134	0.087
-305.851	-200.000	-0.051	-0.314
-304.837	-101.373	0.265	0.064
-303.822	-140.830	0.136	0.014
-302.807	346.109	0.093	0.181
-301.793	-34.318	-0.223	0.122
-300.778	-15.382	0.202	-0.128
-299.764	565.833	0.075	0.179
-298.749	207.659	0.039	0.061
-297.735	140.184	-0.119	-0.155
-296.720	-119.030	0.216	-0.037
-295.705	-200.000	-0.002	-0.056
-294.691	117.810	0.036	0.043
-293.676	-87.396	-0.116	-0.035
-292.662	-111.767	-0.086	-0.017
-291.647	44.988	0.053	0.048
-290.632	-200.000	0.024	0.218
-289.618	-99.452	0.335	-0.084
-288.603	160.759	-0.136	-0.188
-287.589	-171.710	-0.394	-0.013
-286.574	129.107	0.085	0.107
-285.559	-26.725	0.014	-0.008
-284.545	41.348	-0.158	0.142
-283.530	800.000	-0.035	0.121
-282.516	-200.000	-0.001	-0.125
-281.501	-200.000	-0.003	-0.218
-280.486	-84.739	-0.060	0.019
-279.472	62.227	0.252	-0.250
-278.457	582.656	0.117	-0.285
-277.443	-102.354	-0.229	-0.054
-276.428	-59.013	0.242	0.103
-275.413	800.000	0.039	-0.141
-274.399	2.376	-0.164	-0.117
-273.384	-25.295	-0.090	-0.053
-272.370	-16.057	0.092	-0.058
-271.355	358.182	0.041	-0.081
-270.340	-43.434	0.220	-0.110
-269.326	-85.626	0.146	-0.045
-268.311	-126.029	-0.036	0.005
-267.297	-119.483	0.415	0.071
-266.282	20.712	-0.141	0.113
-265.267	517.578	-0.194	-0.449
-264.253	24.126	-0.075	-0.061
-263.238	-100.248	0.092	-0.023
-262.224	-14.431	-0.144	-0.092
-261.209	-2.041	0.128	0.089
-260.195	68.027	0.176	-0.178
-259.180	-18.445	-0.094	0.058
-258.165	19.045	-0.188	0.149
-257.151	-29.165	0.139	0.079
-256.136	81.885	0.168	-0.180
-255.122	800.000	0.037	-0.148
-254.107	-200.000	0.017	0.274
-253.092	20.946	0.070	-0.056
-252.078	-200.000	-0.015	-0.101
-251.063	-200.000	-0.046	-0.288
-250.049	-200.000	0.036	-0.185
-249.034	-50.886	-0.312	0.145
-248.019	-99.780	-0.288	0.071
-247.005	-109.246	-0.097	0.020
-245.990	-50.950	-0.288	0.134
-244.976	-200.000	-0.027	0.216
-243.961	-98.273	-0.359	-0.091
-242.946	800.000	-0.115	-0.456
-241.932	-200.000	0.013	-0.092
-240.917	383.496	-0.094	0.191
-239.903	54.161	0.067	-0.064
-238.888	64.493	0.090	0.090
-237.873	36.844	-0.367	0.320
-236.859	-2.740	0.098	0.068
-235.844	-0.401	0.260	0.182
-234.830	46.176	-0.139	0.128
-233.815	-22.855	-0.180	0.107
-232.800	-75.358	-0.189	-0.067
-231.786	-67.774	-0.114	0.044
-230.771	-33.033	0.043	0.024
-229.757	-39.329	-0.294	0.152
-228.742	-22.547	0.136	0.081
-227.727	191.549	-0.163	0.243
-226.713	-28.681	-0.177	-0.101
-225.698	-200.000	-0.023	0.123
-224.684	-200.000	0.042	0.429
-223.669	-200.000	-0.011	-0.144
-222.655	-116.725	-0.180	-0.033
-221.640	260.317	0.045	-0.078
-220.625	-125.783	0.316	0.047
-219.611	-118.551	0.276	0.048
-218.596	13.349	-0.081	0.062
-217.582	44.559	-0.109	-0.099
-216.567	-200.000	-0.028	0.155
-215.552	213.427	-0.131	-0.204
-214.538	-122.572	0.118	-0.019
-213.523	-200.000	-0.034	0.189
-212.509	-56.688	-0.177	-0.077
-211.494	-92.129	-0.456	-0.127
-210.479	-94.982	-0.273	0.073
-209.465	10.512	-0.360	0.271
-208.450	-200.000	0.013	0.076
-207.436	382.481	0.036	0.072
-206.421	-200.000	-0.019	0.659
-205.406	-136.800	-0.371	0.042
-204.392	-9.752	-0.010	0.007
-203.377	75.509	0.112	-0.117
-202.363	-123.376	-0.216	0.034
-201.348	223.823	0.058	0.093
-200.333	-200.000	0.057	-0.300
-199.319	44.448	0.121	-0.110
-198.304	-140.839	0.215	0.022
-197.290	159.788	-0.232	0.319
-196.275	-2.563	0.105	0.073
-195.260	427.784	-0.127	0.271
-194.246	-200.000	0.010	0.120
-193.231	-25.789	0.263	-0.153
-192.217	-104.457	0.215	-0.049
-191.202	310.088	0.134	0.247
-190.187	734.929	0.052	0.139
-189.173	2.021	0.144	-0.103
-188.158	800.000	0.060	-0.190
-187.144	11.937	0.225	0.171
-186.129	-200.000	0.006	0.191
-185.114	-122.814	-0.175	-0.028
-184.100	-88.930	-0.205	-0.060
-183.085	800.000	0.039	-0.162
-182.071	-98.191	0.207	-0.053
-181.056	14.038	0.028	0.022
-180.042	-122.440	0.115	0.018
-179.027	-200.000	0.013	0.087
-178.012	-103.210	-0.272	0.064
-176.998	588.554	0.092	0.225
-175.983	390.361	-0.037	-0.076
-174.969	-200.000	0.049	-0.292
-173.954	-105.344	0.150	0.034
-172.939	-38.974	0.164	-0.085
-171.925	-113.935	0.089	-0.017
-170.910	-200.000	0.010	0.049
-169.896	-200.000	-0.009	-0.335
-168.881	169.231	0.170	0.239
-167.866	-58.873	-0.066	0.028
-166.852	-123.705	-0.247	0.039
-165.837	-96.874	0.205	-0.053
-164.823	-10.535	0.127	-0.083
-163.808	-3.607	0.273	-0.187
-162.793	146.916	0.074	-0.098
-161.779	453.730	0.108	-0.237
-160.764	162.421	0.257	-0.355
-159.750	-137.901	-0.137	0.015
-158.735	270.363	0.066	0.115
-157.720	800.000	0.071	0.298
-156.706	-18.875	-0.281	0.172
-155.691	-64.957	0.089	-0.036
-154.677	-52.687	0.256	-0.117
-153.662	800.000	-0.045	0.141
-152.647	-200.000	0.006	-0.116
-151.633	61.976	0.135	0.132
-150.618	-92.239	0.345	0.096
-149.604	-200.000	0.038	0.435
-148.589	-28.892	0.149	-0.084
-147.574	-200.000	0.006	0.133
-146.560	284.256	-0.042	-0.074
-145.545	-50.516	0.176	0.082
-144.531	-164.028	0.154	-0.007
-143.516	118.449	0.132	-0.161
-142.502	139.322	-0.193	-0.250
-141.487	11.725	-0.293	0.222
-140.472	-200.000	-0.156	0.691
-139.458	-73.548	-0.060	0.022
-138.443	-109.602	-0.150	-0.031
-137.429	218.281	-0.076	0.120
-136.414	44.796	0.389	-0.352
-135.399	-200.000	0.004	-0.147
-134.385	514.762	-0.093	-0.214
-133.370	800.000	0.053	0.194
-132.356	513.357	0.131	-0.301
-131.341	-200.000	0.008	0.110
-130.326	800.000	-0.071	0.271
-129.312	-200.000	0.026	0.162
-128.297	18.354	0.263	-0.207
-127.283	271.907	0.114	0.198
-126.268	-116.177	-0.357	-0.065
-125.253	-137.873	0.084	-0.009
-124.239	-148.105	0.417	0.034
-123.224	-200.000	0.063	0.321
-122.210	-200.000	-0.054	0.247
-121.195	1.519	-0.054	-0.038
-120.180	381.479	-0.067	0.135
-119.166	-64.616	-0.261	0.104
-118.151	-30.299	0.263	0.147
-117.137	800.000	-0.019	-0.058
-116.122	331.678	0.223	0.423
-115.107	-184.601	-0.079	0.001
-114.093	-22.215	0.229	-0.137
-113.078	-200.000	0.051	0.282
-112.064	-73.535	0.225	-0.081
-111.049	-116.194	-0.139	-0.025
-110.034	-46.200	-0.271	0.131
-109.020	-29.102	0.093	0.052
-108.005	121.350	0.091	-0.111
-106.991	800.000	-0.083	0.237
-105.976	-108.613	-0.167	0.035
-104.962	-190.219	0.049	-0.001
-103.947	-200.000	-0.005	-0.022
-102.932	337.814	-0.038	-0.073
-101.918	-200.000	0.013	-0.466
-100.903	217.479	0.065	-0.101
-99.889	-200.000	0.024	-0.428
-98.874	-121.587	-0.412	0.067
-97.859	-120.649	0.467	0.078
-96.845	-175.078	-0.215	-0.006
-95.830	800.000	0.052	-0.144
-94.816	-200.000	-0.028	-0.411
-93.801	-200.000	-0.041	-0.298
-92.786	-52.051	-0.069	-0.032
-91.772	-87.289	0.288	-0.086
-90.757	14.757	0.248	-0.191
-89.743	151.446	-0.058	0.077
-88.728	-54.406	0.050	0.022
-87.713	800.000	0.074	0.296
-86.699	681.317	0.025	-0.065
-85.684	266.499	0.134	0.230
-84.670	435.170	0.216	0.462
-83.655	144.546	0.100	-0.131
-82.640	-55.659	0.178	0.078
-81.626	-41.055	-0.230	-0.117
-80.611	167.480	-0.088	-0.123
-79.597	208.156	0.116	0.178
-78.582	-4.664	-0.274	0.186
-77.567	164.039	-0.173	-0.240
-76.553	13.354	0.186	0.142
-75.538	540.106	-0.035	0.082
-74.524	800.000	-0.024	0.075
-73.509	501.286	-0.167	-0.380
-72.494	-184.955	0.272	0.004
-71.480	-200.000	0.019	-0.238
-70.465	-200.000	0.014	-0.154
-69.451	-11.692	0.125	-0.080
-68.436	-91.236	0.333	-0.094
-67.422	-100.079	0.106	0.026
-66.407	221.870	0.092	-0.146
-65.392	-124.843	0.099	0.015
-64.378	21.516	0.205	-0.164
-63.363	-47.314	0.138	0.066
-62.349	587.596	-0.021	-0.051
-61.334	142.155	-0.783	-1.021
-60.319	94.129	0.513	0.571
-59.305	800.000	-0.361	-1.109
-58.290	554.202	0.426	1.005
-57.276	572.164	0.694	1.660
-56.261	-200.000	102.998	595.722
-55.246	560.603	1438.891	3413.612
-54.232	185.261	2637.834	3843.958
-53.217	110.254	2282.827	2691.637
-52.203	39.736	1898.568	1672.132
-51.188	33.691	1686.508	1439.619
-50.173	31.113	1643.224	1383.522
-49.159	50.203	1693.950	1570.326
-48.144	50.681	1710.679	1589.367
-47.130	33.369	1669.194	1422.195
-46.115	30.484	1654.862	1388.401
-45.100	30.501	1649.815	1384.241
-44.086	30.491	1646.817	1381.594
-43.071	30.374	1644.608	1378.817
-42.057	30.336	1642.491	1376.708
-41.042	30.309	1640.490	1374.773
-40.027	30.441	1638.363	1373.915
-39.013	30.468	1636.260	1372.299
-37.998	30.328	1635.241	1370.354
-36.984	30.380	1634.011	1369.655
-35.969	30.491	1632.296	1368.980
-34.954	30.564	1630.972	1368.350
-33.940	30.489	1629.019	1366.108
-32.925	30.472	1627.314	1364.500
-31.911	30.523	1625.626	1363.404
-30.896	30.448	1623.958	1361.397
-29.881	30.504	1622.337	1360.396
-28.867	30.481	1620.758	1358.851
-27.852	30.533	1618.847	1357.576
-26.838	30.464	1617.678	1356.039
-25.823	30.515	1616.685	1355.521
-24.809	30.519	1615.125	1354.191
-23.794	30.475	1613.707	1352.628
-22.779	30.548	1612.032	1351.698
-21.765	30.439	1611.076	1350.051
-20.750	30.494	1608.441	1348.193
-19.736	30.483	1607.676	1347.416
-18.721	30.567	1606.089	1346.639
-17.706	30.539	1604.163	1344.768
-16.692	30.569	1602.847	1343.832
-15.677	30.560	1601.537	1342.612
-14.663	30.545	1600.248	1341.370
-13.648	30.566	1599.100	1340.510
-12.633	30.527	1597.523	1338.852
-11.619	30.508	1595.834	1337.245
-10.604	30.502	1594.399	1335.948
-9.590	30.505	1593.110	1334.833
-8.575	30.593	1591.503	1334.066
-7.560	30.571	1590.812	1333.277
-6.546	30.535	1589.407	1331.787
-5.531	30.544	1588.620	1331.139
-4.517	30.543	1587.170	1329.864
-3.502	30.552	1586.297	1329.149
-2.487	30.548	1584.620	1327.661
-1.473	30.302	1572.235	1315.486
-0.458	27.560	1553.594	1280.597
0.556	23.375	1554.924	1249.645
1.571	21.062	1579.255	1252.500
2.586	20.703	1592.817	1260.540
3.600	18.646	1538.700	1203.202
4.615	11.578	1432.534	1073.782
5.629	5.725	1372.198	991.529
6.644	4.933	1364.565	980.943
7.659	4.852	1363.237	979.388
8.673	4.762	1362.373	978.116
9.688	4.823	1360.269	976.905
10.702	4.662	1357.682	973.948
11.717	7.501	1362.606	995.219
12.731	14.377	1375.578	1047.993
13.746	18.852	1381.806	1080.851
14.761	18.724	1380.697	1079.085
15.775	17.683	1377.765	1070.166
16.790	16.552	1375.533	1061.244
17.804	15.883	1372.739	1054.810
18.819	15.456	1371.645	1051.202
19.834	15.154	1370.648	1048.453
20.848	15.045	1368.802	1046.265
21.863	14.697	1368.174	1043.518
22.877	14.614	1366.723	1041.802
23.892	14.592	1365.778	1040.851
24.907	14.567	1365.504	1040.398
25.921	14.572	1364.326	1039.438
26.936	14.631	1363.258	1038.899
27.950	14.654	1362.608	1038.454
28.965	14.739	1361.346	1037.928
29.980	14.763	1359.959	1036.928
30.994	14.951	1358.865	1037.171
32.009	14.955	1357.656	1036.182
33.023	14.864	1356.315	1034.503
34.038	14.753	1355.035	1032.747
35.053	14.844	1353.804	1032.282
36.067	14.726	1352.737	1030.646
37.082	14.781	1351.600	1030.029
38.096	14.820	1351.080	1029.780
39.111	14.821	1350.147	1028.987
40.126	14.878	1349.254	1028.562
41.140	14.537	1348.637	1025.903
42.155	14.569	1347.954	1025.493
43.169	14.493	1347.750	1024.781
44.184	14.576	1347.079	1024.687
45.199	14.521	1347.159	1024.322
46.213	14.491	1346.769	1023.747
47.228	14.738	1345.229	1024.001
48.242	14.684	1344.471	1023.001
49.257	14.629	1343.121	1021.550
50.271	14.704	1341.257	1020.496
51.286	14.708	1340.447	1019.815
52.301	14.686	1338.694	1018.259
53.315	14.704	1337.751	1017.564
54.330	14.624	1336.824	1016.277
55.344	14.593	1335.710	1015.154
56.359	14.576	1334.611	1014.124
57.374	14.565	1333.736	1013.306
58.388	14.536	1332.805	1012.332
59.403	14.475	1332.644	1011.751
60.417	14.469	1332.102	1011.209
61.432	14.443	1331.198	1010.279
62.447	14.385	1330.058	1008.971
63.461	14.350	1328.893	1007.786
64.476	14.427	1327.687	1007.249
65.490	14.386	1326.738	1006.192
66.505	14.447	1324.978	1005.139
67.520	14.501	1323.293	1004.093
68.534	14.516	1323.009	1003.880
69.549	14.414	1321.661	1002.158
70.563	14.528	1320.130	1001.593
71.578	14.305	1319.614	999.771
72.593	14.255	1318.661	998.659
73.607	14.242	1317.843	997.874
74.622	14.242	1317.389	997.441
75.636	14.335	1316.356	997.133
76.651	14.300	1316.216	996.726
77.666	14.357	1314.995	996.055
78.680	14.335	1314.915	995.774
79.695	14.392	1313.979	995.320
80.709	14.434	1313.192	994.886
81.724	14.448	1312.450	994.316
82.739	14.557	1311.438	994.112
83.753	14.609	1310.883	993.916
84.768	14.723	1309.740	993.635
85.782	14.749	1308.783	992.976
86.797	14.751	1307.604	992.009
87.812	14.730	1305.800	990.429
88.826	14.754	1304.757	989.693
89.841	14.696	1304.258	988.879
90.855	14.710	1302.820	987.787
91.870	14.776	1302.013	987.475
92.884	14.822	1301.309	987.125
93.899	14.758	1300.702	986.204
94.914	14.890	1299.953	986.326
95.928	14.831	1299.342	985.424
96.943	14.807	1297.808	984.035
97.957	14.773	1297.173	983.263
98.972	14.889	1296.028	982.995
99.987	14.732	1295.050	981.244
101.001	14.897	1294.013	981.337
102.016	14.761	1293.094	979.754
103.030	14.864	1291.804	979.297
104.045	14.676	1291.756	978.070
105.060	14.751	1290.324	977.341
106.074	14.582	1288.678	975.017
107.089	14.504	1287.671	973.716
108.103	14.444	1286.669	972.519
109.118	14.475	1284.840	971.233
110.133	14.524	1283.331	970.290
111.147	14.420	1282.592	969.045
112.162	14.514	1281.033	968.323
113.176	14.509	1279.899	967.353
114.191	14.631	1279.376	967.577
115.206	14.615	1278.047	966.393
116.220	14.507	1276.658	964.633
117.235	14.499	1275.742	963.809
118.249	14.477	1274.825	962.908
119.264	14.560	1273.703	962.455
120.279	14.455	1272.500	960.853
121.293	14.494	1272.083	960.681
122.308	14.472	1270.768	959.471
123.322	14.457	1269.358	958.240
124.337	14.360	1268.749	957.134
125.352	14.434	1267.232	956.330
126.366	14.480	1265.911	955.511
127.381	14.531	1264.822	954.900
128.395	14.383	1264.474	953.707
129.410	14.417	1263.462	953.052
130.424	14.617	1262.188	953.150
131.439	14.607	1261.331	952.358
132.454	14.657	1260.378	951.841
133.468	14.696	1259.468	951.294
134.483	14.556	1258.855	949.949
135.497	14.586	1257.682	949.148
136.512	14.632	1256.467	948.410
137.527	14.614	1255.411	947.426
138.541	14.572	1254.171	946.169
139.556	14.673	1252.581	945.457
140.570	14.760	1251.922	945.369
141.585	14.829	1250.822	944.846
142.600	14.720	1250.008	943.530
143.614	14.843	1248.646	943.111
144.629	14.853	1247.607	942.304
145.643	14.808	1246.442	941.084
146.658	14.789	1245.074	939.860
147.673	14.694	1243.870	938.335
148.687	14.664	1242.970	937.407
149.702	14.621	1241.354	935.865
150.716	14.624	1240.066	934.828
151.731	14.643	1238.602	933.745
152.746	14.720	1237.671	933.390
153.760	14.760	1236.306	932.502
154.775	14.875	1235.257	932.272
155.789	14.912	1234.536	931.851
156.804	14.860	1233.621	930.786
157.819	14.922	1232.420	930.143
158.833	14.945	1231.773	929.702
159.848	15.005	1231.157	929.486
160.862	15.056	1229.786	928.652
161.877	14.969	1228.542	927.147
162.892	14.825	1227.759	925.680
163.906	14.811	1227.079	925.007
164.921	14.823	1226.170	924.303
165.935	14.871	1225.064	923.654
166.950	14.872	1224.611	923.237
167.964	14.893	1223.683	922.573
168.979	14.838	1223.216	921.837
169.994	14.831	1222.363	921.075
171.008	15.038	1221.162	921.228
172.023	14.964	1220.434	920.188
173.037	14.994	1219.998	919.944
174.052	15.026	1218.894	919.204
175.067	14.916	1217.401	917.394
176.081	14.898	1216.661	916.655
177.096	14.961	1215.602	916.120
178.110	14.895	1215.008	915.234
179.125	14.988	1213.229	914.319
180.140	14.949	1212.376	913.383
181.154	15.020	1210.771	912.479
182.169	15.179	1209.663	912.431
183.183	15.146	1209.015	911.680
184.198	15.292	1207.274	911.081
185.213	15.112	1206.773	909.643
186.227	15.239	1205.530	909.316
187.242	15.288	1204.295	908.567
188.256	15.319	1203.285	907.895
189.271	15.270	1202.773	907.164
190.286	15.061	1202.013	905.383
191.300	14.912	1200.577	903.414
192.315	14.852	1200.168	902.699
193.329	14.970	1199.460	902.727
194.344	14.935	1198.408	901.667
195.359	14.998	1198.020	901.632
196.373	15.185	1197.506	902.173
197.388	15.240	1197.282	902.222
198.402	15.322	1197.040	902.399
199.417	15.425	1195.982	902.077
200.432	15.412	1195.391	901.481
201.446	15.529	1194.450	901.318
202.461	15.558	1193.673	900.809
203.475	15.541	1192.632	899.855
204.490	15.440	1191.341	898.260
205.504	15.415	1189.959	897.005
206.519	15.503	1188.801	896.521
207.534	15.419	1188.230	895.562
208.548	15.347	1187.089	894.239
209.563	15.411	1186.193	893.829
210.577	15.416	1185.210	893.031
211.592	15.472	1184.566	892.769
212.607	15.568	1183.532	892.419
213.621	15.496	1182.661	891.302
214.636	15.561	1182.063	891.118
215.650	15.480	1181.324	890.050
216.665	15.567	1180.023	889.452
217.680	15.587	1179.449	889.045
218.694	15.738	1178.530	889.075
219.709	15.621	1177.858	887.868
220.723	15.655	1176.831	887.198
221.738	15.623	1176.000	886.323
222.753	15.729	1175.228	886.219
223.767	15.699	1174.950	885.778
224.782	15.754	1174.264	885.472
225.796	15.827	1173.629	885.296
226.811	15.756	1172.819	884.233
227.826	15.730	1172.156	883.517
228.840	15.704	1171.485	882.801
229.855	15.730	1170.465	882.088
230.869	15.657	1169.791	881.119
231.884	15.704	1169.115	880.780
232.899	15.727	1167.900	879.904
233.913	15.684	1167.564	879.347
234.928	15.669	1166.931	878.715
235.942	15.605	1165.831	877.479
236.957	15.653	1165.205	877.177
237.972	15.612	1164.588	876.422
238.986	15.629	1164.063	876.038
240.001	15.679	1163.088	875.487
241.015	15.667	1162.347	874.790
242.030	15.860	1161.412	875.009
243.045	15.805	1160.615	874.047
244.059	15.830	1159.999	873.638
245.074	15.859	1159.407	873.265
246.088	15.966	1158.270	872.885
247.103	15.892	1157.648	871.955
248.117	16.035	1156.909	872.062
249.132	16.095	1156.173	871.738
250.147	16.111	1155.661	871.359
251.161	16.314	1154.868	871.732
252.176	16.186	1154.472	870.694
253.190	16.230	1154.012	870.499
254.205	16.262	1153.765	870.400
255.220	16.356	1152.749	870.043
256.234	16.357	1152.226	869.573
257.249	16.335	1151.077	868.519
258.263	16.332	1150.485	867.979
259.278	16.341	1149.900	867.506
260.293	16.343	1149.398	867.060
261.307	16.410	1148.768	866.852
262.322	16.433	1148.175	866.449
263.336	16.478	1147.355	865.982
264.351	16.402	1146.858	865.144
265.366	16.509	1146.153	865.080
266.380	16.497	1145.184	864.212
267.395	16.464	1144.674	863.583
268.409	16.374	1144.173	862.670
269.424	16.406	1143.463	862.218
270.439	16.371	1142.625	861.335
271.453	16.514	1141.882	861.425
272.468	16.566	1140.501	860.569
273.482	16.287	1140.445	859.033
274.497	16.376	1139.927	859.019
275.512	16.401	1139.041	858.405
276.526	16.388	1138.305	857.708
277.541	16.562	1137.415	857.843
278.555	16.449	1136.478	856.487
279.570	16.644	1136.040	857.070
280.585	16.608	1135.196	856.172
281.599	16.626	1134.505	855.667
282.614	16.682	1133.301	854.967
283.628	16.519	1132.013	853.098
284.643	16.659	1131.128	853.062
285.657	16.639	1130.518	852.423
286.672	16.707	1129.416	851.859
287.687	16.627	1128.712	850.853
288.701	16.643	1128.011	850.331
289.716	16.672	1127.052	849.678
290.730	16.626	1126.583	849.014
291.745	16.765	1125.663	848.946
292.760	16.742	1125.349	848.518
293.774	16.864	1124.473	848.392
294.789	16.774	1124.387	847.804
295.803	16.800	1123.503	847.194
296.818	16.768	1122.638	846.304
297.833	16.764	1122.024	845.749
298.847	16.731	1121.324	844.980
299.862	16.795	1120.073	844.282
300.876	16.810	1119.741	844.029
301.891	17.013	1118.798	844.256
302.906	17.022	1118.159	843.743
303.920	16.984	1117.734	843.157
304.935	17.036	1117.357	843.060
305.949	17.132	1116.552	842.851
306.964	17.077	1115.765	841.911
307.979	17.169	1115.100	841.792
308.993	17.063	1114.509	840.744
310.008	17.150	1113.559	840.385
311.022	17.074	1112.853	839.404
312.037	17.183	1111.982	839.212
313.052	17.046	1111.073	837.771
314.066	16.907	1110.438	836.534
315.081	16.968	1109.171	835.807
316.095	16.836	1109.104	835.030
317.110	16.895	1108.172	834.544
318.125	17.038	1107.452	834.633
319.139	16.942	1106.284	833.208
320.154	17.032	1105.709	833.143
321.168	16.919	1105.551	832.395
322.183	17.076	1104.467	832.275
323.197	17.093	1103.988	831.924
324.212	17.069	1103.483	831.350
325.227	17.144	1103.073	831.338
326.241	16.980	1102.920	830.346
327.256	17.060	1101.801	829.820
328.270	17.115	1100.572	829.089
329.285	17.085	1099.701	828.213
330.300	17.105	1098.697	827.484
331.314	17.063	1098.337	826.934
332.329	17.179	1096.621	826.131
333.343	17.175	1095.674	825.325
334.358	17.382	1095.152	825.864
335.373	17.286	1094.311	824.690
336.387	17.210	1093.652	823.752
337.402	17.314	1092.972	823.671
338.416	17.249	1092.672	823.058
339.431	17.397	1091.997	823.194
340.446	17.462	1091.577	823.120
341.460	17.517	1090.892	822.797
342.475	17.509	1090.486	822.379
343.489	17.493	1089.473	821.464
344.504	17.518	1088.382	820.687
345.519	17.552	1087.314	819.975
346.533	17.629	1086.488	819.652
347.548	17.673	1085.926	819.365
348.562	17.665	1084.889	818.472
349.577	17.564	1084.115	817.328
350.592	17.483	1083.926	816.725
351.606	17.393	1083.056	815.568
352.621	17.537	1081.969	815.367
353.635	17.575	1081.122	814.836
354.650	17.510	1080.581	814.047
355.665	17.443	1079.932	813.165
356.679	17.488	1079.356	812.878
357.694	17.568	1078.659	812.662
358.708	17.714	1077.945	812.745
359.723	17.614	1077.682	812.001
360.738	17.567	1076.905	811.119
361.752	17.651	1076.496	811.139
362.767	17.630	1075.707	810.375
363.781	17.694	1075.053	810.110
364.796	17.773	1074.654	810.116
365.810	17.920	1074.129	810.345
366.825	17.961	1073.518	810.005
367.840	17.976	1072.910	809.548
368.854	18.038	1072.564	809.510
369.869	17.941	1071.681	808.311
370.883	17.930	1070.787	807.512
371.898	18.003	1069.663	806.940
372.913	17.903	1069.393	806.193
373.927	18.033	1068.868	806.336
374.942	18.016	1068.565	805.957
375.956	18.084	1067.927	805.726
376.971	18.031	1067.041	804.736
377.986	17.901	1067.260	804.221
379.000	18.163	1066.318	804.671
380.015	18.217	1065.687	804.376
381.029	18.296	1064.969	804.138
382.044	18.271	1064.145	803.326
383.059	18.263	1063.635	802.831
384.073	18.130	1062.952	801.620
385.088	18.182	1061.710	800.858
386.102	18.172	1061.015	800.217
387.117	18.196	1060.028	799.510
388.132	18.188	1058.695	798.400
389.146	17.970	1058.562	797.212
390.161	18.021	1057.881	796.866
391.175	18.114	1056.782	796.401
392.190	18.049	1056.482	795.799
393.205	18.345	1055.275	796.198
394.219	18.254	1054.939	795.451
395.234	18.263	1053.724	794.503
396.248	18.177	1052.651	793.230
397.263	18.158	1051.645	792.311
398.278	18.146	1051.428	792.023
399.292	18.113	1050.263	790.920
400.307	18.083	1049.713	790.300
401.321	18.306	1048.671	790.476
402.336	18.208	1048.077	789.503
403.350	18.089	1047.834	788.702
404.365	18.101	1047.197	788.206
405.380	18.234	1046.420	788.167
406.394	18.281	1045.501	787.621
407.409	18.429	1044.801	787.705
408.423	18.471	1044.052	787.261
409.438	18.519	1043.440	786.951
410.453	18.461	1043.001	786.285
411.467	18.571	1042.123	786.056
412.482	18.492	1041.834	785.408
413.496	18.748	1040.715	785.667
414.511	18.562	1040.544	784.618
415.526	18.668	1040.145	784.731
416.540	18.813	1039.292	784.683
417.555	18.792	1038.763	784.118
418.569	18.772	1038.449	783.720
419.584	18.623	1037.860	782.524
420.599	18.787	1037.338	782.812
421.613	150.992	1401.781	1796.686
422.628	137.981	1454.871	1796.792
