DTS Sentinel unit serial number:	SN413079Multiplexer serial number:	ORYXHardware model number:	OX4-SRSoftware version number:	ORYX F/W v4.00 Oryx Data Collector v3.7.2.0data status	okinstallation	princeton_trtdifferential loss correction	single-endedforward channel	channel 2reverse channel	N/Adate	2019/09/15time	10:15:34forward acquisition time	60.00reverse acquisition time	0.00gamma	496.2192k internal	0.2316k external	0.2316temperature offset calibration	1.0015default loss term (dB/km)	0.3790temperature slope calibration	1.0000multiplexer offset coefficient	1.0000multiplexer slope coefficient	1.0000fibre end	0.00T internal ref (°C)	34.25T ext. ref 1 (°C)	5.02T ext. ref 2 (°C)	29.69length (m)	temperature (°C)	Stokes	anti-Stokes-747.200	372.910	0.168	-0.346
-746.185	140.706	0.097	0.130
-745.171	-72.858	0.239	-0.089
-744.156	267.148	-0.054	0.096
-743.142	-83.441	0.312	-0.101
-742.127	367.985	-0.105	0.215
-741.112	67.644	0.037	0.038
-740.098	-200.000	0.059	0.272
-739.083	-200.000	-0.049	-0.282
-738.069	-170.174	0.136	-0.005
-737.054	-14.442	-0.094	0.061
-736.039	288.419	-0.128	0.234
-735.025	94.155	0.147	0.168
-734.010	527.081	-0.156	-0.372
-732.996	-27.024	-0.268	0.159
-731.981	-200.000	0.014	-0.110
-730.966	-29.379	-0.331	-0.192
-729.952	206.305	-0.107	-0.169
-728.937	91.125	-0.158	0.179
-727.923	800.000	-0.044	0.176
-726.908	-97.088	0.134	-0.035
-725.894	107.441	-0.160	-0.193
-724.879	50.868	-0.122	-0.117
-723.864	148.754	0.104	0.142
-722.850	-132.548	-0.224	0.029
-721.835	-200.000	-0.058	-0.272
-720.821	-170.495	-0.104	-0.004
-719.806	-31.208	0.085	0.048
-718.791	-96.758	0.187	-0.050
-717.777	-57.361	-0.038	-0.017
-716.762	-107.162	-0.151	0.034
-715.748	-92.189	-0.124	-0.035
-714.733	800.000	-0.126	-0.371
-713.718	234.779	0.119	-0.199
-712.704	-77.204	-0.386	0.136
-711.689	-200.000	0.002	-0.029
-710.675	110.544	-0.310	-0.377
-709.660	-26.182	0.136	0.081
-708.645	800.000	-0.022	0.083
-707.631	77.065	0.126	-0.136
-706.616	91.852	-0.165	0.188
-705.602	800.000	0.091	-0.301
-704.587	-67.760	-0.048	-0.019
-703.572	-200.000	-0.020	-0.121
-702.558	-50.273	-0.293	0.140
-701.543	-9.172	0.159	0.108
-700.529	6.675	-0.309	0.233
-699.514	-151.480	-0.139	0.010
-698.499	12.106	-0.340	-0.265
-697.485	-162.558	0.223	0.011
-696.470	507.418	-0.184	0.432
-695.456	-177.162	-0.425	0.011
-694.441	-200.000	-0.042	0.207
-693.426	100.766	0.083	-0.097
-692.412	10.813	-0.309	0.238
-691.397	-3.009	0.133	-0.094
-690.383	-32.368	-0.348	0.196
-689.368	-200.000	0.050	-0.450
-688.354	-200.000	-0.031	-0.317
-687.339	127.654	0.102	-0.130
-686.324	-2.906	-0.214	0.151
-685.310	355.335	0.090	-0.181
-684.295	-111.065	-0.397	-0.082
-683.281	104.062	-0.101	-0.120
-682.266	14.432	0.221	0.174
-681.251	723.941	-0.020	0.053
-680.237	39.126	-0.192	-0.174
-679.222	-89.950	-0.073	-0.021
-678.208	-152.126	0.128	0.009
-677.193	-181.855	-0.140	0.003
-676.178	15.909	-0.187	-0.149
-675.164	510.562	-0.089	0.210
-674.149	136.623	0.082	-0.109
-673.135	-89.836	0.106	0.031
-672.120	280.637	-0.101	0.183
-671.105	-104.432	-0.195	-0.046
-670.091	-200.000	-0.013	0.384
-669.076	-200.000	0.033	0.231
-668.062	-28.650	0.117	0.068
-667.047	-155.575	-0.274	0.018
-666.032	-31.970	0.025	-0.014
-665.018	615.446	-0.092	0.234
-664.003	12.551	-0.247	0.193
-662.989	-40.745	-0.209	0.109
-661.974	-67.765	-0.244	-0.097
-660.959	128.015	-0.119	-0.153
-659.945	800.000	0.136	0.440
-658.930	800.000	0.044	-0.190
-657.916	-26.676	-0.140	-0.083
-656.901	-200.000	0.011	0.237
-655.886	25.565	0.028	-0.023
-654.872	-120.186	-0.147	0.025
-653.857	81.672	0.088	-0.097
-652.843	196.578	-0.072	-0.111
-651.828	245.424	-0.051	-0.087
-650.814	-200.000	-0.017	-0.152
-649.799	800.000	-0.033	-0.123
-648.784	49.988	0.088	-0.084
-647.770	341.726	-0.061	-0.120
-646.755	800.000	-0.034	0.100
-645.741	-200.000	-0.029	-0.327
-644.726	116.868	0.020	-0.025
-643.711	-0.095	-0.343	0.246
-642.697	-200.000	-0.037	0.240
-641.682	-200.000	0.020	-0.316
-640.668	-127.977	-0.261	0.038
-639.653	-149.963	0.064	0.005
-638.638	-149.049	-0.380	-0.031
-637.624	-200.000	0.008	0.068
-636.609	709.861	0.025	0.066
-635.595	798.182	-0.161	-0.449
-634.580	-200.000	-0.029	-0.547
-633.565	55.949	-0.046	-0.045
-632.551	164.305	0.127	0.180
-631.536	-200.000	0.010	0.095
-630.522	-63.318	0.164	0.068
-629.507	-61.718	0.129	0.054
-628.492	-10.754	0.083	-0.056
-627.478	-72.493	0.033	0.012
-626.463	-200.000	-0.014	-0.289
-625.449	-29.661	-0.098	-0.056
-624.434	328.013	0.065	-0.126
-623.419	-54.901	-0.325	0.148
-622.405	-132.014	-0.257	0.034
-621.390	282.339	0.170	-0.307
-620.376	800.000	-0.017	-0.068
-619.361	-81.566	-0.196	0.065
-618.346	-139.717	-0.136	0.015
-617.332	401.700	0.128	-0.272
-616.317	-174.380	0.290	-0.008
-615.303	-65.001	-0.220	0.090
-614.288	349.757	-0.114	0.227
-613.273	-93.183	0.108	-0.030
-612.259	-40.784	-0.188	-0.098
-611.244	-144.623	-0.079	0.007
-610.230	-129.280	-0.173	0.024
-609.215	800.000	0.111	0.361
-608.201	-76.901	0.074	0.026
-607.186	-11.449	-0.270	0.179
-606.171	-184.414	-0.461	0.008
-605.157	-200.000	0.019	0.107
-604.142	-200.000	0.021	0.186
-603.128	109.174	-0.092	0.111
-602.113	-50.619	0.178	0.085
-601.098	-200.000	-0.045	0.253
-600.084	-109.068	0.160	-0.034
-599.069	-66.626	-0.169	0.068
-598.055	-26.481	0.299	0.176
-597.040	-83.095	-0.249	0.081
-596.025	-1.346	-0.111	-0.079
-595.011	419.813	-0.122	-0.263
-593.996	-200.000	-0.011	0.104
-592.982	-200.000	0.027	0.301
-591.967	-96.934	-0.228	0.060
-590.952	-118.704	-0.115	0.020
-589.938	375.773	-0.093	-0.192
-588.923	800.000	-0.099	0.423
-587.909	197.574	0.281	-0.432
-586.894	11.332	-0.135	0.104
-585.879	423.980	-0.146	-0.317
-584.865	-200.000	0.010	-0.071
-583.850	-84.080	0.162	-0.052
-582.836	81.376	0.168	0.182
-581.821	4.215	0.340	0.251
-580.806	-32.272	0.368	0.207
-579.792	-155.217	0.140	-0.009
-578.777	-200.000	-0.003	0.411
-577.763	-116.226	-0.252	-0.047
-576.748	141.580	0.125	0.167
-575.733	396.769	-0.132	0.277
-574.719	412.420	-0.096	-0.206
-573.704	-200.000	0.034	-0.158
-572.690	101.013	0.118	0.138
-571.675	-200.000	-0.006	-0.237
-570.661	287.124	-0.180	0.328
-569.646	102.772	-0.179	0.210
-568.631	-200.000	0.004	-0.022
-567.617	26.468	0.126	0.106
-566.602	14.557	-0.117	-0.092
-565.588	58.065	0.175	-0.173
-564.573	-22.104	0.092	-0.056
-563.558	21.439	-0.281	-0.230
-562.544	-33.860	-0.245	0.136
-561.529	800.000	0.079	0.224
-560.515	-8.092	0.086	0.058
-559.500	-200.000	-0.014	-0.153
-558.485	-193.076	0.268	0.002
-557.471	555.507	-0.097	0.234
-556.456	-135.745	0.102	0.012
-555.442	-200.000	-0.004	0.152
-554.427	544.515	0.096	-0.231
-553.412	85.432	-0.161	-0.177
-552.398	210.191	-0.137	0.216
-551.383	24.251	0.140	-0.117
-550.369	-200.000	-0.005	0.182
-549.354	-66.821	0.216	-0.086
-548.339	-76.592	0.094	0.033
-547.325	185.341	-0.224	0.334
-546.310	-200.000	-0.064	0.302
-545.296	-99.914	0.503	0.126
-544.281	-200.000	-0.012	0.072
-543.266	-17.276	-0.148	0.093
-542.252	-72.748	0.282	0.105
-541.237	-22.302	-0.082	-0.050
-540.223	-53.025	0.147	-0.068
-539.208	-40.786	0.146	0.076
-538.193	209.025	-0.217	-0.342
-537.179	98.875	0.070	0.082
-536.164	232.675	-0.102	-0.169
-535.150	-114.610	0.182	-0.035
-534.135	-6.898	-0.112	-0.076
-533.121	-139.182	-0.266	0.029
-532.106	-70.287	-0.099	-0.038
-531.091	126.138	0.167	-0.212
-530.077	-7.626	0.138	-0.094
-529.062	-149.111	-0.418	0.034
-528.048	-200.000	-0.046	0.263
-527.033	275.725	0.080	0.143
-526.018	151.252	-0.117	0.160
-525.004	-17.528	0.111	-0.070
-523.989	800.000	-0.041	-0.127
-522.975	210.584	-0.126	-0.198
-521.960	47.223	-0.149	0.139
-520.945	-2.776	0.116	0.081
-519.931	-183.522	0.075	-0.001
-518.916	184.666	0.178	-0.265
-517.902	49.230	0.063	-0.060
-516.887	67.381	-0.104	0.106
-515.872	-200.000	-0.013	0.212
-514.858	-112.401	-0.070	0.014
-513.843	800.000	-0.031	0.097
-512.829	150.378	-0.129	-0.176
-511.814	800.000	-0.032	-0.098
-510.799	-111.289	0.077	-0.016
-509.785	-10.682	-0.086	-0.057
-508.770	-41.126	0.096	-0.050
-507.756	82.668	-0.214	0.234
-506.741	63.696	-0.078	0.078
-505.726	296.986	0.098	-0.180
-504.712	-200.000	-0.011	0.467
-503.697	-124.843	0.239	0.037
-502.683	20.552	0.128	-0.104
-501.668	800.000	-0.051	0.158
-500.653	-24.508	0.119	0.071
-499.639	-117.565	-0.303	-0.055
-498.624	659.860	-0.053	-0.136
-497.610	419.256	0.123	0.264
-496.595	246.604	-0.183	-0.310
-495.581	-117.509	-0.221	-0.040
-494.566	-166.213	0.454	-0.019
-493.551	212.327	0.137	-0.216
-492.537	144.463	-0.092	0.124
-491.522	-200.000	-0.015	-0.247
-490.508	-200.000	0.006	0.163
-489.493	108.373	0.057	0.068
-488.478	190.500	0.242	-0.365
-487.464	-200.000	-0.004	-0.086
-486.449	-127.159	-0.256	-0.038
-485.435	431.075	-0.061	-0.133
-484.420	147.333	0.315	-0.426
-483.405	-177.258	-0.311	0.008
-482.391	105.819	0.079	-0.093
-481.376	149.319	-0.019	0.025
-480.362	800.000	0.030	0.121
-479.347	-60.705	-0.224	0.095
-478.332	119.414	-0.043	-0.053
-477.318	-29.594	0.164	-0.094
-476.303	-144.407	-0.273	0.025
-475.289	800.000	-0.031	0.093
-474.274	4.526	0.251	-0.185
-473.259	-200.000	-0.056	-0.322
-472.245	-200.000	-0.008	0.090
-471.230	147.970	-0.253	-0.342
-470.216	61.835	-0.295	-0.294
-469.201	-200.000	0.035	-0.168
-468.186	242.459	-0.077	-0.130
-467.172	35.698	0.094	-0.083
-466.157	171.509	-0.159	0.228
-465.143	-84.016	-0.130	-0.041
-464.128	-151.714	-0.764	0.056
-463.113	-57.481	0.195	0.086
-462.099	-161.995	-0.300	0.015
-461.084	-51.150	0.247	0.116
-460.070	122.263	0.121	0.152
-459.055	800.000	-0.112	0.334
-458.040	800.000	-0.073	0.254
-457.026	24.816	0.218	0.181
-456.011	438.907	0.099	0.217
-454.997	800.000	-0.067	-0.226
-453.982	-59.898	-0.269	0.115
-452.968	-1.248	-0.245	-0.173
-451.953	-8.937	0.246	-0.165
-450.938	-91.957	0.084	0.024
-449.924	1.525	0.269	0.194
-448.909	-22.758	0.019	-0.012
-447.895	800.000	0.047	-0.141
-446.880	-123.788	-0.300	-0.047
-445.865	-200.000	-0.040	-0.194
-444.851	146.334	0.307	-0.413
-443.836	-29.234	-0.247	0.142
-442.822	-103.360	-0.070	-0.016
-441.807	399.692	-0.118	-0.247
-440.792	164.306	-0.100	-0.142
-439.778	251.480	-0.128	0.219
-438.763	28.331	-0.157	-0.133
-437.749	-200.000	0.039	-0.360
-436.734	-21.185	-0.234	0.143
-435.719	-147.512	0.181	0.015
-434.705	-200.000	-0.001	-0.236
-433.690	535.218	0.103	-0.244
-432.676	161.910	0.268	0.376
-431.661	-200.000	0.007	0.059
-430.646	-51.430	0.228	0.107
-429.632	-55.264	-0.312	0.140
-428.617	564.149	-0.025	-0.060
-427.603	-194.587	0.296	-0.002
-426.588	-26.593	-0.055	-0.032
-425.573	-200.000	-0.032	-0.169
-424.559	-11.770	-0.231	-0.152
-423.544	33.919	-0.055	-0.048
-422.530	220.254	0.205	0.328
-421.515	-122.134	-0.321	-0.053
-420.500	121.017	-0.041	-0.051
-419.486	-200.000	-0.037	0.373
-418.471	288.884	0.029	0.053
-417.457	83.971	0.113	0.123
-416.442	-200.000	-0.010	0.111
-415.428	41.988	0.332	-0.302
-414.413	800.000	-0.031	-0.127
-413.398	389.124	0.066	-0.136
-412.384	800.000	-0.094	0.330
-411.369	-88.997	0.206	0.061
-410.355	131.110	0.253	-0.325
-409.340	-200.000	0.004	0.040
-408.325	-102.643	-0.076	-0.018
-407.311	-79.108	-0.186	-0.063
-406.296	300.682	0.152	-0.280
-405.282	329.843	0.047	-0.091
-404.267	-1.578	0.486	0.342
-403.252	328.238	0.069	-0.132
-402.238	32.127	-0.163	0.140
-401.223	164.387	0.077	-0.109
-400.209	-66.520	0.475	0.188
-399.194	-159.230	0.013	-0.001
-398.179	-20.069	-0.018	0.011
-397.165	35.795	0.234	-0.206
-396.150	-105.124	0.134	0.031
-395.136	183.063	-0.058	-0.086
-394.121	-124.670	0.141	0.022
-393.106	-140.872	-0.206	-0.021
-392.092	168.069	-0.079	-0.112
-391.077	67.063	0.160	-0.163
-390.063	111.226	-0.102	0.122
-389.048	231.984	0.095	0.156
-388.033	197.067	0.126	0.192
-387.019	353.872	-0.081	0.160
-386.004	174.525	0.264	-0.382
-384.990	169.074	0.101	-0.144
-383.975	-122.557	0.130	0.021
-382.960	22.943	-0.182	0.149
-381.946	-111.082	0.357	-0.073
-380.931	800.000	-0.090	-0.342
-379.917	-31.795	-0.275	0.154
-378.902	-136.858	0.110	-0.013
-377.888	-46.433	0.225	0.110
-376.873	-108.087	0.169	-0.037
-375.858	81.902	0.113	-0.122
-374.844	-175.240	-0.383	0.011
-373.829	86.671	0.244	-0.268
-372.815	800.000	-0.035	0.099
-371.800	146.203	-0.016	0.021
-370.785	431.382	-0.055	-0.120
-369.771	-139.149	-0.163	0.018
-368.756	96.969	0.113	0.129
-367.742	16.683	-0.044	0.035
-366.727	72.429	0.058	-0.060
-365.712	218.228	-0.236	-0.376
-364.698	37.919	0.126	0.112
-363.683	-22.110	-0.387	0.235
-362.669	68.065	-0.068	-0.070
-361.654	204.058	0.201	-0.311
-360.639	-200.000	-0.005	-0.085
-359.625	-119.487	0.211	-0.037
-358.610	714.385	0.026	-0.069
-357.596	-200.000	0.024	-0.334
-356.581	-135.672	0.349	-0.041
-355.566	-92.833	-0.306	-0.085
-354.552	136.854	-0.126	0.164
-353.537	273.505	-0.098	-0.173
-352.523	-200.000	0.001	0.117
-351.508	114.474	0.137	0.166
-350.493	-24.997	0.146	0.087
-349.479	60.027	-0.090	-0.089
-348.464	48.784	-0.228	0.213
-347.450	127.753	-0.113	0.143
-346.435	800.000	0.047	-0.154
-345.420	-200.000	-0.013	-0.160
-344.406	478.075	0.083	0.187
-343.391	182.664	-0.059	0.086
-342.377	-115.001	-0.207	-0.039
-341.362	635.052	0.116	-0.294
-340.348	-85.629	-0.075	0.023
-339.333	-11.064	-0.076	-0.050
-338.318	-83.645	-0.206	-0.066
-337.304	221.499	-0.091	-0.146
-336.289	70.668	-0.062	0.064
-335.275	-200.000	-0.052	0.241
-334.260	-66.794	-0.279	0.110
-333.245	-200.000	-0.009	-0.328
-332.231	127.679	0.041	0.051
-331.216	-112.515	-0.291	-0.058
-330.202	-53.542	0.194	-0.089
-329.187	135.671	-0.090	0.116
-328.172	749.456	0.043	0.115
-327.158	-127.377	-0.185	-0.027
-326.143	11.829	0.227	0.174
-325.129	-200.000	0.006	0.322
-324.114	-200.000	-0.048	0.246
-323.099	-48.458	0.466	-0.223
-322.085	-43.951	0.088	0.044
-321.070	-40.317	0.110	-0.057
-320.056	-130.550	0.224	0.030
-319.041	-104.636	-0.114	0.026
-318.026	-200.000	0.027	-0.267
-317.012	-102.508	-0.083	-0.020
-315.997	-110.994	0.310	0.063
-314.983	699.740	-0.110	0.289
-313.968	172.777	0.071	-0.102
-312.953	352.830	-0.116	-0.229
-311.939	-200.000	-0.013	-0.127
-310.924	-163.086	0.414	0.020
-309.910	-64.115	-0.222	0.090
-308.895	47.870	-0.284	-0.264
-307.880	586.491	0.054	0.132
-306.866	-13.395	0.181	0.117
-305.851	563.198	-0.112	-0.269
-304.837	-14.899	0.080	-0.051
-303.822	165.993	0.272	-0.383
-302.807	-40.345	-0.180	-0.093
-301.793	19.228	0.149	0.119
-300.778	-83.811	-0.343	0.109
-299.764	102.988	0.039	0.046
-298.749	-117.857	-0.138	0.025
-297.735	-57.333	0.100	0.044
-296.720	56.176	-0.311	-0.300
-295.705	-93.202	0.333	0.092
-294.691	-54.999	0.183	0.082
-293.676	50.930	-0.112	0.106
-292.662	495.558	0.011	0.026
-291.647	-200.000	0.024	0.185
-290.632	82.558	0.174	0.188
-289.618	800.000	0.051	0.214
-288.603	162.538	-0.091	-0.127
-287.589	-117.848	0.186	0.033
-286.574	-200.000	0.060	-0.380
-285.559	-200.000	0.036	0.213
-284.545	-18.100	-0.195	0.122
-283.530	800.000	-0.035	0.126
-282.516	-118.722	0.223	0.039
-281.501	-92.240	-0.143	-0.040
-280.486	-200.000	0.006	-0.103
-279.472	142.610	-0.089	0.117
-278.457	800.000	-0.029	0.119
-277.443	-200.000	0.003	-0.084
-276.428	800.000	0.104	-0.312
-275.413	84.925	-0.108	-0.118
-274.399	29.654	0.333	0.282
-273.384	-140.180	0.300	0.031
-272.370	-33.363	-0.093	0.051
-271.355	67.588	0.101	-0.103
-270.340	-175.867	-0.496	-0.013
-269.326	156.192	-0.154	-0.211
-268.311	-200.000	-0.026	-0.158
-267.297	154.710	-0.145	0.199
-266.282	-58.306	0.281	0.121
-265.267	-65.118	-0.189	0.076
-264.253	-200.000	-0.052	-0.395
-263.238	132.611	0.075	-0.097
-262.224	127.596	-0.115	0.145
-261.209	-132.124	-0.130	-0.017
-260.195	-111.674	0.432	-0.087
-259.180	338.127	0.097	0.188
-258.165	122.921	0.098	-0.122
-257.151	752.905	0.090	-0.241
-256.136	-185.523	0.198	0.003
-255.122	199.041	0.067	-0.102
-254.107	60.078	0.062	0.061
-253.092	9.805	0.086	-0.065
-252.078	-143.853	0.411	-0.039
-251.063	-200.000	-0.056	0.334
-250.049	-87.109	-0.136	-0.041
-249.034	36.173	-0.161	-0.141
-248.019	-127.472	-0.346	0.050
-247.005	-102.093	-0.159	-0.038
-245.990	-200.000	0.017	0.155
-244.976	234.610	-0.128	-0.209
-243.961	243.353	-0.014	0.023
-242.946	-80.255	-0.021	0.007
-241.932	-22.199	0.127	-0.077
-240.917	151.199	-0.045	-0.061
-239.903	-58.194	0.034	-0.015
-238.888	-21.749	0.070	-0.042
-237.873	-65.521	-0.221	-0.088
-236.859	800.000	0.028	0.108
-235.844	463.085	-0.155	0.343
-234.830	634.229	0.081	-0.204
-233.815	-200.000	-0.034	0.152
-232.800	207.428	0.119	0.184
-231.786	-200.000	0.011	0.049
-230.771	-37.549	0.388	-0.206
-229.757	-31.818	0.271	-0.151
-228.742	-1.270	-0.174	0.122
-227.727	-68.789	0.073	-0.028
-226.713	168.972	-0.114	-0.161
-225.698	-188.015	0.125	-0.002
-224.684	696.761	0.027	-0.070
-223.669	-72.356	-0.216	-0.079
-222.655	-93.517	0.234	-0.064
-221.640	0.137	0.076	-0.054
-220.625	-200.000	0.006	-0.251
-219.611	-138.224	0.291	-0.032
-218.596	160.698	-0.071	-0.098
-217.582	-200.000	0.046	0.228
-216.567	800.000	-0.044	-0.159
-215.552	71.775	-0.102	0.105
-214.538	800.000	0.022	-0.067
-213.523	-200.000	0.014	0.161
-212.509	-75.924	-0.162	0.057
-211.494	-44.069	0.091	-0.045
-210.479	-153.886	0.446	-0.030
-209.465	-200.000	0.007	0.146
-208.450	-16.936	-0.284	0.178
-207.436	230.293	0.052	-0.084
-206.421	142.030	0.058	0.076
-205.406	310.173	-0.056	0.105
-204.392	-200.000	-0.005	0.139
-203.377	-6.952	-0.241	0.162
-202.363	-200.000	0.003	-0.054
-201.348	48.175	0.279	-0.258
-200.333	670.237	0.100	0.257
-199.319	-200.000	0.006	0.086
-198.304	-200.000	0.036	0.349
-197.290	-118.796	0.144	0.025
-196.275	-200.000	-0.010	0.221
-195.260	67.411	-0.128	-0.130
-194.246	50.296	0.068	0.064
-193.231	800.000	-0.068	0.219
-192.217	-35.354	-0.223	-0.120
-191.202	-130.110	0.166	0.022
-190.187	-102.751	-0.465	-0.110
-189.173	197.759	-0.069	-0.105
-188.158	-85.576	0.281	-0.087
-187.144	-101.355	-0.214	0.052
-186.129	-42.989	-0.137	0.069
-185.114	-126.829	-0.089	-0.013
-184.100	19.592	0.282	0.225
-183.085	17.354	0.072	-0.056
-182.071	77.465	0.285	0.301
-181.056	-34.238	0.175	-0.095
-180.042	-22.189	-0.355	0.213
-179.027	-133.262	0.179	-0.022
-178.012	159.637	-0.163	0.225
-176.998	352.289	-0.086	-0.169
-175.983	-26.041	-0.211	0.123
-174.969	-200.000	-0.002	-0.167
-173.954	-152.407	0.167	0.012
-172.939	-56.667	0.050	0.022
-171.925	-200.000	-0.001	-0.322
-170.910	800.000	-0.043	0.163
-169.896	-146.860	0.117	0.010
-168.881	110.586	0.088	0.105
-167.866	-158.603	0.216	0.012
-166.852	59.303	0.136	0.133
-165.837	-200.000	0.014	-0.396
-164.823	105.270	0.201	-0.235
-163.808	-44.005	-0.213	0.106
-162.793	-115.609	-0.090	-0.017
-161.779	126.819	-0.175	0.219
-160.764	-112.210	0.209	-0.042
-159.750	-69.896	0.223	0.084
-158.735	-38.622	-0.065	0.034
-157.720	-101.809	0.127	0.030
-156.706	-200.000	0.033	0.334
-155.691	-200.000	0.029	0.321
-154.677	558.537	0.082	0.197
-153.662	57.992	-0.410	0.397
-152.647	-108.670	0.157	-0.033
-151.633	800.000	-0.089	-0.286
-150.618	-103.824	0.201	-0.047
-149.604	111.773	-0.185	0.221
-148.589	-132.682	-0.241	-0.031
-147.574	32.436	0.181	-0.155
-146.560	-200.000	0.033	0.156
-145.545	-61.018	-0.378	-0.158
-144.531	-31.349	-0.068	0.038
-143.516	-200.000	0.010	0.056
-142.502	-47.708	0.240	-0.115
-141.487	6.123	0.220	-0.161
-140.472	-140.152	-0.127	-0.013
-139.458	31.468	-0.076	-0.065
-138.443	-200.000	0.042	0.289
-137.429	121.507	-0.074	-0.092
-136.414	-28.034	0.178	-0.102
-135.399	-158.359	-0.243	0.014
-134.385	21.978	-0.279	0.225
-133.370	70.172	-0.057	0.058
-132.356	-200.000	-0.003	-0.148
-131.341	-63.892	0.360	-0.146
-130.326	-200.000	0.017	-0.272
-129.312	28.199	0.193	0.161
-128.297	-94.855	0.161	0.043
-127.283	-43.391	0.446	0.223
-126.268	381.114	-0.062	0.126
-125.253	800.000	0.023	0.078
-124.239	-91.892	0.179	0.050
-123.224	-14.178	0.064	0.041
-122.210	-47.394	0.024	0.012
-121.195	-80.834	-0.091	0.030
-120.180	-121.284	0.277	-0.046
-119.166	60.583	-0.164	0.160
-118.151	-200.000	-0.010	-0.171
-117.137	-200.000	-0.041	-0.231
-116.122	-109.721	-0.285	-0.059
-115.107	257.474	0.124	-0.211
-114.093	-120.174	-0.170	0.029
-113.078	-105.368	-0.148	-0.033
-112.064	800.000	0.080	0.321
-111.049	220.395	0.201	0.318
-110.034	654.128	0.028	0.070
-109.020	-200.000	-0.046	0.348
-108.005	237.395	-0.171	0.280
-106.991	27.911	0.278	0.232
-105.976	30.122	-0.274	-0.231
-104.962	775.494	-0.136	0.366
-103.947	-126.238	0.294	-0.043
-102.932	546.294	0.059	-0.139
-101.918	-135.066	0.126	-0.015
-100.903	-158.470	-0.358	-0.020
-99.889	-200.000	0.014	-0.147
-98.874	164.891	-0.113	0.158
-97.859	-74.404	-0.214	-0.076
-96.845	-7.344	0.282	-0.189
-95.830	-18.451	0.324	-0.200
-94.816	-153.398	-0.216	0.015
-93.801	-68.836	0.180	0.069
-92.786	-200.000	-0.007	0.162
-91.772	-200.000	0.004	-0.025
-90.757	-69.575	-0.083	-0.032
-89.743	-200.000	-0.000	-0.022
-88.728	145.266	0.037	-0.049
-87.713	-114.079	-0.303	0.058
-86.699	250.746	0.079	0.133
-85.684	-80.926	-0.157	-0.051
-84.670	220.446	0.064	-0.101
-83.655	-139.573	-0.159	0.017
-82.640	-200.000	-0.011	0.089
-81.626	-200.000	-0.345	-0.001
-80.611	-123.024	-0.238	-0.038
-79.597	-96.245	-0.113	-0.030
-78.582	-83.419	0.220	-0.070
-77.567	109.181	-0.073	-0.086
-76.553	205.910	0.240	0.368
-75.538	212.263	-0.076	-0.118
-74.524	-197.152	-0.192	0.001
-73.509	-161.855	0.075	0.004
-72.494	188.999	0.105	-0.155
-71.480	-157.191	-0.157	0.009
-70.465	286.047	-0.106	0.188
-69.451	-141.806	-0.161	0.016
-68.436	-66.295	0.343	-0.135
-67.422	39.543	-0.048	0.042
-66.407	-200.000	0.018	-0.202
-65.392	471.386	-0.068	0.152
-64.378	223.390	0.188	-0.299
-63.363	137.914	0.322	0.416
-62.349	-200.000	-0.012	0.140
-61.334	-0.653	-0.775	-0.542
-60.319	180.505	0.291	0.422
-59.305	800.000	-0.203	-0.600
-58.290	182.626	0.547	0.795
-57.276	800.000	0.466	1.447
-56.261	-200.000	97.191	572.687
-55.246	629.244	1402.720	3497.482
-54.232	185.517	2620.482	3838.067
-53.217	114.760	2312.514	2780.318
-52.203	43.762	1923.394	1736.197
-51.188	37.392	1710.428	1495.099
-50.173	34.649	1665.285	1434.999
-49.159	51.831	1713.042	1607.434
-48.144	55.044	1730.731	1648.423
-47.130	37.223	1687.171	1473.253
-46.115	34.237	1672.660	1438.019
-45.100	34.096	1667.424	1432.396
-44.086	34.081	1664.653	1429.845
-43.071	34.125	1661.787	1427.663
-42.057	34.082	1659.547	1425.355
-41.042	34.121	1657.188	1423.563
-40.027	34.105	1655.029	1421.533
-39.013	34.160	1653.287	1420.389
-37.998	34.009	1651.945	1418.058
-36.984	34.133	1650.440	1417.633
-35.969	34.251	1648.921	1417.147
-34.954	34.363	1647.117	1416.372
-33.940	34.189	1645.408	1413.555
-32.925	34.160	1643.786	1411.892
-31.911	34.173	1641.905	1410.315
-30.896	34.189	1640.087	1408.816
-29.881	34.170	1638.808	1407.521
-28.867	34.196	1637.095	1406.185
-27.852	34.311	1635.023	1405.204
-26.838	34.257	1633.961	1403.833
-25.823	34.288	1632.548	1402.794
-24.809	34.336	1631.222	1401.955
-23.794	34.241	1629.907	1400.066
-22.779	34.317	1627.684	1398.660
-21.765	34.277	1626.276	1397.103
-20.750	34.280	1624.990	1395.963
-19.736	34.270	1623.418	1394.481
-18.721	34.253	1622.133	1393.201
-17.706	34.230	1620.787	1391.825
-16.692	34.213	1618.843	1389.974
-15.677	34.251	1617.460	1389.011
-14.663	34.416	1615.920	1388.829
-13.648	34.254	1614.955	1386.769
-12.633	34.267	1613.517	1385.572
-11.619	34.294	1611.530	1384.008
-10.604	34.382	1609.708	1383.024
-9.590	34.277	1609.255	1381.823
-8.575	34.388	1607.388	1380.967
-7.560	34.340	1606.283	1379.616
-6.546	34.298	1605.191	1378.321
-5.531	34.331	1604.131	1377.591
-4.517	34.297	1602.797	1376.147
-3.502	34.316	1601.557	1375.166
-2.487	34.387	1599.915	1374.208
-1.473	34.148	1588.268	1362.442
-0.458	31.351	1568.704	1325.794
0.556	26.513	1568.393	1291.066
1.571	24.021	1592.298	1292.553
2.586	23.283	1605.953	1298.115
3.600	20.679	1553.234	1236.903
4.615	12.817	1444.431	1097.976
5.629	6.123	1380.994	1006.902
6.644	5.109	1372.515	994.173
7.659	5.074	1370.617	992.485
8.673	4.943	1369.510	990.766
9.688	4.964	1368.223	989.880
10.702	4.882	1365.115	987.025
11.717	8.062	1371.807	1011.996
12.731	15.502	1385.373	1069.466
13.746	19.552	1390.760	1099.366
14.761	18.613	1388.511	1091.521
15.775	17.592	1384.534	1081.819
16.790	16.390	1382.861	1072.784
17.804	15.574	1380.692	1065.832
18.819	15.231	1379.556	1062.685
19.834	14.931	1377.676	1059.248
20.848	14.695	1376.799	1056.982
21.863	14.475	1375.408	1054.434
22.877	14.390	1374.015	1052.732
23.892	14.226	1373.465	1051.185
24.907	14.235	1372.391	1050.323
25.921	14.310	1371.359	1049.918
26.936	14.379	1370.267	1049.419
27.950	14.414	1369.747	1049.150
28.965	14.472	1368.571	1048.520
29.980	14.633	1367.041	1048.269
30.994	14.662	1366.171	1047.689
32.009	14.578	1365.336	1046.428
33.023	14.653	1363.382	1045.309
34.038	14.473	1362.270	1043.238
35.053	14.477	1361.001	1042.200
36.067	14.426	1359.947	1040.982
37.082	14.440	1359.042	1040.286
38.096	14.528	1358.148	1040.060
39.111	14.502	1357.500	1039.306
40.126	14.467	1356.374	1038.135
41.140	14.284	1355.490	1036.229
42.155	14.218	1355.138	1035.458
43.169	14.242	1354.567	1035.075
44.184	14.279	1354.210	1034.942
45.199	14.228	1353.996	1034.370
46.213	14.205	1353.883	1034.051
47.228	14.438	1352.515	1034.359
48.242	14.410	1351.261	1033.137
49.257	14.453	1349.587	1032.028
50.271	14.388	1348.244	1030.512
51.286	14.345	1347.720	1029.750
52.301	14.428	1345.577	1028.537
53.315	14.351	1344.727	1027.320
54.330	14.347	1343.720	1026.433
55.344	14.276	1342.415	1024.914
56.359	14.315	1341.166	1024.104
57.374	14.198	1340.588	1022.859
58.388	14.185	1340.093	1022.310
59.403	14.173	1339.253	1021.505
60.417	14.164	1339.000	1021.161
61.432	14.152	1338.111	1020.321
62.447	14.184	1336.129	1018.915
63.461	14.122	1335.815	1018.210
64.476	14.004	1334.784	1016.613
65.490	14.124	1333.196	1016.043
66.505	14.062	1331.939	1014.617
67.520	14.049	1331.354	1014.002
68.534	14.145	1329.713	1013.247
69.549	14.186	1328.257	1012.297
70.563	14.212	1327.420	1011.726
71.578	14.133	1326.660	1010.583
72.593	14.102	1325.182	1009.179
73.607	14.017	1324.884	1008.345
74.622	14.044	1324.177	1007.883
75.636	13.994	1323.433	1006.921
76.651	13.953	1322.936	1006.208
77.666	14.107	1322.071	1006.391
78.680	14.034	1321.549	1005.464
79.695	14.137	1320.965	1005.552
80.709	14.158	1319.846	1004.743
81.724	14.251	1319.233	1004.745
82.739	14.342	1318.322	1004.513
83.753	14.387	1317.380	1003.978
84.768	14.303	1316.736	1002.891
85.782	14.486	1315.452	1002.925
86.797	14.452	1314.206	1001.685
87.812	14.332	1312.771	999.779
88.826	14.359	1311.584	998.951
89.841	14.428	1310.605	998.530
90.855	14.433	1310.042	998.041
91.870	14.472	1308.975	997.372
92.884	14.409	1308.025	996.185
93.899	14.487	1307.053	995.821
94.914	14.615	1306.181	995.830
95.928	14.544	1305.948	995.141
96.943	14.515	1305.002	994.159
97.957	14.450	1303.879	992.832
98.972	14.426	1303.109	992.014
99.987	14.466	1301.417	990.876
101.001	14.585	1300.735	990.978
102.016	14.501	1299.929	989.775
103.030	14.482	1299.056	988.913
104.045	14.466	1298.305	988.158
105.060	14.444	1296.951	986.910
106.074	14.255	1295.917	984.917
107.089	14.212	1294.114	983.206
108.103	14.177	1292.940	982.019
109.118	14.165	1291.974	981.125
110.133	14.125	1290.747	979.871
111.147	14.265	1288.665	979.033
112.162	14.290	1287.012	977.833
113.176	14.330	1286.107	977.294
114.191	14.281	1285.573	976.515
115.206	14.299	1284.397	975.641
116.220	14.386	1283.078	975.064
117.235	14.332	1282.215	974.003
118.249	14.295	1280.893	972.695
119.264	14.255	1279.856	971.592
120.279	14.176	1278.598	970.086
121.293	14.303	1277.434	969.861
122.308	14.243	1276.771	968.920
123.322	14.219	1275.650	967.845
124.337	14.114	1274.715	966.443
125.352	14.116	1273.544	965.478
126.366	14.188	1272.528	965.040
127.381	14.165	1271.481	964.027
128.395	14.108	1270.526	962.891
129.410	14.243	1269.590	962.878
130.424	14.191	1268.532	961.684
131.439	14.240	1267.613	961.188
132.454	14.286	1266.628	960.621
133.468	14.299	1265.751	959.944
134.483	14.250	1265.075	959.065
135.497	14.360	1263.834	958.674
136.512	14.290	1263.221	957.723
137.527	14.336	1261.384	956.509
138.541	14.248	1260.058	954.910
139.556	14.364	1258.760	954.507
140.570	14.460	1257.949	954.359
141.585	14.445	1257.009	953.475
142.600	14.492	1255.794	952.737
143.614	14.558	1254.794	952.274
144.629	14.622	1253.270	951.397
145.643	14.568	1252.786	950.637
146.658	14.477	1251.180	948.818
147.673	14.414	1249.991	947.473
148.687	14.425	1248.584	946.387
149.702	14.399	1247.471	945.310
150.716	14.366	1245.890	943.840
151.731	14.409	1244.832	943.203
152.746	14.322	1243.511	941.622
153.760	14.440	1242.381	941.349
154.775	14.435	1241.361	940.466
155.789	14.539	1240.368	940.216
156.804	14.446	1239.843	939.212
157.819	14.600	1238.161	938.725
158.833	14.615	1237.564	938.270
159.848	14.659	1236.600	937.704
160.862	14.671	1235.527	936.877
161.877	14.521	1234.447	935.130
162.892	14.465	1233.399	933.943
163.906	14.475	1232.754	933.427
164.921	14.491	1231.442	932.443
165.935	14.501	1230.829	931.949
166.950	14.542	1230.242	931.650
167.964	14.519	1229.301	930.728
168.979	14.576	1228.876	930.643
169.994	14.615	1228.081	930.174
171.008	14.568	1227.175	929.147
172.023	14.656	1226.357	928.935
173.037	14.679	1225.790	928.549
174.052	14.786	1224.774	928.293
175.067	14.732	1223.472	926.922
176.081	14.587	1222.652	925.415
177.096	14.600	1221.429	924.478
178.110	14.679	1220.258	923.948
179.125	14.660	1219.278	923.021
180.140	14.596	1218.059	921.660
181.154	14.582	1217.139	920.808
182.169	14.627	1215.948	920.072
183.183	14.717	1214.975	919.749
184.198	14.812	1213.713	919.238
185.213	14.887	1212.077	918.330
186.227	14.885	1211.209	917.581
187.242	15.011	1210.178	917.406
188.256	14.941	1209.703	916.584
189.271	14.961	1208.579	915.759
190.286	14.886	1207.305	914.303
191.300	14.588	1206.846	912.243
192.315	14.557	1205.920	911.295
193.329	14.576	1205.364	910.896
194.344	14.665	1204.852	910.916
195.359	14.652	1204.054	910.163
196.373	14.796	1203.862	910.723
197.388	14.916	1202.935	910.591
198.402	14.921	1202.856	910.479
199.417	15.105	1202.018	910.765
200.432	15.116	1201.440	910.307
201.446	15.058	1200.656	909.317
202.461	15.184	1199.767	909.246
203.475	15.259	1198.235	908.413
204.490	15.066	1197.028	906.370
205.504	15.108	1195.843	905.619
206.519	15.106	1194.467	904.488
207.534	15.006	1193.773	903.341
208.548	15.044	1192.699	902.657
209.563	15.011	1191.823	901.733
210.577	15.063	1191.091	901.380
211.592	15.091	1190.199	900.775
212.607	15.202	1189.274	900.593
213.621	15.151	1188.623	899.749
214.636	15.225	1187.376	899.123
215.650	15.185	1186.493	898.159
216.665	15.237	1185.513	897.618
217.680	15.367	1184.689	897.609
218.694	15.287	1184.508	896.962
219.709	15.351	1183.130	896.183
220.723	15.329	1182.402	895.436
221.738	15.374	1181.545	894.947
222.753	15.275	1181.220	894.092
223.767	15.346	1180.086	893.534
224.782	15.477	1179.682	893.844
225.796	15.486	1178.914	893.233
226.811	15.364	1178.535	892.219
227.826	15.435	1177.390	891.651
228.840	15.369	1177.248	891.110
229.855	15.366	1176.123	890.168
230.869	15.395	1175.329	889.641
231.884	15.349	1174.386	888.602
232.899	15.303	1173.917	887.928
233.913	15.237	1172.711	886.589
234.928	15.339	1172.327	886.760
235.942	15.235	1171.443	885.460
236.957	15.448	1170.461	885.765
237.972	15.333	1169.871	884.634
238.986	15.339	1169.192	884.072
240.001	15.343	1168.621	883.584
241.015	15.394	1167.735	883.105
242.030	15.378	1166.714	882.168
243.045	15.532	1166.164	882.483
244.059	15.430	1165.610	881.450
245.074	15.427	1165.032	880.923
246.088	15.508	1163.650	880.223
247.103	15.679	1162.749	880.361
248.117	15.703	1162.208	879.999
249.132	15.727	1161.469	879.485
250.147	15.787	1161.135	879.471
251.161	15.881	1160.251	879.211
252.176	15.953	1159.466	878.915
253.190	15.895	1159.012	878.191
254.205	15.994	1158.246	878.046
255.220	16.026	1158.015	877.960
256.234	15.959	1157.349	877.033
257.249	15.994	1156.617	876.578
258.263	16.022	1155.923	876.120
259.278	15.996	1155.179	875.347
260.293	15.891	1154.942	874.545
261.307	16.141	1153.975	875.033
262.322	16.073	1153.375	874.146
263.336	16.138	1152.565	873.791
264.351	16.115	1152.174	873.297
265.366	16.177	1151.771	873.235
266.380	16.127	1150.628	872.037
267.395	16.072	1150.062	871.245
268.409	16.123	1149.004	870.627
269.424	16.170	1148.267	870.237
270.439	15.998	1147.967	869.043
271.453	16.018	1146.833	868.214
272.468	16.055	1146.090	867.764
273.482	16.093	1145.165	867.184
274.497	15.961	1144.931	866.249
275.512	16.037	1143.769	865.685
276.526	16.190	1143.009	865.819
277.541	16.064	1142.478	864.691
278.555	16.179	1141.389	864.379
279.570	16.262	1140.768	864.260
280.585	16.228	1140.421	863.746
281.599	16.242	1139.630	863.144
282.614	16.236	1138.826	862.423
283.628	16.209	1137.272	861.033
284.643	16.173	1136.419	860.131
285.657	16.234	1135.834	859.919
286.672	16.260	1134.893	859.263
287.687	16.287	1133.642	858.377
288.701	16.351	1133.359	858.417
289.716	16.359	1132.077	857.408
290.730	16.323	1131.621	856.803
291.745	16.426	1130.852	856.670
292.760	16.398	1130.330	856.055
293.774	16.420	1129.675	855.595
294.789	16.470	1129.276	855.470
295.803	16.466	1128.579	854.845
296.818	16.463	1127.587	854.004
297.833	16.483	1126.954	853.549
298.847	16.368	1125.830	852.044
299.862	16.553	1125.173	852.400
300.876	16.541	1124.843	852.014
301.891	16.596	1123.948	851.542
302.906	16.517	1123.747	850.917
303.920	16.646	1122.947	850.881
304.935	16.647	1122.257	850.291
305.949	16.794	1121.657	850.496
306.964	16.739	1121.037	849.676
307.979	16.718	1120.219	848.873
308.993	16.749	1119.313	848.270
310.008	16.809	1118.657	847.998
311.022	16.764	1118.034	847.223
312.037	16.771	1116.743	846.208
313.052	16.794	1115.867	845.583
314.066	16.812	1114.896	844.865
315.081	16.644	1114.294	843.496
316.095	16.643	1113.488	842.804
317.110	16.609	1112.596	841.884
318.125	16.629	1112.403	841.765
319.139	16.635	1111.596	841.110
320.154	16.683	1110.893	840.743
321.168	16.669	1110.363	840.195
322.183	16.688	1109.849	839.828
323.197	16.742	1109.170	839.508
324.212	16.719	1108.395	838.729
325.227	16.776	1107.918	838.578
326.241	16.712	1107.309	837.729
327.256	16.778	1106.261	837.186
328.270	16.716	1105.653	836.346
329.285	16.673	1104.780	835.400
330.300	16.753	1103.561	834.798
331.314	16.658	1103.104	833.913
332.329	16.815	1101.885	833.685
333.343	16.836	1100.796	832.892
334.358	16.906	1100.125	832.653
335.373	16.822	1099.833	831.950
336.387	16.999	1098.661	831.856
337.402	16.984	1098.096	831.282
338.416	17.046	1097.116	830.770
339.431	17.069	1096.673	830.475
340.446	17.116	1096.021	830.136
341.460	17.077	1095.224	829.267
342.475	17.176	1094.258	828.948
343.489	17.224	1093.360	828.426
344.504	17.226	1092.894	828.009
345.519	17.151	1092.161	827.016
346.533	17.248	1091.222	826.706
347.548	17.273	1090.357	826.095
348.562	17.321	1089.393	825.524
349.577	17.231	1089.022	824.735
350.592	17.140	1088.549	823.864
351.606	17.055	1087.536	822.613
352.621	17.007	1086.808	821.756
353.635	17.059	1085.919	821.262
354.650	17.125	1085.354	821.080
355.665	17.189	1084.282	820.508
356.679	17.186	1083.924	820.150
357.694	17.322	1082.994	820.026
358.708	17.209	1082.628	819.132
359.723	17.340	1082.198	819.367
360.738	17.327	1081.096	818.400
361.752	17.256	1080.786	817.749
362.767	17.283	1080.505	817.595
363.781	17.279	1079.759	816.937
364.796	17.488	1078.770	817.120
365.810	17.526	1078.429	816.975
366.825	17.505	1077.825	816.343
367.840	17.517	1077.437	816.035
368.854	17.712	1076.616	816.274
369.869	17.678	1075.867	815.470
370.883	17.651	1075.110	814.693
371.898	17.557	1074.517	813.726
372.913	17.580	1073.633	813.092
373.927	17.566	1073.482	812.839
374.942	17.710	1072.746	812.900
375.956	17.579	1072.364	811.913
376.971	17.558	1072.013	811.476
377.986	17.588	1071.322	811.024
379.000	17.807	1070.400	811.296
380.015	17.760	1070.306	810.929
381.029	17.775	1069.288	810.155
382.044	17.852	1068.352	809.738
383.059	17.936	1067.970	809.778
384.073	17.796	1067.335	808.561
385.088	17.991	1065.883	808.314
386.102	17.929	1065.497	807.654
387.117	17.749	1064.442	805.932
388.132	17.614	1063.631	804.610
389.146	17.706	1062.626	804.214
390.161	17.671	1061.939	803.454
391.175	17.804	1060.875	803.207
392.190	17.804	1060.655	802.967
393.205	17.883	1059.917	802.712
394.219	17.849	1059.076	801.843
395.234	17.783	1058.465	801.002
396.248	17.833	1057.313	800.291
397.263	17.895	1055.861	799.413
398.278	17.746	1055.868	798.651
399.292	17.806	1054.841	798.080
400.307	17.668	1054.323	796.974
401.321	17.775	1053.763	796.980
402.336	17.858	1052.772	796.548
403.350	17.791	1052.235	795.757
404.365	17.883	1051.234	795.360
405.380	17.936	1050.521	794.996
406.394	18.042	1049.919	794.966
407.409	18.053	1049.318	794.488
408.423	18.175	1048.241	794.170
409.438	18.239	1048.155	794.333
410.453	18.214	1047.508	793.655
411.467	18.167	1046.564	792.652
412.482	18.291	1045.846	792.614
413.496	18.218	1045.285	791.778
414.511	18.200	1044.901	791.336
415.526	18.368	1044.515	791.748
416.540	18.334	1044.143	791.241
417.555	18.384	1043.399	790.835
418.569	18.276	1042.847	789.850
419.584	18.312	1042.114	789.392
420.599	18.346	1042.144	789.501
421.613	147.780	1400.434	1790.536
422.628	135.154	1452.637	1790.633
