DTS Sentinel unit serial number:	SN413079Multiplexer serial number:	ORYXHardware model number:	OX4-SRSoftware version number:	ORYX F/W v4.00 Oryx Data Collector v3.7.2.0data status	okinstallation	princeton_trtdifferential loss correction	single-endedforward channel	channel 2reverse channel	N/Adate	2019/09/12time	09:41:11forward acquisition time	60.00reverse acquisition time	0.00gamma	496.2192k internal	0.2315k external	0.2315temperature offset calibration	1.0066default loss term (dB/km)	0.3790temperature slope calibration	1.0000multiplexer offset coefficient	1.0000multiplexer slope coefficient	1.0000fibre end	0.00T internal ref (°C)	35.81T ext. ref 1 (°C)	1.83T ext. ref 2 (°C)	32.57length (m)	temperature (°C)	Stokes	anti-Stokes-747.200	-200.000	-0.041	-0.235
-746.185	-122.963	-0.065	0.011
-745.171	401.719	-0.039	0.082
-744.156	-200.000	-0.040	0.416
-743.142	375.898	-0.155	0.321
-742.127	-75.015	-0.126	-0.046
-741.112	-106.751	0.089	-0.020
-740.098	360.028	0.077	0.156
-739.083	-180.113	-0.344	-0.007
-738.069	484.832	-0.048	-0.110
-737.054	-77.338	-0.119	0.042
-736.039	-90.770	-0.107	-0.031
-735.025	304.669	-0.159	0.299
-734.010	-71.291	-0.166	0.063
-732.996	460.401	-0.200	-0.451
-731.981	800.000	-0.106	-0.373
-730.966	282.028	-0.122	0.222
-729.952	538.451	0.091	0.219
-728.937	-200.000	0.027	0.424
-727.923	-30.155	-0.124	0.071
-726.908	399.784	0.139	0.296
-725.894	164.176	0.057	-0.081
-724.879	-116.870	-0.189	0.035
-723.864	-54.374	-0.134	0.062
-722.850	-200.000	0.043	-0.206
-721.835	800.000	-0.098	-0.349
-720.821	-140.660	-0.383	-0.040
-719.806	16.733	-0.157	0.126
-718.791	-12.923	-0.262	-0.173
-717.777	228.072	0.204	0.337
-716.762	-144.126	-0.032	-0.003
-715.748	-107.880	-0.137	-0.030
-714.733	800.000	-0.078	-0.331
-713.718	-85.094	0.103	-0.033
-712.704	-200.000	0.042	0.213
-711.689	-200.000	0.031	0.154
-710.675	7.201	0.066	0.050
-709.660	-54.368	-0.398	0.183
-708.645	-140.940	-0.175	-0.018
-707.631	-152.455	0.241	0.017
-706.616	147.986	-0.252	-0.344
-705.602	-128.024	0.287	0.042
-704.587	208.544	0.205	-0.324
-703.572	800.000	0.017	-0.052
-702.558	328.478	-0.048	-0.092
-701.543	146.554	-0.164	-0.223
-700.529	267.457	0.199	-0.352
-699.514	374.448	-0.083	-0.171
-698.499	-33.214	0.294	0.165
-697.485	800.000	-0.049	0.184
-696.470	134.562	0.057	0.075
-695.456	-116.123	0.470	0.088
-694.441	-16.782	0.252	0.161
-693.426	153.489	-0.134	0.186
-692.412	-200.000	0.027	-0.171
-691.397	115.930	0.074	0.091
-690.383	102.419	0.033	0.039
-689.368	800.000	0.065	-0.246
-688.354	-112.632	-0.267	0.054
-687.339	356.236	-0.066	0.133
-686.324	39.843	-0.289	-0.262
-685.310	-132.812	0.401	0.052
-684.295	91.638	-0.064	-0.073
-683.281	-200.000	-0.024	0.310
-682.266	-36.097	-0.309	-0.169
-681.251	800.000	0.013	0.054
-680.237	127.617	-0.122	0.156
-679.222	-55.261	0.283	-0.128
-678.208	69.409	-0.210	-0.219
-677.193	555.958	-0.019	-0.047
-676.178	800.000	0.097	0.272
-675.164	800.000	-0.039	-0.133
-674.149	-116.735	0.019	0.003
-673.135	32.447	-0.243	-0.212
-672.120	22.078	-0.160	0.132
-671.105	-200.000	-0.011	0.321
-670.091	41.207	-0.125	-0.114
-669.076	264.651	0.093	0.164
-668.062	-200.000	-0.011	-0.294
-667.047	209.370	0.112	-0.177
-666.032	-200.000	0.005	-0.152
-665.018	292.100	0.192	0.353
-664.003	-94.503	-0.225	-0.062
-662.989	3.910	-0.230	0.170
-661.974	58.035	-0.191	-0.189
-660.959	-200.000	0.068	-0.394
-659.945	178.018	-0.081	-0.119
-658.930	-62.917	-0.247	0.103
-657.916	-200.000	0.042	0.597
-656.901	-70.383	-0.104	-0.040
-655.886	43.123	-0.149	-0.137
-654.872	335.821	-0.125	-0.244
-653.857	129.376	-0.141	0.182
-652.843	800.000	0.080	0.281
-651.828	-200.000	0.013	0.199
-650.814	14.045	-0.154	0.121
-649.799	2.911	-0.228	-0.167
-648.784	291.343	-0.071	-0.131
-647.770	134.307	-0.081	0.106
-646.755	79.332	0.175	0.189
-645.741	-26.063	-0.136	-0.081
-644.726	-200.000	0.048	-0.334
-643.711	105.234	0.132	-0.158
-642.697	-47.714	0.229	-0.112
-641.682	166.418	-0.142	0.204
-640.668	455.012	-0.097	0.217
-639.653	318.851	0.132	0.253
-638.638	-200.000	0.000	0.056
-637.624	-31.328	0.123	0.070
-636.609	-95.801	-0.066	-0.018
-635.595	296.888	-0.098	0.181
-634.580	374.364	-0.039	0.079
-633.565	438.387	0.167	0.367
-632.551	-94.983	-0.272	-0.074
-631.536	-32.013	-0.374	0.211
-630.522	43.080	0.156	-0.144
-629.507	-200.000	-0.124	0.611
-628.492	-50.051	-0.304	0.145
-627.478	-1.695	-0.175	-0.124
-626.463	163.341	0.034	-0.049
-625.449	-182.546	0.227	0.004
-624.434	4.373	-0.131	0.097
-623.419	-200.000	-0.086	0.425
-622.405	-200.000	-0.023	-0.142
-621.390	-16.072	0.162	0.104
-620.376	-129.414	-0.048	0.007
-619.361	-200.000	0.005	-0.108
-618.346	-136.810	-0.108	-0.012
-617.332	-200.000	-0.069	-0.345
-616.317	293.796	0.176	0.323
-615.303	-23.062	0.206	0.125
-614.288	800.000	-0.065	0.189
-613.273	59.422	-0.273	-0.271
-612.259	-14.736	0.263	0.170
-611.244	-200.000	0.026	-0.238
-610.230	-76.185	-0.235	-0.084
-609.215	70.540	0.123	-0.128
-608.201	52.393	-0.185	0.178
-607.186	170.740	-0.028	-0.040
-606.171	800.000	-0.045	-0.184
-605.157	74.213	0.091	0.096
-604.142	-67.535	0.251	-0.099
-603.128	800.000	-0.074	0.304
-602.113	-18.239	-0.106	-0.067
-601.098	90.324	0.035	-0.040
-600.084	32.442	-0.197	0.171
-599.069	-200.000	0.026	0.251
-598.055	-200.000	-0.017	-0.131
-597.040	-124.440	-0.272	0.043
-596.025	-168.689	-0.077	0.003
-595.011	256.729	-0.203	0.350
-593.996	-42.067	0.205	0.106
-592.982	-6.142	-0.034	0.024
-591.967	-111.588	0.091	-0.019
-590.952	-92.434	-0.196	0.055
-589.938	800.000	0.013	-0.055
-588.923	-132.912	-0.309	-0.040
-587.909	598.469	0.123	0.306
-586.894	193.846	0.059	0.090
-585.879	377.975	0.113	0.233
-584.865	-13.924	-0.158	0.103
-583.850	108.528	0.094	0.113
-582.836	275.759	-0.037	0.067
-581.821	-200.000	-0.020	-0.176
-580.806	-200.000	-0.029	-0.162
-579.792	-43.001	0.361	-0.184
-578.777	528.881	-0.106	-0.251
-577.763	-3.488	0.291	-0.204
-576.748	-200.000	0.338	0.001
-575.733	16.592	0.251	0.199
-574.719	-60.322	0.256	0.110
-573.704	-133.395	-0.072	0.009
-572.690	516.190	-0.101	-0.239
-571.675	-200.000	-0.007	0.083
-570.661	-1.749	-0.137	-0.097
-569.646	-36.004	0.253	-0.138
-568.631	419.062	0.066	0.142
-567.617	-106.139	0.132	0.030
-566.602	-105.984	-0.107	-0.024
-565.588	181.080	0.273	0.404
-564.573	800.000	0.088	-0.317
-563.558	-137.000	-0.423	-0.049
-562.544	-152.539	0.341	0.025
-561.529	-178.924	-0.018	0.000
-560.515	-171.128	-0.047	-0.002
-559.500	206.864	0.188	-0.295
-558.485	107.089	0.160	-0.192
-557.471	-139.366	-0.126	0.014
-556.456	-122.896	-0.147	0.024
-555.442	-200.000	-0.019	0.312
-554.427	17.298	-0.326	-0.260
-553.412	157.814	-0.265	-0.370
-552.398	272.505	-0.042	-0.075
-551.383	275.610	-0.117	0.210
-550.369	39.519	-0.186	-0.168
-549.354	69.575	0.149	0.155
-548.339	62.809	0.237	0.238
-547.325	312.862	0.184	-0.348
-546.310	-200.000	-0.013	-0.061
-545.296	312.284	-0.123	0.232
-544.281	83.962	-0.192	0.211
-543.266	230.752	-0.231	-0.380
-542.252	312.028	-0.111	0.209
-541.237	-28.396	-0.149	0.086
-540.223	-88.246	-0.249	-0.075
-539.208	752.315	-0.158	-0.430
-538.193	-54.219	-0.151	-0.069
-537.179	-25.467	-0.224	0.133
-536.164	-79.878	0.185	0.063
-535.150	-155.283	0.265	0.017
-534.135	227.999	0.066	0.109
-533.121	-200.000	-0.074	-0.358
-532.106	-92.803	-0.225	0.063
-531.091	556.112	-0.110	-0.265
-530.077	-200.000	-0.046	0.348
-529.062	-105.734	0.291	0.066
-528.048	-19.427	0.237	0.148
-527.033	-51.910	-0.145	0.068
-526.018	-43.875	0.134	0.068
-525.004	-140.574	0.160	-0.017
-523.989	-138.134	-0.152	0.017
-522.975	-200.000	0.008	0.131
-521.960	-190.412	-0.275	0.003
-520.945	95.926	0.139	0.160
-519.931	-85.852	0.166	-0.052
-518.916	-200.000	-0.042	-0.225
-517.902	220.004	-0.152	-0.245
-516.887	-65.267	-0.114	-0.046
-515.872	-32.709	-0.104	0.058
-514.858	-200.000	0.018	0.112
-513.843	-88.787	0.186	0.055
-512.829	138.126	0.112	0.147
-511.814	-200.000	-0.010	-0.153
-510.799	348.892	0.142	0.281
-509.785	57.863	-0.255	-0.250
-508.770	231.636	-0.117	0.192
-507.756	-55.033	0.207	-0.094
-506.741	350.045	0.143	-0.285
-505.726	800.000	0.055	0.215
-504.712	87.165	0.033	-0.037
-503.697	-96.910	-0.169	0.044
-502.683	21.743	-0.150	0.123
-501.668	-99.171	0.446	0.113
-500.653	-132.191	-0.361	-0.047
-499.639	-17.532	-0.113	0.071
-498.624	381.374	-0.118	0.243
-497.610	-200.000	-0.009	0.095
-496.595	-94.665	0.257	0.070
-495.581	-119.035	0.366	0.064
-494.566	-200.000	0.054	-0.256
-493.551	-14.438	-0.030	-0.020
-492.537	-200.000	0.040	0.217
-491.522	135.552	-0.172	0.224
-490.508	-82.948	-0.326	0.106
-489.493	-37.406	-0.119	0.064
-488.478	800.000	-0.113	0.418
-487.464	800.000	-0.047	0.192
-486.449	110.627	0.068	0.083
-485.435	800.000	-0.043	-0.154
-484.420	308.226	-0.124	-0.231
-483.405	759.530	-0.120	-0.326
-482.391	-200.000	-0.002	-0.170
-481.376	800.000	-0.080	-0.272
-480.362	364.866	-0.041	0.082
-479.347	16.478	0.144	-0.114
-478.332	-84.103	0.140	0.045
-477.318	409.882	0.134	0.285
-476.303	-85.368	-0.320	0.100
-475.289	-128.962	0.151	0.021
-474.274	278.924	-0.050	0.090
-473.259	48.627	0.076	-0.072
-472.245	-113.285	-0.181	-0.036
-471.230	-33.054	-0.082	-0.046
-470.216	265.729	0.087	0.152
-469.201	785.840	-0.090	-0.247
-468.186	-46.488	0.189	-0.093
-467.172	285.761	-0.044	0.079
-466.157	2.730	0.030	0.022
-465.143	-172.356	-0.229	0.007
-464.128	-185.441	-0.105	0.002
-463.113	171.526	-0.283	-0.407
-462.099	80.208	-0.327	-0.353
-461.084	97.978	0.153	-0.177
-460.070	261.405	-0.116	0.201
-459.055	-199.175	0.368	0.002
-458.040	142.933	-0.141	-0.187
-457.026	95.579	-0.037	0.042
-456.011	-200.000	-0.020	0.377
-454.997	-3.166	-0.130	0.091
-453.982	-200.000	0.005	0.144
-452.968	512.168	-0.201	-0.469
-451.953	-27.717	0.286	-0.166
-450.938	2.419	-0.383	-0.278
-449.924	89.418	0.338	-0.378
-448.909	120.456	0.051	-0.064
-447.895	-149.291	-0.202	0.016
-446.880	367.307	0.192	0.389
-445.865	-146.185	0.234	0.021
-444.851	-48.826	-0.193	0.093
-443.836	-200.000	0.068	-0.385
-442.822	73.040	0.111	0.116
-441.807	-200.000	-0.005	0.179
-440.792	-14.920	-0.110	0.070
-439.778	-200.000	0.026	0.375
-438.763	800.000	0.043	0.137
-437.749	800.000	-0.058	0.215
-436.734	800.000	-0.047	0.145
-435.719	-138.243	0.209	0.023
-434.705	103.475	-0.212	-0.250
-433.690	-49.980	0.169	-0.080
-432.676	15.760	0.259	0.204
-431.661	170.790	-0.033	-0.048
-430.646	-37.678	-0.163	-0.087
-429.632	-50.885	-0.253	-0.119
-428.617	242.481	0.233	-0.391
-427.603	-15.170	-0.101	0.065
-426.588	72.029	-0.165	-0.172
-425.573	-103.816	0.121	-0.028
-424.559	62.640	-0.076	-0.076
-423.544	-58.415	0.103	0.045
-422.530	800.000	0.135	0.448
-421.515	192.539	0.225	0.340
-420.500	637.559	0.018	-0.047
-419.486	77.090	0.213	-0.226
-418.471	-114.014	0.446	0.087
-417.457	93.626	-0.047	0.054
-416.442	50.373	0.095	-0.090
-415.428	-72.933	-0.090	0.033
-414.413	-34.332	0.225	-0.123
-413.398	698.657	0.125	0.329
-412.384	97.753	-0.154	-0.178
-411.369	-173.145	-0.088	-0.003
-410.355	-5.348	0.123	-0.085
-409.340	-82.160	0.269	-0.088
-408.325	-79.436	-0.317	0.107
-407.311	-29.460	0.078	0.045
-406.296	-100.158	0.141	0.035
-405.282	-200.000	0.003	-0.238
-404.267	160.852	-0.096	-0.133
-403.252	35.699	0.160	-0.140
-402.238	354.167	-0.057	-0.113
-401.223	13.156	0.077	-0.060
-400.209	-45.782	0.199	0.098
-399.194	-90.075	-0.100	-0.029
-398.179	-120.913	0.244	-0.041
-397.165	-74.703	0.413	0.149
-396.150	-200.000	-0.016	-0.444
-395.136	243.385	-0.079	0.133
-394.121	33.465	-0.029	0.026
-393.106	-80.885	-0.164	0.054
-392.092	-135.215	0.221	-0.027
-391.077	572.201	0.116	-0.281
-390.063	-118.057	0.153	-0.027
-389.048	60.437	0.152	0.151
-388.033	-200.000	-0.009	0.184
-387.019	-35.643	-0.131	0.071
-386.004	-63.131	-0.190	-0.078
-384.990	-42.043	0.411	-0.210
-383.975	631.416	-0.050	-0.127
-382.960	245.415	0.080	0.134
-381.946	-200.000	-0.020	-0.490
-380.931	-200.000	0.002	-0.090
-379.917	74.032	-0.116	0.122
-378.902	-43.023	-0.188	-0.095
-377.888	-111.986	0.192	-0.039
-376.873	-9.548	0.242	0.161
-375.858	219.756	0.149	0.238
-374.844	56.687	-0.231	-0.224
-373.829	-108.975	0.446	-0.095
-372.815	117.189	-0.138	-0.170
-371.800	34.932	-0.152	0.133
-370.785	19.516	-0.058	0.047
-369.771	395.886	0.113	0.236
-368.756	-200.000	-0.011	-0.071
-367.742	-81.356	0.198	0.065
-366.727	-166.246	-0.151	0.006
-365.712	372.858	-0.129	-0.263
-364.698	-17.025	-0.303	0.191
-363.683	-111.045	0.321	-0.066
-362.669	77.181	0.049	0.052
-361.654	-82.454	0.134	0.043
-360.639	-200.000	0.098	-0.547
-359.625	-122.316	0.479	-0.078
-358.610	114.218	0.222	-0.270
-357.596	-78.149	-0.294	0.101
-356.581	-32.832	-0.102	0.057
-355.566	-77.080	-0.169	0.059
-354.552	252.436	0.207	0.352
-353.537	-65.287	-0.026	-0.011
-352.523	-2.308	0.281	-0.197
-351.508	206.014	-0.084	-0.130
-350.493	800.000	-0.074	-0.313
-349.479	-39.993	0.177	-0.092
-348.464	800.000	0.039	0.131
-347.450	-200.000	0.015	-0.178
-346.435	-94.412	-0.192	0.052
-345.420	-86.314	-0.100	-0.031
-344.406	-125.974	0.340	0.051
-343.391	587.613	0.082	-0.201
-342.377	167.939	0.164	-0.233
-341.362	338.524	-0.022	0.043
-340.348	9.560	-0.394	0.298
-339.333	-14.268	-0.189	-0.121
-338.318	-18.837	-0.230	0.143
-337.304	543.458	0.047	-0.111
-336.289	-128.109	-0.140	0.020
-335.275	800.000	0.012	-0.049
-334.260	-200.000	0.024	-0.432
-333.245	-103.381	-0.050	0.012
-332.231	738.690	-0.055	-0.148
-331.216	224.376	0.054	0.087
-330.202	212.511	0.102	-0.161
-329.187	67.099	0.138	-0.141
-328.172	-151.195	-0.205	-0.015
-327.158	-200.000	0.033	-0.224
-326.143	8.156	0.257	0.192
-325.129	132.463	-0.158	-0.203
-324.114	170.157	-0.053	0.076
-323.099	690.430	-0.074	0.193
-322.085	37.544	-0.123	-0.109
-321.070	800.000	-0.054	-0.177
-320.056	37.298	0.162	0.144
-319.041	43.191	0.291	-0.265
-318.026	577.979	0.163	0.398
-317.012	-75.280	0.185	0.066
-315.997	-157.810	-0.166	-0.010
-314.983	800.000	-0.025	-0.080
-313.968	4.635	-0.399	-0.292
-312.953	-200.000	0.001	-0.068
-311.939	40.832	-0.179	-0.161
-310.924	-60.532	0.135	0.057
-309.910	-200.000	-0.004	0.021
-308.895	-200.000	0.075	0.364
-307.880	800.000	0.028	-0.122
-306.866	92.716	0.094	-0.106
-305.851	-110.499	0.152	0.031
-304.837	315.833	-0.091	0.171
-303.822	-200.000	-0.024	0.196
-302.807	52.404	-0.159	0.152
-301.793	800.000	-0.064	-0.205
-300.778	25.073	-0.164	-0.136
-299.764	-180.023	-0.008	-0.000
-298.749	-53.746	-0.340	-0.155
-297.735	198.738	0.194	-0.295
-296.720	-85.094	0.500	0.156
-295.705	-200.000	-0.018	0.161
-294.691	605.658	0.089	0.221
-293.676	3.176	-0.352	0.255
-292.662	-120.658	0.126	0.021
-291.647	-67.809	0.156	-0.061
-290.632	-200.000	-0.029	0.214
-289.618	646.780	0.012	0.031
-288.603	198.967	0.014	-0.022
-287.589	-200.000	-0.012	-0.253
-286.574	-200.000	0.006	-0.057
-285.559	52.998	0.205	-0.195
-284.545	-152.033	0.122	-0.009
-283.530	21.367	0.157	-0.127
-282.516	-141.603	0.258	0.026
-281.501	800.000	-0.093	-0.277
-280.486	-137.731	-0.113	0.013
-279.472	677.370	0.046	0.119
-278.457	-200.000	-0.029	0.431
-277.443	-27.954	-0.219	0.126
-276.428	800.000	0.022	-0.082
-275.413	629.789	-0.064	0.161
-274.399	-31.917	0.118	-0.066
-273.384	-99.928	0.249	-0.062
-272.370	-200.000	-0.043	0.401
-271.355	-88.554	0.133	0.039
-270.340	-73.898	-0.026	0.009
-269.326	14.486	-0.020	0.016
-268.311	-200.000	0.006	0.167
-267.297	187.366	0.100	-0.148
-266.282	-200.000	-0.037	-0.265
-265.267	127.596	-0.148	-0.186
-264.253	-200.000	-0.030	0.318
-263.238	-124.192	0.168	0.026
-262.224	800.000	0.084	0.273
-261.209	-200.000	-0.028	0.230
-260.195	61.199	0.124	0.123
-259.180	-61.488	-0.254	0.106
-258.165	3.026	-0.238	-0.172
-257.151	-200.000	0.014	0.101
-256.136	-52.980	-0.122	0.056
-255.122	-12.877	-0.028	0.018
-254.107	9.436	0.143	0.108
-253.092	-36.663	-0.240	-0.128
-252.078	-46.451	-0.148	0.072
-251.063	-118.337	0.247	0.044
-250.049	-23.922	0.092	0.055
-249.034	-43.614	-0.112	-0.056
-248.019	220.077	-0.103	-0.164
-247.005	-76.610	-0.383	-0.134
-245.990	89.955	-0.155	-0.172
-244.976	426.446	0.071	-0.151
-243.961	55.792	-0.230	-0.221
-242.946	-200.000	0.022	0.109
-241.932	365.104	0.088	-0.175
-240.917	-101.384	0.143	-0.035
-239.903	-8.468	-0.009	-0.006
-238.888	800.000	-0.089	-0.263
-237.873	-74.093	0.109	0.039
-236.859	169.966	-0.088	0.125
-235.844	0.600	-0.170	-0.120
-234.830	-200.000	-0.036	-0.171
-233.815	364.833	-0.100	-0.199
-232.800	-0.269	0.187	-0.132
-231.786	-117.682	-0.060	-0.011
-230.771	-136.265	-0.306	-0.036
-229.757	568.743	-0.139	-0.337
-228.742	-92.304	-0.330	-0.092
-227.727	800.000	-0.012	0.037
-226.713	593.109	-0.170	0.418
-225.698	-98.854	-0.172	-0.043
-224.684	793.712	0.100	0.274
-223.669	329.470	0.086	-0.165
-222.655	28.517	0.154	-0.130
-221.640	173.546	-0.179	0.257
-220.625	-200.000	0.015	-0.251
-219.611	19.724	-0.252	-0.201
-218.596	-200.000	0.024	0.283
-217.582	800.000	-0.037	-0.117
-216.567	333.256	-0.048	-0.093
-215.552	-111.279	-0.233	-0.047
-214.538	74.452	-0.087	0.091
-213.523	725.665	0.089	0.236
-212.509	-64.355	-0.185	-0.075
-211.494	-200.000	-0.016	-0.211
-210.479	-158.316	0.113	0.007
-209.465	-53.317	0.254	-0.116
-208.450	-42.368	0.265	0.134
-207.436	21.125	-0.093	-0.075
-206.421	-140.324	0.132	-0.014
-205.406	-102.356	-0.201	0.048
-204.392	800.000	0.025	0.083
-203.377	51.329	-0.163	-0.154
-202.363	-99.655	0.396	0.099
-201.348	-97.847	-0.418	0.107
-200.333	83.450	-0.071	0.076
-199.319	92.454	0.126	0.141
-198.304	-194.953	0.179	-0.001
-197.290	-162.442	0.144	-0.007
-196.275	458.615	0.070	0.155
-195.260	-30.158	-0.350	0.197
-194.246	48.563	-0.169	0.157
-193.231	-84.240	0.071	-0.022
-192.217	-99.338	-0.282	0.071
-191.202	-105.043	0.311	0.071
-190.187	-113.238	-0.203	0.040
-189.173	53.397	-0.109	0.104
-188.158	800.000	-0.094	-0.323
-187.144	133.887	0.149	-0.191
-186.129	800.000	-0.100	0.296
-185.114	522.570	0.158	0.367
-184.100	193.660	0.069	0.103
-183.085	327.448	0.037	-0.070
-182.071	55.738	0.100	-0.097
-181.056	-200.000	-0.004	0.031
-180.042	-149.361	0.307	-0.024
-179.027	74.745	0.157	0.164
-178.012	-46.450	-0.248	0.121
-176.998	176.520	0.196	-0.283
-175.983	-92.780	-0.314	-0.087
-174.969	-200.000	0.048	-0.213
-173.954	62.569	-0.095	-0.094
-172.939	97.264	-0.127	0.145
-171.925	-87.213	0.022	-0.007
-170.910	159.454	0.168	0.232
-169.896	800.000	0.048	0.194
-168.881	-115.288	0.432	0.081
-167.866	800.000	0.042	0.140
-166.852	131.890	0.217	-0.277
-165.837	121.171	-0.094	0.116
-164.823	-61.083	0.218	0.091
-163.808	621.801	-0.056	-0.141
-162.793	27.059	-0.260	0.216
-161.779	-166.126	0.592	0.025
-160.764	196.453	0.127	0.192
-159.750	167.543	-0.139	-0.196
-158.735	-200.000	-0.014	-0.087
-157.720	461.438	-0.097	-0.213
-156.706	-200.000	0.020	0.136
-155.691	-34.290	-0.275	0.150
-154.677	-105.851	0.163	0.036
-153.662	-200.000	0.028	-0.365
-152.647	495.707	-0.048	0.110
-151.633	516.485	0.106	0.245
-150.618	-52.113	0.112	-0.052
-149.604	277.554	0.023	0.040
-148.589	-32.633	-0.255	0.141
-147.574	-25.136	0.023	-0.013
-146.560	-176.644	0.259	0.007
-145.545	-24.448	-0.023	0.013
-144.531	-200.000	0.066	0.292
-143.516	-200.000	-0.034	-0.182
-142.502	76.812	0.296	0.311
-141.487	-200.000	-0.028	0.354
-140.472	-149.318	-0.279	0.022
-139.458	416.564	-0.016	0.034
-138.443	-64.607	0.121	0.049
-137.429	-96.159	0.079	-0.021
-136.414	-55.274	-0.149	-0.066
-135.399	660.155	0.161	-0.410
-134.385	17.434	0.101	0.080
-133.370	109.183	-0.149	0.176
-132.356	280.288	0.134	0.237
-131.341	93.279	0.165	0.184
-130.326	-200.000	0.026	-0.141
-129.312	125.558	-0.152	0.190
-128.297	-200.000	0.032	-0.166
-127.283	289.959	0.043	0.078
-126.268	-102.163	-0.146	0.035
-125.253	-24.279	-0.199	0.117
-124.239	27.951	-0.238	0.198
-123.224	-200.000	0.012	-0.254
-122.210	-15.628	-0.208	0.131
-121.195	48.923	-0.235	0.218
-120.180	-200.000	0.033	0.338
-119.166	-185.629	0.320	-0.005
-118.151	800.000	0.058	-0.223
-117.137	800.000	-0.112	0.310
-116.122	156.069	0.088	-0.120
-115.107	800.000	-0.099	-0.297
-114.093	71.371	0.166	-0.170
-113.078	151.121	-0.094	-0.126
-112.064	145.862	-0.025	0.033
-111.049	149.549	-0.172	0.230
-110.034	-200.000	-0.025	-0.168
-109.020	-56.826	0.111	0.048
-108.005	44.288	0.223	0.202
-106.991	235.166	0.075	-0.122
-105.976	800.000	0.075	-0.240
-104.962	-63.581	0.070	-0.028
-103.947	-52.082	-0.033	-0.015
-102.932	-33.659	-0.097	0.053
-101.918	390.274	0.118	-0.243
-100.903	-168.568	0.200	0.008
-99.889	12.817	0.317	0.242
-98.874	-133.212	-0.094	0.012
-97.859	-200.000	-0.042	0.307
-96.845	-62.359	-0.223	-0.092
-95.830	-200.000	0.013	-0.174
-94.816	14.371	-0.161	-0.124
-93.801	-65.906	0.173	-0.068
-92.786	-200.000	-0.054	-0.300
-91.772	-10.292	-0.127	0.083
-90.757	9.355	0.299	0.223
-89.743	-42.851	0.198	-0.099
-88.728	-200.000	0.026	-0.163
-87.713	-52.958	0.395	0.179
-86.699	-22.871	-0.246	0.147
-85.684	657.765	0.086	0.219
-84.670	190.123	-0.037	-0.054
-83.655	204.371	0.147	0.225
-82.640	-10.134	0.169	-0.111
-81.626	620.793	0.166	-0.411
-80.611	73.140	0.202	0.209
-79.597	8.870	0.069	-0.051
-78.582	246.198	-0.056	-0.093
-77.567	17.196	0.203	-0.159
-76.553	-107.951	-0.132	-0.028
-75.538	122.770	-0.066	0.081
-74.524	-11.075	-0.135	0.088
-73.509	-161.001	-0.141	0.007
-72.494	-103.942	-0.186	-0.043
-71.480	-33.531	0.351	0.191
-70.465	342.090	0.103	-0.199
-69.451	-200.000	-0.001	-0.091
-68.436	82.950	0.134	0.144
-67.422	-200.000	-0.021	0.158
-66.407	229.296	-0.136	0.219
-65.392	-114.294	0.292	0.056
-64.378	50.525	0.071	0.066
-63.363	484.345	-0.130	0.292
-62.349	194.377	-0.184	0.276
-61.334	43.513	-0.961	-0.867
-60.319	8.417	0.316	0.235
-59.305	448.264	-0.406	-0.881
-58.290	148.403	0.354	0.472
-57.276	800.000	0.537	1.505
-56.261	-200.000	90.807	528.213
-55.246	501.487	1384.745	3154.223
-54.232	149.761	2603.310	3480.619
-53.217	107.195	2323.588	2724.231
-52.203	45.055	1935.030	1758.355
-51.188	38.976	1721.148	1517.156
-50.173	36.343	1675.652	1457.151
-49.159	52.273	1721.536	1619.222
-48.144	55.718	1740.390	1663.243
-47.130	38.867	1698.097	1495.771
-46.115	35.862	1682.782	1459.474
-45.100	35.680	1677.645	1453.580
-44.086	35.693	1675.163	1451.475
-43.071	35.635	1672.786	1448.918
-42.057	35.614	1670.574	1446.785
-41.042	35.625	1668.513	1445.028
-40.027	35.591	1666.613	1443.068
-39.013	35.653	1664.602	1441.732
-37.998	35.556	1663.393	1439.900
-36.984	35.699	1661.671	1439.426
-35.969	35.749	1660.608	1438.825
-34.954	35.898	1658.409	1437.970
-33.940	35.707	1657.543	1435.738
-32.925	35.756	1655.040	1433.877
-31.911	35.765	1653.937	1432.937
-30.896	35.751	1651.330	1430.517
-29.881	35.828	1650.121	1429.986
-28.867	35.830	1647.813	1427.943
-27.852	35.814	1646.992	1427.057
-26.838	35.902	1645.135	1426.042
-25.823	35.926	1643.573	1424.809
-24.809	35.800	1642.834	1423.177
-23.794	35.790	1640.842	1421.321
-22.779	35.987	1638.864	1421.004
-21.765	35.856	1637.614	1418.900
-20.750	35.853	1636.065	1417.478
-19.736	35.795	1635.128	1416.187
-18.721	35.831	1633.610	1415.075
-17.706	35.832	1631.528	1413.228
-16.692	35.789	1630.289	1411.785
-15.677	35.896	1628.433	1410.901
-14.663	35.853	1627.376	1409.613
-13.648	35.854	1626.444	1408.758
-12.633	35.821	1624.725	1406.974
-11.619	35.880	1622.960	1405.823
-10.604	35.844	1621.225	1404.001
-9.590	35.824	1620.287	1402.988
-8.575	35.851	1619.215	1402.198
-7.560	35.918	1617.175	1400.860
-6.546	35.853	1616.537	1399.786
-5.531	35.912	1615.324	1399.103
-4.517	35.888	1614.217	1397.918
-3.502	35.818	1613.437	1396.681
-2.487	35.936	1611.591	1395.882
-1.473	35.851	1600.335	1385.460
-0.458	33.450	1580.943	1351.515
0.556	30.031	1581.570	1320.865
1.571	27.814	1606.488	1325.475
2.586	27.175	1620.931	1332.589
3.600	23.500	1565.626	1260.935
4.615	12.684	1448.883	1095.244
5.629	3.503	1379.312	984.193
6.644	1.968	1370.184	967.861
7.659	1.855	1368.828	966.101
8.673	1.747	1367.868	964.650
9.688	1.730	1365.682	962.916
10.702	1.474	1362.951	959.290
11.717	5.128	1370.320	987.546
12.731	15.900	1390.756	1071.047
13.746	24.465	1405.639	1137.234
14.761	26.298	1407.372	1150.214
15.775	26.592	1407.858	1152.380
16.790	26.668	1407.152	1152.183
17.804	26.810	1406.124	1152.140
18.819	26.965	1406.187	1153.077
19.834	27.013	1405.596	1152.796
20.848	27.036	1404.850	1152.227
21.863	27.150	1403.694	1151.899
22.877	27.014	1402.857	1150.251
23.892	27.023	1402.410	1149.838
24.907	27.063	1401.460	1149.209
25.921	27.042	1400.126	1147.883
26.936	27.062	1399.162	1147.118
27.950	27.121	1398.066	1146.487
28.965	27.102	1396.979	1145.379
29.980	27.004	1396.227	1144.044
30.994	27.075	1394.367	1142.862
32.009	26.976	1393.525	1141.447
33.023	27.142	1392.382	1141.455
34.038	27.015	1391.553	1139.877
35.053	27.039	1390.278	1138.882
36.067	27.054	1389.656	1138.366
37.082	27.018	1388.769	1137.316
38.096	26.960	1387.728	1135.994
39.111	26.922	1386.989	1135.051
40.126	27.082	1386.178	1135.287
41.140	27.065	1385.576	1134.591
42.155	27.015	1385.472	1134.090
43.169	27.066	1385.548	1134.370
44.184	26.977	1385.283	1133.501
45.199	27.007	1384.639	1133.059
46.213	26.933	1384.254	1132.183
47.228	26.938	1383.236	1131.279
48.242	27.010	1382.196	1130.778
49.257	27.046	1380.458	1129.484
50.271	27.091	1378.967	1128.440
51.286	27.048	1377.845	1127.155
52.301	27.066	1376.774	1126.294
53.315	26.990	1375.722	1124.860
54.330	27.063	1374.691	1124.367
55.344	27.091	1373.231	1123.246
56.359	27.003	1372.891	1122.326
57.374	26.986	1371.954	1121.356
58.388	26.947	1371.542	1120.680
59.403	26.926	1371.599	1120.499
60.417	26.950	1370.564	1119.703
61.432	26.941	1369.351	1118.558
62.447	27.084	1368.326	1118.502
63.461	26.933	1367.537	1116.826
64.476	26.974	1366.636	1116.243
65.490	26.974	1365.000	1114.810
66.505	27.025	1363.846	1114.081
67.520	27.094	1362.468	1113.280
68.534	26.999	1361.385	1111.718
69.549	27.041	1360.806	1111.401
70.563	27.132	1359.376	1110.691
71.578	27.036	1358.641	1109.407
72.593	27.034	1357.921	1108.708
73.607	26.990	1357.428	1107.941
74.622	27.051	1356.544	1107.491
75.636	27.095	1355.785	1107.040
76.651	27.015	1354.984	1105.802
77.666	26.946	1355.297	1105.540
78.680	27.026	1354.347	1105.154
79.695	27.032	1353.511	1104.408
80.709	27.014	1352.421	1103.313
81.724	27.020	1351.702	1102.667
82.739	27.032	1350.624	1101.763
83.753	26.965	1349.816	1100.598
84.768	27.004	1348.671	1099.803
85.782	26.940	1347.762	1098.579
86.797	27.049	1346.473	1098.088
87.812	26.977	1345.672	1096.905
88.826	27.091	1344.058	1096.178
89.841	27.042	1343.432	1095.273
90.855	27.138	1342.116	1094.684
91.870	27.079	1341.455	1093.693
92.884	27.215	1340.277	1093.451
93.899	27.004	1339.881	1091.768
94.914	27.042	1339.444	1091.539
95.928	26.971	1338.566	1090.306
96.943	27.055	1337.245	1089.637
97.957	27.029	1336.699	1088.939
98.972	27.066	1335.629	1088.190
99.987	27.104	1334.851	1087.689
101.001	27.065	1333.897	1086.580
102.016	27.073	1332.700	1085.559
103.030	27.038	1332.475	1085.071
104.045	27.156	1331.572	1084.941
105.060	26.987	1330.715	1083.140
106.074	27.164	1329.149	1082.822
107.089	27.167	1328.497	1082.217
108.103	27.099	1327.078	1080.560
109.118	27.200	1325.729	1079.966
110.133	27.189	1324.837	1079.075
111.147	27.113	1324.301	1078.095
112.162	27.171	1322.454	1076.838
113.176	27.208	1321.726	1076.368
114.191	27.088	1321.432	1075.325
115.206	27.104	1320.560	1074.613
116.220	27.069	1319.109	1073.131
117.235	27.031	1318.244	1072.107
118.249	27.199	1317.333	1072.266
119.264	27.132	1316.904	1071.428
120.279	27.130	1315.795	1070.416
121.293	27.176	1314.954	1069.910
122.308	27.258	1314.073	1069.581
123.322	27.151	1313.189	1068.138
124.337	27.173	1312.988	1068.006
125.352	27.219	1311.535	1067.000
126.366	27.232	1310.887	1066.456
127.381	27.121	1310.328	1065.256
128.395	27.218	1309.173	1064.792
129.410	27.223	1308.193	1063.931
130.424	27.146	1307.475	1062.799
131.439	27.171	1307.253	1062.674
132.454	27.152	1306.238	1061.645
133.468	27.191	1305.574	1061.239
134.483	27.118	1305.025	1060.272
135.497	27.114	1304.317	1059.580
136.512	27.142	1303.103	1058.659
137.527	27.136	1301.586	1057.298
138.541	27.102	1300.799	1056.367
139.556	27.197	1299.154	1055.494
140.570	27.112	1298.407	1054.298
141.585	27.236	1296.974	1053.758
142.600	27.144	1296.038	1052.375
143.614	27.177	1295.587	1052.107
144.629	27.047	1294.532	1050.405
145.643	27.034	1293.232	1049.183
146.658	27.113	1292.200	1048.706
147.673	27.073	1291.524	1047.832
148.687	27.051	1290.429	1046.728
149.702	27.136	1289.090	1046.038
150.716	27.129	1288.054	1045.066
151.731	27.121	1287.130	1044.178
152.746	27.123	1286.110	1043.269
153.760	27.226	1284.962	1042.837
154.775	27.323	1284.052	1042.558
155.789	27.166	1283.053	1040.759
156.804	27.136	1282.337	1039.914
157.819	27.183	1281.497	1039.407
158.833	27.081	1280.895	1038.247
159.848	27.287	1280.102	1038.686
160.862	27.244	1279.343	1037.733
161.877	27.197	1278.454	1036.655
162.892	27.289	1277.534	1036.339
163.906	27.297	1277.071	1035.918
164.921	27.354	1276.386	1035.592
165.935	27.325	1275.529	1034.641
166.950	27.287	1274.881	1033.811
167.964	27.359	1273.973	1033.392
168.979	27.319	1273.729	1032.873
169.994	27.202	1273.227	1031.710
171.008	27.289	1272.505	1031.531
172.023	27.211	1272.038	1030.617
173.037	27.296	1271.181	1030.311
174.052	27.365	1269.819	1029.510
175.067	27.433	1269.508	1029.550
176.081	27.309	1268.619	1028.035
177.096	27.339	1267.807	1027.459
178.110	27.318	1267.364	1026.888
179.125	27.312	1265.839	1025.526
180.140	27.428	1264.674	1025.144
181.154	27.279	1263.966	1023.644
182.169	27.389	1262.468	1022.960
183.183	27.277	1262.027	1021.881
184.198	27.263	1261.161	1021.011
185.213	27.357	1259.880	1020.409
186.227	27.393	1258.865	1019.701
187.242	27.357	1258.471	1019.089
188.256	27.421	1257.114	1018.259
189.271	27.447	1256.337	1017.682
190.286	27.345	1255.862	1016.642
191.300	27.283	1255.403	1015.833
192.315	27.459	1254.488	1015.984
193.329	27.363	1254.262	1015.172
194.344	27.389	1253.824	1014.873
195.359	27.366	1253.379	1014.299
196.373	27.417	1252.464	1013.750
197.388	27.307	1252.209	1012.841
198.402	27.282	1251.942	1012.399
199.417	27.339	1251.550	1012.310
200.432	27.385	1250.987	1012.021
201.446	27.365	1250.368	1011.319
202.461	27.450	1249.035	1010.624
203.475	27.484	1248.183	1010.032
204.490	27.402	1247.211	1008.704
205.504	27.550	1246.426	1008.798
206.519	27.541	1245.521	1007.923
207.534	27.527	1244.749	1007.132
208.548	27.446	1243.956	1005.953
209.563	27.424	1243.671	1005.517
210.577	27.438	1242.474	1004.537
211.592	27.550	1241.200	1004.036
212.607	27.567	1240.589	1003.545
213.621	27.611	1240.040	1003.251
214.636	27.550	1239.185	1002.139
215.650	27.520	1238.443	1001.281
216.665	27.441	1237.819	1000.256
217.680	27.542	1236.684	999.803
218.694	27.552	1235.750	999.015
219.709	27.428	1235.482	998.031
220.723	27.531	1234.289	997.541
221.738	27.499	1233.842	996.916
222.753	27.439	1233.151	995.942
223.767	27.547	1232.281	995.742
224.782	27.536	1231.968	995.343
225.796	27.576	1231.119	994.788
226.811	27.637	1230.633	994.638
227.826	27.592	1229.932	993.742
228.840	27.567	1229.831	993.432
229.855	27.595	1228.862	992.716
230.869	27.667	1228.126	992.424
231.884	27.590	1227.422	991.347
232.899	27.608	1226.857	990.900
233.913	27.650	1226.275	990.575
234.928	27.607	1225.532	989.653
235.942	27.679	1225.110	989.614
236.957	27.671	1224.274	988.807
237.972	27.659	1223.660	988.157
238.986	27.705	1222.826	987.647
240.001	27.659	1222.690	987.199
241.015	27.805	1221.427	986.885
242.030	27.778	1220.953	986.267
243.045	27.824	1220.022	985.678
244.059	27.803	1219.408	984.981
245.074	27.798	1218.688	984.282
246.088	27.764	1217.814	983.307
247.103	27.963	1216.573	983.288
248.117	27.682	1216.480	981.614
249.132	27.772	1215.612	981.313
250.147	27.898	1214.516	981.016
251.161	27.928	1213.697	980.430
252.176	27.929	1213.011	979.797
253.190	27.869	1212.608	979.059
254.205	27.816	1212.270	978.419
255.220	27.722	1211.863	977.500
256.234	27.901	1210.915	977.607
257.249	27.985	1210.454	977.595
258.263	27.851	1210.096	976.503
259.278	27.876	1209.263	975.880
260.293	27.874	1209.100	975.648
261.307	27.915	1207.975	974.876
262.322	27.834	1207.899	974.295
263.336	27.867	1207.049	973.697
264.351	27.838	1206.238	972.803
265.366	27.924	1205.504	972.582
266.380	27.863	1205.117	971.859
267.395	27.936	1204.463	971.636
268.409	27.844	1203.898	970.606
269.424	27.973	1202.995	970.476
270.439	27.913	1202.695	969.828
271.453	27.915	1202.133	969.301
272.468	27.949	1201.088	968.553
273.482	27.960	1200.053	967.694
274.497	28.081	1199.551	967.842
275.512	28.109	1199.138	967.572
276.526	28.037	1198.748	966.787
277.541	28.096	1197.866	966.303
278.555	27.999	1197.691	965.563
279.570	28.059	1196.641	964.951
280.585	28.064	1195.883	964.281
281.599	28.143	1194.837	963.765
282.614	28.093	1194.020	962.757
283.628	28.026	1193.225	961.681
284.643	28.017	1192.415	960.898
285.657	28.086	1191.844	960.712
286.672	28.113	1190.612	959.774
287.687	28.190	1189.840	959.474
288.701	28.207	1189.501	959.207
289.716	28.195	1188.432	958.197
290.730	28.216	1188.197	958.027
291.745	28.186	1187.624	957.326
292.760	28.117	1186.855	956.262
293.774	28.124	1186.489	955.916
294.789	28.230	1185.566	955.642
295.803	28.227	1184.932	955.030
296.818	28.269	1184.584	954.885
297.833	28.259	1183.790	954.109
298.847	28.264	1183.145	953.532
299.862	28.317	1182.293	953.035
300.876	28.246	1181.615	952.035
301.891	28.194	1181.187	951.336
302.906	28.311	1180.190	951.060
303.920	28.249	1180.119	950.592
304.935	28.254	1179.484	950.026
305.949	28.257	1178.848	949.444
306.964	28.252	1178.160	948.781
307.979	28.282	1177.482	948.304
308.993	28.302	1176.797	947.775
310.008	28.407	1175.604	947.271
311.022	28.300	1175.224	946.328
312.037	28.369	1174.453	945.980
313.052	28.463	1173.301	945.455
314.066	28.432	1172.231	944.346
315.081	28.325	1171.787	943.354
316.095	28.378	1171.382	943.219
317.110	28.443	1170.983	943.148
318.125	28.557	1170.014	942.869
319.139	28.430	1169.630	941.824
320.154	28.334	1169.281	940.968
321.168	28.376	1168.721	940.649
322.183	28.413	1168.034	940.202
323.197	28.556	1166.755	939.824
324.212	28.518	1166.483	939.326
325.227	28.450	1166.621	939.005
326.241	28.571	1165.680	938.782
327.256	28.504	1165.160	937.941
328.270	28.556	1163.928	937.130
329.285	28.484	1163.511	936.346
330.300	28.638	1162.117	935.922
331.314	28.643	1161.218	935.143
332.329	28.574	1160.948	934.489
333.343	28.657	1160.011	934.074
334.358	28.631	1159.644	933.565
335.373	28.679	1158.548	932.844
336.387	28.672	1157.929	932.227
337.402	28.693	1157.295	931.740
338.416	28.700	1156.653	931.180
339.431	28.676	1156.145	930.567
340.446	28.673	1155.549	929.988
341.460	28.759	1155.093	929.974
342.475	28.855	1153.680	929.243
343.489	28.679	1153.056	927.766
344.504	28.713	1152.091	927.078
345.519	28.798	1151.291	926.783
346.533	28.648	1150.611	925.396
347.548	28.695	1150.138	925.173
348.562	28.818	1149.022	924.812
349.577	28.843	1148.379	924.337
350.592	28.685	1147.663	922.887
351.606	28.639	1147.228	922.224
352.621	28.684	1146.494	921.777
353.635	28.693	1146.151	921.462
354.650	28.792	1145.456	921.319
355.665	28.812	1144.802	920.812
356.679	28.763	1144.595	920.319
357.694	28.898	1143.917	920.371
358.708	28.769	1143.116	918.998
359.723	28.944	1141.778	918.717
360.738	28.737	1141.641	917.491
361.752	28.951	1140.885	917.870
362.767	28.919	1140.145	917.033
363.781	28.848	1140.355	916.767
364.796	28.886	1139.492	916.182
365.810	28.967	1139.122	916.206
366.825	28.975	1138.049	915.301
367.840	29.140	1137.267	915.413
368.854	29.021	1137.085	914.591
369.869	29.046	1136.454	914.130
370.883	29.005	1135.418	913.013
371.898	29.094	1134.669	912.767
372.913	29.044	1134.262	912.114
373.927	29.133	1133.611	911.949
374.942	29.116	1133.237	911.485
375.956	29.001	1133.104	910.729
376.971	29.074	1132.451	910.483
377.986	29.137	1131.833	910.216
379.000	29.118	1131.286	909.603
380.015	29.192	1130.713	909.425
381.029	29.196	1129.856	908.674
382.044	29.211	1129.038	908.015
383.059	29.185	1128.070	907.026
384.073	29.223	1127.899	906.992
385.088	29.214	1126.742	905.942
386.102	29.223	1126.093	905.381
387.117	29.195	1124.744	904.078
388.132	29.100	1124.348	903.218
389.146	29.121	1123.908	902.884
390.161	29.299	1122.997	902.944
391.175	29.261	1122.420	902.214
392.190	29.305	1121.797	901.850
393.205	29.190	1121.336	900.837
394.219	29.324	1120.350	900.622
395.234	29.384	1119.603	900.234
396.248	29.257	1118.961	899.017
397.263	29.358	1117.647	898.373
398.278	29.458	1117.248	898.461
399.292	29.334	1117.202	897.742
400.307	29.506	1116.367	897.827
401.321	29.475	1115.540	896.931
402.336	29.352	1114.694	895.576
403.350	29.372	1113.965	895.007
404.365	29.455	1113.718	895.130
405.380	29.472	1112.756	894.360
406.394	29.465	1112.414	893.973
407.409	29.544	1111.336	893.409
408.423	29.596	1110.795	893.147
409.438	29.510	1110.230	892.198
410.453	29.578	1109.382	891.767
411.467	29.566	1108.654	891.047
412.482	29.477	1108.405	890.337
413.496	29.557	1107.026	889.534
414.511	29.608	1106.477	889.263
415.526	29.607	1106.384	889.105
416.540	29.586	1105.739	888.404
417.555	29.584	1105.518	888.137
418.569	29.604	1105.008	887.748
419.584	29.559	1104.696	887.201
420.599	29.627	1104.195	887.046
421.613	98.268	1317.421	1432.606
422.628	91.941	1348.499	1432.714
