DTS Sentinel unit serial number:	SN413079Multiplexer serial number:	ORYXHardware model number:	OX4-SRSoftware version number:	ORYX F/W v4.00 Oryx Data Collector v3.7.2.0data status	okinstallation	princeton_trtdifferential loss correction	single-endedforward channel	channel 2reverse channel	N/Adate	2019/09/15time	16:23:35forward acquisition time	60.00reverse acquisition time	0.00gamma	496.2192k internal	0.2287k external	0.2287temperature offset calibration	0.9939default loss term (dB/km)	0.3790temperature slope calibration	1.0000multiplexer offset coefficient	1.0000multiplexer slope coefficient	1.0000fibre end	0.00T internal ref (°C)	43.69T ext. ref 1 (°C)	5.53T ext. ref 2 (°C)	40.09length (m)	temperature (°C)	Stokes	anti-Stokes-747.200	800.000	0.052	-0.202
-746.185	-6.066	0.305	-0.214
-745.171	167.922	-0.158	-0.231
-744.156	160.853	0.122	-0.175
-743.142	638.869	-0.037	-0.098
-742.127	-116.071	0.191	-0.036
-741.112	-19.588	0.130	-0.083
-740.098	-200.000	0.024	0.146
-739.083	-106.928	0.271	-0.062
-738.069	800.000	0.096	0.334
-737.054	-194.353	0.270	-0.002
-736.039	-93.227	0.156	-0.045
-735.025	-200.000	-0.049	0.220
-734.010	-148.530	-0.198	-0.017
-732.996	-59.713	-0.370	0.163
-731.981	-101.089	-0.248	0.062
-730.966	422.148	-0.132	0.291
-729.952	1.216	-0.189	-0.139
-728.937	76.869	0.125	-0.136
-727.923	75.537	-0.161	-0.174
-726.908	800.000	0.035	-0.145
-725.894	-123.828	-0.208	-0.034
-724.879	-200.000	-0.001	0.068
-723.864	121.828	-0.181	-0.232
-722.850	42.800	0.291	-0.272
-721.835	95.022	-0.158	-0.184
-720.821	-200.000	0.051	-0.234
-719.806	-56.216	0.215	-0.098
-718.791	0.427	-0.073	0.053
-717.777	734.866	-0.103	-0.282
-716.762	499.673	-0.164	-0.389
-715.748	-100.880	0.067	0.017
-714.733	-156.603	0.273	-0.017
-713.718	413.354	0.164	-0.358
-712.704	-54.642	-0.335	-0.155
-711.689	90.942	-0.115	-0.132
-710.675	-200.000	-0.028	0.135
-709.660	-2.585	0.171	0.123
-708.645	-12.393	0.308	0.206
-707.631	504.361	0.079	-0.188
-706.616	319.368	0.258	0.501
-705.602	-18.488	0.092	0.059
-704.587	-46.224	0.044	-0.022
-703.572	-200.000	-0.053	0.269
-702.558	513.710	-0.051	0.122
-701.543	106.338	0.235	0.285
-700.529	14.050	0.072	0.058
-699.514	-188.576	0.203	0.003
-698.499	-61.224	-0.276	-0.119
-697.485	-152.293	0.364	0.027
-696.470	-200.000	-0.007	-0.036
-695.456	601.853	0.099	-0.253
-694.441	132.708	-0.146	0.193
-693.426	-200.000	0.027	0.244
-692.412	67.221	0.196	-0.205
-691.397	-60.985	0.270	0.117
-690.383	-200.000	0.043	0.259
-689.368	-75.582	0.031	-0.011
-688.354	-148.948	0.197	0.016
-687.339	49.291	0.343	0.330
-686.324	-200.000	-0.007	-0.107
-685.310	251.041	-0.091	-0.158
-684.295	-26.676	0.056	-0.034
-683.281	30.622	0.117	0.103
-682.266	138.508	0.102	0.136
-681.251	800.000	-0.089	0.351
-680.237	62.844	0.039	-0.040
-679.222	32.821	-0.032	0.029
-678.208	800.000	-0.045	0.185
-677.193	-200.000	-0.040	0.383
-676.178	-93.356	-0.087	0.025
-675.164	670.616	0.101	-0.267
-674.149	-40.247	0.057	0.031
-673.135	8.320	0.102	-0.078
-672.120	50.191	0.082	-0.079
-671.105	-82.320	0.278	0.092
-670.091	10.809	-0.200	0.157
-669.076	-80.911	-0.368	-0.125
-668.062	-200.000	0.034	0.201
-667.047	-107.008	-0.147	0.033
-666.032	800.000	0.072	-0.249
-665.018	-127.606	0.059	-0.009
-664.003	-72.556	0.402	-0.152
-662.989	586.089	0.138	0.347
-661.974	800.000	-0.060	-0.190
-660.959	-200.000	-0.009	0.154
-659.945	-90.301	-0.278	0.083
-658.930	479.672	-0.076	-0.177
-657.916	213.631	-0.047	-0.077
-656.901	81.070	0.133	-0.146
-655.886	800.000	0.074	-0.216
-654.872	407.339	0.093	0.201
-653.857	-200.000	0.025	-0.145
-652.843	-59.333	-0.248	-0.109
-651.828	800.000	0.015	-0.067
-650.814	53.213	-0.162	0.159
-649.799	87.196	-0.266	-0.301
-648.784	-176.830	-0.179	0.005
-647.770	464.289	-0.107	0.245
-646.755	30.962	-0.296	-0.259
-645.741	313.934	0.070	-0.135
-644.726	8.952	0.287	0.221
-643.711	-40.992	-0.188	0.099
-642.697	800.000	-0.044	0.129
-641.682	-200.000	-0.004	0.066
-640.668	-138.620	-0.071	-0.008
-639.653	109.983	0.198	-0.242
-638.638	-200.000	-0.040	-0.230
-637.624	-200.000	-0.028	-0.228
-636.609	-200.000	0.006	-0.251
-635.595	72.730	0.029	0.031
-634.580	-72.712	-0.148	-0.056
-633.565	800.000	-0.112	-0.461
-632.551	315.101	-0.188	-0.362
-631.536	-115.217	-0.149	0.029
-630.522	-195.232	0.277	0.002
-629.507	160.267	0.174	-0.248
-628.492	-116.706	-0.299	-0.056
-627.478	-129.785	-0.113	0.016
-626.463	800.000	0.040	0.167
-625.449	72.138	0.115	0.123
-624.434	44.716	0.194	0.182
-623.419	-200.000	-0.111	0.540
-622.405	-138.334	-0.245	-0.028
-621.390	101.231	-0.053	-0.062
-620.376	251.464	0.040	0.069
-619.361	75.475	0.348	0.375
-618.346	-161.683	-0.351	0.018
-617.332	186.937	-0.115	0.176
-616.317	64.152	0.101	0.103
-615.303	384.605	-0.113	-0.237
-614.288	800.000	-0.090	-0.296
-613.273	126.516	-0.317	-0.410
-612.259	800.000	0.151	-0.615
-611.244	-44.589	0.148	0.075
-610.230	800.000	-0.058	0.244
-609.215	-57.957	-0.152	0.068
-608.201	-87.223	-0.049	0.015
-607.186	81.111	-0.094	0.104
-606.171	800.000	-0.086	0.349
-605.157	-86.221	0.077	-0.024
-604.142	11.065	-0.086	0.067
-603.128	56.990	0.130	0.130
-602.113	-45.950	0.019	0.010
-601.098	-159.607	-0.299	0.017
-600.084	-164.138	0.067	0.003
-599.069	-44.549	-0.273	-0.139
-598.055	-200.000	-0.022	0.097
-597.040	-73.592	0.075	-0.028
-596.025	-6.635	0.411	-0.286
-595.011	-154.420	-0.050	0.003
-593.996	67.857	-0.181	-0.189
-592.982	-200.000	0.139	0.000
-591.967	48.463	-0.231	0.221
-590.952	-2.949	0.154	0.110
-589.938	-99.675	0.459	0.117
-588.923	-48.815	-0.152	-0.074
-587.909	-105.947	-0.353	0.081
-586.894	-137.975	-0.248	0.028
-585.879	-161.625	0.138	-0.007
-584.865	102.943	-0.196	0.234
-583.850	131.274	0.095	-0.125
-582.836	6.816	0.151	-0.115
-581.821	721.576	0.020	-0.053
-580.806	43.948	-0.010	0.009
-579.792	-116.613	-0.169	0.032
-578.777	-200.000	0.082	0.413
-577.763	156.027	0.111	-0.156
-576.748	294.921	0.171	0.319
-575.733	-154.817	0.424	-0.029
-574.719	-21.515	-0.272	-0.169
-573.704	-105.626	-0.456	0.105
-572.690	25.301	-0.204	0.173
-571.675	-61.906	0.202	0.086
-570.661	-102.715	0.276	0.067
-569.646	-22.642	0.096	-0.059
-568.631	-38.443	-0.353	-0.190
-567.617	-39.070	-0.193	0.103
-566.602	-28.423	-0.302	-0.178
-565.588	20.310	-0.031	-0.025
-564.573	-195.744	0.224	-0.002
-563.558	-55.225	-0.362	0.166
-562.544	20.696	-0.411	-0.339
-561.529	-105.782	0.251	-0.058
-560.515	624.866	0.066	-0.171
-559.500	1.145	-0.149	-0.109
-558.485	21.603	0.135	-0.112
-557.471	-96.524	0.155	0.042
-556.456	-200.000	0.021	0.212
-555.442	800.000	0.156	0.442
-554.427	-200.000	0.017	0.317
-553.412	-71.537	0.170	-0.065
-552.398	33.273	0.033	0.029
-551.383	-18.115	-0.045	0.028
-550.369	-96.672	-0.041	-0.011
-549.354	-131.468	-0.179	-0.024
-548.339	-153.760	0.348	0.024
-547.325	28.133	0.162	0.139
-546.310	-84.362	0.153	0.049
-545.296	-200.000	-0.013	0.174
-544.281	88.015	-0.020	0.023
-543.266	-58.595	-0.254	0.112
-542.252	354.436	0.036	-0.073
-541.237	118.059	-0.099	-0.124
-540.223	-36.100	-0.171	0.094
-539.208	72.176	0.148	-0.157
-538.193	-51.833	0.219	-0.104
-537.179	-200.000	0.021	0.099
-536.164	800.000	-0.070	-0.215
-535.150	-0.379	0.153	0.111
-534.135	-200.000	0.018	0.256
-533.121	298.031	0.134	-0.250
-532.106	800.000	-0.103	-0.335
-531.091	-34.517	-0.186	0.104
-530.077	4.388	0.370	0.276
-529.062	-174.142	0.147	0.004
-528.048	-51.469	0.243	0.115
-527.033	-149.626	0.215	0.017
-526.018	148.374	0.107	0.147
-525.004	2.297	-0.056	-0.041
-523.989	215.657	0.054	-0.087
-522.975	-96.321	0.216	-0.058
-521.960	800.000	-0.045	0.146
-520.945	-118.368	0.096	0.017
-519.931	-88.359	-0.299	-0.091
-518.916	4.160	0.187	0.139
-517.902	-200.000	0.023	-0.159
-516.887	65.335	0.232	-0.239
-515.872	-200.000	-0.009	-0.059
-514.858	59.034	-0.106	0.106
-513.843	72.120	0.079	0.084
-512.829	48.544	0.033	0.031
-511.814	-200.000	-0.009	0.117
-510.799	-24.237	0.117	-0.071
-509.785	25.371	-0.324	0.274
-508.770	-1.300	-0.070	-0.050
-507.756	-81.711	0.170	-0.057
-506.741	-125.766	0.251	-0.038
-505.726	129.848	-0.130	-0.169
-504.712	-175.264	0.067	-0.002
-503.697	307.143	0.066	0.126
-502.683	800.000	0.033	-0.147
-501.668	-65.050	0.100	-0.041
-500.653	528.665	0.100	0.240
-499.639	-4.845	0.217	-0.152
-498.624	68.404	-0.063	-0.065
-497.610	-23.344	-0.071	0.044
-496.595	288.579	0.062	0.113
-495.581	365.005	-0.193	-0.395
-494.566	-200.000	-0.006	-0.155
-493.551	-34.311	-0.090	-0.050
-492.537	596.388	-0.069	-0.173
-491.522	-137.216	0.090	0.010
-490.508	-9.873	-0.211	-0.143
-489.493	-114.355	-0.178	0.035
-488.478	-33.745	0.086	-0.048
-487.464	24.426	0.029	0.025
-486.449	363.297	0.054	-0.111
-485.435	-195.315	0.256	-0.002
-484.420	-88.045	-0.316	-0.096
-483.405	54.614	-0.236	-0.231
-482.391	-58.870	-0.092	-0.041
-481.376	-200.000	0.035	0.274
-480.362	-151.643	-0.371	0.028
-479.347	56.935	-0.213	-0.211
-478.332	206.890	-0.027	-0.042
-477.318	-131.382	-0.096	-0.013
-476.303	564.416	-0.057	0.141
-475.289	116.216	-0.014	0.018
-474.274	-200.000	-0.007	-0.056
-473.259	-76.365	-0.113	-0.040
-472.245	17.254	-0.263	-0.212
-471.230	169.289	-0.116	-0.167
-470.216	-118.331	-0.392	0.071
-469.201	379.365	0.125	0.259
-468.186	208.384	0.058	-0.092
-467.172	593.389	-0.114	0.286
-466.157	49.949	0.141	0.135
-465.143	-91.196	0.294	-0.085
-464.128	-132.226	-0.174	0.023
-463.113	-55.351	0.256	-0.117
-462.099	755.428	0.025	-0.070
-461.084	-95.755	-0.161	0.044
-460.070	-115.219	-0.167	-0.032
-459.055	-25.539	0.151	-0.091
-458.040	-51.338	-0.095	0.045
-457.026	-184.068	0.393	0.007
-456.011	-200.000	-0.029	0.180
-454.997	800.000	0.016	0.067
-453.982	-200.000	0.017	-0.085
-452.968	305.386	-0.076	0.142
-451.953	222.179	-0.102	0.167
-450.938	-159.920	0.198	-0.011
-449.924	-46.397	0.103	-0.051
-448.909	-96.189	-0.355	-0.095
-447.895	113.593	-0.149	0.183
-446.880	-153.951	0.129	0.009
-445.865	-56.983	0.084	-0.038
-444.851	800.000	-0.077	0.304
-443.836	198.520	-0.087	-0.136
-442.822	-77.376	0.240	0.085
-441.807	800.000	0.065	0.184
-440.792	-200.000	0.031	-0.193
-439.778	-200.000	0.001	0.093
-438.763	256.084	0.198	-0.345
-437.749	-105.222	0.239	-0.055
-436.734	-200.000	0.009	-0.290
-435.719	15.844	0.091	-0.073
-434.705	-198.120	-0.446	0.003
-433.690	-73.717	-0.224	0.082
-432.676	0.972	0.071	-0.052
-431.661	-16.256	0.147	-0.095
-430.646	-31.289	-0.161	-0.092
-429.632	-3.783	-0.146	-0.103
-428.617	37.453	0.114	0.102
-427.603	347.588	-0.105	-0.209
-426.588	118.715	0.235	-0.294
-425.573	-110.458	0.227	-0.048
-424.559	60.786	0.235	-0.236
-423.544	261.116	-0.136	-0.238
-422.530	-126.006	-0.204	-0.031
-421.515	-149.484	0.094	-0.008
-420.500	-83.792	0.320	0.103
-419.486	800.000	-0.074	0.300
-418.471	-200.000	-0.016	0.360
-417.457	231.258	-0.081	0.134
-416.442	271.379	-0.102	0.182
-415.428	-72.607	-0.039	0.015
-414.413	-200.000	-0.030	0.267
-413.398	-200.000	-0.317	-0.001
-412.384	-64.717	-0.266	0.109
-411.369	-200.000	0.027	-0.208
-410.355	-85.663	-0.205	-0.065
-409.340	-200.000	0.023	0.156
-408.325	-200.000	0.003	-0.088
-407.311	-3.382	0.123	0.087
-406.296	144.931	0.178	0.241
-405.282	715.735	0.173	-0.464
-404.267	-200.000	-0.005	0.406
-403.252	158.087	0.081	0.113
-402.238	-27.110	0.124	0.073
-401.223	-17.657	-0.254	-0.161
-400.209	800.000	0.064	-0.183
-399.194	-200.000	0.014	0.206
-398.179	-200.000	0.014	0.228
-397.165	-50.148	0.258	-0.124
-396.150	-200.000	-0.004	-0.048
-395.136	-200.000	0.008	-0.097
-394.121	-132.302	-0.419	0.055
-393.106	7.878	-0.062	-0.047
-392.092	227.193	-0.103	-0.170
-391.077	173.800	0.127	-0.186
-390.063	-200.000	-0.046	-0.215
-389.048	-200.000	0.071	-0.405
-388.033	-200.000	0.003	0.074
-387.019	-65.092	0.034	-0.014
-386.004	16.529	0.172	-0.137
-384.990	-200.000	-0.011	0.071
-383.975	-49.573	-0.077	-0.037
-382.960	-200.000	0.003	-0.130
-381.946	3.829	0.293	-0.216
-380.931	145.460	-0.097	0.131
-379.917	-55.497	0.276	-0.125
-378.902	-156.922	-0.345	0.021
-377.888	-58.083	-0.055	-0.024
-376.873	6.735	-0.201	0.151
-375.858	24.350	-0.044	0.036
-374.844	408.230	0.107	0.230
-373.829	-200.000	-0.010	-0.166
-372.815	-200.000	-0.005	0.052
-371.800	-54.879	0.283	-0.129
-370.785	-39.132	0.166	-0.088
-369.771	-89.824	0.165	-0.049
-368.756	434.550	-0.074	0.162
-367.742	-40.046	0.145	0.077
-366.727	800.000	0.036	-0.132
-365.712	-13.826	0.203	0.133
-364.698	326.697	0.012	-0.023
-363.683	29.100	0.084	0.072
-362.669	-200.000	-0.009	0.151
-361.654	211.287	-0.070	-0.112
-360.639	-112.422	0.325	-0.066
-359.625	-200.000	0.019	0.115
-358.610	800.000	-0.056	-0.175
-357.596	204.114	-0.147	0.231
-356.581	157.367	-0.326	0.456
-355.566	-152.447	0.076	-0.005
-354.552	339.239	-0.151	-0.298
-353.537	-49.858	-0.187	-0.090
-352.523	259.941	0.128	-0.224
-351.508	-200.000	-0.278	0.001
-350.493	-200.000	-0.025	0.139
-349.479	93.008	-0.189	-0.216
-348.464	800.000	0.067	-0.210
-347.450	142.936	-0.088	-0.118
-346.435	-200.000	-0.021	-0.208
-345.420	18.130	-0.093	0.075
-344.406	564.965	0.053	-0.130
-343.391	-40.546	0.221	0.116
-342.377	-130.278	-0.226	0.031
-341.362	-34.585	0.418	0.231
-340.348	-1.043	0.074	-0.053
-339.333	800.000	0.041	0.137
-338.318	-200.000	-0.000	0.025
-337.304	-69.471	0.229	0.089
-336.289	13.163	0.121	0.094
-335.275	122.668	-0.206	0.260
-334.260	-200.000	-0.006	0.055
-333.245	800.000	-0.022	0.086
-332.231	649.636	-0.026	0.066
-331.216	148.464	-0.040	-0.054
-330.202	-152.885	-0.337	0.024
-329.187	-139.899	0.035	-0.004
-328.172	-105.147	-0.279	0.064
-327.158	-15.092	0.150	-0.097
-326.143	-135.603	-0.052	0.006
-325.129	77.388	0.065	0.070
-324.114	-28.556	0.219	-0.127
-323.099	184.074	-0.149	-0.223
-322.085	30.457	-0.359	0.310
-321.070	211.170	-0.132	0.209
-320.056	-78.387	0.266	0.092
-319.041	-19.056	-0.162	-0.102
-318.026	147.861	0.160	0.218
-317.012	800.000	0.074	0.269
-315.997	-98.257	0.419	-0.109
-314.983	-74.621	-0.028	-0.010
-313.968	-200.000	-0.000	0.024
-312.953	-37.302	-0.189	-0.102
-311.939	-200.000	0.007	-0.058
-310.924	210.067	0.112	-0.177
-309.910	800.000	-0.086	-0.249
-308.895	-75.944	-0.358	-0.128
-307.880	-90.772	0.286	-0.083
-306.866	-51.682	-0.085	0.040
-305.851	29.253	-0.473	0.405
-304.837	-112.000	0.325	-0.066
-303.822	-27.936	-0.275	-0.161
-302.807	800.000	-0.126	0.375
-301.793	-63.699	0.335	0.138
-300.778	-200.000	-0.047	0.353
-299.764	-200.000	-0.018	0.378
-298.749	51.287	0.196	-0.188
-297.735	40.464	0.081	-0.073
-296.720	-7.709	-0.240	-0.164
-295.705	-105.175	-0.371	-0.085
-294.691	-72.399	-0.083	0.031
-293.676	41.103	-0.285	-0.259
-292.662	15.659	-0.165	-0.131
-291.647	-50.204	-0.056	0.027
-290.632	800.000	-0.051	0.156
-289.618	86.702	0.256	0.284
-288.603	38.803	-0.329	0.296
-287.589	800.000	-0.024	0.070
-286.574	-13.811	0.284	-0.185
-285.559	-86.027	0.105	0.033
-284.545	-91.084	-0.245	-0.071
-283.530	11.289	-0.265	-0.204
-282.516	-7.271	-0.327	-0.223
-281.501	800.000	-0.054	-0.219
-280.486	309.821	0.160	-0.301
-279.472	9.439	0.177	-0.135
-278.457	-93.581	0.428	-0.119
-277.443	-200.000	0.001	0.364
-276.428	-14.812	-0.287	0.186
-275.413	-76.627	0.311	-0.110
-274.399	153.648	0.238	-0.328
-273.384	800.000	0.108	-0.474
-272.370	286.099	-0.187	0.340
-271.355	800.000	-0.036	-0.135
-270.340	-18.757	-0.047	0.030
-269.326	-200.000	0.017	0.095
-268.311	-60.967	-0.045	-0.019
-267.297	216.051	0.151	-0.241
-266.282	107.086	0.184	-0.221
-265.267	106.367	0.310	-0.370
-264.253	129.774	0.216	0.278
-263.238	194.986	-0.108	0.164
-262.224	-145.658	0.451	0.041
-261.209	-40.556	0.292	-0.153
-260.195	-79.795	0.225	0.076
-259.180	212.932	0.162	0.258
-258.165	-109.363	-0.073	0.016
-257.151	-101.937	0.110	0.027
-256.136	-29.399	0.219	-0.126
-255.122	-89.771	0.080	0.024
-254.107	-200.000	-0.007	0.242
-253.092	-129.399	0.145	0.020
-252.078	-200.000	0.014	0.156
-251.063	-137.437	-0.357	0.041
-250.049	151.180	-0.163	0.224
-249.034	-24.445	-0.154	-0.092
-248.019	-11.018	-0.108	0.072
-247.005	76.749	-0.207	0.221
-245.990	8.774	0.174	0.132
-244.976	341.624	0.091	0.178
-243.961	-22.104	0.433	0.264
-242.946	21.289	0.105	-0.086
-241.932	661.753	-0.078	-0.203
-240.917	300.596	0.095	-0.176
-239.903	16.376	-0.228	-0.181
-238.888	701.237	0.049	0.129
-237.873	137.666	0.107	0.141
-236.859	-18.604	0.129	0.081
-235.844	800.000	-0.116	0.441
-234.830	305.666	0.093	0.173
-233.815	185.554	-0.043	-0.064
-232.800	-94.669	0.156	-0.042
-231.786	-6.793	0.098	0.067
-230.771	262.530	0.040	0.069
-229.757	213.039	0.265	-0.421
-228.742	-120.491	-0.164	0.028
-227.727	-103.681	-0.131	0.031
-226.713	-5.646	-0.129	0.089
-225.698	264.535	-0.007	0.012
-224.684	141.307	-0.242	0.323
-223.669	64.561	0.179	0.181
-222.655	-135.785	0.266	0.032
-221.640	-74.627	-0.221	0.080
-220.625	-54.498	0.272	0.124
-219.611	-178.867	0.286	-0.007
-218.596	800.000	-0.047	-0.160
-217.582	-200.000	-0.002	0.013
-216.567	323.237	-0.137	-0.263
-215.552	31.278	-0.159	0.137
-214.538	238.333	0.081	-0.135
-213.523	800.000	0.060	-0.200
-212.509	16.553	-0.219	0.174
-211.494	-200.000	-0.069	-0.344
-210.479	-46.495	0.386	0.190
-209.465	-200.000	-0.002	0.133
-208.450	-71.660	0.182	-0.068
-207.436	-54.895	0.273	-0.124
-206.421	-75.037	0.170	0.061
-205.406	800.000	-0.099	-0.354
-204.392	-111.152	-0.114	-0.024
-203.377	-33.524	-0.069	-0.038
-202.363	-164.234	-0.236	-0.011
-201.348	-188.636	-0.107	0.001
-200.333	133.689	0.229	0.298
-199.319	-200.000	-0.020	-0.119
-198.304	-13.924	-0.065	0.042
-197.290	-49.394	0.009	-0.004
-196.275	313.302	0.132	-0.250
-195.260	-200.000	-0.032	-0.180
-194.246	-146.341	-0.368	0.032
-193.231	-200.000	0.057	-0.324
-192.217	-49.683	-0.260	-0.124
-191.202	-200.000	-0.048	-0.335
-190.187	-200.000	0.034	-0.204
-189.173	-69.510	0.091	0.035
-188.158	66.528	0.219	0.223
-187.144	800.000	0.068	0.257
-186.129	92.009	0.278	-0.314
-185.114	31.594	0.091	-0.078
-184.100	300.685	0.163	-0.301
-183.085	-200.000	0.023	-0.240
-182.071	437.303	-0.044	0.095
-181.056	119.443	0.275	0.341
-180.042	-73.375	-0.201	0.074
-179.027	-200.000	-0.011	0.130
-178.012	-33.754	-0.200	0.111
-176.998	-14.458	-0.200	0.129
-175.983	317.166	-0.040	-0.075
-174.969	551.547	0.123	-0.297
-173.954	47.015	0.162	-0.152
-172.939	244.980	-0.051	-0.086
-171.925	-200.000	-0.010	0.164
-170.910	286.529	0.068	0.123
-169.896	127.150	-0.067	0.085
-168.881	-69.901	0.221	-0.085
-167.866	-200.000	-0.012	0.128
-166.852	264.048	-0.066	0.115
-165.837	533.830	0.083	0.197
-164.823	-85.915	-0.293	-0.091
-163.808	-53.749	0.135	0.062
-162.793	-162.226	0.207	-0.010
-161.779	-179.407	0.164	0.004
-160.764	-64.710	-0.172	0.070
-159.750	-200.000	0.074	0.403
-158.735	-200.000	-0.018	-0.087
-157.720	127.062	0.091	0.116
-156.706	-19.637	-0.003	0.002
-155.691	-200.000	0.034	0.192
-154.677	-120.965	-0.429	0.072
-153.662	800.000	0.065	0.258
-152.647	-160.994	-0.121	-0.006
-151.633	-109.265	-0.254	0.054
-150.618	147.656	0.170	0.230
-149.604	-34.228	-0.344	0.189
-148.589	-200.000	-0.030	-0.172
-147.574	-200.000	0.047	0.214
-146.560	-91.426	0.368	0.105
-145.545	-97.743	0.369	-0.096
-144.531	144.947	-0.028	0.038
-143.516	208.213	0.241	-0.378
-142.502	366.216	-0.040	-0.081
-141.487	118.589	-0.237	0.293
-140.472	159.446	-0.074	-0.103
-139.458	-200.000	0.028	-0.193
-138.443	80.079	-0.109	-0.117
-137.429	95.997	0.186	0.213
-136.414	14.568	-0.053	-0.042
-135.399	375.531	0.075	0.154
-134.385	800.000	0.064	0.226
-133.370	-184.446	0.203	0.003
-132.356	-0.545	0.299	0.213
-131.341	-200.000	-0.001	0.382
-130.326	-81.615	0.348	-0.115
-129.312	-109.919	0.145	-0.030
-128.297	5.569	0.221	-0.164
-127.283	-13.932	-0.157	0.101
-126.268	800.000	0.098	-0.299
-125.253	100.479	0.125	-0.145
-124.239	800.000	0.047	0.180
-123.224	800.000	-0.116	0.373
-122.210	-200.000	-0.003	0.047
-121.195	455.377	-0.115	0.256
-120.180	-101.488	-0.301	0.073
-119.166	37.973	0.153	-0.136
-118.151	197.741	0.093	-0.143
-117.137	-135.188	-0.315	-0.038
-116.122	139.865	-0.130	0.171
-115.107	255.167	-0.049	-0.083
-114.093	-126.886	0.289	-0.043
-113.078	-200.000	0.003	0.015
-112.064	-27.538	-0.189	-0.110
-111.049	-9.506	0.156	0.104
-110.034	-137.602	0.177	0.020
-109.020	48.128	0.086	-0.080
-108.005	54.699	0.217	0.209
-106.991	-14.993	-0.183	0.117
-105.976	800.000	0.069	0.245
-104.962	800.000	0.016	-0.057
-103.947	800.000	-0.052	-0.213
-102.932	-200.000	0.009	0.162
-101.918	-200.000	-0.014	0.166
-100.903	-200.000	-0.173	0.000
-99.889	-200.000	-0.004	0.064
-98.874	-38.195	-0.025	-0.013
-97.859	-97.096	0.108	0.028
-96.845	-134.323	-0.038	0.005
-95.830	-137.993	0.331	-0.037
-94.816	-200.000	0.002	-0.122
-93.801	-123.008	-0.337	0.054
-92.786	-200.000	-0.034	-0.202
-91.772	-127.312	0.335	0.049
-90.757	53.022	0.080	-0.077
-89.743	-200.000	-0.043	-0.230
-88.728	7.048	-0.184	-0.138
-87.713	-169.318	-0.165	-0.006
-86.699	-123.050	-0.131	0.021
-85.684	407.074	-0.133	0.280
-84.670	-200.000	0.010	0.051
-83.655	134.581	0.138	-0.179
-82.640	168.930	0.152	0.216
-81.626	-149.596	-0.090	0.007
-80.611	-119.025	0.318	0.056
-79.597	-200.000	0.091	-0.411
-78.582	-200.000	0.049	-0.221
-77.567	30.476	0.219	-0.187
-76.553	800.000	0.120	0.350
-75.538	-39.423	-0.208	0.109
-74.524	800.000	-0.043	0.148
-73.509	101.583	-0.070	0.081
-72.494	412.044	0.151	0.320
-71.480	-200.000	0.073	0.338
-70.465	164.069	0.121	-0.170
-69.451	-99.201	0.244	0.062
-68.436	-200.000	-0.007	0.100
-67.422	-136.227	-0.164	-0.019
-66.407	-200.000	-0.019	-0.158
-65.392	4.996	0.136	-0.100
-64.378	-200.000	0.022	-0.134
-63.363	-105.122	-0.247	-0.056
-62.349	-200.000	0.030	0.202
-61.334	247.798	-0.379	-0.640
-60.319	-200.000	0.068	0.423
-59.305	-200.000	-0.164	-0.720
-58.290	36.259	0.419	0.369
-57.276	800.000	0.513	1.858
-56.261	-200.000	70.954	538.249
-55.246	582.866	1281.722	3141.252
-54.232	138.975	2542.924	3337.849
-53.217	113.687	2369.074	2874.157
-52.203	53.689	1984.811	1902.688
-51.188	47.240	1771.358	1646.897
-50.173	44.286	1722.877	1578.834
-49.159	58.261	1753.539	1716.365
-48.144	65.100	1772.646	1788.323
-47.130	47.096	1737.120	1613.683
-46.115	43.723	1723.799	1575.052
-45.100	43.490	1719.541	1569.289
-44.086	43.530	1716.461	1566.723
-43.071	43.507	1713.645	1563.910
-42.057	43.516	1711.512	1561.977
-41.042	43.523	1709.251	1559.903
-40.027	43.505	1706.857	1557.519
-39.013	43.585	1704.753	1556.155
-37.998	43.669	1703.127	1555.253
-36.984	43.537	1702.366	1553.481
-35.969	43.719	1700.165	1552.810
-34.954	43.732	1698.965	1551.753
-33.940	43.718	1696.831	1549.631
-32.925	43.776	1694.560	1547.943
-31.911	43.724	1693.704	1546.701
-30.896	43.767	1691.601	1545.047
-29.881	43.657	1689.849	1542.548
-28.867	43.590	1688.501	1540.743
-27.852	43.636	1687.037	1539.693
-26.838	43.729	1685.067	1538.542
-25.823	43.633	1684.022	1536.798
-24.809	43.774	1682.220	1536.167
-23.794	43.686	1680.792	1534.131
-22.779	43.688	1679.293	1532.717
-21.765	43.694	1677.740	1531.283
-20.750	43.652	1675.867	1529.199
-19.736	43.743	1674.428	1528.513
-18.721	43.729	1672.840	1526.894
-17.706	43.722	1671.638	1525.685
-16.692	43.653	1669.660	1523.301
-15.677	43.694	1668.255	1522.261
-14.663	43.704	1666.851	1521.002
-13.648	43.736	1665.638	1520.076
-12.633	43.745	1663.880	1518.472
-11.619	43.727	1662.514	1517.031
-10.604	43.775	1660.561	1515.551
-9.590	43.644	1659.635	1513.664
-8.575	43.790	1657.630	1512.868
-7.560	43.711	1657.046	1511.685
-6.546	43.675	1655.885	1510.299
-5.531	43.609	1654.720	1508.684
-4.517	43.628	1653.371	1507.532
-3.502	43.717	1652.192	1507.058
-2.487	43.792	1650.356	1505.883
-1.473	43.907	1639.646	1496.905
-0.458	41.595	1620.091	1462.087
0.556	34.676	1616.657	1418.965
1.571	30.892	1637.707	1408.765
2.586	29.332	1650.970	1408.143
3.600	25.724	1598.301	1336.377
4.615	16.169	1481.829	1172.780
5.629	7.533	1408.834	1057.596
6.644	5.735	1398.933	1038.176
7.659	5.545	1397.068	1035.441
8.673	5.452	1396.107	1034.023
9.688	5.378	1394.019	1031.892
10.702	5.246	1391.759	1029.264
11.717	8.808	1399.640	1058.570
12.731	16.841	1414.024	1122.776
13.746	19.668	1417.740	1144.379
14.761	17.627	1412.439	1126.518
15.775	16.270	1408.670	1114.456
16.790	15.114	1406.146	1104.742
17.804	14.268	1403.402	1096.913
18.819	13.887	1402.267	1093.421
19.834	13.591	1400.532	1090.024
20.848	13.307	1399.607	1087.344
21.863	13.072	1398.462	1084.811
22.877	12.949	1396.839	1082.652
23.892	12.829	1396.357	1081.397
24.907	12.908	1395.368	1081.051
25.921	12.828	1394.683	1079.901
26.936	13.070	1393.002	1080.086
27.950	13.064	1392.367	1079.460
28.965	13.042	1391.760	1078.748
29.980	13.036	1390.451	1077.598
30.994	13.124	1388.900	1076.878
32.009	13.171	1388.333	1076.648
33.023	13.183	1386.614	1075.300
34.038	13.201	1385.084	1074.132
35.053	13.046	1383.741	1071.990
36.067	13.099	1382.302	1071.123
37.082	13.102	1381.480	1070.414
38.096	13.195	1381.119	1070.642
39.111	13.101	1380.103	1069.149
40.126	13.091	1378.832	1068.002
41.140	13.003	1377.816	1066.555
42.155	12.931	1377.429	1065.695
43.169	12.866	1377.548	1065.275
44.184	12.843	1376.852	1064.490
45.199	12.789	1376.481	1063.763
46.213	12.935	1375.614	1063.939
47.228	13.047	1374.334	1063.581
48.242	13.095	1373.480	1063.134
49.257	12.988	1372.108	1061.287
50.271	13.045	1370.285	1060.153
51.286	13.086	1369.162	1059.452
52.301	13.093	1367.476	1058.099
53.315	12.939	1366.972	1056.626
54.330	12.944	1365.640	1055.535
55.344	12.881	1364.464	1054.128
56.359	12.947	1363.496	1053.711
57.374	12.907	1362.505	1052.594
58.388	12.838	1362.017	1051.687
59.403	12.778	1361.373	1050.714
60.417	12.876	1360.172	1050.318
61.432	12.798	1359.602	1049.289
62.447	12.751	1358.804	1048.279
63.461	12.773	1357.426	1047.263
64.476	12.713	1356.686	1046.217
65.490	12.676	1355.919	1045.303
66.505	12.775	1353.542	1044.001
67.520	12.747	1352.915	1043.249
68.534	12.793	1351.640	1042.464
69.549	12.892	1350.444	1042.076
70.563	12.793	1348.989	1040.235
71.578	12.723	1348.113	1039.030
72.593	12.640	1347.661	1038.061
73.607	12.659	1346.731	1037.377
74.622	12.580	1345.868	1036.124
75.636	12.626	1345.329	1035.907
76.651	12.660	1344.737	1035.571
77.666	12.724	1344.020	1035.332
78.680	12.661	1343.885	1034.740
79.695	12.634	1343.239	1033.981
80.709	12.762	1341.965	1033.708
81.724	12.703	1341.635	1032.997
82.739	12.868	1339.941	1032.631
83.753	12.915	1339.032	1032.137
84.768	13.047	1338.239	1032.260
85.782	13.047	1337.492	1031.591
86.797	13.145	1335.603	1030.653
87.812	12.973	1334.448	1028.600
88.826	12.962	1333.735	1027.888
89.841	12.980	1332.592	1027.032
90.855	13.059	1331.507	1026.591
91.870	13.027	1330.753	1025.725
92.884	13.075	1329.899	1025.275
93.899	13.116	1328.610	1024.439
94.914	13.143	1328.103	1024.129
95.928	13.100	1327.195	1023.071
96.943	13.052	1326.351	1022.030
97.957	13.012	1325.486	1021.029
98.972	13.100	1324.358	1020.611
99.987	13.086	1323.253	1019.583
101.001	13.107	1321.972	1018.639
102.016	13.133	1321.367	1018.238
103.030	13.082	1320.498	1017.167
104.045	13.081	1319.527	1016.324
105.060	13.014	1318.278	1014.856
106.074	12.923	1316.662	1012.966
107.089	12.839	1315.419	1011.403
108.103	12.759	1314.209	1009.896
109.118	12.724	1313.236	1008.842
110.133	12.806	1311.363	1007.813
111.147	12.827	1310.034	1006.832
112.162	12.902	1308.391	1005.940
113.176	12.990	1307.534	1005.727
114.191	12.843	1307.147	1004.445
115.206	12.877	1305.995	1003.681
116.220	12.821	1304.397	1002.022
117.235	12.927	1303.256	1001.697
118.249	12.920	1301.949	1000.563
119.264	12.847	1301.395	999.608
120.279	12.729	1300.597	998.190
121.293	12.800	1299.287	997.527
122.308	12.800	1298.295	996.678
123.322	12.843	1296.890	995.772
124.337	12.742	1295.840	994.267
125.352	12.753	1295.073	993.658
126.366	12.754	1293.622	992.459
127.381	12.905	1292.429	992.366
128.395	12.868	1291.464	991.313
129.410	12.934	1290.135	990.606
130.424	12.850	1289.729	989.703
131.439	12.922	1288.749	989.293
132.454	12.921	1287.750	988.434
133.468	12.956	1287.231	988.156
134.483	13.002	1286.120	987.493
135.497	12.976	1285.611	986.855
136.512	12.892	1284.351	985.302
137.527	13.066	1282.273	984.660
138.541	13.057	1281.065	983.586
139.556	13.012	1279.905	982.344
140.570	13.099	1278.749	981.888
141.585	13.183	1277.325	981.206
142.600	13.100	1276.558	980.038
143.614	13.192	1275.509	979.688
144.629	13.269	1274.145	979.009
145.643	13.203	1273.043	977.687
146.658	13.179	1271.687	976.417
147.673	13.050	1270.714	974.826
148.687	13.090	1269.250	973.850
149.702	13.015	1267.774	972.192
150.716	13.022	1266.320	971.029
151.731	13.021	1265.146	970.039
152.746	13.021	1263.792	968.917
153.760	13.133	1262.660	968.619
154.775	13.103	1261.775	967.676
155.789	13.135	1260.760	967.001
156.804	13.090	1260.087	966.133
157.819	13.131	1258.596	965.145
158.833	13.163	1257.517	964.420
159.848	13.245	1256.620	964.123
160.862	13.296	1255.875	963.764
161.877	13.204	1254.293	961.933
162.892	13.123	1253.061	960.427
163.906	13.024	1252.775	959.552
164.921	12.938	1251.960	958.339
165.935	13.159	1250.418	958.361
166.950	13.115	1249.877	957.602
167.964	13.121	1249.147	956.993
168.979	13.220	1248.278	956.818
169.994	13.208	1247.716	956.231
171.008	13.154	1247.057	955.328
172.023	13.243	1246.090	955.021
173.037	13.307	1245.235	954.649
174.052	13.210	1244.512	953.448
175.067	13.301	1242.863	952.626
176.081	13.194	1242.037	951.292
177.096	13.144	1241.499	950.512
178.110	13.245	1240.176	949.991
179.125	13.167	1238.835	948.434
180.140	13.325	1237.315	948.090
181.154	13.347	1236.400	947.435
182.169	13.289	1235.328	946.196
183.183	13.317	1234.403	945.562
184.198	13.439	1232.977	945.083
185.213	13.451	1231.685	944.080
186.227	13.485	1230.762	943.483
187.242	13.413	1229.854	942.293
188.256	13.516	1228.915	942.079
189.271	13.581	1227.339	941.155
190.286	13.406	1226.957	939.781
191.300	13.213	1226.003	937.873
192.315	13.188	1225.028	936.901
193.329	13.280	1224.321	936.803
194.344	13.307	1223.849	936.509
195.359	13.330	1223.181	936.044
196.373	13.385	1222.315	935.612
197.388	13.516	1221.667	935.772
198.402	13.528	1222.196	936.161
199.417	13.637	1221.300	936.012
200.432	13.595	1220.559	935.120
201.446	13.636	1219.419	934.399
202.461	13.800	1218.638	934.639
203.475	13.767	1217.554	933.538
204.490	13.762	1215.929	932.185
205.504	13.706	1214.992	931.068
206.519	13.594	1213.821	929.461
207.534	13.692	1212.438	928.866
208.548	13.594	1211.919	927.837
209.563	13.618	1211.129	927.289
210.577	13.653	1209.806	926.386
211.592	13.763	1209.202	926.456
212.607	13.869	1208.191	926.191
213.621	13.796	1207.462	925.143
214.636	13.747	1206.726	924.224
215.650	13.795	1205.300	923.316
216.665	13.790	1205.063	923.028
217.680	13.851	1203.629	922.190
218.694	13.922	1203.114	922.106
219.709	13.948	1202.106	921.396
220.723	13.871	1201.169	920.168
221.738	13.807	1200.574	919.278
222.753	13.882	1199.997	919.168
223.767	13.856	1199.405	918.492
224.782	13.981	1198.582	918.472
225.796	14.046	1197.792	918.145
226.811	14.103	1196.662	917.511
227.826	13.912	1196.521	916.265
228.840	13.966	1195.680	915.836
229.855	14.008	1194.811	915.322
230.869	14.027	1193.963	914.696
231.884	13.987	1193.054	913.702
232.899	14.006	1192.391	913.218
233.913	13.826	1191.919	911.783
234.928	13.921	1190.513	911.152
235.942	13.915	1190.013	910.655
236.957	13.845	1188.932	909.362
237.972	13.969	1188.068	909.301
238.986	13.958	1188.184	909.246
240.001	13.937	1187.075	908.204
241.015	14.091	1185.761	907.962
242.030	13.988	1185.556	907.160
243.045	13.962	1184.871	906.411
244.059	14.037	1184.047	906.112
245.074	14.022	1183.110	905.231
246.088	14.089	1182.087	904.737
247.103	14.163	1181.680	904.744
248.117	14.246	1180.736	904.396
249.132	14.296	1180.051	904.058
250.147	14.386	1179.356	903.939
251.161	14.502	1178.424	903.769
252.176	14.426	1177.750	902.764
253.190	14.508	1177.318	902.793
254.205	14.562	1176.649	902.494
255.220	14.586	1176.075	902.102
256.234	14.654	1175.279	901.781
257.249	14.549	1174.681	900.676
258.263	14.535	1174.186	900.141
259.278	14.593	1173.099	899.541
260.293	14.548	1172.881	899.049
261.307	14.667	1172.236	899.119
262.322	14.599	1172.188	898.633
263.336	14.640	1171.124	897.959
264.351	14.532	1170.672	896.957
265.366	14.709	1169.348	896.810
266.380	14.659	1169.079	896.254
267.395	14.735	1167.916	895.694
268.409	14.639	1167.676	894.913
269.424	14.678	1166.758	894.344
270.439	14.625	1166.132	893.502
271.453	14.646	1165.357	892.939
272.468	14.738	1163.953	892.273
273.482	14.606	1163.554	891.187
274.497	14.614	1163.301	890.957
275.512	14.669	1162.404	890.484
276.526	14.735	1161.452	890.025
277.541	14.715	1160.674	889.244
278.555	14.768	1159.449	888.508
279.570	14.757	1159.123	888.121
280.585	14.780	1158.496	887.688
281.599	14.760	1157.635	886.844
282.614	14.783	1156.679	886.154
283.628	14.862	1155.399	885.511
284.643	14.793	1154.262	884.197
285.657	14.817	1153.296	883.503
286.672	14.855	1152.751	883.210
287.687	14.819	1152.020	882.382
288.701	14.814	1151.199	881.648
289.716	14.897	1150.143	881.201
290.730	14.946	1149.104	880.586
291.745	14.931	1149.200	880.503
292.760	15.072	1147.930	880.192
293.774	15.037	1147.496	879.599
294.789	15.051	1147.088	879.282
295.803	15.064	1146.252	878.629
296.818	15.027	1145.661	877.906
297.833	14.991	1144.535	876.778
298.847	14.987	1143.559	875.931
299.862	14.855	1143.398	875.040
300.876	15.107	1142.035	875.232
301.891	15.135	1141.819	875.136
302.906	15.195	1141.043	874.778
303.920	15.213	1140.543	874.412
304.935	15.234	1139.443	873.601
305.949	15.190	1139.177	873.092
306.964	15.245	1138.526	872.801
307.979	15.228	1137.729	872.024
308.993	15.242	1136.639	871.186
310.008	15.322	1135.962	871.003
311.022	15.217	1135.512	870.037
312.037	15.253	1134.705	869.526
313.052	15.369	1133.168	868.873
314.066	15.178	1132.306	867.150
315.081	15.104	1131.813	866.310
316.095	15.161	1130.494	865.517
317.110	15.233	1129.974	865.415
318.125	15.121	1129.254	864.209
319.139	15.243	1128.534	864.210
320.154	15.174	1127.819	863.230
321.168	15.253	1127.352	863.203
322.183	15.272	1126.273	862.402
323.197	15.240	1126.199	862.102
324.212	15.173	1125.337	861.021
325.227	15.252	1124.760	860.910
326.241	15.273	1124.175	860.493
327.256	15.313	1123.220	859.893
328.270	15.276	1122.080	858.752
329.285	15.222	1121.629	858.056
330.300	15.354	1120.343	857.669
331.314	15.330	1119.611	856.911
332.329	15.361	1118.000	855.762
333.343	15.446	1117.614	855.822
334.358	15.495	1116.526	855.164
335.373	15.527	1115.979	854.831
336.387	15.486	1115.496	854.179
337.402	15.470	1114.686	853.404
338.416	15.534	1114.157	853.248
339.431	15.516	1113.480	852.563
340.446	15.623	1112.844	852.540
341.460	15.697	1112.022	852.211
342.475	15.717	1111.182	851.596
343.489	15.762	1110.436	851.175
344.504	15.780	1109.405	850.399
345.519	15.669	1108.434	849.018
346.533	15.889	1107.771	849.546
347.548	15.881	1107.084	848.907
348.562	15.931	1105.988	848.242
349.577	15.726	1105.585	846.827
350.592	15.650	1104.686	845.680
351.606	15.576	1103.921	844.645
352.621	15.625	1102.952	844.077
353.635	15.697	1102.288	843.853
354.650	15.733	1101.760	843.554
355.665	15.739	1100.846	842.814
356.679	15.724	1100.237	842.195
357.694	15.801	1099.859	842.220
358.708	15.841	1099.016	841.696
359.723	15.811	1098.233	840.874
360.738	15.813	1098.011	840.641
361.752	15.819	1097.591	840.272
362.767	15.861	1096.725	839.744
363.781	15.855	1096.046	839.123
364.796	16.011	1095.674	839.539
365.810	16.066	1094.705	838.997
366.825	16.077	1094.460	838.787
367.840	16.135	1094.044	838.683
368.854	16.269	1093.134	838.578
369.869	16.196	1092.642	837.766
370.883	16.304	1091.367	837.247
371.898	16.102	1090.841	835.768
372.913	16.070	1090.579	835.337
373.927	16.173	1089.646	835.058
374.942	16.257	1088.951	834.868
375.956	16.198	1089.153	834.655
376.971	16.182	1088.056	833.663
377.986	16.300	1087.392	833.663
379.000	16.280	1087.085	833.255
380.015	16.381	1086.282	833.063
381.029	16.277	1085.837	832.135
382.044	16.439	1084.965	832.191
383.059	16.396	1084.022	831.182
384.073	16.423	1083.464	830.812
385.088	16.457	1082.386	830.082
386.102	16.480	1081.462	829.413
387.117	16.444	1080.101	828.118
388.132	16.305	1079.629	827.004
389.146	16.449	1078.716	826.933
390.161	16.348	1078.036	825.847
391.175	16.320	1077.682	825.366
392.190	16.436	1076.879	825.243
393.205	16.407	1076.366	824.637
394.219	16.367	1075.330	823.575
395.234	16.430	1074.108	822.871
396.248	16.339	1073.382	821.800
397.263	16.397	1072.160	821.073
398.278	16.365	1071.689	820.487
399.292	16.277	1070.859	819.353
400.307	16.258	1070.300	818.756
401.321	16.470	1069.478	819.082
402.336	16.414	1069.026	818.391
403.350	16.400	1067.944	817.425
404.365	16.333	1067.749	816.878
405.380	16.499	1066.914	816.971
406.394	16.507	1066.337	816.494
407.409	16.634	1065.330	816.263
408.423	16.694	1064.446	815.804
409.438	16.556	1064.011	814.735
410.453	16.732	1063.282	814.951
411.467	16.725	1062.377	814.153
412.482	16.734	1061.871	813.736
413.496	16.751	1061.408	813.390
414.511	16.858	1060.519	813.151
415.526	16.860	1060.032	812.712
416.540	16.889	1059.825	812.622
417.555	16.931	1059.149	812.235
418.569	16.866	1058.574	811.411
419.584	16.895	1058.398	811.341
420.599	16.897	1057.405	810.519
421.613	73.154	1274.454	1289.757
422.628	67.368	1306.121	1289.893
