DTS Sentinel unit serial number:	SN413079Multiplexer serial number:	ORYXHardware model number:	OX4-SRSoftware version number:	ORYX F/W v4.00 Oryx Data Collector v3.7.2.0data status	okinstallation	princeton_trtdifferential loss correction	single-endedforward channel	channel 2reverse channel	N/Adate	2019/09/16time	06:23:34forward acquisition time	60.00reverse acquisition time	0.00gamma	496.2192k internal	0.2334k external	0.2334temperature offset calibration	0.9982default loss term (dB/km)	0.3790temperature slope calibration	1.0000multiplexer offset coefficient	1.0000multiplexer slope coefficient	1.0000fibre end	0.00T internal ref (°C)	27.41T ext. ref 1 (°C)	11.35T ext. ref 2 (°C)	21.64length (m)	temperature (°C)	Stokes	anti-Stokes-747.200	800.000	-0.098	-0.278
-746.185	71.777	-0.107	0.112
-745.171	-114.966	-0.182	-0.035
-744.156	43.501	-0.208	0.191
-743.142	40.790	0.074	0.067
-742.127	-200.000	-0.017	0.183
-741.112	49.568	0.218	0.206
-740.098	800.000	-0.092	0.300
-739.083	-40.637	0.330	0.172
-738.069	-133.136	-0.193	0.025
-737.054	800.000	0.037	0.124
-736.039	-113.331	-0.051	0.010
-735.025	10.151	0.162	-0.124
-734.010	74.858	-0.228	-0.241
-732.996	800.000	-0.047	0.165
-731.981	-200.000	0.041	-0.338
-730.966	0.416	0.091	-0.065
-729.952	800.000	0.022	-0.086
-728.937	-82.013	-0.158	0.052
-727.923	-200.000	0.018	0.236
-726.908	37.260	-0.205	-0.182
-725.894	-112.259	0.297	-0.060
-724.879	-58.503	-0.168	-0.073
-723.864	128.971	0.075	-0.096
-722.850	-24.046	0.185	0.111
-721.835	-97.431	0.147	-0.038
-720.821	800.000	0.109	0.391
-719.806	-55.046	0.270	-0.122
-718.791	-72.101	-0.202	-0.075
-717.777	496.246	0.105	0.244
-716.762	-192.333	-0.171	0.002
-715.748	800.000	0.109	-0.330
-714.733	-145.315	-0.101	-0.009
-713.718	118.655	0.210	-0.260
-712.704	-89.995	0.174	0.051
-711.689	-200.000	-0.007	0.059
-710.675	-160.420	0.284	-0.015
-709.660	-200.000	-0.018	-0.255
-708.645	218.146	0.066	0.105
-707.631	800.000	-0.053	-0.178
-706.616	93.719	0.116	0.132
-705.602	389.986	-0.123	-0.257
-704.587	800.000	0.099	0.362
-703.572	177.537	-0.135	-0.197
-702.558	197.132	-0.137	0.210
-701.543	-200.000	0.020	0.107
-700.529	318.953	0.125	0.238
-699.514	-146.537	0.126	0.011
-698.499	-128.482	-0.037	-0.005
-697.485	-14.779	-0.068	-0.044
-696.470	-143.398	0.385	-0.037
-695.456	50.230	0.037	0.035
-694.441	-200.000	0.014	-0.125
-693.426	68.874	0.311	-0.320
-692.412	32.276	-0.162	0.140
-691.397	-200.000	-0.005	0.115
-690.383	-200.000	-0.006	-0.062
-689.368	-84.226	-0.029	0.009
-688.354	-4.917	0.073	0.051
-687.339	42.274	-0.120	-0.110
-686.324	219.292	-0.032	-0.051
-685.310	50.023	-0.112	0.106
-684.295	-200.000	0.009	-0.178
-683.281	548.432	-0.044	-0.105
-682.266	-58.953	-0.285	0.123
-681.251	10.724	0.200	-0.153
-680.237	-102.964	0.159	-0.038
-679.222	-134.244	-0.277	0.034
-678.208	9.886	0.188	-0.143
-677.193	-200.000	0.002	0.023
-676.178	64.788	-0.316	-0.319
-675.164	688.376	0.077	-0.201
-674.149	150.457	0.019	-0.026
-673.135	145.412	0.200	-0.268
-672.120	26.696	0.079	-0.066
-671.105	438.920	0.106	0.232
-670.091	800.000	-0.138	-0.452
-669.076	754.694	0.084	-0.228
-668.062	74.112	-0.093	0.098
-667.047	59.851	-0.140	-0.139
-666.032	-200.000	-0.022	0.163
-665.018	-54.520	0.292	-0.132
-664.003	-32.504	0.351	0.196
-662.989	46.599	-0.123	-0.114
-661.974	-200.000	0.019	-0.097
-660.959	55.844	0.157	0.152
-659.945	-49.592	0.125	0.060
-658.930	185.955	-0.060	-0.089
-657.916	11.906	0.084	-0.064
-656.901	110.401	-0.092	-0.111
-655.886	-52.552	-0.234	0.109
-654.872	-11.294	0.186	0.123
-653.857	257.215	0.060	-0.103
-652.843	-132.375	-0.318	0.041
-651.828	-200.000	0.003	0.354
-650.814	292.196	-0.141	-0.257
-649.799	24.245	0.046	0.038
-648.784	-7.842	-0.152	-0.103
-647.770	56.767	-0.072	-0.071
-646.755	41.238	0.317	-0.287
-645.741	-200.000	0.059	-0.260
-644.726	-47.474	0.284	-0.138
-643.711	-116.351	-0.169	-0.031
-642.697	74.764	0.277	-0.292
-641.682	202.206	-0.166	-0.256
-640.668	-12.082	-0.330	0.216
-639.653	216.428	-0.161	-0.256
-638.638	-113.212	-0.356	-0.070
-637.624	-200.000	-0.037	-0.180
-636.609	-65.249	0.309	-0.124
-635.595	332.058	-0.079	0.153
-634.580	800.000	0.017	-0.046
-633.565	-117.840	0.207	0.037
-632.551	132.780	-0.148	0.191
-631.536	9.427	-0.165	0.125
-630.522	159.140	0.239	0.332
-629.507	-171.304	-0.301	-0.010
-628.492	119.012	-0.093	0.115
-627.478	-81.091	-0.051	0.017
-626.463	-200.000	0.024	-0.163
-625.449	-160.983	-0.313	-0.016
-624.434	-200.000	-0.013	-0.164
-623.419	-43.596	-0.108	-0.055
-622.405	-97.025	0.268	0.070
-621.390	657.531	-0.036	0.092
-620.376	-27.533	-0.173	-0.101
-619.361	23.398	-0.188	0.155
-618.346	9.442	-0.396	-0.300
-617.332	352.844	0.142	-0.281
-616.317	-43.554	0.096	-0.048
-615.303	-125.589	-0.112	0.017
-614.288	-200.000	0.016	-0.111
-613.273	91.182	-0.083	-0.094
-612.259	-200.000	0.031	0.407
-611.244	-200.000	0.002	0.175
-610.230	316.495	-0.061	0.116
-609.215	249.993	0.044	0.074
-608.201	-149.278	0.067	0.005
-607.186	-52.197	0.214	0.099
-606.171	-74.311	-0.228	-0.082
-605.157	170.046	-0.105	-0.150
-604.142	31.551	-0.288	-0.248
-603.128	180.366	0.145	-0.213
-602.113	800.000	0.068	0.288
-601.098	-5.896	0.246	-0.168
-600.084	-57.397	0.088	0.038
-599.069	73.756	0.075	0.079
-598.055	-146.126	-0.306	-0.027
-597.040	800.000	-0.064	-0.263
-596.025	-7.805	0.160	-0.108
-595.011	-119.985	-0.347	0.060
-593.996	-114.642	-0.388	0.074
-592.982	-200.000	0.007	0.117
-591.967	-18.650	0.257	0.160
-590.952	195.638	-0.009	0.013
-589.938	-13.880	0.106	0.069
-588.923	-33.286	0.355	0.196
-587.909	123.474	0.108	-0.136
-586.894	20.184	-0.333	0.268
-585.879	-124.760	0.388	-0.060
-584.865	28.330	-0.114	0.097
-583.850	109.675	-0.066	0.079
-582.836	-71.403	0.079	-0.030
-581.821	-65.104	-0.307	0.124
-580.806	-86.996	-0.137	0.042
-579.792	800.000	0.044	-0.147
-578.777	79.616	0.167	-0.179
-577.763	-172.400	-0.426	0.014
-576.748	117.131	-0.166	-0.204
-575.733	230.336	-0.234	-0.383
-574.719	232.623	0.069	-0.113
-573.704	-151.631	0.125	0.009
-572.690	324.620	0.046	0.088
-571.675	-58.726	0.206	0.089
-570.661	-126.655	-0.205	0.030
-569.646	-29.822	-0.124	0.071
-568.631	-60.738	0.300	0.127
-567.617	31.183	0.053	0.045
-566.602	-100.623	-0.137	-0.034
-565.588	62.448	-0.045	-0.045
-564.573	271.566	-0.144	0.254
-563.558	69.116	-0.100	0.103
-562.544	511.829	0.156	0.363
-561.529	-200.000	0.014	0.152
-560.515	27.329	0.175	0.147
-559.500	118.675	-0.091	-0.113
-558.485	-183.877	0.246	0.004
-557.471	288.967	0.040	-0.073
-556.456	382.271	0.095	0.194
-555.442	-85.435	-0.384	0.119
-554.427	-200.000	0.063	0.340
-553.412	-200.000	-0.013	0.086
-552.398	-60.146	-0.367	-0.156
-551.383	-91.122	0.330	0.094
-550.369	-75.334	-0.116	0.041
-549.354	390.820	-0.121	-0.251
-548.339	104.269	0.070	0.082
-547.325	-120.284	-0.398	0.068
-546.310	100.116	-0.077	-0.089
-545.296	36.562	0.196	0.173
-544.281	-200.000	0.012	-0.123
-543.266	800.000	0.061	-0.248
-542.252	-124.904	0.190	-0.029
-541.237	-129.340	0.247	-0.034
-540.223	95.285	0.289	0.329
-539.208	454.855	0.142	-0.314
-538.193	396.404	0.100	0.208
-537.179	414.034	-0.112	-0.238
-536.164	-200.000	0.005	-0.048
-535.150	256.395	0.104	0.177
-534.135	34.914	-0.174	-0.151
-533.121	-168.981	0.073	0.003
-532.106	-95.944	0.111	-0.029
-531.091	15.335	0.246	-0.192
-530.077	132.920	0.144	-0.185
-529.062	53.737	0.184	0.176
-528.048	732.852	0.092	0.246
-527.033	85.552	-0.074	-0.080
-526.018	-200.000	0.001	-0.460
-525.004	-51.907	0.083	-0.039
-523.989	-200.000	0.006	0.300
-522.975	368.843	-0.041	-0.084
-521.960	31.848	0.166	-0.142
-520.945	164.318	0.131	-0.184
-519.931	-7.607	-0.142	0.095
-518.916	-95.817	0.192	0.051
-517.902	79.209	-0.094	0.100
-516.887	91.741	0.159	-0.178
-515.872	-22.001	-0.141	0.086
-514.858	-200.000	0.001	0.264
-513.843	-143.652	-0.328	-0.031
-512.829	-94.625	0.248	0.067
-511.814	-15.460	0.411	0.262
-510.799	-23.505	-0.144	0.086
-509.785	-200.000	-0.004	-0.233
-508.770	-17.565	0.328	-0.205
-507.756	-113.805	0.099	-0.019
-506.741	-189.945	0.169	-0.002
-505.726	800.000	0.067	-0.240
-504.712	-144.377	0.091	-0.008
-503.697	-200.000	0.050	-0.351
-502.683	328.623	-0.082	0.156
-501.668	800.000	-0.061	0.192
-500.653	11.026	-0.111	0.084
-499.639	649.066	0.118	-0.301
-498.624	0.719	0.192	-0.137
-497.610	407.703	-0.143	-0.300
-496.595	-119.355	0.043	-0.007
-495.581	-173.083	0.155	-0.005
-494.566	11.608	-0.060	-0.046
-493.551	-147.281	-0.154	0.013
-492.537	-96.755	-0.149	0.039
-491.522	54.639	0.345	-0.331
-490.508	-170.675	-0.359	0.012
-489.493	800.000	-0.106	-0.308
-488.478	-105.008	0.219	0.050
-487.464	800.000	-0.058	-0.160
-486.449	800.000	-0.039	-0.143
-485.435	-1.391	0.156	0.109
-484.420	27.716	0.252	0.211
-483.405	-128.461	0.205	-0.029
-482.391	-62.808	0.313	0.129
-481.376	-51.323	-0.304	0.141
-480.362	30.570	-0.219	-0.186
-479.347	3.387	-0.167	-0.121
-478.332	277.329	0.097	-0.172
-477.318	-200.000	0.029	-0.162
-476.303	-142.235	0.284	-0.028
-475.289	366.901	-0.131	0.263
-474.274	2.514	0.229	-0.165
-473.259	-117.010	0.292	-0.053
-472.245	-200.000	0.022	0.113
-471.230	670.436	-0.095	-0.245
-470.216	-146.607	0.232	0.020
-469.201	183.697	0.023	-0.034
-468.186	-200.000	-0.003	-0.029
-467.172	-170.611	-0.409	-0.014
-466.157	800.000	0.046	0.183
-465.143	678.969	-0.072	-0.187
-464.128	100.841	-0.090	-0.103
-463.113	85.889	0.092	-0.101
-462.099	22.577	-0.163	0.133
-461.084	-50.331	0.171	-0.080
-460.070	-64.917	-0.253	-0.102
-459.055	800.000	0.124	-0.433
-458.040	24.604	-0.170	0.140
-457.026	-86.595	-0.240	0.073
-456.011	47.497	-0.115	-0.107
-454.997	-62.264	0.164	-0.068
-453.982	-111.730	0.354	0.071
-452.968	536.799	0.079	0.186
-451.953	223.602	0.065	-0.105
-450.938	176.571	0.042	0.061
-449.924	-112.497	-0.316	0.063
-448.909	-200.000	0.008	-0.105
-447.895	59.529	-0.200	0.196
-446.880	3.030	-0.303	0.219
-445.865	-200.000	0.006	0.081
-444.851	3.142	-0.107	-0.077
-443.836	-5.817	-0.302	-0.205
-442.822	119.490	0.109	-0.134
-441.807	-13.040	0.115	0.074
-440.792	27.282	0.240	-0.200
-439.778	-149.853	-0.188	-0.015
-438.763	-111.363	0.463	0.094
-437.749	100.647	-0.242	-0.279
-436.734	417.887	0.176	-0.374
-435.719	-8.184	-0.213	0.142
-434.705	462.716	-0.063	0.140
-433.690	17.620	-0.056	0.044
-432.676	0.725	0.177	0.126
-431.661	-45.661	-0.288	-0.142
-430.646	-200.000	0.005	-0.090
-429.632	33.924	-0.272	-0.235
-428.617	557.197	-0.019	-0.045
-427.603	434.581	0.067	0.145
-426.588	-93.998	0.418	-0.114
-425.573	-98.275	-0.135	0.034
-424.559	-25.196	0.147	0.086
-423.544	-30.939	-0.122	0.068
-422.530	-28.806	-0.168	0.096
-421.515	-132.373	-0.198	0.025
-420.500	-200.000	-0.024	0.189
-419.486	-200.000	0.005	-0.126
-418.471	-106.819	-0.095	0.021
-417.457	800.000	-0.095	-0.308
-416.442	204.809	0.070	-0.108
-415.428	26.763	0.051	-0.042
-414.413	-51.286	0.152	-0.070
-413.398	-99.545	-0.234	0.058
-412.384	-86.816	-0.023	-0.007
-411.369	-61.023	-0.116	-0.048
-410.355	-71.960	-0.131	0.048
-409.340	-185.450	-0.174	-0.003
-408.325	-200.000	-0.072	-0.437
-407.311	45.440	0.148	0.135
-406.296	316.060	-0.127	0.238
-405.282	775.619	0.125	0.339
-404.267	481.553	-0.162	0.364
-403.252	255.457	0.191	-0.325
-402.238	-159.407	0.236	-0.013
-401.223	-50.028	0.198	0.093
-400.209	-169.541	-0.090	-0.003
-399.194	-103.104	0.364	-0.086
-398.179	-35.983	0.319	0.171
-397.165	-133.813	-0.160	0.020
-396.150	8.193	0.121	-0.090
-395.136	116.324	0.262	0.318
-394.121	150.226	-0.138	-0.185
-393.106	-29.600	-0.217	0.123
-392.092	-28.501	0.239	-0.136
-391.077	-105.440	-0.135	0.030
-390.063	-50.756	-0.224	-0.104
-389.048	-200.000	0.004	0.039
-388.033	-200.000	0.022	-0.113
-387.019	-176.218	0.127	0.003
-386.004	-58.307	-0.434	0.187
-384.990	571.937	0.176	-0.424
-383.975	44.572	0.443	0.403
-382.960	-8.943	0.257	-0.170
-381.946	-63.882	-0.081	-0.033
-380.931	319.693	0.155	-0.291
-379.917	800.000	0.045	-0.130
-378.902	2.673	-0.325	0.234
-377.888	52.945	0.108	-0.102
-376.873	800.000	0.062	-0.203
-375.858	-93.565	-0.158	-0.043
-374.844	800.000	-0.114	0.330
-373.829	39.203	0.313	-0.278
-372.815	56.303	-0.079	-0.076
-371.800	293.427	-0.075	-0.136
-370.785	-166.873	0.270	0.011
-369.771	126.367	-0.055	-0.069
-368.756	-197.328	0.256	-0.002
-367.742	-200.000	-0.002	-0.157
-366.727	-200.000	0.013	-0.056
-365.712	-27.550	0.207	-0.119
-364.698	135.830	0.110	-0.142
-363.683	-200.000	0.015	0.216
-362.669	-200.000	0.035	0.390
-361.654	-158.000	0.244	-0.014
-360.639	14.621	0.075	0.058
-359.625	-200.000	0.065	-0.354
-358.610	81.745	-0.106	-0.113
-357.596	118.231	0.108	-0.132
-356.581	206.729	-0.311	0.480
-355.566	-127.077	0.369	0.054
-354.552	18.866	-0.157	-0.124
-353.537	-79.634	-0.167	-0.056
-352.523	-24.461	-0.202	0.119
-351.508	-33.600	-0.056	-0.030
-350.493	124.776	-0.176	0.220
-349.479	-92.826	0.305	-0.085
-348.464	103.783	0.104	0.121
-347.450	-200.000	0.009	-0.051
-346.435	17.544	0.370	0.291
-345.420	230.467	0.148	-0.239
-344.406	-200.000	-0.009	-0.158
-343.391	-200.000	0.002	-0.163
-342.377	79.584	0.317	-0.336
-341.362	400.371	0.109	0.226
-340.348	-60.684	-0.443	-0.186
-339.333	135.118	0.129	0.166
-338.318	-200.000	-0.016	-0.376
-337.304	63.506	-0.188	-0.187
-336.289	-200.000	-0.009	-0.164
-335.275	109.491	0.154	-0.183
-334.260	11.058	-0.308	0.233
-333.245	800.000	-0.012	-0.049
-332.231	774.515	0.039	-0.105
-331.216	800.000	-0.038	0.155
-330.202	800.000	0.037	0.115
-329.187	107.503	-0.127	-0.149
-328.172	800.000	-0.058	0.220
-327.158	-200.000	0.027	0.307
-326.143	36.368	-0.079	0.069
-325.129	-158.663	-0.478	0.027
-324.114	800.000	-0.098	0.277
-323.099	-200.000	-0.025	-0.309
-322.085	82.401	0.213	0.229
-321.070	124.568	0.058	0.072
-320.056	-126.166	-0.276	0.041
-319.041	-66.867	-0.152	-0.059
-318.026	64.479	0.142	-0.141
-317.012	332.750	-0.111	0.212
-315.997	379.222	0.028	0.056
-314.983	25.290	0.200	0.164
-313.968	-88.543	0.248	0.073
-312.953	21.162	-0.114	0.092
-311.939	119.411	-0.088	-0.108
-310.924	152.394	0.061	0.082
-309.910	-200.000	0.022	-0.208
-308.895	-200.000	-0.008	0.149
-307.880	-124.822	0.264	0.040
-306.866	727.244	-0.067	0.177
-305.851	172.873	-0.073	-0.104
-304.837	-91.936	-0.223	0.062
-303.822	-147.911	-0.246	-0.020
-302.807	-129.368	0.089	-0.012
-301.793	-200.000	-0.025	-0.434
-300.778	-21.927	0.215	-0.129
-299.764	285.200	0.157	0.280
-298.749	800.000	-0.057	0.237
-297.735	58.508	0.175	0.170
-296.720	-200.000	0.021	-0.145
-295.705	-200.000	-0.001	0.213
-294.691	145.615	0.201	-0.266
-293.676	-68.965	-0.290	-0.110
-292.662	48.151	-0.158	0.146
-291.647	-57.680	-0.166	-0.072
-290.632	-89.154	-0.177	0.052
-289.618	-139.977	-0.485	-0.051
-288.603	-200.000	0.013	0.096
-287.589	-117.538	0.136	0.024
-286.574	-200.000	0.009	0.161
-285.559	800.000	0.084	0.251
-284.545	245.059	-0.145	0.240
-283.530	-68.844	0.233	-0.089
-282.516	36.047	0.290	-0.252
-281.501	-108.874	-0.218	0.046
-280.486	-169.674	-0.273	0.010
-279.472	-131.528	0.227	0.030
-278.457	-62.570	0.061	0.025
-277.443	800.000	-0.053	-0.177
-276.428	139.824	-0.050	0.065
-275.413	-67.528	-0.165	-0.064
-274.399	-33.182	-0.043	-0.023
-273.384	587.849	-0.076	-0.185
-272.370	352.547	-0.059	-0.116
-271.355	7.234	-0.153	-0.112
-270.340	190.928	0.222	0.330
-269.326	-195.313	-0.297	-0.002
-268.311	30.095	-0.211	-0.178
-267.297	336.717	0.019	-0.037
-266.282	-23.605	-0.338	-0.200
-265.267	-95.113	0.074	-0.020
-264.253	132.741	-0.100	0.127
-263.238	-43.047	-0.274	-0.137
-262.224	800.000	-0.035	0.098
-261.209	-200.000	0.011	0.191
-260.195	-200.000	0.029	0.245
-259.180	-19.528	0.254	0.155
-258.165	-53.143	-0.161	-0.073
-257.151	204.954	0.192	0.294
-256.136	-95.156	-0.024	0.007
-255.122	-141.105	0.113	-0.011
-254.107	-174.607	-0.127	-0.004
-253.092	-56.776	-0.391	0.171
-252.078	285.601	-0.116	0.206
-251.063	800.000	0.057	-0.159
-250.049	200.045	-0.103	0.156
-249.034	-8.015	0.051	0.034
-248.019	-200.000	-0.009	0.162
-247.005	-71.555	0.106	0.039
-245.990	534.061	0.100	0.234
-244.976	800.000	-0.062	0.195
-243.961	52.336	0.104	0.098
-242.946	-1.455	0.079	0.055
-241.932	425.154	-0.088	-0.187
-240.917	-200.000	0.025	0.134
-239.903	362.490	-0.043	-0.086
-238.888	-184.897	0.278	0.004
-237.873	-88.161	0.383	0.113
-236.859	-144.280	0.319	-0.029
-235.844	-159.091	-0.104	-0.006
-234.830	133.217	-0.027	-0.034
-233.815	-91.547	-0.092	-0.026
-232.800	53.809	0.155	0.147
-231.786	-84.272	0.181	0.056
-230.771	496.652	0.023	0.053
-229.757	-142.114	0.058	0.006
-228.742	107.876	-0.067	-0.078
-227.727	-200.000	-0.059	0.281
-226.713	-68.759	0.165	-0.063
-225.698	441.695	-0.037	0.079
-224.684	-200.000	0.002	0.041
-223.669	103.058	0.197	0.228
-222.655	14.662	-0.098	-0.076
-221.640	288.639	0.261	-0.465
-220.625	-133.450	0.275	-0.034
-219.611	361.149	-0.092	0.182
-218.596	-4.848	0.124	-0.084
-217.582	62.812	0.178	0.175
-216.567	-200.000	0.078	0.387
-215.552	-200.000	0.019	0.175
-214.538	365.443	-0.059	-0.117
-213.523	126.867	-0.206	0.257
-212.509	-200.000	-0.032	0.142
-211.494	98.250	0.121	0.137
-210.479	-200.000	0.002	-0.124
-209.465	21.255	-0.090	-0.072
-208.450	-75.863	0.317	0.110
-207.436	61.598	-0.190	0.186
-206.421	-53.640	-0.235	-0.106
-205.406	800.000	0.022	0.082
-204.392	-125.200	-0.421	0.064
-203.377	-200.000	0.016	0.099
-202.363	-200.000	-0.013	-0.108
-201.348	136.000	-0.280	0.360
-200.333	-200.000	0.008	0.109
-199.319	48.074	-0.274	-0.252
-198.304	-200.000	0.041	0.176
-197.290	-50.929	0.251	0.116
-196.275	18.638	-0.273	-0.215
-195.260	-122.727	0.203	-0.032
-194.246	-73.883	0.382	0.136
-193.231	-41.347	0.360	0.183
-192.217	97.189	0.103	-0.116
-191.202	-108.447	0.064	-0.014
-190.187	214.334	-0.052	0.081
-189.173	354.655	-0.147	-0.287
-188.158	-17.936	0.219	0.135
-187.144	-150.552	-0.414	0.031
-186.129	86.201	-0.145	-0.157
-185.114	683.513	0.065	-0.167
-184.100	446.182	-0.124	-0.269
-183.085	486.234	0.078	0.174
-182.071	375.871	-0.074	0.148
-181.056	-158.821	0.306	0.017
-180.042	21.660	-0.221	-0.177
-179.027	-61.190	-0.231	0.096
-178.012	-173.954	-0.086	-0.002
-176.998	48.169	0.141	-0.130
-175.983	337.504	-0.167	0.320
-174.969	312.712	-0.075	0.138
-173.954	6.332	0.139	-0.101
-172.939	361.692	-0.136	0.269
-171.925	-200.000	0.013	0.205
-170.910	800.000	-0.084	-0.233
-169.896	-197.343	0.402	-0.002
-168.881	-99.787	-0.301	-0.074
-167.866	-4.236	-0.159	-0.108
-166.852	50.474	-0.252	0.235
-165.837	72.620	-0.095	-0.097
-164.823	73.041	-0.043	-0.044
-163.808	-40.979	-0.241	-0.122
-162.793	-87.607	0.329	0.098
-161.779	-30.608	0.180	0.100
-160.764	-155.057	0.136	0.009
-159.750	33.277	0.224	0.191
-158.735	570.209	-0.121	-0.289
-157.720	800.000	0.023	-0.096
-156.706	595.934	-0.075	-0.183
-155.691	800.000	0.095	0.300
-154.677	54.740	-0.253	0.239
-153.662	-100.600	0.308	-0.075
-152.647	72.001	-0.113	0.115
-151.633	22.071	-0.151	-0.121
-150.618	-200.000	0.040	0.343
-149.604	800.000	0.059	-0.232
-148.589	45.042	0.286	-0.259
-147.574	800.000	-0.060	0.186
-146.560	370.650	-0.199	0.396
-145.545	-161.750	-0.327	0.016
-144.531	-200.000	-0.007	0.099
-143.516	138.696	-0.177	0.228
-142.502	-75.827	0.093	-0.032
-141.487	298.360	0.091	-0.165
-140.472	-200.000	-0.031	0.415
-139.458	-121.980	-0.067	0.011
-138.443	215.451	0.157	0.244
-137.429	-200.000	-0.031	-0.291
-136.414	-200.000	0.007	0.142
-135.399	9.612	0.183	0.136
-134.385	-152.289	-0.291	-0.021
-133.370	-10.382	-0.129	0.084
-132.356	120.584	-0.201	-0.245
-131.341	-200.000	-0.047	-0.000
-130.326	-89.942	-0.257	-0.074
-129.312	44.738	0.169	0.153
-128.297	-200.000	0.001	0.117
-127.283	-7.218	0.238	-0.158
-126.268	91.409	-0.164	-0.180
-125.253	737.461	0.178	0.468
-124.239	-200.000	-0.002	-0.216
-123.224	800.000	0.041	0.153
-122.210	-41.101	-0.279	0.141
-121.195	-35.327	-0.159	-0.085
-120.180	-28.932	-0.166	0.093
-119.166	800.000	0.056	-0.183
-118.151	-33.610	0.072	-0.039
-117.137	-132.733	-0.134	0.017
-116.122	-12.759	-0.097	-0.062
-115.107	-200.000	0.007	-0.178
-114.093	-71.937	0.381	-0.139
-113.078	-45.489	-0.185	0.090
-112.064	355.749	0.014	0.028
-111.049	183.537	-0.063	0.091
-110.034	-200.000	-0.004	0.068
-109.020	-200.000	-0.011	0.180
-108.005	18.664	0.255	0.200
-106.991	83.092	0.124	0.132
-105.976	47.799	0.326	0.298
-104.962	-200.000	0.024	-0.105
-103.947	171.259	0.197	0.277
-102.932	36.723	-0.126	0.109
-101.918	-200.000	0.010	-0.127
-100.903	-119.976	-0.287	0.048
-99.889	-86.929	-0.167	-0.050
-98.874	-74.625	0.177	0.062
-97.859	40.111	0.077	-0.068
-96.845	-75.921	-0.035	-0.012
-95.830	-121.799	-0.172	-0.028
-94.816	110.952	-0.181	-0.213
-93.801	721.259	-0.179	0.468
-92.786	800.000	-0.066	0.226
-91.772	83.096	0.130	-0.139
-90.757	351.714	-0.089	-0.172
-89.743	492.331	0.087	0.196
-88.728	-178.852	-0.142	0.003
-87.713	636.462	0.129	0.320
-86.699	-149.396	0.168	0.013
-85.684	-34.097	-0.200	-0.108
-84.670	510.687	-0.060	0.137
-83.655	800.000	0.056	-0.175
-82.640	-72.697	-0.052	0.019
-81.626	193.170	0.060	0.089
-80.611	-105.673	0.188	0.042
-79.597	-149.149	0.155	-0.012
-78.582	-196.746	-0.280	0.002
-77.567	-138.825	0.320	0.034
-76.553	325.514	0.123	-0.230
-75.538	-199.391	0.085	0.000
-74.524	262.240	-0.225	-0.383
-73.509	40.596	0.238	-0.210
-72.494	419.384	0.150	0.314
-71.480	43.521	0.148	0.133
-70.465	-58.820	0.305	0.129
-69.451	-106.006	0.255	0.056
-68.436	800.000	-0.094	-0.258
-67.422	98.502	-0.168	0.190
-66.407	800.000	0.074	0.213
-65.392	10.847	-0.280	0.209
-64.378	-200.000	0.015	0.202
-63.363	89.409	-0.222	0.242
-62.349	99.963	0.183	0.208
-61.334	9.409	-1.114	-0.825
-60.319	-10.129	0.888	0.577
-59.305	153.555	-0.651	-0.872
-58.290	150.050	0.979	1.300
-57.276	392.932	0.619	1.259
-56.261	-200.000	114.034	642.339
-55.246	464.653	1511.903	3308.465
-54.232	145.435	2688.826	3522.869
-53.217	96.715	2296.086	2573.280
-52.203	36.370	1906.270	1644.636
-51.188	30.488	1697.682	1419.833
-50.173	28.045	1655.641	1366.380
-49.159	50.150	1710.100	1579.539
-48.144	48.858	1724.608	1583.100
-47.130	30.193	1683.088	1405.167
-46.115	27.487	1669.027	1373.010
-45.100	27.335	1663.980	1367.660
-44.086	27.246	1660.994	1364.479
-43.071	27.294	1658.577	1362.805
-42.057	27.197	1656.589	1360.385
-41.042	27.205	1654.309	1358.519
-40.027	27.295	1652.483	1357.641
-39.013	27.327	1650.441	1356.146
-37.998	27.276	1648.440	1354.070
-36.984	27.178	1647.739	1352.711
-35.969	27.302	1646.325	1352.420
-34.954	27.350	1644.609	1351.307
-33.940	27.386	1642.661	1349.922
-32.925	27.428	1640.474	1348.380
-31.911	27.308	1639.220	1346.413
-30.896	27.309	1637.356	1344.831
-29.881	27.338	1635.596	1343.548
-28.867	27.464	1633.764	1342.922
-27.852	27.386	1632.067	1340.896
-26.838	27.407	1630.611	1339.804
-25.823	27.479	1629.551	1339.411
-24.809	27.538	1628.160	1338.644
-23.794	27.435	1626.813	1336.726
-22.779	27.428	1625.197	1335.299
-21.765	27.431	1623.728	1334.060
-20.750	27.444	1622.714	1333.265
-19.736	27.402	1621.224	1331.680
-18.721	27.472	1619.231	1330.507
-17.706	27.425	1617.993	1329.091
-16.692	27.406	1616.590	1327.745
-15.677	27.496	1615.441	1327.408
-14.663	27.531	1613.391	1325.928
-13.648	27.532	1612.169	1324.873
-12.633	27.368	1610.929	1322.609
-11.619	27.444	1609.381	1321.840
-10.604	27.466	1607.565	1320.457
-9.590	27.477	1606.691	1319.767
-8.575	27.507	1605.060	1318.591
-7.560	27.483	1604.023	1317.514
-6.546	27.485	1602.906	1316.556
-5.531	27.349	1602.316	1315.039
-4.517	27.429	1600.545	1314.108
-3.502	27.335	1600.356	1313.226
-2.487	27.455	1598.199	1312.268
-1.473	27.040	1586.484	1299.626
-0.458	24.374	1566.785	1264.567
0.556	19.212	1568.701	1233.392
1.571	17.036	1592.176	1235.911
2.586	16.597	1604.590	1242.213
3.600	16.210	1554.744	1200.761
4.615	14.103	1457.002	1111.113
5.629	11.929	1402.793	1055.679
6.644	11.431	1396.108	1047.360
7.659	11.384	1394.986	1046.126
8.673	11.340	1393.698	1044.784
9.688	11.265	1392.302	1043.161
10.702	11.308	1388.717	1040.663
11.717	12.336	1389.685	1047.857
12.731	14.818	1394.065	1066.927
13.746	17.183	1397.377	1084.485
14.761	17.571	1397.620	1087.054
15.775	16.743	1394.898	1079.567
16.790	15.705	1392.401	1070.929
17.804	14.823	1389.806	1063.231
18.819	14.294	1388.320	1058.637
19.834	14.156	1386.461	1056.250
20.848	13.889	1385.948	1054.069
21.863	13.599	1384.426	1050.984
22.877	13.514	1383.205	1049.425
23.892	13.480	1381.994	1048.198
24.907	13.501	1381.345	1047.748
25.921	13.470	1380.447	1046.771
26.936	13.488	1379.529	1046.102
27.950	13.587	1378.504	1045.854
28.965	13.685	1377.082	1045.302
29.980	13.639	1376.568	1044.527
30.994	13.713	1375.032	1043.737
32.009	13.789	1373.771	1043.165
33.023	13.752	1372.489	1041.864
34.038	13.731	1370.999	1040.514
35.053	13.668	1370.117	1039.356
36.067	13.609	1368.856	1037.939
37.082	13.645	1367.913	1037.357
38.096	13.757	1366.881	1037.179
39.111	13.722	1366.052	1036.239
40.126	13.546	1365.601	1034.712
41.140	13.440	1364.401	1033.048
42.155	13.367	1364.337	1032.449
43.169	13.320	1363.863	1031.706
44.184	13.375	1363.471	1031.663
45.199	13.410	1362.887	1031.346
46.213	13.397	1362.621	1030.973
47.228	13.525	1361.625	1030.924
48.242	13.477	1359.943	1029.264
49.257	13.519	1358.621	1028.432
50.271	13.493	1357.353	1027.219
51.286	13.577	1355.877	1026.530
52.301	13.539	1354.357	1025.056
53.315	13.430	1353.386	1023.559
54.330	13.473	1352.305	1022.915
55.344	13.434	1351.032	1021.622
56.359	13.486	1350.497	1021.446
57.374	13.451	1349.667	1020.515
58.388	13.485	1348.533	1019.774
59.403	13.333	1348.498	1018.720
60.417	13.332	1347.645	1017.981
61.432	13.312	1346.721	1017.067
62.447	13.239	1345.559	1015.653
63.461	13.265	1344.560	1014.970
64.476	13.299	1343.380	1014.197
65.490	13.247	1342.475	1013.108
66.505	13.308	1340.738	1012.079
67.520	13.348	1339.529	1011.317
68.534	13.409	1337.858	1010.340
69.549	13.369	1337.409	1009.669
70.563	13.340	1336.148	1008.453
71.578	13.293	1335.239	1007.388
72.593	13.279	1334.629	1006.752
73.607	13.206	1334.241	1005.931
74.622	13.290	1332.989	1005.404
75.636	13.224	1332.352	1004.438
76.651	13.274	1331.742	1004.189
77.666	13.211	1330.963	1003.131
78.680	13.248	1330.696	1003.068
79.695	13.211	1329.848	1002.114
80.709	13.271	1329.552	1002.163
81.724	13.328	1328.419	1001.569
82.739	13.431	1327.328	1001.281
83.753	13.492	1326.690	1001.077
84.768	13.600	1325.049	1000.402
85.782	13.575	1324.445	999.707
86.797	13.643	1322.363	998.458
87.812	13.547	1321.296	996.988
88.826	13.456	1320.574	995.808
89.841	13.589	1319.345	995.593
90.855	13.526	1318.603	994.566
91.870	13.556	1317.533	993.848
92.884	13.613	1316.501	993.325
93.899	13.615	1316.083	992.934
94.914	13.677	1315.271	992.605
95.928	13.663	1314.160	991.595
96.943	13.621	1313.186	990.520
97.957	13.630	1312.423	989.911
98.972	13.560	1311.632	988.810
99.987	13.606	1309.875	987.673
101.001	13.567	1309.459	987.037
102.016	13.512	1308.299	985.747
103.030	13.670	1307.263	985.820
104.045	13.626	1306.455	984.861
105.060	13.635	1304.653	983.470
106.074	13.500	1303.212	981.499
107.089	13.321	1302.553	979.852
108.103	13.383	1301.212	979.124
109.118	13.278	1299.802	977.355
110.133	13.352	1298.318	976.593
111.147	13.463	1296.368	975.694
112.162	13.423	1295.491	974.713
113.176	13.423	1294.656	973.995
114.191	13.412	1294.089	973.420
115.206	13.402	1292.468	972.053
116.220	13.498	1291.369	971.708
117.235	13.409	1290.331	970.319
118.249	13.402	1289.428	969.509
119.264	13.367	1288.224	968.316
120.279	13.436	1286.703	967.490
121.293	13.245	1286.474	966.113
122.308	13.420	1284.975	965.927
123.322	13.344	1283.983	964.652
124.337	13.315	1282.931	963.607
125.352	13.359	1281.920	963.019
126.366	13.385	1280.383	961.930
127.381	13.402	1279.540	961.308
128.395	13.369	1278.676	960.385
129.410	13.452	1277.293	959.742
130.424	13.385	1276.861	958.942
131.439	13.444	1275.522	958.193
132.454	13.510	1274.351	957.612
133.468	13.451	1273.945	956.880
134.483	13.437	1273.172	956.135
135.497	13.489	1271.748	955.279
136.512	13.456	1270.744	954.254
137.527	13.576	1269.129	953.648
138.541	13.474	1267.800	951.979
139.556	13.454	1266.756	950.991
140.570	13.560	1265.799	950.799
141.585	13.511	1264.776	949.663
142.600	13.561	1263.452	948.872
143.614	13.667	1262.443	948.640
144.629	13.700	1261.427	947.981
145.643	13.681	1259.834	946.588
146.658	13.621	1258.655	945.279
147.673	13.633	1257.228	944.190
148.687	13.448	1256.530	942.530
149.702	13.551	1254.915	941.823
150.716	13.488	1253.562	940.367
151.731	13.578	1252.584	940.060
152.746	13.636	1251.283	939.331
153.760	13.671	1249.515	938.118
154.775	13.661	1248.947	937.553
155.789	13.780	1247.698	937.200
156.804	13.645	1247.212	935.992
157.819	13.694	1245.963	935.249
158.833	13.724	1245.071	934.666
159.848	13.900	1244.302	934.998
160.862	13.826	1242.962	933.489
161.877	13.729	1241.941	932.093
162.892	13.676	1240.991	931.004
163.906	13.632	1239.990	929.922
164.921	13.658	1239.062	929.291
165.935	13.662	1238.318	928.673
166.950	13.770	1237.234	928.380
167.964	13.723	1236.688	927.625
168.979	13.771	1235.921	927.238
169.994	13.793	1235.105	926.665
171.008	13.786	1234.522	926.110
172.023	13.778	1233.779	925.421
173.037	13.861	1232.622	924.938
174.052	13.921	1231.850	924.608
175.067	13.844	1230.126	922.806
176.081	13.791	1229.805	922.187
177.096	13.851	1228.577	921.519
178.110	13.848	1227.427	920.557
179.125	13.883	1226.382	919.890
180.140	13.886	1224.827	918.655
181.154	13.898	1224.109	918.102
182.169	13.914	1223.001	917.278
183.183	14.040	1221.538	916.797
184.198	13.938	1220.716	915.535
185.213	14.007	1219.353	914.809
186.227	13.938	1218.518	913.722
187.242	14.021	1217.198	913.112
188.256	14.046	1216.619	912.733
189.271	14.075	1215.632	912.073
190.286	14.009	1214.210	910.559
191.300	13.937	1213.387	909.468
192.315	13.856	1213.024	908.674
193.329	13.947	1212.431	908.646
194.344	13.819	1211.345	907.051
195.359	13.938	1211.137	907.469
196.373	14.085	1210.367	907.612
197.388	14.066	1210.348	907.415
198.402	14.150	1209.754	907.347
199.417	14.261	1208.936	907.259
200.432	14.243	1207.766	906.199
201.446	14.325	1207.265	906.192
202.461	14.367	1206.377	905.673
203.475	14.401	1204.979	904.730
204.490	14.312	1203.814	903.289
205.504	14.261	1202.733	902.121
206.519	14.304	1201.377	901.257
207.534	14.162	1200.437	899.704
208.548	14.206	1199.853	899.428
209.563	14.251	1198.915	898.887
210.577	14.244	1197.885	897.994
211.592	14.299	1197.006	897.554
212.607	14.398	1196.052	897.292
213.621	14.292	1195.176	895.987
214.636	14.441	1194.418	896.140
215.650	14.456	1193.419	895.393
216.665	14.499	1192.506	894.857
217.680	14.496	1191.883	894.294
218.694	14.453	1190.391	892.865
219.709	14.483	1189.972	892.636
220.723	14.521	1189.272	892.234
221.738	14.446	1188.502	891.175
222.753	14.509	1187.700	890.833
223.767	14.527	1187.131	890.423
224.782	14.657	1186.251	890.379
225.796	14.647	1186.135	890.157
226.811	14.603	1185.600	889.442
227.826	14.565	1184.539	888.364
228.840	14.640	1183.449	887.867
229.855	14.595	1183.213	887.376
230.869	14.676	1182.150	886.930
231.884	14.542	1181.582	885.712
232.899	14.470	1180.900	884.740
233.913	14.594	1179.698	884.419
234.928	14.585	1178.947	883.731
235.942	14.550	1178.346	883.018
236.957	14.540	1177.257	882.069
237.972	14.515	1176.968	881.641
238.986	14.713	1176.340	882.137
240.001	14.688	1175.756	881.490
241.015	14.576	1174.559	879.927
242.030	14.687	1173.655	879.755
243.045	14.681	1173.513	879.542
244.059	14.788	1172.218	879.057
245.074	14.730	1171.983	878.497
246.088	14.712	1170.694	877.357
247.103	14.696	1170.361	876.944
248.117	14.783	1169.391	876.599
249.132	14.937	1168.422	876.602
250.147	14.964	1167.907	876.277
251.161	15.140	1166.878	876.352
252.176	15.071	1166.119	875.344
253.190	15.116	1165.640	875.137
254.205	15.125	1165.499	875.002
255.220	15.250	1164.503	874.830
256.234	15.202	1163.733	873.925
257.249	15.279	1162.995	873.692
258.263	15.133	1162.518	872.501
259.278	15.213	1161.926	872.392
260.293	15.211	1161.765	872.185
261.307	15.327	1160.780	871.972
262.322	15.297	1160.084	871.215
263.336	15.247	1159.268	870.264
264.351	15.375	1158.682	870.412
265.366	15.422	1157.430	869.639
266.380	15.304	1157.455	868.967
267.395	15.310	1155.921	867.774
268.409	15.232	1156.112	867.436
269.424	15.299	1155.581	867.307
270.439	15.187	1154.749	866.025
271.453	15.332	1153.570	865.816
272.468	15.280	1152.733	864.839
273.482	15.335	1151.695	864.266
274.497	15.283	1151.219	863.570
275.512	15.225	1151.337	863.282
276.526	15.239	1150.335	862.526
277.541	15.337	1149.458	862.295
278.555	15.412	1148.765	862.086
279.570	15.458	1148.023	861.689
280.585	15.501	1147.280	861.272
281.599	15.553	1146.410	860.810
282.614	15.469	1145.138	859.348
283.628	15.390	1143.943	857.974
284.643	15.452	1143.448	857.841
285.657	15.506	1142.565	857.382
286.672	15.408	1141.560	856.051
287.687	15.449	1140.778	855.599
288.701	15.436	1140.182	855.010
289.716	15.539	1138.886	854.486
290.730	15.399	1138.617	853.497
291.745	15.516	1138.097	853.623
292.760	15.660	1137.008	853.463
293.774	15.564	1137.120	852.985
294.789	15.636	1135.946	852.394
295.803	15.581	1135.211	851.489
296.818	15.753	1134.227	851.547
297.833	15.554	1133.977	850.276
298.847	15.636	1133.049	849.921
299.862	15.671	1132.075	849.291
300.876	15.735	1131.518	849.118
301.891	15.810	1130.852	848.922
302.906	15.730	1130.690	848.325
303.920	15.734	1129.916	847.689
304.935	15.897	1128.816	847.606
305.949	15.945	1127.983	847.146
306.964	16.013	1127.104	846.753
307.979	15.925	1126.821	846.025
308.993	15.896	1126.198	845.338
310.008	15.950	1125.421	844.953
311.022	16.044	1124.428	844.603
312.037	15.943	1123.677	843.458
313.052	15.960	1122.583	842.645
314.066	16.011	1121.815	842.251
315.081	15.858	1121.096	840.871
316.095	15.850	1120.072	839.988
317.110	15.793	1119.563	839.248
318.125	15.784	1118.920	838.646
319.139	15.817	1118.106	838.129
320.154	15.818	1117.442	837.559
321.168	15.896	1116.744	837.353
322.183	15.858	1116.210	836.690
323.197	15.957	1115.481	836.561
324.212	15.900	1115.001	835.843
325.227	15.911	1114.342	835.331
326.241	16.006	1113.359	834.988
327.256	16.006	1112.542	834.302
328.270	16.070	1111.825	834.007
329.285	15.866	1111.197	832.455
330.300	15.935	1109.911	831.756
331.314	15.944	1109.293	831.265
332.329	16.052	1108.190	830.899
333.343	16.101	1107.018	830.187
334.358	16.064	1106.559	829.587
335.373	16.063	1105.939	829.042
336.387	16.136	1105.076	828.684
337.402	16.296	1104.029	828.608
338.416	16.290	1103.573	828.163
339.431	16.150	1103.042	827.004
340.446	16.373	1102.148	827.357
341.460	16.344	1101.732	826.827
342.475	16.473	1100.395	826.380
343.489	16.319	1099.779	825.095
344.504	16.463	1098.651	824.879
345.519	16.443	1098.196	824.364
346.533	16.475	1097.363	823.822
347.548	16.425	1096.833	823.108
348.562	16.519	1095.699	822.641
349.577	16.491	1094.614	821.617
350.592	16.472	1093.971	820.969
351.606	16.302	1093.660	819.841
352.621	16.366	1092.740	819.389
353.635	16.451	1091.866	819.071
354.650	16.448	1091.311	818.567
355.665	16.507	1090.584	818.236
356.679	16.493	1090.022	817.672
357.694	16.496	1089.464	817.196
358.708	16.427	1089.155	816.558
359.723	16.549	1088.652	816.700
360.738	16.550	1087.647	815.878
361.752	16.425	1087.622	815.183
362.767	16.554	1086.851	815.155
363.781	16.587	1085.916	814.541
364.796	16.694	1085.246	814.481
365.810	16.780	1084.852	814.527
366.825	16.788	1083.811	813.714
367.840	16.827	1083.436	813.548
368.854	16.767	1082.945	812.818
369.869	16.897	1082.024	812.680
370.883	16.832	1081.138	811.630
371.898	16.758	1080.708	810.880
372.913	16.792	1080.166	810.563
373.927	16.726	1079.949	810.013
374.942	16.901	1079.073	810.119
375.956	16.796	1078.711	809.276
376.971	16.860	1078.058	809.020
377.986	16.834	1077.281	808.241
379.000	17.018	1076.495	808.456
380.015	17.053	1076.205	808.337
381.029	17.154	1075.349	808.103
382.044	17.046	1074.662	806.999
383.059	17.062	1074.151	806.621
384.073	17.027	1073.231	805.693
385.088	17.163	1072.461	805.688
386.102	17.117	1071.287	804.515
387.117	17.080	1070.352	803.570
388.132	16.992	1069.564	802.490
389.146	16.931	1068.854	801.597
390.161	17.038	1067.930	801.337
391.175	16.906	1067.515	800.334
392.190	17.031	1066.850	800.354
393.205	17.056	1066.147	799.873
394.219	17.180	1065.333	799.776
395.234	16.972	1064.886	798.389
396.248	17.103	1063.275	797.726
397.263	17.038	1062.509	796.778
398.278	17.034	1061.821	796.174
399.292	16.967	1061.227	795.342
400.307	16.928	1060.588	794.609
401.321	17.017	1059.889	794.433
402.336	16.993	1059.531	793.980
403.350	17.038	1058.306	793.205
404.365	17.085	1057.819	792.990
405.380	17.142	1057.246	792.753
406.394	17.142	1056.651	792.238
407.409	17.028	1056.016	791.158
408.423	17.382	1054.880	791.887
409.438	17.301	1054.250	790.967
410.453	17.435	1053.647	791.067
411.467	17.483	1052.893	790.654
412.482	17.505	1051.853	789.907
413.496	17.440	1051.471	789.249
414.511	17.345	1051.193	788.529
415.526	17.571	1050.325	788.856
416.540	17.423	1050.090	787.925
417.555	17.491	1049.767	787.926
418.569	17.658	1048.709	787.836
419.584	17.627	1048.235	787.263
420.599	17.666	1047.869	787.100
421.613	104.706	1325.710	1475.139
422.628	96.292	1366.140	1475.203
