DTS Sentinel unit serial number:	SN413079Multiplexer serial number:	ORYXHardware model number:	OX4-SRSoftware version number:	ORYX F/W v4.00 Oryx Data Collector v3.7.2.0data status	okinstallation	princeton_trtdifferential loss correction	single-endedforward channel	channel 2reverse channel	N/Adate	2019/09/13time	13:23:34forward acquisition time	60.00reverse acquisition time	0.00gamma	496.2192k internal	0.2315k external	0.2315temperature offset calibration	1.0210default loss term (dB/km)	0.3790temperature slope calibration	1.0000multiplexer offset coefficient	1.0000multiplexer slope coefficient	1.0000fibre end	0.00T internal ref (°C)	35.00T ext. ref 1 (°C)	4.57T ext. ref 2 (°C)	31.10length (m)	temperature (°C)	Stokes	anti-Stokes-747.200	-40.508	-0.115	0.060
-746.185	-1.359	-0.271	0.194
-745.171	-53.797	-0.275	0.127
-744.156	423.165	-0.082	0.178
-743.142	-55.611	0.199	0.090
-742.127	-68.376	0.187	-0.074
-741.112	-200.000	0.108	0.521
-740.098	215.056	-0.065	-0.105
-739.083	-116.209	-0.318	0.060
-738.069	267.008	-0.068	0.121
-737.054	-200.000	-0.011	0.164
-736.039	-200.000	-0.043	-0.329
-735.025	-124.497	-0.202	-0.032
-734.010	-86.785	-0.262	0.081
-732.996	-200.000	-0.016	-0.196
-731.981	800.000	-0.039	0.138
-730.966	-91.785	-0.284	0.082
-729.952	-47.936	-0.298	0.146
-728.937	120.791	-0.061	0.077
-727.923	12.268	0.367	-0.286
-726.908	-200.000	0.023	-0.392
-725.894	-85.913	0.100	-0.031
-724.879	-94.922	-0.009	0.003
-723.864	-90.450	-0.092	0.027
-722.850	-88.596	-0.274	0.083
-721.835	-65.001	-0.124	0.051
-720.821	12.863	-0.088	-0.069
-719.806	-190.777	0.372	-0.004
-718.791	-103.786	-0.037	0.009
-717.777	95.284	0.161	-0.186
-716.762	117.449	-0.105	0.131
-715.748	-82.575	0.042	-0.014
-714.733	65.716	0.217	0.223
-713.718	800.000	0.104	0.376
-712.704	48.401	-0.135	-0.128
-711.689	152.811	-0.106	0.146
-710.675	-94.519	-0.185	-0.051
-709.660	800.000	-0.022	-0.065
-708.645	249.915	0.155	0.267
-707.631	46.301	-0.341	0.320
-706.616	-73.522	0.243	-0.090
-705.602	364.144	0.094	-0.192
-704.587	571.899	0.114	0.281
-703.572	800.000	-0.045	-0.163
-702.558	800.000	0.089	-0.274
-701.543	5.757	-0.106	0.080
-700.529	202.191	-0.132	0.206
-699.514	800.000	-0.032	-0.139
-698.499	-200.000	0.014	-0.298
-697.485	-37.877	-0.202	-0.109
-696.470	-200.000	0.008	0.485
-695.456	-88.242	0.271	-0.082
-694.441	800.000	-0.037	-0.108
-693.426	-200.000	0.010	-0.080
-692.412	800.000	0.050	-0.220
-691.397	298.352	-0.048	-0.090
-690.383	58.589	0.190	-0.189
-689.368	-53.368	0.134	-0.062
-688.354	11.583	0.309	-0.240
-687.339	12.439	0.178	0.139
-686.324	-144.905	0.230	0.021
-685.310	-162.618	-0.390	-0.019
-684.295	-200.000	-0.004	-0.074
-683.281	203.987	0.024	0.038
-682.266	-4.979	0.089	0.062
-681.251	65.345	0.058	0.059
-680.237	-90.027	-0.382	0.113
-679.222	-118.657	0.268	-0.048
-678.208	-200.000	0.001	-0.017
-677.193	-200.000	0.015	0.312
-676.178	37.752	0.163	-0.146
-675.164	-44.371	-0.064	0.032
-674.149	12.543	-0.264	0.206
-673.135	-200.000	0.057	-0.332
-672.120	-200.000	-0.009	-0.289
-671.105	-200.000	-0.035	-0.329
-670.091	80.831	0.016	0.017
-669.076	-67.644	-0.123	0.049
-668.062	143.793	-0.138	-0.186
-667.047	-10.210	-0.204	0.137
-666.032	71.354	0.171	-0.179
-665.018	-200.000	0.007	-0.140
-664.003	222.371	0.189	-0.308
-662.989	535.395	0.044	0.106
-661.974	-200.000	0.056	-0.265
-660.959	-173.125	-0.105	0.003
-659.945	283.599	0.094	-0.170
-658.930	-104.595	-0.222	0.052
-657.916	-79.811	0.160	0.054
-656.901	58.129	-0.209	-0.207
-655.886	-200.000	0.058	-0.286
-654.872	74.470	-0.013	0.014
-653.857	-200.000	0.019	0.191
-652.843	404.973	-0.051	-0.109
-651.828	-85.717	0.205	-0.064
-650.814	-200.000	-0.002	-0.085
-649.799	373.381	0.046	0.095
-648.784	-7.802	0.198	0.135
-647.770	-81.613	0.226	-0.075
-646.755	800.000	0.010	-0.030
-645.741	-124.589	-0.358	-0.056
-644.726	-24.038	0.158	0.096
-643.711	-200.000	-0.002	0.119
-642.697	82.588	0.289	-0.317
-641.682	-106.022	0.203	0.046
-640.668	800.000	0.057	-0.245
-639.653	-124.011	-0.302	-0.048
-638.638	-200.000	-0.006	-0.528
-637.624	185.518	-0.148	-0.222
-636.609	137.969	-0.042	-0.055
-635.595	800.000	0.056	-0.193
-634.580	290.223	-0.164	-0.301
-633.565	-145.502	0.014	0.001
-632.551	-86.055	-0.423	0.132
-631.536	-45.195	-0.065	-0.032
-630.522	-62.408	0.253	0.106
-629.507	247.981	-0.088	0.151
-628.492	146.855	-0.063	0.085
-627.478	571.581	0.043	0.107
-626.463	-102.624	0.085	0.020
-625.449	92.254	-0.130	-0.147
-624.434	-91.856	0.179	-0.051
-623.419	-57.366	0.103	0.046
-622.405	800.000	-0.005	0.020
-621.390	345.648	0.068	0.135
-620.376	-100.933	-0.211	-0.052
-619.361	137.258	0.069	-0.091
-618.346	-187.670	0.268	0.004
-617.332	-166.856	0.181	-0.008
-616.317	-200.000	-0.009	0.123
-615.303	-200.000	-0.007	0.172
-614.288	800.000	-0.052	0.184
-613.273	800.000	-0.088	0.307
-612.259	120.197	0.115	-0.144
-611.244	351.647	-0.251	0.501
-610.230	-82.282	-0.199	-0.065
-609.215	-82.709	-0.197	0.064
-608.201	-200.000	-0.036	0.362
-607.186	-67.065	-0.300	0.119
-606.171	70.317	0.221	-0.230
-605.157	-200.000	-0.007	0.046
-604.142	1.318	0.109	0.079
-603.128	408.150	-0.126	0.269
-602.113	-136.388	-0.248	-0.029
-601.098	401.913	0.134	-0.284
-600.084	343.186	-0.099	0.196
-599.069	-100.503	-0.237	-0.059
-598.055	-58.267	0.108	-0.047
-597.040	80.504	0.102	-0.111
-596.025	94.952	-0.053	-0.060
-595.011	-84.177	0.203	-0.065
-593.996	-57.001	0.162	0.072
-592.982	-200.000	-0.018	0.142
-591.967	-64.092	-0.209	0.086
-590.952	-14.429	0.137	-0.089
-589.938	-134.997	-0.253	0.031
-588.923	-5.759	0.101	-0.069
-587.909	800.000	0.064	-0.192
-586.894	665.199	-0.080	-0.208
-585.879	-88.016	-0.235	-0.071
-584.865	417.980	0.097	-0.210
-583.850	15.194	-0.123	0.097
-582.836	67.151	0.220	0.226
-581.821	800.000	-0.038	0.115
-580.806	-47.995	0.172	0.084
-579.792	-200.000	-0.001	-0.221
-578.777	23.153	0.192	0.159
-577.763	-200.000	-0.012	-0.092
-576.748	-23.790	0.272	-0.164
-575.733	315.191	-0.091	-0.172
-574.719	-6.677	0.081	-0.056
-573.704	-103.392	0.428	0.101
-572.690	-128.784	0.124	-0.018
-571.675	-200.000	0.027	0.343
-570.661	-55.137	-0.288	-0.130
-569.646	-200.000	0.008	0.160
-568.631	132.698	-0.042	0.055
-567.617	-200.000	0.014	0.066
-566.602	-60.740	0.130	0.056
-565.588	-70.198	0.155	-0.059
-564.573	24.591	0.115	0.096
-563.558	-200.000	0.016	0.232
-562.544	-63.908	0.161	-0.066
-561.529	9.675	0.100	-0.076
-560.515	-40.678	0.208	-0.109
-559.500	268.717	0.049	-0.087
-558.485	-79.102	0.160	-0.055
-557.471	226.480	-0.057	-0.093
-556.456	-200.000	0.049	-0.298
-555.442	-155.540	-0.320	0.021
-554.427	434.403	0.142	-0.310
-553.412	242.411	-0.175	-0.294
-552.398	800.000	-0.039	0.128
-551.383	-200.000	0.019	-0.271
-550.369	-62.734	-0.073	0.030
-549.354	118.261	-0.065	-0.081
-548.339	143.433	-0.141	0.189
-547.325	412.870	-0.062	0.132
-546.310	200.968	-0.138	-0.214
-545.296	-200.000	-0.010	0.169
-544.281	132.825	0.192	-0.249
-543.266	-200.000	-0.023	-0.282
-542.252	-113.604	0.119	0.023
-541.237	-137.583	-0.438	-0.050
-540.223	226.457	0.173	-0.283
-539.208	150.257	-0.114	-0.156
-538.193	540.763	0.047	0.111
-537.179	-33.226	-0.221	0.123
-536.164	-105.923	-0.142	0.032
-535.150	-153.843	-0.403	0.028
-534.135	800.000	-0.084	-0.324
-533.121	-39.644	0.128	-0.067
-532.106	-200.000	0.026	-0.142
-531.091	195.105	-0.232	-0.354
-530.077	-58.158	0.181	0.079
-529.062	517.041	0.102	-0.239
-528.048	146.102	-0.154	0.208
-527.033	-200.000	0.010	-0.089
-526.018	-200.000	0.046	-0.434
-525.004	6.441	-0.175	-0.131
-523.989	-114.365	-0.075	0.014
-522.975	147.189	0.106	-0.143
-521.960	-80.003	0.206	0.069
-520.945	-200.000	-0.012	0.274
-519.931	-200.000	-0.003	-0.433
-518.916	-81.914	0.193	-0.063
-517.902	-200.000	-0.029	0.146
-516.887	160.135	0.070	0.097
-515.872	29.099	-0.128	0.109
-514.858	50.855	0.199	0.190
-513.843	75.395	-0.192	-0.204
-512.829	43.910	0.073	-0.067
-511.814	181.957	0.035	0.051
-510.799	-86.704	-0.112	-0.034
-509.785	-78.738	0.148	0.051
-508.770	636.587	0.129	0.328
-507.756	-38.989	0.161	0.085
-506.741	800.000	-0.048	0.151
-505.726	-159.969	-0.244	0.013
-504.712	800.000	-0.092	0.327
-503.697	53.217	-0.069	0.066
-502.683	-200.000	-0.018	-0.391
-501.668	-32.245	0.121	0.068
-500.653	-200.000	0.100	0.448
-499.639	-136.890	0.242	0.028
-498.624	130.403	0.159	0.204
-497.610	800.000	0.064	-0.188
-496.595	800.000	-0.052	-0.180
-495.581	-200.000	-0.005	0.135
-494.566	-96.326	0.151	0.040
-493.551	-42.406	-0.113	-0.058
-492.537	-160.239	-0.530	0.029
-491.522	34.399	0.109	0.096
-490.508	-16.142	0.171	0.109
-489.493	800.000	0.119	0.343
-488.478	-200.000	0.002	-0.064
-487.464	215.726	0.095	-0.152
-486.449	-43.597	0.241	0.122
-485.435	-200.000	-0.014	-0.097
-484.420	47.074	0.052	-0.048
-483.405	126.206	0.172	-0.218
-482.391	-200.000	-0.062	-0.277
-481.376	-45.687	0.009	-0.004
-480.362	-200.000	0.033	0.158
-479.347	-200.000	-0.007	0.064
-478.332	-17.431	0.150	0.094
-477.318	38.582	0.354	0.316
-476.303	-20.944	0.145	-0.089
-475.289	192.045	-0.140	0.212
-474.274	-42.708	-0.060	-0.031
-473.259	19.393	-0.311	-0.251
-472.245	-25.809	-0.144	0.085
-471.230	-0.151	0.103	0.073
-470.216	-132.655	-0.210	0.027
-469.201	-72.942	0.240	-0.088
-468.186	303.184	0.080	-0.149
-467.172	-160.310	-0.240	0.013
-466.157	-119.424	0.096	0.017
-465.143	800.000	0.055	-0.202
-464.128	240.369	-0.079	-0.132
-463.113	-17.244	-0.151	0.095
-462.099	-89.117	-0.231	0.069
-461.084	-77.663	0.288	-0.100
-460.070	-88.585	-0.356	-0.106
-459.055	800.000	0.033	0.140
-458.040	88.852	-0.102	0.114
-457.026	-144.402	-0.387	-0.036
-456.011	-200.000	-0.012	-0.205
-454.997	-200.000	-0.013	0.118
-453.982	674.799	-0.157	-0.408
-452.968	-125.548	-0.359	-0.055
-451.953	-106.048	0.143	0.032
-450.938	65.621	-0.184	0.186
-449.924	-57.517	-0.127	0.056
-448.909	-63.279	-0.223	-0.092
-447.895	-62.646	-0.362	0.150
-446.880	-92.958	0.350	0.098
-445.865	-98.758	0.205	0.052
-444.851	-17.932	0.102	-0.064
-443.836	253.423	0.149	-0.255
-442.822	-111.014	-0.431	-0.089
-441.807	333.813	-0.053	-0.104
-440.792	146.769	0.220	0.296
-439.778	2.947	0.243	-0.177
-438.763	123.812	-0.049	0.062
-437.749	-200.000	0.007	-0.048
-436.734	-200.000	-0.019	0.203
-435.719	176.948	-0.153	0.223
-434.705	-92.676	0.338	-0.095
-433.690	160.506	-0.081	0.113
-432.676	279.522	0.093	0.166
-431.661	-74.108	0.225	0.081
-430.646	-89.101	0.199	-0.059
-429.632	800.000	-0.064	-0.200
-428.617	498.311	0.114	0.263
-427.603	-76.329	0.299	-0.105
-426.588	-200.000	0.008	0.134
-425.573	-200.000	0.045	0.286
-424.559	-166.028	0.012	0.000
-423.544	504.472	-0.048	-0.112
-422.530	-106.675	0.122	-0.027
-421.515	-48.831	-0.125	-0.060
-420.500	-29.995	0.293	0.167
-419.486	74.481	-0.389	-0.409
-418.471	-62.391	-0.119	-0.049
-417.457	-136.407	-0.233	0.027
-416.442	-143.717	0.348	0.033
-415.428	-129.610	-0.238	0.033
-414.413	305.433	-0.143	0.267
-413.398	-81.004	0.248	0.082
-412.384	-200.000	0.039	-0.281
-411.369	-126.759	0.281	-0.042
-410.355	48.166	-0.046	0.043
-409.340	-172.121	-0.184	-0.006
-408.325	-200.000	-0.062	-0.366
-407.311	-20.542	0.352	-0.216
-406.296	-73.711	-0.373	0.136
-405.282	259.192	-0.151	0.261
-404.267	-60.714	-0.181	0.077
-403.252	157.648	-0.111	0.154
-402.238	167.066	-0.112	-0.159
-401.223	19.521	0.154	-0.124
-400.209	444.797	-0.166	0.364
-399.194	-135.192	-0.058	0.007
-398.179	159.808	0.104	-0.145
-397.165	50.642	-0.165	-0.156
-396.150	-46.208	0.124	-0.061
-395.136	-72.435	0.216	-0.080
-394.121	14.475	0.068	0.053
-393.106	-183.088	-0.284	-0.005
-392.092	37.051	-0.210	-0.186
-391.077	163.321	0.280	0.393
-390.063	-20.950	0.306	-0.187
-389.048	800.000	0.071	-0.258
-388.033	290.775	0.132	-0.239
-387.019	306.320	-0.044	0.082
-386.004	-200.000	-0.062	0.483
-384.990	-91.572	0.172	-0.049
-383.975	48.414	-0.106	0.099
-382.960	88.370	0.080	0.088
-381.946	-69.542	-0.347	0.133
-380.931	-155.610	0.065	-0.004
-379.917	387.212	0.063	0.131
-378.902	-39.441	0.187	0.098
-377.888	-95.220	-0.186	0.050
-376.873	38.085	0.162	0.144
-375.858	47.556	0.089	-0.083
-374.844	800.000	0.014	0.042
-373.829	289.511	0.025	-0.046
-372.815	187.048	0.236	0.351
-371.800	295.009	-0.086	0.157
-370.785	-26.273	-0.357	0.209
-369.771	-47.375	-0.219	0.106
-368.756	-41.148	-0.247	0.127
-367.742	-48.172	0.404	-0.195
-366.727	468.038	0.031	-0.070
-365.712	704.070	-0.079	-0.207
-364.698	-114.445	0.341	0.065
-363.683	-33.423	0.223	-0.123
-362.669	-163.219	-0.124	-0.006
-361.654	800.000	-0.063	-0.248
-360.639	369.425	-0.088	-0.179
-359.625	-102.659	-0.036	-0.009
-358.610	564.536	0.047	-0.113
-357.596	9.951	0.219	0.166
-356.581	112.617	-0.140	0.170
-355.566	362.920	0.229	-0.460
-354.552	-200.000	0.023	-0.188
-353.537	69.447	-0.068	-0.069
-352.523	43.631	0.258	-0.235
-351.508	-38.780	-0.054	-0.028
-350.493	-130.407	-0.433	0.059
-349.479	-42.066	-0.177	0.090
-348.464	800.000	0.064	0.179
-347.450	-200.000	0.006	0.146
-346.435	-200.000	0.021	0.216
-345.420	-200.000	-0.011	0.000
-344.406	-23.644	-0.053	0.032
-343.391	269.915	-0.017	-0.030
-342.377	111.311	-0.125	-0.150
-341.362	-122.559	0.127	0.021
-340.348	-200.000	0.031	0.224
-339.333	2.703	-0.044	-0.032
-338.318	-200.000	-0.001	-0.114
-337.304	-97.642	-0.354	0.092
-336.289	-13.774	0.015	-0.010
-335.275	-200.000	-0.023	0.270
-334.260	87.260	-0.312	0.344
-333.245	-35.656	-0.204	0.111
-332.231	614.694	-0.047	-0.116
-331.216	-18.380	-0.032	0.020
-330.202	314.730	0.130	0.244
-329.187	-82.712	0.166	0.054
-328.172	26.270	0.094	-0.079
-327.158	-55.383	0.081	0.036
-326.143	-81.800	0.173	-0.056
-325.129	-200.000	-0.020	-0.272
-324.114	-57.345	-0.213	0.093
-323.099	-200.000	0.023	-0.312
-322.085	-200.000	-0.009	-0.168
-321.070	-48.566	0.203	-0.097
-320.056	367.604	0.051	0.103
-319.041	-123.269	-0.062	0.010
-318.026	-200.000	0.000	0.120
-317.012	-42.774	0.228	-0.116
-315.997	-110.654	0.197	0.040
-314.983	-51.466	0.119	0.055
-313.968	800.000	-0.023	0.088
-312.953	-29.163	-0.321	0.183
-311.939	800.000	0.050	-0.141
-310.924	-199.520	-0.163	-0.001
-309.910	800.000	0.111	0.311
-308.895	55.800	0.089	0.086
-307.880	34.849	0.117	0.102
-306.866	118.961	-0.187	0.230
-305.851	-95.435	-0.266	0.071
-304.837	-24.621	-0.155	-0.092
-303.822	-2.952	0.129	-0.090
-302.807	36.475	-0.174	-0.153
-301.793	800.000	0.042	-0.125
-300.778	436.947	-0.020	0.043
-299.764	-48.954	-0.398	0.190
-298.749	-89.277	-0.232	0.068
-297.735	-177.845	0.118	0.003
-296.720	295.269	-0.051	0.093
-295.705	-32.766	0.262	0.145
-294.691	290.534	-0.162	0.292
-293.676	-162.756	-0.164	-0.008
-292.662	23.159	0.162	-0.132
-291.647	-200.000	0.031	-0.209
-290.632	-200.000	0.019	-0.197
-289.618	7.438	-0.210	0.156
-288.603	-37.422	-0.055	-0.029
-287.589	113.286	0.153	-0.185
-286.574	81.008	-0.147	-0.157
-285.559	38.680	0.093	0.083
-284.545	-200.000	-0.010	-0.109
-283.530	108.297	0.043	0.051
-282.516	-200.000	-0.049	0.331
-281.501	73.439	0.049	-0.051
-280.486	-48.326	-0.295	0.141
-279.472	210.769	0.119	0.186
-278.457	594.703	-0.030	-0.074
-277.443	92.779	-0.212	-0.238
-276.428	128.217	0.133	-0.168
-275.413	144.131	0.158	0.210
-274.399	508.360	0.053	0.123
-273.384	-54.272	0.281	-0.127
-272.370	-93.666	-0.279	0.077
-271.355	23.081	-0.184	-0.150
-270.340	-113.949	0.506	0.098
-269.326	34.388	0.183	-0.159
-268.311	2.096	-0.206	0.148
-267.297	19.077	0.174	-0.139
-266.282	19.527	-0.326	0.261
-265.267	318.697	0.094	0.178
-264.253	-152.892	0.189	-0.013
-263.238	111.290	-0.094	0.113
-262.224	296.782	-0.141	-0.257
-261.209	800.000	-0.040	-0.129
-260.195	294.038	-0.170	-0.308
-259.180	154.961	-0.070	0.096
-258.165	-200.000	-0.036	0.190
-257.151	-132.535	0.201	-0.026
-256.136	52.614	-0.085	0.081
-255.122	-64.838	-0.308	-0.124
-254.107	-65.263	0.162	0.065
-253.092	-200.000	0.002	0.071
-252.078	-200.000	0.001	0.177
-251.063	-28.746	-0.159	0.091
-250.049	-6.290	0.288	0.196
-249.034	-104.654	-0.190	-0.043
-248.019	426.524	-0.088	-0.188
-247.005	800.000	-0.060	-0.169
-245.990	-139.333	0.243	0.026
-244.976	-143.958	0.141	0.013
-243.961	-200.000	0.023	-0.174
-242.946	636.370	-0.058	0.147
-241.932	-56.773	-0.201	-0.088
-240.917	452.776	-0.050	-0.109
-239.903	50.592	0.037	-0.035
-238.888	476.504	0.021	-0.047
-237.873	-96.628	-0.058	-0.015
-236.859	279.566	-0.048	-0.084
-235.844	-200.000	-0.051	-0.000
-234.830	774.401	-0.096	0.260
-233.815	-40.492	0.275	-0.142
-232.800	32.288	0.070	0.060
-231.786	108.016	-0.051	0.060
-230.771	-200.000	0.017	-0.106
-229.757	199.882	0.176	-0.268
-228.742	-200.000	-0.021	0.137
-227.727	-200.000	0.043	0.207
-226.713	800.000	0.127	-0.365
-225.698	-200.000	0.043	-0.353
-224.684	-133.303	0.197	0.025
-223.669	-68.955	-0.139	0.053
-222.655	64.510	0.137	-0.137
-221.640	-74.219	0.110	-0.039
-220.625	-200.000	-0.003	0.070
-219.611	519.730	-0.127	0.295
-218.596	64.881	-0.152	0.152
-217.582	-44.917	0.253	-0.125
-216.567	-69.758	0.127	-0.048
-215.552	-200.000	0.070	0.383
-214.538	102.699	0.075	0.087
-213.523	-200.000	0.001	0.115
-212.509	-104.086	0.237	-0.055
-211.494	-128.076	0.420	-0.060
-210.479	800.000	-0.038	-0.129
-209.465	-189.287	-0.211	-0.002
-208.450	-33.664	-0.352	-0.193
-207.436	-26.360	0.170	-0.099
-206.421	-65.296	0.183	0.073
-205.406	230.414	-0.064	-0.104
-204.392	10.564	-0.094	0.071
-203.377	-87.356	0.085	0.026
-202.363	-200.000	0.004	-0.480
-201.348	-22.653	0.256	-0.153
-200.333	-200.000	-0.091	0.000
-199.319	-134.999	-0.267	-0.032
-198.304	-140.843	0.228	-0.023
-197.290	77.085	-0.084	-0.088
-196.275	327.372	0.101	-0.192
-195.260	-82.856	0.251	0.080
-194.246	38.562	0.139	0.123
-193.231	197.606	-0.096	-0.145
-192.217	136.791	0.123	-0.160
-191.202	2.711	0.264	-0.190
-190.187	144.740	0.222	-0.295
-189.173	-103.816	0.054	-0.012
-188.158	-21.699	0.200	-0.121
-187.144	-200.000	-0.014	0.155
-186.129	412.008	0.106	0.223
-185.114	20.575	-0.051	-0.041
-184.100	-200.000	0.008	-0.189
-183.085	291.349	-0.216	0.389
-182.071	-44.236	-0.098	-0.049
-181.056	186.695	-0.028	0.041
-180.042	800.000	-0.131	0.450
-179.027	331.431	0.075	-0.144
-178.012	47.209	-0.149	-0.138
-176.998	-62.507	-0.174	0.072
-175.983	547.963	-0.177	0.421
-174.969	104.824	-0.081	-0.095
-173.954	-200.000	0.000	-0.121
-172.939	-18.423	-0.128	0.079
-171.925	-134.703	0.280	-0.034
-170.910	-200.000	0.028	-0.316
-169.896	-113.820	0.208	-0.040
-168.881	-155.338	-0.192	0.012
-167.866	-14.222	0.100	-0.064
-166.852	-11.436	-0.309	-0.201
-165.837	800.000	0.070	0.218
-164.823	-200.000	-0.206	-0.000
-163.808	-200.000	-0.015	0.089
-162.793	-125.176	0.063	0.010
-161.779	105.254	0.022	0.025
-160.764	128.609	-0.251	0.317
-159.750	454.040	-0.060	0.132
-158.735	-99.841	0.100	-0.025
-157.720	155.554	-0.235	0.320
-156.706	226.446	-0.159	-0.255
-155.691	61.688	-0.217	0.214
-154.677	194.220	0.118	0.177
-153.662	24.330	0.149	0.122
-152.647	-200.000	0.004	0.152
-151.633	-77.235	0.144	0.050
-150.618	-132.182	-0.067	-0.009
-149.604	557.266	-0.106	-0.253
-148.589	-156.110	-0.310	-0.019
-147.574	9.051	0.074	-0.055
-146.560	-200.000	0.025	-0.158
-145.545	197.642	0.120	-0.182
-144.531	-36.173	0.310	-0.165
-143.516	-5.101	-0.238	0.162
-142.502	-200.000	0.002	0.045
-141.487	-49.875	0.163	0.077
-140.472	-19.499	0.237	-0.145
-139.458	-108.112	0.100	-0.021
-138.443	-119.630	-0.187	-0.032
-137.429	106.823	0.084	0.098
-136.414	13.299	-0.070	-0.054
-135.399	622.306	0.145	0.362
-134.385	218.119	0.129	0.203
-133.370	68.799	-0.311	-0.316
-132.356	124.115	0.158	0.197
-131.341	628.577	0.108	-0.270
-130.326	-200.000	-0.051	-0.316
-129.312	800.000	-0.089	0.264
-128.297	-38.989	-0.122	-0.064
-127.283	712.069	-0.174	-0.456
-126.268	657.972	-0.096	-0.243
-125.253	-200.000	-0.014	0.293
-124.239	800.000	-0.075	-0.319
-123.224	-8.234	0.226	-0.150
-122.210	120.909	-0.016	0.020
-121.195	484.534	0.142	-0.320
-120.180	130.383	0.214	0.271
-119.166	800.000	0.026	-0.087
-118.151	-95.343	-0.175	0.046
-117.137	60.132	0.160	0.157
-116.122	-67.456	0.317	-0.123
-115.107	-8.358	-0.199	0.132
-114.093	42.078	0.107	-0.096
-113.078	-200.000	0.044	-0.207
-112.064	28.208	-0.241	-0.201
-111.049	-35.046	-0.221	0.119
-110.034	-27.334	-0.316	-0.182
-109.020	800.000	-0.227	0.641
-108.005	41.838	-0.070	0.063
-106.991	800.000	-0.011	-0.031
-105.976	281.147	-0.160	-0.284
-104.962	-65.316	0.412	-0.164
-103.947	193.538	0.078	0.117
-102.932	446.638	-0.068	0.148
-101.918	57.247	0.360	0.347
-100.903	800.000	-0.042	0.180
-99.889	-125.559	-0.183	-0.028
-98.874	-200.000	0.016	0.086
-97.859	-200.000	-0.044	0.211
-96.845	268.476	0.071	0.123
-95.830	161.125	0.080	-0.110
-94.816	-146.043	0.110	-0.010
-93.801	538.840	-0.063	0.148
-92.786	-158.809	0.423	0.024
-91.772	-200.000	-0.049	0.325
-90.757	-58.815	-0.178	-0.076
-89.743	-39.118	0.528	0.274
-88.728	-200.000	-0.005	0.140
-87.713	-200.000	-0.011	0.136
-86.699	-32.022	0.430	-0.238
-85.684	34.994	-0.216	0.187
-84.670	-22.185	-0.103	0.062
-83.655	473.251	0.111	-0.247
-82.640	800.000	0.096	-0.353
-81.626	-58.439	0.301	-0.129
-80.611	453.961	0.101	0.220
-79.597	78.864	-0.108	0.114
-78.582	-200.000	0.022	-0.116
-77.567	800.000	0.033	0.101
-76.553	127.116	0.083	0.104
-75.538	-147.230	-0.472	-0.040
-74.524	-36.894	-0.237	0.125
-73.509	105.889	0.129	-0.150
-72.494	-119.348	-0.288	-0.050
-71.480	-200.000	0.056	0.246
-70.465	17.506	0.114	0.089
-69.451	-63.541	-0.211	-0.085
-68.436	41.304	0.216	0.192
-67.422	-14.309	-0.124	0.079
-66.407	-68.793	0.398	-0.152
-65.392	643.990	0.145	0.364
-64.378	800.000	0.117	0.331
-63.363	-17.054	0.199	0.124
-62.349	-200.000	0.007	0.052
-61.334	54.344	-0.980	-0.931
-60.319	78.916	0.436	0.460
-59.305	479.483	-0.329	-0.735
-58.290	282.731	0.593	1.049
-57.276	393.326	0.723	1.484
-56.261	-200.000	95.125	560.396
-55.246	642.047	1383.201	3476.423
-54.232	186.343	2613.580	3836.487
-53.217	117.192	2322.201	2815.099
-52.203	44.930	1933.218	1755.623
-51.188	38.398	1718.564	1510.403
-50.173	35.440	1672.929	1447.967
-49.159	51.688	1720.820	1614.097
-48.144	55.234	1738.274	1657.522
-47.130	38.003	1694.973	1486.430
-46.115	35.007	1680.179	1450.726
-45.100	34.830	1675.693	1445.461
-44.086	34.882	1672.646	1443.163
-43.071	34.909	1669.493	1440.593
-42.057	34.778	1667.824	1438.108
-41.042	34.894	1665.275	1436.725
-40.027	34.882	1663.673	1435.192
-39.013	34.947	1661.330	1433.602
-37.998	34.792	1660.502	1431.669
-36.984	34.850	1658.956	1430.714
-35.969	34.986	1657.250	1430.206
-34.954	34.956	1655.674	1428.565
-33.940	34.924	1653.992	1426.821
-32.925	34.997	1651.692	1425.321
-31.911	34.919	1650.544	1423.695
-30.896	35.005	1648.297	1422.337
-29.881	35.017	1646.559	1420.873
-28.867	35.001	1644.917	1419.281
-27.852	35.018	1643.699	1418.295
-26.838	35.039	1641.565	1416.552
-25.823	35.047	1640.617	1415.743
-24.809	35.128	1639.116	1414.990
-23.794	34.987	1638.265	1413.154
-22.779	35.000	1636.664	1411.813
-21.765	34.935	1634.860	1409.720
-20.750	35.073	1632.422	1408.580
-19.736	34.994	1631.834	1407.436
-18.721	35.118	1629.578	1406.343
-17.706	35.024	1628.423	1404.602
-16.692	34.971	1627.059	1402.983
-15.677	35.042	1625.293	1401.918
-14.663	35.106	1623.724	1400.979
-13.648	35.110	1622.572	1399.959
-12.633	35.056	1620.972	1398.134
-11.619	35.036	1619.437	1396.602
-10.604	35.094	1617.777	1395.540
-9.590	34.988	1616.535	1393.645
-8.575	35.043	1616.021	1393.542
-7.560	35.025	1613.978	1391.596
-6.546	35.030	1613.138	1390.853
-5.531	35.003	1611.992	1389.612
-4.517	35.038	1610.723	1388.716
-3.502	34.958	1609.792	1387.277
-2.487	35.126	1608.021	1386.917
-1.473	34.988	1596.737	1376.134
-0.458	32.049	1577.025	1338.179
0.556	30.385	1576.141	1300.289
1.571	27.553	1599.766	1299.502
2.586	26.210	1612.822	1300.333
3.600	22.856	1557.791	1232.483
4.615	13.948	1446.693	1086.473
5.629	6.088	1380.691	987.579
6.644	4.604	1372.219	972.161
7.659	4.535	1370.586	970.489
8.673	4.588	1369.550	969.999
9.688	4.552	1368.241	968.763
10.702	4.575	1365.659	966.993
11.717	8.196	1372.947	994.678
12.731	16.907	1389.090	1061.019
13.746	22.509	1396.693	1101.881
14.761	22.772	1396.045	1102.916
15.775	21.925	1393.786	1095.742
16.790	20.980	1391.332	1087.827
17.804	20.090	1388.717	1080.141
18.819	19.743	1387.830	1077.195
19.834	19.602	1386.483	1075.175
20.848	19.596	1385.470	1074.258
21.863	19.317	1384.541	1071.708
22.877	19.181	1383.405	1069.885
23.892	19.131	1382.554	1068.825
24.907	19.089	1381.391	1067.572
25.921	19.198	1380.580	1067.527
26.936	19.237	1379.743	1067.021
27.950	19.196	1378.957	1066.070
28.965	19.256	1377.732	1065.395
29.980	19.410	1376.829	1065.559
30.994	19.419	1376.034	1064.903
32.009	19.542	1375.036	1064.798
33.023	19.425	1374.235	1063.356
34.038	19.458	1371.874	1061.644
35.053	19.341	1370.676	1059.904
36.067	19.309	1369.704	1058.859
37.082	19.330	1368.821	1058.212
38.096	19.418	1367.879	1057.931
39.111	19.490	1367.172	1057.732
40.126	19.384	1365.861	1055.972
41.140	19.059	1364.649	1052.956
42.155	18.910	1364.486	1051.826
43.169	18.957	1364.203	1051.799
44.184	18.939	1363.894	1051.358
45.199	18.950	1363.395	1050.949
46.213	19.084	1362.829	1051.240
47.228	19.233	1362.197	1051.563
48.242	19.262	1361.555	1051.152
49.257	19.223	1359.784	1049.455
50.271	19.290	1358.265	1048.600
51.286	19.310	1356.797	1047.498
52.301	19.152	1355.859	1045.716
53.315	19.152	1354.544	1044.611
54.330	18.954	1353.505	1042.517
55.344	18.889	1352.485	1041.244
56.359	19.081	1350.771	1040.995
57.374	18.986	1350.109	1039.820
58.388	18.884	1349.021	1038.274
59.403	18.727	1349.285	1037.434
60.417	18.775	1347.936	1036.596
61.432	18.767	1347.223	1035.911
62.447	18.714	1346.054	1034.598
63.461	18.645	1345.143	1033.393
64.476	18.587	1344.214	1032.236
65.490	18.540	1343.149	1031.045
66.505	18.614	1341.285	1029.968
67.520	18.721	1339.904	1029.460
68.534	18.756	1338.896	1028.801
69.549	18.653	1337.812	1027.264
70.563	18.634	1336.481	1026.036
71.578	18.524	1335.470	1024.511
72.593	18.568	1334.427	1023.884
73.607	18.446	1334.306	1022.970
74.622	18.441	1333.343	1022.113
75.636	18.500	1332.445	1021.687
76.651	18.571	1331.731	1021.468
77.666	18.506	1331.816	1021.059
78.680	18.685	1330.841	1021.287
79.695	18.739	1330.409	1021.184
80.709	18.834	1329.889	1021.257
81.724	18.756	1329.556	1020.448
82.739	18.981	1328.379	1020.791
83.753	19.121	1327.538	1020.883
84.768	19.322	1326.614	1021.274
85.782	19.352	1325.686	1020.651
86.797	19.377	1324.811	1020.031
87.812	19.263	1323.318	1018.121
88.826	19.149	1322.458	1016.692
89.841	19.352	1321.467	1017.042
90.855	19.336	1320.428	1016.057
91.870	19.458	1319.708	1016.129
92.884	19.380	1318.812	1014.891
93.899	19.462	1318.467	1015.019
94.914	19.588	1317.029	1014.563
95.928	19.481	1316.505	1013.440
96.943	19.422	1315.633	1012.333
97.957	19.405	1314.657	1011.390
98.972	19.421	1313.541	1010.541
99.987	19.432	1312.731	1009.891
101.001	19.380	1311.611	1008.634
102.016	19.395	1310.567	1007.833
103.030	19.454	1309.873	1007.554
104.045	19.336	1309.089	1006.171
105.060	19.266	1307.770	1004.660
106.074	19.029	1306.029	1001.858
107.089	18.766	1304.513	999.076
108.103	18.739	1303.076	997.726
109.118	18.740	1301.678	996.578
110.133	18.718	1300.412	995.391
111.147	18.708	1299.253	994.355
112.162	18.705	1298.491	993.667
113.176	18.882	1297.234	993.640
114.191	18.868	1296.063	992.575
115.206	18.902	1294.991	991.863
116.220	18.897	1293.331	990.475
117.235	18.786	1292.923	989.433
118.249	18.768	1291.941	988.493
119.264	18.701	1290.658	987.038
120.279	18.786	1289.273	986.384
121.293	18.647	1288.175	984.655
122.308	18.501	1287.376	983.123
123.322	18.439	1286.387	981.925
124.337	18.430	1284.931	980.675
125.352	18.486	1284.276	980.406
126.366	18.591	1282.781	979.777
127.381	18.505	1282.093	978.677
128.395	18.374	1281.260	977.207
129.410	18.609	1279.925	977.440
130.424	18.664	1278.945	976.917
131.439	18.821	1278.285	977.224
132.454	18.805	1277.859	976.720
133.468	18.814	1277.012	976.034
134.483	18.861	1276.552	975.865
135.497	18.957	1274.586	974.817
136.512	18.923	1273.802	973.939
137.527	18.920	1272.599	972.916
138.541	19.004	1271.144	972.193
139.556	19.083	1269.484	971.284
140.570	19.068	1269.061	970.792
141.585	19.294	1268.021	971.185
142.600	19.297	1266.911	970.262
143.614	19.339	1266.172	969.845
144.629	19.444	1265.266	969.661
145.643	19.283	1264.422	968.022
146.658	19.165	1262.595	965.877
147.673	19.142	1260.841	964.318
148.687	18.974	1260.179	962.790
149.702	19.010	1258.231	961.413
150.716	18.758	1257.048	959.018
151.731	18.868	1255.805	958.602
152.746	18.833	1254.990	957.697
153.760	18.933	1254.133	957.515
154.775	19.096	1252.860	957.363
155.789	19.199	1252.007	957.200
156.804	19.185	1250.902	956.195
157.819	19.300	1249.862	955.953
158.833	19.291	1249.181	955.297
159.848	19.396	1248.347	955.158
160.862	19.357	1247.190	953.970
161.877	19.189	1245.802	951.896
162.892	18.972	1244.562	949.665
163.906	18.898	1244.102	948.821
164.921	18.978	1242.771	948.165
165.935	18.963	1242.574	947.849
166.950	19.077	1241.908	947.887
167.964	19.239	1240.873	947.900
168.979	19.044	1240.065	946.131
169.994	19.046	1239.176	945.379
171.008	19.020	1238.705	944.793
172.023	19.304	1237.525	945.365
173.037	19.373	1236.973	945.239
174.052	19.325	1235.970	944.127
175.067	19.264	1234.597	942.659
176.081	18.964	1233.784	940.315
177.096	19.031	1232.623	939.715
178.110	19.022	1232.205	939.265
179.125	19.153	1230.489	938.583
180.140	19.245	1229.403	938.174
181.154	19.238	1228.403	937.293
182.169	19.293	1227.542	936.849
183.183	19.436	1226.356	936.642
184.198	19.546	1225.137	936.220
185.213	19.520	1224.210	935.289
186.227	19.457	1223.343	934.201
187.242	19.568	1222.594	934.150
188.256	19.594	1221.466	933.343
189.271	19.585	1221.006	932.860
190.286	19.317	1219.492	930.179
191.300	19.084	1218.388	927.999
192.315	18.919	1217.522	926.365
193.329	18.943	1216.862	925.911
194.344	18.896	1216.721	925.470
195.359	19.222	1215.605	926.289
196.373	19.337	1215.207	926.523
197.388	19.327	1215.236	926.412
198.402	19.499	1214.824	926.940
199.417	19.715	1214.256	927.582
200.432	19.849	1213.501	927.643
201.446	19.917	1212.819	927.400
202.461	19.935	1212.302	927.023
203.475	20.039	1211.068	926.554
204.490	19.705	1209.838	923.743
205.504	19.625	1208.265	922.037
206.519	19.489	1207.380	920.553
207.534	19.652	1205.607	919.990
208.548	19.586	1204.984	919.078
209.563	19.567	1204.075	918.201
210.577	19.471	1203.489	917.164
211.592	19.769	1202.486	917.904
212.607	19.878	1201.902	917.954
213.621	19.772	1201.042	916.652
214.636	19.702	1200.037	915.437
215.650	19.736	1199.254	914.935
216.665	19.913	1198.189	914.978
217.680	19.926	1197.952	914.786
218.694	20.045	1197.095	914.680
219.709	19.956	1196.105	913.372
220.723	19.878	1195.411	912.347
221.738	19.956	1194.060	911.650
222.753	19.960	1193.510	911.169
223.767	20.023	1192.638	910.755
224.782	20.127	1192.253	910.924
225.796	20.161	1191.881	910.736
226.811	20.124	1190.729	909.585
227.826	19.907	1190.536	908.216
228.840	19.873	1189.822	907.415
229.855	19.813	1188.913	906.326
230.869	19.865	1188.172	905.953
231.884	19.879	1187.070	905.106
232.899	19.716	1186.366	903.636
233.913	19.693	1185.726	902.949
234.928	19.655	1184.791	901.959
235.942	19.610	1184.243	901.230
236.957	19.645	1183.440	900.717
237.972	19.487	1182.625	899.195
238.986	19.693	1181.602	899.409
240.001	19.582	1181.254	898.490
241.015	19.721	1180.199	898.331
242.030	19.742	1179.540	897.856
243.045	19.909	1179.078	898.294
244.059	19.914	1178.141	897.524
245.074	19.924	1177.381	896.922
246.088	20.051	1176.865	897.103
247.103	20.048	1176.260	896.546
248.117	20.108	1175.610	896.285
249.132	20.414	1174.560	896.984
250.147	20.523	1174.110	897.123
251.161	20.698	1173.744	897.668
252.176	20.847	1172.832	897.661
253.190	20.836	1172.271	897.094
254.205	20.889	1172.044	897.113
255.220	20.827	1171.247	896.104
256.234	20.843	1170.522	895.551
257.249	20.862	1169.875	895.076
258.263	20.751	1169.218	893.927
259.278	20.651	1168.829	893.037
260.293	20.803	1167.878	893.011
261.307	20.912	1167.748	893.391
262.322	20.891	1166.874	892.532
263.336	20.876	1166.010	891.719
264.351	20.979	1165.070	891.445
265.366	21.071	1164.690	891.544
266.380	20.996	1164.090	890.625
267.395	20.905	1162.682	889.004
268.409	20.793	1162.426	888.162
269.424	20.762	1161.510	887.225
270.439	20.704	1161.302	886.692
271.453	20.737	1160.433	886.114
272.468	20.508	1159.690	884.305
273.482	20.630	1158.428	883.883
274.497	20.531	1158.214	883.140
275.512	20.585	1157.462	882.764
276.526	20.612	1156.470	882.065
277.541	20.662	1155.673	881.631
278.555	20.633	1155.296	881.118
279.570	20.832	1154.919	881.764
280.585	21.119	1153.655	882.171
281.599	20.936	1153.039	880.697
282.614	20.908	1151.819	879.545
283.628	20.726	1150.979	877.908
284.643	20.830	1149.636	877.329
285.657	20.817	1148.956	876.666
286.672	20.790	1147.836	875.601
287.687	20.773	1147.197	874.948
288.701	20.858	1146.485	874.757
289.716	20.880	1145.437	873.991
290.730	20.870	1144.970	873.504
291.745	20.896	1144.184	872.959
292.760	20.889	1143.946	872.666
293.774	21.080	1142.681	872.581
294.789	21.081	1142.760	872.568
295.803	20.984	1142.041	871.454
296.818	20.968	1141.376	870.792
297.833	20.821	1140.267	869.135
298.847	20.927	1139.522	869.016
299.862	21.036	1138.335	868.580
300.876	20.944	1137.868	867.686
301.891	21.049	1137.582	867.918
302.906	21.203	1136.689	867.922
303.920	21.181	1136.267	867.414
304.935	21.334	1135.522	867.529
305.949	21.399	1134.978	867.360
306.964	21.424	1134.582	867.106
307.979	21.253	1133.447	865.310
308.993	21.217	1132.634	864.435
310.008	21.318	1132.113	864.463
311.022	21.438	1131.376	864.419
312.037	21.398	1130.461	863.443
313.052	21.217	1129.324	861.604
314.066	21.119	1128.220	860.206
315.081	20.940	1127.489	858.687
316.095	20.932	1126.557	857.865
317.110	20.966	1125.694	857.298
318.125	20.981	1125.077	856.828
319.139	21.010	1124.137	856.176
320.154	20.967	1124.021	855.799
321.168	20.904	1123.508	855.026
322.183	21.048	1122.096	854.579
323.197	21.038	1122.328	854.635
324.212	21.105	1121.668	854.382
325.227	21.250	1120.521	854.140
326.241	21.208	1120.145	853.578
327.256	21.157	1119.202	852.534
328.270	21.082	1118.334	851.430
329.285	21.138	1117.673	851.123
330.300	21.032	1116.387	849.552
331.314	20.988	1115.576	848.648
332.329	21.104	1114.856	848.590
333.343	21.191	1113.895	848.206
334.358	21.334	1113.298	848.368
335.373	21.303	1112.542	847.568
336.387	21.369	1111.783	847.234
337.402	21.423	1110.997	846.821
338.416	21.388	1110.871	846.480
339.431	21.481	1109.818	846.055
340.446	21.741	1109.078	846.673
341.460	21.732	1108.989	846.485
342.475	21.870	1107.998	846.320
343.489	21.832	1107.112	845.384
344.504	21.920	1106.402	845.190
345.519	21.890	1105.717	844.448
346.533	22.001	1105.011	844.369
347.548	22.079	1103.935	843.849
348.562	22.115	1102.997	843.226
349.577	21.808	1102.054	840.958
350.592	21.670	1100.877	839.323
351.606	21.525	1100.345	838.151
352.621	21.398	1099.969	837.185
353.635	21.360	1099.123	836.283
354.650	21.439	1098.226	835.902
355.665	21.475	1097.742	835.632
356.679	21.529	1097.252	835.444
357.694	21.579	1096.792	835.260
358.708	21.727	1095.948	835.248
359.723	21.745	1095.328	834.789
360.738	21.794	1094.494	834.312
361.752	21.666	1094.212	833.412
362.767	21.828	1093.811	833.803
363.781	21.749	1092.988	832.727
364.796	21.963	1092.291	833.139
365.810	22.026	1092.218	833.311
366.825	22.222	1091.562	833.662
367.840	22.155	1091.229	833.020
368.854	22.252	1090.643	832.957
369.869	22.248	1089.959	832.341
370.883	22.209	1088.906	831.282
371.898	22.131	1087.793	829.990
372.913	22.121	1087.574	829.701
373.927	22.059	1086.940	828.851
374.942	22.226	1086.462	829.201
375.956	22.289	1085.992	829.065
376.971	22.286	1085.136	828.323
377.986	22.188	1084.931	827.635
379.000	22.513	1084.275	828.588
380.015	22.407	1083.818	827.668
381.029	22.514	1082.961	827.441
382.044	22.516	1082.479	827.011
383.059	22.444	1081.409	825.784
384.073	22.415	1080.743	825.065
385.088	22.577	1079.776	825.013
386.102	22.501	1078.628	823.707
387.117	22.183	1077.677	821.424
388.132	22.120	1077.055	820.582
389.146	22.091	1076.044	819.600
390.161	22.051	1075.462	818.899
391.175	22.111	1074.531	818.399
392.190	22.309	1073.954	818.806
393.205	22.501	1073.373	819.187
394.219	22.457	1072.630	818.343
395.234	22.370	1071.608	817.087
396.248	22.251	1070.692	815.761
397.263	22.226	1069.495	814.664
398.278	22.083	1069.194	813.697
399.292	22.117	1068.014	812.884
400.307	22.010	1067.451	811.890
401.321	21.943	1066.884	811.078
402.336	21.953	1066.184	810.519
403.350	21.897	1065.379	809.579
404.365	22.136	1064.884	810.232
405.380	22.175	1064.271	809.874
406.394	22.244	1063.406	809.462
407.409	22.374	1062.920	809.620
408.423	22.588	1061.797	809.677
409.438	22.619	1061.267	809.342
410.453	22.692	1060.580	809.081
411.467	22.671	1060.201	808.623
412.482	22.728	1059.650	808.395
413.496	22.839	1058.906	808.260
414.511	22.874	1058.370	807.942
415.526	23.055	1058.074	808.473
416.540	22.995	1057.750	807.879
417.555	22.993	1057.101	807.302
418.569	22.882	1056.271	806.088
419.584	22.834	1055.967	805.568
420.599	22.848	1055.438	805.157
421.613	154.291	1400.354	1788.692
422.628	141.745	1450.620	1788.822
