DTS Sentinel unit serial number:	SN413079Multiplexer serial number:	ORYXHardware model number:	OX4-SRSoftware version number:	ORYX F/W v4.00 Oryx Data Collector v3.7.2.0data status	okinstallation	princeton_trtdifferential loss correction	single-endedforward channel	channel 2reverse channel	N/Adate	2019/09/13time	20:43:35forward acquisition time	60.00reverse acquisition time	0.00gamma	496.2192k internal	0.2334k external	0.2334temperature offset calibration	1.0126default loss term (dB/km)	0.3790temperature slope calibration	1.0000multiplexer offset coefficient	1.0000multiplexer slope coefficient	1.0000fibre end	0.00T internal ref (°C)	28.87T ext. ref 1 (°C)	3.09T ext. ref 2 (°C)	23.50length (m)	temperature (°C)	Stokes	anti-Stokes-747.200	-200.000	0.010	0.510
-746.185	800.000	0.067	0.218
-745.171	-159.881	0.137	-0.008
-744.156	-11.851	-0.279	0.184
-743.142	-172.437	-0.181	-0.006
-742.127	-200.000	-0.045	-0.235
-741.112	800.000	0.061	-0.218
-740.098	800.000	0.131	0.445
-739.083	800.000	0.165	0.483
-738.069	12.557	-0.136	0.105
-737.054	-45.131	0.233	0.116
-736.039	361.025	0.057	0.114
-735.025	196.079	0.127	0.194
-734.010	-2.699	-0.160	-0.113
-732.996	25.739	0.144	-0.121
-731.981	-200.000	0.075	-0.356
-730.966	71.032	0.060	0.062
-729.952	-200.000	-0.025	-0.268
-728.937	-62.965	0.236	-0.098
-727.923	-200.000	-0.023	-0.298
-726.908	-163.221	-0.138	-0.007
-725.894	-12.885	-0.320	-0.210
-724.879	14.791	0.063	0.049
-723.864	-117.681	-0.381	-0.069
-722.850	162.225	-0.179	-0.252
-721.835	-55.221	0.183	-0.083
-720.821	-11.027	-0.196	-0.130
-719.806	28.800	0.242	-0.206
-718.791	-84.558	0.225	-0.071
-717.777	-70.559	-0.128	-0.049
-716.762	197.844	0.058	0.089
-715.748	244.862	-0.085	0.144
-714.733	800.000	0.054	-0.200
-713.718	-45.620	-0.047	-0.024
-712.704	-76.360	0.081	0.028
-711.689	-72.440	-0.098	-0.036
-710.675	-12.244	-0.181	-0.119
-709.660	-131.506	-0.490	0.065
-708.645	11.602	-0.176	0.135
-707.631	-55.823	0.125	-0.056
-706.616	26.795	-0.210	-0.177
-705.602	800.000	-0.063	-0.272
-704.587	800.000	0.100	-0.316
-703.572	-37.716	0.164	-0.088
-702.558	800.000	0.065	-0.252
-701.543	800.000	0.077	0.296
-700.529	27.517	-0.126	0.106
-699.514	-200.000	0.050	0.351
-698.499	-18.833	0.283	-0.177
-697.485	-64.840	-0.427	-0.173
-696.470	-79.121	-0.158	-0.054
-695.456	-93.503	0.046	0.013
-694.441	-15.349	-0.042	0.027
-693.426	-200.000	0.052	0.315
-692.412	56.363	-0.114	0.111
-691.397	800.000	-0.027	-0.111
-690.383	-200.000	-0.004	-0.445
-689.368	14.301	0.278	-0.218
-688.354	294.575	0.154	-0.283
-687.339	568.604	0.150	0.366
-686.324	76.435	-0.288	0.306
-685.310	28.344	0.130	-0.110
-684.295	-135.039	-0.131	0.016
-683.281	-35.516	0.344	0.187
-682.266	293.396	-0.025	0.046
-681.251	40.366	0.096	-0.086
-680.237	214.805	-0.207	-0.328
-679.222	-46.570	0.193	0.095
-678.208	27.037	-0.149	0.125
-677.193	-27.727	-0.236	-0.137
-676.178	-121.350	-0.240	-0.040
-675.164	-21.038	0.266	-0.163
-674.149	236.201	-0.047	-0.078
-673.135	32.285	0.368	0.318
-672.120	-12.589	0.063	-0.041
-671.105	41.739	0.134	0.122
-670.091	-2.016	0.132	0.093
-669.076	221.658	0.224	-0.360
-668.062	19.039	-0.265	-0.213
-667.047	-200.000	0.010	-0.242
-666.032	-104.138	-0.123	0.029
-665.018	-200.000	-0.015	0.161
-664.003	80.156	0.201	0.217
-662.989	-119.326	-0.181	0.032
-661.974	31.345	0.246	0.211
-660.959	-77.728	0.363	0.126
-659.945	89.838	0.088	-0.098
-658.930	800.000	-0.038	-0.125
-657.916	105.917	-0.350	0.415
-656.901	-49.449	0.175	-0.084
-655.886	247.649	-0.030	-0.051
-654.872	149.178	-0.133	-0.180
-653.857	-13.889	-0.122	-0.079
-652.843	800.000	0.035	0.138
-651.828	-123.688	-0.145	0.023
-650.814	-168.642	-0.284	-0.011
-649.799	800.000	-0.052	-0.209
-648.784	-61.182	0.237	-0.100
-647.770	-200.000	-0.048	0.356
-646.755	206.653	-0.037	-0.058
-645.741	-170.051	0.191	-0.007
-644.726	-14.644	0.281	-0.181
-643.711	800.000	-0.093	-0.380
-642.697	800.000	-0.044	-0.146
-641.682	-59.667	-0.223	0.096
-640.668	160.879	-0.123	-0.172
-639.653	268.909	-0.075	-0.131
-638.638	-133.274	0.137	-0.017
-637.624	-200.000	-0.030	0.233
-636.609	-129.272	-0.367	0.051
-635.595	-118.917	-0.165	-0.029
-634.580	-15.689	0.207	-0.132
-633.565	-200.000	-0.058	-0.264
-632.551	-121.921	-0.265	-0.044
-631.536	-27.178	-0.093	0.054
-630.522	-28.820	0.218	0.125
-629.507	-39.247	-0.235	0.124
-628.492	800.000	0.110	0.378
-627.478	-200.000	0.028	-0.296
-626.463	-166.098	-0.118	-0.005
-625.449	-19.460	-0.271	0.168
-624.434	652.505	0.027	-0.070
-623.419	-200.000	-0.058	-0.316
-622.405	-200.000	-0.000	-0.180
-621.390	115.921	-0.151	0.184
-620.376	-150.076	0.149	0.012
-619.361	56.007	-0.113	-0.110
-618.346	44.968	0.147	-0.135
-617.332	-41.432	-0.319	0.164
-616.317	-79.306	-0.053	-0.018
-615.303	657.642	-0.110	-0.284
-614.288	-30.680	0.007	0.004
-613.273	99.832	0.276	-0.320
-612.259	10.616	-0.117	-0.089
-611.244	-13.094	-0.191	0.124
-610.230	138.294	-0.045	-0.059
-609.215	96.764	0.096	-0.110
-608.201	800.000	-0.069	-0.231
-607.186	-179.757	-0.171	-0.004
-606.171	-200.000	-0.015	-0.148
-605.157	-14.608	-0.513	-0.329
-604.142	-16.561	-0.248	0.157
-603.128	-200.000	0.040	-0.407
-602.113	-73.568	0.105	-0.038
-601.098	-200.000	0.010	0.145
-600.084	-200.000	0.005	0.062
-599.069	800.000	0.115	-0.320
-598.055	-20.534	-0.092	-0.057
-597.040	-200.000	-0.023	-0.171
-596.025	800.000	0.069	0.279
-595.011	-138.602	0.075	0.008
-593.996	-11.550	-0.054	0.035
-592.982	216.251	-0.061	0.097
-591.967	-76.097	0.109	0.039
-590.952	-67.291	-0.070	0.028
-589.938	-35.560	-0.351	-0.191
-588.923	235.692	0.071	-0.116
-587.909	-200.000	-0.016	0.080
-586.894	-42.957	0.304	-0.154
-585.879	-22.991	0.203	0.122
-584.865	-153.095	-0.247	0.017
-583.850	279.878	-0.043	-0.076
-582.836	41.020	-0.371	0.334
-581.821	-51.150	-0.178	0.083
-580.806	-13.855	0.178	0.115
-579.792	48.925	-0.208	0.195
-578.777	556.768	0.104	0.250
-577.763	43.585	0.181	-0.166
-576.748	-50.684	0.302	0.142
-575.733	-94.222	-0.255	-0.070
-574.719	-46.226	0.207	-0.102
-573.704	274.966	-0.109	-0.193
-572.690	152.035	-0.107	0.146
-571.675	-200.000	-0.004	-0.049
-570.661	-14.364	0.255	0.164
-569.646	-100.809	-0.307	0.075
-568.631	800.000	0.046	0.135
-567.617	-29.484	0.155	-0.089
-566.602	385.774	-0.045	0.093
-565.588	-138.239	-0.259	-0.029
-564.573	-46.095	0.110	0.054
-563.558	-161.057	-0.207	0.011
-562.544	153.923	-0.187	0.256
-561.529	-40.547	0.203	-0.105
-560.515	-200.000	-0.004	-0.116
-559.500	-98.668	-0.082	-0.021
-558.485	69.725	-0.082	0.084
-557.471	-200.000	-0.005	0.106
-556.456	-93.096	-0.264	0.073
-555.442	-138.635	-0.335	0.037
-554.427	144.023	0.069	0.092
-553.412	-41.668	-0.229	0.117
-552.398	53.086	-0.149	0.143
-551.383	238.502	-0.121	0.201
-550.369	800.000	-0.083	0.228
-549.354	-200.000	0.000	0.123
-548.339	-200.000	-0.017	0.206
-547.325	-200.000	0.028	-0.259
-546.310	-99.831	0.097	0.024
-545.296	6.128	0.168	0.124
-544.281	-77.688	0.196	-0.067
-543.266	-200.000	-0.023	-0.127
-542.252	-200.000	-0.038	0.289
-541.237	-65.388	0.425	-0.170
-540.223	157.739	-0.161	0.222
-539.208	-200.000	-0.041	0.219
-538.193	238.808	-0.148	-0.245
-537.179	-42.389	0.179	-0.091
-536.164	204.955	-0.127	0.196
-535.150	-10.172	-0.249	-0.165
-534.135	-66.496	-0.203	-0.080
-533.121	-7.502	-0.328	-0.221
-532.106	266.679	0.131	-0.228
-531.091	131.598	0.113	0.144
-530.077	-108.208	0.456	0.098
-529.062	10.765	-0.365	0.277
-528.048	-17.406	-0.041	0.026
-527.033	-200.000	0.013	-0.137
-526.018	-200.000	-0.026	-0.144
-525.004	342.099	-0.090	0.175
-523.989	-103.651	-0.281	-0.066
-522.975	62.648	0.037	0.037
-521.960	-158.095	0.018	0.001
-520.945	-89.668	0.094	0.028
-519.931	215.026	-0.064	-0.101
-518.916	-84.369	-0.083	0.026
-517.902	-200.000	0.015	0.131
-516.887	-200.000	0.020	-0.299
-515.872	251.195	0.022	-0.037
-514.858	73.399	-0.164	-0.171
-513.843	192.056	0.056	0.085
-512.829	-26.455	0.057	0.033
-511.814	263.320	-0.128	-0.221
-510.799	-200.000	-0.026	-0.224
-509.785	680.141	-0.091	-0.235
-508.770	-87.926	0.176	0.053
-507.756	-200.000	-0.048	-0.282
-506.741	-200.000	-0.053	-0.389
-505.726	-200.000	0.003	-0.178
-504.712	800.000	-0.075	0.210
-503.697	364.381	0.139	-0.278
-502.683	342.357	-0.125	-0.244
-501.668	-83.843	-0.249	0.079
-500.653	-200.000	0.048	-0.220
-499.639	-200.000	-0.022	0.284
-498.624	128.457	0.240	0.305
-497.610	-200.000	0.009	0.143
-496.595	185.063	-0.110	0.163
-495.581	104.149	0.324	0.379
-494.566	-148.111	0.351	-0.029
-493.551	168.508	-0.077	0.109
-492.537	800.000	-0.053	0.159
-491.522	-164.727	0.132	-0.006
-490.508	-19.122	0.196	-0.121
-489.493	40.955	-0.081	0.073
-488.478	-90.658	0.104	-0.030
-487.464	800.000	0.078	-0.296
-486.449	183.056	0.168	0.247
-485.435	-7.233	-0.283	-0.191
-484.420	-94.750	-0.212	-0.057
-483.405	-84.643	0.300	-0.094
-482.391	-200.000	0.031	-0.207
-481.376	-94.730	0.174	-0.047
-480.362	-200.000	-0.051	0.276
-479.347	-200.000	0.009	-0.195
-478.332	98.297	0.086	0.099
-477.318	-91.217	0.319	0.091
-476.303	-91.478	-0.193	-0.055
-475.289	97.617	-0.018	-0.021
-474.274	-38.810	0.280	-0.147
-473.259	295.051	-0.115	0.209
-472.245	99.077	0.127	-0.145
-471.230	-51.828	0.312	0.145
-470.216	104.234	0.143	0.168
-469.201	800.000	-0.054	0.183
-468.186	-60.189	0.069	-0.029
-467.172	-95.218	-0.192	-0.051
-466.157	565.061	-0.019	-0.045
-465.143	-144.588	-0.184	-0.017
-464.128	-27.524	-0.199	-0.115
-463.113	800.000	-0.085	-0.277
-462.099	-95.541	0.214	0.057
-461.084	285.444	0.085	0.153
-460.070	800.000	0.104	0.301
-459.055	241.661	0.152	0.252
-458.040	-200.000	-0.008	-0.074
-457.026	262.841	0.121	0.209
-456.011	800.000	0.112	-0.342
-454.997	11.558	-0.114	0.087
-453.982	-200.000	0.008	0.366
-452.968	114.006	0.061	-0.074
-451.953	-85.402	-0.211	0.065
-450.938	-200.000	-0.001	0.564
-449.924	100.612	-0.104	-0.120
-448.909	-38.415	0.357	0.188
-447.895	-72.622	0.137	-0.050
-446.880	-102.927	0.038	0.009
-445.865	216.383	0.066	-0.104
-444.851	-89.549	-0.132	0.039
-443.836	-108.239	-0.093	0.020
-442.822	-99.629	0.253	-0.063
-441.807	-4.332	0.116	-0.079
-440.792	800.000	-0.071	0.261
-439.778	-148.687	0.145	0.012
-438.763	-72.429	0.199	-0.073
-437.749	77.846	0.348	0.369
-436.734	-156.498	-0.393	0.024
-435.719	137.620	0.075	-0.097
-434.705	-103.672	0.066	-0.015
-433.690	-17.943	-0.277	-0.173
-432.676	-110.486	0.164	0.034
-431.661	248.082	-0.114	0.191
-430.646	-200.000	-0.009	0.072
-429.632	456.052	0.129	-0.285
-428.617	-164.012	0.331	-0.015
-427.603	-84.894	-0.196	-0.061
-426.588	33.874	-0.111	0.096
-425.573	-6.825	0.149	-0.101
-424.559	-129.926	0.206	0.028
-423.544	800.000	-0.068	-0.276
-422.530	303.074	-0.236	-0.434
-421.515	-200.000	0.011	-0.074
-420.500	-63.055	-0.068	0.028
-419.486	34.846	0.170	0.147
-418.471	800.000	-0.046	-0.139
-417.457	800.000	0.071	-0.241
-416.442	520.905	-0.057	0.133
-415.428	-137.204	0.153	-0.017
-414.413	-51.534	0.042	-0.019
-413.398	-200.000	-0.066	-0.290
-412.384	-91.228	-0.263	-0.075
-411.369	136.235	0.151	0.195
-410.355	187.275	-0.048	-0.072
-409.340	-41.092	-0.317	0.162
-408.325	14.816	-0.072	0.056
-407.311	-200.000	0.028	-0.260
-406.296	777.528	0.015	0.040
-405.282	-27.863	0.035	-0.020
-404.267	92.065	0.131	0.147
-403.252	474.045	-0.030	-0.067
-402.238	-200.000	-0.350	0.001
-401.223	-200.000	0.034	0.201
-400.209	800.000	0.071	0.219
-399.194	-200.000	-0.059	-0.514
-398.179	800.000	-0.100	0.288
-397.165	196.721	-0.096	0.145
-396.150	-50.848	-0.506	0.236
-395.136	314.803	0.089	0.166
-394.121	-0.363	0.373	-0.262
-393.106	800.000	0.109	-0.300
-392.092	12.662	-0.245	0.187
-391.077	-112.888	0.052	-0.010
-390.063	455.047	-0.105	-0.230
-389.048	-164.648	0.116	0.005
-388.033	30.989	0.325	-0.276
-387.019	261.282	-0.103	0.176
-386.004	-50.812	0.152	0.071
-384.990	185.796	-0.136	0.200
-383.975	-35.689	0.286	0.154
-382.960	150.289	-0.065	0.087
-381.946	-57.748	0.162	-0.070
-380.931	-97.640	0.095	-0.024
-379.917	-22.469	-0.217	0.130
-378.902	-161.317	-0.341	0.018
-377.888	128.266	0.099	0.125
-376.873	-166.431	0.303	-0.013
-375.858	-82.390	0.024	0.008
-374.844	-200.000	-0.046	-0.240
-373.829	37.690	0.052	0.046
-372.815	-37.232	0.172	-0.091
-371.800	380.414	-0.148	0.301
-370.785	63.174	-0.137	-0.136
-369.771	-200.000	-0.040	-0.245
-368.756	346.337	0.108	0.211
-367.742	-168.279	-0.307	0.012
-366.727	48.519	-0.230	0.213
-365.712	-51.601	0.169	-0.078
-364.698	55.770	-0.225	-0.216
-363.683	45.131	0.094	0.086
-362.669	54.888	-0.225	0.215
-361.654	-200.000	-0.074	0.346
-360.639	-143.706	0.043	-0.004
-359.625	79.171	-0.219	0.232
-358.610	189.751	-0.133	-0.197
-357.596	-200.000	0.037	-0.172
-356.581	-134.918	-0.030	0.004
-355.566	167.229	-0.065	0.091
-354.552	-22.738	-0.241	0.144
-353.537	-74.468	-0.245	0.088
-352.523	800.000	-0.115	0.363
-351.508	-110.658	0.383	-0.078
-350.493	800.000	-0.007	-0.018
-349.479	375.399	-0.068	-0.137
-348.464	290.962	-0.030	-0.054
-347.450	-200.000	0.007	-0.120
-346.435	35.127	-0.207	-0.180
-345.420	-200.000	-0.032	-0.435
-344.406	214.156	0.123	-0.193
-343.391	-139.357	0.264	0.028
-342.377	266.703	0.059	-0.102
-341.362	-200.000	-0.014	0.215
-340.348	-115.966	-0.277	-0.051
-339.333	280.247	0.150	0.266
-338.318	-128.840	0.124	-0.017
-337.304	321.023	0.126	0.237
-336.289	-71.963	-0.269	0.099
-335.275	322.218	0.057	0.108
-334.260	-172.558	0.361	0.011
-333.245	58.542	-0.068	0.066
-332.231	-200.000	-0.002	0.158
-331.216	112.067	-0.162	0.193
-330.202	800.000	0.051	-0.139
-329.187	-26.062	0.368	-0.214
-328.172	-86.792	-0.238	0.072
-327.158	-102.651	-0.357	-0.084
-326.143	100.094	-0.132	0.151
-325.129	-45.019	0.231	-0.113
-324.114	434.037	-0.110	0.236
-323.099	45.741	0.123	0.112
-322.085	-67.207	-0.199	-0.077
-321.070	-125.329	0.189	0.028
-320.056	94.722	0.271	-0.305
-319.041	800.000	0.075	0.306
-318.026	800.000	0.073	0.266
-317.012	602.629	-0.025	0.061
-315.997	-187.568	-0.135	-0.002
-314.983	-200.000	-0.030	0.345
-313.968	-67.981	0.207	0.080
-312.953	493.229	0.094	-0.213
-311.939	800.000	0.029	0.085
-310.924	23.638	-0.093	-0.075
-309.910	75.126	0.290	0.302
-308.895	-72.678	-0.207	0.075
-307.880	20.817	-0.293	-0.235
-306.866	-200.000	-0.009	-0.387
-305.851	-82.337	0.281	-0.090
-304.837	313.850	0.169	-0.314
-303.822	800.000	0.019	-0.079
-302.807	-200.000	0.025	0.207
-301.793	92.682	-0.075	-0.083
-300.778	-26.854	-0.173	-0.100
-299.764	90.797	-0.139	-0.153
-298.749	-59.757	0.130	0.055
-297.735	60.447	-0.113	-0.111
-296.720	256.151	-0.216	-0.365
-295.705	747.732	0.042	-0.111
-294.691	800.000	-0.081	-0.225
-293.676	101.525	-0.140	-0.161
-292.662	-135.607	0.260	0.031
-291.647	-72.717	-0.370	0.135
-290.632	-200.000	-0.115	0.000
-289.618	-200.000	0.098	0.531
-288.603	-47.916	0.403	0.192
-287.589	-72.353	0.137	-0.050
-286.574	21.272	-0.244	-0.196
-285.559	800.000	0.083	-0.245
-284.545	82.569	0.053	0.056
-283.530	14.933	0.238	-0.184
-282.516	-80.719	0.102	-0.033
-281.501	133.817	-0.166	0.212
-280.486	-6.711	0.088	-0.059
-279.472	-200.000	-0.037	0.272
-278.457	-70.949	0.115	-0.043
-277.443	63.166	0.105	0.104
-276.428	800.000	-0.080	-0.230
-275.413	-4.965	-0.317	0.216
-274.399	-156.350	0.118	-0.007
-273.384	-200.000	-0.002	-0.016
-272.370	-74.960	0.177	-0.063
-271.355	800.000	-0.093	-0.266
-270.340	544.012	-0.065	-0.152
-269.326	502.747	-0.105	0.239
-268.311	-46.004	0.161	-0.078
-267.297	-139.410	0.356	-0.038
-266.282	23.209	-0.220	0.178
-265.267	-90.074	0.080	-0.023
-264.253	-43.277	0.209	-0.104
-263.238	732.375	-0.019	-0.050
-262.224	-102.131	0.089	0.021
-261.209	178.654	-0.072	0.104
-260.195	-85.985	-0.103	0.031
-259.180	800.000	-0.051	0.139
-258.165	-11.611	-0.220	-0.142
-257.151	213.699	-0.167	-0.260
-256.136	-188.030	-0.398	0.005
-255.122	-5.994	0.293	0.198
-254.107	649.313	0.105	-0.265
-253.092	258.145	-0.073	0.123
-252.078	-121.342	-0.030	-0.005
-251.063	-26.392	0.248	-0.144
-250.049	13.075	-0.094	0.072
-249.034	18.463	-0.191	-0.151
-248.019	44.471	-0.190	0.172
-247.005	-200.000	0.030	0.251
-245.990	56.560	-0.128	-0.122
-244.976	158.851	-0.151	0.206
-243.961	-90.298	-0.259	0.074
-242.946	-109.642	0.277	0.058
-241.932	421.503	-0.140	0.295
-240.917	20.382	-0.100	0.080
-239.903	217.530	0.038	0.060
-238.888	800.000	-0.046	-0.141
-237.873	-96.008	0.071	-0.019
-236.859	-72.990	0.119	-0.043
-235.844	-126.913	-0.205	-0.030
-234.830	322.049	0.099	0.185
-233.815	-75.981	0.205	0.071
-232.800	-108.387	-0.217	-0.046
-231.786	85.408	0.141	-0.152
-230.771	11.795	0.351	0.266
-229.757	-100.037	-0.282	-0.069
-228.742	-111.546	0.170	0.034
-227.727	-30.568	0.153	-0.085
-226.713	405.575	0.107	0.223
-225.698	-131.969	-0.236	-0.030
-224.684	298.979	-0.093	0.169
-223.669	188.502	0.092	-0.136
-222.655	-24.118	0.135	-0.079
-221.640	59.364	-0.186	0.180
-220.625	-117.360	0.155	0.028
-219.611	15.487	0.314	-0.243
-218.596	800.000	-0.144	-0.454
-217.582	-91.284	-0.228	0.064
-216.567	27.429	0.245	0.203
-215.552	800.000	-0.041	0.158
-214.538	-200.000	-0.034	0.484
-213.523	-136.612	-0.233	-0.027
-212.509	-200.000	0.029	0.229
-211.494	-84.218	0.182	-0.057
-210.479	8.438	-0.240	0.178
-209.465	194.269	-0.040	-0.059
-208.450	-88.674	0.098	-0.029
-207.436	-185.848	0.192	-0.003
-206.421	72.578	-0.163	0.168
-205.406	-200.000	0.013	0.149
-204.392	434.195	0.143	-0.306
-203.377	599.379	-0.066	-0.162
-202.363	11.248	0.188	-0.142
-201.348	78.663	-0.093	0.098
-200.333	160.961	-0.071	-0.097
-199.319	-200.000	0.018	0.202
-198.304	-62.434	-0.119	0.049
-197.290	-200.000	0.062	-0.309
-196.275	800.000	-0.016	0.060
-195.260	42.557	0.170	-0.153
-194.246	-104.117	0.280	0.064
-193.231	800.000	0.042	-0.127
-192.217	-200.000	0.014	0.442
-191.202	-156.461	0.123	0.008
-190.187	-63.285	0.174	-0.070
-189.173	800.000	-0.088	-0.315
-188.158	-200.000	-0.011	-0.167
-187.144	73.193	0.034	-0.035
-186.129	-34.739	-0.251	-0.135
-185.114	194.283	0.141	0.211
-184.100	-130.095	-0.323	-0.043
-183.085	124.909	-0.042	0.052
-182.071	800.000	0.084	-0.254
-181.056	-154.769	0.321	0.021
-180.042	380.996	-0.198	0.400
-179.027	47.325	-0.084	-0.077
-178.012	-83.994	0.290	-0.091
-176.998	-200.000	-0.017	-0.282
-175.983	155.599	0.189	-0.255
-174.969	-200.000	-0.003	-0.092
-173.954	83.284	-0.070	0.075
-172.939	107.400	0.408	-0.476
-171.925	-5.778	-0.153	-0.103
-170.910	-200.000	0.079	-0.518
-169.896	800.000	0.079	0.318
-168.881	-84.076	0.285	-0.089
-167.866	-200.000	0.027	-0.191
-166.852	-121.594	-0.154	0.025
-165.837	-32.162	0.377	0.207
-164.823	-200.000	-0.089	0.492
-163.808	765.462	0.041	-0.109
-162.793	40.428	0.246	0.217
-161.779	456.669	-0.045	0.099
-160.764	321.386	0.187	0.349
-159.750	-60.209	0.223	0.093
-158.735	-200.000	0.453	0.001
-157.720	-59.649	0.188	0.079
-156.706	-200.000	0.032	0.264
-155.691	-39.616	-0.295	-0.152
-154.677	-200.000	0.019	-0.239
-153.662	-104.276	0.224	0.051
-152.647	503.540	-0.079	-0.180
-151.633	-127.605	0.301	0.043
-150.618	-33.738	0.094	0.051
-149.604	445.037	-0.057	-0.123
-148.589	-124.921	-0.038	-0.006
-147.574	-39.026	-0.117	0.060
-146.560	62.937	-0.270	0.265
-145.545	-200.000	0.234	0.001
-144.531	800.000	-0.041	0.173
-143.516	199.477	-0.223	-0.336
-142.502	-90.528	0.197	0.056
-141.487	643.691	0.037	-0.093
-140.472	800.000	-0.053	-0.157
-139.458	193.904	-0.076	-0.113
-138.443	-57.762	0.227	-0.097
-137.429	-111.581	0.177	0.035
-136.414	-21.203	0.270	0.162
-135.399	-200.000	-0.013	-0.061
-134.385	-85.208	-0.066	-0.020
-133.370	-182.909	-0.084	-0.001
-132.356	-200.000	0.065	-0.346
-131.341	40.241	0.062	0.055
-130.326	-63.477	0.089	-0.036
-129.312	518.374	0.153	-0.351
-128.297	243.469	0.032	-0.052
-127.283	-140.361	0.077	0.008
-126.268	-200.000	0.017	-0.258
-125.253	54.202	0.135	0.127
-124.239	102.555	-0.037	0.042
-123.224	-128.474	-0.119	0.017
-122.210	674.620	-0.045	0.114
-121.195	197.903	0.191	-0.286
-120.180	276.487	0.029	-0.050
-119.166	-15.335	0.166	-0.104
-118.151	72.670	0.104	-0.107
-117.137	34.252	0.190	0.162
-116.122	-200.000	-0.003	0.051
-115.107	77.458	0.147	-0.153
-114.093	-200.000	0.011	-0.273
-113.078	-123.781	0.325	0.050
-112.064	-68.461	-0.083	0.031
-111.049	-177.301	-0.214	-0.005
-110.034	1.851	0.262	-0.186
-109.020	-200.000	0.054	0.340
-108.005	-200.000	-0.001	0.146
-106.991	59.393	-0.404	-0.391
-105.976	6.197	0.158	0.115
-104.962	-109.078	-0.176	0.037
-103.947	-200.000	-0.005	0.091
-102.932	-200.000	-0.037	0.265
-101.918	141.520	0.116	-0.150
-100.903	14.891	0.084	0.064
-99.889	246.456	-0.146	0.241
-98.874	279.754	-0.150	0.263
-97.859	121.248	0.138	-0.168
-96.845	-200.000	-0.217	0.001
-95.830	-30.628	-0.116	0.064
-94.816	153.649	-0.207	0.277
-93.801	-44.408	0.346	0.170
-92.786	46.198	-0.165	0.150
-91.772	547.837	-0.170	-0.399
-90.757	-132.311	0.062	-0.008
-89.743	258.203	-0.097	0.164
-88.728	-200.000	-0.005	0.029
-87.713	190.042	-0.195	0.287
-86.699	145.564	0.268	-0.352
-85.684	-37.578	-0.026	0.013
-84.670	-93.045	-0.233	-0.063
-83.655	-13.288	-0.185	0.118
-82.640	96.199	0.198	-0.222
-81.626	800.000	0.062	-0.182
-80.611	-200.000	0.010	0.414
-79.597	-81.065	-0.145	0.047
-78.582	800.000	0.063	-0.242
-77.567	-200.000	-0.051	0.381
-76.553	-200.000	-0.026	0.126
-75.538	-32.805	0.042	-0.023
-74.524	-200.000	-0.007	0.134
-73.509	-129.358	0.121	-0.016
-72.494	2.296	0.250	0.177
-71.480	-39.076	0.146	-0.075
-70.465	-200.000	0.024	-0.190
-69.451	-82.227	-0.360	-0.115
-68.436	-121.104	0.315	-0.052
-67.422	-142.424	-0.194	0.019
-66.407	-200.000	0.044	-0.192
-65.392	154.215	-0.131	-0.176
-64.378	378.654	0.154	-0.308
-63.363	-67.291	0.179	0.069
-62.349	800.000	-0.036	0.118
-61.334	179.191	-0.689	-0.986
-60.319	-37.589	0.550	0.287
-59.305	-200.000	-0.044	-1.138
-58.290	226.031	0.652	1.034
-57.276	243.562	0.768	1.261
-56.261	-200.000	112.477	648.460
-55.246	534.222	1518.650	3520.756
-54.232	176.701	2702.702	3844.343
-53.217	106.859	2283.156	2651.527
-52.203	38.367	1890.182	1647.246
-51.188	32.208	1679.850	1417.602
-50.173	29.602	1637.401	1362.537
-49.159	50.342	1692.976	1564.818
-48.144	50.142	1707.399	1576.584
-47.130	31.761	1664.560	1401.141
-46.115	29.013	1650.142	1368.540
-45.100	28.701	1645.866	1362.624
-44.086	28.653	1642.971	1359.819
-43.071	28.758	1639.803	1357.917
-42.057	28.668	1637.956	1355.672
-41.042	28.744	1635.122	1353.832
-40.027	28.752	1633.803	1352.745
-39.013	28.699	1631.809	1350.648
-37.998	28.734	1630.394	1349.682
-36.984	28.769	1628.831	1348.591
-35.969	28.819	1627.591	1347.879
-34.954	28.866	1626.151	1346.974
-33.940	28.882	1624.073	1345.319
-32.925	28.919	1622.436	1344.177
-31.911	28.906	1620.773	1342.654
-30.896	28.961	1618.881	1341.436
-29.881	28.918	1616.984	1339.496
-28.867	28.874	1616.053	1338.351
-27.852	28.810	1615.005	1336.964
-26.838	28.875	1613.292	1335.970
-25.823	28.885	1611.749	1334.710
-24.809	28.938	1610.321	1333.859
-23.794	28.855	1609.150	1332.230
-22.779	28.804	1607.661	1330.580
-21.765	28.814	1606.574	1329.701
-20.750	28.804	1604.838	1328.135
-19.736	28.869	1603.372	1327.343
-18.721	28.965	1601.864	1326.729
-17.706	28.892	1600.469	1324.996
-16.692	28.916	1598.823	1323.756
-15.677	28.925	1597.373	1322.565
-14.663	28.943	1596.078	1321.573
-13.648	28.963	1594.825	1320.621
-12.633	28.891	1593.424	1318.899
-11.619	28.963	1591.653	1317.894
-10.604	28.887	1590.419	1316.274
-9.590	28.903	1589.166	1315.300
-8.575	29.005	1587.689	1314.756
-7.560	28.915	1586.598	1313.153
-6.546	28.947	1585.463	1312.395
-5.531	28.884	1584.420	1311.030
-4.517	28.871	1583.351	1309.997
-3.502	28.870	1582.363	1309.123
-2.487	29.044	1580.321	1308.618
-1.473	28.567	1568.330	1295.272
-0.458	25.490	1548.929	1257.701
0.556	22.582	1549.820	1224.473
1.571	20.149	1573.361	1225.780
2.586	19.697	1585.159	1231.642
3.600	17.272	1531.255	1172.945
4.615	10.023	1424.594	1044.446
5.629	4.005	1364.536	962.979
6.644	3.146	1356.752	952.087
7.659	3.059	1355.723	950.742
8.673	3.006	1354.799	949.682
9.688	3.149	1352.981	949.205
10.702	3.146	1349.980	946.997
11.717	5.664	1355.372	966.244
12.731	13.249	1369.573	1023.397
13.746	19.577	1378.677	1069.424
14.761	20.561	1379.846	1076.334
15.775	20.005	1377.238	1070.767
16.790	18.886	1374.726	1061.809
17.804	18.037	1372.887	1055.052
18.819	17.753	1371.547	1052.178
19.834	17.601	1370.654	1050.466
20.848	17.507	1369.325	1048.776
21.863	17.370	1367.798	1046.670
22.877	17.156	1367.131	1044.747
23.892	17.127	1366.150	1043.730
24.907	17.074	1365.429	1042.760
25.921	17.110	1364.447	1042.139
26.936	17.177	1363.381	1041.646
27.950	17.167	1362.344	1040.699
28.965	17.279	1361.199	1040.418
29.980	17.339	1360.885	1040.449
30.994	17.467	1359.289	1039.924
32.009	17.450	1358.253	1038.934
33.023	17.476	1357.310	1038.279
34.038	17.356	1356.080	1036.512
35.053	17.342	1354.492	1035.122
36.067	17.214	1353.806	1033.730
37.082	17.286	1352.528	1033.098
38.096	17.421	1351.486	1033.032
39.111	17.341	1351.160	1032.208
40.126	17.263	1349.622	1030.464
41.140	17.065	1348.914	1028.635
42.155	16.910	1348.338	1027.163
43.169	16.913	1347.880	1026.746
44.184	16.922	1347.930	1026.746
45.199	16.938	1347.138	1026.148
46.213	17.060	1346.652	1026.424
47.228	17.288	1346.160	1027.339
48.242	17.428	1344.671	1026.958
49.257	17.373	1343.146	1025.367
50.271	17.239	1342.193	1023.744
51.286	17.287	1341.157	1023.153
52.301	17.267	1339.457	1021.644
53.315	17.089	1338.510	1019.759
54.330	16.981	1337.349	1018.139
55.344	17.025	1335.874	1017.189
56.359	17.046	1335.102	1016.635
57.374	16.925	1334.051	1015.022
58.388	16.925	1333.157	1014.255
59.403	16.872	1332.647	1013.455
60.417	16.904	1331.916	1013.004
61.432	16.861	1330.849	1011.843
62.447	16.690	1330.154	1010.207
63.461	16.733	1328.998	1009.495
64.476	16.725	1327.939	1008.553
65.490	16.704	1326.540	1007.276
66.505	16.742	1325.083	1006.308
67.520	16.842	1323.591	1005.678
68.534	16.746	1322.886	1004.488
69.549	16.694	1321.995	1003.411
70.563	16.710	1321.045	1002.697
71.578	16.559	1319.890	1000.837
72.593	16.599	1318.407	999.865
73.607	16.552	1317.764	999.011
74.622	16.546	1317.522	998.699
75.636	16.610	1317.021	998.608
76.651	16.636	1315.591	997.591
77.666	16.612	1315.946	997.633
78.680	16.690	1315.389	997.580
79.695	16.801	1314.185	997.232
80.709	16.802	1314.207	997.166
81.724	16.916	1313.136	996.936
82.739	17.047	1312.239	996.935
83.753	17.153	1311.256	996.723
84.768	17.384	1310.231	997.207
85.782	17.299	1309.487	996.058
86.797	17.300	1308.477	995.208
87.812	17.283	1306.753	993.708
88.826	17.198	1305.358	992.062
89.841	17.233	1304.850	991.794
90.855	17.376	1304.028	991.916
91.870	17.328	1303.342	991.028
92.884	17.409	1302.498	990.767
93.899	17.397	1301.657	989.971
94.914	17.503	1300.578	989.681
95.928	17.424	1300.463	989.044
96.943	17.361	1299.326	987.728
97.957	17.347	1298.457	986.895
98.972	17.356	1296.922	985.695
99.987	17.301	1296.092	984.657
101.001	17.316	1295.250	984.020
102.016	17.344	1294.052	983.185
103.030	17.464	1292.858	982.883
104.045	17.336	1291.984	981.393
105.060	17.276	1290.789	980.052
106.074	17.101	1289.212	977.763
107.089	16.867	1288.089	975.478
108.103	16.744	1286.855	973.745
109.118	16.838	1285.785	973.393
110.133	16.827	1283.955	971.859
111.147	16.843	1282.489	970.752
112.162	16.879	1281.528	970.144
113.176	16.902	1280.714	969.576
114.191	17.025	1279.430	969.218
115.206	16.852	1278.877	967.726
116.220	16.928	1277.629	967.130
117.235	16.976	1276.431	966.412
118.249	16.836	1275.385	964.738
119.264	16.777	1274.366	963.549
120.279	16.767	1272.930	962.318
121.293	16.765	1271.803	961.370
122.308	16.752	1270.823	960.472
123.322	16.651	1269.961	959.162
124.337	16.523	1269.115	957.712
125.352	16.672	1267.601	957.328
126.366	16.651	1266.375	956.200
127.381	16.708	1265.216	955.559
128.395	16.648	1264.631	954.697
129.410	16.756	1263.296	954.214
130.424	16.749	1262.640	953.594
131.439	16.710	1262.339	953.063
132.454	16.868	1260.845	952.739
133.468	16.827	1260.262	951.983
134.483	16.922	1259.988	952.223
135.497	16.921	1258.494	951.007
136.512	16.977	1257.801	950.712
137.527	16.802	1256.718	948.832
138.541	16.920	1255.022	948.123
139.556	17.070	1253.620	947.817
140.570	17.172	1252.803	947.685
141.585	17.167	1251.398	946.511
142.600	17.306	1250.562	946.573
143.614	17.297	1249.989	946.001
144.629	17.377	1248.419	945.174
145.643	17.379	1247.279	944.240
146.658	17.218	1246.211	942.455
147.673	17.132	1244.609	940.682
148.687	17.074	1243.306	939.297
149.702	16.945	1242.179	937.645
150.716	16.888	1240.624	936.073
151.731	16.945	1239.735	935.636
152.746	17.007	1238.532	934.989
153.760	17.057	1237.356	934.292
154.775	17.169	1236.443	934.139
155.789	17.229	1235.611	933.754
156.804	17.231	1234.673	932.977
157.819	17.165	1233.843	931.905
158.833	17.283	1233.224	931.997
159.848	17.510	1231.549	931.891
160.862	17.500	1230.278	930.796
161.877	17.250	1229.317	928.620
162.892	17.048	1228.286	926.654
163.906	16.935	1227.474	925.347
164.921	17.070	1226.168	925.012
165.935	17.099	1225.627	924.683
166.950	17.079	1225.380	924.305
167.964	17.199	1224.090	923.901
168.979	17.215	1223.210	923.242
169.994	17.164	1222.587	922.416
171.008	17.237	1222.057	922.328
172.023	17.276	1221.182	921.797
173.037	17.381	1220.801	921.997
174.052	17.339	1219.784	920.923
175.067	17.259	1218.266	919.262
176.081	17.129	1217.117	917.612
177.096	17.135	1216.449	917.060
178.110	17.116	1215.551	916.196
179.125	17.124	1214.526	915.387
180.140	17.196	1213.652	915.037
181.154	17.354	1211.771	914.388
182.169	17.354	1211.072	913.776
183.183	17.399	1209.974	913.111
184.198	17.472	1208.657	912.425
185.213	17.526	1207.455	911.728
186.227	17.613	1206.548	911.425
187.242	17.589	1205.644	910.537
188.256	17.611	1204.984	910.072
189.271	17.695	1203.357	909.213
190.286	17.467	1202.580	907.328
191.300	17.191	1201.501	904.967
192.315	17.157	1200.582	904.013
193.329	17.059	1200.475	903.329
194.344	17.108	1200.031	903.177
195.359	17.228	1199.266	903.160
196.373	17.379	1198.585	903.371
197.388	17.543	1198.268	903.922
198.402	17.635	1197.956	904.095
199.417	17.677	1197.622	903.981
200.432	17.763	1196.680	903.646
201.446	17.917	1195.926	903.812
202.461	17.961	1194.887	903.183
203.475	17.911	1194.100	902.241
204.490	17.866	1192.157	900.459
205.504	17.714	1190.685	898.468
206.519	17.593	1189.989	897.224
207.534	17.627	1188.834	896.450
208.548	17.578	1188.142	895.595
209.563	17.654	1187.159	895.170
210.577	17.553	1186.564	894.113
211.592	17.748	1185.228	894.050
212.607	17.754	1185.158	893.950
213.621	17.730	1184.274	893.081
214.636	17.786	1183.353	892.598
215.650	17.787	1182.192	891.646
216.665	17.959	1181.170	891.697
217.680	18.032	1180.468	891.470
218.694	18.125	1179.644	891.253
219.709	18.068	1178.938	890.341
220.723	17.990	1178.148	889.261
221.738	17.869	1177.519	888.080
222.753	17.921	1177.140	887.986
223.767	18.045	1175.505	887.317
224.782	18.114	1175.430	887.540
225.796	18.092	1175.267	887.226
226.811	18.124	1174.237	886.534
227.826	17.988	1173.557	885.239
228.840	17.895	1172.699	884.030
229.855	17.954	1171.703	883.505
230.869	17.943	1171.198	882.990
231.884	17.923	1170.153	882.020
232.899	17.918	1169.198	881.196
233.913	17.732	1168.611	879.716
234.928	17.817	1167.913	879.552
235.942	17.771	1166.837	878.429
236.957	17.787	1166.186	877.943
237.972	17.838	1165.429	877.556
238.986	17.844	1164.986	877.178
240.001	17.840	1163.829	876.206
241.015	17.913	1163.269	876.085
242.030	17.956	1162.442	875.603
243.045	18.051	1161.872	875.581
244.059	17.987	1161.208	874.676
245.074	18.112	1160.643	874.813
246.088	18.155	1159.378	874.005
247.103	18.270	1158.691	873.994
248.117	18.343	1158.216	873.930
249.132	18.496	1157.462	874.066
250.147	18.648	1157.116	874.502
251.161	18.667	1156.642	874.162
252.176	18.751	1155.940	873.984
253.190	18.730	1155.335	873.340
254.205	18.756	1155.183	873.283
255.220	18.827	1154.432	872.997
256.234	18.757	1153.515	871.872
257.249	18.838	1152.501	871.437
258.263	18.745	1151.949	870.474
259.278	18.768	1151.353	870.060
260.293	18.727	1151.113	869.595
261.307	18.923	1150.074	869.723
262.322	18.946	1149.806	869.561
263.336	18.946	1148.985	868.865
264.351	18.936	1148.239	868.174
265.366	18.944	1147.779	867.788
266.380	18.904	1147.332	867.172
267.395	18.821	1146.324	865.914
268.409	18.809	1144.953	864.741
269.424	18.810	1144.469	864.304
270.439	18.794	1144.148	863.906
271.453	18.794	1143.580	863.401
272.468	18.639	1142.482	861.715
273.482	18.554	1141.329	860.346
274.497	18.693	1141.017	860.730
275.512	18.683	1139.906	859.765
276.526	18.761	1139.448	859.734
277.541	18.768	1138.524	858.997
278.555	18.775	1138.029	858.583
279.570	18.884	1137.726	858.825
280.585	19.007	1136.922	858.755
281.599	18.988	1135.912	857.822
282.614	18.915	1134.666	856.440
283.628	18.769	1133.585	854.819
284.643	18.746	1132.984	854.178
285.657	18.745	1132.184	853.493
286.672	18.771	1131.068	852.705
287.687	18.863	1130.522	852.676
288.701	18.877	1129.861	852.170
289.716	18.879	1128.587	851.144
290.730	18.981	1127.457	850.722
291.745	18.993	1127.294	850.581
292.760	18.984	1126.792	850.085
293.774	19.096	1126.193	850.113
294.789	19.108	1125.457	849.540
295.803	19.080	1125.016	848.995
296.818	18.936	1124.041	847.474
297.833	19.093	1122.981	847.369
298.847	19.075	1122.299	846.692
299.862	18.979	1121.827	845.788
300.876	19.128	1121.168	845.949
301.891	19.142	1120.400	845.365
302.906	19.292	1119.780	845.556
303.920	19.279	1119.407	845.140
304.935	19.386	1118.476	844.882
305.949	19.501	1118.279	845.222
306.964	19.469	1117.370	844.308
307.979	19.398	1116.894	843.526
308.993	19.424	1115.931	842.850
310.008	19.366	1115.338	842.043
311.022	19.434	1114.385	841.581
312.037	19.368	1113.602	840.593
313.052	19.236	1112.830	839.295
314.066	19.218	1111.628	838.226
315.081	19.144	1110.444	836.897
316.095	18.996	1110.005	835.773
317.110	19.072	1109.487	835.678
318.125	19.133	1109.028	835.555
319.139	19.043	1108.032	834.295
320.154	19.236	1107.321	834.623
321.168	19.125	1106.681	833.525
322.183	19.139	1106.129	833.108
323.197	19.260	1105.498	833.144
324.212	19.317	1105.203	833.123
325.227	19.362	1104.470	832.715
326.241	19.296	1103.801	831.818
327.256	19.268	1103.133	831.105
328.270	19.200	1102.038	829.877
329.285	19.216	1101.199	829.248
330.300	19.313	1100.201	828.893
331.314	19.164	1099.276	827.405
332.329	19.371	1098.516	827.754
333.343	19.289	1097.841	826.779
334.358	19.525	1097.025	827.220
335.373	19.694	1096.025	827.202
336.387	19.571	1095.399	826.069
337.402	19.514	1094.859	825.318
338.416	19.630	1094.444	825.485
339.431	19.595	1093.800	824.758
340.446	19.798	1093.160	825.171
341.460	19.876	1092.416	824.912
342.475	19.889	1091.560	824.254
343.489	19.809	1090.967	823.349
344.504	19.878	1090.074	822.929
345.519	20.006	1089.299	822.881
346.533	20.014	1088.501	822.245
347.548	20.019	1087.984	821.806
348.562	20.142	1086.858	821.466
349.577	19.842	1085.944	819.280
350.592	19.619	1085.053	817.483
351.606	19.599	1084.409	816.826
352.621	19.501	1084.024	816.004
353.635	19.526	1083.172	815.407
354.650	19.672	1082.181	815.278
355.665	19.672	1081.686	814.833
356.679	19.672	1081.208	814.400
357.694	19.778	1080.438	814.248
358.708	19.914	1080.070	814.540
359.723	19.922	1079.147	813.806
360.738	19.788	1078.815	812.857
361.752	19.747	1078.876	812.636
362.767	19.873	1077.793	812.342
363.781	19.789	1077.004	811.283
364.796	20.081	1076.503	812.201
365.810	20.108	1076.138	811.977
366.825	20.229	1075.484	811.979
367.840	20.360	1075.195	812.306
368.854	20.426	1074.646	812.125
369.869	20.332	1073.900	811.052
370.883	20.181	1072.870	809.494
371.898	20.296	1071.742	809.112
372.913	20.033	1071.644	807.739
373.927	20.250	1070.804	808.044
374.942	20.305	1070.689	808.140
375.956	20.449	1069.635	807.946
376.971	20.276	1069.053	806.631
377.986	20.282	1068.805	806.397
379.000	20.318	1068.487	806.254
380.015	20.435	1068.026	806.378
381.029	20.413	1067.401	805.732
382.044	20.522	1066.084	805.172
383.059	20.446	1065.353	804.197
384.073	20.452	1064.710	803.669
385.088	20.609	1063.916	803.725
386.102	20.530	1063.060	802.643
387.117	20.488	1061.864	801.473
388.132	20.233	1061.091	799.644
389.146	20.297	1060.154	799.164
390.161	20.247	1059.177	798.124
391.175	20.440	1058.251	798.244
392.190	20.347	1058.497	797.930
393.205	20.429	1057.462	797.457
394.219	20.529	1056.581	797.183
395.234	20.517	1055.405	796.170
396.248	20.305	1054.678	794.579
397.263	20.281	1053.971	793.866
398.278	20.250	1053.118	793.009
399.292	20.187	1052.376	792.096
400.307	20.149	1051.173	790.944
401.321	20.302	1050.820	791.308
402.336	20.291	1049.885	790.481
403.350	20.314	1048.978	789.835
404.365	20.298	1048.849	789.596
405.380	20.346	1048.325	789.348
406.394	20.452	1047.715	789.303
407.409	20.543	1046.815	788.967
408.423	20.430	1046.524	788.165
409.438	20.690	1045.869	788.780
410.453	20.899	1044.691	788.769
411.467	20.864	1044.357	788.287
412.482	20.730	1043.925	787.285
413.496	20.799	1042.993	786.826
414.511	20.975	1042.221	786.969
415.526	21.089	1042.234	787.423
416.540	21.011	1041.726	786.620
417.555	21.058	1041.084	786.276
418.569	21.061	1040.228	785.574
419.584	20.990	1040.255	785.203
420.599	20.885	1040.015	784.481
421.613	155.355	1403.271	1797.404
422.628	142.133	1456.166	1797.481
