DTS Sentinel unit serial number:	SN413079Multiplexer serial number:	ORYXHardware model number:	OX4-SRSoftware version number:	ORYX F/W v4.00 Oryx Data Collector v3.7.2.0data status	okinstallation	princeton_trtdifferential loss correction	single-endedforward channel	channel 2reverse channel	N/Adate	2019/09/12time	19:38:49forward acquisition time	15.00reverse acquisition time	0.00gamma	496.2192k internal	0.2327k external	0.2327temperature offset calibration	1.0144default loss term (dB/km)	0.3790temperature slope calibration	1.0000multiplexer offset coefficient	1.0000multiplexer slope coefficient	1.0000fibre end	0.00T internal ref (°C)	32.12T ext. ref 1 (°C)	3.33T ext. ref 2 (°C)	26.67length (m)	temperature (°C)	Stokes	anti-Stokes-747.200	-71.394	-0.498	-0.188
-746.185	22.146	-0.061	0.050
-745.171	-200.000	0.024	0.553
-744.156	-45.016	-0.324	0.162
-743.142	-130.425	0.266	0.036
-742.127	-94.517	-0.378	0.104
-741.112	-154.506	-1.038	-0.070
-740.098	-87.891	-0.746	-0.226
-739.083	-91.315	-0.553	-0.159
-738.069	-129.654	-0.435	0.061
-737.054	-31.457	-0.566	0.321
-736.039	114.050	0.552	-0.677
-735.025	-200.000	0.006	0.290
-734.010	800.000	0.124	0.388
-732.996	-64.692	-0.878	0.359
-731.981	282.341	0.175	-0.316
-730.966	24.449	-0.218	-0.181
-729.952	-44.855	-0.424	0.213
-728.937	-75.778	-0.591	0.211
-727.923	-200.000	0.155	0.784
-726.908	360.763	-0.171	0.344
-725.894	-200.000	0.110	-1.088
-724.879	94.567	-0.603	-0.690
-723.864	114.328	-0.637	-0.781
-722.850	-41.199	-0.633	0.329
-721.835	-170.528	-0.356	-0.012
-720.821	800.000	-0.048	0.134
-719.806	9.873	0.230	0.176
-718.791	338.226	-0.407	-0.798
-717.777	-42.413	0.615	0.316
-716.762	-13.540	0.820	-0.535
-715.748	719.676	0.105	0.281
-714.733	179.468	-0.517	0.763
-713.718	62.253	0.272	0.273
-712.704	309.359	-0.137	0.257
-711.689	251.944	-0.775	1.329
-710.675	117.659	0.481	0.597
-709.660	292.354	0.224	-0.411
-708.645	-82.465	-0.864	-0.282
-707.631	-70.610	-0.607	0.231
-706.616	-26.308	-0.455	0.269
-705.602	-91.909	0.685	-0.196
-704.587	-153.974	-0.197	-0.014
-703.572	266.616	0.306	-0.538
-702.558	-172.183	-0.194	-0.006
-701.543	800.000	-0.136	-0.567
-700.529	-200.000	-0.063	-0.430
-699.514	28.434	0.632	-0.537
-698.499	210.482	0.236	0.373
-697.485	16.732	0.778	0.619
-696.470	-200.000	0.045	-0.408
-695.456	110.618	0.198	-0.239
-694.441	88.529	0.578	-0.646
-693.426	137.061	0.103	0.136
-692.412	-107.519	-0.049	0.011
-691.397	36.585	-0.750	0.666
-690.383	213.393	-0.599	0.952
-689.368	-3.906	0.844	-0.589
-688.354	800.000	-0.094	0.344
-687.339	800.000	0.326	-0.991
-686.324	800.000	-0.279	0.956
-685.310	32.612	-0.407	0.354
-684.295	119.747	0.505	-0.629
-683.281	8.341	-0.663	-0.502
-682.266	290.324	0.013	0.024
-681.251	800.000	-0.076	0.276
-680.237	-93.258	0.268	-0.075
-679.222	44.836	0.104	-0.096
-678.208	560.120	-0.055	-0.134
-677.193	-130.440	0.986	-0.134
-676.178	475.694	-0.284	-0.644
-675.164	-9.742	0.706	-0.473
-674.149	130.888	-0.185	0.239
-673.135	-200.000	-0.085	-0.689
-672.120	-200.000	-0.058	-0.456
-671.105	-67.416	0.509	-0.201
-670.091	-200.000	0.081	0.695
-669.076	-58.484	-0.684	0.299
-668.062	130.257	-0.749	0.964
-667.047	-200.000	0.027	0.598
-666.032	500.717	-0.209	-0.485
-665.018	-97.495	-0.277	-0.072
-664.003	239.931	-0.085	-0.143
-662.989	-200.000	-0.001	0.309
-661.974	20.099	-0.672	-0.545
-660.959	405.263	0.067	0.141
-659.945	-127.484	0.708	0.103
-658.930	-99.661	0.682	-0.172
-657.916	8.517	0.351	-0.265
-656.901	187.734	0.459	0.688
-655.886	-200.000	-0.062	-0.993
-654.872	800.000	-0.227	-0.813
-653.857	1.304	-0.191	0.138
-652.843	754.248	-0.029	0.078
-651.828	-200.000	0.022	-0.162
-650.814	-107.402	-0.418	-0.092
-649.799	19.533	0.385	-0.311
-648.784	1.909	0.656	-0.476
-647.770	-76.847	-0.796	0.280
-646.755	-48.708	0.294	-0.142
-645.741	-200.000	0.028	-0.246
-644.726	56.831	0.168	0.164
-643.711	-62.979	-0.224	-0.093
-642.697	800.000	0.019	0.067
-641.682	-51.075	-0.415	-0.196
-640.668	-178.723	-0.379	-0.009
-639.653	51.742	-0.233	-0.223
-638.638	-200.000	0.095	-0.644
-637.624	182.034	0.241	-0.356
-636.609	408.557	0.529	1.124
-635.595	144.119	-0.243	0.325
-634.580	-146.866	-0.986	-0.085
-633.565	-132.286	-0.335	-0.043
-632.551	290.541	0.163	0.297
-631.536	800.000	0.198	-0.719
-630.522	-68.702	0.478	-0.186
-629.507	-119.584	-0.968	0.168
-628.492	-93.421	-0.829	0.230
-627.478	-200.000	0.043	-0.214
-626.463	-96.267	0.342	-0.091
-625.449	-99.882	0.115	-0.029
-624.434	-115.501	0.971	-0.183
-623.419	-90.996	-0.585	-0.169
-622.405	-25.411	0.234	0.139
-621.390	800.000	-0.248	-1.045
-620.376	12.464	0.277	-0.214
-619.361	378.638	0.254	-0.523
-618.346	85.907	-0.484	-0.534
-617.332	11.924	0.267	-0.206
-616.317	263.804	0.157	0.274
-615.303	-120.731	0.852	-0.144
-614.288	800.000	0.138	0.531
-613.273	68.194	-0.403	0.414
-612.259	-87.090	-0.504	-0.154
-611.244	28.685	-0.140	-0.119
-610.230	-69.178	-1.208	-0.466
-609.215	202.770	0.223	0.345
-608.201	-21.351	-0.399	-0.245
-607.186	-200.000	0.060	0.682
-606.171	-70.888	0.537	0.203
-605.157	43.152	0.220	0.202
-604.142	-101.397	0.359	0.088
-603.128	-157.643	-0.258	0.015
-602.113	81.164	-0.227	0.246
-601.098	191.803	-0.075	0.113
-600.084	103.373	0.666	0.784
-599.069	14.845	0.368	0.288
-598.055	276.830	0.119	0.212
-597.040	175.667	0.557	0.810
-596.025	-114.720	-0.610	0.117
-595.011	-79.548	0.840	0.284
-593.996	-200.000	-0.146	0.677
-592.982	107.347	-0.266	0.317
-591.967	-200.000	-0.024	0.545
-590.952	-73.867	0.257	0.094
-589.938	58.645	-0.518	-0.509
-588.923	376.750	-0.187	0.383
-587.909	-200.000	0.034	0.291
-586.894	-104.170	0.660	0.154
-585.879	-125.500	0.233	-0.036
-584.865	-63.584	0.209	0.086
-583.850	551.714	-0.190	0.457
-582.836	-200.000	-0.019	-0.917
-581.821	60.787	-0.584	0.580
-580.806	-8.248	0.579	0.391
-579.792	-200.000	0.115	0.504
-578.777	379.882	-0.163	0.336
-577.763	-34.065	-0.567	0.312
-576.748	-200.000	-0.040	0.373
-575.733	-200.000	-0.087	-0.604
-574.719	96.916	-0.144	0.166
-573.704	-0.094	0.298	-0.213
-572.690	20.212	0.178	0.144
-571.675	678.906	-0.245	0.638
-570.661	93.472	0.269	0.304
-569.646	34.180	-0.201	-0.175
-568.631	-94.126	-0.534	-0.147
-567.617	-109.896	0.535	0.112
-566.602	425.710	0.187	0.404
-565.588	-77.173	-0.263	0.092
-564.573	117.672	0.517	-0.637
-563.558	-142.261	-0.779	-0.077
-562.544	-12.556	0.473	-0.309
-561.529	75.208	-0.264	0.279
-560.515	-59.408	0.245	0.105
-559.500	29.814	-0.161	-0.137
-558.485	710.441	0.057	0.151
-557.471	800.000	-0.278	-0.787
-556.456	246.790	-0.141	-0.239
-555.442	7.637	0.339	-0.254
-554.427	800.000	-0.164	-0.659
-553.412	451.172	-0.286	-0.632
-552.398	-200.000	0.006	-0.548
-551.383	-200.000	0.017	-0.165
-550.369	-116.017	-0.456	-0.085
-549.354	169.814	-0.211	-0.302
-548.339	129.682	0.272	0.348
-547.325	-200.000	0.069	-0.592
-546.310	-135.882	0.366	-0.043
-545.296	-69.937	-0.431	-0.164
-544.281	140.485	-0.479	-0.632
-543.266	-72.713	0.384	-0.141
-542.252	52.002	0.798	-0.760
-541.237	800.000	0.255	-1.073
-540.223	-77.547	-0.283	0.098
-539.208	253.586	0.426	-0.728
-538.193	-82.747	0.297	0.096
-537.179	411.907	-0.243	0.515
-536.164	494.143	0.222	-0.510
-535.150	382.579	-0.173	0.355
-534.135	106.706	-0.109	0.130
-533.121	-64.939	-0.491	-0.198
-532.106	170.223	-0.397	-0.568
-531.091	-129.038	0.827	0.116
-530.077	266.349	-0.246	0.430
-529.062	-62.946	-0.726	0.300
-528.048	175.753	-0.558	-0.809
-527.033	-200.000	0.075	0.382
-526.018	195.564	-0.151	0.229
-525.004	-110.241	-0.536	0.112
-523.989	800.000	0.085	-0.371
-522.975	-28.116	-0.751	-0.434
-521.960	29.119	-0.323	0.274
-520.945	237.675	0.415	0.689
-519.931	800.000	-0.074	0.235
-518.916	-200.000	0.001	0.583
-517.902	-75.112	0.190	0.068
-516.887	230.777	0.259	-0.424
-515.872	33.941	0.170	-0.148
-514.858	378.319	-0.343	0.701
-513.843	800.000	0.193	0.561
-512.829	-49.213	-0.201	0.096
-511.814	-97.159	-0.662	-0.173
-510.799	71.340	-0.231	-0.239
-509.785	607.365	-0.150	0.374
-508.770	166.719	-0.221	0.314
-507.756	-89.919	0.280	-0.082
-506.741	-129.280	0.556	-0.077
-505.726	-32.191	-0.768	0.429
-504.712	-200.000	0.098	0.787
-503.697	-121.254	0.365	0.061
-502.683	445.152	-0.207	0.455
-501.668	-159.463	1.091	-0.061
-500.653	265.358	-0.072	0.126
-499.639	51.239	0.566	0.537
-498.624	-81.121	-0.254	-0.084
-497.610	-133.863	-0.488	-0.061
-496.595	-200.000	-0.035	0.216
-495.581	800.000	-0.057	0.190
-494.566	138.648	0.513	-0.672
-493.551	800.000	0.222	0.681
-492.537	-6.294	0.053	0.036
-491.522	627.964	0.085	0.214
-490.508	2.960	-1.253	-0.909
-489.493	-200.000	0.003	-0.082
-488.478	-85.274	-0.229	-0.071
-487.464	46.131	-0.640	0.592
-486.449	-132.573	-0.115	0.015
-485.435	111.591	0.850	-1.023
-484.420	314.659	-0.413	0.776
-483.405	-13.158	-0.494	0.321
-482.391	-123.368	0.439	-0.070
-481.376	706.185	-0.179	0.470
-480.362	247.308	-0.183	0.308
-479.347	728.518	0.118	0.313
-478.332	253.224	0.104	-0.178
-477.318	800.000	-0.224	-0.851
-476.303	501.751	-0.185	-0.427
-475.289	442.703	-0.233	-0.509
-474.274	-200.000	0.039	-0.447
-473.259	-12.227	0.160	-0.104
-472.245	181.865	0.232	0.341
-471.230	-99.039	0.500	-0.126
-470.216	33.513	-0.329	0.285
-469.201	181.181	0.313	-0.459
-468.186	63.379	-0.483	-0.483
-467.172	146.879	0.223	-0.299
-466.157	253.708	0.338	0.577
-465.143	-116.327	-0.257	0.047
-464.128	27.164	0.115	0.096
-463.113	-122.475	0.541	0.088
-462.099	800.000	0.155	0.559
-461.084	-200.000	-0.059	-0.378
-460.070	153.194	0.276	0.376
-459.055	187.016	0.335	0.498
-458.040	-103.980	0.706	-0.164
-457.026	-169.782	-0.556	-0.020
-456.011	72.171	-0.372	-0.386
-454.997	-185.963	0.404	0.006
-453.982	62.983	-0.215	-0.215
-452.968	-110.044	0.480	-0.100
-451.953	-49.242	0.498	-0.237
-450.938	336.618	-0.130	-0.251
-449.924	-61.818	0.356	-0.149
-448.909	-144.749	-1.019	-0.093
-447.895	-155.605	-0.276	-0.018
-446.880	-27.853	-0.680	0.393
-445.865	-52.604	0.910	-0.419
-444.851	-200.000	-0.012	-0.540
-443.836	-200.000	0.008	-0.532
-442.822	-200.000	-0.039	0.599
-441.807	-92.151	-0.557	0.157
-440.792	-123.473	-0.523	-0.083
-439.778	-102.140	-0.382	-0.092
-438.763	-43.468	-0.274	0.138
-437.749	-34.017	-0.364	-0.200
-436.734	-171.856	0.576	0.019
-435.719	800.000	0.050	0.197
-434.705	-128.335	0.110	-0.016
-433.690	-200.000	0.088	0.534
-432.676	110.092	-0.160	0.191
-431.661	-200.000	-0.127	-0.582
-430.646	-200.000	-0.117	-0.653
-429.632	171.814	-0.214	-0.306
-428.617	146.655	0.233	-0.311
-427.603	-8.776	-0.368	0.246
-426.588	800.000	0.223	-0.704
-425.573	-19.187	0.308	-0.190
-424.559	-39.697	-0.474	-0.247
-423.544	63.831	0.234	0.234
-422.530	-200.000	0.056	-0.467
-421.515	53.822	0.588	0.563
-420.500	20.835	0.683	0.551
-419.486	784.524	-0.353	-0.964
-418.471	14.266	0.499	0.387
-417.457	74.857	0.349	-0.365
-416.442	-22.181	0.646	-0.390
-415.428	-33.021	-0.319	0.176
-414.413	596.948	-0.173	0.425
-413.398	-10.613	0.285	-0.187
-412.384	-185.356	0.585	-0.009
-411.369	212.688	0.462	0.725
-410.355	800.000	0.115	0.390
-409.340	60.336	0.152	0.150
-408.325	800.000	-0.007	-0.025
-407.311	-152.998	0.729	-0.051
-406.296	-26.944	-0.337	-0.196
-405.282	-74.430	0.267	0.096
-404.267	-7.117	0.392	-0.265
-403.252	-168.481	0.966	-0.037
-402.238	219.752	0.574	0.914
-401.223	-103.559	0.422	0.099
-400.209	-74.839	-0.766	-0.274
-399.194	95.848	-0.368	0.418
-398.179	-56.271	-0.527	-0.233
-397.165	-10.643	0.258	0.170
-396.150	-200.000	-0.023	-0.609
-395.136	-92.882	-0.238	-0.066
-394.121	-98.869	0.684	-0.173
-393.106	-10.079	-0.254	-0.168
-392.092	85.952	-0.182	-0.199
-391.077	-200.000	-0.058	-0.380
-390.063	-49.883	-0.202	-0.095
-389.048	209.249	0.271	-0.423
-388.033	-200.000	-0.142	-0.881
-387.019	-154.856	-0.748	-0.049
-386.004	-156.619	0.315	-0.019
-384.990	-117.862	0.455	0.081
-383.975	15.619	-0.425	0.332
-382.960	743.912	-0.284	0.758
-381.946	-57.421	-0.390	-0.170
-380.931	-14.133	-0.268	0.172
-379.917	-182.186	0.469	-0.009
-378.902	-200.000	-0.075	-0.481
-377.888	-36.864	0.480	0.256
-376.873	578.057	-0.218	0.530
-375.858	114.909	0.430	0.521
-374.844	-55.096	-0.343	0.153
-373.829	-154.747	-0.835	-0.055
-372.815	-200.000	0.030	-0.684
-371.800	800.000	-0.257	0.959
-370.785	141.840	0.137	0.180
-369.771	205.420	0.120	-0.185
-368.756	15.927	0.303	0.237
-367.742	25.943	-0.580	0.481
-366.727	-82.689	0.364	0.117
-365.712	187.240	-0.210	0.310
-364.698	392.968	-0.114	-0.235
-363.683	-40.646	-0.206	-0.106
-362.669	-200.000	0.041	-0.622
-361.654	-35.022	-0.561	-0.304
-360.639	128.265	0.095	0.120
-359.625	-200.000	-0.029	-0.287
-358.610	-114.769	-0.916	-0.174
-357.596	87.061	0.822	-0.902
-356.581	-200.000	-0.073	0.452
-355.566	-146.668	-0.946	0.081
-354.552	-39.494	0.729	-0.379
-353.537	211.806	-0.250	0.390
-352.523	68.330	-0.159	0.162
-351.508	-75.657	0.350	-0.123
-350.493	-10.672	1.050	-0.690
-349.479	356.460	0.083	-0.164
-348.464	-129.271	-0.540	-0.075
-347.450	-149.900	0.649	-0.050
-346.435	79.106	-0.626	0.666
-345.420	512.484	-0.187	-0.432
-344.406	-120.120	0.249	0.042
-343.391	188.273	-0.120	-0.178
-342.377	436.983	-0.127	0.274
-341.362	68.525	-0.429	0.437
-340.348	-60.267	-0.887	0.375
-339.333	800.000	0.427	-1.175
-338.318	-121.300	-0.948	0.157
-337.304	344.187	0.391	0.762
-336.289	72.710	-0.397	0.411
-335.275	-68.733	-0.589	-0.226
-334.260	-168.048	0.619	-0.024
-333.245	96.469	-0.130	0.148
-332.231	-97.297	-0.445	0.115
-331.216	-40.980	-0.812	-0.417
-330.202	143.163	-0.358	0.472
-329.187	-126.013	0.734	-0.109
-328.172	-133.941	0.320	-0.039
-327.158	430.536	-0.445	0.955
-326.143	-200.000	0.029	0.611
-325.129	-200.000	-0.114	-0.994
-324.114	-169.821	-0.737	-0.026
-323.099	-200.000	0.048	0.566
-322.085	800.000	-0.123	-0.455
-321.070	800.000	0.067	-0.245
-320.056	298.089	0.355	-0.648
-319.041	-200.000	-0.099	-0.580
-318.026	-101.440	-0.174	-0.042
-317.012	-161.305	-0.129	0.007
-315.997	110.972	0.177	0.211
-314.983	-200.000	-0.026	-0.197
-313.968	800.000	-0.108	-0.325
-312.953	-19.845	0.866	0.530
-311.939	83.342	0.203	-0.219
-310.924	741.652	-0.302	0.804
-309.910	-116.488	1.075	-0.197
-308.895	19.672	-0.307	-0.245
-307.880	-37.778	-0.142	-0.075
-306.866	20.223	-0.476	0.381
-305.851	-200.000	-0.072	1.215
-304.837	-61.175	0.272	0.114
-303.822	536.541	0.178	0.418
-302.807	-200.000	-0.141	0.785
-301.793	-19.375	0.044	-0.027
-300.778	196.137	-0.170	0.257
-299.764	246.322	-0.376	0.628
-298.749	47.121	-0.578	0.533
-297.735	-2.213	0.106	-0.074
-296.720	-103.952	0.302	0.070
-295.705	307.355	0.374	0.690
-294.691	-46.012	-0.485	-0.237
-293.676	-43.907	0.488	-0.243
-292.662	244.950	0.192	0.321
-291.647	77.375	-0.499	-0.525
-290.632	120.532	-0.214	0.263
-289.618	800.000	0.197	0.767
-288.603	-200.000	-0.091	0.516
-287.589	800.000	-0.157	0.579
-286.574	-27.009	0.590	0.341
-285.559	800.000	0.181	0.613
-284.545	-200.000	-0.006	0.468
-283.530	37.730	0.492	0.433
-282.516	401.038	0.167	0.348
-281.501	337.223	0.317	0.609
-280.486	-200.000	0.021	-0.209
-279.472	800.000	-0.121	-0.410
-278.457	9.560	-0.935	0.701
-277.443	-200.000	-0.021	0.275
-276.428	109.889	0.694	-0.824
-275.413	-72.510	0.333	0.122
-274.399	-115.130	0.310	0.058
-273.384	-124.749	0.798	-0.122
-272.370	523.892	0.419	0.974
-271.355	-72.847	0.718	-0.261
-270.340	-200.000	-0.157	-1.130
-269.326	-57.490	1.008	-0.438
-268.311	-200.000	-0.021	0.833
-267.297	192.800	0.188	0.281
-266.282	-18.347	0.636	0.393
-265.267	-140.976	-0.159	-0.016
-264.253	-34.163	-0.574	0.312
-263.238	-111.616	0.447	-0.090
-262.224	100.527	-0.167	0.192
-261.209	-200.000	-0.057	0.469
-260.195	-43.643	0.406	-0.203
-259.180	-84.958	-0.543	0.168
-258.165	-15.052	0.115	-0.073
-257.151	-200.000	-0.153	-0.733
-256.136	120.045	0.418	0.512
-255.122	-127.719	-0.483	-0.069
-254.107	-173.379	0.822	0.025
-253.092	310.415	-0.096	-0.178
-252.078	-200.000	0.026	0.242
-251.063	-64.000	-0.718	0.290
-250.049	198.109	-0.164	0.248
-249.034	-200.000	0.052	-0.274
-248.019	-39.432	-0.265	0.137
-247.005	-59.262	-0.890	0.379
-245.990	-122.218	0.429	0.069
-244.976	-200.000	-0.044	-0.468
-243.961	247.277	-0.175	-0.291
-242.946	-103.616	0.655	0.152
-241.932	-139.281	-0.712	-0.076
-240.917	-200.000	0.143	-0.618
-239.903	-68.635	-0.276	0.106
-238.888	-139.863	1.231	0.129
-237.873	-110.855	0.374	-0.076
-236.859	-40.412	0.688	-0.353
-235.844	126.971	0.164	-0.206
-234.830	42.340	-0.196	-0.176
-233.815	-88.563	0.342	-0.101
-232.800	68.406	0.438	-0.443
-231.786	-153.983	-0.411	0.028
-230.771	170.943	0.278	0.394
-229.757	248.492	0.259	0.434
-228.742	320.216	0.167	-0.314
-227.727	-19.715	0.586	-0.358
-226.713	82.508	-0.309	0.332
-225.698	674.035	0.105	-0.268
-224.684	-4.440	-0.252	-0.172
-223.669	249.175	-0.574	-0.961
-222.655	389.226	0.199	-0.407
-221.640	333.875	0.178	-0.341
-220.625	-28.333	-0.872	-0.497
-219.611	-5.256	-0.305	-0.207
-218.596	-66.963	-0.132	0.051
-217.582	109.340	-0.178	0.211
-216.567	33.640	0.063	-0.054
-215.552	81.922	0.272	-0.290
-214.538	-66.084	-0.364	-0.143
-213.523	448.916	0.246	-0.535
-212.509	148.451	0.463	-0.618
-211.494	-3.875	0.266	-0.182
-210.479	800.000	0.101	-0.390
-209.465	568.498	0.219	-0.524
-208.450	48.540	0.427	0.395
-207.436	800.000	-0.168	0.529
-206.421	60.515	0.695	0.680
-205.406	-200.000	0.033	0.234
-204.392	-200.000	0.042	-0.433
-203.377	-49.516	-0.547	-0.257
-202.363	46.462	-0.501	-0.459
-201.348	800.000	0.125	-0.443
-200.333	-200.000	0.103	-0.698
-199.319	72.331	-0.370	0.380
-198.304	-147.270	0.071	-0.006
-197.290	189.779	-0.072	-0.106
-196.275	-150.688	-0.622	0.047
-195.260	-55.175	0.477	0.212
-194.246	-200.000	0.029	-0.860
-193.231	-4.440	-0.219	0.149
-192.217	800.000	0.204	-0.636
-191.202	-200.000	-0.002	0.478
-190.187	34.022	-0.205	0.176
-189.173	-155.690	-0.240	0.015
-188.158	-49.489	0.276	0.130
-187.144	-20.660	-0.713	0.432
-186.129	-96.334	-0.364	-0.095
-185.114	800.000	0.029	0.110
-184.100	236.941	-0.148	0.242
-183.085	444.060	-0.223	-0.482
-182.071	800.000	-0.238	-0.755
-181.056	-29.934	-0.721	0.405
-180.042	3.579	-0.279	-0.201
-179.027	-54.109	-0.411	0.184
-178.012	2.647	0.384	-0.275
-176.998	-87.037	-0.057	0.017
-175.983	451.049	0.186	-0.405
-174.969	-132.124	0.806	0.103
-173.954	757.295	-0.196	0.524
-172.939	-119.499	-0.698	0.119
-171.925	106.106	0.447	0.522
-170.910	512.891	0.337	0.774
-169.896	800.000	-0.088	0.315
-168.881	-200.000	-0.019	-0.441
-167.866	-145.619	-0.385	0.034
-166.852	-13.550	-0.468	0.299
-165.837	-66.826	-0.457	-0.178
-164.823	-131.165	1.041	-0.136
-163.808	-3.980	-0.473	-0.323
-162.793	-120.567	-1.162	-0.194
-161.779	-5.805	0.387	-0.261
-160.764	-200.000	0.077	-0.839
-159.750	70.677	0.529	-0.539
-158.735	-11.952	0.806	0.521
-157.720	203.623	0.441	0.673
-156.706	44.789	-0.870	-0.789
-155.691	-124.483	-0.046	0.007
-154.677	-142.731	0.830	0.080
-153.662	-30.177	-0.595	0.333
-152.647	-72.186	0.186	-0.068
-151.633	26.587	0.812	-0.669
-150.618	-200.000	-0.097	-0.477
-149.604	800.000	0.191	0.556
-148.589	800.000	0.298	-0.817
-147.574	-124.787	-0.537	-0.082
-146.560	227.552	0.129	0.206
-145.545	-81.055	1.210	0.394
-144.531	-174.776	-0.250	-0.007
-143.516	-200.000	-0.073	0.658
-142.502	-100.409	0.350	0.085
-141.487	205.948	0.219	0.336
-140.472	800.000	0.083	-0.231
-139.458	35.853	-0.186	0.161
-138.443	-3.714	-0.334	-0.228
-137.429	398.828	0.124	0.255
-136.414	800.000	0.130	0.470
-135.399	-30.832	0.611	0.340
-134.385	408.410	-0.402	-0.838
-133.370	-200.000	0.106	0.523
-132.356	800.000	-0.064	-0.274
-131.341	-76.328	0.225	0.078
-130.326	-105.458	-0.243	-0.054
-129.312	59.926	-0.283	-0.275
-128.297	24.251	-0.205	-0.167
-127.283	33.159	-0.628	-0.536
-126.268	-200.000	-0.086	0.502
-125.253	149.333	0.661	0.881
-124.239	645.492	-0.237	0.596
-123.224	-41.574	-0.252	0.127
-122.210	-200.000	0.039	0.715
-121.195	98.209	-0.304	-0.345
-120.180	-132.748	0.415	0.052
-119.166	-76.899	0.873	-0.300
-118.151	79.685	-0.422	-0.446
-117.137	-10.483	-0.802	0.522
-116.122	74.670	0.322	-0.333
-115.107	33.880	0.460	0.394
-114.093	800.000	-0.268	-0.975
-113.078	81.767	-0.280	-0.298
-112.064	-51.450	0.775	0.356
-111.049	-54.028	0.165	-0.074
-110.034	800.000	-0.305	0.971
-109.020	-82.560	0.309	-0.099
-108.005	-175.671	-0.476	-0.013
-106.991	326.077	0.095	-0.179
-105.976	-155.037	-0.263	0.017
-104.962	104.616	0.503	0.582
-103.947	116.136	0.490	-0.590
-102.932	800.000	0.252	-0.882
-101.918	108.118	-0.318	-0.373
-100.903	27.719	-0.606	-0.502
-99.889	168.294	-0.288	-0.403
-98.874	135.716	0.172	0.220
-97.859	218.884	-0.070	0.110
-96.845	-200.000	-0.029	0.336
-95.830	-200.000	0.056	0.767
-94.816	121.047	-0.143	0.175
-93.801	800.000	0.168	-0.487
-92.786	-59.249	-0.391	0.166
-91.772	128.827	0.113	-0.141
-90.757	-200.000	0.015	-0.643
-89.743	-39.525	-0.179	-0.092
-88.728	-103.733	-0.789	0.182
-87.713	-200.000	-0.008	0.138
-86.699	-200.000	0.015	0.723
-85.684	-152.886	-1.298	0.090
-84.670	-37.327	0.385	0.202
-83.655	-200.000	0.068	0.507
-82.640	541.046	-0.390	-0.912
-81.626	-200.000	-0.204	1.057
-80.611	-200.000	-0.036	0.429
-79.597	-54.228	-0.795	-0.355
-78.582	-200.000	0.037	0.455
-77.567	-200.000	0.001	0.073
-76.553	77.848	-0.345	-0.361
-75.538	-29.305	0.217	-0.122
-74.524	42.505	0.496	-0.443
-73.509	-93.501	0.198	0.054
-72.494	-200.000	0.026	0.262
-71.480	33.816	0.422	0.361
-70.465	-63.900	0.387	-0.156
-69.451	-22.548	-0.463	0.275
-68.436	38.463	-0.236	0.206
-67.422	-200.000	-0.077	-0.728
-66.407	-200.000	-0.023	-0.312
-65.392	-103.510	1.145	0.264
-64.378	-200.000	-0.080	1.044
-63.363	401.278	0.067	0.137
-62.349	57.239	0.879	-0.842
-61.334	-43.083	-0.929	-0.462
-60.319	46.344	0.355	0.323
-59.305	20.536	0.045	0.036
-58.290	284.513	0.538	0.950
-57.276	800.000	0.780	2.488
-56.261	-200.000	94.664	594.686
-55.246	675.772	1351.321	3444.386
-54.232	203.946	2527.165	3840.368
-53.217	114.475	2246.504	2685.146
-52.203	41.754	1880.638	1672.477
-51.188	35.629	1673.752	1442.623
-50.173	32.868	1630.691	1385.226
-49.159	51.614	1679.455	1566.564
-48.144	52.439	1696.129	1588.195
-47.130	35.187	1655.781	1423.623
-46.115	32.435	1640.819	1390.406
-45.100	31.948	1637.009	1383.531
-44.086	32.039	1634.493	1382.024
-43.071	32.215	1631.949	1381.106
-42.057	32.067	1629.012	1377.480
-41.042	31.870	1628.525	1375.569
-40.027	32.016	1626.157	1374.586
-39.013	32.091	1623.374	1372.731
-37.998	31.982	1622.463	1371.104
-36.984	32.055	1620.771	1370.157
-35.969	32.186	1618.652	1369.261
-34.954	32.330	1616.669	1368.579
-33.940	31.996	1615.847	1365.401
-32.925	31.947	1615.669	1364.840
-31.911	32.039	1613.048	1363.243
-30.896	32.098	1611.468	1362.278
-29.881	32.036	1609.158	1359.819
-28.867	32.159	1607.664	1359.396
-27.852	32.080	1606.188	1357.520
-26.838	32.081	1604.350	1355.921
-25.823	31.992	1603.413	1354.432
-24.809	32.189	1601.558	1354.231
-23.794	32.074	1600.688	1352.612
-22.779	32.113	1598.513	1351.006
-21.765	31.991	1597.712	1349.397
-20.750	32.030	1596.576	1348.662
-19.736	32.073	1595.747	1348.217
-18.721	32.409	1592.059	1347.455
-17.706	32.403	1591.236	1346.667
-16.692	32.309	1589.109	1344.136
-15.677	32.037	1589.148	1342.174
-14.663	32.263	1587.870	1342.658
-13.648	32.007	1587.090	1340.113
-12.633	32.259	1584.643	1339.790
-11.619	32.178	1583.197	1337.941
-10.604	32.074	1581.774	1335.945
-9.590	32.230	1579.939	1335.448
-8.575	32.059	1579.359	1333.690
-7.560	32.260	1577.911	1333.843
-6.546	32.243	1575.400	1331.546
-5.531	32.237	1575.611	1331.628
-4.517	32.157	1574.752	1330.283
-3.502	32.175	1572.776	1328.686
-2.487	32.220	1570.708	1327.206
-1.473	31.929	1559.300	1315.477
-0.458	28.987	1539.979	1278.710
0.556	26.733	1539.752	1246.821
1.571	24.038	1563.116	1246.777
2.586	23.387	1576.838	1253.015
3.600	20.801	1523.375	1192.729
4.615	12.294	1415.737	1053.980
5.629	4.322	1352.914	958.055
6.644	3.299	1342.869	944.583
7.659	3.312	1341.972	943.950
8.673	3.454	1339.721	943.151
9.688	3.254	1338.955	941.306
10.702	2.969	1336.651	937.861
11.717	6.543	1342.416	963.702
12.731	15.600	1360.069	1032.160
13.746	22.897	1370.745	1085.172
14.761	24.636	1374.310	1098.601
15.775	24.878	1371.324	1097.602
16.790	24.125	1371.008	1092.636
17.804	24.165	1369.535	1091.608
18.819	24.141	1370.393	1092.044
19.834	24.033	1368.014	1089.391
20.848	24.191	1367.446	1089.815
21.863	23.917	1367.053	1087.728
22.877	24.288	1365.577	1088.723
23.892	23.913	1365.939	1086.626
24.907	24.055	1364.562	1086.300
25.921	24.129	1362.646	1085.126
26.936	24.082	1362.633	1084.732
27.950	24.242	1361.913	1085.039
28.965	24.003	1360.953	1082.722
29.980	24.054	1360.438	1082.528
30.994	24.104	1359.618	1082.085
32.009	24.430	1356.828	1081.745
33.023	24.325	1355.999	1080.354
34.038	24.040	1355.747	1078.332
35.053	24.042	1354.626	1077.355
36.067	24.032	1353.182	1076.048
37.082	24.105	1353.017	1076.267
38.096	24.061	1351.813	1074.949
39.111	24.331	1350.406	1075.361
40.126	24.144	1350.201	1073.978
41.140	23.685	1349.777	1070.776
42.155	23.679	1347.555	1068.881
43.169	23.786	1347.520	1069.402
44.184	23.749	1347.633	1069.176
45.199	23.568	1348.264	1068.493
46.213	23.958	1348.483	1070.919
47.228	23.928	1346.748	1069.265
48.242	24.309	1345.685	1070.617
49.257	24.121	1344.095	1068.128
50.271	24.055	1342.304	1066.216
51.286	24.072	1341.750	1065.782
52.301	23.895	1340.614	1063.727
53.315	24.079	1339.065	1063.505
54.330	23.913	1339.562	1062.812
55.344	24.099	1337.201	1061.955
56.359	23.828	1336.561	1059.734
57.374	23.677	1335.198	1057.662
58.388	23.698	1335.248	1057.734
59.403	23.615	1335.615	1057.434
60.417	23.723	1332.940	1055.869
61.432	23.424	1333.105	1054.126
62.447	23.581	1331.996	1054.088
63.461	23.636	1331.504	1053.936
64.476	23.324	1330.700	1051.353
65.490	23.250	1329.123	1049.574
66.505	23.483	1327.074	1049.243
67.520	23.367	1326.281	1047.837
68.534	23.613	1325.190	1048.334
69.549	23.718	1323.856	1047.807
70.563	23.507	1324.073	1046.640
71.578	23.624	1321.782	1045.425
72.593	23.522	1320.962	1044.086
73.607	23.265	1321.351	1042.785
74.622	23.419	1320.019	1042.552
75.636	23.535	1319.239	1042.523
76.651	23.566	1318.383	1041.938
77.666	23.303	1319.207	1040.952
78.680	23.308	1318.490	1040.321
79.695	23.481	1317.536	1040.493
80.709	23.615	1316.091	1040.044
81.724	23.748	1316.445	1041.010
82.739	23.773	1315.451	1040.282
83.753	24.203	1313.728	1041.340
84.768	24.322	1314.160	1042.286
85.782	24.129	1313.841	1040.812
86.797	24.229	1311.895	1039.761
87.812	24.107	1310.566	1037.904
88.826	24.190	1308.789	1036.887
89.841	24.246	1308.433	1036.837
90.855	24.218	1308.320	1036.496
91.870	24.425	1307.520	1036.975
92.884	24.275	1306.737	1035.388
93.899	24.324	1306.027	1035.021
94.914	24.682	1304.017	1035.412
95.928	24.561	1304.613	1035.088
96.943	24.295	1304.421	1033.303
97.957	24.567	1302.252	1033.070
98.972	24.346	1300.642	1030.424
99.987	24.270	1300.380	1029.685
101.001	24.096	1300.058	1028.336
102.016	24.037	1300.706	1028.414
103.030	24.087	1298.725	1027.044
104.045	24.398	1296.902	1027.305
105.060	23.980	1295.688	1023.848
106.074	23.915	1294.441	1022.401
107.089	23.669	1292.508	1019.367
108.103	23.632	1291.519	1018.286
109.118	23.553	1290.110	1016.635
110.133	23.352	1289.987	1015.296
111.147	23.384	1288.645	1014.328
112.162	23.536	1287.318	1014.068
113.176	23.785	1286.409	1014.683
114.191	23.682	1285.918	1013.618
115.206	23.701	1285.508	1013.311
116.220	23.848	1283.891	1012.789
117.235	23.769	1281.775	1010.578
118.249	23.549	1280.742	1008.421
119.264	23.681	1279.989	1008.490
120.279	23.465	1279.746	1006.983
121.293	23.324	1279.301	1005.746
122.308	23.176	1278.300	1004.027
123.322	23.249	1276.324	1002.801
124.337	23.139	1275.502	1001.442
125.352	23.231	1274.897	1001.403
126.366	23.099	1274.722	1000.430
127.381	23.751	1272.663	1002.406
128.395	23.419	1271.439	999.478
129.410	23.100	1270.556	996.900
130.424	23.053	1270.629	996.602
131.439	23.195	1268.958	996.006
132.454	23.500	1269.283	997.888
133.468	23.798	1268.178	998.608
134.483	23.635	1267.781	997.288
135.497	23.652	1267.392	996.991
136.512	23.842	1265.010	996.091
137.527	23.725	1264.877	995.243
138.541	23.777	1263.110	994.057
139.556	23.739	1262.549	993.315
140.570	23.588	1262.860	992.625
141.585	24.244	1260.215	994.119
142.600	24.149	1260.099	993.411
143.614	24.485	1259.952	995.082
144.629	24.471	1258.246	993.568
145.643	24.177	1257.903	991.570
146.658	24.186	1256.774	990.647
147.673	23.919	1254.643	987.392
148.687	24.004	1254.381	987.575
149.702	23.755	1253.276	985.238
150.716	23.564	1251.424	982.637
151.731	23.400	1250.789	981.140
152.746	23.292	1249.508	979.455
153.760	23.918	1247.870	981.540
154.775	24.153	1248.012	982.862
155.789	24.045	1246.404	980.911
156.804	23.852	1245.560	979.096
157.819	24.064	1244.219	979.123
158.833	23.899	1244.559	978.394
159.848	24.152	1244.204	979.419
160.862	24.011	1242.722	977.393
161.877	23.842	1240.756	974.832
162.892	23.810	1240.420	974.309
163.906	23.652	1238.659	971.973
164.921	23.543	1237.972	970.753
165.935	23.860	1237.411	971.961
166.950	23.972	1236.885	972.072
167.964	23.948	1236.421	971.494
168.979	23.839	1236.108	970.564
169.994	23.792	1234.757	969.160
171.008	23.562	1233.676	966.972
172.023	23.705	1233.562	967.577
173.037	23.941	1232.873	968.237
174.052	23.983	1232.498	968.084
175.067	23.815	1231.031	965.936
176.081	23.479	1230.552	963.645
177.096	23.584	1229.033	962.943
178.110	23.670	1227.986	962.501
179.125	23.478	1228.034	961.415
180.140	23.936	1226.478	962.593
181.154	24.041	1224.678	961.661
182.169	23.748	1225.668	960.769
183.183	23.914	1223.435	959.829
184.198	24.246	1222.401	960.725
185.213	24.152	1221.329	959.288
186.227	24.050	1220.949	958.357
187.242	24.149	1219.761	957.871
188.256	24.305	1218.885	957.935
189.271	24.279	1217.582	956.688
190.286	23.786	1217.901	954.210
191.300	23.849	1215.389	952.492
192.315	23.598	1216.360	951.825
193.329	23.632	1214.683	950.608
194.344	23.626	1214.333	950.220
195.359	23.664	1213.351	949.567
196.373	23.691	1211.803	948.415
197.388	23.463	1212.852	947.934
198.402	23.876	1211.733	949.181
199.417	24.088	1212.811	951.076
200.432	24.142	1212.047	950.682
201.446	24.341	1210.735	950.631
202.461	24.362	1210.424	950.412
203.475	24.330	1209.374	949.333
204.490	23.944	1208.133	946.225
205.504	23.936	1207.195	945.362
206.519	23.833	1205.174	943.147
207.534	23.595	1205.586	942.124
208.548	23.411	1203.718	939.606
209.563	23.657	1202.808	940.114
210.577	23.553	1201.052	938.112
211.592	23.765	1201.281	939.324
212.607	24.456	1200.888	942.586
213.621	24.343	1200.938	941.948
214.636	23.977	1200.150	939.312
215.650	24.021	1198.552	938.211
216.665	23.744	1198.787	936.849
217.680	24.419	1197.001	938.923
218.694	24.232	1196.890	937.770
219.709	24.183	1195.625	936.442
220.723	24.176	1194.421	935.377
221.738	24.025	1194.579	934.625
222.753	23.790	1193.649	932.579
223.767	23.700	1192.467	931.102
224.782	23.844	1192.645	931.916
225.796	24.363	1192.342	934.314
226.811	24.217	1190.773	932.239
227.826	23.840	1190.780	930.187
228.840	23.971	1189.743	929.980
229.855	23.799	1189.348	928.693
230.869	23.791	1188.918	928.231
231.884	24.050	1186.712	927.779
232.899	23.453	1186.296	924.262
233.913	23.525	1186.201	924.478
234.928	23.880	1184.425	924.858
235.942	23.488	1184.635	922.903
236.957	23.640	1182.787	922.171
237.972	23.327	1182.459	920.208
238.986	23.501	1181.489	920.273
240.001	23.786	1181.564	921.728
241.015	23.668	1180.026	919.838
242.030	23.670	1179.899	919.670
243.045	24.191	1178.145	920.915
244.059	23.942	1178.671	919.957
245.074	23.900	1177.397	918.660
246.088	24.225	1177.450	920.300
247.103	24.205	1175.439	918.547
248.117	24.108	1174.880	917.526
249.132	24.107	1175.268	917.741
250.147	24.834	1174.848	921.076
251.161	24.993	1174.720	921.715
252.176	24.855	1173.863	920.248
253.190	24.846	1173.060	919.492
254.205	24.811	1174.347	920.241
255.220	25.098	1173.409	920.899
256.234	24.861	1172.591	918.960
257.249	24.803	1171.134	917.438
258.263	25.031	1170.749	918.226
259.278	24.912	1168.983	916.149
260.293	24.987	1169.059	916.512
261.307	24.791	1168.549	915.026
262.322	25.027	1168.483	916.101
263.336	25.142	1166.677	915.190
264.351	24.738	1166.606	912.995
265.366	24.786	1167.170	913.598
266.380	25.005	1165.462	913.299
267.395	25.173	1163.713	912.700
268.409	24.742	1163.252	910.067
269.424	24.891	1162.961	910.517
270.439	24.911	1163.113	910.654
271.453	24.471	1162.173	907.604
272.468	24.816	1160.472	907.946
273.482	24.498	1159.885	905.792
274.497	24.564	1159.211	905.521
275.512	24.279	1159.403	904.143
276.526	24.528	1157.799	904.077
277.541	24.708	1156.270	903.713
278.555	24.876	1156.822	904.914
279.570	24.923	1156.078	904.485
280.585	25.045	1155.245	904.372
281.599	25.233	1154.110	904.348
282.614	24.674	1154.187	901.510
283.628	24.700	1152.074	899.912
284.643	24.809	1151.975	900.304
285.657	24.569	1150.298	897.707
286.672	24.506	1150.715	897.638
287.687	24.459	1149.134	896.089
288.701	24.709	1147.952	896.340
289.716	24.556	1148.389	895.839
290.730	24.594	1147.573	895.312
291.745	24.627	1146.403	894.486
292.760	24.715	1146.310	894.771
293.774	24.841	1146.357	895.362
294.789	24.891	1145.684	895.007
295.803	25.197	1144.269	895.351
296.818	24.847	1143.229	892.711
297.833	24.882	1142.250	892.041
298.847	24.569	1142.447	890.558
299.862	24.989	1139.867	890.552
300.876	24.825	1140.189	889.913
301.891	24.618	1139.958	888.625
302.906	24.838	1140.226	889.847
303.920	25.062	1140.241	890.895
304.935	25.100	1139.025	890.056
305.949	25.115	1138.138	889.359
306.964	25.005	1138.070	888.681
307.979	25.110	1137.055	888.326
308.993	24.958	1135.245	886.085
310.008	25.298	1134.656	887.225
311.022	25.345	1134.334	887.126
312.037	24.768	1133.872	883.837
313.052	25.095	1132.012	883.921
314.066	24.747	1131.397	881.649
315.081	24.545	1130.658	879.999
316.095	24.064	1130.166	877.172
317.110	24.102	1129.653	876.879
318.125	24.468	1127.814	877.176
319.139	24.377	1128.528	877.206
320.154	24.554	1127.039	876.842
321.168	24.568	1126.316	876.270
322.183	24.340	1126.216	874.993
323.197	24.272	1126.891	875.106
324.212	24.588	1124.644	874.834
325.227	24.887	1124.334	875.979
326.241	24.535	1125.131	874.796
327.256	24.798	1122.622	874.052
328.270	24.479	1121.768	871.752
329.285	24.511	1122.162	872.141
330.300	24.595	1120.542	871.214
331.314	24.751	1118.693	870.458
332.329	24.748	1118.258	870.029
333.343	24.359	1118.179	867.996
334.358	24.855	1116.871	869.314
335.373	24.926	1116.470	869.273
336.387	25.247	1115.975	870.364
337.402	25.152	1115.450	869.416
338.416	25.275	1114.551	869.238
339.431	25.251	1115.216	869.561
340.446	25.376	1113.554	868.792
341.460	25.515	1113.430	869.291
342.475	25.385	1112.941	868.203
343.489	25.562	1112.353	868.523
344.504	25.729	1110.960	868.167
345.519	25.670	1110.196	867.206
346.533	25.573	1109.753	866.318
347.548	25.742	1109.096	866.539
348.562	25.545	1108.630	865.153
349.577	25.452	1107.324	863.611
350.592	25.100	1106.645	861.311
351.606	24.842	1105.881	859.403
352.621	24.781	1103.906	857.502
353.635	24.811	1103.570	857.305
354.650	24.686	1102.884	856.103
355.665	24.999	1102.427	857.167
356.679	25.292	1101.609	857.857
357.694	25.023	1101.395	856.327
358.708	25.252	1100.203	856.420
359.723	25.414	1100.256	857.155
360.738	25.337	1098.262	855.162
361.752	25.154	1098.820	854.646
362.767	25.044	1098.811	854.041
363.781	25.142	1097.405	853.338
364.796	25.530	1097.559	855.228
365.810	25.676	1097.152	855.531
366.825	25.627	1097.662	855.617
367.840	26.074	1096.636	856.869
368.854	25.978	1096.437	856.182
369.869	25.773	1095.781	854.617
370.883	25.860	1093.945	853.523
371.898	25.542	1093.715	851.762
372.913	25.648	1092.098	850.930
373.927	25.522	1092.771	850.782
374.942	25.640	1091.984	850.653
375.956	25.731	1091.641	850.741
376.971	26.074	1089.569	850.665
377.986	25.459	1090.610	848.501
379.000	25.799	1089.963	849.528
380.015	25.978	1089.518	849.949
381.029	26.052	1088.695	849.579
382.044	26.041	1088.285	849.135
383.059	25.868	1087.404	847.559
384.073	25.917	1086.721	847.178
385.088	25.890	1085.771	846.237
386.102	26.051	1084.308	845.776
387.117	25.843	1081.771	842.752
388.132	25.300	1082.557	840.747
389.146	25.211	1082.370	840.110
390.161	25.370	1080.118	839.032
391.175	25.264	1079.616	838.074
392.190	25.563	1080.013	839.701
393.205	25.773	1080.136	840.703
394.219	25.876	1078.816	840.084
395.234	25.612	1077.143	837.476
396.248	25.436	1075.998	835.695
397.263	25.468	1075.229	835.170
398.278	25.458	1074.830	834.743
399.292	25.161	1074.326	832.898
400.307	25.512	1073.579	833.873
401.321	25.303	1072.816	832.234
402.336	25.022	1071.413	829.772
403.350	25.026	1071.319	829.646
404.365	25.487	1071.301	831.691
405.380	25.364	1070.727	830.603
406.394	25.535	1069.333	830.241
407.409	25.648	1069.671	830.951
408.423	25.856	1068.728	831.105
409.438	26.037	1068.281	831.519
410.453	26.222	1067.299	831.529
411.467	26.288	1066.467	831.112
412.482	26.089	1066.479	830.134
413.496	25.928	1065.964	828.917
414.511	26.035	1064.784	828.418
415.526	26.438	1064.965	830.336
416.540	26.479	1064.688	830.234
417.555	26.281	1064.129	828.820
418.569	26.034	1063.230	826.912
419.584	25.990	1062.801	826.306
420.599	25.955	1061.873	825.348
421.613	153.802	1404.095	1793.371
422.628	141.384	1454.038	1793.456
