DTS Sentinel unit serial number:	SN413079Multiplexer serial number:	ORYXHardware model number:	OX4-SRSoftware version number:	ORYX F/W v4.00 Oryx Data Collector v3.7.2.0data status	okinstallation	princeton_trtdifferential loss correction	single-endedforward channel	channel 2reverse channel	N/Adate	2019/09/16time	01:39:34forward acquisition time	60.00reverse acquisition time	0.00gamma	496.2192k internal	0.2336k external	0.2336temperature offset calibration	0.9966default loss term (dB/km)	0.3790temperature slope calibration	1.0000multiplexer offset coefficient	1.0000multiplexer slope coefficient	1.0000fibre end	0.00T internal ref (°C)	27.31T ext. ref 1 (°C)	9.98T ext. ref 2 (°C)	22.23length (m)	temperature (°C)	Stokes	anti-Stokes-747.200	523.453	0.043	-0.102
-746.185	-200.000	0.010	0.163
-745.171	-112.327	-0.340	0.068
-744.156	-163.784	-0.075	0.004
-743.142	800.000	-0.058	-0.168
-742.127	301.612	-0.033	0.060
-741.112	92.237	0.205	-0.232
-740.098	-12.878	0.260	0.170
-739.083	-119.221	0.244	-0.043
-738.069	459.617	0.093	-0.208
-737.054	-200.000	0.008	-0.162
-736.039	-53.919	0.070	0.032
-735.025	-8.239	0.201	-0.136
-734.010	177.375	-0.143	-0.209
-732.996	-117.865	-0.268	0.048
-731.981	-200.000	0.036	0.207
-730.966	-11.655	-0.377	-0.249
-729.952	-200.000	0.021	-0.154
-728.937	-164.669	-0.086	-0.004
-727.923	-200.000	0.013	-0.194
-726.908	-200.000	0.019	-0.239
-725.894	372.582	0.044	-0.091
-724.879	-200.000	-0.016	0.093
-723.864	800.000	-0.043	0.143
-722.850	-90.672	0.173	-0.050
-721.835	-78.553	-0.047	-0.016
-720.821	-89.183	-0.380	0.113
-719.806	172.107	-0.061	-0.088
-718.791	-112.147	0.220	0.044
-717.777	75.210	-0.164	-0.174
-716.762	-48.331	0.107	-0.052
-715.748	664.714	-0.067	0.173
-714.733	311.355	-0.105	-0.198
-713.718	800.000	0.054	-0.175
-712.704	125.679	-0.078	-0.099
-711.689	-200.000	0.002	0.404
-710.675	117.933	0.119	0.147
-709.660	-81.370	0.089	-0.030
-708.645	285.118	0.062	-0.112
-707.631	-72.289	0.135	-0.050
-706.616	524.854	-0.127	-0.299
-705.602	121.985	0.219	0.275
-704.587	124.856	0.096	-0.121
-703.572	-171.959	0.183	-0.006
-702.558	-200.000	-0.010	-0.265
-701.543	44.389	-0.111	0.102
-700.529	-200.000	0.002	-0.342
-699.514	69.308	-0.099	-0.102
-698.499	-200.000	0.052	0.242
-697.485	220.757	-0.077	0.123
-696.470	800.000	0.118	0.383
-695.456	-160.190	-0.401	0.022
-694.441	-91.169	0.180	0.052
-693.426	776.360	-0.066	0.180
-692.412	12.927	-0.223	0.173
-691.397	-200.000	-0.035	0.164
-690.383	45.397	0.195	0.180
-689.368	800.000	-0.166	-0.461
-688.354	-130.934	0.059	0.008
-687.339	800.000	0.037	-0.120
-686.324	-51.101	-0.136	0.064
-685.310	-58.720	0.127	0.055
-684.295	-80.455	0.193	0.065
-683.281	-200.000	-0.017	0.205
-682.266	-200.000	-0.021	0.110
-681.251	-200.000	-0.043	-0.375
-680.237	-200.000	0.008	-0.145
-679.222	-200.000	-0.031	0.141
-678.208	-37.201	-0.129	-0.069
-677.193	98.072	0.269	-0.310
-676.178	-200.000	-0.065	-0.315
-675.164	800.000	0.068	0.260
-674.149	82.505	-0.032	-0.035
-673.135	13.291	0.033	-0.026
-672.120	-75.880	-0.470	-0.167
-671.105	-27.244	0.218	0.127
-670.091	-200.000	-0.004	0.047
-669.076	104.974	0.149	0.176
-668.062	-198.769	-0.125	0.001
-667.047	1.402	0.057	0.041
-666.032	395.041	0.162	0.339
-665.018	-200.000	-0.004	-0.151
-664.003	26.903	-0.191	-0.160
-662.989	86.495	0.106	-0.117
-661.974	12.408	0.208	-0.160
-660.959	233.502	-0.092	-0.151
-659.945	-200.000	-0.014	0.146
-658.930	800.000	-0.055	-0.174
-657.916	23.337	0.174	-0.143
-656.901	131.573	-0.214	-0.275
-655.886	-107.173	-0.300	0.066
-654.872	117.430	-0.191	-0.236
-653.857	17.035	0.327	-0.259
-652.843	266.850	-0.074	-0.129
-651.828	-142.364	-0.124	-0.012
-650.814	-143.244	-0.328	0.032
-649.799	-51.410	0.227	-0.106
-648.784	-105.229	0.254	-0.058
-647.770	39.441	0.123	0.110
-646.755	-200.000	0.017	-0.246
-645.741	-155.235	-0.244	-0.016
-644.726	-200.000	0.024	0.328
-643.711	-156.373	-0.492	0.031
-642.697	185.252	-0.093	-0.138
-641.682	800.000	-0.069	-0.204
-640.668	-83.930	0.017	-0.005
-639.653	785.245	0.041	-0.112
-638.638	-12.875	-0.038	0.025
-637.624	800.000	0.065	0.205
-636.609	-135.648	0.145	0.017
-635.595	-38.517	-0.034	-0.018
-634.580	180.119	0.089	-0.131
-633.565	14.865	-0.328	-0.256
-632.551	-5.541	-0.278	-0.191
-631.536	-107.584	0.174	-0.038
-630.522	121.328	-0.114	0.142
-629.507	-200.000	-0.058	-0.311
-628.492	-8.575	-0.579	0.389
-627.478	-26.756	-0.244	-0.143
-626.463	271.718	-0.077	-0.135
-625.449	-88.054	-0.130	0.039
-624.434	-139.571	-0.317	0.034
-623.419	-200.000	0.035	0.178
-622.405	252.432	0.055	-0.093
-621.390	800.000	0.041	0.158
-620.376	167.781	0.141	-0.200
-619.361	-111.723	0.111	-0.022
-618.346	57.729	-0.274	-0.268
-617.332	-20.835	-0.193	-0.118
-616.317	-107.315	0.273	0.060
-615.303	-12.303	0.199	-0.130
-614.288	368.847	0.150	0.304
-613.273	-85.847	0.306	-0.095
-612.259	148.800	-0.152	-0.206
-611.244	-90.187	-0.277	-0.081
-610.230	-200.000	0.019	0.119
-609.215	219.976	-0.179	-0.286
-608.201	-96.505	0.292	-0.077
-607.186	185.156	0.157	-0.233
-606.171	275.140	0.120	0.212
-605.157	247.205	-0.109	-0.184
-604.142	-200.000	-0.083	-0.454
-603.128	-200.000	0.004	-0.080
-602.113	-100.821	-0.192	0.047
-601.098	-102.723	0.188	-0.045
-600.084	-117.924	-0.166	0.030
-599.069	73.121	0.079	0.082
-598.055	106.643	-0.074	0.087
-597.040	-39.814	0.075	0.039
-596.025	-59.793	0.256	0.109
-595.011	98.345	0.189	-0.218
-593.996	-200.000	-0.018	-0.104
-592.982	-186.246	0.171	0.002
-591.967	17.235	0.171	-0.135
-590.952	800.000	-0.070	0.245
-589.938	175.532	0.090	-0.130
-588.923	189.340	-0.050	-0.076
-587.909	-112.039	-0.234	-0.047
-586.894	113.751	-0.315	-0.382
-585.879	-31.420	0.349	-0.196
-584.865	-4.142	-0.247	0.171
-583.850	212.164	0.093	-0.146
-582.836	-200.000	0.062	-0.301
-581.821	-132.601	-0.128	0.016
-580.806	-200.000	0.015	0.275
-579.792	800.000	0.052	-0.167
-578.777	800.000	-0.149	0.438
-577.763	-25.480	-0.056	0.033
-576.748	-138.265	-0.193	0.021
-575.733	3.882	-0.318	0.231
-574.719	202.286	0.123	-0.190
-573.704	-200.000	-0.044	-0.220
-572.690	-63.088	0.264	-0.109
-571.675	223.971	-0.206	0.331
-570.661	-200.000	0.013	-0.187
-569.646	15.619	-0.316	-0.248
-568.631	-59.283	-0.250	0.107
-567.617	800.000	-0.019	-0.070
-566.602	-156.827	0.110	0.007
-565.588	800.000	-0.078	-0.256
-564.573	800.000	0.029	0.113
-563.558	-12.501	-0.157	-0.102
-562.544	50.964	0.215	0.204
-561.529	13.294	-0.339	-0.262
-560.515	658.742	0.116	0.299
-559.500	475.674	-0.016	-0.035
-558.485	800.000	0.047	0.175
-557.471	9.470	0.132	-0.099
-556.456	14.588	-0.235	-0.183
-555.442	37.148	0.193	-0.170
-554.427	155.367	0.130	0.178
-553.412	800.000	0.036	0.152
-552.398	-50.870	-0.134	0.063
-551.383	-137.917	-0.148	0.016
-550.369	315.348	0.184	0.347
-549.354	27.205	-0.202	0.169
-548.339	3.169	-0.248	0.180
-547.325	-24.710	-0.255	0.151
-546.310	-16.988	0.281	0.177
-545.296	-176.526	-0.400	-0.010
-544.281	-51.105	-0.115	-0.054
-543.266	28.333	-0.264	0.222
-542.252	-200.000	0.060	0.490
-541.237	254.941	0.203	0.346
-540.223	-31.215	0.056	-0.031
-539.208	-200.000	-0.002	0.095
-538.193	38.880	0.202	-0.180
-537.179	-123.677	0.147	-0.023
-536.164	800.000	-0.065	-0.276
-535.150	-200.000	0.005	-0.130
-534.135	-116.007	-0.286	0.053
-533.121	-200.000	-0.057	-0.325
-532.106	-68.923	0.351	-0.135
-531.091	-113.804	0.249	0.048
-530.077	74.869	-0.213	-0.224
-529.062	-139.315	0.331	0.035
-528.048	-79.788	-0.283	0.095
-527.033	-68.636	0.175	0.067
-526.018	19.128	0.060	0.048
-525.004	800.000	0.041	0.164
-523.989	-200.000	0.014	0.095
-522.975	-85.554	0.324	-0.100
-521.960	-32.447	-0.161	0.090
-520.945	261.581	0.086	-0.149
-519.931	-120.670	-0.093	-0.016
-518.916	-200.000	0.002	0.167
-517.902	-154.063	0.343	-0.023
-516.887	-52.396	-0.154	0.071
-515.872	-78.917	0.299	0.101
-514.858	105.747	-0.141	0.166
-513.843	361.059	0.090	-0.179
-512.829	-32.090	-0.112	0.062
-511.814	-68.693	-0.090	0.035
-510.799	-200.000	0.002	0.112
-509.785	116.370	0.175	0.213
-508.770	-11.856	0.234	0.152
-507.756	-59.527	0.072	0.031
-506.741	800.000	0.058	-0.176
-505.726	800.000	0.070	0.274
-504.712	-54.444	0.216	-0.097
-503.697	-48.101	0.295	0.142
-502.683	-67.773	0.534	0.208
-501.668	-200.000	0.014	0.281
-500.653	-200.000	0.024	0.398
-499.639	-10.964	-0.277	0.182
-498.624	158.153	0.097	0.134
-497.610	283.516	0.096	0.171
-496.595	-9.971	0.148	0.098
-495.581	-59.257	-0.210	-0.090
-494.566	-163.058	0.238	-0.011
-493.551	-65.090	0.255	-0.102
-492.537	-200.000	0.015	-0.242
-491.522	-126.917	0.098	0.014
-490.508	331.181	0.049	0.095
-489.493	-200.000	-0.002	-0.088
-488.478	249.270	-0.150	-0.252
-487.464	-77.321	-0.275	-0.095
-486.449	-108.059	-0.319	-0.069
-485.435	-25.114	0.379	0.223
-484.420	179.247	-0.220	0.319
-483.405	-23.723	0.138	0.082
-482.391	-105.165	0.158	-0.036
-481.376	-110.238	-0.252	-0.052
-480.362	800.000	0.125	-0.457
-479.347	-174.757	0.368	0.010
-478.332	183.787	0.118	-0.174
-477.318	-158.322	0.139	-0.008
-476.303	-25.933	0.294	-0.172
-475.289	54.499	0.053	-0.051
-474.274	-159.598	0.339	0.019
-473.259	683.199	0.116	-0.302
-472.245	800.000	-0.092	-0.285
-471.230	117.610	0.215	0.263
-470.216	-11.228	0.202	0.132
-469.201	30.896	-0.096	0.082
-468.186	-200.000	0.003	0.105
-467.172	-83.492	-0.082	0.026
-466.157	-200.000	-0.015	-0.174
-465.143	-200.000	-0.017	-0.281
-464.128	97.867	-0.016	0.019
-463.113	-5.583	-0.078	-0.053
-462.099	-200.000	-0.025	0.351
-461.084	800.000	0.119	0.467
-460.070	-14.374	-0.186	0.119
-459.055	-76.787	0.306	-0.106
-458.040	530.194	-0.062	-0.147
-457.026	-200.000	0.062	-0.282
-456.011	24.013	0.382	-0.313
-454.997	-40.210	-0.282	-0.146
-453.982	800.000	0.080	-0.235
-452.968	-200.000	-0.013	-0.103
-451.953	128.011	0.144	-0.181
-450.938	-95.546	0.267	-0.071
-449.924	165.719	-0.067	0.095
-448.909	-40.846	0.039	-0.020
-447.895	800.000	-0.044	-0.165
-446.880	-65.026	0.211	-0.084
-445.865	-200.000	-0.016	-0.166
-444.851	-44.220	-0.302	0.150
-443.836	24.882	0.154	0.127
-442.822	800.000	-0.161	-0.616
-441.807	-107.316	-0.072	-0.016
-440.792	95.171	0.169	-0.191
-439.778	98.670	0.168	0.192
-438.763	-157.926	-0.207	0.012
-437.749	-0.351	0.031	-0.022
-436.734	-109.440	-0.263	-0.055
-435.719	99.684	0.214	0.245
-434.705	0.260	0.103	-0.073
-433.690	70.597	0.048	-0.049
-432.676	-200.000	-0.044	0.286
-431.661	800.000	0.056	-0.182
-430.646	-119.606	-0.286	-0.049
-429.632	-200.000	-0.044	0.196
-428.617	139.311	-0.068	0.089
-427.603	478.325	-0.058	-0.131
-426.588	-57.921	0.116	-0.050
-425.573	-200.000	0.005	0.209
-424.559	-200.000	0.008	-0.095
-423.544	-51.551	-0.351	-0.163
-422.530	143.421	-0.144	-0.190
-421.515	-199.083	0.283	-0.002
-420.500	-61.993	0.215	-0.089
-419.486	-200.000	0.046	-0.267
-418.471	-200.000	0.000	0.058
-417.457	210.839	0.027	0.042
-416.442	-16.885	-0.168	0.105
-415.428	538.573	-0.102	-0.241
-414.413	800.000	-0.154	0.518
-413.398	-30.718	0.072	0.040
-412.384	-79.503	-0.359	0.120
-411.369	-131.852	-0.367	0.048
-410.355	-69.213	-0.030	-0.012
-409.340	800.000	-0.128	0.509
-408.325	16.760	-0.190	0.149
-407.311	800.000	0.049	-0.164
-406.296	-48.868	-0.323	0.153
-405.282	226.293	0.200	-0.322
-404.267	-47.694	0.175	-0.084
-403.252	-124.914	-0.162	0.025
-402.238	-83.219	0.174	-0.055
-401.223	22.639	0.132	-0.107
-400.209	-80.774	0.347	-0.114
-399.194	335.541	-0.262	0.504
-398.179	-80.307	-0.241	-0.080
-397.165	-32.608	0.300	0.165
-396.150	-200.000	-0.014	0.219
-395.136	-44.368	0.022	0.011
-394.121	336.394	0.112	0.215
-393.106	33.133	-0.160	0.137
-392.092	31.968	0.185	-0.158
-391.077	17.653	-0.118	0.093
-390.063	-50.352	-0.168	-0.079
-389.048	239.282	0.136	0.224
-388.033	-200.000	0.006	-0.221
-387.019	-200.000	0.054	-0.286
-386.004	-172.920	-0.214	-0.007
-384.990	-200.000	0.045	-0.329
-383.975	93.771	-0.013	-0.015
-382.960	-39.857	-0.080	0.041
-381.946	74.755	0.123	-0.128
-380.931	-49.052	-0.322	0.153
-379.917	-15.162	-0.173	0.110
-378.902	84.163	0.195	-0.211
-377.888	397.410	-0.129	-0.267
-376.873	-51.328	-0.188	0.087
-375.858	-200.000	0.015	-0.139
-374.844	-108.155	0.390	0.084
-373.829	18.564	-0.267	-0.212
-372.815	45.405	0.126	-0.115
-371.800	-104.995	-0.043	-0.010
-370.785	54.349	-0.099	0.094
-369.771	-65.894	-0.323	0.128
-368.756	-200.000	0.056	-0.263
-367.742	-200.000	0.482	-0.000
-366.727	253.542	-0.107	-0.181
-365.712	800.000	0.050	0.171
-364.698	663.339	0.059	-0.151
-363.683	139.190	-0.085	0.110
-362.669	185.453	-0.101	0.148
-361.654	193.687	-0.165	-0.247
-360.639	800.000	0.065	-0.275
-359.625	708.798	0.092	0.241
-358.610	-87.429	0.122	0.037
-357.596	17.714	-0.063	0.050
-356.581	121.748	-0.079	-0.098
-355.566	-4.477	0.162	-0.111
-354.552	-81.333	0.042	-0.014
-353.537	146.202	-0.064	0.086
-352.523	-200.000	-0.005	-0.121
-351.508	-5.817	-0.057	-0.038
-350.493	21.617	0.075	-0.060
-349.479	-200.000	0.005	0.498
-348.464	-119.512	-0.180	0.031
-347.450	-200.000	0.033	-0.159
-346.435	-45.685	-0.113	-0.055
-345.420	19.124	-0.282	-0.224
-344.406	63.120	0.061	0.060
-343.391	-59.757	0.187	0.079
-342.377	-77.217	0.219	-0.075
-341.362	119.229	-0.135	0.165
-340.348	-81.355	0.035	0.012
-339.333	800.000	-0.062	0.239
-338.318	-155.480	-0.127	0.008
-337.304	-66.008	-0.156	-0.062
-336.289	108.045	0.136	-0.160
-335.275	-136.064	0.056	0.006
-334.260	-2.118	0.215	-0.150
-333.245	124.443	-0.195	-0.243
-332.231	-200.000	-0.031	0.251
-331.216	-200.000	0.034	0.177
-330.202	-75.856	-0.368	-0.129
-329.187	-100.006	-0.211	-0.052
-328.172	-59.149	0.265	-0.113
-327.158	-2.156	-0.057	-0.039
-326.143	-82.254	-0.148	0.048
-325.129	-64.951	-0.066	0.026
-324.114	-200.000	-0.004	0.194
-323.099	483.749	-0.111	-0.249
-322.085	-200.000	-0.013	-0.296
-321.070	152.358	0.050	0.067
-320.056	257.365	-0.053	0.091
-319.041	-190.595	-0.205	0.002
-318.026	521.301	-0.077	0.178
-317.012	-134.581	-0.152	-0.018
-315.997	50.714	0.155	0.145
-314.983	253.829	-0.144	-0.243
-313.968	136.982	-0.094	-0.122
-312.953	-66.713	-0.273	0.107
-311.939	29.797	-0.146	0.123
-310.924	-104.847	-0.075	-0.017
-309.910	140.632	0.049	-0.065
-308.895	-55.606	-0.298	-0.132
-307.880	-129.440	-0.352	-0.048
-306.866	-107.691	-0.151	-0.033
-305.851	-34.127	-0.285	0.155
-304.837	-114.662	-0.310	-0.058
-303.822	-200.000	-0.029	0.339
-302.807	-109.159	0.245	-0.052
-301.793	-200.000	-0.023	-0.287
-300.778	800.000	-0.031	0.110
-299.764	792.107	0.111	0.302
-298.749	-58.374	0.135	-0.058
-297.735	800.000	0.137	0.507
-296.720	-200.000	-0.220	-0.001
-295.705	389.863	0.012	-0.024
-294.691	-34.760	0.119	0.064
-293.676	-125.591	0.285	-0.043
-292.662	-54.247	-0.087	-0.039
-291.647	-200.000	0.014	0.208
-290.632	-16.150	0.127	0.079
-289.618	-160.892	-0.459	0.024
-288.603	-200.000	0.030	-0.418
-287.589	316.710	-0.078	0.145
-286.574	151.454	0.383	-0.514
-285.559	-143.989	0.201	0.019
-284.545	-182.915	0.204	-0.004
-283.530	-200.000	0.007	0.078
-282.516	-200.000	0.060	0.332
-281.501	176.816	0.065	-0.094
-280.486	284.240	0.075	0.133
-279.472	-84.993	-0.088	0.027
-278.457	800.000	-0.102	0.293
-277.443	-51.638	0.259	-0.119
-276.428	800.000	-0.074	-0.247
-275.413	129.806	-0.057	-0.072
-274.399	800.000	0.057	-0.173
-273.384	222.031	-0.056	0.089
-272.370	136.760	0.045	0.058
-271.355	-114.382	0.359	-0.068
-270.340	-200.000	0.003	0.216
-269.326	0.640	-0.128	0.091
-268.311	-76.127	0.194	0.068
-267.297	-200.000	-0.084	-0.428
-266.282	-200.000	0.031	-0.300
-265.267	303.896	-0.129	0.237
-264.253	-200.000	-0.005	0.231
-263.238	65.038	0.197	0.196
-262.224	-200.000	-0.058	0.421
-261.209	-200.000	0.023	0.227
-260.195	200.236	0.137	0.207
-259.180	-200.000	-0.043	-0.209
-258.165	-69.613	0.245	0.092
-257.151	-115.071	0.409	-0.076
-256.136	-200.000	-0.009	0.220
-255.122	800.000	-0.083	0.255
-254.107	-115.874	-0.241	-0.044
-253.092	-200.000	-0.061	-0.286
-252.078	242.796	0.088	-0.146
-251.063	82.640	0.190	-0.203
-250.049	42.532	0.232	-0.208
-249.034	-136.285	0.125	-0.014
-248.019	-42.045	0.184	-0.093
-247.005	4.490	-0.068	-0.049
-245.990	23.595	0.247	0.200
-244.976	258.574	0.215	0.364
-243.961	-92.215	0.384	-0.107
-242.946	-200.000	0.041	0.399
-241.932	-122.950	0.077	0.012
-240.917	-18.936	0.242	-0.148
-239.903	-49.897	0.138	-0.064
-238.888	38.278	0.117	0.102
-237.873	-86.274	0.176	0.053
-236.859	126.829	-0.344	-0.429
-235.844	-76.334	-0.084	-0.029
-234.830	83.779	-0.140	-0.151
-233.815	45.815	0.279	-0.254
-232.800	-99.527	-0.343	-0.085
-231.786	-144.707	0.117	0.011
-230.771	-54.307	-0.044	-0.020
-229.757	286.778	0.119	0.211
-228.742	-200.000	-0.028	-0.300
-227.727	767.654	-0.028	-0.075
-226.713	30.119	-0.356	0.299
-225.698	21.449	-0.151	0.121
-224.684	-200.000	0.013	0.324
-223.669	-127.965	-0.332	0.047
-222.655	-60.410	-0.217	0.091
-221.640	-153.640	0.073	-0.005
-220.625	-200.000	0.026	-0.115
-219.611	636.069	-0.030	-0.074
-218.596	-95.858	0.384	0.101
-217.582	419.581	-0.092	0.194
-216.567	-52.615	-0.084	-0.038
-215.552	170.053	0.075	0.105
-214.538	-149.110	-0.278	0.022
-213.523	-107.101	-0.610	-0.132
-212.509	800.000	-0.131	-0.371
-211.494	-47.714	-0.122	-0.058
-210.479	280.476	-0.019	-0.033
-209.465	-18.646	-0.330	0.202
-208.450	103.315	0.257	-0.296
-207.436	-200.000	-0.045	-0.372
-206.421	-98.545	-0.079	-0.020
-205.406	-24.439	0.101	0.059
-204.392	249.498	0.246	-0.411
-203.377	114.834	-0.275	-0.330
-202.363	-200.000	-0.087	0.493
-201.348	228.609	-0.055	0.088
-200.333	-200.000	0.019	-0.152
-199.319	-25.726	0.360	-0.209
-198.304	800.000	-0.125	-0.361
-197.290	0.054	0.221	-0.155
-196.275	-102.761	-0.117	-0.027
-195.260	800.000	-0.107	0.372
-194.246	800.000	-0.023	0.079
-193.231	-66.093	-0.324	-0.127
-192.217	-127.113	-0.152	-0.022
-191.202	-94.242	-0.150	0.040
-190.187	93.237	-0.116	-0.129
-189.173	-148.293	0.272	0.022
-188.158	-154.350	-0.303	0.020
-187.144	-24.566	0.347	0.203
-186.129	-107.769	0.430	0.092
-185.114	-200.000	0.005	0.216
-184.100	-68.583	0.074	-0.028
-183.085	-200.000	-0.016	0.091
-182.071	599.914	0.156	0.381
-181.056	-45.306	0.464	-0.226
-180.042	-200.000	-0.057	0.305
-179.027	-127.150	0.450	0.065
-178.012	200.228	0.175	0.263
-176.998	-132.248	-0.267	-0.034
-175.983	-41.538	-0.108	0.055
-174.969	800.000	0.150	0.517
-173.954	-44.984	0.110	-0.054
-172.939	800.000	0.032	-0.119
-171.925	31.061	0.421	0.355
-170.910	-200.000	-0.016	-0.091
-169.896	-106.646	0.134	0.029
-168.881	-200.000	0.024	0.172
-167.866	175.574	-0.115	-0.163
-166.852	-200.000	-0.003	0.198
-165.837	-200.000	0.034	0.254
-164.823	-170.895	0.294	0.010
-163.808	800.000	-0.026	-0.083
-162.793	-200.000	-0.044	-0.232
-161.779	-200.000	0.047	0.440
-160.764	748.564	-0.140	-0.371
-159.750	800.000	-0.131	0.409
-158.735	-111.055	0.365	0.074
-157.720	-138.560	-0.177	-0.019
-156.706	-132.326	-0.155	-0.020
-155.691	-67.082	-0.355	-0.138
-154.677	-36.188	-0.102	0.054
-153.662	53.435	-0.159	0.150
-152.647	79.694	0.044	-0.046
-151.633	-97.752	-0.223	-0.057
-150.618	800.000	-0.014	-0.051
-149.604	-200.000	0.020	0.090
-148.589	-82.288	-0.249	-0.079
-147.574	-200.000	-0.024	0.000
-146.560	-200.000	-0.014	-0.319
-145.545	75.259	-0.013	-0.013
-144.531	-200.000	-0.096	-0.571
-143.516	28.713	-0.327	-0.272
-142.502	-200.000	-0.009	0.052
-141.487	-78.264	0.377	0.127
-140.472	347.443	-0.096	0.186
-139.458	-37.816	-0.114	0.059
-138.443	-181.556	0.169	0.003
-137.429	133.650	-0.088	-0.112
-136.414	-142.536	0.418	-0.040
-135.399	800.000	-0.051	0.183
-134.385	81.433	-0.218	0.231
-133.370	-83.374	-0.346	-0.109
-132.356	150.300	0.077	-0.103
-131.341	-53.325	-0.330	0.148
-130.326	183.644	0.228	0.331
-129.312	-92.289	-0.140	-0.039
-128.297	800.000	0.041	-0.113
-127.283	-21.110	0.025	-0.015
-126.268	11.951	-0.130	0.098
-125.253	-200.000	-0.005	0.119
-124.239	434.835	-0.093	-0.199
-123.224	344.980	0.194	-0.374
-122.210	-112.865	-0.357	0.069
-121.195	-85.767	-0.280	-0.085
-120.180	1.163	0.079	0.056
-119.166	-32.973	-0.291	0.158
-118.151	-200.000	0.004	-0.151
-117.137	9.735	-0.225	0.167
-116.122	282.769	0.085	0.150
-115.107	-101.079	0.134	-0.032
-114.093	5.332	0.112	-0.081
-113.078	-141.959	-0.159	0.016
-112.064	-76.175	-0.182	-0.063
-111.049	800.000	0.061	-0.247
-110.034	676.963	-0.103	-0.263
-109.020	78.355	-0.166	0.174
-108.005	-185.584	-0.233	-0.003
-106.991	-200.000	-0.049	-0.224
-105.976	-200.000	0.002	-0.225
-104.962	-28.101	0.257	0.145
-103.947	30.584	0.027	-0.022
-102.932	800.000	-0.052	0.180
-101.918	-188.229	-0.528	-0.007
-100.903	-18.416	0.182	-0.112
-99.889	29.821	0.023	0.019
-98.874	329.775	0.017	-0.032
-97.859	800.000	-0.023	0.062
-96.845	46.237	0.206	0.187
-95.830	-21.279	-0.304	-0.182
-94.816	66.713	-0.055	0.055
-93.801	800.000	-0.085	-0.254
-92.786	220.279	-0.044	0.069
-91.772	672.129	0.050	0.126
-90.757	504.621	0.079	0.180
-89.743	-200.000	0.054	-0.252
-88.728	38.037	0.090	-0.078
-87.713	217.162	0.106	-0.166
-86.699	46.252	0.323	-0.293
-85.684	68.699	0.134	-0.135
-84.670	14.606	0.071	-0.054
-83.655	-115.122	-0.192	0.036
-82.640	27.345	-0.099	-0.081
-81.626	184.813	0.124	0.180
-80.611	170.531	-0.181	0.254
-79.597	800.000	0.032	-0.102
-78.582	-200.000	0.031	-0.240
-77.567	-36.206	0.250	-0.132
-76.553	44.698	0.224	-0.202
-75.538	-200.000	-0.006	-0.239
-74.524	147.342	-0.194	-0.255
-73.509	-74.419	0.269	0.095
-72.494	288.185	0.042	-0.075
-71.480	32.175	-0.208	-0.175
-70.465	124.990	-0.071	0.088
-69.451	179.823	-0.129	0.184
-68.436	-129.330	-0.314	-0.043
-67.422	198.941	0.026	-0.038
-66.407	-37.938	-0.235	-0.122
-65.392	462.066	-0.033	0.072
-64.378	23.260	0.119	-0.095
-63.363	131.856	-0.260	0.327
-62.349	-160.181	0.201	0.011
-61.334	-13.208	-1.361	-0.864
-60.319	15.261	0.676	0.518
-59.305	800.000	-0.391	-1.247
-58.290	172.508	0.694	0.976
-57.276	368.000	0.694	1.372
-56.261	-200.000	113.858	642.303
-55.246	475.661	1501.867	3315.697
-54.232	147.924	2674.169	3524.616
-53.217	96.705	2282.060	2554.803
-52.203	36.184	1896.094	1632.577
-51.188	30.404	1689.329	1410.734
-50.173	28.049	1647.587	1358.348
-49.159	49.309	1701.940	1564.088
-48.144	48.243	1716.796	1569.653
-47.130	30.106	1675.475	1396.693
-46.115	27.433	1661.203	1364.741
-45.100	27.205	1656.135	1358.814
-44.086	27.176	1653.590	1356.460
-43.071	27.118	1651.527	1354.277
-42.057	27.241	1648.977	1353.053
-41.042	27.187	1646.785	1350.799
-40.027	27.170	1644.855	1349.032
-39.013	27.206	1642.823	1347.584
-37.998	27.213	1641.433	1346.441
-36.984	27.233	1640.352	1345.650
-35.969	27.294	1638.787	1344.761
-34.954	27.285	1637.508	1343.593
-33.940	27.300	1635.562	1342.052
-32.925	27.243	1633.532	1339.917
-31.911	27.285	1631.831	1338.776
-30.896	27.337	1630.042	1337.634
-29.881	27.263	1628.805	1336.021
-28.867	27.331	1626.520	1334.599
-27.852	27.238	1626.074	1333.498
-26.838	27.242	1624.264	1331.986
-25.823	27.385	1622.579	1331.599
-24.809	27.353	1621.034	1330.047
-23.794	27.305	1619.843	1328.662
-22.779	27.258	1618.718	1327.348
-21.765	27.414	1616.456	1326.572
-20.750	27.247	1615.157	1324.241
-19.736	27.377	1613.903	1324.102
-18.721	27.368	1612.645	1322.952
-17.706	27.324	1611.172	1321.377
-16.692	27.317	1609.545	1319.940
-15.677	27.279	1608.528	1318.772
-14.663	27.377	1606.933	1318.121
-13.648	27.403	1605.393	1316.995
-12.633	27.302	1604.326	1315.336
-11.619	27.414	1602.178	1314.338
-10.604	27.355	1600.827	1312.749
-9.590	27.409	1599.720	1312.175
-8.575	27.384	1598.494	1310.938
-7.560	27.383	1597.056	1309.700
-6.546	27.363	1595.982	1308.624
-5.531	27.368	1595.372	1308.112
-4.517	27.319	1594.177	1306.723
-3.502	27.358	1592.802	1305.826
-2.487	27.415	1591.117	1304.801
-1.473	27.134	1579.351	1293.101
-0.458	24.464	1560.572	1258.874
0.556	19.384	1562.027	1230.113
1.571	17.189	1586.413	1233.291
2.586	16.925	1599.036	1241.061
3.600	16.276	1549.137	1197.625
4.615	13.485	1450.412	1102.641
5.629	10.540	1396.004	1042.284
6.644	10.103	1388.251	1033.607
7.659	9.946	1387.891	1032.245
8.673	9.966	1386.170	1031.003
9.688	9.915	1384.471	1029.320
10.702	9.815	1380.973	1025.996
11.717	11.127	1383.383	1036.044
12.731	14.557	1388.809	1061.885
13.746	17.225	1392.275	1081.444
14.761	17.404	1391.823	1082.134
15.775	16.484	1389.402	1074.312
16.790	15.507	1386.574	1065.836
17.804	14.670	1384.484	1058.830
18.819	14.153	1382.970	1054.301
19.834	13.927	1381.470	1051.635
20.848	13.575	1380.355	1048.460
21.863	13.445	1378.806	1046.373
22.877	13.199	1378.064	1044.164
23.892	13.270	1376.923	1043.650
24.907	13.206	1376.297	1042.681
25.921	13.208	1375.511	1042.010
26.936	13.318	1374.441	1041.799
27.950	13.313	1373.864	1041.240
28.965	13.364	1372.476	1040.411
29.980	13.458	1370.897	1039.713
30.994	13.451	1369.679	1038.654
32.009	13.515	1369.032	1038.477
33.023	13.545	1367.388	1037.325
34.038	13.584	1365.920	1036.359
35.053	13.524	1364.470	1034.797
36.067	13.489	1363.722	1033.920
37.082	13.367	1363.198	1032.670
38.096	13.491	1361.569	1032.113
39.111	13.473	1360.611	1031.188
40.126	13.310	1360.078	1029.674
41.140	13.380	1358.921	1029.143
42.155	13.274	1358.103	1027.771
43.169	13.140	1358.634	1027.252
44.184	13.183	1358.050	1026.984
45.199	13.154	1357.879	1026.585
46.213	13.239	1357.077	1026.419
47.228	13.265	1356.399	1025.973
48.242	13.283	1354.816	1024.798
49.257	13.344	1353.253	1023.903
50.271	13.431	1351.694	1023.172
51.286	13.357	1350.422	1021.658
52.301	13.357	1349.340	1020.748
53.315	13.335	1348.381	1019.802
54.330	13.124	1347.858	1018.016
55.344	13.203	1345.918	1016.943
56.359	13.146	1345.722	1016.358
57.374	13.240	1344.448	1015.884
58.388	13.229	1343.227	1014.804
59.403	13.149	1342.945	1014.007
60.417	13.107	1342.370	1013.225
61.432	13.109	1341.239	1012.295
62.447	13.070	1340.610	1011.489
63.461	13.087	1339.128	1010.388
64.476	13.057	1338.203	1009.417
65.490	13.122	1337.118	1008.909
66.505	13.134	1335.285	1007.505
67.520	13.071	1334.482	1006.426
68.534	12.997	1333.540	1005.176
69.549	13.170	1332.114	1005.068
70.563	13.118	1331.362	1004.091
71.578	13.085	1330.018	1002.793
72.593	13.055	1328.988	1001.743
73.607	12.965	1328.863	1001.017
74.622	13.003	1327.896	1000.429
75.636	12.932	1327.399	999.534
76.651	13.082	1326.285	999.516
77.666	12.994	1326.571	999.108
78.680	12.991	1325.785	998.411
79.695	13.046	1324.822	997.930
80.709	13.015	1324.043	997.068
81.724	13.285	1322.879	997.732
82.739	13.105	1322.354	996.160
83.753	13.190	1321.588	996.008
84.768	13.340	1320.193	995.776
85.782	13.420	1318.954	995.231
86.797	13.471	1317.831	994.602
87.812	13.340	1316.676	992.858
88.826	13.206	1316.112	991.540
89.841	13.334	1314.220	990.794
90.855	13.354	1313.386	990.200
91.870	13.361	1312.433	989.430
92.884	13.394	1311.782	989.053
93.899	13.408	1310.990	988.449
94.914	13.381	1310.513	987.845
95.928	13.470	1309.186	987.286
96.943	13.484	1308.097	986.460
97.957	13.388	1307.510	985.360
98.972	13.328	1306.127	983.872
99.987	13.367	1305.152	983.283
101.001	13.340	1304.198	982.318
102.016	13.415	1302.743	981.578
103.030	13.459	1302.318	981.436
104.045	13.405	1301.413	980.346
105.060	13.429	1299.717	979.123
106.074	13.250	1298.834	977.310
107.089	13.200	1297.152	975.666
108.103	13.178	1296.130	974.677
109.118	13.106	1294.550	972.981
110.133	13.176	1293.213	972.302
111.147	13.217	1291.631	971.266
112.162	13.295	1290.547	970.826
113.176	13.287	1289.860	970.177
114.191	13.270	1288.580	969.029
115.206	13.227	1287.675	968.009
116.220	13.164	1286.435	966.623
117.235	13.251	1285.261	966.161
118.249	13.184	1284.507	965.121
119.264	13.264	1282.891	964.289
120.279	13.192	1282.047	963.150
121.293	13.234	1280.918	962.459
122.308	13.146	1279.825	961.041
123.322	13.188	1279.007	960.586
124.337	13.220	1277.708	959.711
125.352	13.207	1276.658	958.764
126.366	13.072	1275.764	957.222
127.381	13.179	1274.422	956.748
128.395	13.129	1273.530	955.707
129.410	13.127	1272.582	954.901
130.424	13.114	1271.824	954.171
131.439	13.278	1270.469	954.014
132.454	13.157	1270.085	952.948
133.468	13.230	1268.936	952.419
134.483	13.272	1268.083	951.935
135.497	13.199	1267.466	950.968
136.512	13.198	1265.866	949.680
137.527	13.301	1264.024	948.806
138.541	13.386	1262.733	948.241
139.556	13.376	1261.381	947.079
140.570	13.376	1260.440	946.290
141.585	13.404	1259.251	945.475
142.600	13.394	1258.293	944.615
143.614	13.482	1257.395	944.360
144.629	13.547	1256.609	944.057
145.643	13.401	1255.572	942.365
146.658	13.383	1253.624	940.714
147.673	13.426	1252.810	940.263
148.687	13.378	1251.379	938.837
149.702	13.422	1249.758	937.788
150.716	13.374	1248.670	936.615
151.731	13.366	1247.483	935.596
152.746	13.314	1246.612	934.567
153.760	13.394	1245.144	933.837
154.775	13.467	1243.978	933.287
155.789	13.560	1242.827	932.863
156.804	13.577	1242.085	932.325
157.819	13.545	1241.467	931.599
158.833	13.540	1240.514	930.771
159.848	13.678	1239.433	930.650
160.862	13.638	1238.292	929.488
161.877	13.552	1237.379	928.241
162.892	13.398	1236.428	926.578
163.906	13.442	1235.360	925.943
164.921	13.418	1234.008	924.718
165.935	13.498	1233.151	924.440
166.950	13.498	1232.666	923.992
167.964	13.515	1231.956	923.472
168.979	13.519	1231.169	922.822
169.994	13.503	1230.512	922.159
171.008	13.606	1229.796	922.116
172.023	13.603	1228.909	921.351
173.037	13.669	1228.188	921.095
174.052	13.700	1227.214	920.456
175.067	13.694	1225.992	919.428
176.081	13.692	1224.943	918.545
177.096	13.480	1224.451	916.923
178.110	13.596	1223.106	916.475
179.125	13.571	1221.959	915.400
180.140	13.610	1220.896	914.738
181.154	13.640	1220.080	914.211
182.169	13.728	1218.232	913.230
183.183	13.758	1217.142	912.494
184.198	13.806	1216.039	911.853
185.213	13.744	1215.029	910.674
186.227	13.884	1213.473	910.196
187.242	13.886	1212.737	909.571
188.256	13.937	1211.909	909.147
189.271	13.948	1210.898	908.373
190.286	13.746	1209.972	906.490
191.300	13.664	1208.928	905.183
192.315	13.625	1208.419	904.507
193.329	13.507	1208.053	903.509
194.344	13.560	1207.455	903.271
195.359	13.773	1206.513	903.645
196.373	13.899	1206.053	903.907
197.388	13.912	1205.778	903.693
198.402	13.923	1205.527	903.487
199.417	13.939	1204.916	903.036
200.432	14.120	1203.379	902.785
201.446	14.109	1203.102	902.439
202.461	14.134	1201.736	901.468
203.475	14.107	1200.956	900.659
204.490	14.078	1199.940	899.661
205.504	13.995	1198.464	898.028
206.519	14.046	1197.509	897.506
207.534	13.921	1196.238	895.796
208.548	14.068	1195.179	895.718
209.563	14.140	1194.262	895.340
210.577	14.110	1193.286	894.369
211.592	14.043	1192.808	893.567
212.607	14.096	1191.856	893.061
213.621	14.250	1190.905	893.096
214.636	14.341	1189.795	892.672
215.650	14.212	1189.157	891.423
216.665	14.274	1188.292	891.032
217.680	14.350	1187.347	890.648
218.694	14.339	1186.432	889.826
219.709	14.293	1185.768	889.002
220.723	14.315	1184.850	888.354
221.738	14.268	1184.343	887.642
222.753	14.334	1183.133	887.008
223.767	14.374	1182.641	886.772
224.782	14.395	1182.363	886.599
225.796	14.461	1181.826	886.468
226.811	14.584	1180.470	886.028
227.826	14.346	1180.299	884.555
228.840	14.430	1179.072	884.002
229.855	14.502	1178.679	884.013
230.869	14.373	1177.982	882.731
231.884	14.407	1177.411	882.404
232.899	14.245	1176.349	880.673
233.913	14.340	1175.600	880.533
234.928	14.280	1174.834	879.567
235.942	14.308	1174.453	879.353
236.957	14.304	1173.522	878.555
237.972	14.348	1172.664	878.069
238.986	14.356	1172.046	877.569
240.001	14.376	1171.202	876.967
241.015	14.346	1170.873	876.482
242.030	14.503	1169.319	876.067
243.045	14.521	1168.331	875.347
244.059	14.424	1167.699	874.282
245.074	14.495	1166.910	873.986
246.088	14.555	1166.217	873.706
247.103	14.658	1165.564	873.677
248.117	14.639	1164.696	872.854
249.132	14.745	1164.374	873.085
250.147	14.815	1163.723	872.888
251.161	14.874	1163.073	872.631
252.176	14.791	1162.204	871.469
253.190	14.990	1161.369	871.800
254.205	14.916	1160.915	870.996
255.220	14.933	1160.489	870.692
256.234	14.952	1160.226	870.515
257.249	14.962	1159.165	869.692
258.263	14.983	1158.423	869.171
259.278	14.899	1157.786	868.179
260.293	14.995	1157.329	868.258
261.307	15.026	1156.298	867.566
262.322	15.042	1155.879	867.259
263.336	14.992	1155.033	866.291
264.351	15.050	1154.672	866.240
265.366	15.136	1153.726	865.898
266.380	15.105	1152.908	865.051
267.395	15.116	1151.763	864.172
268.409	15.072	1151.210	863.449
269.424	15.049	1150.771	862.927
270.439	15.154	1150.073	862.867
271.453	15.010	1149.512	861.628
272.468	15.186	1148.081	861.385
273.482	15.036	1147.844	860.359
274.497	15.057	1147.232	859.933
275.512	15.113	1146.283	859.434
276.526	15.196	1145.348	859.084
277.541	15.093	1144.814	858.079
278.555	15.152	1144.190	857.835
279.570	15.146	1143.527	857.232
280.585	15.183	1142.831	856.825
281.599	15.214	1141.967	856.258
282.614	15.206	1140.728	855.212
283.628	15.142	1139.704	854.043
284.643	15.320	1138.647	854.083
285.657	15.300	1137.909	853.351
286.672	15.390	1136.937	853.004
287.687	15.194	1136.431	851.552
288.701	15.241	1135.516	851.029
289.716	15.372	1134.698	851.006
290.730	15.349	1133.730	850.089
291.745	15.357	1132.924	849.451
292.760	15.329	1132.711	849.075
293.774	15.375	1132.321	848.938
294.789	15.415	1131.723	848.620
295.803	15.532	1130.732	848.393
296.818	15.460	1130.189	847.545
297.833	15.457	1129.340	846.819
298.847	15.480	1128.636	846.333
299.862	15.512	1127.524	845.586
300.876	15.541	1127.145	845.373
301.891	15.478	1126.916	844.807
302.906	15.531	1125.446	843.898
303.920	15.615	1125.263	844.108
304.935	15.714	1124.535	843.982
305.949	15.660	1123.825	843.105
306.964	15.726	1123.042	842.776
307.979	15.727	1121.952	841.886
308.993	15.605	1121.735	841.041
310.008	15.595	1121.031	840.388
311.022	15.815	1119.885	840.551
312.037	15.632	1119.465	839.250
313.052	15.631	1118.606	838.525
314.066	15.749	1117.048	837.871
315.081	15.545	1116.721	836.537
316.095	15.715	1115.632	836.492
317.110	15.597	1115.452	835.696
318.125	15.548	1114.511	834.674
319.139	15.742	1113.613	834.891
320.154	15.705	1112.573	833.852
321.168	15.544	1112.747	833.111
322.183	15.609	1111.966	832.776
323.197	15.723	1111.342	832.800
324.212	15.744	1110.329	832.070
325.227	15.796	1109.614	831.716
326.241	15.760	1109.156	831.120
327.256	15.649	1108.442	829.968
328.270	15.745	1107.352	829.550
329.285	15.766	1106.732	829.115
330.300	15.758	1105.744	828.263
331.314	15.739	1104.533	827.189
332.329	15.903	1103.395	827.070
333.343	15.819	1102.393	825.831
334.358	15.839	1102.346	825.822
335.373	15.975	1101.185	825.547
336.387	15.821	1100.926	824.523
337.402	15.899	1100.013	824.149
338.416	15.899	1099.007	823.321
339.431	15.937	1098.903	823.356
340.446	16.057	1097.994	823.191
341.460	16.083	1097.136	822.602
342.475	16.027	1097.120	822.242
343.489	16.093	1095.903	821.580
344.504	16.088	1094.965	820.778
345.519	16.180	1093.515	820.069
346.533	16.299	1092.998	820.185
347.548	16.284	1092.402	819.593
348.562	16.242	1091.754	818.830
349.577	16.163	1090.882	817.721
350.592	16.179	1089.840	816.945
351.606	16.163	1089.261	816.359
352.621	16.143	1088.633	815.723
353.635	16.202	1087.693	815.231
354.650	16.104	1087.180	814.301
355.665	16.188	1086.468	814.101
356.679	16.183	1086.108	813.732
357.694	16.205	1085.353	813.201
358.708	16.277	1084.760	813.031
359.723	16.257	1083.792	812.139
360.738	16.360	1082.809	811.825
361.752	16.380	1082.422	811.558
362.767	16.259	1082.217	810.754
363.781	16.442	1081.370	810.926
364.796	16.323	1081.428	810.326
365.810	16.368	1080.707	809.929
366.825	16.447	1079.763	809.526
367.840	16.547	1079.251	809.550
368.854	16.639	1078.678	809.490
369.869	16.619	1078.197	808.965
370.883	16.448	1077.346	807.434
371.898	16.503	1076.103	806.694
372.913	16.453	1075.753	806.120
373.927	16.669	1075.066	806.565
374.942	16.553	1074.767	805.716
375.956	16.633	1074.150	805.566
376.971	16.753	1073.447	805.537
377.986	16.645	1073.176	804.750
379.000	16.828	1072.241	804.847
380.015	16.695	1072.339	804.213
381.029	16.791	1071.056	803.637
382.044	16.896	1070.207	803.429
383.059	16.824	1069.806	802.713
384.073	16.799	1068.786	801.760
385.088	16.875	1067.944	801.418
386.102	16.847	1066.985	800.494
387.117	16.771	1066.198	799.474
388.132	16.782	1065.044	798.588
389.146	16.696	1064.614	797.791
390.161	16.711	1063.816	797.193
391.175	16.818	1063.070	797.068
392.190	16.909	1062.593	797.065
393.205	16.931	1061.627	796.373
394.219	16.907	1061.015	795.735
395.234	16.891	1060.028	794.849
396.248	16.904	1058.864	793.965
397.263	16.757	1057.823	792.426
398.278	16.779	1057.587	792.280
399.292	16.904	1056.779	792.193
400.307	16.839	1055.964	791.205
401.321	16.770	1055.445	790.426
402.336	16.821	1054.592	789.954
403.350	16.948	1053.868	789.934
404.365	16.846	1053.362	789.011
405.380	16.946	1052.273	788.591
406.394	17.002	1051.796	788.421
407.409	17.006	1051.116	787.859
408.423	17.066	1050.598	787.682
409.438	17.021	1050.056	786.998
410.453	17.215	1049.171	787.163
411.467	17.141	1048.624	786.342
412.482	17.178	1047.765	785.797
413.496	17.265	1047.074	785.614
414.511	17.236	1046.489	784.968
415.526	17.272	1046.082	784.763
416.540	17.292	1045.941	784.677
417.555	17.298	1045.101	784.005
418.569	17.351	1044.796	783.951
419.584	17.342	1044.253	783.434
420.599	17.195	1043.790	782.340
421.613	105.018	1325.069	1476.911
422.628	96.492	1366.005	1477.016
