DTS Sentinel unit serial number:	SN413079Multiplexer serial number:	ORYXHardware model number:	OX4-SRSoftware version number:	ORYX F/W v4.00 Oryx Data Collector v3.7.2.0data status	okinstallation	princeton_trtdifferential loss correction	single-endedforward channel	channel 2reverse channel	N/Adate	2019/09/16time	23:55:35forward acquisition time	60.00reverse acquisition time	0.00gamma	496.2192k internal	0.2330k external	0.2330temperature offset calibration	0.9973default loss term (dB/km)	0.3790temperature slope calibration	1.0000multiplexer offset coefficient	1.0000multiplexer slope coefficient	1.0000fibre end	0.00T internal ref (°C)	29.62T ext. ref 1 (°C)	0.09T ext. ref 2 (°C)	23.94length (m)	temperature (°C)	Stokes	anti-Stokes-747.200	-139.321	-0.034	0.004
-746.185	-165.447	-0.237	0.010
-745.171	-49.661	-0.101	-0.048
-744.156	800.000	-0.058	0.169
-743.142	429.785	-0.149	-0.325
-742.127	800.000	-0.019	0.056
-741.112	-165.853	-0.402	-0.017
-740.098	78.402	0.215	0.231
-739.083	-166.201	-0.115	0.005
-738.069	50.103	-0.037	0.035
-737.054	32.597	-0.050	0.043
-736.039	153.376	0.015	-0.020
-735.025	-55.225	-0.157	0.071
-734.010	-1.171	-0.143	-0.102
-732.996	553.169	0.094	0.227
-731.981	146.050	-0.194	-0.262
-730.966	-36.236	-0.146	0.079
-729.952	228.686	-0.083	0.136
-728.937	-167.477	0.214	0.009
-727.923	96.587	-0.168	-0.193
-726.908	-88.520	-0.160	0.048
-725.894	-52.841	-0.235	-0.109
-724.879	800.000	0.077	-0.262
-723.864	-32.186	0.223	-0.126
-722.850	-45.961	-0.171	0.085
-721.835	105.431	-0.167	0.199
-720.821	-200.000	-0.014	0.088
-719.806	-92.950	-0.142	0.040
-718.791	298.075	0.243	-0.450
-717.777	37.556	-0.115	0.103
-716.762	398.792	0.068	0.143
-715.748	-23.433	-0.073	-0.044
-714.733	-79.898	-0.068	-0.023
-713.718	-162.974	0.313	-0.015
-712.704	800.000	-0.076	-0.278
-711.689	-5.689	-0.177	0.122
-710.675	133.203	-0.135	0.175
-709.660	800.000	-0.026	0.099
-708.645	-138.519	-0.235	0.026
-707.631	-11.989	0.421	-0.277
-706.616	-200.000	-0.008	-0.082
-705.602	471.727	0.091	0.207
-704.587	417.164	-0.117	-0.252
-703.572	17.923	-0.198	-0.158
-702.558	45.466	-0.115	0.106
-701.543	-200.000	-0.036	-0.261
-700.529	-71.162	-0.123	0.047
-699.514	64.204	-0.139	-0.141
-698.499	124.054	-0.197	-0.249
-697.485	-200.000	-0.000	-0.069
-696.470	800.000	0.043	-0.139
-695.456	515.736	0.142	0.333
-694.441	800.000	0.068	-0.202
-693.426	60.672	-0.285	-0.284
-692.412	-70.108	-0.307	0.117
-691.397	-77.037	0.154	0.054
-690.383	-200.000	-0.024	0.129
-689.368	-90.701	0.120	0.035
-688.354	385.162	0.055	-0.113
-687.339	-31.865	-0.264	-0.148
-686.324	800.000	-0.037	-0.158
-685.310	276.452	0.107	-0.191
-684.295	-47.442	0.188	0.092
-683.281	-132.451	0.348	-0.045
-682.266	-112.180	-0.330	0.067
-681.251	-45.582	-0.297	0.148
-680.237	-200.000	0.008	0.047
-679.222	118.437	-0.196	0.243
-678.208	235.570	-0.145	0.241
-677.193	203.401	0.038	0.058
-676.178	232.577	-0.061	0.101
-675.164	800.000	0.014	0.046
-674.149	-200.000	0.076	-0.376
-673.135	-153.736	0.156	0.011
-672.120	-63.996	0.163	0.067
-671.105	-185.157	-0.231	0.004
-670.091	-200.000	0.038	0.244
-669.076	-200.000	0.037	-0.253
-668.062	18.948	0.111	-0.089
-667.047	62.648	0.148	-0.148
-666.032	330.883	-0.185	-0.359
-665.018	-63.925	0.350	-0.144
-664.003	631.791	0.083	0.210
-662.989	545.174	0.126	-0.303
-661.974	154.774	0.117	0.162
-660.959	-67.754	0.394	0.155
-659.945	-158.009	-0.196	-0.012
-658.930	81.157	0.022	-0.024
-657.916	-20.248	0.229	0.141
-656.901	-103.599	-0.162	-0.038
-655.886	-200.000	-0.048	0.265
-654.872	217.906	-0.016	0.025
-653.857	600.040	0.036	-0.089
-652.843	292.578	-0.070	-0.128
-651.828	235.787	-0.241	-0.400
-650.814	235.319	0.048	-0.080
-649.799	-3.272	0.161	-0.113
-648.784	-86.061	0.135	0.042
-647.770	207.727	-0.188	0.294
-646.755	-161.599	-0.259	-0.013
-645.741	800.000	0.075	0.210
-644.726	-42.080	-0.117	0.060
-643.711	800.000	0.072	0.215
-642.697	-200.000	-0.009	-0.158
-641.682	512.240	-0.119	0.278
-640.668	-200.000	-0.007	-0.112
-639.653	792.932	-0.020	0.056
-638.638	-159.364	0.301	-0.017
-637.624	-75.842	0.414	-0.147
-636.609	111.882	0.202	-0.244
-635.595	-200.000	-0.028	0.243
-634.580	134.278	0.025	0.032
-633.565	174.493	-0.115	0.167
-632.551	800.000	0.079	0.260
-631.536	-200.000	-0.023	0.208
-630.522	-186.596	0.191	0.003
-629.507	-59.633	0.362	-0.156
-628.492	-71.479	-0.257	0.096
-627.478	222.118	-0.168	0.271
-626.463	-200.000	0.007	-0.096
-625.449	70.804	0.239	0.248
-624.434	-189.551	-0.137	-0.002
-623.419	-77.913	-0.106	-0.037
-622.405	-142.884	-0.424	0.041
-621.390	800.000	0.035	-0.154
-620.376	33.170	0.288	-0.250
-619.361	-98.536	-0.274	-0.070
-618.346	-72.207	0.412	-0.153
-617.332	-135.066	0.282	-0.034
-616.317	-55.912	-0.171	0.077
-615.303	593.703	-0.151	0.375
-614.288	132.710	0.050	-0.065
-613.273	163.223	-0.174	0.245
-612.259	112.646	-0.277	0.336
-611.244	9.239	0.258	0.195
-610.230	28.911	0.122	-0.104
-609.215	-118.611	0.183	-0.032
-608.201	-200.000	-0.015	0.207
-607.186	144.622	0.060	0.080
-606.171	372.087	-0.061	0.123
-605.157	77.574	0.096	-0.102
-604.142	393.441	0.158	-0.328
-603.128	800.000	-0.064	-0.219
-602.113	-115.575	0.253	0.048
-601.098	800.000	-0.083	-0.361
-600.084	730.367	0.098	-0.262
-599.069	69.415	-0.216	0.222
-598.055	51.586	0.058	0.055
-597.040	78.802	0.112	-0.120
-596.025	40.445	0.183	-0.165
-595.011	439.118	0.052	0.114
-593.996	-88.475	0.167	-0.050
-592.982	800.000	-0.084	0.348
-591.967	-179.480	-0.194	-0.004
-590.952	-200.000	0.047	-0.310
-589.938	-5.150	-0.379	-0.261
-588.923	587.737	0.121	-0.297
-587.909	-75.660	-0.260	0.093
-586.894	427.386	-0.032	0.070
-585.879	800.000	-0.035	0.150
-584.865	-200.000	-0.050	-0.365
-583.850	-54.968	0.378	-0.171
-582.836	65.520	-0.294	-0.298
-581.821	800.000	-0.041	0.162
-580.806	-200.000	-0.425	-0.001
-579.792	-1.172	0.199	-0.141
-578.777	42.056	-0.087	0.079
-577.763	-106.459	0.254	-0.057
-576.748	-62.913	-0.233	0.096
-575.733	-103.143	-0.217	-0.051
-574.719	53.908	0.055	0.053
-573.704	260.150	-0.130	0.225
-572.690	-86.912	-0.226	0.069
-571.675	800.000	0.033	0.108
-570.661	22.997	-0.023	-0.019
-569.646	73.106	0.105	0.110
-568.631	204.831	0.055	-0.085
-567.617	-175.781	-0.328	0.009
-566.602	-0.768	0.147	-0.104
-565.588	77.651	-0.118	0.126
-564.573	496.045	0.029	-0.066
-563.558	800.000	-0.015	0.045
-562.544	-35.369	-0.286	-0.155
-561.529	-200.000	0.003	0.056
-560.515	562.403	-0.056	0.135
-559.500	-18.207	0.252	0.158
-558.485	-200.000	0.035	0.170
-557.471	800.000	-0.040	0.132
-556.456	512.317	-0.086	0.200
-555.442	-200.000	-0.005	0.158
-554.427	121.628	-0.058	0.072
-553.412	-26.649	0.374	0.219
-552.398	177.221	0.186	-0.270
-551.383	69.729	-0.104	-0.107
-550.369	-89.996	-0.281	-0.082
-549.354	-158.662	-0.079	-0.005
-548.339	-200.000	0.022	-0.147
-547.325	-156.005	0.085	0.005
-546.310	-200.000	-0.008	-0.239
-545.296	-200.000	0.019	0.168
-544.281	-200.000	0.000	-0.307
-543.266	-107.783	-0.020	-0.004
-542.252	800.000	0.078	-0.221
-541.237	63.842	-0.347	-0.348
-540.223	800.000	0.047	0.168
-539.208	70.780	-0.056	-0.058
-538.193	-44.771	0.270	-0.134
-537.179	800.000	-0.044	0.149
-536.164	43.182	-0.114	0.104
-535.150	800.000	-0.040	0.144
-534.135	160.712	-0.192	0.268
-533.121	60.288	-0.160	-0.158
-532.106	36.049	0.097	0.086
-531.091	-82.705	-0.184	0.059
-530.077	5.925	-0.102	-0.076
-529.062	-113.788	0.336	0.065
-528.048	-7.477	-0.178	0.121
-527.033	800.000	0.059	0.240
-526.018	-163.463	-0.097	0.005
-525.004	-141.299	-0.311	-0.032
-523.989	-200.000	-0.010	-0.180
-522.975	95.985	-0.305	-0.347
-521.960	-200.000	0.013	-0.067
-520.945	160.463	0.191	-0.266
-519.931	800.000	-0.126	-0.456
-518.916	187.525	-0.172	-0.257
-517.902	-200.000	-0.041	-0.255
-516.887	800.000	-0.118	0.488
-515.872	25.237	0.047	-0.039
-514.858	-137.537	0.203	0.023
-513.843	193.233	0.026	-0.039
-512.829	163.912	0.069	0.097
-511.814	114.722	-0.207	0.252
-510.799	-200.000	0.010	0.075
-509.785	296.874	0.043	0.078
-508.770	97.865	0.203	-0.233
-507.756	-51.794	0.231	-0.107
-506.741	-70.989	0.162	-0.061
-505.726	8.764	-0.141	0.106
-504.712	650.686	-0.042	0.107
-503.697	-200.000	0.011	0.062
-502.683	-114.768	0.164	-0.031
-501.668	155.007	-0.101	-0.138
-500.653	147.639	0.138	0.186
-499.639	800.000	-0.085	-0.289
-498.624	-17.219	-0.136	0.086
-497.610	-98.479	0.187	0.048
-496.595	-104.300	-0.084	0.019
-495.581	-84.156	-0.267	0.084
-494.566	167.415	0.177	-0.251
-493.551	46.075	-0.285	0.263
-492.537	450.969	0.024	-0.052
-491.522	383.587	0.095	-0.196
-490.508	608.393	0.070	0.174
-489.493	800.000	0.032	0.093
-488.478	19.976	-0.060	0.048
-487.464	800.000	0.071	0.289
-486.449	101.615	0.121	-0.141
-485.435	47.105	0.289	0.268
-484.420	-200.000	0.011	-0.520
-483.405	-182.586	-0.302	-0.005
-482.391	91.732	-0.091	-0.102
-481.376	24.063	0.248	-0.204
-480.362	27.900	-0.023	-0.020
-479.347	186.385	0.192	0.285
-478.332	-106.321	0.336	-0.075
-477.318	-62.810	-0.202	0.083
-476.303	800.000	0.082	0.225
-475.289	-200.000	-0.027	0.290
-474.274	-117.697	0.077	0.014
-473.259	92.368	0.142	-0.159
-472.245	389.541	-0.046	-0.096
-471.230	108.187	0.172	0.204
-470.216	90.637	0.282	0.315
-469.201	-200.000	-0.020	-0.208
-468.186	-68.761	-0.135	-0.052
-467.172	-102.031	0.140	-0.034
-466.157	800.000	0.120	0.430
-465.143	-62.536	0.390	-0.161
-464.128	347.710	0.095	0.186
-463.113	149.203	-0.116	-0.156
-462.099	60.963	0.111	0.110
-461.084	75.738	-0.132	-0.139
-460.070	78.866	-0.097	-0.104
-459.055	60.710	-0.075	-0.074
-458.040	438.153	-0.076	-0.166
-457.026	163.054	0.072	0.101
-456.011	-97.066	-0.122	0.032
-454.997	96.873	-0.129	0.147
-453.982	275.914	-0.170	0.300
-452.968	-108.666	0.218	0.047
-451.953	-156.553	-0.370	0.023
-450.938	73.077	-0.071	0.074
-449.924	-200.000	-0.030	-0.228
-448.909	-51.930	-0.201	0.093
-447.895	138.867	0.170	0.222
-446.880	158.714	-0.137	-0.189
-445.865	327.912	-0.194	-0.370
-444.851	-200.000	-0.007	-0.312
-443.836	800.000	-0.112	0.334
-442.822	-55.256	-0.262	-0.117
-441.807	-200.000	0.033	-0.275
-440.792	175.328	-0.147	-0.211
-439.778	-200.000	-0.020	0.113
-438.763	723.110	-0.043	0.114
-437.749	215.562	-0.099	-0.157
-436.734	-200.000	0.031	-0.162
-435.719	39.147	0.237	0.211
-434.705	800.000	-0.070	0.298
-433.690	412.159	-0.170	-0.359
-432.676	172.761	0.231	-0.331
-431.661	-200.000	0.005	0.072
-430.646	-79.041	0.164	-0.055
-429.632	-68.419	-0.387	-0.149
-428.617	-200.000	-0.020	0.204
-427.603	-67.376	-0.209	0.082
-426.588	383.898	0.158	-0.323
-425.573	-95.013	0.073	0.020
-424.559	-200.000	0.041	0.183
-423.544	-26.530	-0.200	-0.117
-422.530	11.236	-0.480	-0.365
-421.515	51.901	-0.204	0.193
-420.500	450.099	0.121	-0.265
-419.486	800.000	0.070	-0.249
-418.471	168.354	0.182	-0.258
-417.457	162.670	0.041	-0.057
-416.442	-101.446	0.521	0.126
-415.428	51.583	0.136	-0.128
-414.413	113.436	-0.245	0.296
-413.398	3.834	-0.049	-0.035
-412.384	800.000	0.071	-0.308
-411.369	110.219	-0.146	0.174
-410.355	74.033	0.127	-0.133
-409.340	-105.106	-0.060	0.014
-408.325	-200.000	0.039	-0.295
-407.311	774.175	-0.198	-0.537
-406.296	-95.285	0.117	-0.031
-405.282	-200.000	0.007	-0.138
-404.267	176.310	-0.128	-0.185
-403.252	800.000	-0.048	0.200
-402.238	-51.180	-0.143	-0.067
-401.223	304.076	0.125	0.230
-400.209	252.724	-0.207	-0.350
-399.194	382.109	0.102	-0.209
-398.179	34.934	0.065	0.057
-397.165	-169.764	0.202	-0.007
-396.150	-76.720	0.269	-0.094
-395.136	-75.452	0.179	0.063
-394.121	70.864	0.045	0.046
-393.106	-11.247	-0.127	0.083
-392.092	-200.000	0.017	-0.096
-391.077	617.082	0.042	-0.105
-390.063	-200.000	-0.058	-0.301
-389.048	75.816	-0.078	-0.081
-388.033	-200.000	-0.021	0.115
-387.019	139.289	0.075	0.098
-386.004	-181.171	0.136	-0.003
-384.990	-13.523	0.186	0.119
-383.975	604.171	0.038	0.093
-382.960	12.459	-0.117	0.090
-381.946	-200.000	0.023	0.163
-380.931	800.000	-0.031	-0.111
-379.917	-153.522	-0.199	0.014
-378.902	-44.403	-0.081	-0.040
-377.888	8.108	0.276	0.205
-376.873	-200.000	-0.011	-0.053
-375.858	606.824	0.117	0.291
-374.844	-54.084	0.221	-0.100
-373.829	-76.933	0.154	-0.053
-372.815	26.115	0.249	-0.206
-371.800	-37.139	-0.104	-0.055
-370.785	668.323	0.094	0.242
-369.771	31.812	0.060	0.052
-368.756	-61.356	0.261	-0.109
-367.742	-200.000	-0.037	0.311
-366.727	319.033	-0.107	0.201
-365.712	760.006	0.089	0.240
-364.698	89.345	0.178	0.197
-363.683	-88.189	-0.195	0.058
-362.669	297.610	0.047	0.085
-361.654	32.017	0.323	0.276
-360.639	219.431	-0.164	0.260
-359.625	82.861	-0.223	-0.240
-358.610	-200.000	-0.024	-0.112
-357.596	-115.803	-0.285	0.053
-356.581	-120.136	-0.061	-0.010
-355.566	-62.081	0.217	0.090
-354.552	16.650	0.302	-0.237
-353.537	800.000	-0.110	-0.353
-352.523	-57.549	0.102	0.044
-351.508	-5.513	-0.281	0.191
-350.493	229.488	0.291	-0.470
-349.479	-9.504	0.355	-0.235
-348.464	423.910	0.140	0.298
-347.450	21.164	-0.206	-0.166
-346.435	-62.204	-0.253	-0.104
-345.420	-56.209	-0.201	0.089
-344.406	-161.739	-0.074	0.004
-343.391	-129.350	-0.385	-0.053
-342.377	109.762	0.043	-0.051
-341.362	138.381	-0.075	0.097
-340.348	503.936	0.019	-0.043
-339.333	81.641	-0.097	0.104
-338.318	105.740	0.169	0.198
-337.304	-138.991	0.341	-0.037
-336.289	-200.000	0.008	0.587
-335.275	-18.110	0.157	0.097
-334.260	-200.000	0.008	-0.184
-333.245	800.000	0.118	-0.385
-332.231	-200.000	-0.013	-0.162
-331.216	186.732	-0.037	0.054
-330.202	64.550	-0.161	0.161
-329.187	800.000	0.102	-0.385
-328.172	-16.608	-0.213	-0.134
-327.158	51.546	0.262	-0.247
-326.143	174.071	0.205	-0.294
-325.129	-7.625	-0.211	-0.142
-324.114	-67.312	-0.153	-0.059
-323.099	245.275	-0.049	0.082
-322.085	-112.572	0.432	-0.085
-321.070	15.136	-0.167	0.129
-320.056	175.760	0.076	-0.110
-319.041	275.803	0.103	-0.181
-318.026	-59.084	-0.112	0.048
-317.012	-200.000	-0.057	0.260
-315.997	38.486	0.078	-0.069
-314.983	-59.120	-0.036	-0.015
-313.968	-112.101	-0.216	0.043
-312.953	-3.226	0.422	-0.291
-311.939	-200.000	-0.038	-0.343
-310.924	-200.000	-0.011	0.274
-309.910	230.773	0.101	0.164
-308.895	-1.083	0.133	-0.093
-307.880	-71.666	-0.087	-0.032
-306.866	-87.876	0.281	-0.084
-305.851	158.184	0.075	0.102
-304.837	-1.546	-0.086	-0.060
-303.822	-150.671	-0.099	0.007
-302.807	-96.849	-0.153	-0.040
-301.793	-0.848	-0.304	0.213
-300.778	304.744	-0.088	0.161
-299.764	-49.054	-0.181	-0.086
-298.749	601.548	0.085	0.210
-297.735	-200.000	0.020	-0.224
-296.720	-40.598	-0.160	-0.082
-295.705	-153.038	-0.133	0.009
-294.691	-157.063	-0.214	-0.013
-293.676	-97.542	-0.243	-0.062
-292.662	800.000	-0.120	-0.456
-291.647	-109.282	0.262	-0.055
-290.632	-45.593	-0.097	-0.048
-289.618	-200.000	0.028	0.178
-288.603	-108.038	0.048	-0.010
-287.589	-94.229	0.237	-0.064
-286.574	800.000	0.011	0.032
-285.559	800.000	-0.086	0.262
-284.545	-200.000	0.026	-0.384
-283.530	-200.000	0.023	-0.117
-282.516	-56.032	0.243	0.107
-281.501	-118.859	-0.193	-0.034
-280.486	-109.023	-0.206	0.043
-279.472	-180.037	-0.030	0.001
-278.457	-14.826	-0.094	0.060
-277.443	-124.855	-0.352	0.054
-276.428	394.494	-0.034	0.070
-275.413	665.111	0.016	0.042
-274.399	-200.000	0.003	0.061
-273.384	222.062	-0.089	0.142
-272.370	-1.968	0.276	0.192
-271.355	-73.593	-0.280	-0.101
-270.340	319.988	-0.241	0.452
-269.326	601.991	-0.016	0.039
-268.311	-200.000	0.002	-0.010
-267.297	800.000	-0.057	0.159
-266.282	800.000	-0.027	0.079
-265.267	-10.060	-0.072	0.048
-264.253	315.268	0.038	0.070
-263.238	144.208	0.060	0.079
-262.224	-23.257	-0.413	0.246
-261.209	-75.639	-0.261	0.092
-260.195	365.389	0.086	0.171
-259.180	302.531	0.077	-0.140
-258.165	-3.883	0.327	-0.224
-257.151	328.051	0.084	-0.159
-256.136	743.658	0.099	-0.262
-255.122	-40.420	0.108	-0.055
-254.107	319.331	0.087	0.164
-253.092	310.560	0.157	0.290
-252.078	800.000	0.116	0.394
-251.063	-189.908	-0.217	0.002
-250.049	-200.000	-0.039	0.313
-249.034	800.000	0.037	-0.133
-248.019	-87.481	0.161	0.048
-247.005	340.374	-0.024	-0.047
-245.990	800.000	0.059	-0.210
-244.976	153.092	-0.266	0.359
-243.961	-138.995	0.168	-0.018
-242.946	-200.000	0.034	0.177
-241.932	-59.183	-0.097	0.041
-240.917	-200.000	0.048	-0.241
-239.903	-200.000	0.026	0.202
-238.888	14.978	-0.141	0.109
-237.873	0.414	-0.100	0.070
-236.859	599.578	0.088	0.217
-235.844	-10.749	0.341	-0.222
-234.830	176.748	0.177	-0.254
-233.815	61.122	0.032	-0.031
-232.800	-200.000	-0.010	-0.062
-231.786	800.000	-0.062	0.238
-230.771	36.575	0.229	-0.199
-229.757	-156.186	0.122	-0.008
-228.742	-77.310	-0.052	-0.018
-227.727	6.990	-0.171	0.126
-226.713	22.854	0.222	-0.180
-225.698	-200.000	-0.028	0.245
-224.684	250.927	-0.214	-0.359
-223.669	-112.435	-0.215	-0.042
-222.655	12.865	0.247	0.189
-221.640	336.267	0.224	0.429
-220.625	800.000	0.094	-0.383
-219.611	-200.000	0.027	-0.456
-218.596	-139.903	0.313	-0.033
-217.582	-200.000	-0.029	-0.204
-216.567	-66.810	-0.524	0.204
-215.552	-200.000	-0.053	-0.342
-214.538	-102.284	-0.100	0.024
-213.523	-154.584	-0.264	-0.017
-212.509	-52.887	0.116	0.053
-211.494	97.278	0.080	-0.090
-210.479	272.069	-0.038	0.066
-209.465	-75.159	0.193	0.068
-208.450	484.000	0.096	0.216
-207.436	87.584	0.063	-0.068
-206.421	-200.000	0.014	0.160
-205.406	-94.461	0.249	-0.067
-204.392	-200.000	0.006	-0.150
-203.377	175.030	-0.072	0.102
-202.363	-88.462	-0.251	0.074
-201.348	-200.000	0.026	0.497
-200.333	-66.127	-0.149	0.058
-199.319	764.792	0.088	0.237
-198.304	92.712	-0.152	-0.169
-197.290	371.849	-0.136	0.272
-196.275	-66.417	-0.191	-0.075
-195.260	294.342	-0.027	0.049
-194.246	800.000	-0.026	0.077
-193.231	298.977	-0.179	-0.324
-192.217	-33.515	-0.234	0.127
-191.202	-200.000	-0.039	0.179
-190.187	-96.210	-0.072	-0.019
-189.173	24.408	-0.298	0.243
-188.158	51.792	-0.125	0.117
-187.144	-200.000	-0.002	-0.105
-186.129	388.095	0.054	0.110
-185.114	270.777	0.113	0.196
-184.100	105.347	0.265	0.309
-183.085	142.857	-0.184	-0.241
-182.071	-200.000	0.045	0.237
-181.056	-195.051	-0.100	-0.001
-180.042	-137.242	0.098	0.011
-179.027	208.276	-0.162	-0.250
-178.012	468.711	-0.045	0.099
-176.998	180.645	-0.098	0.142
-175.983	-200.000	0.001	-0.128
-174.969	-19.338	-0.120	-0.073
-173.954	-100.766	0.358	0.087
-172.939	235.495	0.196	-0.318
-171.925	-200.000	0.007	0.040
-170.910	-4.497	0.244	0.166
-169.896	70.146	-0.023	0.023
-168.881	74.511	0.168	0.174
-167.866	180.655	0.012	-0.018
-166.852	-161.352	-0.297	-0.015
-165.837	-200.000	0.015	-0.101
-164.823	50.554	0.242	0.225
-163.808	47.478	0.289	-0.265
-162.793	3.374	-0.145	-0.104
-161.779	175.821	0.231	-0.330
-160.764	236.781	-0.226	0.368
-159.750	-200.000	0.038	-0.294
-158.735	-147.206	0.480	0.040
-157.720	396.168	-0.068	0.139
-156.706	-111.111	0.210	-0.042
-155.691	430.288	-0.061	0.129
-154.677	-64.638	-0.194	-0.077
-153.662	-200.000	-0.032	0.283
-152.647	-31.523	0.301	-0.167
-151.633	103.193	0.087	-0.100
-150.618	300.292	-0.040	-0.073
-149.604	-200.000	0.018	0.120
-148.589	24.155	-0.096	0.078
-147.574	800.000	-0.046	0.153
-146.560	-200.000	-0.010	-0.068
-145.545	-149.308	-0.251	-0.020
-144.531	-172.896	-0.107	-0.003
-143.516	516.528	0.056	-0.129
-142.502	-111.120	-0.430	0.087
-141.487	-22.205	-0.133	0.079
-140.472	-135.782	-0.229	-0.027
-139.458	115.034	-0.097	0.116
-138.443	227.635	0.031	-0.049
-137.429	167.497	0.233	0.325
-136.414	109.246	-0.223	0.262
-135.399	-200.000	0.028	-0.251
-134.385	-113.123	0.268	-0.052
-133.370	-200.000	-0.060	0.261
-132.356	79.445	-0.085	0.090
-131.341	-120.047	0.081	-0.014
-130.326	449.866	-0.101	0.219
-129.312	539.075	-0.059	0.137
-128.297	-17.915	0.160	0.099
-127.283	-200.000	0.027	0.310
-126.268	-200.000	0.057	0.452
-125.253	-47.359	-0.130	0.062
-124.239	65.090	-0.202	-0.201
-123.224	164.651	-0.158	0.219
-122.210	800.000	-0.061	0.209
-121.195	-35.455	-0.160	-0.085
-120.180	-38.555	-0.252	-0.131
-119.166	477.820	-0.058	0.130
-118.151	345.907	-0.102	0.197
-117.137	-161.671	-0.184	0.009
-116.122	78.768	0.162	0.171
-115.107	251.132	0.167	-0.278
-114.093	-99.081	0.129	-0.032
-113.078	-146.259	0.364	0.031
-112.064	-200.000	-0.009	-0.220
-111.049	800.000	0.021	0.063
-110.034	360.982	0.146	-0.287
-109.020	115.715	-0.194	-0.233
-108.005	-10.181	0.215	-0.140
-106.991	-159.883	0.335	-0.018
-105.976	800.000	-0.050	0.162
-104.962	800.000	0.028	-0.111
-103.947	-143.909	0.186	0.017
-102.932	-106.148	0.402	0.089
-101.918	97.732	0.174	0.196
-100.903	-143.693	0.130	0.012
-99.889	-79.854	-0.228	-0.075
-98.874	214.530	-0.129	0.200
-97.859	800.000	0.023	-0.095
-96.845	-200.000	-0.011	-0.132
-95.830	378.321	-0.214	0.430
-94.816	-81.186	-0.032	0.010
-93.801	800.000	-0.091	-0.300
-92.786	800.000	0.094	0.372
-91.772	-157.232	0.160	0.009
-90.757	-36.883	-0.187	-0.098
-89.743	-89.954	0.207	-0.059
-88.728	-150.150	-0.137	0.010
-87.713	371.946	0.073	0.145
-86.699	331.634	0.112	0.212
-85.684	305.883	0.106	-0.194
-84.670	-84.612	-0.129	-0.040
-83.655	-84.118	-0.175	-0.054
-82.640	-200.000	0.039	0.251
-81.626	-81.109	0.475	-0.154
-80.611	49.733	0.131	-0.121
-79.597	-56.728	-0.100	0.043
-78.582	-56.780	-0.331	-0.144
-77.567	-200.000	0.062	-0.436
-76.553	357.562	0.137	-0.268
-75.538	-105.507	0.135	0.030
-74.524	361.596	-0.168	-0.330
-73.509	95.213	0.124	0.138
-72.494	211.220	0.073	0.113
-71.480	237.896	0.090	0.147
-70.465	309.282	-0.161	0.295
-69.451	335.382	0.102	0.193
-68.436	-85.484	-0.339	0.103
-67.422	36.530	0.197	-0.170
-66.407	25.803	0.029	0.024
-65.392	-200.000	-0.013	0.300
-64.378	-103.923	0.262	0.060
-63.363	252.967	0.135	-0.226
-62.349	-152.949	0.200	0.014
-61.334	29.083	-0.815	-0.678
-60.319	548.078	0.329	0.772
-59.305	800.000	-0.294	-1.119
-58.290	237.199	0.547	0.888
-57.276	234.843	0.789	1.275
-56.261	-200.000	108.667	594.156
-55.246	449.817	1482.931	3205.707
-54.232	146.835	2670.479	3518.306
-53.217	99.823	2283.513	2592.105
-52.203	38.726	1895.184	1657.643
-51.188	32.873	1685.066	1429.627
-50.173	30.188	1642.261	1373.399
-49.159	49.108	1696.041	1561.293
-48.144	49.560	1711.554	1578.916
-47.130	32.415	1668.783	1412.152
-46.115	29.753	1654.280	1379.985
-45.100	29.573	1649.298	1374.434
-44.086	29.564	1646.590	1372.057
-43.071	29.519	1644.257	1369.724
-42.057	29.449	1641.789	1367.099
-41.042	29.552	1639.400	1365.814
-40.027	29.493	1637.722	1363.927
-39.013	29.516	1635.759	1362.411
-37.998	29.395	1634.803	1360.666
-36.984	29.532	1633.161	1360.256
-35.969	29.622	1631.887	1359.800
-34.954	29.729	1629.972	1358.938
-33.940	29.538	1628.564	1356.310
-32.925	29.661	1626.451	1355.395
-31.911	29.674	1625.111	1354.324
-30.896	29.642	1623.137	1352.387
-29.881	29.652	1621.647	1351.164
-28.867	29.608	1619.797	1349.252
-27.852	29.627	1618.185	1347.993
-26.838	29.603	1617.073	1346.836
-25.823	29.597	1615.730	1345.619
-24.809	29.636	1614.497	1344.826
-23.794	29.639	1613.257	1343.762
-22.779	29.685	1611.227	1342.352
-21.765	29.575	1609.791	1340.302
-20.750	29.682	1607.718	1339.298
-19.736	29.670	1606.742	1338.349
-18.721	29.705	1605.301	1337.349
-17.706	29.657	1603.966	1335.835
-16.692	29.609	1602.825	1334.482
-15.677	29.678	1601.315	1333.675
-14.663	29.688	1599.877	1332.493
-13.648	29.670	1598.274	1330.973
-12.633	29.629	1596.225	1328.920
-11.619	29.609	1595.187	1327.859
-10.604	29.551	1594.174	1326.549
-9.590	29.617	1593.051	1326.036
-8.575	29.788	1590.971	1325.475
-7.560	29.706	1589.978	1324.011
-6.546	29.650	1588.996	1322.737
-5.531	29.662	1588.146	1322.062
-4.517	29.614	1586.919	1320.644
-3.502	29.636	1585.797	1319.816
-2.487	29.708	1583.795	1318.613
-1.473	29.309	1571.981	1305.898
-0.458	26.543	1552.983	1270.682
0.556	21.284	1554.193	1239.830
1.571	19.168	1577.408	1242.981
2.586	18.809	1590.367	1250.466
3.600	17.098	1537.557	1196.787
4.615	9.605	1427.517	1061.822
5.629	1.809	1363.455	964.858
6.644	0.280	1354.800	949.020
7.659	0.094	1353.995	947.202
8.673	0.014	1353.326	946.152
9.688	-0.047	1350.944	944.015
10.702	-0.109	1348.184	941.613
11.717	3.540	1353.990	968.523
12.731	12.096	1367.332	1032.029
13.746	17.398	1373.711	1070.192
14.761	17.319	1372.497	1068.656
15.775	16.233	1370.229	1059.978
16.790	15.188	1367.861	1051.498
17.804	14.414	1365.225	1044.528
18.819	14.072	1363.665	1041.102
19.834	13.765	1362.815	1038.441
20.848	13.497	1361.404	1035.598
21.863	13.283	1360.342	1033.364
22.877	13.181	1358.619	1031.321
23.892	13.139	1357.748	1030.309
24.907	13.154	1356.859	1029.640
25.921	13.095	1356.588	1028.972
26.936	13.200	1355.353	1028.601
27.950	13.243	1354.433	1028.074
28.965	13.308	1353.259	1027.498
29.980	13.308	1352.506	1026.833
30.994	13.447	1351.430	1026.792
32.009	13.374	1350.984	1025.906
33.023	13.341	1349.731	1024.661
34.038	13.285	1348.811	1023.525
35.053	13.366	1347.178	1022.697
36.067	13.325	1346.313	1021.696
37.082	13.207	1346.009	1020.644
38.096	13.441	1344.472	1020.835
39.111	13.352	1343.858	1019.730
40.126	13.264	1343.030	1018.470
41.140	13.286	1342.252	1017.921
42.155	13.158	1341.723	1016.648
43.169	13.040	1341.715	1015.825
44.184	13.086	1341.616	1015.943
45.199	13.126	1340.997	1015.627
46.213	13.227	1340.402	1015.710
47.228	13.230	1339.528	1014.973
48.242	13.297	1337.816	1013.998
49.257	13.190	1336.796	1012.477
50.271	13.197	1335.240	1011.257
51.286	13.250	1334.246	1010.734
52.301	13.281	1332.597	1009.590
53.315	13.254	1331.599	1008.580
54.330	13.177	1330.611	1007.272
55.344	13.167	1329.715	1006.444
56.359	13.215	1328.275	1005.556
57.374	13.215	1327.490	1004.872
58.388	13.057	1327.033	1003.475
59.403	13.008	1326.557	1002.730
60.417	13.145	1325.551	1002.710
61.432	13.049	1324.541	1001.279
62.447	13.086	1323.589	1000.691
63.461	13.004	1322.276	999.116
64.476	13.083	1321.334	998.791
65.490	13.049	1320.363	997.763
66.505	12.987	1319.047	996.309
67.520	13.096	1317.560	995.756
68.534	13.190	1316.501	995.433
69.549	13.152	1315.702	994.509
70.563	13.149	1314.366	993.394
71.578	12.990	1313.169	991.446
72.593	13.003	1312.327	990.802
73.607	13.027	1311.500	990.235
74.622	13.105	1310.876	990.142
75.636	13.002	1309.917	988.714
76.651	12.969	1309.645	988.223
77.666	12.943	1309.224	987.661
78.680	12.915	1308.749	987.052
79.695	13.072	1307.344	986.842
80.709	13.017	1306.259	985.606
81.724	13.068	1306.042	985.660
82.739	13.091	1304.887	984.835
83.753	13.238	1304.039	984.987
84.768	13.216	1303.001	983.984
85.782	13.363	1301.509	983.644
86.797	13.250	1300.468	982.101
87.812	13.267	1299.173	981.137
88.826	13.141	1298.327	979.666
89.841	13.170	1297.554	979.163
90.855	13.247	1296.520	978.756
91.870	13.299	1295.702	978.355
92.884	13.271	1294.717	977.365
93.899	13.366	1294.070	977.348
94.914	13.415	1292.887	976.656
95.928	13.390	1292.051	975.794
96.943	13.390	1291.191	975.056
97.957	13.392	1290.042	974.114
98.972	13.302	1289.339	972.968
99.987	13.379	1288.250	972.510
101.001	13.344	1287.045	971.309
102.016	13.335	1286.519	970.778
103.030	13.336	1285.612	970.010
104.045	13.400	1284.161	969.203
105.060	13.217	1283.229	967.343
106.074	13.170	1281.947	966.021
107.089	13.218	1279.954	964.712
108.103	13.153	1278.710	963.307
109.118	13.072	1278.315	962.457
110.133	13.156	1276.920	961.808
111.147	13.227	1275.172	960.820
112.162	13.160	1274.196	959.608
113.176	13.151	1273.436	958.901
114.191	13.253	1271.977	958.307
115.206	13.162	1271.118	957.049
116.220	13.108	1270.077	955.866
117.235	13.160	1268.828	955.145
118.249	13.167	1267.533	954.125
119.264	13.176	1266.639	953.421
120.279	13.125	1265.320	952.046
121.293	13.116	1264.729	951.470
122.308	13.021	1263.696	950.060
123.322	13.065	1262.430	949.279
124.337	13.099	1261.992	949.057
125.352	13.158	1260.233	947.988
126.366	13.143	1259.225	947.062
127.381	13.118	1258.383	946.204
128.395	13.114	1257.192	945.200
129.410	13.190	1256.151	944.769
130.424	13.257	1254.790	944.042
131.439	13.230	1254.296	943.434
132.454	13.182	1253.368	942.381
133.468	13.224	1252.237	941.683
134.483	13.192	1251.942	941.199
135.497	13.296	1250.564	940.670
136.512	13.248	1249.649	939.628
137.527	13.254	1248.260	938.533
138.541	13.239	1246.433	936.990
139.556	13.268	1245.387	936.283
140.570	13.371	1244.266	935.944
141.585	13.384	1243.083	935.041
142.600	13.414	1241.645	934.051
143.614	13.419	1241.064	933.557
144.629	13.392	1240.197	932.671
145.643	13.412	1238.956	931.767
146.658	13.402	1237.725	930.701
147.673	13.353	1236.277	929.257
148.687	13.340	1235.070	928.193
149.702	13.305	1234.277	927.320
150.716	13.291	1232.635	925.924
151.731	13.392	1231.143	925.290
152.746	13.421	1230.211	924.667
153.760	13.397	1228.702	923.314
154.775	13.403	1227.679	922.498
155.789	13.331	1226.983	921.495
156.804	13.468	1225.983	921.424
157.819	13.482	1225.123	920.772
158.833	13.553	1224.157	920.361
159.848	13.635	1223.111	919.950
160.862	13.505	1222.401	918.614
161.877	13.496	1221.164	917.552
162.892	13.374	1220.223	916.086
163.906	13.375	1219.310	915.327
164.921	13.407	1218.548	914.849
165.935	13.479	1217.802	914.607
166.950	13.511	1217.126	914.197
167.964	13.631	1216.138	914.037
168.979	13.430	1215.787	912.584
169.994	13.552	1214.781	912.418
171.008	13.607	1213.615	911.765
172.023	13.635	1212.888	911.292
173.037	13.672	1212.074	910.801
174.052	13.600	1210.984	909.508
175.067	13.549	1210.354	908.674
176.081	13.573	1209.419	908.025
177.096	13.525	1208.354	906.879
178.110	13.510	1207.301	905.927
179.125	13.628	1206.223	905.682
180.140	13.592	1205.150	904.600
181.154	13.674	1203.727	903.899
182.169	13.742	1202.287	903.107
183.183	13.797	1200.784	902.201
184.198	13.770	1199.779	901.215
185.213	13.721	1199.196	900.436
186.227	13.850	1197.536	899.806
187.242	13.800	1196.833	898.928
188.256	13.864	1195.889	898.487
189.271	13.832	1194.801	897.417
190.286	13.826	1193.969	896.681
191.300	13.562	1192.974	894.426
192.315	13.550	1192.433	893.876
193.329	13.640	1191.911	893.895
194.344	13.735	1191.196	893.791
195.359	13.722	1190.336	892.994
196.373	13.834	1189.938	893.220
197.388	13.868	1189.614	893.079
198.402	13.965	1189.002	893.064
199.417	13.849	1188.703	892.137
200.432	13.889	1187.856	891.637
201.446	14.002	1186.773	891.351
202.461	14.091	1185.156	890.533
203.475	14.116	1184.826	890.343
204.490	14.036	1183.498	888.836
205.504	13.937	1182.226	887.277
206.519	14.122	1180.962	887.236
207.534	14.042	1179.665	885.758
208.548	13.946	1179.148	884.776
209.563	13.991	1178.448	884.415
210.577	14.029	1177.624	883.918
211.592	14.053	1176.946	883.461
212.607	14.113	1175.560	882.659
213.621	14.215	1174.555	882.367
214.636	14.136	1173.948	881.414
215.650	14.144	1173.213	880.825
216.665	14.071	1172.124	879.547
217.680	14.212	1171.148	879.480
218.694	14.302	1170.368	879.294
219.709	14.287	1169.354	878.375
220.723	14.216	1168.884	877.569
221.738	14.248	1168.131	877.094
222.753	14.311	1167.080	876.562
223.767	14.276	1166.547	875.896
224.782	14.306	1165.811	875.423
225.796	14.391	1165.513	875.572
226.811	14.408	1164.679	874.955
227.826	14.324	1164.202	874.077
228.840	14.363	1163.415	873.613
229.855	14.222	1162.946	872.449
230.869	14.297	1162.098	872.127
231.884	14.254	1161.123	871.093
232.899	14.304	1160.119	870.521
233.913	14.252	1159.188	869.478
234.928	14.222	1159.259	869.297
235.942	14.304	1158.091	868.772
236.957	14.437	1156.923	868.513
237.972	14.252	1156.557	867.197
238.986	14.267	1156.224	866.948
240.001	14.368	1155.229	866.648
241.015	14.303	1154.251	865.500
242.030	14.388	1153.885	865.594
243.045	14.614	1152.552	865.688
244.059	14.496	1151.991	864.580
245.074	14.492	1151.507	864.116
246.088	14.505	1150.567	863.401
247.103	14.444	1149.626	862.306
248.117	14.581	1149.207	862.621
249.132	14.644	1148.138	862.072
250.147	14.631	1147.827	861.693
251.161	14.766	1146.879	861.603
252.176	14.801	1146.252	861.232
253.190	14.916	1145.501	861.186
254.205	14.870	1144.907	860.428
255.220	14.831	1144.396	859.767
256.234	14.844	1143.740	859.266
257.249	14.880	1143.157	858.933
258.263	14.943	1142.463	858.662
259.278	14.968	1141.693	858.133
260.293	14.911	1141.087	857.309
261.307	14.959	1140.873	857.321
262.322	14.939	1140.278	856.693
263.336	15.023	1139.162	856.208
264.351	15.081	1138.730	856.106
265.366	15.018	1138.206	855.312
266.380	15.021	1137.293	854.568
267.395	15.099	1136.306	854.148
268.409	14.962	1135.932	853.094
269.424	15.018	1135.438	852.933
270.439	14.959	1134.808	852.081
271.453	15.042	1134.055	851.866
272.468	14.898	1133.192	850.411
273.482	15.003	1132.337	850.223
274.497	15.104	1131.833	850.286
275.512	15.087	1131.264	849.697
276.526	15.060	1130.375	848.813
277.541	15.024	1130.047	848.311
278.555	15.001	1128.930	847.284
279.570	15.160	1128.409	847.623
280.585	15.123	1127.782	846.888
281.599	15.278	1126.424	846.578
282.614	15.256	1125.122	845.409
283.628	15.134	1124.444	844.212
284.643	15.285	1123.389	844.108
285.657	15.206	1122.922	843.281
286.672	15.225	1121.800	842.460
287.687	15.231	1120.676	841.572
288.701	15.184	1120.058	840.800
289.716	15.276	1119.314	840.627
290.730	15.309	1119.071	840.533
291.745	15.311	1118.544	840.076
292.760	15.390	1117.665	839.736
293.774	15.472	1116.974	839.552
294.789	15.454	1116.493	839.026
295.803	15.429	1115.763	838.281
296.818	15.306	1115.535	837.417
297.833	15.390	1114.522	837.005
298.847	15.395	1113.621	836.278
299.862	15.572	1112.614	836.330
300.876	15.461	1112.119	835.330
301.891	15.515	1111.462	835.031
302.906	15.568	1110.839	834.750
303.920	15.626	1110.006	834.339
304.935	15.611	1109.519	833.825
305.949	15.660	1109.039	833.637
306.964	15.593	1108.396	832.744
307.979	15.636	1107.372	832.117
308.993	15.608	1106.392	831.165
310.008	15.768	1105.809	831.446
311.022	15.676	1105.212	830.468
312.037	15.741	1104.339	830.059
313.052	15.660	1103.196	828.729
314.066	15.677	1102.369	828.119
315.081	15.563	1101.527	826.853
316.095	15.515	1101.388	826.440
317.110	15.558	1100.382	825.819
318.125	15.709	1099.474	825.809
319.139	15.709	1098.423	824.945
320.154	15.577	1098.479	824.266
321.168	15.721	1097.817	824.402
322.183	15.618	1096.947	823.175
323.197	15.665	1096.679	823.128
324.212	15.694	1095.971	822.667
325.227	15.751	1095.334	822.395
326.241	15.680	1094.606	821.428
327.256	15.760	1094.139	821.398
328.270	15.743	1093.164	820.506
329.285	15.869	1091.919	820.117
330.300	15.745	1091.193	818.895
331.314	15.706	1090.380	818.021
332.329	15.739	1089.307	817.305
333.343	15.778	1088.535	816.840
334.358	15.806	1087.494	816.125
335.373	15.937	1087.181	816.450
336.387	15.856	1086.310	815.333
337.402	15.867	1086.036	815.109
338.416	15.959	1084.771	814.532
339.431	15.943	1084.270	814.009
340.446	15.947	1083.899	813.674
341.460	16.038	1083.110	813.453
342.475	16.054	1081.910	812.553
343.489	16.150	1081.518	812.653
344.504	16.226	1080.329	812.049
345.519	16.203	1079.455	811.212
346.533	16.184	1078.691	810.475
347.548	16.272	1078.075	810.364
348.562	16.184	1077.398	809.362
349.577	16.185	1076.507	808.625
350.592	16.253	1075.434	808.069
351.606	16.227	1074.917	807.488
352.621	16.129	1074.021	806.274
353.635	16.153	1073.520	805.942
354.650	16.059	1073.250	805.218
355.665	16.176	1072.540	805.171
356.679	16.188	1071.922	804.695
357.694	16.253	1071.165	804.367
358.708	16.239	1070.507	803.732
359.723	16.349	1069.750	803.619
360.738	16.237	1069.744	803.011
361.752	16.346	1068.563	802.570
362.767	16.398	1068.026	802.344
363.781	16.408	1067.454	801.890
364.796	16.271	1067.308	801.057
365.810	16.486	1066.531	801.424
366.825	16.467	1065.490	800.479
367.840	16.542	1065.247	800.583
368.854	16.542	1064.754	800.142
369.869	16.513	1063.652	799.103
370.883	16.484	1063.035	798.435
371.898	16.375	1062.434	797.397
372.913	16.607	1061.647	797.830
373.927	16.600	1061.009	797.246
374.942	16.562	1060.673	796.744
375.956	16.619	1060.245	796.623
376.971	16.552	1059.686	795.815
377.986	16.568	1059.412	795.612
379.000	16.697	1058.493	795.462
380.015	16.791	1058.009	795.469
381.029	16.713	1057.122	794.366
382.044	16.875	1056.608	794.669
383.059	16.751	1056.067	793.610
384.073	16.965	1055.048	793.775
385.088	16.821	1053.989	792.235
386.102	16.887	1053.157	791.849
387.117	16.814	1052.657	791.058
388.132	16.747	1051.636	789.909
389.146	16.716	1050.780	789.055
390.161	16.739	1049.903	788.434
391.175	16.738	1049.383	787.967
392.190	16.902	1048.793	788.218
393.205	16.924	1047.952	787.615
394.219	16.841	1047.161	786.570
395.234	16.853	1046.501	786.060
396.248	16.869	1045.668	785.437
397.263	16.869	1044.453	784.452
398.278	16.890	1043.680	783.904
399.292	16.750	1043.318	782.913
400.307	16.866	1042.044	782.423
401.321	16.923	1041.303	782.063
402.336	16.897	1040.678	781.402
403.350	16.974	1040.057	781.222
404.365	16.926	1039.457	780.481
405.380	16.988	1038.829	780.227
406.394	17.083	1037.893	779.889
407.409	17.017	1037.570	779.273
408.423	17.063	1036.638	778.717
409.438	17.134	1036.132	778.593
410.453	17.135	1035.349	777.941
411.467	17.093	1034.689	777.186
412.482	17.154	1034.160	776.996
413.496	17.335	1033.128	776.981
414.511	17.231	1033.006	776.347
415.526	17.176	1032.716	775.806
416.540	17.319	1032.140	775.956
417.555	17.311	1031.462	775.343
418.569	17.390	1030.645	775.021
419.584	17.270	1030.621	774.385
420.599	17.400	1030.060	774.490
421.613	103.746	1322.532	1470.433
422.628	94.929	1365.110	1470.525
