DTS Sentinel unit serial number:	SN413079Multiplexer serial number:	ORYXHardware model number:	OX4-SRSoftware version number:	ORYX F/W v4.00 Oryx Data Collector v3.7.2.0data status	okinstallation	princeton_trtdifferential loss correction	single-endedforward channel	channel 2reverse channel	N/Adate	2019/09/15time	21:43:34forward acquisition time	60.00reverse acquisition time	0.00gamma	496.2192k internal	0.2334k external	0.2334temperature offset calibration	0.9945default loss term (dB/km)	0.3790temperature slope calibration	1.0000multiplexer offset coefficient	1.0000multiplexer slope coefficient	1.0000fibre end	0.00T internal ref (°C)	30.31T ext. ref 1 (°C)	8.39T ext. ref 2 (°C)	23.46length (m)	temperature (°C)	Stokes	anti-Stokes-747.200	-50.820	0.064	-0.030
-746.185	-200.000	-0.022	0.193
-745.171	193.104	-0.069	-0.104
-744.156	-52.349	-0.273	-0.127
-743.142	800.000	0.090	0.343
-742.127	-200.000	-0.015	0.075
-741.112	-200.000	-0.025	-0.216
-740.098	434.744	-0.065	-0.141
-739.083	-134.178	0.165	-0.020
-738.069	800.000	0.078	0.250
-737.054	-116.554	0.147	-0.027
-736.039	-200.000	-0.260	0.000
-735.025	-2.255	0.062	0.044
-734.010	-42.732	0.013	-0.007
-732.996	800.000	0.048	-0.151
-731.981	-200.000	-0.020	0.246
-730.966	241.432	-0.105	0.177
-729.952	-200.000	0.056	-0.558
-728.937	800.000	-0.074	0.266
-727.923	-200.000	0.000	0.132
-726.908	165.709	-0.126	-0.178
-725.894	43.691	-0.260	0.239
-724.879	539.479	-0.078	-0.187
-723.864	-72.191	0.079	-0.029
-722.850	298.096	0.090	-0.165
-721.835	202.094	0.131	0.204
-720.821	-200.000	-0.026	-0.335
-719.806	-143.848	-0.159	0.015
-718.791	-43.695	0.187	-0.094
-717.777	-86.405	-0.153	0.047
-716.762	311.668	0.098	0.184
-715.748	20.434	0.263	0.213
-714.733	-34.203	0.030	-0.016
-713.718	-125.464	0.426	0.065
-712.704	739.456	0.076	0.205
-711.689	-128.781	-0.225	-0.032
-710.675	-89.276	0.021	-0.006
-709.660	-200.000	0.012	0.306
-708.645	156.386	0.139	-0.193
-707.631	349.929	0.095	-0.188
-706.616	-128.889	0.102	-0.014
-705.602	-66.291	0.296	0.118
-704.587	-147.026	-0.238	0.020
-703.572	-25.028	-0.261	-0.155
-702.558	115.726	0.068	-0.084
-701.543	-150.247	0.173	-0.013
-700.529	-76.357	0.343	-0.121
-699.514	651.450	0.124	-0.319
-698.499	558.135	0.042	0.102
-697.485	-54.628	-0.225	-0.102
-696.470	-35.360	0.157	-0.086
-695.456	-200.000	-0.000	0.137
-694.441	-200.000	-0.027	-0.165
-693.426	-86.976	-0.300	-0.092
-692.412	-200.000	0.021	-0.243
-691.397	-118.606	0.047	0.008
-690.383	-45.929	-0.157	-0.078
-689.368	13.384	0.045	-0.035
-688.354	108.838	0.196	-0.235
-687.339	188.143	-0.153	-0.229
-686.324	800.000	0.050	-0.145
-685.310	279.345	-0.298	0.533
-684.295	-200.000	-0.005	-0.180
-683.281	-36.277	0.207	-0.112
-682.266	-200.000	-0.001	-0.151
-681.251	-5.932	-0.202	0.139
-680.237	485.538	-0.112	0.257
-679.222	33.394	-0.090	-0.078
-678.208	800.000	0.063	-0.272
-677.193	800.000	0.077	-0.282
-676.178	800.000	0.078	0.304
-675.164	293.574	-0.180	0.330
-674.149	-23.792	0.234	0.141
-673.135	-200.000	-0.036	-0.256
-672.120	-200.000	-0.012	-0.091
-671.105	-200.000	0.066	-0.520
-670.091	-118.365	-0.241	-0.043
-669.076	333.120	-0.094	-0.181
-668.062	-127.703	0.335	0.048
-667.047	-52.167	0.023	-0.011
-666.032	-122.556	0.141	0.023
-665.018	-200.000	-0.002	-0.403
-664.003	222.210	-0.008	0.013
-662.989	95.651	-0.169	0.193
-661.974	107.623	-0.126	-0.151
-660.959	-136.206	-0.190	-0.022
-659.945	-200.000	-0.041	-0.297
-658.930	14.805	0.037	0.029
-657.916	-4.656	0.324	0.224
-656.901	46.682	0.254	0.237
-655.886	-200.000	-0.052	0.273
-654.872	800.000	0.052	-0.148
-653.857	-200.000	-0.027	-0.182
-652.843	-200.000	-0.050	-0.306
-651.828	-162.246	-0.255	-0.013
-650.814	-110.269	0.257	-0.054
-649.799	-200.000	-0.013	0.217
-648.784	6.166	-0.226	0.168
-647.770	-82.400	0.261	-0.085
-646.755	214.545	-0.195	-0.309
-645.741	140.195	0.059	-0.078
-644.726	323.130	0.184	-0.350
-643.711	157.287	-0.171	-0.236
-642.697	-98.024	-0.121	0.031
-641.682	-142.904	0.035	-0.003
-640.668	-10.184	-0.249	-0.165
-639.653	156.636	-0.090	-0.124
-638.638	-129.104	-0.127	0.018
-637.624	800.000	0.130	-0.395
-636.609	-38.602	-0.201	0.106
-635.595	169.388	0.051	-0.072
-634.580	-91.945	0.470	-0.133
-633.565	169.985	-0.203	0.290
-632.551	-10.773	0.026	-0.017
-631.536	-131.350	-0.034	0.004
-630.522	-134.177	-0.154	-0.019
-629.507	164.745	-0.359	-0.507
-628.492	800.000	0.011	0.042
-627.478	207.522	-0.077	0.121
-626.463	113.332	0.339	0.412
-625.449	111.116	-0.164	-0.198
-624.434	305.096	0.179	-0.333
-623.419	-20.572	0.133	0.082
-622.405	-150.851	-0.144	0.011
-621.390	304.661	-0.030	-0.056
-620.376	759.379	0.063	0.172
-619.361	144.775	-0.102	0.136
-618.346	281.343	0.183	0.328
-617.332	-200.000	0.011	-0.291
-616.317	800.000	-0.044	0.129
-615.303	-29.340	0.352	-0.202
-614.288	-49.139	0.110	-0.052
-613.273	110.707	-0.110	-0.132
-612.259	800.000	0.071	-0.200
-611.244	143.295	0.252	-0.336
-610.230	318.074	-0.084	-0.159
-609.215	117.700	-0.043	0.052
-608.201	45.589	0.082	0.076
-607.186	-200.000	-0.018	0.164
-606.171	-0.413	-0.240	0.170
-605.157	-200.000	-0.011	0.077
-604.142	44.110	-0.268	0.246
-603.128	-200.000	-0.027	-0.249
-602.113	-200.000	-0.009	0.120
-601.098	521.077	0.071	-0.167
-600.084	493.526	-0.027	-0.061
-599.069	46.511	0.175	0.162
-598.055	413.883	0.077	0.163
-597.040	-66.652	-0.222	0.088
-596.025	-80.955	-0.156	-0.052
-595.011	-112.344	0.214	0.043
-593.996	3.061	0.149	-0.108
-592.982	-195.857	-0.208	0.001
-591.967	40.301	-0.111	-0.100
-590.952	82.944	-0.074	0.081
-589.938	243.517	-0.085	0.142
-588.923	-200.000	0.010	0.238
-587.909	-187.970	-0.419	0.005
-586.894	100.783	0.276	-0.321
-585.879	-100.593	-0.304	-0.075
-584.865	-87.102	0.181	0.055
-583.850	-133.204	0.171	-0.022
-582.836	-200.000	0.027	0.323
-581.821	474.717	-0.078	0.176
-580.806	-200.000	-0.003	-0.296
-579.792	367.704	0.096	-0.194
-578.777	-200.000	0.032	0.202
-577.763	651.788	0.112	0.285
-576.748	-65.445	-0.282	0.113
-575.733	-56.125	0.260	-0.116
-574.719	175.985	-0.157	0.227
-573.704	-200.000	-0.054	0.283
-572.690	-200.000	-0.027	-0.227
-571.675	693.837	-0.083	0.219
-570.661	256.046	0.117	-0.201
-569.646	-110.091	0.115	-0.024
-568.631	669.307	0.199	0.513
-567.617	9.860	-0.122	0.092
-566.602	-104.897	0.111	0.025
-565.588	479.290	-0.108	0.245
-564.573	-200.000	0.055	0.307
-563.558	-200.000	0.044	-0.205
-562.544	-26.469	-0.109	-0.064
-561.529	225.084	-0.135	-0.218
-560.515	214.798	0.095	0.150
-559.500	164.405	0.072	0.101
-558.485	-200.000	-0.019	-0.170
-557.471	800.000	-0.023	0.068
-556.456	79.839	-0.143	-0.153
-555.442	210.819	0.070	0.109
-554.427	44.405	-0.198	-0.181
-553.412	-200.000	0.027	-0.256
-552.398	-200.000	-0.001	-0.122
-551.383	-187.915	0.085	-0.001
-550.369	-200.000	-0.078	0.365
-549.354	800.000	-0.074	0.235
-548.339	256.258	0.087	0.149
-547.325	-98.612	-0.264	-0.067
-546.310	102.391	0.153	0.179
-545.296	78.574	-0.093	-0.099
-544.281	-78.712	-0.311	0.106
-543.266	694.697	0.025	0.066
-542.252	705.905	0.073	-0.193
-541.237	69.544	0.079	-0.081
-540.223	-200.000	-0.029	0.214
-539.208	-200.000	0.006	0.057
-538.193	128.230	-0.116	-0.147
-537.179	-113.609	-0.376	-0.073
-536.164	16.090	-0.176	0.139
-535.150	-13.873	0.095	-0.061
-534.135	20.006	0.337	-0.271
-533.121	-200.000	-0.016	0.254
-532.106	-35.705	0.139	-0.075
-531.091	-105.439	-0.202	-0.046
-530.077	9.428	-0.150	-0.113
-529.062	-57.986	0.192	-0.084
-528.048	-8.488	0.309	-0.207
-527.033	67.450	0.098	0.100
-526.018	24.318	-0.066	0.054
-525.004	-129.503	-0.280	-0.039
-523.989	-161.003	0.093	-0.005
-522.975	-127.743	0.177	0.025
-521.960	-101.988	0.072	-0.017
-520.945	-200.000	-0.002	-0.062
-519.931	23.638	0.221	0.181
-518.916	101.828	0.111	0.129
-517.902	5.387	0.435	0.320
-516.887	17.523	-0.204	-0.162
-515.872	-200.000	-0.048	0.302
-514.858	-103.290	0.261	0.061
-513.843	366.916	-0.026	0.052
-512.829	-39.035	0.214	-0.112
-511.814	800.000	-0.087	0.246
-510.799	-128.921	-0.472	0.066
-509.785	0.797	-0.112	-0.080
-508.770	165.148	0.159	0.224
-507.756	40.622	0.050	-0.045
-506.741	-37.609	0.115	-0.061
-505.726	-12.775	-0.227	-0.147
-504.712	11.870	0.154	0.118
-503.697	800.000	0.036	-0.117
-502.683	-25.489	0.209	-0.123
-501.668	-200.000	0.005	-0.084
-500.653	-123.863	-0.184	-0.029
-499.639	322.554	0.021	0.040
-498.624	345.152	-0.101	-0.198
-497.610	-100.221	0.122	0.030
-496.595	-111.592	0.224	0.045
-495.581	304.864	0.017	-0.031
-494.566	-200.000	-0.020	-0.259
-493.551	-136.911	0.099	0.011
-492.537	-192.880	0.289	0.003
-491.522	526.287	0.092	-0.216
-490.508	-136.538	0.031	-0.004
-489.493	400.444	0.014	0.029
-488.478	126.207	-0.231	-0.290
-487.464	-89.030	-0.168	-0.049
-486.449	-200.000	-0.001	0.211
-485.435	267.664	0.120	0.209
-484.420	-168.765	0.006	0.000
-483.405	397.776	-0.089	-0.186
-482.391	197.196	-0.197	0.299
-481.376	-88.090	-0.337	-0.101
-480.362	-200.000	0.014	-0.137
-479.347	24.656	-0.178	-0.147
-478.332	12.067	0.165	0.126
-477.318	196.928	0.052	0.079
-476.303	28.665	0.159	0.134
-475.289	7.522	0.197	0.147
-474.274	173.646	-0.131	-0.188
-473.259	-25.433	-0.224	0.132
-472.245	30.375	0.293	-0.249
-471.230	800.000	0.041	0.174
-470.216	292.239	0.116	-0.211
-469.201	13.030	0.176	-0.135
-468.186	60.008	-0.056	-0.055
-467.172	800.000	-0.084	-0.331
-466.157	59.358	-0.121	-0.118
-465.143	800.000	0.042	0.141
-464.128	1.308	-0.151	-0.108
-463.113	-200.000	-0.009	0.102
-462.099	-128.395	-0.269	-0.038
-461.084	278.925	0.147	0.261
-460.070	-7.092	0.359	-0.242
-459.055	-126.573	-0.162	0.024
-458.040	-50.722	-0.109	0.051
-457.026	-117.808	0.194	-0.035
-456.011	381.072	-0.057	-0.117
-454.997	267.581	-0.213	0.370
-453.982	151.199	-0.099	-0.133
-452.968	-23.322	0.041	-0.024
-451.953	-200.000	-0.034	0.155
-450.938	800.000	-0.087	0.315
-449.924	767.142	0.154	0.416
-448.909	292.912	0.052	0.094
-447.895	-55.185	0.082	-0.037
-446.880	-200.000	0.030	0.157
-445.865	284.590	0.068	-0.122
-444.851	-200.000	-0.032	-0.141
-443.836	5.495	-0.131	-0.096
-442.822	579.285	0.140	0.341
-441.807	-38.215	0.137	0.072
-440.792	-102.078	0.294	0.070
-439.778	-15.798	-0.043	-0.028
-438.763	-155.314	-0.225	0.015
-437.749	288.839	0.117	0.210
-436.734	90.502	-0.150	-0.167
-435.719	93.857	-0.075	-0.084
-434.705	347.114	-0.050	0.098
-433.690	-78.259	-0.053	-0.018
-432.676	369.812	0.227	0.456
-431.661	-159.111	0.197	0.011
-430.646	349.051	-0.012	0.023
-429.632	201.020	-0.119	-0.182
-428.617	-81.232	0.076	-0.025
-427.603	800.000	0.056	0.212
-426.588	-127.808	0.248	-0.035
-425.573	-182.501	0.370	0.007
-424.559	-86.948	0.331	0.100
-423.544	800.000	-0.070	0.217
-422.530	800.000	-0.064	-0.211
-421.515	-68.323	-0.089	-0.034
-420.500	7.300	-0.072	-0.053
-419.486	800.000	0.039	-0.164
-418.471	401.344	0.064	-0.133
-417.457	800.000	-0.058	0.230
-416.442	-95.731	-0.282	-0.075
-415.428	800.000	0.043	-0.146
-414.413	190.402	0.091	-0.136
-413.398	7.764	-0.204	0.151
-412.384	-193.787	0.266	0.002
-411.369	-135.522	-0.351	0.041
-410.355	-152.260	0.120	-0.009
-409.340	615.856	-0.049	0.121
-408.325	121.301	-0.242	0.299
-407.311	-22.772	-0.251	-0.151
-406.296	-53.499	0.197	0.090
-405.282	-46.420	-0.105	-0.051
-404.267	-55.165	-0.027	0.012
-403.252	230.795	0.094	0.152
-402.238	128.313	0.311	0.392
-401.223	-9.573	-0.101	-0.067
-400.209	-200.000	-0.001	-0.347
-399.194	-133.544	-0.095	0.012
-398.179	-26.510	0.247	0.144
-397.165	-7.583	-0.080	0.054
-396.150	0.061	0.071	-0.050
-395.136	7.138	0.154	-0.114
-394.121	180.074	-0.121	0.176
-393.106	-112.362	0.198	0.039
-392.092	-49.877	-0.072	-0.034
-391.077	800.000	0.078	-0.224
-390.063	-108.729	-0.275	-0.058
-389.048	-122.507	0.267	-0.043
-388.033	-200.000	-0.015	-0.071
-387.019	133.023	0.169	-0.216
-386.004	-7.297	-0.221	0.149
-384.990	-200.000	-0.012	0.163
-383.975	-115.968	-0.216	0.040
-382.960	-119.620	-0.242	-0.041
-381.946	135.827	-0.138	0.179
-380.931	-2.132	-0.128	0.089
-379.917	-48.494	-0.173	-0.082
-378.902	-200.000	-0.037	0.243
-377.888	-182.418	0.154	0.003
-376.873	199.909	-0.169	-0.257
-375.858	800.000	-0.088	-0.251
-374.844	-54.750	0.103	0.046
-373.829	800.000	0.078	-0.320
-372.815	7.868	0.171	-0.127
-371.800	109.818	-0.170	-0.202
-370.785	-110.592	0.374	0.077
-369.771	-200.000	0.014	0.363
-368.756	32.892	-0.295	-0.253
-367.742	-200.000	-0.001	0.043
-366.727	-28.140	0.178	0.102
-365.712	16.088	-0.186	-0.145
-364.698	53.224	-0.094	-0.089
-363.683	87.659	0.145	-0.159
-362.669	-200.000	-0.004	0.073
-361.654	-200.000	0.008	0.197
-360.639	-19.399	-0.329	0.202
-359.625	800.000	-0.079	-0.252
-358.610	-150.435	0.323	-0.025
-357.596	-10.567	0.169	0.111
-356.581	133.189	0.039	-0.050
-355.566	299.031	-0.035	0.064
-354.552	368.243	-0.059	0.117
-353.537	28.431	-0.205	0.172
-352.523	130.440	-0.062	-0.078
-351.508	-67.826	0.156	0.061
-350.493	-200.000	-0.069	0.614
-349.479	-115.944	0.310	0.057
-348.464	-169.875	-0.169	-0.006
-347.450	-150.144	0.280	-0.021
-346.435	364.316	0.091	0.182
-345.420	-200.000	-0.020	0.094
-344.406	-16.703	0.062	0.039
-343.391	800.000	-0.067	0.278
-342.377	-67.783	-0.161	0.062
-341.362	129.267	0.039	0.049
-340.348	68.519	0.277	-0.282
-339.333	42.076	-0.234	-0.210
-338.318	-32.909	-0.079	-0.044
-337.304	-193.781	0.427	0.004
-336.289	743.992	-0.033	0.088
-335.275	-200.000	0.026	0.144
-334.260	-200.000	0.020	-0.239
-333.245	-146.916	0.120	0.010
-332.231	204.082	-0.041	0.063
-331.216	-200.000	0.024	0.152
-330.202	-42.223	-0.259	0.131
-329.187	-73.669	-0.061	-0.022
-328.172	427.231	0.150	-0.320
-327.158	45.383	-0.122	-0.111
-326.143	-200.000	-0.019	-0.152
-325.129	-200.000	-0.023	0.363
-324.114	265.006	-0.061	0.105
-323.099	447.247	-0.216	-0.469
-322.085	-200.000	0.026	-0.216
-321.070	-200.000	-0.058	-0.266
-320.056	-200.000	-0.037	-0.173
-319.041	327.019	0.011	0.021
-318.026	519.379	-0.079	0.183
-317.012	132.973	0.101	0.128
-315.997	140.016	0.242	-0.315
-314.983	17.801	-0.156	-0.122
-313.968	800.000	0.039	-0.113
-312.953	76.692	-0.160	-0.168
-311.939	-67.037	-0.194	-0.076
-310.924	800.000	0.100	0.332
-309.910	8.269	0.391	0.291
-308.895	-84.444	0.144	0.045
-307.880	-58.193	0.058	-0.025
-306.866	333.929	0.076	-0.145
-305.851	24.904	-0.023	0.018
-304.837	-178.144	-0.337	0.008
-303.822	-32.478	-0.140	0.077
-302.807	-200.000	0.020	-0.136
-301.793	800.000	-0.074	-0.239
-300.778	800.000	0.040	-0.140
-299.764	-115.320	-0.151	0.028
-298.749	-42.125	-0.033	-0.017
-297.735	207.392	0.307	-0.473
-296.720	205.758	-0.083	0.128
-295.705	-75.545	-0.034	-0.012
-294.691	800.000	-0.046	-0.153
-293.676	-140.595	-0.101	-0.010
-292.662	-163.330	-0.302	0.014
-291.647	253.137	-0.077	0.130
-290.632	434.537	-0.141	0.302
-289.618	-200.000	-0.051	-0.510
-288.603	-200.000	-0.002	-0.090
-287.589	-87.393	-0.425	0.127
-286.574	330.877	0.045	0.086
-285.559	153.304	0.144	0.194
-284.545	-141.472	0.156	0.016
-283.530	637.518	0.094	0.236
-282.516	-152.180	-0.151	0.011
-281.501	148.825	-0.126	-0.168
-280.486	800.000	0.046	0.131
-279.472	-129.119	-0.034	-0.005
-278.457	800.000	-0.074	-0.315
-277.443	-200.000	0.046	-0.272
-276.428	414.771	0.068	-0.144
-275.413	503.101	-0.050	0.113
-274.399	128.700	-0.074	-0.094
-273.384	197.837	-0.055	-0.083
-272.370	-200.000	-0.054	-0.238
-271.355	174.857	0.026	0.037
-270.340	-200.000	0.035	-0.161
-269.326	-76.650	0.337	0.116
-268.311	144.078	-0.033	0.043
-267.297	104.886	0.196	-0.228
-266.282	-200.000	-0.064	-0.392
-265.267	800.000	0.077	-0.270
-264.253	797.802	0.094	-0.257
-263.238	-78.028	0.164	0.056
-262.224	-200.000	0.035	-0.261
-261.209	-175.699	-0.070	-0.002
-260.195	-150.757	-0.137	0.010
-259.180	-3.245	-0.089	0.061
-258.165	-200.000	0.014	-0.301
-257.151	156.650	0.162	0.221
-256.136	517.425	0.062	-0.143
-255.122	82.895	-0.106	0.113
-254.107	51.858	0.078	0.074
-253.092	-159.020	0.203	-0.011
-252.078	800.000	-0.065	0.222
-251.063	52.529	-0.156	-0.147
-250.049	206.580	0.161	-0.248
-249.034	152.180	0.151	0.203
-248.019	-0.745	0.034	0.024
-247.005	-111.299	0.233	0.047
-245.990	-17.452	-0.079	0.049
-244.976	207.826	0.139	0.214
-243.961	168.590	0.196	-0.276
-242.946	184.121	-0.086	-0.125
-241.932	169.027	0.074	0.104
-240.917	39.933	-0.112	-0.099
-239.903	211.784	0.068	0.105
-238.888	207.935	0.086	-0.133
-237.873	-79.234	-0.374	0.125
-236.859	-51.604	-0.067	-0.031
-235.844	120.521	-0.068	-0.083
-234.830	-3.455	0.218	-0.149
-233.815	-92.547	0.287	-0.079
-232.800	130.824	-0.113	-0.142
-231.786	-16.620	-0.213	-0.133
-230.771	79.736	-0.085	-0.090
-229.757	69.230	-0.093	-0.094
-228.742	800.000	0.011	0.041
-227.727	-200.000	-0.015	0.170
-226.713	471.648	0.055	0.122
-225.698	-200.000	-0.003	0.032
-224.684	-90.868	0.102	-0.029
-223.669	-143.447	0.397	0.037
-222.655	21.835	0.208	-0.167
-221.640	-36.615	-0.134	0.071
-220.625	-53.530	0.139	0.063
-219.611	698.676	-0.060	-0.156
-218.596	61.982	0.198	-0.195
-217.582	800.000	-0.051	0.140
-216.567	-21.567	0.169	0.101
-215.552	-132.297	0.162	-0.021
-214.538	443.504	-0.057	0.122
-213.523	47.462	-0.107	0.099
-212.509	573.265	0.124	0.297
-211.494	-136.050	-0.123	0.014
-210.479	108.807	-0.076	-0.089
-209.465	-200.000	0.047	0.419
-208.450	72.328	0.008	-0.009
-207.436	68.408	-0.074	0.074
-206.421	-5.741	0.415	0.280
-205.406	626.526	0.110	0.274
-204.392	-200.000	-0.046	-0.212
-203.377	-200.000	-0.063	0.532
-202.363	-6.258	-0.168	0.113
-201.348	59.917	0.357	-0.347
-200.333	-19.783	-0.231	0.140
-199.319	66.008	-0.223	0.223
-198.304	-75.287	-0.143	-0.050
-197.290	214.649	-0.051	-0.079
-196.275	-47.231	0.392	0.188
-195.260	19.478	0.153	0.121
-194.246	282.220	0.097	0.171
-193.231	272.267	0.090	0.156
-192.217	-41.693	-0.030	0.015
-191.202	800.000	0.066	-0.201
-190.187	800.000	0.027	0.101
-189.173	-102.451	-0.162	0.038
-188.158	-157.357	-0.131	-0.008
-187.144	-28.570	0.145	0.082
-186.129	91.205	-0.319	-0.352
-185.114	699.457	-0.002	-0.004
-184.100	575.381	0.042	0.101
-183.085	-200.000	0.007	-0.075
-182.071	-14.085	0.234	0.148
-181.056	640.036	0.146	-0.364
-180.042	105.197	-0.071	0.082
-179.027	17.050	-0.214	0.167
-178.012	800.000	0.097	0.398
-176.998	239.527	-0.182	-0.299
-175.983	-200.000	-0.041	-0.246
-174.969	-108.055	0.259	0.055
-173.954	-66.379	-0.414	-0.162
-172.939	362.081	0.026	0.051
-171.925	-180.864	-0.033	-0.001
-170.910	-99.441	-0.349	0.086
-169.896	174.512	-0.192	0.273
-168.881	-1.876	-0.135	-0.094
-167.866	10.482	-0.183	-0.137
-166.852	-18.722	-0.233	-0.143
-165.837	-200.000	-0.020	0.131
-164.823	-200.000	0.067	0.293
-163.808	261.516	0.073	-0.124
-162.793	800.000	-0.043	-0.160
-161.779	-200.000	0.016	0.350
-160.764	-200.000	0.001	0.131
-159.750	800.000	0.069	0.246
-158.735	405.671	0.115	-0.238
-157.720	-200.000	0.050	-0.362
-156.706	-200.000	0.011	-0.309
-155.691	-122.417	0.089	0.014
-154.677	460.117	-0.082	-0.179
-153.662	-45.088	-0.144	-0.070
-152.647	160.716	-0.183	0.250
-151.633	800.000	0.026	0.101
-150.618	-117.712	-0.136	0.024
-149.604	-71.503	0.202	-0.074
-148.589	800.000	0.090	0.324
-147.574	-109.185	0.276	0.058
-146.560	59.226	0.231	0.223
-145.545	800.000	-0.036	-0.099
-144.531	-115.204	-0.148	0.028
-143.516	-162.115	0.083	-0.004
-142.502	29.881	0.269	0.225
-141.487	-14.608	-0.055	0.035
-140.472	-35.201	-0.048	-0.026
-139.458	-52.594	0.253	0.115
-138.443	-32.028	0.280	0.154
-137.429	-50.327	0.257	0.119
-136.414	-27.065	-0.292	-0.167
-135.399	-79.269	0.204	-0.068
-134.385	-200.000	0.057	0.305
-133.370	118.013	-0.086	0.104
-132.356	153.814	-0.056	-0.076
-131.341	-154.075	0.030	-0.002
-130.326	-52.367	-0.126	0.057
-129.312	-23.545	-0.154	0.091
-128.297	-147.512	0.589	0.049
-127.283	-84.060	0.125	-0.039
-126.268	-200.000	0.010	-0.399
-125.253	396.016	0.155	-0.318
-124.239	161.795	0.190	0.261
-123.224	-187.738	-0.087	0.001
-122.210	-92.669	0.108	0.030
-121.195	51.082	0.346	0.322
-120.180	-200.000	0.028	-0.193
-119.166	331.635	-0.162	-0.306
-118.151	-200.000	0.025	-0.269
-117.137	121.325	-0.136	0.166
-116.122	-200.000	-0.027	0.287
-115.107	-118.612	-0.117	0.020
-114.093	168.428	-0.238	-0.333
-113.078	-74.325	0.075	0.026
-112.064	800.000	0.038	-0.152
-111.049	-104.966	-0.394	0.089
-110.034	-15.223	-0.222	0.140
-109.020	-129.702	-0.234	0.032
-108.005	231.640	-0.097	-0.156
-106.991	-16.485	-0.057	0.036
-105.976	800.000	-0.049	0.181
-104.962	800.000	-0.032	-0.086
-103.947	-67.578	0.193	-0.074
-102.932	800.000	-0.036	0.137
-101.918	-200.000	-0.029	0.210
-100.903	210.188	0.079	-0.121
-99.889	-60.247	-0.177	0.074
-98.874	-129.793	0.417	-0.056
-97.859	15.103	0.192	0.147
-96.845	290.631	-0.100	-0.178
-95.830	25.292	0.270	0.219
-94.816	-200.000	0.030	0.293
-93.801	-200.000	-0.001	0.323
-92.786	131.180	-0.138	-0.174
-91.772	506.364	-0.022	0.049
-90.757	-128.744	-0.303	-0.042
-89.743	-119.069	0.313	0.054
-88.728	-200.000	-0.004	-0.186
-87.713	-188.730	0.099	0.001
-86.699	-101.459	0.148	0.035
-85.684	-135.247	-0.213	0.025
-84.670	49.063	0.224	-0.206
-83.655	536.839	-0.112	-0.261
-82.640	-200.000	-0.052	-0.306
-81.626	-21.001	0.192	-0.115
-80.611	-200.000	0.010	-0.081
-79.597	280.109	-0.112	0.197
-78.582	60.919	0.243	0.236
-77.567	265.809	0.165	0.281
-76.553	188.453	0.071	0.104
-75.538	689.698	-0.044	0.112
-74.524	-200.000	-0.033	-0.418
-73.509	-200.000	-0.110	-0.477
-72.494	-15.426	0.162	-0.102
-71.480	173.965	-0.142	-0.200
-70.465	-106.708	-0.176	0.038
-69.451	-116.350	0.105	-0.019
-68.436	-50.373	-0.291	-0.134
-67.422	-200.000	-0.008	-0.067
-66.407	32.541	-0.061	-0.052
-65.392	-26.068	-0.332	0.191
-64.378	38.480	0.144	-0.126
-63.363	-145.056	0.306	-0.027
-62.349	-200.000	-0.032	0.228
-61.334	59.375	-0.964	-0.930
-60.319	31.585	0.850	0.715
-59.305	-200.000	-0.102	-1.098
-58.290	77.814	0.884	0.921
-57.276	532.727	0.674	1.562
-56.261	-200.000	105.460	589.659
-55.246	469.222	1459.379	3207.013
-54.232	150.784	2644.233	3516.914
-53.217	102.056	2270.308	2593.643
-52.203	39.416	1887.709	1654.384
-51.188	33.522	1680.525	1428.496
-50.173	30.976	1637.846	1373.435
-49.159	49.316	1690.434	1555.305
-48.144	50.103	1706.243	1575.686
-47.130	33.119	1664.477	1411.623
-46.115	30.425	1650.247	1379.521
-45.100	30.329	1644.996	1374.366
-44.086	30.230	1642.580	1371.557
-43.071	30.189	1640.424	1369.404
-42.057	30.177	1638.093	1367.311
-41.042	30.184	1635.777	1365.380
-40.027	30.292	1633.344	1364.089
-39.013	30.159	1631.936	1361.877
-37.998	30.168	1630.556	1360.741
-36.984	30.150	1629.379	1359.574
-35.969	30.304	1627.896	1359.406
-34.954	30.341	1626.377	1358.360
-33.940	30.268	1624.470	1356.179
-32.925	30.353	1622.470	1355.072
-31.911	30.442	1620.691	1354.185
-30.896	30.369	1619.506	1352.608
-29.881	30.309	1617.592	1350.522
-28.867	30.323	1615.672	1348.963
-27.852	30.305	1614.539	1347.835
-26.838	30.374	1613.004	1346.999
-25.823	30.292	1611.911	1345.438
-24.809	30.327	1610.689	1344.620
-23.794	30.316	1609.032	1343.102
-22.779	30.289	1607.717	1341.754
-21.765	30.293	1605.974	1340.276
-20.750	30.348	1603.823	1338.828
-19.736	30.275	1603.369	1337.866
-18.721	30.358	1601.566	1336.907
-17.706	30.290	1600.386	1335.378
-16.692	30.285	1598.849	1334.010
-15.677	30.311	1597.376	1332.911
-14.663	30.385	1596.070	1332.303
-13.648	30.399	1594.808	1331.297
-12.633	30.381	1592.830	1329.460
-11.619	30.294	1591.954	1328.054
-10.604	30.329	1590.450	1326.999
-9.590	30.321	1589.467	1326.071
-8.575	30.316	1588.075	1324.822
-7.560	30.387	1586.565	1324.011
-6.546	30.445	1585.670	1323.625
-5.531	30.352	1584.902	1322.269
-4.517	30.284	1583.348	1320.441
-3.502	30.402	1581.959	1320.067
-2.487	30.398	1580.240	1318.550
-1.473	29.943	1568.584	1305.563
-0.458	26.670	1548.542	1266.004
0.556	20.594	1548.275	1231.827
1.571	17.896	1572.034	1231.193
2.586	17.374	1584.045	1236.691
3.600	16.370	1533.533	1190.078
4.615	12.807	1434.415	1089.545
5.629	9.245	1377.685	1023.706
6.644	8.464	1370.487	1013.316
7.659	8.441	1368.915	1011.920
8.673	8.395	1368.394	1011.153
9.688	8.271	1365.980	1008.500
10.702	8.230	1362.996	1005.949
11.717	9.938	1365.728	1018.654
12.731	13.967	1372.710	1049.266
13.746	16.967	1376.534	1071.069
14.761	17.135	1375.864	1071.514
15.775	16.132	1373.335	1063.128
16.790	15.054	1370.942	1054.399
17.804	14.323	1368.253	1047.639
18.819	13.781	1366.932	1043.124
19.834	13.541	1366.040	1040.848
20.848	13.342	1364.227	1038.124
21.863	13.089	1363.191	1035.656
22.877	12.895	1362.255	1033.638
23.892	12.824	1361.290	1032.370
24.907	12.897	1360.333	1032.010
25.921	12.839	1359.825	1031.168
26.936	12.906	1358.542	1030.527
27.950	13.066	1357.058	1030.306
28.965	13.050	1356.380	1029.598
29.980	13.055	1355.631	1028.974
30.994	13.194	1353.914	1028.445
32.009	13.187	1353.171	1027.741
33.023	13.147	1352.145	1026.627
34.038	13.131	1350.601	1025.263
35.053	13.039	1349.406	1023.693
36.067	13.081	1348.422	1023.119
37.082	13.082	1346.829	1021.827
38.096	13.214	1345.938	1021.871
39.111	13.094	1345.758	1020.908
40.126	13.056	1344.560	1019.669
41.140	12.890	1343.880	1018.043
42.155	12.870	1343.463	1017.511
43.169	12.781	1343.422	1016.838
44.184	12.934	1342.652	1017.109
45.199	12.859	1342.522	1016.463
46.213	13.016	1341.508	1016.571
47.228	13.095	1340.779	1016.415
48.242	12.955	1339.918	1014.810
49.257	13.057	1338.119	1013.987
50.271	12.975	1336.729	1012.337
51.286	12.989	1335.502	1011.405
52.301	13.037	1334.196	1010.621
53.315	12.989	1333.320	1009.575
54.330	12.861	1332.503	1008.081
55.344	12.925	1330.882	1007.159
56.359	12.885	1329.687	1005.919
57.374	12.972	1328.526	1005.487
58.388	12.874	1327.873	1004.307
59.403	12.812	1327.902	1003.860
60.417	12.882	1326.933	1003.463
61.432	12.878	1326.313	1002.880
62.447	12.798	1325.347	1001.575
63.461	12.697	1324.228	1000.029
64.476	12.538	1323.415	998.364
65.490	12.755	1321.399	998.067
66.505	12.705	1320.270	996.821
67.520	12.762	1318.776	995.955
68.534	12.820	1317.834	995.503
69.549	12.781	1317.066	994.599
70.563	12.826	1315.749	993.788
71.578	12.737	1314.675	992.353
72.593	12.683	1314.367	991.710
73.607	12.644	1312.810	990.214
74.622	12.687	1312.483	990.137
75.636	12.722	1311.568	989.565
76.651	12.592	1310.847	988.153
77.666	12.666	1311.034	988.654
78.680	12.702	1310.078	988.058
79.695	12.759	1309.243	987.684
80.709	12.765	1308.700	987.225
81.724	12.854	1307.811	987.001
82.739	12.843	1307.048	986.270
83.753	12.901	1305.837	985.613
84.768	13.006	1304.690	985.288
85.782	12.998	1303.796	984.480
86.797	13.012	1302.815	983.736
87.812	12.891	1301.446	981.895
88.826	12.912	1300.579	981.277
89.841	12.928	1299.085	980.158
90.855	13.056	1297.967	979.987
91.870	13.175	1296.908	979.811
92.884	13.047	1296.594	978.725
93.899	13.100	1295.869	978.403
94.914	13.082	1295.218	977.723
95.928	13.158	1293.936	977.117
96.943	13.071	1293.133	975.907
97.957	13.157	1292.317	975.712
98.972	13.114	1291.246	974.567
99.987	13.045	1290.317	973.371
101.001	12.961	1289.493	972.172
102.016	13.014	1288.420	971.584
103.030	13.099	1287.123	971.023
104.045	13.047	1286.391	970.079
105.060	13.044	1285.015	968.937
106.074	12.984	1283.689	967.501
107.089	12.864	1282.318	965.678
108.103	12.854	1281.153	964.657
109.118	12.830	1279.829	963.437
110.133	12.850	1278.795	962.687
111.147	12.882	1277.014	961.451
112.162	12.836	1276.086	960.397
113.176	12.892	1275.025	959.837
114.191	12.916	1274.148	959.233
115.206	12.824	1272.935	957.702
116.220	12.928	1271.836	957.393
117.235	12.815	1271.156	956.139
118.249	12.855	1269.717	955.206
119.264	12.819	1268.476	953.981
120.279	12.790	1267.679	953.129
121.293	12.816	1266.246	952.116
122.308	12.744	1265.591	951.123
123.322	12.648	1264.608	949.746
124.337	12.777	1263.244	949.384
125.352	12.814	1262.010	948.585
126.366	12.789	1261.153	947.709
127.381	12.797	1260.182	946.943
128.395	12.723	1258.975	945.530
129.410	12.783	1258.077	945.113
130.424	12.768	1257.690	944.652
131.439	12.900	1256.140	944.161
132.454	12.899	1255.297	943.441
133.468	12.897	1254.508	942.753
134.483	12.903	1253.931	942.267
135.497	12.917	1252.640	941.296
136.512	12.928	1251.616	940.508
137.527	12.949	1249.868	939.225
138.541	12.954	1248.446	938.106
139.556	13.108	1246.924	937.755
140.570	12.970	1246.488	936.557
141.585	13.057	1245.363	936.127
142.600	13.139	1243.727	935.276
143.614	13.193	1242.913	934.887
144.629	13.124	1242.297	933.948
145.643	13.106	1240.882	932.701
146.658	13.009	1239.354	930.924
147.673	13.104	1238.080	930.422
148.687	12.994	1237.334	929.161
149.702	13.081	1235.386	928.104
150.716	12.987	1234.116	926.540
151.731	12.961	1233.336	925.722
152.746	13.018	1232.328	925.205
153.760	12.942	1231.097	923.772
154.775	13.082	1229.863	923.546
155.789	13.090	1229.249	923.051
156.804	13.017	1228.409	921.931
157.819	13.118	1227.324	921.598
158.833	13.183	1226.122	920.975
159.848	13.335	1225.192	921.041
160.862	13.344	1223.827	919.985
161.877	13.150	1223.151	918.316
162.892	13.060	1221.982	916.860
163.906	13.075	1221.386	916.413
164.921	13.174	1220.290	916.059
165.935	13.174	1219.334	915.260
166.950	13.219	1218.679	914.936
167.964	13.222	1217.838	914.239
168.979	13.242	1217.269	913.846
169.994	13.129	1216.602	912.639
171.008	13.157	1216.396	912.559
172.023	13.282	1215.025	912.140
173.037	13.407	1214.066	912.028
174.052	13.204	1213.621	910.494
175.067	13.218	1212.718	909.812
176.081	13.274	1211.025	908.768
177.096	13.199	1209.815	907.371
178.110	13.248	1209.480	907.304
179.125	13.305	1207.555	906.092
180.140	13.319	1206.881	905.585
181.154	13.323	1205.595	904.562
182.169	13.304	1204.815	903.794
183.183	13.439	1203.333	903.341
184.198	13.396	1202.329	902.272
185.213	13.466	1200.995	901.573
186.227	13.423	1200.104	900.588
187.242	13.526	1199.313	900.476
188.256	13.445	1198.228	899.142
189.271	13.572	1196.966	898.802
190.286	13.485	1195.844	897.407
191.300	13.402	1195.002	896.251
192.315	13.252	1194.367	894.880
193.329	13.199	1193.777	894.075
194.344	13.211	1193.084	893.540
195.359	13.261	1192.985	893.655
196.373	13.364	1192.341	893.653
197.388	13.464	1191.827	893.727
198.402	13.648	1190.992	894.017
199.417	13.598	1190.824	893.540
200.432	13.680	1189.859	893.177
201.446	13.774	1188.590	892.653
202.461	13.818	1187.912	892.298
203.475	13.734	1186.920	891.025
204.490	13.707	1186.073	890.168
205.504	13.629	1184.494	888.484
206.519	13.690	1183.188	887.750
207.534	13.649	1181.949	886.524
208.548	13.583	1181.350	885.646
209.563	13.702	1180.612	885.646
210.577	13.615	1179.938	884.599
211.592	13.862	1178.346	884.647
212.607	13.888	1177.774	884.274
213.621	13.795	1177.273	883.326
214.636	13.890	1176.120	882.886
215.650	13.853	1175.005	881.775
216.665	13.861	1174.163	881.107
217.680	13.927	1172.983	880.494
218.694	13.913	1172.998	880.354
219.709	13.836	1172.199	879.267
220.723	13.838	1171.307	878.535
221.738	13.934	1170.597	878.431
222.753	13.886	1170.213	877.811
223.767	13.979	1168.890	877.233
224.782	14.032	1168.507	877.147
225.796	14.049	1167.506	876.406
226.811	14.127	1166.903	876.289
227.826	14.167	1165.948	875.703
228.840	14.000	1165.312	874.271
229.855	14.121	1164.929	874.541
230.869	13.934	1164.530	873.182
231.884	13.989	1163.082	872.308
232.899	13.884	1162.641	871.349
233.913	13.993	1161.607	871.071
234.928	13.965	1161.239	870.566
235.942	13.912	1160.569	869.709
236.957	13.955	1159.237	868.861
237.972	13.925	1158.947	868.411
238.986	13.944	1158.368	867.999
240.001	14.020	1157.585	867.732
241.015	14.055	1156.435	866.973
242.030	14.088	1155.510	866.377
243.045	14.050	1155.276	865.926
244.059	14.152	1154.536	865.827
245.074	14.163	1153.301	864.882
246.088	14.165	1152.924	864.531
247.103	14.289	1151.938	864.362
248.117	14.292	1151.759	864.164
249.132	14.252	1151.046	863.344
250.147	14.514	1149.917	863.780
251.161	14.516	1149.141	863.129
252.176	14.400	1149.133	862.449
253.190	14.579	1147.563	862.121
254.205	14.584	1147.603	862.098
255.220	14.662	1146.674	861.728
256.234	14.541	1146.532	860.920
257.249	14.525	1145.721	860.153
258.263	14.558	1144.936	859.656
259.278	14.611	1144.362	859.422
260.293	14.611	1143.813	858.933
261.307	14.581	1143.495	858.465
262.322	14.630	1142.586	857.958
263.336	14.701	1141.807	857.664
264.351	14.734	1140.976	857.131
265.366	14.707	1140.306	856.416
266.380	14.685	1139.699	855.771
267.395	14.725	1138.922	855.313
268.409	14.659	1138.232	854.382
269.424	14.649	1137.826	853.950
270.439	14.698	1136.995	853.504
271.453	14.579	1136.445	852.408
272.468	14.765	1134.993	852.190
273.482	14.668	1134.455	851.219
274.497	14.666	1134.222	850.958
275.512	14.696	1133.201	850.266
276.526	14.615	1132.760	849.449
277.541	14.672	1131.985	849.082
278.555	14.758	1131.188	848.849
279.570	14.855	1130.363	848.644
280.585	14.983	1129.379	848.482
281.599	14.910	1128.678	847.509
282.614	14.959	1127.533	846.822
283.628	14.779	1126.642	845.169
284.643	14.932	1125.283	844.845
285.657	14.933	1125.165	844.686
286.672	14.892	1124.031	843.558
287.687	14.918	1123.031	842.863
288.701	14.912	1122.461	842.330
289.716	14.950	1122.081	842.163
290.730	14.958	1121.162	841.439
291.745	15.057	1119.709	840.769
292.760	15.015	1119.986	840.692
293.774	15.138	1118.764	840.319
294.789	15.117	1118.158	839.684
295.803	15.138	1117.651	839.330
296.818	15.091	1117.149	838.645
297.833	15.044	1116.160	837.593
298.847	15.000	1115.649	836.915
299.862	15.046	1114.567	836.263
300.876	15.052	1114.412	836.098
301.891	15.191	1113.451	835.997
302.906	15.295	1112.717	835.892
303.920	15.288	1112.256	835.436
304.935	15.241	1111.637	834.666
305.949	15.394	1110.665	834.622
306.964	15.391	1109.977	834.014
307.979	15.314	1108.983	832.813
308.993	15.274	1108.977	832.536
310.008	15.402	1107.837	832.243
311.022	15.389	1107.181	831.610
312.037	15.387	1106.181	830.777
313.052	15.274	1105.047	829.291
314.066	15.384	1104.501	829.351
315.081	15.284	1103.612	828.119
316.095	15.196	1103.008	827.157
317.110	15.196	1102.658	826.823
318.125	15.321	1101.371	826.400
319.139	15.176	1101.208	825.489
320.154	15.323	1100.094	825.303
321.168	15.241	1099.546	824.419
322.183	15.313	1098.878	824.195
323.197	15.291	1098.197	823.504
324.212	15.351	1097.444	823.163
325.227	15.350	1097.263	822.950
326.241	15.372	1096.606	822.491
327.256	15.374	1095.525	821.619
328.270	15.371	1094.655	820.879
329.285	15.414	1093.769	820.350
330.300	15.417	1092.973	819.698
331.314	15.381	1091.868	818.621
332.329	15.405	1091.113	818.097
333.343	15.512	1090.215	817.872
334.358	15.509	1089.367	817.150
335.373	15.505	1088.706	816.563
336.387	15.585	1088.155	816.465
337.402	15.665	1087.215	816.074
338.416	15.628	1086.504	815.289
339.431	15.651	1086.257	815.147
340.446	15.767	1085.470	815.044
341.460	15.653	1085.097	814.141
342.475	15.786	1084.134	813.989
343.489	15.765	1083.353	813.227
344.504	15.903	1082.270	813.011
345.519	15.844	1081.469	812.052
346.533	15.850	1081.073	811.714
347.548	15.822	1079.907	810.630
348.562	15.909	1079.430	810.619
349.577	15.868	1078.288	809.493
350.592	15.804	1077.703	808.672
351.606	15.790	1076.686	807.773
352.621	15.749	1076.016	807.002
353.635	15.784	1075.455	806.679
354.650	15.748	1074.900	806.018
355.665	15.812	1074.114	805.664
356.679	15.882	1073.361	805.362
357.694	15.869	1073.152	805.070
358.708	15.967	1072.285	804.817
359.723	15.877	1071.933	804.050
360.738	15.962	1071.235	803.863
361.752	16.036	1070.595	803.663
362.767	15.899	1069.628	802.215
363.781	16.084	1069.464	802.902
364.796	16.051	1068.719	802.113
365.810	16.101	1068.306	801.972
366.825	16.200	1067.351	801.652
367.840	16.304	1067.206	801.971
368.854	16.281	1066.286	801.096
369.869	16.170	1065.970	800.263
370.883	16.321	1064.839	800.060
371.898	16.286	1063.565	798.865
372.913	16.218	1063.502	798.425
373.927	16.172	1063.047	797.793
374.942	16.216	1062.685	797.662
375.956	16.349	1061.893	797.623
376.971	16.203	1061.476	796.548
377.986	16.284	1060.882	796.418
379.000	16.409	1060.354	796.540
380.015	16.347	1059.751	795.724
381.029	16.453	1059.088	795.656
382.044	16.318	1058.596	794.577
383.059	16.364	1057.858	794.169
384.073	16.549	1056.713	794.112
385.088	16.428	1055.927	792.879
386.102	16.403	1055.322	792.237
387.117	16.502	1053.591	791.333
388.132	16.432	1052.941	790.449
389.146	16.384	1052.505	789.825
390.161	16.464	1051.895	789.674
391.175	16.460	1051.354	789.177
392.190	16.236	1051.074	787.853
393.205	16.579	1049.716	788.361
394.219	16.545	1049.386	787.886
395.234	16.441	1048.804	786.896
396.248	16.472	1047.317	785.857
397.263	16.400	1046.385	784.753
398.278	16.418	1045.984	784.467
399.292	16.520	1044.606	783.835
400.307	16.514	1043.560	782.951
401.321	16.406	1043.633	782.438
402.336	16.475	1042.513	781.847
403.350	16.416	1042.183	781.257
404.365	16.430	1041.397	780.663
405.380	16.514	1040.781	780.522
406.394	16.449	1040.004	779.570
407.409	16.478	1039.424	779.203
408.423	16.793	1038.339	779.767
409.438	16.894	1037.666	779.657
410.453	16.809	1037.066	778.750
411.467	17.035	1035.995	778.914
412.482	16.834	1036.171	778.052
413.496	16.950	1035.284	777.849
414.511	16.946	1034.826	777.417
415.526	16.912	1034.465	776.924
416.540	17.012	1033.876	776.869
417.555	16.990	1033.026	776.061
418.569	16.967	1032.631	775.591
419.584	16.952	1032.402	775.280
420.599	16.875	1031.991	774.554
421.613	103.069	1322.671	1469.020
422.628	94.334	1364.993	1469.103
