DTS Sentinel unit serial number:	SN413079Multiplexer serial number:	ORYXHardware model number:	OX4-SRSoftware version number:	ORYX F/W v4.00 Oryx Data Collector v3.7.2.0data status	okinstallation	princeton_trtdifferential loss correction	single-endedforward channel	channel 2reverse channel	N/Adate	2019/09/15time	05:31:35forward acquisition time	60.00reverse acquisition time	0.00gamma	496.2192k internal	0.2326k external	0.2326temperature offset calibration	1.0034default loss term (dB/km)	0.3790temperature slope calibration	1.0000multiplexer offset coefficient	1.0000multiplexer slope coefficient	1.0000fibre end	0.00T internal ref (°C)	30.58T ext. ref 1 (°C)	4.75T ext. ref 2 (°C)	25.73length (m)	temperature (°C)	Stokes	anti-Stokes-747.200	-62.319	0.149	-0.063
-746.185	383.576	-0.081	0.167
-745.171	-9.746	0.078	0.053
-744.156	67.470	-0.237	0.244
-743.142	43.062	0.118	-0.109
-742.127	132.649	-0.171	0.223
-741.112	-54.336	-0.041	-0.019
-740.098	-200.000	-0.009	0.064
-739.083	264.543	-0.103	-0.180
-738.069	244.933	0.080	0.135
-737.054	-121.935	-0.231	0.038
-736.039	248.683	0.094	0.160
-735.025	-11.971	0.109	0.072
-734.010	13.435	-0.276	-0.216
-732.996	86.057	0.102	-0.113
-731.981	800.000	-0.147	-0.441
-730.966	-56.341	0.387	0.173
-729.952	800.000	0.096	0.383
-728.937	80.374	0.040	0.043
-727.923	29.699	0.179	-0.154
-726.908	616.596	0.117	-0.295
-725.894	-163.320	-0.346	0.017
-724.879	-200.000	-0.004	-0.030
-723.864	-14.206	0.056	-0.037
-722.850	-69.338	0.214	-0.083
-721.835	-84.416	-0.080	-0.026
-720.821	800.000	-0.029	-0.122
-719.806	12.782	-0.045	-0.035
-718.791	176.829	-0.055	-0.081
-717.777	362.580	0.274	0.554
-716.762	195.242	-0.217	-0.332
-715.748	-72.780	-0.222	-0.082
-714.733	366.869	0.120	0.244
-713.718	165.869	0.087	0.124
-712.704	639.134	0.066	0.170
-711.689	-200.000	0.003	-0.044
-710.675	-159.124	0.103	-0.006
-709.660	161.320	-0.207	0.292
-708.645	516.525	-0.131	-0.309
-707.631	-59.803	-0.272	-0.117
-706.616	105.272	-0.227	-0.269
-705.602	4.511	-0.075	-0.055
-704.587	-37.218	-0.102	0.055
-703.572	-200.000	0.037	-0.324
-702.558	106.721	0.255	-0.305
-701.543	215.745	0.212	-0.340
-700.529	-37.336	-0.032	-0.017
-699.514	-85.061	-0.075	-0.024
-698.499	-200.000	-0.044	-0.207
-697.485	-120.818	-0.514	-0.087
-696.470	37.978	-0.419	-0.375
-695.456	800.000	0.150	-0.517
-694.441	800.000	0.114	-0.389
-693.426	274.391	-0.089	-0.158
-692.412	800.000	-0.056	-0.196
-691.397	-200.000	0.007	0.313
-690.383	-200.000	-0.010	-0.078
-689.368	-14.334	-0.151	-0.098
-688.354	800.000	0.027	0.086
-687.339	-159.778	-0.186	0.010
-686.324	245.201	0.031	0.052
-685.310	-200.000	-0.020	0.127
-684.295	-139.591	0.215	0.023
-683.281	-65.923	-0.480	-0.193
-682.266	368.332	-0.100	-0.204
-681.251	-200.000	-0.006	-0.166
-680.237	140.884	-0.049	-0.065
-679.222	-61.302	-0.278	0.118
-678.208	-55.112	-0.183	-0.083
-677.193	-200.000	-0.005	-0.129
-676.178	-158.118	-0.205	0.012
-675.164	-162.303	0.392	-0.020
-674.149	-71.673	-0.210	-0.079
-673.135	53.495	0.125	0.121
-672.120	-12.559	-0.238	-0.156
-671.105	800.000	-0.029	-0.100
-670.091	-33.327	-0.103	-0.057
-669.076	21.891	0.188	0.154
-668.062	800.000	-0.076	0.335
-667.047	-113.238	-0.378	-0.075
-666.032	-105.827	-0.331	-0.075
-665.018	-93.270	0.229	-0.064
-664.003	-186.607	0.108	-0.002
-662.989	800.000	0.077	0.230
-661.974	800.000	-0.046	-0.170
-660.959	800.000	0.070	0.235
-659.945	-60.550	-0.112	-0.048
-658.930	28.644	0.312	-0.265
-657.916	30.382	0.265	-0.228
-656.901	-14.001	0.249	-0.161
-655.886	-71.108	-0.283	0.107
-654.872	-144.402	-0.167	0.016
-653.857	16.827	0.170	0.135
-652.843	-81.182	0.203	-0.068
-651.828	-200.000	0.058	-0.293
-650.814	-71.024	0.082	0.031
-649.799	130.641	0.027	0.035
-648.784	147.857	-0.111	0.150
-647.770	319.276	0.233	-0.444
-646.755	-102.320	0.370	0.089
-645.741	-3.663	0.207	0.144
-644.726	67.551	0.235	0.241
-643.711	-200.000	0.056	-0.295
-642.697	96.000	-0.114	-0.131
-641.682	28.364	-0.271	0.230
-640.668	-200.000	-0.053	0.270
-639.653	27.196	-0.156	0.131
-638.638	176.594	0.068	0.099
-637.624	-200.000	-0.001	0.304
-636.609	288.841	0.142	0.258
-635.595	-91.158	-0.214	-0.062
-634.580	-107.464	-0.371	-0.082
-633.565	-51.677	0.075	-0.035
-632.551	12.641	-0.497	0.385
-631.536	-200.000	0.033	0.273
-630.522	382.797	0.040	-0.082
-629.507	207.082	0.030	0.047
-628.492	795.367	-0.078	-0.215
-627.478	-18.092	-0.138	-0.087
-626.463	-132.581	-0.209	-0.027
-625.449	-45.618	-0.114	0.057
-624.434	43.756	0.071	0.065
-623.419	-200.000	0.070	-0.474
-622.405	381.281	-0.209	-0.431
-621.390	-120.499	-0.216	-0.037
-620.376	-21.102	0.194	0.119
-619.361	800.000	-0.021	0.087
-618.346	-116.427	-0.247	0.046
-617.332	144.840	0.179	-0.240
-616.317	800.000	0.073	-0.244
-615.303	265.934	0.076	0.133
-614.288	424.514	0.107	-0.230
-613.273	-139.204	0.063	0.007
-612.259	540.554	-0.077	-0.183
-611.244	-124.039	-0.213	0.034
-610.230	334.120	0.063	0.123
-609.215	28.041	-0.088	-0.074
-608.201	304.484	0.151	-0.281
-607.186	12.766	-0.180	-0.140
-606.171	-127.360	0.182	0.027
-605.157	-124.469	-0.311	-0.049
-604.142	40.830	-0.180	-0.163
-603.128	430.760	-0.081	0.177
-602.113	-200.000	0.007	-0.366
-601.098	129.105	-0.208	-0.266
-600.084	-76.464	0.054	0.019
-599.069	-200.000	0.008	-0.084
-598.055	-200.000	0.027	0.172
-597.040	-0.040	-0.273	0.195
-596.025	162.103	0.173	-0.243
-595.011	-200.000	0.024	-0.128
-593.996	-84.876	0.459	0.145
-592.982	247.292	0.118	-0.199
-591.967	65.144	0.272	-0.275
-590.952	34.891	0.185	0.163
-589.938	218.033	-0.029	-0.047
-588.923	38.643	-0.182	-0.163
-587.909	540.352	-0.041	-0.098
-586.894	96.503	-0.031	0.035
-585.879	210.167	0.096	-0.151
-584.865	800.000	-0.055	-0.179
-583.850	-200.000	0.008	-0.057
-582.836	-200.000	0.067	0.429
-581.821	800.000	0.093	0.307
-580.806	-97.042	0.127	-0.033
-579.792	237.415	-0.132	0.219
-578.777	145.175	-0.248	0.333
-577.763	633.994	0.027	-0.069
-576.748	-119.591	-0.241	-0.042
-575.733	-46.724	-0.172	-0.084
-574.719	24.632	-0.346	-0.287
-573.704	53.634	0.227	0.218
-572.690	-200.000	-0.029	0.147
-571.675	85.729	-0.282	-0.310
-570.661	456.534	0.181	-0.403
-569.646	-200.000	0.017	-0.383
-568.631	224.978	0.188	0.304
-567.617	88.621	0.079	0.088
-566.602	-115.026	-0.381	-0.073
-565.588	-200.000	-0.042	-0.289
-564.573	55.194	-0.213	0.206
-563.558	312.284	-0.148	-0.278
-562.544	-200.000	0.039	0.208
-561.529	138.101	0.118	-0.155
-560.515	-68.474	-0.357	-0.139
-559.500	210.028	0.162	-0.255
-558.485	800.000	-0.057	-0.190
-557.471	55.391	-0.136	0.132
-556.456	439.854	-0.057	0.125
-555.442	-200.000	0.005	0.111
-554.427	-200.000	-0.018	-0.198
-553.412	800.000	0.017	-0.062
-552.398	171.680	-0.154	0.221
-551.383	-155.155	-0.115	-0.008
-550.369	-200.000	-0.038	0.292
-549.354	-200.000	-0.015	0.117
-548.339	24.421	0.159	-0.131
-547.325	338.968	-0.046	0.089
-546.310	26.730	0.127	0.106
-545.296	-34.963	0.101	0.055
-544.281	84.011	-0.099	-0.108
-543.266	-39.981	0.162	-0.084
-542.252	1.946	-0.078	-0.057
-541.237	-81.388	-0.421	0.139
-540.223	56.106	-0.103	-0.100
-539.208	87.496	0.067	0.074
-538.193	142.992	0.082	0.109
-537.179	-119.997	0.531	0.091
-536.164	-200.000	0.009	-0.148
-535.150	520.965	-0.067	-0.158
-534.135	227.283	0.155	0.252
-533.121	-200.000	-0.001	0.146
-532.106	-200.000	0.010	0.261
-531.091	-200.000	0.077	-0.370
-530.077	-26.271	-0.057	-0.034
-529.062	800.000	-0.094	0.281
-528.048	-169.406	0.298	0.011
-527.033	55.988	-0.282	-0.274
-526.018	53.360	0.199	-0.191
-525.004	-71.981	0.359	0.133
-523.989	167.991	0.181	-0.258
-522.975	-45.392	-0.287	-0.142
-521.960	303.496	0.022	-0.040
-520.945	-120.030	-0.341	0.058
-519.931	800.000	0.041	0.118
-518.916	8.277	0.149	0.112
-517.902	22.679	0.070	0.057
-516.887	129.932	-0.127	0.163
-515.872	800.000	-0.016	0.053
-514.858	127.137	0.060	-0.076
-513.843	-159.201	0.149	0.008
-512.829	-76.910	-0.058	-0.020
-511.814	-152.596	0.084	-0.006
-510.799	-19.640	0.055	0.034
-509.785	31.569	-0.065	0.056
-508.770	-39.138	0.056	-0.029
-507.756	-155.115	-0.253	0.017
-506.741	66.767	-0.205	-0.209
-505.726	-74.392	0.333	-0.120
-504.712	-48.023	0.050	0.024
-503.697	103.497	0.166	-0.195
-502.683	212.633	0.198	0.313
-501.668	555.832	0.085	0.205
-500.653	-14.575	-0.265	-0.170
-499.639	339.226	-0.175	0.340
-498.624	-6.813	0.128	-0.087
-497.610	-99.503	0.101	-0.025
-496.595	-200.000	-0.043	0.211
-495.581	-164.118	-0.156	0.007
-494.566	-200.000	0.007	0.082
-493.551	26.632	0.076	-0.064
-492.537	-141.068	0.323	-0.033
-491.522	-200.000	0.060	0.324
-490.508	666.967	0.056	0.144
-489.493	-40.619	-0.130	-0.068
-488.478	142.309	-0.105	-0.139
-487.464	-12.894	-0.227	-0.148
-486.449	370.188	-0.061	0.123
-485.435	-102.545	0.207	0.049
-484.420	-1.661	-0.263	0.185
-483.405	-13.782	0.286	-0.184
-482.391	-94.114	0.292	-0.080
-481.376	-200.000	0.007	0.184
-480.362	-200.000	0.072	-0.396
-479.347	111.236	0.134	-0.161
-478.332	-61.104	0.086	-0.036
-477.318	-91.817	0.178	-0.050
-476.303	-200.000	-0.002	0.222
-475.289	-163.096	0.189	-0.009
-474.274	-200.000	0.012	0.087
-473.259	-200.000	0.005	-0.132
-472.245	-200.000	0.033	0.159
-471.230	-40.744	-0.302	0.156
-470.216	-114.806	-0.272	-0.052
-469.201	615.533	-0.138	-0.346
-468.186	56.401	0.126	-0.122
-467.172	-46.017	-0.255	0.125
-466.157	-58.172	0.176	0.077
-465.143	800.000	0.058	-0.170
-464.128	-67.638	0.159	-0.062
-463.113	-74.760	-0.014	0.005
-462.099	196.888	-0.086	-0.131
-461.084	-17.084	0.232	-0.146
-460.070	-84.801	0.163	0.051
-459.055	-50.098	-0.395	-0.186
-458.040	800.000	0.044	-0.161
-457.026	800.000	-0.016	0.047
-456.011	58.539	0.160	0.157
-454.997	1.240	-0.273	-0.195
-453.982	77.079	0.096	-0.102
-452.968	-200.000	0.012	0.095
-451.953	-200.000	-0.001	0.315
-450.938	-2.566	-0.191	0.133
-449.924	800.000	0.045	-0.153
-448.909	15.531	0.288	0.226
-447.895	-200.000	0.046	0.213
-446.880	175.860	-0.083	-0.120
-445.865	-49.567	-0.108	-0.051
-444.851	-200.000	0.004	0.065
-443.836	-167.432	0.054	-0.002
-442.822	537.134	-0.036	-0.086
-441.807	184.869	-0.142	-0.209
-440.792	409.017	-0.097	-0.205
-439.778	333.486	0.226	-0.435
-438.763	-200.000	0.015	-0.098
-437.749	165.939	0.196	-0.276
-436.734	-28.669	0.091	-0.052
-435.719	-0.092	0.153	-0.109
-434.705	335.205	-0.017	-0.033
-433.690	-103.497	-0.363	0.085
-432.676	91.482	-0.156	0.174
-431.661	800.000	0.085	0.259
-430.646	259.292	-0.100	0.172
-429.632	215.774	-0.204	0.322
-428.617	109.196	0.097	0.116
-427.603	-158.001	0.112	0.007
-426.588	118.026	-0.057	-0.070
-425.573	43.828	0.211	0.192
-424.559	216.724	0.158	-0.250
-423.544	481.975	-0.021	-0.048
-422.530	-70.013	0.228	0.086
-421.515	-124.675	-0.418	0.065
-420.500	116.407	0.127	0.155
-419.486	-200.000	0.028	0.288
-418.471	-200.000	0.014	-0.199
-417.457	800.000	0.071	0.287
-416.442	-168.562	0.112	0.004
-415.428	17.949	0.262	-0.208
-414.413	-200.000	0.067	-0.327
-413.398	85.383	-0.104	0.114
-412.384	-200.000	-0.015	0.174
-411.369	142.523	-0.114	0.151
-410.355	-93.027	-0.173	-0.048
-409.340	-11.709	-0.153	-0.100
-408.325	190.061	-0.053	0.079
-407.311	-19.390	-0.071	0.044
-406.296	-21.552	0.288	-0.175
-405.282	71.989	0.300	0.311
-404.267	-106.876	0.287	0.063
-403.252	-155.049	0.176	-0.012
-402.238	5.214	-0.220	-0.162
-401.223	800.000	0.085	0.335
-400.209	-200.000	-0.004	-0.345
-399.194	-118.223	-0.143	0.025
-398.179	-41.783	-0.291	-0.148
-397.165	261.639	-0.110	-0.189
-396.150	800.000	0.077	0.264
-395.136	4.100	0.076	0.055
-394.121	237.601	-0.193	-0.318
-393.106	-52.821	-0.274	-0.126
-392.092	-200.000	0.027	-0.120
-391.077	-121.533	-0.188	-0.031
-390.063	22.279	0.308	0.250
-389.048	-82.966	0.241	-0.077
-388.033	7.409	-0.156	0.116
-387.019	-10.536	-0.186	0.122
-386.004	151.009	0.298	0.403
-384.990	-53.802	-0.316	0.143
-383.975	-39.021	0.310	-0.162
-382.960	800.000	0.039	-0.151
-381.946	297.865	0.125	0.228
-380.931	438.924	0.027	0.059
-379.917	235.287	-0.123	-0.202
-378.902	-107.475	0.132	0.029
-377.888	-180.847	0.216	-0.004
-376.873	78.066	0.317	-0.336
-375.858	-154.932	0.287	0.019
-374.844	88.399	0.241	0.266
-373.829	-7.899	-0.266	0.178
-372.815	0.969	0.132	0.094
-371.800	13.068	0.140	0.107
-370.785	-151.718	-0.163	-0.012
-369.771	84.428	-0.299	-0.325
-368.756	800.000	-0.158	0.457
-367.742	-191.854	0.447	-0.004
-366.727	800.000	0.075	0.277
-365.712	-35.368	-0.114	0.062
-364.698	-110.047	0.084	-0.017
-363.683	163.547	0.013	0.018
-362.669	247.925	0.164	0.276
-361.654	-110.186	0.098	-0.020
-360.639	639.361	-0.030	0.075
-359.625	137.862	0.150	0.195
-358.610	800.000	0.042	0.155
-357.596	-200.000	0.020	0.261
-356.581	800.000	0.027	-0.093
-355.566	30.586	-0.192	0.163
-354.552	-84.289	0.224	-0.071
-353.537	-200.000	-0.046	-0.420
-352.523	323.897	0.187	-0.355
-351.508	-200.000	-0.043	0.187
-350.493	95.839	-0.080	-0.091
-349.479	51.560	-0.049	0.046
-348.464	425.314	-0.098	-0.210
-347.450	-51.097	0.369	0.172
-346.435	598.703	-0.046	0.113
-345.420	800.000	0.063	0.240
-344.406	19.572	-0.153	-0.122
-343.391	211.029	0.061	0.096
-342.377	-200.000	-0.018	-0.338
-341.362	-76.384	-0.021	0.007
-340.348	121.337	-0.303	-0.375
-339.333	-72.641	-0.213	0.078
-338.318	-38.267	0.123	-0.065
-337.304	-35.808	-0.074	-0.040
-336.289	63.809	0.085	-0.084
-335.275	-23.576	-0.092	-0.055
-334.260	497.725	0.072	-0.165
-333.245	-67.352	-0.277	0.108
-332.231	-106.059	-0.093	0.021
-331.216	-200.000	-0.017	-0.442
-330.202	-200.000	0.043	-0.232
-329.187	41.596	-0.225	0.202
-328.172	-200.000	0.095	-0.450
-327.158	626.326	-0.061	0.153
-326.143	12.449	-0.142	-0.108
-325.129	117.573	0.271	-0.331
-324.114	73.880	0.152	-0.158
-323.099	-111.855	0.277	-0.056
-322.085	-113.934	0.133	0.026
-321.070	-200.000	-0.016	-0.568
-320.056	514.824	0.052	0.120
-319.041	196.009	-0.148	0.223
-318.026	-144.835	-0.126	0.011
-317.012	-112.838	0.273	-0.054
-315.997	-200.000	0.043	0.235
-314.983	207.580	-0.095	0.148
-313.968	-200.000	0.000	-0.083
-312.953	800.000	-0.067	-0.290
-311.939	-200.000	0.028	0.168
-310.924	201.428	-0.046	0.070
-309.910	-146.443	-0.373	-0.032
-308.895	-200.000	0.012	0.157
-307.880	-99.211	0.028	-0.007
-306.866	394.219	0.060	-0.124
-305.851	-23.931	-0.095	-0.056
-304.837	84.449	-0.156	-0.170
-303.822	800.000	-0.095	0.281
-302.807	147.960	-0.088	-0.117
-301.793	-71.714	-0.360	0.133
-300.778	-200.000	0.004	0.428
-299.764	-110.192	0.171	0.035
-298.749	328.980	-0.096	0.183
-297.735	306.653	0.160	-0.295
-296.720	209.659	-0.255	0.397
-295.705	800.000	-0.047	0.146
-294.691	83.775	0.110	-0.119
-293.676	-78.535	-0.366	0.124
-292.662	-181.039	0.333	0.007
-291.647	-172.428	-0.224	-0.007
-290.632	-174.234	0.316	-0.009
-289.618	-182.507	0.369	0.007
-288.603	-105.744	-0.234	-0.052
-287.589	29.359	0.107	0.090
-286.574	-200.000	0.020	0.207
-285.559	338.334	-0.129	0.249
-284.545	219.456	-0.187	0.296
-283.530	800.000	-0.026	0.085
-282.516	-200.000	0.000	0.365
-281.501	-29.980	-0.190	0.107
-280.486	-78.757	0.203	-0.069
-279.472	36.363	0.147	-0.128
-278.457	800.000	0.033	-0.127
-277.443	-200.000	-0.046	0.211
-276.428	-154.557	-0.147	0.010
-275.413	-15.792	0.287	-0.181
-274.399	-143.319	0.101	0.010
-273.384	-200.000	-0.225	-0.001
-272.370	40.861	-0.151	-0.135
-271.355	-200.000	0.069	0.000
-270.340	732.491	0.044	-0.118
-269.326	-178.457	-0.093	0.002
-268.311	21.226	-0.174	-0.140
-267.297	12.951	0.133	-0.102
-266.282	-200.000	-0.006	-0.175
-265.267	-200.000	-0.045	0.349
-264.253	-34.507	-0.210	-0.114
-263.238	-200.000	0.010	-0.271
-262.224	120.182	-0.104	0.128
-261.209	-195.845	-0.364	0.003
-260.195	347.953	-0.111	-0.217
-259.180	-200.000	0.009	-0.166
-258.165	1.807	-0.432	0.308
-257.151	-164.197	-0.290	0.013
-256.136	800.000	-0.010	0.043
-255.122	-19.197	0.224	-0.137
-254.107	-125.587	-0.068	0.010
-253.092	41.346	-0.130	-0.117
-252.078	179.683	-0.137	-0.198
-251.063	-200.000	-0.002	-0.050
-250.049	118.637	0.018	-0.022
-249.034	-200.000	-0.025	-0.143
-248.019	48.114	0.231	-0.213
-247.005	30.183	0.067	0.057
-245.990	137.600	0.131	-0.170
-244.976	603.997	-0.117	-0.288
-243.961	-28.086	-0.148	0.085
-242.946	-73.575	0.118	0.042
-241.932	-200.000	0.008	0.288
-240.917	-13.078	0.040	0.026
-239.903	-71.399	0.279	0.103
-238.888	800.000	-0.073	0.313
-237.873	-50.442	0.067	-0.031
-236.859	-66.840	0.027	0.011
-235.844	-41.827	0.122	-0.062
-234.830	-167.032	0.134	0.005
-233.815	-160.001	-0.224	0.012
-232.800	-200.000	0.015	0.386
-231.786	432.535	0.194	0.416
-230.771	-59.092	-0.156	0.066
-229.757	-45.768	0.230	0.112
-228.742	119.689	-0.071	0.087
-227.727	-85.193	0.256	-0.079
-226.713	800.000	0.041	-0.139
-225.698	135.880	-0.131	0.168
-224.684	-112.773	0.208	0.041
-223.669	10.272	0.071	-0.053
-222.655	-14.104	-0.256	0.163
-221.640	-200.000	-0.025	-0.174
-220.625	-64.685	0.226	0.090
-219.611	-122.500	-0.467	-0.075
-218.596	800.000	0.157	-0.468
-217.582	-200.000	0.012	0.065
-216.567	-155.647	0.167	-0.011
-215.552	720.718	0.048	-0.127
-214.538	-110.893	-0.239	0.049
-213.523	-200.000	0.000	-0.133
-212.509	-200.000	-0.026	0.193
-211.494	-95.573	0.400	-0.106
-210.479	-70.436	-0.508	0.190
-209.465	336.148	0.170	0.326
-208.450	165.949	0.069	0.096
-207.436	800.000	-0.052	0.215
-206.421	436.671	-0.099	-0.213
-205.406	-165.048	0.680	-0.030
-204.392	20.778	0.027	-0.022
-203.377	-59.643	-0.308	0.130
-202.363	43.017	-0.020	-0.018
-201.348	-61.307	0.505	-0.210
-200.333	-29.994	0.137	0.077
-199.319	365.193	-0.111	0.221
-198.304	-200.000	0.069	-0.550
-197.290	101.022	-0.121	0.139
-196.275	176.719	-0.213	-0.305
-195.260	-27.176	0.392	-0.226
-194.246	-68.433	0.171	-0.065
-193.231	-12.545	-0.292	0.188
-192.217	-174.170	0.198	0.006
-191.202	60.354	0.144	-0.141
-190.187	22.826	-0.122	-0.099
-189.173	31.891	-0.221	0.188
-188.158	-200.000	0.071	0.387
-187.144	-200.000	-0.024	-0.114
-186.129	-61.619	-0.458	0.190
-185.114	-44.403	-0.360	0.178
-184.100	-38.443	0.129	-0.067
-183.085	-106.584	0.087	-0.019
-182.071	-200.000	0.014	-0.178
-181.056	-30.531	-0.185	0.104
-180.042	101.147	-0.471	0.541
-179.027	-200.000	0.031	-0.312
-178.012	-10.449	-0.229	0.150
-176.998	-200.000	-0.060	0.382
-175.983	-154.744	-0.146	0.010
-174.969	608.930	0.060	0.147
-173.954	28.240	0.134	-0.111
-172.939	127.898	0.108	-0.135
-171.925	162.459	0.185	0.256
-170.910	-134.486	0.341	-0.041
-169.896	95.137	0.254	0.285
-168.881	-131.665	-0.200	0.026
-167.866	41.297	-0.317	0.283
-166.852	31.510	0.306	-0.260
-165.837	-132.484	-0.059	-0.008
-164.823	-71.234	0.088	0.032
-163.808	159.718	-0.107	0.148
-162.793	800.000	0.038	-0.108
-161.779	-74.713	-0.075	0.027
-160.764	60.883	-0.079	-0.077
-159.750	-139.909	0.477	0.050
-158.735	-136.104	-0.125	-0.014
-157.720	360.527	0.088	-0.174
-156.706	800.000	-0.039	-0.153
-155.691	5.456	0.104	-0.075
-154.677	-91.299	0.169	0.048
-153.662	13.305	0.174	0.133
-152.647	-200.000	-0.016	-0.180
-151.633	-200.000	0.064	-0.358
-150.618	-68.161	-0.128	-0.049
-149.604	-200.000	-0.007	-0.048
-148.589	101.217	0.106	0.121
-147.574	-87.322	0.108	-0.032
-146.560	-200.000	-0.025	-0.181
-145.545	605.947	0.068	-0.167
-144.531	800.000	-0.073	-0.306
-143.516	582.444	-0.006	0.015
-142.502	-93.019	-0.229	0.063
-141.487	-119.113	-0.170	0.029
-140.472	-200.000	0.021	0.238
-139.458	-200.000	-0.007	0.216
-138.443	800.000	-0.007	-0.025
-137.429	-103.812	0.073	0.017
-136.414	-200.000	-0.041	0.354
-135.399	330.350	0.115	-0.219
-134.385	6.742	0.068	-0.050
-133.370	-172.972	0.052	-0.002
-132.356	-63.142	0.215	0.087
-131.341	217.263	-0.076	0.120
-130.326	-78.304	-0.062	0.021
-129.312	-120.070	0.117	-0.020
-128.297	85.405	0.032	0.035
-127.283	400.687	0.079	0.164
-126.268	-26.007	0.121	0.070
-125.253	-174.504	-0.275	0.008
-124.239	-200.000	-0.018	0.210
-123.224	601.266	-0.112	-0.275
-122.210	-19.698	-0.258	-0.157
-121.195	-94.327	-0.210	0.057
-120.180	279.659	0.102	0.180
-119.166	800.000	0.037	-0.114
-118.151	159.225	0.049	0.068
-117.137	-82.217	0.164	-0.053
-116.122	132.263	-0.157	-0.199
-115.107	-133.013	-0.038	0.005
-114.093	-94.288	-0.331	-0.089
-113.078	-124.465	0.193	-0.030
-112.064	-62.395	0.111	-0.045
-111.049	-130.830	0.291	-0.038
-110.034	-57.728	0.086	0.037
-109.020	-123.002	-0.340	0.054
-108.005	-47.641	0.294	-0.140
-106.991	380.225	-0.102	-0.205
-105.976	389.515	0.171	-0.348
-104.962	340.719	0.069	0.132
-103.947	460.954	0.188	-0.413
-102.932	800.000	0.052	0.197
-101.918	223.311	-0.154	0.244
-100.903	455.155	-0.112	0.244
-99.889	684.677	0.068	-0.174
-98.874	269.769	-0.130	-0.225
-97.859	-118.469	0.140	0.024
-96.845	-38.237	0.161	-0.084
-95.830	19.037	0.249	0.196
-94.816	-60.484	0.150	-0.063
-93.801	-200.000	0.025	-0.223
-92.786	-32.912	0.300	0.164
-91.772	-43.911	0.071	-0.035
-90.757	54.850	0.272	-0.258
-89.743	-25.268	-0.044	0.026
-88.728	-200.000	0.007	-0.095
-87.713	-81.656	0.102	0.033
-86.699	-89.948	0.187	0.054
-85.684	103.918	-0.119	0.137
-84.670	-45.134	0.252	0.123
-83.655	-200.000	-0.017	0.250
-82.640	-59.462	0.186	-0.079
-81.626	-44.298	0.225	0.111
-80.611	368.656	-0.087	-0.173
-79.597	-43.339	0.227	-0.113
-78.582	209.376	0.062	0.096
-77.567	-107.819	0.204	-0.044
-76.553	-141.029	0.269	-0.027
-75.538	279.187	-0.062	-0.108
-74.524	4.984	0.082	0.060
-73.509	-70.015	-0.129	-0.048
-72.494	-136.744	-0.408	0.046
-71.480	73.654	-0.092	-0.095
-70.465	140.031	-0.078	0.100
-69.451	-200.000	0.031	-0.261
-68.436	691.617	0.081	-0.207
-67.422	-33.780	-0.081	-0.044
-66.407	-97.025	-0.265	0.068
-65.392	100.568	0.191	0.218
-64.378	119.537	-0.224	0.272
-63.363	-153.483	0.295	0.020
-62.349	79.995	0.208	0.220
-61.334	205.796	-0.858	-1.310
-60.319	190.852	0.328	0.484
-59.305	800.000	-0.266	-0.880
-58.290	154.981	0.670	0.904
-57.276	527.348	0.603	1.396
-56.261	-200.000	102.140	590.156
-55.246	555.872	1434.202	3391.189
-54.232	186.149	2632.105	3843.919
-53.217	110.023	2281.309	2687.936
-52.203	39.860	1897.235	1672.125
-51.188	33.803	1685.790	1439.957
-50.173	31.149	1642.388	1383.188
-49.159	49.556	1693.650	1565.335
-48.144	50.734	1709.140	1588.445
-47.130	33.392	1668.154	1421.575
-46.115	30.673	1653.382	1388.673
-45.100	30.587	1648.488	1383.864
-44.086	30.625	1646.118	1382.100
-43.071	30.484	1643.267	1378.607
-42.057	30.377	1641.655	1376.409
-41.042	30.489	1639.363	1375.257
-40.027	30.519	1637.243	1373.648
-39.013	30.419	1635.617	1371.492
-37.998	30.324	1634.425	1369.736
-36.984	30.507	1632.781	1369.655
-35.969	30.632	1631.045	1369.059
-34.954	30.639	1629.643	1367.882
-33.940	30.640	1627.791	1366.280
-32.925	30.606	1626.209	1364.653
-31.911	30.609	1624.557	1363.230
-30.896	30.591	1622.820	1361.591
-29.881	30.525	1621.729	1360.135
-28.867	30.564	1619.609	1358.586
-27.852	30.572	1617.998	1357.240
-26.838	30.552	1616.357	1355.666
-25.823	30.650	1615.054	1355.235
-24.809	30.636	1613.952	1354.155
-23.794	30.657	1612.370	1352.927
-22.779	30.583	1611.073	1351.243
-21.765	30.590	1609.388	1349.828
-20.750	30.632	1607.271	1348.303
-19.736	30.607	1606.340	1347.290
-18.721	30.660	1604.770	1346.302
-17.706	30.578	1603.502	1344.589
-16.692	30.540	1602.203	1343.176
-15.677	30.600	1600.527	1342.151
-14.663	30.650	1599.119	1341.273
-13.648	30.629	1597.932	1340.072
-12.633	30.607	1596.610	1338.757
-11.619	30.559	1595.123	1337.111
-10.604	30.621	1593.290	1335.969
-9.590	30.701	1592.253	1335.618
-8.575	30.530	1591.121	1333.390
-7.560	30.552	1590.194	1332.716
-6.546	30.531	1589.078	1331.577
-5.531	30.599	1587.479	1330.673
-4.517	30.575	1585.908	1329.132
-3.502	30.601	1584.932	1328.444
-2.487	30.667	1583.521	1327.684
-1.473	30.321	1571.965	1315.485
-0.458	27.723	1553.114	1281.441
0.556	23.692	1553.988	1251.420
1.571	21.417	1578.313	1254.594
2.586	20.973	1592.209	1262.313
3.600	18.744	1539.126	1204.505
4.615	11.573	1432.173	1073.732
5.629	5.728	1371.289	991.122
6.644	4.864	1363.917	980.269
7.659	4.707	1362.993	978.530
8.673	4.687	1361.673	977.370
9.688	4.733	1359.971	976.353
10.702	4.670	1356.929	973.689
11.717	7.483	1362.288	995.107
12.731	14.511	1375.039	1048.666
13.746	18.960	1381.532	1081.570
14.761	18.762	1380.367	1079.322
15.775	17.694	1377.758	1070.483
16.790	16.675	1374.776	1061.682
17.804	15.874	1372.513	1054.825
18.819	15.474	1371.145	1051.177
19.834	15.179	1369.959	1048.326
20.848	15.002	1368.826	1046.259
21.863	14.726	1368.091	1043.880
22.877	14.637	1366.623	1042.112
23.892	14.588	1365.158	1040.597
24.907	14.606	1364.452	1040.083
25.921	14.662	1363.485	1039.603
26.936	14.678	1362.586	1038.924
27.950	14.681	1362.050	1038.440
28.965	14.754	1360.635	1037.723
29.980	14.894	1359.541	1037.665
30.994	14.889	1358.343	1036.630
32.009	14.997	1357.209	1036.338
33.023	15.100	1356.266	1036.167
34.038	14.751	1355.466	1033.303
35.053	14.850	1353.597	1032.401
36.067	14.765	1352.894	1031.247
37.082	14.807	1351.641	1030.462
38.096	14.944	1350.483	1030.330
39.111	14.870	1349.820	1029.277
40.126	14.851	1349.081	1028.509
41.140	14.639	1348.364	1026.563
42.155	14.555	1347.855	1025.570
43.169	14.523	1347.626	1025.109
44.184	14.463	1347.409	1024.482
45.199	14.514	1346.533	1024.042
46.213	14.627	1346.367	1024.515
47.228	14.716	1345.113	1024.018
48.242	14.680	1344.489	1023.235
49.257	14.717	1342.760	1022.051
50.271	14.703	1341.387	1020.828
51.286	14.706	1340.015	1019.714
52.301	14.790	1338.589	1019.050
53.315	14.669	1337.762	1017.593
54.330	14.561	1336.676	1016.019
55.344	14.571	1335.074	1014.777
56.359	14.653	1334.384	1014.657
57.374	14.543	1333.594	1013.300
58.388	14.481	1333.059	1012.428
59.403	14.467	1332.253	1011.637
60.417	14.467	1331.447	1010.940
61.432	14.487	1330.661	1010.374
62.447	14.467	1329.904	1009.590
63.461	14.405	1328.354	1007.947
64.476	14.359	1327.522	1006.946
65.490	14.505	1325.984	1006.573
66.505	14.439	1325.228	1005.514
67.520	14.431	1323.679	1004.203
68.534	14.502	1322.422	1003.585
69.549	14.576	1321.250	1003.051
70.563	14.422	1320.433	1001.418
71.578	14.303	1319.226	999.700
72.593	14.316	1318.306	998.991
73.607	14.247	1317.735	998.059
74.622	14.318	1316.903	997.766
75.636	14.259	1316.192	996.783
76.651	14.364	1315.620	996.893
77.666	14.316	1315.072	996.098
78.680	14.373	1314.593	995.988
79.695	14.439	1313.664	995.590
80.709	14.367	1313.602	995.030
81.724	14.526	1311.947	994.632
82.739	14.620	1311.655	994.886
83.753	14.702	1310.408	994.342
84.768	14.787	1309.605	994.149
85.782	14.767	1308.447	993.063
86.797	14.664	1307.340	991.523
87.812	14.672	1306.052	990.505
88.826	14.611	1304.985	989.247
89.841	14.655	1304.158	988.793
90.855	14.716	1302.921	988.132
91.870	14.753	1302.022	987.580
92.884	14.934	1301.086	987.851
93.899	14.839	1300.563	986.805
94.914	14.915	1299.640	986.465
95.928	14.830	1298.879	985.301
96.943	14.827	1298.223	984.697
97.957	14.896	1296.930	984.036
98.972	14.862	1295.874	982.946
99.987	14.927	1294.487	982.189
101.001	14.796	1293.824	980.834
102.016	14.770	1292.477	979.570
103.030	14.840	1292.074	979.588
104.045	14.773	1291.338	978.554
105.060	14.671	1289.744	976.660
106.074	14.609	1288.149	975.002
107.089	14.627	1286.782	973.988
108.103	14.456	1285.885	972.224
109.118	14.488	1284.475	971.260
110.133	14.550	1283.025	970.437
111.147	14.554	1281.860	969.493
112.162	14.588	1280.490	968.573
113.176	14.601	1279.218	967.596
114.191	14.586	1278.878	967.167
115.206	14.693	1277.435	966.613
116.220	14.484	1276.381	964.520
117.235	14.590	1275.112	964.086
118.249	14.581	1274.009	963.115
119.264	14.567	1273.202	962.340
120.279	14.636	1271.966	961.721
121.293	14.534	1271.112	960.398
122.308	14.500	1270.074	959.334
123.322	14.435	1269.137	958.170
124.337	14.407	1267.980	957.049
125.352	14.504	1266.775	956.611
126.366	14.397	1266.055	955.373
127.381	14.454	1264.690	954.583
128.395	14.474	1264.058	954.133
129.410	14.457	1262.880	953.067
130.424	14.567	1261.816	952.805
131.439	14.559	1261.267	952.262
132.454	14.503	1260.208	951.060
133.468	14.672	1259.033	951.051
134.483	14.666	1258.879	950.817
135.497	14.668	1257.359	949.595
136.512	14.701	1255.885	948.582
137.527	14.653	1254.654	947.301
138.541	14.674	1253.541	946.492
139.556	14.616	1252.081	944.979
140.570	14.724	1251.186	944.830
141.585	14.869	1249.954	944.636
142.600	14.733	1249.022	943.081
143.614	14.848	1247.990	942.865
144.629	14.884	1246.702	942.014
145.643	14.930	1245.785	941.498
146.658	14.903	1244.542	940.323
147.673	14.814	1243.032	938.598
148.687	14.775	1241.815	937.378
149.702	14.679	1240.681	935.902
150.716	14.668	1239.394	934.783
151.731	14.738	1238.280	934.255
152.746	14.749	1237.104	933.345
153.760	14.863	1235.678	932.821
154.775	14.919	1234.712	932.324
155.789	14.831	1234.566	931.641
156.804	14.886	1232.849	930.569
157.819	14.881	1232.029	929.836
158.833	15.001	1231.128	929.745
159.848	15.032	1230.094	929.054
160.862	15.094	1228.725	928.278
161.877	14.891	1227.562	926.194
162.892	14.773	1226.551	924.694
163.906	14.776	1226.157	924.332
164.921	14.811	1224.897	923.497
165.935	14.842	1224.259	923.106
166.950	14.875	1223.289	922.475
167.964	14.962	1222.562	922.323
168.979	14.917	1221.974	921.552
169.994	14.846	1221.433	920.670
171.008	14.973	1220.134	920.307
172.023	15.028	1219.690	920.193
173.037	15.080	1218.809	919.731
174.052	15.153	1217.797	919.290
175.067	14.971	1217.079	917.666
176.081	14.788	1216.081	915.833
177.096	14.909	1215.001	915.598
178.110	14.980	1213.900	915.074
179.125	14.933	1213.006	914.062
180.140	15.094	1211.327	913.600
181.154	15.046	1210.197	912.405
182.169	15.097	1209.155	911.812
183.183	15.095	1207.700	910.624
184.198	15.157	1207.066	910.404
185.213	15.163	1206.106	909.634
186.227	15.223	1205.125	909.137
187.242	15.247	1203.719	908.128
188.256	15.293	1202.965	907.725
189.271	15.333	1201.939	907.085
190.286	15.005	1201.173	904.653
191.300	14.981	1199.915	903.497
192.315	14.910	1199.128	902.443
193.329	14.917	1198.513	901.941
194.344	14.968	1198.251	901.936
195.359	15.053	1197.585	901.814
196.373	15.175	1196.977	901.931
197.388	15.280	1196.501	902.057
198.402	15.356	1196.260	902.207
199.417	15.360	1195.535	901.599
200.432	15.447	1195.016	901.598
201.446	15.407	1193.828	900.408
202.461	15.557	1192.724	900.298
203.475	15.529	1191.766	899.346
204.490	15.413	1190.592	897.761
205.504	15.451	1189.465	897.034
206.519	15.396	1188.208	895.713
207.534	15.435	1186.958	894.901
208.548	15.324	1186.334	893.760
209.563	15.382	1185.153	893.095
210.577	15.325	1184.629	892.320
211.592	15.438	1183.830	892.240
212.607	15.510	1183.347	892.181
213.621	15.502	1181.984	891.034
214.636	15.486	1181.437	890.453
215.650	15.561	1180.281	889.902
216.665	15.623	1179.072	889.241
217.680	15.641	1178.394	888.743
218.694	15.723	1177.418	888.365
219.709	15.739	1176.522	887.691
220.723	15.597	1176.136	886.575
221.738	15.586	1175.787	886.173
222.753	15.599	1174.848	885.456
223.767	15.690	1174.068	885.272
224.782	15.775	1173.679	885.346
225.796	15.854	1173.073	885.225
226.811	15.863	1171.894	884.307
227.826	15.828	1171.272	883.573
228.840	15.747	1170.766	882.687
229.855	15.736	1170.094	882.048
230.869	15.747	1168.840	881.080
231.884	15.595	1168.288	879.792
232.899	15.655	1167.175	879.188
233.913	15.667	1166.537	878.693
234.928	15.599	1165.847	877.740
235.942	15.534	1165.428	877.007
236.957	15.548	1164.589	876.369
237.972	15.544	1164.143	875.937
238.986	15.699	1162.961	875.780
240.001	15.624	1162.415	874.901
241.015	15.713	1161.253	874.411
242.030	15.775	1160.616	874.173
243.045	15.794	1159.874	873.635
244.059	15.763	1159.083	872.806
245.074	15.836	1158.561	872.710
246.088	15.887	1157.878	872.387
247.103	15.933	1156.704	871.659
248.117	16.056	1156.258	871.883
249.132	16.025	1155.813	871.311
250.147	16.196	1154.882	871.415
251.161	16.344	1153.895	871.359
252.176	16.276	1153.234	870.431
253.190	16.369	1153.001	870.657
254.205	16.381	1152.294	870.108
255.220	16.359	1151.887	869.611
256.234	16.356	1151.073	868.905
257.249	16.341	1150.249	868.128
258.263	16.425	1149.715	868.079
259.278	16.356	1149.382	867.395
260.293	16.359	1148.343	866.553
261.307	16.544	1147.920	867.103
262.322	16.417	1147.287	865.900
263.336	16.528	1146.263	865.619
264.351	16.526	1146.085	865.394
265.366	16.599	1145.116	864.961
266.380	16.353	1144.680	863.298
267.395	16.461	1143.792	863.104
268.409	16.452	1143.151	862.499
269.424	16.466	1141.953	861.589
270.439	16.472	1141.960	861.548
271.453	16.562	1140.862	861.101
272.468	16.379	1140.113	859.527
273.482	16.447	1139.269	859.163
274.497	16.518	1138.827	859.111
275.512	16.460	1138.102	858.198
276.526	16.428	1137.154	857.245
277.541	16.491	1136.123	856.711
278.555	16.554	1135.649	856.596
279.570	16.565	1135.015	856.098
280.585	16.655	1134.312	855.944
281.599	16.617	1133.791	855.286
282.614	16.629	1132.282	854.133
283.628	16.625	1131.497	853.444
284.643	16.513	1130.752	852.240
285.657	16.553	1129.695	851.570
286.672	16.592	1128.638	850.896
287.687	16.701	1128.069	850.938
288.701	16.621	1127.193	849.801
289.716	16.744	1126.539	849.852
290.730	16.745	1125.423	848.938
291.745	16.747	1125.083	848.615
292.760	16.692	1124.547	847.862
293.774	16.827	1123.572	847.729
294.789	16.943	1123.172	847.931
295.803	16.837	1122.979	847.181
296.818	16.641	1122.123	845.481
297.833	16.782	1120.630	844.982
298.847	16.867	1119.596	844.551
299.862	16.903	1118.909	844.137
300.876	16.882	1119.100	844.102
301.891	16.823	1118.496	843.279
302.906	17.027	1117.478	843.452
303.920	16.943	1116.946	842.560
304.935	17.094	1116.341	842.778
305.949	17.232	1115.301	842.601
306.964	17.076	1114.928	841.472
307.979	17.091	1114.090	840.841
308.993	17.050	1113.597	840.190
310.008	17.105	1112.786	839.775
311.022	17.118	1111.973	839.150
312.037	17.104	1110.814	838.133
313.052	17.058	1110.040	837.247
314.066	17.020	1109.036	836.231
315.081	16.979	1108.456	835.519
316.095	17.001	1107.877	835.116
317.110	17.064	1106.985	834.679
318.125	16.998	1106.552	833.954
319.139	16.938	1105.744	832.977
320.154	16.857	1105.053	831.985
321.168	16.974	1104.563	832.118
322.183	17.031	1103.965	831.872
323.197	17.002	1103.353	831.193
324.212	17.079	1102.709	831.011
325.227	17.066	1101.909	830.275
326.241	17.106	1101.690	830.230
327.256	17.000	1100.601	828.820
328.270	17.020	1100.029	828.411
329.285	17.041	1098.726	827.458
330.300	17.035	1098.115	826.898
331.314	17.030	1097.087	826.025
332.329	17.102	1096.055	825.523
333.343	17.175	1094.838	824.891
334.358	17.301	1094.437	825.127
335.373	17.188	1094.003	824.176
336.387	17.182	1093.013	823.331
337.402	17.357	1092.470	823.696
338.416	17.253	1091.799	822.613
339.431	17.439	1090.898	822.762
340.446	17.493	1090.223	822.441
341.460	17.500	1089.616	821.944
342.475	17.593	1089.285	822.071
343.489	17.565	1088.061	820.940
344.504	17.599	1087.132	820.330
345.519	17.559	1086.509	819.595
346.533	17.663	1085.360	819.153
347.548	17.638	1085.185	818.831
348.562	17.661	1084.519	818.366
349.577	17.500	1083.184	816.515
350.592	17.369	1082.814	815.534
351.606	17.492	1081.847	815.323
352.621	17.503	1081.060	814.710
353.635	17.494	1080.687	814.315
354.650	17.557	1079.273	813.474
355.665	17.474	1078.868	812.706
356.679	17.485	1078.849	812.669
357.694	17.661	1077.686	812.562
358.708	17.651	1077.135	812.027
359.723	17.702	1076.775	811.924
360.738	17.602	1076.287	811.012
361.752	17.612	1075.593	810.465
362.767	17.598	1074.679	809.636
363.781	17.809	1073.901	809.978
364.796	17.774	1073.768	809.643
365.810	17.869	1072.902	809.368
366.825	17.970	1072.521	809.486
367.840	17.968	1072.046	809.049
368.854	17.932	1071.861	808.665
369.869	17.958	1070.754	807.882
370.883	17.958	1070.021	807.257
371.898	17.878	1069.042	806.071
372.913	17.976	1068.465	806.027
373.927	18.112	1067.821	806.113
374.942	18.014	1067.824	805.578
375.956	18.139	1066.908	805.403
376.971	17.995	1066.611	804.432
377.986	18.067	1065.696	804.007
379.000	18.159	1065.428	804.167
380.015	18.171	1064.636	803.555
381.029	18.202	1064.100	803.226
382.044	18.160	1063.411	802.438
383.059	18.288	1062.513	802.288
384.073	18.200	1061.582	801.104
385.088	18.233	1061.071	800.802
386.102	18.250	1060.085	800.066
387.117	18.180	1058.821	798.715
388.132	18.149	1057.992	797.875
389.146	18.188	1057.460	797.584
390.161	18.113	1056.735	796.617
391.175	18.085	1055.874	795.768
392.190	18.144	1055.570	795.742
393.205	18.208	1054.786	795.378
394.219	18.366	1053.686	795.213
395.234	18.172	1052.926	793.668
396.248	18.121	1051.890	792.580
397.263	18.163	1050.877	791.943
398.278	18.229	1050.015	791.527
399.292	18.126	1049.574	790.646
400.307	18.101	1048.783	789.865
401.321	18.115	1048.030	789.294
402.336	18.124	1047.349	788.753
403.350	18.222	1046.774	788.702
404.365	18.250	1046.111	788.260
405.380	18.190	1045.602	787.533
406.394	18.187	1044.954	786.959
407.409	18.323	1044.383	787.084
408.423	18.406	1043.328	786.603
409.438	18.497	1042.655	786.444
410.453	18.465	1041.849	785.618
411.467	18.649	1041.305	785.983
412.482	18.618	1040.582	785.227
413.496	18.652	1040.156	784.990
414.511	18.700	1039.388	784.558
415.526	18.729	1039.143	784.437
416.540	18.775	1038.362	783.990
417.555	18.795	1037.517	783.374
418.569	18.771	1037.347	783.067
419.584	18.672	1037.053	782.325
420.599	18.659	1036.924	782.099
421.613	150.750	1402.358	1796.644
422.628	137.736	1455.541	1796.746
