DTS Sentinel unit serial number:	SN413079Multiplexer serial number:	ORYXHardware model number:	OX4-SRSoftware version number:	ORYX F/W v4.00 Oryx Data Collector v3.7.2.0data status	okinstallation	princeton_trtdifferential loss correction	single-endedforward channel	channel 2reverse channel	N/Adate	2019/09/12time	04:29:10forward acquisition time	60.00reverse acquisition time	0.00gamma	496.2192k internal	0.2327k external	0.2327temperature offset calibration	1.0101default loss term (dB/km)	0.3790temperature slope calibration	1.0000multiplexer offset coefficient	1.0000multiplexer slope coefficient	1.0000fibre end	0.00T internal ref (°C)	31.62T ext. ref 1 (°C)	2.27T ext. ref 2 (°C)	26.30length (m)	temperature (°C)	Stokes	anti-Stokes-747.200	120.807	0.201	-0.253
-746.185	-200.000	-0.034	-0.233
-745.171	-17.932	-0.158	-0.100
-744.156	136.519	0.087	0.115
-743.142	-68.888	0.135	0.053
-742.127	800.000	-0.071	0.308
-741.112	82.911	0.183	-0.200
-740.098	589.025	0.045	0.111
-739.083	-200.000	0.014	0.210
-738.069	800.000	0.077	0.293
-737.054	-68.354	-0.414	0.162
-736.039	-31.645	-0.262	-0.148
-735.025	-200.000	-0.005	0.180
-734.010	-66.432	0.063	0.025
-732.996	624.437	-0.052	-0.132
-731.981	3.216	0.278	-0.204
-730.966	125.175	-0.091	0.116
-729.952	-96.166	0.062	0.017
-728.937	90.243	-0.100	0.113
-727.923	23.681	-0.105	-0.087
-726.908	800.000	-0.078	-0.239
-725.894	-200.000	0.012	0.083
-724.879	-200.000	-0.304	-0.001
-723.864	146.328	0.018	-0.025
-722.850	271.252	-0.143	-0.253
-721.835	209.180	0.041	0.065
-720.821	-78.696	-0.430	0.148
-719.806	-200.000	0.004	0.110
-718.791	-200.000	0.061	0.301
-717.777	44.258	0.151	-0.139
-716.762	-200.000	0.039	0.183
-715.748	-200.000	-0.012	0.321
-714.733	-104.640	0.250	-0.058
-713.718	-200.000	0.029	-0.145
-712.704	-13.113	-0.124	-0.081
-711.689	51.567	-0.136	-0.130
-710.675	309.688	-0.074	-0.140
-709.660	90.911	0.302	0.340
-708.645	-101.040	0.218	-0.054
-707.631	-173.678	-0.364	0.011
-706.616	-162.170	-0.262	0.013
-705.602	-2.721	-0.301	-0.212
-704.587	457.742	-0.121	0.271
-703.572	-19.308	0.188	-0.118
-702.558	-155.643	-0.360	0.023
-701.543	800.000	-0.085	-0.248
-700.529	-169.078	0.087	-0.003
-699.514	270.074	0.074	0.131
-698.499	14.518	-0.240	-0.188
-697.485	-200.000	0.012	-0.325
-696.470	53.464	-0.120	-0.116
-695.456	-200.000	-0.021	-0.216
-694.441	357.227	0.114	-0.228
-693.426	-96.536	-0.254	-0.067
-692.412	-28.761	0.065	-0.038
-691.397	258.742	0.092	0.159
-690.383	-169.688	-0.147	0.005
-689.368	237.942	-0.102	-0.171
-688.354	-73.906	-0.215	-0.078
-687.339	209.070	0.078	0.123
-686.324	147.269	-0.111	0.150
-685.310	548.799	-0.069	-0.167
-684.295	-97.705	-0.399	-0.104
-683.281	800.000	0.036	-0.126
-682.266	-169.393	0.209	-0.008
-681.251	57.556	-0.109	0.107
-680.237	123.743	0.246	-0.310
-679.222	22.412	-0.181	-0.149
-678.208	-119.147	-0.387	-0.068
-677.193	-200.000	0.017	0.283
-676.178	-100.978	0.192	-0.047
-675.164	6.402	0.132	0.098
-674.149	403.651	-0.021	-0.044
-673.135	30.380	0.166	-0.143
-672.120	11.649	0.057	0.044
-671.105	443.014	0.041	0.091
-670.091	-125.782	-0.522	-0.079
-669.076	-173.282	0.330	-0.010
-668.062	144.285	0.104	0.140
-667.047	42.099	0.280	-0.255
-666.032	74.613	0.160	-0.169
-665.018	800.000	0.113	-0.377
-664.003	84.456	0.153	0.168
-662.989	-63.717	-0.247	-0.102
-661.974	428.287	0.126	-0.274
-660.959	-178.255	-0.164	-0.004
-659.945	1.215	-0.082	0.059
-658.930	20.541	-0.272	-0.221
-657.916	800.000	-0.107	0.300
-656.901	333.567	-0.061	0.118
-655.886	-133.700	0.147	-0.018
-654.872	373.721	-0.166	-0.339
-653.857	19.019	0.384	-0.309
-652.843	63.514	0.029	0.029
-651.828	800.000	0.092	-0.312
-650.814	-27.236	-0.082	-0.048
-649.799	56.859	-0.316	0.309
-648.784	-61.499	0.201	0.085
-647.770	308.550	-0.064	0.119
-646.755	-99.577	-0.211	-0.053
-645.741	800.000	-0.050	0.210
-644.726	300.315	0.248	0.459
-643.711	-162.024	-0.067	-0.003
-642.697	-9.806	-0.176	-0.118
-641.682	-200.000	-0.022	-0.274
-640.668	-2.659	0.334	-0.235
-639.653	-120.070	-0.252	-0.043
-638.638	-154.619	-0.324	-0.022
-637.624	2.441	-0.171	0.124
-636.609	-33.157	0.170	-0.094
-635.595	350.399	0.134	0.266
-634.580	-20.796	0.246	-0.151
-633.565	346.358	-0.216	-0.425
-632.551	677.540	0.081	-0.212
-631.536	-62.993	0.089	0.037
-630.522	7.697	0.013	0.010
-629.507	732.364	-0.028	0.076
-628.492	-51.749	-0.467	0.218
-627.478	69.314	-0.149	-0.154
-626.463	-200.000	0.068	-0.354
-625.449	-200.000	0.005	-0.186
-624.434	-120.285	0.420	-0.072
-623.419	-5.373	-0.046	-0.032
-622.405	307.142	0.102	0.190
-621.390	583.594	-0.130	0.320
-620.376	-68.774	-0.239	0.093
-619.361	-200.000	-0.052	-0.262
-618.346	-200.000	0.003	-0.278
-617.332	800.000	-0.059	-0.212
-616.317	-93.049	0.159	-0.044
-615.303	800.000	-0.068	0.251
-614.288	309.819	0.100	-0.187
-613.273	-109.739	-0.428	-0.090
-612.259	-196.276	-0.083	0.001
-611.244	-200.000	0.011	-0.084
-610.230	84.790	-0.110	0.121
-609.215	-200.000	-0.103	0.634
-608.201	459.147	0.093	0.207
-607.186	-82.853	0.070	0.023
-606.171	-30.535	0.307	0.175
-605.157	-157.882	0.132	-0.008
-604.142	185.467	-0.090	-0.133
-603.128	107.458	-0.131	0.157
-602.113	-112.465	-0.133	-0.027
-601.098	800.000	-0.040	0.151
-600.084	-77.960	-0.136	-0.047
-599.069	21.093	0.092	0.075
-598.055	23.711	-0.084	0.069
-597.040	-200.000	0.080	-0.384
-596.025	125.554	-0.185	-0.234
-595.011	-32.992	0.094	-0.052
-593.996	-75.116	-0.255	0.091
-592.982	61.784	0.109	0.108
-591.967	800.000	0.018	-0.072
-590.952	-168.340	0.288	-0.011
-589.938	340.927	0.143	0.280
-588.923	-13.184	-0.247	-0.160
-587.909	-200.000	-0.061	-0.441
-586.894	-200.000	0.062	-0.390
-585.879	800.000	-0.107	0.295
-584.865	21.051	0.147	-0.119
-583.850	90.080	0.233	-0.261
-582.836	-5.897	-0.334	-0.229
-581.821	88.521	0.124	-0.139
-580.806	61.067	-0.141	-0.140
-579.792	-200.000	0.039	-0.218
-578.777	697.438	-0.086	0.227
-577.763	-108.974	0.051	-0.011
-576.748	-74.401	0.093	0.034
-575.733	-50.724	0.128	0.060
-574.719	35.467	-0.042	0.037
-573.704	-58.638	-0.066	0.029
-572.690	-85.738	-0.215	-0.067
-571.675	-187.413	0.109	0.001
-570.661	-200.000	0.005	0.149
-569.646	-200.000	0.012	-0.206
-568.631	800.000	0.085	-0.289
-567.617	-39.020	-0.467	-0.246
-566.602	-200.000	-0.021	-0.299
-565.588	74.340	-0.171	-0.180
-564.573	2.036	-0.212	0.153
-563.558	-52.034	-0.140	-0.065
-562.544	579.284	-0.098	-0.241
-561.529	-138.953	-0.354	-0.038
-560.515	-200.000	-0.059	-0.528
-559.500	444.765	-0.084	-0.185
-558.485	542.176	0.078	0.187
-557.471	-151.565	0.454	0.034
-556.456	308.959	-0.362	-0.676
-555.442	28.334	0.142	0.120
-554.427	-71.342	0.147	0.055
-553.412	-69.890	-0.124	0.047
-552.398	-135.781	0.142	-0.017
-551.383	-75.118	-0.204	-0.073
-550.369	413.102	-0.122	-0.259
-549.354	-147.891	0.153	0.013
-548.339	546.725	-0.064	0.152
-547.325	800.000	-0.044	0.147
-546.310	-100.090	0.146	0.036
-545.296	-200.000	0.002	-0.171
-544.281	-200.000	-0.018	0.104
-543.266	94.990	0.122	-0.139
-542.252	-98.689	-0.237	-0.060
-541.237	-70.544	0.271	0.103
-540.223	-31.603	-0.170	-0.096
-539.208	-50.298	-0.213	-0.101
-538.193	300.515	-0.049	-0.090
-537.179	-200.000	-0.091	-0.454
-536.164	-52.136	-0.229	0.106
-535.150	9.456	-0.030	0.023
-534.135	-145.921	-0.094	0.008
-533.121	91.107	0.118	0.132
-532.106	800.000	0.065	0.193
-531.091	-63.989	-0.177	-0.072
-530.077	-200.000	0.023	-0.437
-529.062	-39.172	-0.119	-0.063
-528.048	416.443	0.104	0.222
-527.033	-200.000	-0.006	0.048
-526.018	194.168	-0.076	-0.115
-525.004	-200.000	-0.016	-0.127
-523.989	139.656	-0.123	-0.161
-522.975	-200.000	0.014	-0.273
-521.960	-200.000	-0.051	0.299
-520.945	43.721	0.104	-0.096
-519.931	800.000	-0.054	-0.161
-518.916	-20.053	-0.294	0.181
-517.902	-72.763	-0.496	-0.183
-516.887	140.935	0.062	-0.082
-515.872	800.000	-0.024	-0.070
-514.858	-151.559	-0.176	0.013
-513.843	-77.861	0.473	-0.163
-512.829	-163.327	-0.282	0.013
-511.814	-41.655	-0.184	-0.094
-510.799	226.154	-0.097	-0.158
-509.785	30.506	0.040	0.034
-508.770	-122.608	0.128	0.021
-507.756	-103.729	0.091	0.021
-506.741	-200.000	0.032	-0.164
-505.726	183.026	0.170	0.250
-504.712	275.088	-0.088	0.156
-503.697	-72.181	-0.413	0.153
-502.683	-92.693	0.289	0.081
-501.668	271.300	-0.094	0.165
-500.653	-132.514	0.216	0.028
-499.639	-121.095	0.144	-0.024
-498.624	-145.775	-0.367	0.033
-497.610	130.927	0.104	-0.133
-496.595	126.107	-0.178	-0.225
-495.581	229.918	-0.065	0.106
-494.566	11.600	-0.222	0.170
-493.551	-24.101	-0.317	0.189
-492.537	-200.000	0.013	-0.097
-491.522	18.776	0.096	0.076
-490.508	800.000	-0.076	-0.286
-489.493	-14.293	0.176	-0.113
-488.478	56.727	0.091	0.088
-487.464	-154.705	-0.085	0.006
-486.449	800.000	-0.059	0.184
-485.435	222.292	-0.048	-0.077
-484.420	-53.513	-0.448	-0.204
-483.405	-30.087	-0.435	-0.247
-482.391	279.745	-0.069	-0.123
-481.376	-200.000	0.083	-0.372
-480.362	41.622	-0.141	0.128
-479.347	-83.396	-0.107	0.034
-478.332	-133.746	0.096	0.012
-477.318	-148.004	0.261	-0.022
-476.303	-146.669	-0.175	0.015
-475.289	-141.162	0.517	-0.053
-474.274	-43.465	-0.209	-0.105
-473.259	42.224	-0.245	-0.222
-472.245	202.102	0.143	0.220
-471.230	94.268	-0.091	0.102
-470.216	-200.000	-0.001	0.191
-469.201	-101.278	0.091	-0.022
-468.186	-200.000	0.014	-0.341
-467.172	-194.508	-0.148	-0.001
-466.157	-131.816	0.381	0.050
-465.143	0.357	0.021	-0.015
-464.128	-66.357	-0.292	0.116
-463.113	-200.000	-0.005	-0.066
-462.099	-38.891	-0.243	-0.128
-461.084	-23.235	-0.382	-0.229
-460.070	-134.505	-0.276	0.034
-459.055	-152.424	-0.337	-0.024
-458.040	-92.417	0.159	0.044
-457.026	85.778	0.135	0.148
-456.011	303.067	0.128	0.236
-454.997	800.000	-0.067	0.203
-453.982	-200.000	-0.023	-0.161
-452.968	-116.961	-0.157	-0.029
-451.953	-153.274	0.162	-0.011
-450.938	92.449	-0.169	0.190
-449.924	-188.304	0.210	0.003
-448.909	-102.058	0.118	0.028
-447.895	81.991	-0.217	0.234
-446.880	73.292	0.089	-0.093
-445.865	-200.000	-0.014	0.144
-444.851	-48.166	-0.053	-0.025
-443.836	-200.000	0.016	0.197
-442.822	109.554	0.167	0.200
-441.807	-1.799	0.089	0.062
-440.792	-68.266	-0.263	0.102
-439.778	-22.460	0.270	-0.163
-438.763	-83.545	0.196	0.063
-437.749	-200.000	-0.048	0.214
-436.734	-200.000	0.024	0.179
-435.719	223.758	-0.144	-0.232
-434.705	-142.526	0.223	-0.022
-433.690	76.972	-0.071	-0.075
-432.676	278.707	0.135	-0.241
-431.661	11.904	-0.295	0.226
-430.646	120.686	0.130	0.161
-429.632	90.476	-0.328	0.366
-428.617	-91.878	0.273	-0.077
-427.603	102.968	0.092	0.108
-426.588	-200.000	0.049	0.266
-425.573	-146.966	0.302	-0.026
-424.559	-51.881	0.174	0.081
-423.544	-36.772	-0.487	-0.260
-422.530	800.000	0.050	0.149
-421.515	-200.000	0.007	0.061
-420.500	428.442	-0.056	0.120
-419.486	313.629	-0.059	-0.111
-418.471	-77.356	-0.181	0.063
-417.457	34.886	0.293	0.255
-416.442	800.000	0.064	-0.181
-415.428	800.000	0.079	0.341
-414.413	-200.000	-0.048	-0.243
-413.398	800.000	0.123	-0.429
-412.384	-84.867	-0.039	-0.012
-411.369	800.000	0.052	-0.155
-410.355	800.000	-0.071	-0.259
-409.340	-134.675	-0.179	0.022
-408.325	235.775	0.096	0.158
-407.311	-200.000	-0.009	-0.167
-406.296	800.000	-0.051	-0.166
-405.282	-139.806	-0.113	-0.012
-404.267	-14.253	0.382	0.245
-403.252	800.000	-0.048	0.134
-402.238	-92.263	-0.514	-0.144
-401.223	800.000	0.084	0.274
-400.209	-133.448	-0.207	0.026
-399.194	800.000	-0.040	-0.112
-398.179	-138.777	0.297	0.032
-397.165	-4.262	0.108	0.074
-396.150	-11.162	-0.404	-0.265
-395.136	24.488	0.125	-0.102
-394.121	-169.939	0.162	-0.006
-393.106	316.980	-0.126	0.236
-392.092	-200.000	-0.034	0.404
-391.077	-88.611	-0.228	-0.067
-390.063	-157.447	-0.080	0.005
-389.048	160.244	0.087	-0.121
-388.033	-112.213	0.139	0.028
-387.019	189.689	-0.173	-0.258
-386.004	44.695	0.286	-0.261
-384.990	203.542	0.158	0.244
-383.975	241.333	0.116	0.192
-382.960	-200.000	0.049	0.241
-381.946	-200.000	-0.049	0.370
-380.931	-168.765	0.123	-0.005
-379.917	-28.038	0.183	0.105
-378.902	-106.491	0.444	0.098
-377.888	-200.000	0.029	-0.190
-376.873	55.625	0.056	-0.054
-375.858	138.488	0.134	-0.175
-374.844	193.577	-0.117	-0.175
-373.829	800.000	0.053	0.220
-372.815	-44.038	0.008	-0.004
-371.800	-149.821	0.358	-0.028
-370.785	474.564	-0.100	0.225
-369.771	-24.339	-0.333	0.197
-368.756	-200.000	-0.026	0.361
-367.742	-92.108	0.247	0.069
-366.727	-200.000	0.018	0.264
-365.712	90.430	-0.184	0.205
-364.698	114.212	-0.154	-0.186
-363.683	-70.563	0.071	0.027
-362.669	-6.333	-0.207	0.140
-361.654	-200.000	0.024	0.192
-360.639	-200.000	-0.002	0.035
-359.625	800.000	0.079	-0.324
-358.610	159.000	0.137	-0.189
-357.596	-142.075	0.129	-0.013
-356.581	457.525	0.087	-0.191
-355.566	-122.239	0.046	-0.007
-354.552	-125.907	0.062	0.009
-353.537	-47.642	-0.229	-0.110
-352.523	47.202	0.141	-0.130
-351.508	8.557	-0.025	0.019
-350.493	136.813	0.139	-0.180
-349.479	-73.666	-0.243	-0.088
-348.464	34.323	0.184	0.159
-347.450	236.893	0.069	-0.114
-346.435	-28.285	-0.173	0.099
-345.420	-134.544	0.142	0.017
-344.406	47.801	-0.137	0.127
-343.391	-200.000	-0.078	0.376
-342.377	66.716	-0.146	-0.147
-341.362	-128.992	0.417	-0.058
-340.348	23.047	-0.202	0.165
-339.333	-42.846	0.134	-0.067
-338.318	206.460	0.207	0.319
-337.304	800.000	-0.086	0.335
-336.289	8.556	0.051	0.038
-335.275	137.005	0.370	0.480
-334.260	220.849	-0.103	0.164
-333.245	-118.398	0.183	-0.032
-332.231	59.197	0.228	-0.223
-331.216	800.000	-0.020	0.067
-330.202	-200.000	0.060	0.423
-329.187	344.411	-0.185	0.360
-328.172	368.131	-0.089	0.179
-327.158	-105.301	0.102	0.023
-326.143	-97.605	0.062	0.016
-325.129	-200.000	0.016	0.285
-324.114	-200.000	-0.003	0.241
-323.099	800.000	-0.108	-0.305
-322.085	193.744	-0.026	-0.040
-321.070	98.786	0.296	-0.338
-320.056	-48.987	-0.447	0.212
-319.041	215.681	-0.175	0.276
-318.026	79.247	0.228	-0.242
-317.012	13.687	0.184	0.142
-315.997	-200.000	-0.032	0.362
-314.983	-200.000	0.084	0.382
-313.968	-21.953	0.142	0.086
-312.953	59.323	0.098	-0.095
-311.939	18.406	0.035	-0.028
-310.924	646.032	0.087	0.220
-309.910	11.978	-0.199	0.151
-308.895	66.095	-0.199	-0.200
-307.880	371.819	0.182	0.366
-306.866	66.862	0.041	0.042
-305.851	-91.586	-0.287	-0.081
-304.837	139.562	0.141	0.184
-303.822	-43.063	0.205	0.103
-302.807	-113.336	-0.072	0.014
-301.793	527.842	-0.104	0.243
-300.778	25.401	0.268	0.221
-299.764	800.000	0.006	-0.022
-298.749	800.000	0.146	0.465
-297.735	122.540	-0.063	-0.078
-296.720	-33.131	0.259	0.142
-295.705	647.504	0.084	-0.211
-294.691	-200.000	-0.043	-0.259
-293.676	174.296	-0.119	-0.170
-292.662	-40.741	0.231	0.118
-291.647	149.357	0.062	0.083
-290.632	-120.901	-0.360	-0.060
-289.618	-200.000	0.047	-0.299
-288.603	58.428	0.102	-0.099
-287.589	-200.000	-0.036	-0.260
-286.574	-37.611	-0.173	-0.091
-285.559	800.000	-0.051	0.196
-284.545	-85.259	-0.171	0.053
-283.530	-200.000	0.010	0.169
-282.516	796.755	-0.099	0.269
-281.501	-124.642	-0.311	-0.048
-280.486	-193.706	0.140	-0.001
-279.472	-200.000	0.043	-0.401
-278.457	-42.014	-0.107	0.054
-277.443	504.085	-0.101	-0.232
-276.428	-69.161	0.454	-0.173
-275.413	355.284	0.037	0.073
-274.399	497.570	0.131	0.299
-273.384	-200.000	0.005	0.156
-272.370	-102.716	0.154	-0.036
-271.355	162.044	0.158	0.219
-270.340	109.707	0.065	0.077
-269.326	277.133	0.184	-0.324
-268.311	-91.367	-0.359	0.102
-267.297	-112.613	-0.294	0.058
-266.282	-7.964	-0.196	0.131
-265.267	-58.998	-0.124	-0.053
-264.253	-77.499	-0.423	0.145
-263.238	-146.136	0.407	0.035
-262.224	406.222	-0.240	0.502
-261.209	800.000	-0.033	-0.125
-260.195	-150.870	-0.172	0.013
-259.180	-92.785	-0.080	0.022
-258.165	800.000	0.073	0.234
-257.151	-200.000	-0.012	-0.161
-256.136	-74.393	0.245	0.087
-255.122	-16.133	-0.271	0.171
-254.107	-112.254	0.262	-0.052
-253.092	-200.000	-0.016	0.142
-252.078	21.938	0.287	-0.231
-251.063	1.511	0.306	0.218
-250.049	202.034	0.209	0.318
-249.034	-200.000	-0.008	-0.076
-248.019	140.995	0.035	-0.046
-247.005	-69.904	0.159	0.060
-245.990	68.882	-0.132	-0.134
-244.976	-45.824	-0.103	-0.050
-243.961	800.000	-0.027	-0.076
-242.946	81.146	0.158	0.168
-241.932	-200.000	0.236	-0.001
-240.917	99.376	-0.195	0.223
-239.903	-138.539	0.173	-0.019
-238.888	372.991	0.123	-0.248
-237.873	-49.233	0.145	0.068
-236.859	-200.000	0.022	-0.365
-235.844	165.662	0.121	-0.170
-234.830	71.594	0.010	-0.010
-233.815	177.148	0.080	0.115
-232.800	-200.000	-0.049	0.332
-231.786	-30.099	0.264	-0.148
-230.771	-103.778	-0.099	-0.023
-229.757	730.580	-0.073	-0.194
-228.742	-195.272	-0.183	-0.001
-227.727	-33.135	-0.322	-0.176
-226.713	442.460	-0.119	-0.257
-225.698	314.416	-0.103	-0.191
-224.684	-96.530	0.032	0.008
-223.669	60.995	-0.093	-0.091
-222.655	627.438	0.063	0.158
-221.640	800.000	-0.022	0.065
-220.625	17.903	0.053	0.042
-219.611	12.794	-0.076	-0.058
-218.596	171.142	0.075	0.107
-217.582	-97.288	-0.034	0.009
-216.567	-85.511	0.283	0.087
-215.552	-200.000	-0.001	-0.059
-214.538	-81.938	-0.171	-0.055
-213.523	643.263	-0.099	-0.250
-212.509	-50.171	0.343	0.160
-211.494	144.300	0.048	0.063
-210.479	800.000	-0.055	-0.195
-209.465	53.528	0.401	-0.380
-208.450	800.000	0.036	-0.119
-207.436	206.145	-0.186	-0.285
-206.421	-30.811	0.140	0.078
-205.406	169.857	0.237	0.334
-204.392	29.819	-0.234	0.197
-203.377	-175.916	0.180	-0.005
-202.363	-200.000	0.049	-0.270
-201.348	-65.368	0.181	0.072
-200.333	642.693	-0.047	0.118
-199.319	-200.000	0.023	-0.256
-198.304	171.393	0.069	0.098
-197.290	-200.000	0.018	-0.163
-196.275	-31.117	-0.038	-0.021
-195.260	-88.220	0.163	-0.048
-194.246	-28.306	-0.296	-0.168
-193.231	17.788	-0.218	-0.172
-192.217	-124.687	0.120	-0.018
-191.202	336.853	-0.083	0.158
-190.187	-79.674	0.044	0.015
-189.173	-4.501	-0.197	-0.134
-188.158	128.887	-0.145	0.182
-187.144	-131.449	-0.131	0.017
-186.129	-132.638	0.344	0.043
-185.114	-74.756	0.181	0.064
-184.100	11.923	0.327	-0.248
-183.085	394.031	0.027	0.056
-182.071	60.433	0.183	0.179
-181.056	98.634	-0.094	0.106
-180.042	26.138	0.150	0.124
-179.027	-143.337	0.173	-0.016
-178.012	-200.000	-0.015	-0.204
-176.998	-142.129	0.203	-0.020
-175.983	176.066	-0.134	-0.192
-174.969	-52.569	-0.265	-0.121
-173.954	-200.000	0.009	-0.115
-172.939	-10.341	-0.040	0.026
-171.925	101.231	0.056	-0.064
-170.910	-29.435	0.331	-0.186
-169.896	-73.559	0.274	0.098
-168.881	-200.000	0.047	-0.202
-167.866	-101.546	-0.100	0.024
-166.852	-35.366	0.193	-0.104
-165.837	-35.734	0.061	-0.032
-164.823	-200.000	0.068	-0.325
-163.808	286.671	0.107	0.191
-162.793	-3.643	0.147	0.101
-161.779	-164.140	0.427	-0.019
-160.764	-200.000	0.008	0.058
-159.750	800.000	-0.033	0.117
-158.735	-68.191	0.131	-0.050
-157.720	-131.396	0.305	0.040
-156.706	-200.000	-0.358	-0.001
-155.691	212.190	0.208	-0.322
-154.677	-78.574	0.142	-0.048
-153.662	44.389	0.089	0.081
-152.647	-121.798	-0.220	0.036
-151.633	73.728	0.044	0.045
-150.618	31.651	-0.044	-0.037
-149.604	515.950	0.159	-0.367
-148.589	800.000	0.072	-0.283
-147.574	-200.000	-0.005	-0.100
-146.560	-200.000	0.028	-0.196
-145.545	34.222	-0.161	-0.138
-144.531	89.464	0.187	0.205
-143.516	-34.580	0.074	-0.040
-142.502	-89.318	0.233	0.067
-141.487	104.248	-0.149	-0.173
-140.472	-86.979	-0.234	0.070
-139.458	373.163	-0.176	-0.352
-138.443	-78.752	0.320	0.107
-137.429	800.000	0.067	-0.210
-136.414	-200.000	-0.027	-0.119
-135.399	-27.457	-0.183	-0.105
-134.385	-50.166	-0.095	-0.044
-133.370	800.000	-0.114	0.331
-132.356	-106.880	-0.152	-0.033
-131.341	-147.531	-0.119	0.010
-130.326	-52.462	0.272	0.124
-129.312	199.149	-0.122	0.184
-128.297	25.416	0.199	-0.163
-127.283	303.559	0.029	0.053
-126.268	-75.357	0.163	0.057
-125.253	-200.000	0.006	-0.085
-124.239	149.340	-0.127	-0.169
-123.224	251.140	-0.050	0.084
-122.210	-137.352	0.460	-0.051
-121.195	-118.051	0.142	-0.025
-120.180	-200.000	0.006	0.049
-119.166	4.195	-0.017	-0.012
-118.151	-200.000	0.016	-0.189
-117.137	-182.254	0.161	0.003
-116.122	800.000	-0.084	0.285
-115.107	67.905	0.193	0.194
-114.093	-200.000	0.031	0.300
-113.078	443.641	-0.082	-0.178
-112.064	28.250	-0.253	-0.210
-111.049	800.000	-0.041	-0.139
-110.034	-105.484	-0.070	0.016
-109.020	-200.000	0.027	-0.137
-108.005	429.323	-0.141	-0.299
-106.991	-37.683	-0.140	-0.073
-105.976	0.173	0.235	-0.165
-104.962	-33.353	-0.115	0.063
-103.947	210.124	0.144	-0.223
-102.932	88.705	-0.036	-0.039
-101.918	302.229	-0.052	0.094
-100.903	800.000	0.031	-0.105
-99.889	-190.878	0.372	-0.004
-98.874	-200.000	-0.029	-0.205
-97.859	800.000	-0.059	0.245
-96.845	14.005	-0.121	0.093
-95.830	69.720	-0.192	-0.194
-94.816	-200.000	0.066	0.293
-93.801	82.452	-0.180	0.192
-92.786	168.613	0.216	-0.302
-91.772	15.377	-0.213	0.164
-90.757	-52.700	0.342	0.155
-89.743	-120.865	0.048	0.008
-88.728	-144.114	0.237	0.022
-87.713	107.193	-0.164	0.192
-86.699	800.000	0.108	-0.429
-85.684	800.000	-0.015	0.065
-84.670	64.213	0.230	0.227
-83.655	800.000	-0.041	0.130
-82.640	-33.357	-0.133	0.072
-81.626	-103.308	0.228	0.053
-80.611	178.107	-0.090	0.129
-79.597	-25.281	-0.227	-0.132
-78.582	-200.000	-0.000	0.116
-77.567	800.000	-0.144	0.429
-76.553	-21.232	-0.246	0.148
-75.538	36.347	-0.270	0.234
-74.524	-200.000	0.018	-0.342
-73.509	-97.849	-0.184	-0.047
-72.494	82.794	-0.058	0.062
-71.480	-30.678	0.148	0.082
-70.465	-54.377	0.230	-0.102
-69.451	87.613	-0.040	-0.044
-68.436	31.324	-0.141	0.119
-67.422	73.833	-0.212	0.218
-66.407	-7.140	-0.177	0.118
-65.392	-20.536	0.089	0.054
-64.378	-188.406	0.074	-0.001
-63.363	146.824	-0.140	0.184
-62.349	-189.631	-0.103	0.001
-61.334	109.275	-0.869	-1.021
-60.319	-70.477	0.777	0.289
-59.305	-200.000	-0.161	-1.173
-58.290	198.570	0.833	1.252
-57.276	800.000	0.420	1.389
-56.261	-200.000	97.135	597.039
-55.246	547.429	1375.311	3229.577
-54.232	160.631	2562.658	3509.437
-53.217	105.956	2262.270	2626.780
-52.203	40.996	1889.468	1673.610
-51.188	34.933	1680.481	1442.886
-50.173	32.194	1636.741	1385.112
-49.159	49.721	1684.198	1556.666
-48.144	51.348	1700.467	1583.799
-47.130	34.545	1660.293	1422.433
-46.115	31.711	1646.094	1389.226
-45.100	31.634	1641.215	1384.483
-44.086	31.555	1639.142	1382.099
-43.071	31.567	1636.054	1379.529
-42.057	31.510	1633.983	1377.309
-41.042	31.548	1631.799	1375.694
-40.027	31.567	1630.218	1374.446
-39.013	31.554	1628.037	1372.456
-37.998	31.445	1627.022	1370.745
-36.984	31.550	1625.211	1369.933
-35.969	31.699	1623.358	1369.404
-34.954	31.646	1621.927	1367.756
-33.940	31.574	1620.475	1365.956
-32.925	31.575	1618.539	1364.279
-31.911	31.661	1616.899	1363.461
-30.896	31.595	1615.349	1361.623
-29.881	31.708	1613.360	1360.711
-28.867	31.622	1611.391	1358.375
-27.852	31.661	1610.093	1357.513
-26.838	31.485	1608.897	1355.171
-25.823	31.533	1607.926	1354.652
-24.809	31.678	1605.552	1353.644
-23.794	31.715	1604.734	1353.169
-22.779	31.681	1603.391	1351.733
-21.765	31.648	1601.736	1350.051
-20.750	31.597	1600.221	1348.352
-19.736	31.545	1599.515	1347.328
-18.721	31.658	1597.369	1346.279
-17.706	31.685	1595.537	1344.873
-16.692	31.611	1594.688	1343.576
-15.677	31.589	1593.009	1341.952
-14.663	31.606	1592.187	1341.328
-13.648	31.721	1590.461	1340.639
-12.633	31.757	1588.099	1338.853
-11.619	31.688	1587.196	1337.549
-10.604	31.651	1585.464	1335.773
-9.590	31.667	1584.528	1335.042
-8.575	31.657	1583.339	1333.921
-7.560	31.713	1581.762	1332.934
-6.546	31.657	1580.905	1331.761
-5.531	31.671	1579.722	1330.813
-4.517	31.616	1578.918	1329.688
-3.502	31.663	1577.801	1329.033
-2.487	31.840	1575.349	1328.169
-1.473	31.421	1564.489	1316.010
-0.458	28.949	1545.945	1283.138
0.556	26.530	1548.380	1257.412
1.571	24.694	1572.848	1264.200
2.586	24.423	1586.420	1273.058
3.600	21.993	1532.701	1213.076
4.615	12.685	1422.666	1065.903
5.629	4.098	1356.497	963.039
6.644	2.404	1348.116	946.531
7.659	2.341	1347.003	945.274
8.673	2.189	1346.053	943.584
9.688	2.146	1343.948	941.762
10.702	1.932	1340.750	938.123
11.717	5.744	1348.333	966.894
12.731	15.967	1366.928	1043.786
13.746	24.154	1380.639	1105.178
14.761	26.467	1383.920	1122.073
15.775	26.867	1384.211	1124.687
16.790	27.003	1383.447	1124.813
17.804	27.054	1382.865	1124.558
18.819	27.298	1382.713	1125.842
19.834	27.340	1382.337	1125.695
20.848	27.315	1381.384	1124.669
21.863	27.462	1380.206	1124.517
22.877	27.311	1379.649	1123.032
23.892	27.387	1378.765	1122.682
24.907	27.351	1377.998	1121.735
25.921	27.428	1376.625	1120.990
26.936	27.225	1376.616	1119.635
27.950	27.322	1375.040	1118.852
28.965	27.392	1373.659	1118.059
29.980	27.413	1372.492	1117.139
30.994	27.430	1371.057	1115.975
32.009	27.427	1370.018	1115.013
33.023	27.324	1369.126	1113.560
34.038	27.336	1368.262	1112.829
35.053	27.333	1367.243	1111.884
36.067	27.376	1366.341	1111.317
37.082	27.392	1365.301	1110.466
38.096	27.369	1364.496	1109.577
39.111	27.337	1363.466	1108.442
40.126	27.386	1362.246	1107.654
41.140	27.349	1362.067	1107.183
42.155	27.431	1362.206	1107.698
43.169	27.415	1362.012	1107.345
44.184	27.359	1361.670	1106.630
45.199	27.352	1361.662	1106.478
46.213	27.291	1360.940	1105.427
47.228	27.304	1359.973	1104.620
48.242	27.474	1358.236	1104.141
49.257	27.400	1356.890	1102.506
50.271	27.315	1356.342	1101.448
51.286	27.398	1354.441	1100.309
52.301	27.376	1353.194	1099.063
53.315	27.284	1352.279	1097.668
54.330	27.467	1351.170	1097.773
55.344	27.393	1350.043	1096.314
56.359	27.269	1349.535	1095.059
57.374	27.338	1348.566	1094.589
58.388	27.404	1347.918	1094.368
59.403	27.444	1347.635	1094.276
60.417	27.422	1346.886	1093.442
61.432	27.237	1346.504	1091.921
62.447	27.276	1345.269	1091.060
63.461	27.441	1343.697	1090.679
64.476	27.410	1342.996	1089.824
65.490	27.496	1341.452	1088.991
66.505	27.417	1340.232	1087.433
67.520	27.380	1339.668	1086.657
68.534	27.409	1338.679	1085.934
69.549	27.410	1337.565	1084.939
70.563	27.336	1336.719	1083.715
71.578	27.510	1335.188	1083.414
72.593	27.361	1334.741	1082.071
73.607	27.397	1334.335	1081.860
74.622	27.443	1333.718	1081.532
75.636	27.486	1332.826	1080.972
76.651	27.381	1332.285	1079.814
77.666	27.464	1331.657	1079.703
78.680	27.241	1331.999	1078.562
79.695	27.354	1330.410	1077.847
80.709	27.365	1330.030	1077.512
81.724	27.357	1329.279	1076.756
82.739	27.408	1327.814	1075.778
83.753	27.374	1326.771	1074.639
84.768	27.335	1326.094	1073.762
85.782	27.355	1325.022	1072.921
86.797	27.499	1323.431	1072.381
87.812	27.361	1322.592	1070.798
88.826	27.415	1321.827	1070.402
89.841	27.382	1320.427	1068.976
90.855	27.459	1319.669	1068.723
91.870	27.394	1319.020	1067.722
92.884	27.467	1318.471	1067.609
93.899	27.482	1317.469	1066.789
94.914	27.413	1316.375	1065.407
95.928	27.451	1315.763	1065.037
96.943	27.480	1315.243	1064.692
97.957	27.457	1314.391	1063.778
98.972	27.515	1312.899	1062.813
99.987	27.428	1312.562	1061.940
101.001	27.359	1311.653	1060.709
102.016	27.568	1310.273	1060.713
103.030	27.428	1309.941	1059.533
104.045	27.432	1309.076	1058.766
105.060	27.522	1307.795	1058.157
106.074	27.484	1307.110	1057.293
107.089	27.625	1305.890	1057.030
108.103	27.547	1304.840	1055.630
109.118	27.537	1303.748	1054.597
110.133	27.510	1303.051	1053.785
111.147	27.502	1302.139	1052.908
112.162	27.607	1300.690	1052.251
113.176	27.497	1299.926	1050.903
114.191	27.547	1298.827	1050.210
115.206	27.647	1298.094	1050.100
116.220	27.534	1296.988	1048.461
117.235	27.512	1295.979	1047.428
118.249	27.445	1295.625	1046.661
119.264	27.500	1294.497	1045.973
120.279	27.544	1293.272	1045.144
121.293	27.593	1292.678	1044.853
122.308	27.581	1291.987	1044.132
123.322	27.596	1291.340	1043.607
124.337	27.576	1290.465	1042.693
125.352	27.590	1289.943	1042.254
126.366	27.446	1289.175	1040.722
127.381	27.573	1287.990	1040.401
128.395	27.741	1286.724	1040.239
129.410	27.692	1285.648	1039.001
130.424	27.637	1285.464	1038.449
131.439	27.645	1284.293	1037.455
132.454	27.656	1283.760	1036.995
133.468	27.626	1282.699	1035.875
134.483	27.705	1282.547	1036.108
135.497	27.586	1281.726	1034.677
136.512	27.688	1280.802	1034.419
137.527	27.643	1279.133	1032.723
138.541	27.662	1278.318	1032.083
139.556	27.450	1277.740	1030.323
140.570	27.601	1276.461	1030.059
141.585	27.529	1275.200	1028.542
142.600	27.546	1274.217	1027.751
143.614	27.496	1273.814	1027.054
144.629	27.545	1272.590	1026.256
145.643	27.522	1271.409	1025.081
146.658	27.477	1270.500	1024.004
147.673	27.572	1269.256	1023.444
148.687	27.487	1268.366	1022.161
149.702	27.509	1267.303	1021.334
150.716	27.452	1266.331	1020.143
151.731	27.483	1264.904	1019.075
152.746	27.545	1264.298	1018.844
153.760	27.623	1263.302	1018.390
154.775	27.481	1262.965	1017.233
155.789	27.594	1261.233	1016.377
156.804	27.574	1260.876	1015.888
157.819	27.509	1259.626	1014.433
158.833	27.656	1259.249	1014.856
159.848	27.655	1258.163	1013.886
160.862	27.595	1257.683	1013.077
161.877	27.695	1256.529	1012.611
162.892	27.554	1256.005	1011.316
163.906	27.692	1255.231	1011.367
164.921	27.699	1254.501	1010.728
165.935	27.699	1253.846	1010.115
166.950	27.635	1253.247	1009.189
167.964	27.743	1252.345	1008.970
168.979	27.700	1252.267	1008.576
169.994	27.776	1251.570	1008.350
171.008	27.813	1250.637	1007.713
172.023	27.768	1249.172	1006.192
173.037	27.744	1249.105	1005.919
174.052	27.688	1248.366	1004.926
175.067	27.704	1247.419	1004.163
176.081	27.711	1246.881	1003.677
177.096	27.666	1246.117	1002.726
178.110	27.706	1245.119	1002.054
179.125	27.659	1244.348	1001.091
180.140	27.789	1243.315	1000.881
181.154	27.674	1242.341	999.381
182.169	27.732	1240.972	998.509
183.183	27.840	1239.798	998.067
184.198	27.741	1238.721	996.569
185.213	27.844	1238.035	996.492
186.227	27.835	1237.441	995.874
187.242	27.803	1236.600	994.938
188.256	27.796	1235.971	994.303
189.271	27.753	1235.043	993.235
190.286	27.798	1234.450	992.916
191.300	27.728	1233.897	992.001
192.315	27.762	1233.422	991.719
193.329	27.728	1233.042	991.136
194.344	27.928	1232.425	991.640
195.359	27.732	1231.943	990.104
196.373	27.718	1231.649	989.699
197.388	27.646	1231.384	989.009
198.402	27.703	1230.715	988.693
199.417	27.751	1230.217	988.466
200.432	27.857	1229.489	988.371
201.446	27.916	1228.658	987.931
202.461	27.820	1228.170	986.931
203.475	27.780	1227.193	985.847
204.490	27.804	1226.625	985.433
205.504	27.792	1225.485	984.366
206.519	27.805	1224.919	983.893
207.534	27.808	1223.908	983.007
208.548	27.895	1222.536	982.288
209.563	27.836	1222.231	981.636
210.577	27.935	1221.275	981.316
211.592	27.882	1220.457	980.289
212.607	27.933	1219.549	979.745
213.621	27.985	1218.856	979.378
214.636	28.053	1217.643	978.680
215.650	27.933	1217.060	977.483
216.665	28.045	1215.953	977.109
217.680	27.918	1215.528	976.001
218.694	28.009	1214.416	975.507
219.709	27.940	1214.330	974.986
220.723	27.965	1213.405	974.287
221.738	27.954	1212.601	973.501
222.753	27.918	1212.119	972.835
223.767	27.922	1211.084	971.940
224.782	28.024	1211.097	972.404
225.796	28.024	1210.294	971.676
226.811	27.954	1210.069	971.038
227.826	27.976	1209.353	970.495
228.840	28.022	1209.116	970.461
229.855	27.981	1208.345	969.540
230.869	27.988	1207.585	968.877
231.884	28.054	1206.755	968.476
232.899	28.056	1205.993	967.791
233.913	27.989	1205.680	967.100
234.928	28.097	1205.048	967.080
235.942	28.094	1204.182	966.284
236.957	28.150	1203.492	965.939
237.972	28.148	1202.343	964.919
238.986	28.167	1202.076	964.720
240.001	28.217	1201.680	964.582
241.015	28.101	1200.869	963.237
242.030	28.133	1200.404	962.943
243.045	28.193	1199.579	962.514
244.059	28.156	1198.797	961.608
245.074	28.300	1197.353	961.120
246.088	28.218	1196.917	960.252
247.103	28.249	1196.243	959.787
248.117	28.253	1195.605	959.215
249.132	28.199	1194.735	958.150
250.147	28.236	1194.413	957.998
251.161	28.296	1193.820	957.753
252.176	28.206	1192.944	956.492
253.190	28.283	1192.276	956.277
254.205	28.321	1191.368	955.661
255.220	28.268	1191.165	955.140
256.234	28.296	1190.596	954.744
257.249	28.331	1189.735	954.148
258.263	28.263	1189.053	953.168
259.278	28.414	1188.561	953.472
260.293	28.337	1187.967	952.510
261.307	28.378	1187.417	952.197
262.322	28.383	1186.677	951.546
263.336	28.320	1186.245	950.790
264.351	28.371	1185.917	950.706
265.366	28.289	1184.954	949.426
266.380	28.365	1184.463	949.340
267.395	28.487	1183.527	949.138
268.409	28.298	1183.124	947.752
269.424	28.361	1182.743	947.690
270.439	28.364	1182.206	947.195
271.453	28.261	1181.931	946.354
272.468	28.232	1180.868	945.271
273.482	28.221	1180.143	944.550
274.497	28.427	1179.247	944.814
275.512	28.390	1179.070	944.395
276.526	28.481	1178.293	944.159
277.541	28.414	1177.527	943.117
278.555	28.453	1177.179	942.952
279.570	28.577	1175.925	942.503
280.585	28.447	1175.306	941.259
281.599	28.385	1174.450	940.172
282.614	28.531	1173.677	940.218
283.628	28.484	1173.108	939.437
284.643	28.523	1171.967	938.639
285.657	28.631	1171.001	938.336
286.672	28.446	1170.587	936.976
287.687	28.545	1169.741	936.722
288.701	28.612	1168.947	936.341
289.716	28.714	1167.889	935.935
290.730	28.515	1167.907	934.848
291.745	28.549	1167.217	934.391
292.760	28.616	1166.590	934.147
293.774	28.570	1165.990	933.348
294.789	28.618	1165.701	933.278
295.803	28.775	1164.477	933.011
296.818	28.560	1164.656	931.979
297.833	28.701	1163.535	931.716
298.847	28.708	1162.897	931.162
299.862	28.780	1161.819	930.578
300.876	28.576	1161.600	929.287
301.891	28.827	1160.544	929.631
302.906	28.758	1159.733	928.550
303.920	28.671	1159.384	927.751
304.935	28.740	1158.947	927.667
305.949	28.749	1158.050	926.913
306.964	28.775	1157.542	926.551
307.979	28.874	1156.740	926.326
308.993	28.688	1156.595	925.193
310.008	28.829	1155.762	925.154
311.022	28.801	1155.118	924.417
312.037	28.794	1154.334	923.671
313.052	28.668	1153.426	922.232
314.066	28.746	1152.412	921.730
315.081	28.863	1151.963	921.874
316.095	28.993	1151.014	921.687
317.110	28.885	1150.396	920.568
318.125	28.736	1150.516	919.836
319.139	28.849	1149.427	919.451
320.154	29.021	1148.260	919.294
321.168	28.819	1148.566	918.449
322.183	28.806	1147.836	917.719
323.197	28.838	1147.344	917.406
324.212	28.908	1146.406	916.923
325.227	28.913	1146.389	916.855
326.241	28.856	1145.854	916.060
327.256	28.878	1144.933	915.353
328.270	28.885	1144.206	914.726
329.285	28.915	1143.280	914.050
330.300	28.791	1142.616	912.822
331.314	28.850	1141.891	912.459
332.329	28.909	1141.080	912.021
333.343	28.999	1140.168	911.656
334.358	29.148	1139.459	911.747
335.373	28.869	1139.264	910.128
336.387	28.970	1138.649	910.059
337.402	29.063	1137.582	909.583
338.416	29.176	1136.742	909.392
339.431	29.038	1136.141	908.149
340.446	29.162	1135.725	908.346
341.460	29.139	1135.195	907.729
342.475	29.056	1134.243	906.479
343.489	29.091	1133.437	905.927
344.504	29.227	1131.927	905.307
345.519	29.287	1131.120	904.877
346.533	29.167	1131.038	904.143
347.548	29.209	1130.338	903.706
348.562	29.148	1129.643	902.776
349.577	29.230	1128.685	902.330
350.592	29.150	1127.940	901.261
351.606	29.290	1127.189	901.266
352.621	29.185	1126.679	900.265
353.635	29.203	1126.359	900.019
354.650	29.281	1125.376	899.535
355.665	29.280	1124.861	899.039
356.679	29.399	1124.194	899.008
357.694	29.421	1123.520	898.493
358.708	29.282	1123.335	897.591
359.723	29.230	1122.618	896.687
360.738	29.489	1121.413	896.905
361.752	29.209	1121.159	895.261
362.767	29.321	1121.082	895.660
363.781	29.364	1120.261	895.135
364.796	29.414	1119.666	894.825
365.810	29.448	1119.324	894.637
366.825	29.407	1118.383	893.608
367.840	29.486	1118.349	893.884
368.854	29.599	1117.355	893.557
369.869	29.451	1116.567	892.132
370.883	29.368	1116.385	891.504
371.898	29.374	1115.100	890.429
372.913	29.483	1114.756	890.604
373.927	29.424	1114.557	890.082
374.942	29.520	1113.696	889.777
375.956	29.466	1113.725	889.461
376.971	29.620	1112.636	889.254
377.986	29.476	1112.353	888.254
379.000	29.522	1112.213	888.288
380.015	29.615	1110.805	887.532
381.029	29.647	1110.418	887.296
382.044	29.576	1109.545	886.178
383.059	29.621	1109.183	886.030
384.073	29.617	1108.538	885.417
385.088	29.676	1107.785	885.020
386.102	29.620	1107.030	884.067
387.117	29.575	1105.821	882.808
388.132	29.552	1105.210	882.131
389.146	29.664	1104.265	881.837
390.161	29.691	1103.841	881.548
391.175	29.708	1103.218	881.051
392.190	29.710	1102.660	880.541
393.205	29.780	1101.539	879.901
394.219	29.782	1101.222	879.580
395.234	29.731	1100.444	878.638
396.248	29.832	1099.425	878.224
397.263	29.809	1098.364	877.188
398.278	29.756	1098.276	876.790
399.292	29.745	1097.434	875.990
400.307	29.859	1096.955	876.068
401.321	29.822	1096.504	875.456
402.336	29.850	1095.828	874.970
403.350	29.904	1095.211	874.657
404.365	29.890	1094.532	873.971
405.380	29.880	1093.726	873.203
406.394	29.852	1093.005	872.417
407.409	29.877	1092.400	871.976
408.423	30.075	1091.493	872.106
409.438	29.959	1091.045	871.125
410.453	30.082	1090.210	870.961
411.467	29.947	1089.387	869.592
412.482	29.896	1089.020	868.983
413.496	30.013	1088.363	868.930
414.511	30.047	1087.670	868.460
415.526	30.039	1087.257	868.012
416.540	30.025	1086.909	867.595
417.555	30.105	1086.339	867.438
418.569	30.010	1086.068	866.697
419.584	30.044	1085.851	866.610
420.599	30.150	1085.129	866.451
421.613	105.144	1323.452	1461.473
422.628	97.862	1358.176	1461.566
