DTS Sentinel unit serial number:	SN413079Multiplexer serial number:	ORYXHardware model number:	OX4-SRSoftware version number:	ORYX F/W v4.00 Oryx Data Collector v3.7.2.0data status	okinstallation	princeton_trtdifferential loss correction	single-endedforward channel	channel 2reverse channel	N/Adate	2019/09/17time	01:55:35forward acquisition time	60.00reverse acquisition time	0.00gamma	496.2192k internal	0.2328k external	0.2328temperature offset calibration	0.9977default loss term (dB/km)	0.3790temperature slope calibration	1.0000multiplexer offset coefficient	1.0000multiplexer slope coefficient	1.0000fibre end	0.00T internal ref (°C)	29.62T ext. ref 1 (°C)	0.13T ext. ref 2 (°C)	24.55length (m)	temperature (°C)	Stokes	anti-Stokes-747.200	74.212	-0.192	0.203
-746.185	-32.363	-0.165	0.093
-745.171	48.121	0.032	0.030
-744.156	-71.158	0.101	0.038
-743.142	182.418	-0.114	0.169
-742.127	212.600	0.137	0.218
-741.112	-102.690	-0.177	-0.043
-740.098	742.706	0.044	0.119
-739.083	-35.030	0.186	-0.102
-738.069	54.104	0.307	0.297
-737.054	-200.000	0.052	0.244
-736.039	629.649	0.087	-0.222
-735.025	-105.056	-0.129	-0.030
-734.010	-161.126	0.243	-0.013
-732.996	-69.586	-0.407	-0.157
-731.981	228.702	0.214	-0.351
-730.966	-144.503	-0.359	-0.033
-729.952	-46.450	-0.310	-0.153
-728.937	-18.694	-0.449	-0.282
-727.923	91.415	-0.109	-0.124
-726.908	-155.964	-0.200	-0.013
-725.894	-41.626	-0.259	-0.134
-724.879	-83.488	-0.119	0.038
-723.864	4.332	0.180	0.133
-722.850	-200.000	-0.005	-0.050
-721.835	-61.809	0.055	-0.023
-720.821	-200.000	-0.024	-0.163
-719.806	-169.670	0.236	-0.009
-718.791	-200.000	0.030	-0.265
-717.777	-161.871	-0.128	-0.007
-716.762	72.087	0.110	0.116
-715.748	250.267	0.033	-0.056
-714.733	-200.000	-0.007	0.036
-713.718	-58.414	0.314	-0.137
-712.704	58.804	-0.061	0.060
-711.689	-72.581	-0.241	-0.089
-710.675	488.764	-0.208	-0.478
-709.660	-200.000	0.019	0.260
-708.645	-122.875	-0.223	0.036
-707.631	720.622	0.075	0.202
-706.616	-200.000	-0.007	-0.149
-705.602	-107.926	-0.292	-0.064
-704.587	251.916	-0.092	0.158
-703.572	-200.000	-0.079	0.365
-702.558	-200.000	-0.024	-0.161
-701.543	-200.000	-0.056	0.256
-700.529	800.000	-0.020	0.072
-699.514	134.046	-0.167	-0.217
-698.499	-49.940	-0.242	-0.116
-697.485	47.047	-0.056	-0.052
-696.470	-7.767	0.190	0.129
-695.456	800.000	0.013	0.039
-694.441	800.000	0.023	0.080
-693.426	800.000	0.056	0.184
-692.412	50.491	0.138	-0.132
-691.397	800.000	0.058	-0.197
-690.383	399.439	0.117	-0.247
-689.368	-20.322	0.140	-0.087
-688.354	-63.716	-0.271	0.112
-687.339	131.174	0.138	0.178
-686.324	-156.328	-0.093	-0.006
-685.310	27.963	-0.411	-0.349
-684.295	-178.906	-0.120	-0.003
-683.281	431.126	-0.069	-0.150
-682.266	-18.846	0.186	0.116
-681.251	-46.509	0.131	0.065
-680.237	-168.117	0.219	0.009
-679.222	97.637	0.230	-0.266
-678.208	107.012	-0.071	-0.085
-677.193	-95.281	0.218	0.059
-676.178	-77.884	-0.222	0.077
-675.164	-200.000	-0.077	-0.443
-674.149	-116.400	-0.381	0.071
-673.135	800.000	-0.031	0.106
-672.120	363.238	0.115	0.232
-671.105	-93.669	-0.160	-0.044
-670.091	-108.998	-0.227	-0.049
-669.076	-13.844	-0.095	0.061
-668.062	47.024	0.269	-0.251
-667.047	-200.000	0.019	0.171
-666.032	-65.603	-0.196	0.079
-665.018	-200.000	0.097	-0.536
-664.003	128.820	0.110	-0.141
-662.989	-92.973	-0.140	-0.039
-661.974	156.228	0.114	0.158
-660.959	-30.195	0.105	0.060
-659.945	158.557	-0.187	-0.261
-658.930	42.864	-0.046	-0.042
-657.916	9.179	-0.055	-0.042
-656.901	87.199	0.053	0.058
-655.886	-126.800	-0.159	0.024
-654.872	800.000	-0.037	0.156
-653.857	400.094	-0.106	-0.223
-652.843	-53.731	-0.054	-0.025
-651.828	173.876	0.123	-0.178
-650.814	570.805	0.039	-0.096
-649.799	198.060	-0.257	-0.394
-648.784	800.000	0.036	0.133
-647.770	117.043	0.089	-0.110
-646.755	219.402	-0.045	-0.072
-645.741	-123.044	-0.052	0.008
-644.726	42.039	0.145	-0.132
-643.711	-46.111	-0.363	-0.179
-642.697	-66.129	-0.170	0.068
-641.682	-172.560	0.362	-0.011
-640.668	-116.230	-0.283	-0.053
-639.653	-200.000	-0.040	0.222
-638.638	-154.271	-0.243	-0.016
-637.624	69.701	-0.158	0.164
-636.609	110.451	-0.122	-0.147
-635.595	102.868	-0.139	-0.164
-634.580	45.589	-0.143	0.132
-633.565	56.211	-0.068	-0.066
-632.551	607.501	0.063	-0.158
-631.536	-85.002	0.450	-0.141
-630.522	-98.009	-0.132	0.034
-629.507	800.000	0.085	0.317
-628.492	-51.320	-0.309	0.145
-627.478	-141.831	0.225	-0.023
-626.463	110.176	-0.167	0.202
-625.449	-6.073	0.170	-0.117
-624.434	-200.000	-0.003	-0.041
-623.419	-131.826	-0.125	-0.016
-622.405	-52.075	0.488	-0.227
-621.390	-120.089	0.341	-0.058
-620.376	123.124	0.169	-0.212
-619.361	-200.000	-0.015	-0.208
-618.346	326.255	-0.114	0.219
-617.332	-35.271	0.087	0.047
-616.317	-43.155	0.029	0.015
-615.303	33.242	-0.185	0.161
-614.288	-200.000	0.002	0.167
-613.273	-97.214	-0.289	0.076
-612.259	800.000	0.037	-0.105
-611.244	138.526	0.045	-0.059
-610.230	-158.551	-0.303	-0.018
-609.215	58.919	0.078	-0.077
-608.201	800.000	-0.020	0.067
-607.186	-142.267	-0.564	0.056
-606.171	-51.277	0.334	-0.157
-605.157	-83.343	-0.307	0.099
-604.142	-104.138	-0.091	0.021
-603.128	-138.035	-0.252	-0.028
-602.113	-200.000	-0.061	0.279
-601.098	412.202	-0.050	0.107
-600.084	8.275	0.185	-0.139
-599.069	800.000	-0.102	-0.345
-598.055	19.432	0.180	-0.145
-597.040	133.262	-0.157	-0.203
-596.025	-79.252	-0.460	-0.156
-595.011	67.442	0.121	-0.123
-593.996	34.524	0.054	-0.047
-592.982	23.305	-0.304	-0.250
-591.967	-9.674	-0.208	-0.139
-590.952	800.000	-0.045	-0.162
-589.938	-102.025	-0.167	-0.040
-588.923	-3.697	-0.171	-0.119
-587.909	164.365	-0.092	-0.130
-586.894	46.968	-0.133	0.124
-585.879	-200.000	-0.004	0.432
-584.865	59.216	-0.188	-0.185
-583.850	311.995	-0.040	0.075
-582.836	-21.809	0.045	-0.027
-581.821	-31.913	-0.136	0.076
-580.806	-200.000	0.003	-0.136
-579.792	-122.714	0.188	0.031
-578.777	183.625	0.236	-0.349
-577.763	-200.000	-0.010	0.121
-576.748	800.000	0.077	-0.218
-575.733	-2.931	-0.153	-0.107
-574.719	603.867	0.084	-0.209
-573.704	-58.262	0.071	-0.031
-572.690	-125.161	0.318	-0.049
-571.675	800.000	0.006	-0.023
-570.661	18.156	0.170	0.135
-569.646	363.163	0.074	0.149
-568.631	-15.853	0.213	0.136
-567.617	319.678	-0.086	0.163
-566.602	65.575	-0.248	-0.251
-565.588	800.000	-0.066	-0.239
-564.573	-200.000	0.009	-0.073
-563.558	-120.972	0.091	-0.015
-562.544	1.836	0.155	0.112
-561.529	150.948	0.145	-0.197
-560.515	41.892	0.154	0.140
-559.500	30.097	0.134	0.115
-558.485	-9.993	-0.270	0.179
-557.471	0.141	-0.187	-0.134
-556.456	-200.000	0.019	-0.375
-555.442	-67.401	0.397	0.156
-554.427	-143.700	-0.250	0.024
-553.412	261.976	-0.004	0.007
-552.398	94.406	-0.151	0.172
-551.383	-76.674	-0.253	0.089
-550.369	-54.628	0.242	-0.109
-549.354	17.075	-0.052	-0.041
-548.339	574.861	-0.220	-0.537
-547.325	-41.845	0.220	0.113
-546.310	86.356	0.009	-0.010
-545.296	80.274	-0.070	0.075
-544.281	-145.321	0.130	-0.012
-543.266	-137.786	-0.175	-0.020
-542.252	233.522	-0.130	0.214
-541.237	800.000	-0.114	-0.375
-540.223	-13.084	0.132	-0.086
-539.208	800.000	-0.048	-0.143
-538.193	-62.240	0.043	0.018
-537.179	-77.498	-0.379	-0.132
-536.164	17.385	0.104	0.082
-535.150	-86.150	-0.202	0.062
-534.135	-99.757	0.160	-0.040
-533.121	401.894	-0.005	-0.011
-532.106	-200.000	-0.016	0.096
-531.091	800.000	-0.045	0.131
-530.077	111.107	-0.108	-0.130
-529.062	-78.758	0.117	0.040
-528.048	800.000	0.052	-0.210
-527.033	-112.334	-0.025	-0.005
-526.018	-57.198	-0.322	0.142
-525.004	89.030	-0.146	-0.163
-523.989	131.260	0.102	-0.131
-522.975	-105.415	0.155	0.035
-521.960	20.530	0.211	-0.171
-520.945	90.409	0.176	-0.197
-519.931	258.853	0.127	-0.219
-518.916	-82.914	0.237	-0.076
-517.902	800.000	0.017	0.067
-516.887	386.507	-0.096	0.197
-515.872	-79.149	0.284	0.096
-514.858	252.989	-0.164	-0.279
-513.843	57.770	-0.292	0.285
-512.829	-200.000	-0.025	0.233
-511.814	552.781	-0.114	-0.274
-510.799	-200.000	-0.051	-0.228
-509.785	86.159	-0.206	0.227
-508.770	-83.537	0.307	0.098
-507.756	800.000	-0.075	0.320
-506.741	-183.538	0.043	0.001
-505.726	491.263	0.098	0.225
-504.712	-168.342	-0.185	0.007
-503.697	33.956	0.241	0.210
-502.683	800.000	-0.082	0.289
-501.668	26.746	0.039	-0.033
-500.653	-110.690	-0.093	0.019
-499.639	-44.948	-0.073	0.036
-498.624	141.412	-0.033	0.044
-497.610	-101.386	-0.358	0.087
-496.595	-200.000	0.011	-0.115
-495.581	-200.000	-0.004	0.141
-494.566	121.281	0.132	-0.163
-493.551	800.000	-0.063	-0.190
-492.537	-139.767	0.205	-0.022
-491.522	-78.681	0.285	-0.097
-490.508	58.088	0.249	0.243
-489.493	65.154	-0.221	0.222
-488.478	367.468	-0.165	-0.333
-487.464	55.296	-0.265	-0.256
-486.449	-200.000	0.009	-0.042
-485.435	-32.978	-0.233	0.129
-484.420	-112.339	0.240	0.048
-483.405	-96.362	-0.142	-0.037
-482.391	98.789	0.075	0.086
-481.376	522.029	-0.070	-0.164
-480.362	220.046	0.109	0.174
-479.347	-200.000	0.000	0.011
-478.332	-68.317	0.187	-0.073
-477.318	-77.297	0.289	0.100
-476.303	65.751	-0.052	0.053
-475.289	800.000	-0.041	-0.119
-474.274	301.288	-0.163	0.300
-473.259	80.122	0.367	-0.394
-472.245	-90.537	0.178	0.051
-471.230	-157.802	0.139	-0.008
-470.216	-200.000	-0.019	0.305
-469.201	-200.000	0.007	-0.045
-468.186	193.005	-0.195	-0.294
-467.172	-30.299	0.065	0.037
-466.157	-162.795	0.082	-0.004
-465.143	-27.076	-0.437	0.254
-464.128	-142.298	0.157	-0.015
-463.113	-200.000	0.006	0.155
-462.099	-15.102	-0.193	0.123
-461.084	5.246	-0.280	-0.206
-460.070	-74.780	0.162	-0.058
-459.055	-3.234	-0.108	0.075
-458.040	-40.652	0.289	0.150
-457.026	82.116	0.195	0.211
-456.011	800.000	0.099	-0.277
-454.997	-5.670	0.240	-0.164
-453.982	-200.000	-0.011	0.129
-452.968	-200.000	-0.097	-0.000
-451.953	77.250	0.038	0.040
-450.938	-18.832	0.139	-0.086
-449.924	200.172	0.068	0.104
-448.909	140.213	-0.176	0.231
-447.895	-22.957	0.203	0.122
-446.880	-113.025	0.300	-0.059
-445.865	511.604	-0.029	-0.067
-444.851	-43.840	0.157	-0.079
-443.836	-60.251	0.122	0.052
-442.822	-161.201	-0.133	0.007
-441.807	800.000	-0.024	-0.106
-440.792	-200.000	0.007	0.034
-439.778	-162.052	-0.213	0.011
-438.763	-15.504	0.070	-0.045
-437.749	-136.996	-0.319	-0.036
-436.734	-110.575	-0.476	-0.098
-435.719	-58.196	0.194	-0.084
-434.705	268.412	-0.119	0.208
-433.690	105.977	-0.074	0.087
-432.676	-178.011	-0.128	-0.003
-431.661	29.584	0.211	0.179
-430.646	-51.383	0.128	0.060
-429.632	-0.872	-0.035	0.025
-428.617	138.873	0.190	-0.249
-427.603	359.426	0.087	0.173
-426.588	-4.370	-0.372	-0.256
-425.573	-20.595	-0.161	-0.098
-424.559	-1.614	-0.295	-0.207
-423.544	608.023	0.082	-0.204
-422.530	356.456	0.002	0.005
-421.515	12.344	-0.207	-0.159
-420.500	81.799	-0.252	0.272
-419.486	-160.482	0.098	-0.005
-418.471	96.438	0.065	-0.074
-417.457	17.926	-0.236	-0.187
-416.442	-24.250	0.156	-0.093
-415.428	-58.490	-0.191	0.083
-414.413	-12.127	0.138	-0.090
-413.398	800.000	0.051	-0.143
-412.384	-200.000	-0.027	0.134
-411.369	-200.000	0.067	0.306
-410.355	-8.064	0.013	0.009
-409.340	200.747	-0.152	-0.232
-408.325	-54.880	-0.125	0.056
-407.311	91.327	-0.218	-0.244
-406.296	-71.231	-0.399	0.149
-405.282	-200.000	0.055	0.264
-404.267	544.424	-0.109	0.259
-403.252	-45.722	0.130	-0.064
-402.238	-200.000	-0.049	-0.265
-401.223	-120.948	0.118	-0.020
-400.209	800.000	0.069	0.260
-399.194	-200.000	-0.027	0.141
-398.179	-200.000	0.031	-0.140
-397.165	68.610	0.158	0.161
-396.150	-176.056	-0.212	0.006
-395.136	800.000	0.053	-0.201
-394.121	-125.330	-0.423	-0.064
-393.106	-28.062	0.269	0.155
-392.092	-79.233	0.122	-0.041
-391.077	408.202	0.027	-0.056
-390.063	-99.723	0.222	0.055
-389.048	-200.000	-0.006	-0.242
-388.033	-108.601	-0.150	-0.032
-387.019	-108.586	0.376	0.080
-386.004	800.000	-0.030	0.108
-384.990	73.251	-0.184	0.191
-383.975	723.167	0.035	-0.091
-382.960	-121.462	-0.028	0.005
-381.946	-22.765	0.258	-0.155
-380.931	-89.506	0.292	0.085
-379.917	55.867	0.062	0.060
-378.902	19.020	-0.231	0.184
-377.888	-113.103	-0.254	-0.050
-376.873	800.000	-0.100	-0.334
-375.858	52.924	0.258	-0.245
-374.844	163.719	0.182	0.254
-373.829	-111.615	-0.145	0.029
-372.815	800.000	0.033	0.116
-371.800	466.514	0.044	-0.099
-370.785	551.921	0.084	-0.201
-369.771	-30.130	-0.101	0.057
-368.756	-200.000	0.020	0.213
-367.742	79.184	0.108	0.115
-366.727	-200.000	-0.007	0.126
-365.712	-18.687	0.291	0.180
-364.698	-38.229	0.089	-0.047
-363.683	-200.000	-0.000	-0.081
-362.669	153.267	0.116	0.158
-361.654	-200.000	0.019	-0.114
-360.639	-90.708	0.243	0.070
-359.625	-30.954	0.260	0.146
-358.610	-144.288	0.261	0.024
-357.596	-3.461	-0.320	-0.221
-356.581	-113.054	-0.019	0.004
-355.566	276.674	0.131	0.232
-354.552	-31.213	-0.063	0.035
-353.537	24.348	-0.087	-0.072
-352.523	-95.311	0.222	0.059
-351.508	-4.987	0.343	-0.234
-350.493	-200.000	-0.035	-0.328
-349.479	-171.178	0.104	-0.003
-348.464	685.361	-0.057	-0.148
-347.450	-200.000	-0.016	-0.199
-346.435	5.942	0.116	-0.085
-345.420	139.876	0.222	0.291
-344.406	-139.735	0.166	0.017
-343.391	-9.478	-0.151	0.100
-342.377	112.462	0.256	0.307
-341.362	800.000	0.066	0.199
-340.348	-200.000	-0.051	-0.236
-339.333	-88.397	0.256	0.076
-338.318	-200.000	-0.004	-0.318
-337.304	39.751	0.223	0.198
-336.289	647.144	-0.062	0.156
-335.275	11.744	-0.336	-0.256
-334.260	145.428	-0.043	-0.058
-333.245	170.280	-0.033	-0.047
-332.231	-113.116	0.368	-0.072
-331.216	-131.003	-0.080	-0.011
-330.202	-158.589	-0.140	0.008
-329.187	-200.000	0.001	0.135
-328.172	-62.585	0.329	-0.136
-327.158	7.086	-0.325	0.241
-326.143	-200.000	0.088	0.000
-325.129	-200.000	-0.054	0.293
-324.114	800.000	-0.023	0.065
-323.099	-99.869	0.094	-0.023
-322.085	140.186	-0.268	-0.350
-321.070	-115.602	-0.247	-0.046
-320.056	800.000	0.046	-0.129
-319.041	-58.828	0.348	-0.149
-318.026	-200.000	-0.029	-0.355
-317.012	435.455	-0.174	-0.376
-315.997	-79.836	0.050	0.017
-314.983	157.201	-0.089	-0.121
-313.968	-26.666	0.340	-0.197
-312.953	-181.679	-0.073	-0.001
-311.939	101.726	-0.212	-0.244
-310.924	800.000	0.015	0.051
-309.910	175.345	-0.245	0.352
-308.895	800.000	0.106	0.322
-307.880	88.924	-0.234	0.258
-306.866	551.516	-0.093	-0.222
-305.851	-68.167	-0.342	-0.132
-304.837	87.938	0.239	-0.263
-303.822	-164.380	-0.282	-0.013
-302.807	-200.000	-0.021	-0.273
-301.793	-161.395	0.264	0.013
-300.778	-44.677	0.221	-0.109
-299.764	631.101	-0.041	0.102
-298.749	247.720	-0.242	0.404
-297.735	-77.269	-0.347	0.120
-296.720	-142.059	0.176	0.017
-295.705	-79.432	-0.303	0.101
-294.691	-50.267	0.074	0.035
-293.676	-134.874	0.230	-0.028
-292.662	-88.508	0.222	-0.065
-291.647	-154.429	0.380	0.025
-290.632	623.486	0.058	0.146
-289.618	-92.359	-0.025	-0.007
-288.603	-200.000	0.023	0.121
-287.589	-108.885	-0.364	-0.077
-286.574	-200.000	0.005	-0.097
-285.559	-200.000	-0.046	0.204
-284.545	-103.062	0.128	-0.030
-283.530	-123.931	0.296	-0.046
-282.516	-109.892	-0.184	-0.038
-281.501	187.845	0.059	0.087
-280.486	800.000	-0.054	0.171
-279.472	-166.880	0.525	0.021
-278.457	359.845	0.039	0.077
-277.443	7.079	-0.234	0.173
-276.428	-21.274	0.177	0.107
-275.413	0.742	-0.175	0.124
-274.399	426.739	-0.167	0.357
-273.384	-200.000	0.006	-0.123
-272.370	254.039	-0.126	0.213
-271.355	676.880	0.115	-0.295
-270.340	-200.000	-0.042	-0.296
-269.326	419.617	-0.076	-0.162
-268.311	153.928	0.165	0.223
-267.297	263.790	0.019	-0.032
-266.282	-200.000	0.017	0.210
-265.267	-200.000	0.015	0.361
-264.253	-91.862	-0.313	-0.088
-263.238	800.000	0.092	-0.321
-262.224	-111.386	-0.344	0.069
-261.209	-200.000	0.058	-0.295
-260.195	-142.101	0.243	0.024
-259.180	-68.105	0.310	0.119
-258.165	800.000	0.102	0.316
-257.151	-200.000	0.031	0.148
-256.136	-81.802	0.110	-0.036
-255.122	-153.970	0.185	-0.012
-254.107	-200.000	0.034	0.240
-253.092	-101.275	-0.433	-0.105
-252.078	800.000	-0.076	-0.322
-251.063	11.109	-0.228	-0.172
-250.049	-92.002	-0.155	0.043
-249.034	506.168	0.089	-0.205
-248.019	-186.728	0.239	-0.003
-247.005	-23.099	-0.294	0.175
-245.990	102.799	-0.152	-0.176
-244.976	64.329	-0.135	0.134
-243.961	-29.744	0.032	0.018
-242.946	-196.165	-0.196	-0.001
-241.932	1.326	-0.064	-0.045
-240.917	800.000	0.030	0.086
-239.903	-200.000	-0.014	0.389
-238.888	-130.687	0.195	0.026
-237.873	39.388	0.216	0.191
-236.859	-4.018	-0.113	-0.077
-235.844	-83.390	0.253	-0.080
-234.830	-33.183	0.194	0.106
-233.815	223.297	0.152	0.242
-232.800	114.708	-0.117	0.141
-231.786	-200.000	-0.020	0.122
-230.771	-200.000	0.012	0.091
-229.757	795.812	0.086	0.233
-228.742	44.242	0.198	0.179
-227.727	800.000	0.064	0.249
-226.713	-200.000	0.024	-0.107
-225.698	-162.002	-0.251	-0.013
-224.684	64.067	0.194	-0.193
-223.669	800.000	0.061	-0.179
-222.655	-13.659	0.067	-0.043
-221.640	288.407	0.068	-0.122
-220.625	372.476	0.060	0.120
-219.611	-171.697	0.367	-0.012
-218.596	-200.000	-0.005	-0.086
-217.582	-200.000	0.026	-0.141
-216.567	766.717	0.023	-0.061
-215.552	794.863	0.183	0.496
-214.538	200.124	-0.038	0.058
-213.523	-70.304	-0.102	-0.038
-212.509	246.773	-0.066	-0.110
-211.494	800.000	0.043	-0.141
-210.479	-17.570	-0.278	-0.172
-209.465	800.000	0.021	-0.085
-208.450	-196.533	-0.091	-0.001
-207.436	-100.053	0.391	0.096
-206.421	-24.718	-0.243	0.142
-205.406	72.485	0.096	0.099
-204.392	113.825	-0.114	0.136
-203.377	-46.052	-0.287	-0.140
-202.363	-51.872	-0.042	0.019
-201.348	2.251	0.220	0.157
-200.333	800.000	0.067	-0.230
-199.319	233.570	0.163	-0.265
-198.304	195.537	0.150	-0.225
-197.290	-52.065	0.234	-0.107
-196.275	-200.000	-0.007	-0.200
-195.260	33.103	-0.229	-0.196
-194.246	352.921	-0.165	0.322
-193.231	-200.000	0.009	0.153
-192.217	-200.000	-0.062	0.403
-191.202	-200.000	-0.004	-0.273
-190.187	-33.400	-0.003	0.001
-189.173	-200.000	0.048	0.259
-188.158	50.341	-0.070	-0.065
-187.144	246.429	-0.049	-0.082
-186.129	81.048	0.219	0.233
-185.114	-36.917	-0.062	0.033
-184.100	-41.417	-0.163	0.083
-183.085	-29.572	0.089	0.050
-182.071	-3.805	-0.162	0.111
-181.056	-200.000	0.044	0.248
-180.042	-7.684	0.150	-0.100
-179.027	-200.000	-0.004	-0.039
-178.012	156.742	0.229	-0.311
-176.998	800.000	0.043	0.168
-175.983	-53.296	-0.399	0.180
-174.969	-128.319	0.125	0.018
-173.954	800.000	0.017	0.052
-172.939	-200.000	0.027	0.166
-171.925	24.882	-0.222	0.182
-170.910	11.761	-0.227	0.172
-169.896	-70.329	0.256	0.096
-168.881	-30.769	0.241	0.134
-167.866	159.036	-0.088	-0.120
-166.852	-117.041	-0.125	-0.022
-165.837	366.948	0.084	0.168
-164.823	50.772	-0.058	0.055
-163.808	-167.844	-0.180	0.007
-162.793	514.976	-0.083	-0.190
-161.779	65.863	-0.129	-0.129
-160.764	-58.330	0.422	0.181
-159.750	-107.806	0.300	0.064
-158.735	-55.767	0.119	-0.053
-157.720	-35.756	0.091	-0.049
-156.706	-200.000	-0.017	-0.130
-155.691	-142.395	0.210	-0.020
-154.677	268.034	-0.075	0.130
-153.662	-114.069	-0.349	-0.067
-152.647	137.159	0.072	0.093
-151.633	-200.000	-0.012	0.223
-150.618	-200.000	0.001	-0.113
-149.604	-52.811	0.178	-0.081
-148.589	-200.000	0.008	0.242
-147.574	-163.674	0.157	-0.007
-146.560	141.967	-0.069	0.090
-145.545	115.673	0.108	0.130
-144.531	-66.720	0.279	-0.109
-143.516	-200.000	-0.056	0.245
-142.502	800.000	-0.095	0.389
-141.487	-200.000	-0.030	0.181
-140.472	670.930	0.037	0.093
-139.458	-75.797	0.130	0.045
-138.443	-191.798	-0.282	-0.003
-137.429	203.200	0.054	-0.083
-136.414	-100.102	0.336	0.082
-135.399	-143.908	0.182	0.017
-134.385	800.000	-0.008	-0.030
-133.370	62.448	0.015	-0.015
-132.356	-98.314	-0.514	-0.130
-131.341	-121.589	0.273	-0.045
-130.326	-15.073	0.289	0.182
-129.312	-28.213	0.242	-0.138
-128.297	63.142	-0.151	-0.149
-127.283	-200.000	0.033	-0.292
-126.268	-161.683	-0.101	-0.005
-125.253	578.605	-0.077	0.185
-124.239	669.769	-0.008	0.020
-123.224	-200.000	0.000	0.167
-122.210	518.072	0.074	-0.171
-121.195	294.838	0.163	0.293
-120.180	-200.000	-0.012	-0.102
-119.166	407.142	-0.138	0.287
-118.151	500.208	0.103	0.234
-117.137	-82.072	0.227	-0.073
-116.122	381.219	-0.188	-0.380
-115.107	56.661	0.154	-0.147
-114.093	-101.532	-0.209	-0.050
-113.078	33.989	0.152	0.130
-112.064	30.701	-0.144	-0.121
-111.049	-200.000	0.017	-0.090
-110.034	-30.255	-0.292	0.163
-109.020	800.000	-0.092	-0.252
-108.005	-102.191	-0.228	0.054
-106.991	-16.804	0.256	0.159
-105.976	152.447	-0.106	-0.143
-104.962	-200.000	-0.036	0.223
-103.947	800.000	0.164	0.451
-102.932	-1.149	-0.312	-0.216
-101.918	-121.612	-0.131	-0.021
-100.903	2.059	0.065	-0.046
-99.889	20.762	-0.088	-0.070
-98.874	800.000	0.036	-0.126
-97.859	-200.000	0.002	-0.049
-96.845	-200.000	-0.049	0.254
-95.830	-192.351	-0.102	-0.001
-94.816	-41.388	-0.208	0.105
-93.801	32.322	0.090	0.076
-92.786	-84.237	0.053	-0.016
-91.772	-103.602	-0.284	-0.065
-90.757	150.704	0.022	0.030
-89.743	-107.417	-0.442	-0.095
-88.728	-19.272	-0.123	-0.075
-87.713	160.600	0.083	-0.114
-86.699	-200.000	-0.020	0.253
-85.684	160.344	0.110	0.150
-84.670	-61.885	-0.313	-0.129
-83.655	171.169	-0.103	-0.145
-82.640	53.658	-0.039	-0.037
-81.626	-125.055	0.153	-0.023
-80.611	-63.339	0.133	-0.054
-79.597	-94.174	0.105	-0.028
-78.582	-200.000	0.017	-0.129
-77.567	-32.818	-0.141	-0.077
-76.553	800.000	-0.049	-0.145
-75.538	-200.000	-0.033	-0.378
-74.524	117.340	0.099	-0.120
-73.509	74.524	-0.192	0.198
-72.494	-200.000	0.001	0.101
-71.480	-158.591	-0.206	-0.012
-70.465	800.000	-0.070	0.223
-69.451	800.000	-0.063	0.174
-68.436	-200.000	-0.007	0.153
-67.422	253.940	0.116	0.194
-66.407	-68.422	0.135	0.051
-65.392	543.384	0.079	-0.185
-64.378	354.763	-0.065	0.127
-63.363	410.853	0.028	-0.059
-62.349	-200.000	-0.010	0.223
-61.334	12.677	-0.951	-0.721
-60.319	57.015	0.606	0.579
-59.305	800.000	-0.274	-1.152
-58.290	416.127	0.571	1.194
-57.276	650.677	0.508	1.276
-56.261	-200.000	107.723	586.214
-55.246	451.734	1472.305	3191.499
-54.232	147.218	2663.441	3516.087
-53.217	99.839	2289.533	2601.509
-52.203	38.593	1901.794	1663.850
-51.188	32.890	1690.076	1435.342
-50.173	30.195	1647.402	1379.039
-49.159	48.810	1700.704	1564.821
-48.144	49.231	1715.693	1581.728
-47.130	32.383	1673.659	1417.362
-46.115	29.773	1658.961	1385.335
-45.100	29.518	1654.669	1379.790
-44.086	29.527	1651.752	1377.370
-43.071	29.522	1648.860	1374.864
-42.057	29.466	1646.736	1372.625
-41.042	29.512	1644.709	1371.220
-40.027	29.488	1642.512	1369.155
-39.013	29.494	1640.528	1367.491
-37.998	29.446	1639.222	1365.999
-36.984	29.582	1637.459	1365.476
-35.969	29.583	1636.491	1364.622
-34.954	29.647	1634.973	1363.776
-33.940	29.646	1633.184	1362.221
-32.925	29.606	1631.725	1360.656
-31.911	29.649	1629.677	1359.210
-30.896	29.628	1627.873	1357.500
-29.881	29.623	1626.149	1355.969
-28.867	29.590	1624.115	1353.982
-27.852	29.656	1622.638	1353.181
-26.838	29.585	1621.980	1352.056
-25.823	29.532	1620.898	1350.715
-24.809	29.578	1619.164	1349.552
-23.794	29.589	1617.852	1348.483
-22.779	29.612	1616.046	1347.090
-21.765	29.627	1614.457	1345.824
-20.750	29.665	1612.449	1344.373
-19.736	29.735	1611.068	1343.675
-18.721	29.583	1609.827	1341.485
-17.706	29.597	1608.556	1340.471
-16.692	29.760	1606.900	1340.220
-15.677	29.665	1605.405	1338.234
-14.663	29.657	1604.045	1336.988
-13.648	29.676	1602.719	1335.965
-12.633	29.700	1601.195	1334.815
-11.619	29.621	1599.597	1332.865
-10.604	29.688	1597.913	1331.886
-9.590	29.799	1596.829	1331.730
-8.575	29.686	1595.796	1330.005
-7.560	29.617	1595.000	1328.792
-6.546	29.659	1593.926	1328.145
-5.531	29.721	1592.153	1327.065
-4.517	29.647	1591.092	1325.590
-3.502	29.662	1590.115	1324.832
-2.487	29.770	1588.229	1323.987
-1.473	29.487	1576.394	1312.054
-0.458	26.824	1558.095	1278.036
0.556	21.769	1559.183	1247.960
1.571	19.557	1583.162	1251.032
2.586	19.241	1596.258	1258.966
3.600	17.590	1543.149	1205.298
4.615	9.862	1432.675	1067.962
5.629	1.854	1367.527	968.572
6.644	0.286	1359.170	952.659
7.659	0.134	1357.974	950.773
8.673	0.062	1357.235	949.720
9.688	0.038	1355.160	948.034
10.702	-0.131	1352.162	944.786
11.717	3.632	1358.257	972.705
12.731	12.246	1372.040	1037.115
13.746	17.496	1378.464	1075.124
14.761	17.302	1376.739	1072.457
15.775	16.309	1374.097	1064.050
16.790	15.192	1371.680	1055.052
17.804	14.500	1368.991	1048.544
18.819	14.173	1368.237	1045.816
19.834	13.805	1366.950	1042.429
20.848	13.648	1365.004	1039.871
21.863	13.360	1364.125	1037.301
22.877	13.245	1362.920	1035.570
23.892	13.132	1361.821	1033.940
24.907	13.069	1361.166	1032.954
25.921	13.147	1360.506	1032.850
26.936	13.282	1359.298	1032.687
27.950	13.325	1358.185	1032.015
28.965	13.275	1357.620	1031.182
29.980	13.403	1356.569	1031.093
30.994	13.389	1355.884	1030.396
32.009	13.464	1354.736	1029.900
33.023	13.445	1353.742	1028.934
34.038	13.408	1352.414	1027.601
35.053	13.296	1351.943	1026.460
36.067	13.285	1350.676	1025.337
37.082	13.271	1349.906	1024.574
38.096	13.285	1348.922	1023.825
39.111	13.367	1347.778	1023.373
40.126	13.350	1347.338	1022.846
41.140	13.258	1345.991	1021.162
42.155	13.197	1345.885	1020.614
43.169	13.185	1345.821	1020.400
44.184	13.143	1345.440	1019.760
45.199	13.175	1344.831	1019.409
46.213	13.196	1344.414	1019.129
47.228	13.261	1343.313	1018.605
48.242	13.305	1341.649	1017.523
49.257	13.270	1340.769	1016.554
50.271	13.226	1339.235	1015.028
51.286	13.352	1337.806	1014.631
52.301	13.218	1336.625	1012.821
53.315	13.240	1335.882	1012.305
54.330	13.243	1334.558	1011.229
55.344	13.265	1333.217	1010.258
56.359	13.185	1332.411	1009.069
57.374	13.209	1331.510	1008.447
58.388	13.202	1330.619	1007.638
59.403	13.126	1330.013	1006.629
60.417	13.081	1329.847	1006.137
61.432	13.124	1328.426	1005.236
62.447	12.998	1327.609	1003.763
63.461	13.116	1326.217	1003.340
64.476	13.014	1325.856	1002.354
65.490	13.096	1324.255	1001.554
66.505	13.130	1322.750	1000.537
67.520	13.090	1321.325	999.125
68.534	13.247	1320.395	999.285
69.549	13.116	1319.494	997.725
70.563	13.090	1318.225	996.517
71.578	13.127	1317.086	995.789
72.593	13.055	1316.196	994.596
73.607	12.991	1315.725	993.765
74.622	13.102	1314.363	993.317
75.636	13.099	1313.951	992.903
76.651	13.050	1313.049	991.838
77.666	13.014	1312.762	991.318
78.680	13.011	1312.304	990.867
79.695	13.068	1310.700	989.908
80.709	13.128	1310.038	989.679
81.724	13.180	1309.285	989.338
82.739	13.158	1308.845	988.785
83.753	13.317	1307.289	988.473
84.768	13.381	1306.294	988.014
85.782	13.365	1305.182	986.990
86.797	13.445	1303.953	986.448
87.812	13.235	1302.920	984.329
88.826	13.254	1301.833	983.536
89.841	13.173	1301.078	982.394
90.855	13.241	1300.097	981.974
91.870	13.332	1298.966	981.569
92.884	13.356	1298.162	981.022
93.899	13.421	1297.102	980.519
94.914	13.327	1296.728	979.590
95.928	13.415	1295.666	979.219
96.943	13.320	1294.563	977.742
97.957	13.402	1293.950	977.675
98.972	13.313	1292.423	975.908
99.987	13.379	1291.725	975.688
101.001	13.327	1290.958	974.710
102.016	13.360	1290.041	974.131
103.030	13.372	1288.648	973.060
104.045	13.413	1287.958	972.697
105.060	13.270	1286.629	970.765
106.074	13.269	1285.154	969.560
107.089	13.178	1284.129	968.170
108.103	13.204	1283.141	967.489
109.118	13.283	1281.264	966.453
110.133	13.226	1279.880	964.990
111.147	13.227	1278.960	964.216
112.162	13.210	1277.831	963.183
113.176	13.166	1276.600	961.912
114.191	13.224	1275.856	961.603
115.206	13.291	1274.688	961.026
116.220	13.297	1273.387	959.996
117.235	13.255	1272.276	958.831
118.249	13.188	1271.309	957.627
119.264	13.218	1270.671	957.237
120.279	13.204	1269.120	955.904
121.293	13.258	1268.183	955.424
122.308	13.110	1267.118	953.684
123.322	13.151	1266.261	953.189
124.337	13.199	1264.992	952.427
125.352	13.286	1264.257	952.290
126.366	13.156	1262.991	950.504
127.381	13.226	1261.460	949.673
128.395	13.197	1260.825	948.944
129.410	13.166	1259.866	947.961
130.424	13.240	1258.873	947.554
131.439	13.234	1257.679	946.534
132.454	13.365	1256.846	946.574
133.468	13.318	1256.075	945.643
134.483	13.320	1255.242	944.939
135.497	13.363	1254.048	944.206
136.512	13.303	1253.144	943.097
137.527	13.268	1251.805	941.808
138.541	13.206	1250.410	940.325
139.556	13.183	1249.154	939.161
140.570	13.310	1248.297	939.155
141.585	13.423	1246.832	938.614
142.600	13.353	1245.832	937.381
143.614	13.539	1245.041	937.758
144.629	13.517	1243.647	936.497
145.643	13.413	1242.733	935.138
146.658	13.360	1241.603	933.909
147.673	13.383	1239.708	932.530
148.687	13.459	1238.669	932.091
149.702	13.347	1237.555	930.541
150.716	13.338	1236.420	929.556
151.731	13.371	1235.105	928.670
152.746	13.374	1233.959	927.744
153.760	13.350	1232.737	926.606
154.775	13.412	1231.767	926.141
155.789	13.504	1230.811	925.855
156.804	13.531	1230.028	925.337
157.819	13.445	1228.811	923.859
158.833	13.506	1228.117	923.594
159.848	13.556	1226.806	922.808
160.862	13.488	1225.971	921.722
161.877	13.511	1224.886	920.952
162.892	13.527	1223.603	919.992
163.906	13.479	1223.115	919.280
164.921	13.379	1222.615	918.267
165.935	13.578	1220.828	917.947
166.950	13.564	1220.432	917.490
167.964	13.530	1219.460	916.487
168.979	13.567	1218.866	916.164
169.994	13.543	1218.127	915.395
171.008	13.588	1217.609	915.174
172.023	13.570	1217.003	914.538
173.037	13.629	1215.706	913.809
174.052	13.643	1215.018	913.286
175.067	13.699	1213.590	912.440
176.081	13.513	1213.017	910.909
177.096	13.635	1211.450	910.321
178.110	13.635	1210.777	909.735
179.125	13.625	1209.699	908.791
180.140	13.668	1208.241	907.850
181.154	13.630	1207.528	907.024
182.169	13.615	1206.220	905.880
183.183	13.796	1204.837	905.749
184.198	13.759	1203.877	904.747
185.213	13.773	1202.569	903.760
186.227	13.806	1201.247	902.867
187.242	13.887	1200.479	902.646
188.256	13.967	1199.462	902.238
189.271	13.938	1198.551	901.317
190.286	13.721	1197.655	899.383
191.300	13.662	1196.638	898.221
192.315	13.588	1196.582	897.701
193.329	13.721	1195.440	897.481
194.344	13.647	1195.062	896.718
195.359	13.732	1194.453	896.645
196.373	13.762	1193.881	896.297
197.388	13.886	1193.659	896.723
198.402	13.925	1192.907	896.288
199.417	13.994	1192.378	896.183
200.432	14.011	1190.996	895.158
201.446	14.125	1190.126	895.037
202.461	14.123	1189.394	894.394
203.475	14.205	1187.699	893.480
204.490	14.127	1186.805	892.314
205.504	13.959	1185.971	890.705
206.519	14.020	1184.059	889.515
207.534	14.050	1183.428	889.127
208.548	13.986	1183.050	888.418
209.563	14.037	1182.082	887.884
210.577	14.059	1180.945	887.073
211.592	14.078	1180.137	886.487
212.607	14.160	1179.045	886.024
213.621	14.211	1178.384	885.724
214.636	14.191	1177.701	885.025
215.650	14.242	1176.638	884.420
216.665	14.305	1175.576	883.877
217.680	14.161	1175.265	882.800
218.694	14.341	1173.968	882.702
219.709	14.305	1173.271	881.908
220.723	14.344	1172.163	881.206
221.738	14.323	1171.820	880.755
222.753	14.366	1171.117	880.377
223.767	14.358	1170.412	879.727
224.782	14.337	1169.926	879.176
225.796	14.445	1168.944	878.925
226.811	14.461	1168.360	878.498
227.826	14.300	1167.777	877.132
228.840	14.429	1166.946	877.108
229.855	14.344	1166.175	876.005
230.869	14.291	1165.496	875.137
231.884	14.461	1164.631	875.304
232.899	14.392	1163.623	874.108
233.913	14.405	1163.458	873.974
234.928	14.310	1162.479	872.663
235.942	14.356	1161.430	872.042
236.957	14.322	1160.589	871.150
237.972	14.399	1159.875	870.942
238.986	14.277	1159.365	869.845
240.001	14.344	1158.923	869.787
241.015	14.360	1157.984	869.088
242.030	14.375	1157.625	868.822
243.045	14.472	1156.420	868.345
244.059	14.476	1155.892	867.889
245.074	14.492	1154.807	867.085
246.088	14.591	1154.077	866.971
247.103	14.564	1153.257	866.141
248.117	14.588	1152.538	865.647
249.132	14.656	1151.625	865.240
250.147	14.584	1151.444	864.654
251.161	14.696	1150.243	864.253
252.176	14.756	1149.574	863.985
253.190	14.839	1149.027	863.927
254.205	14.862	1148.831	863.824
255.220	14.827	1148.065	862.989
256.234	14.937	1147.036	862.703
257.249	14.939	1146.474	862.219
258.263	14.855	1146.146	861.461
259.278	14.878	1145.218	860.805
260.293	15.048	1144.933	861.391
261.307	15.020	1143.932	860.418
262.322	15.007	1143.366	859.847
263.336	15.021	1142.606	859.271
264.351	15.026	1142.525	859.158
265.366	15.036	1141.688	858.509
266.380	15.190	1140.306	858.182
267.395	15.051	1139.757	856.983
268.409	15.065	1139.062	856.454
269.424	15.059	1138.421	855.867
270.439	15.044	1137.999	855.396
271.453	15.004	1137.395	854.660
272.468	15.062	1136.427	854.156
273.482	15.018	1135.692	853.302
274.497	15.101	1135.279	853.338
275.512	15.094	1134.736	852.818
276.526	14.985	1133.700	851.413
277.541	15.148	1132.940	851.593
278.555	15.168	1132.513	851.297
279.570	15.197	1131.457	850.575
280.585	15.232	1130.801	850.186
281.599	15.291	1129.815	849.668
282.614	15.121	1128.868	848.018
283.628	15.215	1127.529	847.417
284.643	15.284	1126.766	847.113
285.657	15.244	1126.065	846.314
286.672	15.295	1125.313	845.931
287.687	15.238	1124.390	844.873
288.701	15.197	1123.683	844.058
289.716	15.423	1122.821	844.475
290.730	15.395	1122.286	843.858
291.745	15.402	1121.565	843.273
292.760	15.365	1120.900	842.515
293.774	15.348	1120.409	841.985
294.789	15.416	1119.749	841.758
295.803	15.494	1119.184	841.651
296.818	15.394	1118.789	840.777
297.833	15.392	1117.756	839.915
298.847	15.478	1116.846	839.586
299.862	15.509	1115.757	838.851
300.876	15.475	1115.813	838.646
301.891	15.439	1115.222	837.950
302.906	15.615	1114.304	838.064
303.920	15.583	1113.526	837.243
304.935	15.705	1112.748	837.194
305.949	15.626	1112.246	836.347
306.964	15.689	1111.504	836.029
307.979	15.709	1110.434	835.250
308.993	15.678	1109.951	834.657
310.008	15.725	1108.984	834.091
311.022	15.763	1108.304	833.693
312.037	15.623	1107.592	832.393
313.052	15.734	1106.418	831.985
314.066	15.606	1105.670	830.716
315.081	15.694	1104.834	830.449
316.095	15.663	1104.097	829.669
317.110	15.714	1103.293	829.243
318.125	15.695	1102.829	828.726
319.139	15.753	1102.414	828.624
320.154	15.714	1101.289	827.518
321.168	15.667	1100.939	826.947
322.183	15.707	1100.164	826.489
323.197	15.662	1100.091	826.138
324.212	15.693	1099.068	825.450
325.227	15.749	1098.569	825.277
326.241	15.799	1097.670	824.777
327.256	15.768	1096.869	823.947
328.270	15.884	1095.997	823.788
329.285	15.844	1095.380	823.057
330.300	15.848	1094.471	822.318
331.314	15.704	1093.917	821.127
332.329	15.806	1092.652	820.600
333.343	15.913	1091.430	820.135
334.358	15.925	1090.573	819.473
335.373	15.964	1089.990	819.153
336.387	16.022	1089.590	819.062
337.402	15.928	1089.271	818.296
338.416	16.032	1088.513	818.156
339.431	16.010	1087.966	817.566
340.446	15.971	1087.463	816.926
341.460	16.044	1086.237	816.291
342.475	16.269	1085.276	816.581
343.489	16.233	1084.367	815.651
344.504	16.265	1083.463	815.057
345.519	16.354	1082.453	814.652
346.533	16.233	1082.056	813.695
347.548	16.268	1081.511	813.383
348.562	16.238	1080.661	812.528
349.577	16.320	1079.429	811.927
350.592	16.168	1079.227	810.971
351.606	16.169	1078.607	810.439
352.621	16.178	1077.590	809.646
353.635	16.136	1076.726	808.723
354.650	16.228	1076.175	808.680
355.665	16.162	1075.377	807.691
356.679	16.243	1074.803	807.576
357.694	16.297	1074.511	807.544
358.708	16.225	1073.858	806.638
359.723	16.329	1073.065	806.467
360.738	16.324	1072.378	805.853
361.752	16.361	1071.795	805.522
362.767	16.431	1071.278	805.394
363.781	16.393	1070.792	804.779
364.796	16.527	1069.751	804.560
365.810	16.535	1069.426	804.285
366.825	16.581	1068.455	803.704
367.840	16.587	1068.773	803.898
368.854	16.527	1068.021	802.979
369.869	16.600	1066.850	802.373
370.883	16.644	1065.977	801.851
371.898	16.468	1065.655	800.705
372.913	16.460	1065.139	800.209
373.927	16.556	1064.453	800.079
374.942	16.600	1064.102	799.951
375.956	16.690	1063.564	799.899
376.971	16.614	1063.074	799.101
377.986	16.609	1062.398	798.501
379.000	16.792	1061.704	798.770
380.015	16.792	1061.261	798.367
381.029	16.887	1060.360	798.066
382.044	16.742	1059.692	796.811
383.059	16.866	1059.037	796.829
384.073	16.838	1057.956	795.812
385.088	16.926	1056.913	795.372
386.102	16.884	1056.540	794.826
387.117	16.753	1055.624	793.451
388.132	16.775	1054.372	792.544
389.146	16.768	1053.801	792.012
390.161	16.714	1053.357	791.355
391.175	16.866	1052.489	791.343
392.190	16.851	1051.728	790.629
393.205	16.911	1051.326	790.537
394.219	16.797	1050.474	789.297
395.234	16.958	1049.342	789.127
396.248	16.801	1048.554	787.731
397.263	16.947	1047.593	787.619
398.278	16.811	1046.913	786.405
399.292	16.935	1046.056	786.266
400.307	16.993	1045.343	785.933
401.321	16.822	1044.713	784.597
402.336	16.853	1044.215	784.295
403.350	16.964	1043.465	784.179
404.365	16.947	1042.818	783.545
405.380	17.006	1041.881	783.042
406.394	17.021	1041.377	782.662
407.409	17.024	1040.492	781.943
408.423	17.207	1039.851	782.235
409.438	17.060	1039.231	781.024
410.453	17.064	1038.734	780.600
411.467	17.241	1038.158	780.908
412.482	17.304	1037.264	780.456
413.496	17.253	1036.259	779.399
414.511	17.210	1036.088	779.005
415.526	17.324	1035.695	779.161
416.540	17.281	1035.293	778.594
417.555	17.246	1034.824	778.013
418.569	17.307	1034.041	777.633
419.584	17.363	1033.500	777.412
420.599	17.457	1033.138	777.501
421.613	103.185	1322.364	1468.193
422.628	94.486	1364.487	1468.295
