DTS Sentinel unit serial number:	SN413079Multiplexer serial number:	ORYXHardware model number:	OX4-SRSoftware version number:	ORYX F/W v4.00 Oryx Data Collector v3.7.2.0data status	okinstallation	princeton_trtdifferential loss correction	single-endedforward channel	channel 2reverse channel	N/Adate	2019/09/18time	19:19:35forward acquisition time	60.00reverse acquisition time	0.00gamma	496.2192k internal	0.2325k external	0.2325temperature offset calibration	1.0038default loss term (dB/km)	0.3790temperature slope calibration	1.0000multiplexer offset coefficient	1.0000multiplexer slope coefficient	1.0000fibre end	0.00T internal ref (°C)	33.97T ext. ref 1 (°C)	1.14T ext. ref 2 (°C)	23.31length (m)	temperature (°C)	Stokes	anti-Stokes-747.200	155.710	0.033	0.045
-746.185	-200.000	0.072	0.357
-745.171	-200.000	-0.026	-0.154
-744.156	800.000	-0.134	0.388
-743.142	-66.583	-0.277	0.111
-742.127	92.337	-0.276	0.314
-741.112	-173.255	0.149	0.005
-740.098	91.328	-0.040	0.046
-739.083	-158.046	-0.177	0.011
-738.069	-96.202	-0.202	-0.054
-737.054	-102.797	0.213	0.051
-736.039	-200.000	0.002	-0.205
-735.025	-200.000	-0.012	0.140
-734.010	-84.884	-0.234	0.074
-732.996	-10.291	-0.536	-0.359
-731.981	470.599	-0.196	0.444
-730.966	-47.892	-0.135	0.066
-729.952	-200.000	-0.044	0.253
-728.937	-86.800	0.190	0.059
-727.923	-200.000	0.011	0.117
-726.908	1.591	-0.021	0.015
-725.894	-113.999	-0.247	-0.048
-724.879	192.437	-0.014	-0.022
-723.864	-12.840	0.105	0.069
-722.850	-106.923	-0.329	-0.074
-721.835	-89.146	0.252	-0.075
-720.821	-72.903	-0.286	0.106
-719.806	800.000	0.094	-0.339
-718.791	410.396	-0.069	0.147
-717.777	-200.000	-0.002	0.209
-716.762	-32.608	-0.258	-0.145
-715.748	-90.751	0.065	0.019
-714.733	-54.955	-0.364	-0.165
-713.718	-200.000	0.025	0.289
-712.704	100.355	-0.258	0.302
-711.689	-88.301	0.211	0.064
-710.675	69.159	-0.024	0.025
-709.660	383.392	0.051	0.106
-708.645	-200.000	0.007	0.052
-707.631	-65.949	-0.235	-0.095
-706.616	-200.000	0.003	-0.221
-705.602	-72.732	0.099	0.037
-704.587	-200.000	-0.052	0.333
-703.572	223.791	0.081	0.132
-702.558	281.769	-0.122	-0.220
-701.543	145.147	-0.120	0.162
-700.529	-124.903	-0.166	-0.026
-699.514	290.669	0.075	-0.137
-698.499	-200.000	0.032	-0.246
-697.485	-30.029	-0.254	0.145
-696.470	213.928	-0.120	-0.191
-695.456	420.210	-0.187	0.403
-694.441	101.729	-0.055	-0.065
-693.426	800.000	-0.044	0.148
-692.412	9.185	-0.343	0.261
-691.397	55.979	-0.177	-0.173
-690.383	136.713	0.170	-0.223
-689.368	-159.266	0.313	0.018
-688.354	-200.000	0.008	-0.143
-687.339	128.608	-0.093	-0.120
-686.324	-119.902	0.456	0.079
-685.310	725.018	0.099	-0.266
-684.295	2.638	-0.332	-0.243
-683.281	800.000	-0.123	-0.539
-682.266	14.514	-0.063	0.050
-681.251	-162.162	-0.270	-0.014
-680.237	363.111	-0.072	0.146
-679.222	27.223	0.065	-0.055
-678.208	-200.000	-0.031	0.264
-677.193	-200.000	0.042	0.248
-676.178	176.662	0.094	0.137
-675.164	720.023	-0.030	0.079
-674.149	800.000	-0.061	-0.188
-673.135	-167.817	-0.038	0.002
-672.120	-200.000	-0.014	-0.162
-671.105	293.063	-0.107	-0.196
-670.091	-200.000	0.036	0.177
-669.076	-94.776	0.086	0.023
-668.062	483.783	-0.178	0.408
-667.047	-200.000	0.011	0.390
-666.032	-96.504	-0.321	0.085
-665.018	-60.122	-0.045	-0.019
-664.003	-153.401	-0.136	0.009
-662.989	-175.406	-0.220	-0.006
-661.974	-141.266	0.199	-0.020
-660.959	-82.432	0.043	-0.014
-659.945	-155.068	0.021	-0.001
-658.930	800.000	-0.068	-0.205
-657.916	-9.526	-0.134	-0.090
-656.901	42.506	-0.102	-0.093
-655.886	-55.738	0.050	-0.022
-654.872	-107.372	-0.254	0.056
-653.857	39.918	0.023	0.021
-652.843	800.000	0.057	0.201
-651.828	143.212	0.136	0.182
-650.814	-200.000	-0.017	0.197
-649.799	-200.000	0.009	-0.092
-648.784	-104.603	0.119	0.028
-647.770	800.000	0.038	-0.106
-646.755	23.248	-0.267	-0.221
-645.741	-125.060	0.184	-0.028
-644.726	67.409	0.091	-0.093
-643.711	-16.777	0.214	0.136
-642.697	33.172	-0.012	-0.010
-641.682	25.548	-0.090	0.075
-640.668	-200.000	0.015	0.145
-639.653	77.160	-0.205	-0.219
-638.638	-188.872	-0.270	0.003
-637.624	58.810	0.230	0.227
-636.609	-25.686	0.180	0.107
-635.595	51.260	0.203	0.193
-634.580	-200.000	0.072	0.536
-633.565	800.000	0.056	0.215
-632.551	28.332	-0.101	-0.085
-631.536	229.207	-0.067	-0.109
-630.522	-200.000	0.018	-0.370
-629.507	283.560	-0.093	-0.168
-628.492	-26.895	0.157	0.092
-627.478	-200.000	0.029	0.345
-626.463	303.018	0.206	-0.384
-625.449	-124.526	0.085	-0.013
-624.434	-200.000	-0.025	-0.284
-623.419	-200.000	-0.013	-0.108
-622.405	800.000	-0.043	0.174
-621.390	335.853	-0.123	-0.240
-620.376	32.065	-0.057	-0.049
-619.361	-200.000	-0.077	-0.358
-618.346	61.645	0.054	-0.054
-617.332	7.854	0.055	-0.041
-616.317	-82.968	0.090	0.029
-615.303	194.719	0.243	-0.371
-614.288	210.509	0.134	-0.211
-613.273	-43.119	0.308	-0.157
-612.259	66.674	-0.140	0.143
-611.244	-31.146	0.094	0.053
-610.230	-200.000	0.005	0.350
-609.215	763.752	-0.027	-0.074
-608.201	-101.758	-0.082	0.020
-607.186	-193.436	-0.225	-0.002
-606.171	800.000	0.100	0.310
-605.157	-7.673	-0.268	0.182
-604.142	36.460	0.309	0.274
-603.128	-200.000	-0.010	0.133
-602.113	115.623	0.170	0.208
-601.098	233.246	-0.158	-0.260
-600.084	440.385	-0.102	-0.223
-599.069	-200.000	-0.028	0.180
-598.055	-79.993	0.387	-0.130
-597.040	800.000	0.067	0.193
-596.025	-126.997	-0.300	0.044
-595.011	-99.172	0.123	0.031
-593.996	510.444	-0.217	-0.506
-592.982	-200.000	0.041	0.309
-591.967	-69.239	0.255	0.098
-590.952	462.740	-0.120	0.268
-589.938	-180.267	-0.228	0.005
-588.923	5.820	-0.102	0.076
-587.909	-103.989	-0.276	0.065
-586.894	491.868	-0.145	-0.334
-585.879	237.467	0.210	0.348
-584.865	26.842	0.139	-0.117
-583.850	575.357	0.123	-0.301
-582.836	146.541	0.173	-0.232
-581.821	38.637	0.133	-0.119
-580.806	-13.910	-0.408	-0.265
-579.792	800.000	0.124	-0.351
-578.777	800.000	0.023	0.068
-577.763	-40.023	-0.304	0.159
-576.748	259.024	-0.152	0.263
-575.733	-45.882	-0.138	0.068
-574.719	130.819	0.177	-0.228
-573.704	37.456	0.123	0.109
-572.690	5.539	0.128	0.095
-571.675	-200.000	0.012	0.221
-570.661	64.540	0.132	-0.133
-569.646	-74.272	-0.143	0.052
-568.631	-16.695	-0.068	-0.043
-567.617	800.000	-0.061	0.266
-566.602	-48.906	-0.168	0.080
-565.588	-63.686	-0.250	-0.103
-564.573	800.000	-0.121	0.414
-563.558	-124.448	-0.279	0.044
-562.544	69.415	-0.023	0.023
-561.529	-47.319	0.155	0.075
-560.515	-99.800	-0.110	0.028
-559.500	-200.000	-0.023	-0.231
-558.485	61.598	-0.298	0.297
-557.471	-88.852	0.135	-0.040
-556.456	-200.000	-0.001	0.169
-555.442	26.942	-0.218	-0.183
-554.427	165.300	0.140	0.199
-553.412	33.537	-0.221	-0.193
-552.398	800.000	-0.039	-0.158
-551.383	-167.306	0.201	-0.008
-550.369	-1.553	0.069	-0.048
-549.354	368.132	0.076	0.154
-548.339	-200.000	-0.006	-0.091
-547.325	800.000	0.110	0.414
-546.310	-8.338	0.110	-0.074
-545.296	465.396	-0.128	0.286
-544.281	198.526	0.064	0.098
-543.266	125.061	0.196	-0.247
-542.252	-200.000	-0.050	0.314
-541.237	-200.000	0.001	-0.132
-540.223	14.016	0.143	-0.112
-539.208	621.436	0.030	-0.076
-538.193	300.859	0.167	-0.308
-537.179	-147.492	0.060	0.005
-536.164	-9.841	0.152	0.101
-535.150	-124.784	-0.092	0.014
-534.135	11.506	0.038	-0.029
-533.121	-188.502	0.223	-0.003
-532.106	224.835	0.262	-0.424
-531.091	800.000	-0.032	-0.093
-530.077	98.623	-0.072	0.083
-529.062	51.506	0.243	-0.231
-528.048	391.337	-0.237	-0.492
-527.033	48.826	0.328	-0.308
-526.018	292.918	-0.013	-0.023
-525.004	-194.212	-0.186	0.002
-523.989	200.455	0.050	-0.077
-522.975	800.000	-0.107	-0.380
-521.960	98.535	0.105	-0.121
-520.945	63.397	0.168	-0.168
-519.931	46.394	0.164	0.152
-518.916	-63.087	0.200	-0.083
-517.902	284.993	-0.029	-0.052
-516.887	-96.953	-0.210	-0.055
-515.872	223.069	-0.067	-0.108
-514.858	-200.000	-0.040	-0.259
-513.843	-102.764	0.287	0.068
-512.829	67.207	0.198	0.202
-511.814	41.645	0.020	-0.018
-510.799	27.067	-0.018	0.015
-509.785	273.535	-0.044	0.078
-508.770	-74.573	0.383	0.138
-507.756	26.651	-0.299	0.250
-506.741	-77.250	0.114	0.040
-505.726	487.843	-0.165	-0.377
-504.712	-82.982	0.244	0.079
-503.697	-200.000	-0.026	0.168
-502.683	505.703	-0.075	-0.175
-501.668	90.721	-0.084	0.094
-500.653	78.692	0.149	0.160
-499.639	-142.693	0.172	0.017
-498.624	-200.000	-0.028	-0.199
-497.610	-46.262	0.058	-0.029
-496.595	-8.143	0.216	0.146
-495.581	-163.193	0.356	-0.017
-494.566	800.000	0.011	0.044
-493.551	-29.747	-0.116	0.066
-492.537	-200.000	-0.009	-0.157
-491.522	-177.693	0.067	0.002
-490.508	-140.939	-0.233	0.024
-489.493	800.000	-0.046	-0.179
-488.478	283.525	-0.125	0.225
-487.464	-74.108	0.324	-0.117
-486.449	800.000	0.104	0.303
-485.435	57.560	0.151	0.147
-484.420	-68.201	0.241	-0.094
-483.405	-200.000	-0.022	-0.312
-482.391	-107.322	-0.211	0.046
-481.376	-147.855	-0.182	-0.015
-480.362	41.680	-0.344	-0.311
-479.347	-115.810	-0.196	-0.037
-478.332	-105.057	-0.109	0.025
-477.318	800.000	-0.046	0.156
-476.303	142.416	-0.234	-0.310
-475.289	-169.082	-0.351	0.013
-474.274	251.936	-0.102	0.173
-473.259	253.646	-0.088	0.150
-472.245	14.223	0.017	0.013
-471.230	-200.000	-0.009	0.218
-470.216	188.258	0.179	-0.267
-469.201	-159.833	-0.162	0.009
-468.186	3.126	-0.094	0.068
-467.172	-92.968	0.283	0.079
-466.157	-200.000	0.056	-0.250
-465.143	800.000	0.098	-0.358
-464.128	-200.000	0.031	-0.148
-463.113	-40.803	0.322	0.166
-462.099	-200.000	-0.022	-0.106
-461.084	800.000	-0.026	0.114
-460.070	-200.000	-0.002	0.239
-459.055	-150.745	0.166	0.013
-458.040	126.510	-0.236	0.299
-457.026	-0.644	-0.125	0.088
-456.011	-169.864	-0.302	-0.011
-454.997	-152.245	0.187	0.013
-453.982	800.000	-0.043	-0.147
-452.968	561.049	-0.127	0.307
-451.953	-200.000	0.005	0.424
-450.938	425.666	0.089	0.191
-449.924	79.177	-0.339	0.362
-448.909	-103.149	0.285	-0.067
-447.895	-200.000	0.021	-0.424
-446.880	42.719	0.175	-0.159
-445.865	-78.425	-0.077	-0.026
-444.851	407.691	0.018	0.037
-443.836	0.405	0.137	-0.098
-442.822	8.427	0.267	-0.201
-441.807	73.377	-0.064	-0.066
-440.792	-83.874	0.171	-0.054
-439.778	-3.936	-0.083	-0.058
-438.763	-165.542	0.141	-0.006
-437.749	781.478	0.148	0.404
-436.734	335.393	-0.082	-0.158
-435.719	-79.353	-0.114	0.038
-434.705	73.475	0.119	-0.125
-433.690	-18.570	0.173	-0.107
-432.676	-57.931	-0.082	0.036
-431.661	800.000	0.104	-0.307
-430.646	-30.943	0.143	0.081
-429.632	3.230	-0.033	-0.024
-428.617	530.061	0.085	0.201
-427.603	69.080	0.323	0.331
-426.588	-161.800	0.140	0.007
-425.573	281.181	0.203	-0.362
-424.559	48.045	-0.022	0.021
-423.544	-200.000	0.021	0.093
-422.530	199.554	-0.027	-0.041
-421.515	-170.546	-0.423	-0.015
-420.500	168.766	-0.148	0.210
-419.486	-200.000	-0.022	0.109
-418.471	0.752	-0.085	-0.061
-417.457	-71.955	0.110	0.041
-416.442	-200.000	-0.001	0.253
-415.428	-65.945	0.262	-0.104
-414.413	800.000	-0.038	-0.109
-413.398	29.527	0.271	-0.230
-412.384	-200.000	-0.104	0.487
-411.369	-49.752	-0.222	0.105
-410.355	-24.189	-0.299	-0.178
-409.340	800.000	-0.101	0.381
-408.325	571.598	-0.117	0.283
-407.311	800.000	0.074	0.255
-406.296	-83.666	0.258	-0.082
-405.282	-140.698	-0.033	-0.003
-404.267	-163.965	-0.108	0.005
-403.252	110.976	-0.080	0.096
-402.238	-87.606	-0.205	0.062
-401.223	122.748	-0.123	0.154
-400.209	-200.000	0.007	-0.264
-399.194	800.000	-0.050	0.146
-398.179	-94.487	-0.342	-0.093
-397.165	-115.499	0.084	0.016
-396.150	568.021	-0.209	-0.504
-395.136	-130.882	0.257	-0.034
-394.121	526.886	-0.065	-0.152
-393.106	107.021	-0.073	0.086
-392.092	-14.367	-0.130	-0.083
-391.077	800.000	0.049	0.147
-390.063	-200.000	0.036	-0.190
-389.048	64.202	0.242	-0.243
-388.033	-156.796	-0.226	-0.014
-387.019	9.796	0.069	0.052
-386.004	-98.560	0.192	-0.049
-384.990	-200.000	0.053	0.242
-383.975	-169.322	-0.360	0.013
-382.960	-200.000	0.010	-0.198
-381.946	93.950	-0.031	0.035
-380.931	-52.076	-0.391	-0.181
-379.917	-200.000	-0.039	-0.188
-378.902	20.008	0.127	0.102
-377.888	-78.692	0.027	0.009
-376.873	503.373	0.158	-0.362
-375.858	347.704	0.130	0.254
-374.844	-19.096	-0.396	0.245
-373.829	-200.000	-0.019	0.107
-372.815	-106.909	0.217	0.048
-371.800	-0.988	-0.119	-0.084
-370.785	800.000	-0.048	0.169
-369.771	84.212	0.270	0.293
-368.756	-50.048	0.056	0.026
-367.742	-122.232	0.412	0.067
-366.727	128.393	0.111	0.140
-365.712	-200.000	0.008	-0.169
-364.698	294.262	0.192	0.349
-363.683	38.530	-0.272	-0.241
-362.669	800.000	0.056	-0.175
-361.654	-200.000	-0.045	0.234
-360.639	83.240	-0.154	0.166
-359.625	46.040	-0.054	0.050
-358.610	131.664	-0.066	0.085
-357.596	-140.296	0.264	-0.027
-356.581	-200.000	-0.032	-0.205
-355.566	-200.000	-0.012	0.273
-354.552	800.000	0.067	-0.203
-353.537	800.000	0.079	0.260
-352.523	-127.510	0.263	0.038
-351.508	498.132	0.172	-0.393
-350.493	800.000	0.060	-0.230
-349.479	800.000	-0.140	0.421
-348.464	634.576	-0.158	0.399
-347.450	-15.051	0.235	0.149
-346.435	-200.000	0.010	-0.132
-345.420	658.281	0.123	-0.314
-344.406	800.000	-0.074	-0.231
-343.391	-40.399	0.085	0.044
-342.377	-200.000	-0.036	-0.272
-341.362	355.614	0.117	0.231
-340.348	516.986	-0.100	0.232
-339.333	263.076	0.060	-0.103
-338.318	-48.264	0.030	0.014
-337.304	-49.886	0.261	0.123
-336.289	-200.000	-0.019	0.152
-335.275	206.033	0.134	0.206
-334.260	47.225	-0.250	0.231
-333.245	-200.000	-0.033	0.155
-332.231	-69.368	-0.324	0.123
-331.216	2.002	0.142	-0.102
-330.202	76.231	-0.367	-0.385
-329.187	-91.999	0.457	-0.128
-328.172	721.633	0.060	0.157
-327.158	-123.129	-0.552	0.088
-326.143	-132.445	0.147	0.019
-325.129	11.718	-0.054	-0.041
-324.114	233.091	0.245	0.400
-323.099	44.967	-0.301	0.275
-322.085	800.000	0.044	-0.135
-321.070	-53.331	-0.161	-0.073
-320.056	-200.000	-0.028	-0.430
-319.041	168.673	0.146	-0.206
-318.026	-200.000	-0.009	0.286
-317.012	9.858	-0.206	0.155
-315.997	32.047	0.115	0.098
-314.983	-200.000	0.039	0.236
-313.968	253.871	-0.050	0.085
-312.953	800.000	0.041	0.142
-311.939	-6.170	-0.270	-0.183
-310.924	-15.123	0.067	-0.043
-309.910	582.300	0.065	0.159
-308.895	92.518	-0.268	-0.300
-307.880	-168.378	0.274	0.010
-306.866	84.142	-0.159	0.172
-305.851	87.933	-0.056	-0.062
-304.837	-200.000	0.033	-0.453
-303.822	-200.000	0.004	0.042
-302.807	800.000	-0.137	-0.381
-301.793	-200.000	-0.049	-0.471
-300.778	-200.000	-0.019	0.147
-299.764	218.717	0.087	0.139
-298.749	-87.915	0.167	0.050
-297.735	35.150	0.091	-0.079
-296.720	676.838	-0.020	-0.052
-295.705	385.864	-0.018	-0.037
-294.691	124.677	0.068	0.084
-293.676	136.491	0.029	0.037
-292.662	-200.000	0.036	0.162
-291.647	-70.982	0.326	-0.122
-290.632	-60.159	-0.073	-0.031
-289.618	-200.000	0.001	-0.047
-288.603	31.693	0.146	0.124
-287.589	-71.394	-0.135	0.050
-286.574	198.787	-0.128	0.195
-285.559	-200.000	0.040	0.182
-284.545	800.000	0.084	0.253
-283.530	-122.168	-0.282	-0.046
-282.516	-200.000	-0.058	-0.415
-281.501	6.988	-0.403	-0.298
-280.486	-187.110	0.231	-0.003
-279.472	-122.394	-0.252	-0.041
-278.457	-75.206	-0.243	-0.086
-277.443	111.517	0.059	0.070
-276.428	-200.000	-0.008	-0.079
-275.413	-144.211	0.221	-0.020
-274.399	287.706	0.051	0.091
-273.384	800.000	0.155	0.498
-272.370	-164.842	-0.445	-0.020
-271.355	-200.000	-0.003	0.084
-270.340	624.064	-0.098	0.245
-269.326	-19.062	-0.172	0.106
-268.311	-200.000	0.003	-0.046
-267.297	2.725	-0.069	-0.050
-266.282	336.136	0.048	0.092
-265.267	-10.216	0.041	-0.027
-264.253	181.556	-0.022	-0.032
-263.238	-200.000	-0.019	-0.144
-262.224	-200.000	-0.033	0.257
-261.209	-200.000	-0.032	0.354
-260.195	-200.000	0.001	-0.222
-259.180	-69.801	0.340	-0.129
-258.165	57.685	0.088	-0.085
-257.151	293.073	-0.049	0.088
-256.136	-200.000	0.031	0.255
-255.122	-47.650	-0.036	0.017
-254.107	44.008	-0.152	-0.138
-253.092	-141.992	-0.196	0.019
-252.078	-200.000	0.021	-0.291
-251.063	303.243	-0.082	-0.150
-250.049	-41.883	-0.107	0.054
-249.034	-96.455	-0.244	0.064
-248.019	62.556	-0.111	0.110
-247.005	-25.970	-0.373	0.217
-245.990	209.929	0.059	-0.091
-244.976	-51.063	0.140	-0.065
-243.961	-163.808	0.183	-0.008
-242.946	5.366	0.219	0.160
-241.932	278.879	0.121	-0.214
-240.917	-118.541	-0.382	-0.067
-239.903	-127.256	0.102	0.015
-238.888	275.805	0.061	-0.108
-237.873	-200.000	-0.002	-0.179
-236.859	-78.305	0.169	-0.057
-235.844	561.416	-0.015	0.037
-234.830	165.038	0.189	0.265
-233.815	-200.000	0.004	-0.240
-232.800	-149.593	-0.258	-0.020
-231.786	257.426	-0.140	0.238
-230.771	-48.032	0.257	0.123
-229.757	-200.000	0.009	-0.163
-228.742	14.210	0.144	0.111
-227.727	1.350	-0.183	0.130
-226.713	-44.247	0.240	0.119
-225.698	58.361	-0.059	-0.057
-224.684	-159.928	-0.071	-0.004
-223.669	-173.146	-0.131	0.004
-222.655	800.000	0.067	-0.271
-221.640	-80.828	0.179	0.059
-220.625	-65.582	0.312	0.124
-219.611	-161.518	-0.157	0.008
-218.596	-29.903	0.092	-0.052
-217.582	-83.856	-0.214	0.067
-216.567	258.551	-0.070	-0.120
-215.552	-200.000	-0.073	-0.350
-214.538	31.486	-0.144	-0.123
-213.523	362.169	-0.158	-0.314
-212.509	-146.907	0.264	0.022
-211.494	17.955	-0.029	-0.023
-210.479	124.213	-0.087	0.108
-209.465	-200.000	-0.010	0.191
-208.450	-43.154	-0.061	-0.030
-207.436	-25.330	-0.414	-0.242
-206.421	-200.000	-0.084	-0.408
-205.406	-200.000	0.025	-0.158
-204.392	-50.399	-0.284	-0.132
-203.377	254.611	-0.077	0.130
-202.363	-89.843	-0.316	-0.091
-201.348	-107.052	-0.287	0.063
-200.333	744.630	-0.065	-0.174
-199.319	334.143	-0.112	0.214
-198.304	123.943	0.168	0.209
-197.290	-48.670	0.393	-0.186
-196.275	800.000	0.116	-0.472
-195.260	212.383	-0.096	-0.149
-194.246	800.000	-0.052	-0.154
-193.231	-34.430	0.263	-0.142
-192.217	-139.368	0.278	-0.030
-191.202	111.570	-0.220	0.261
-190.187	-114.679	0.022	-0.004
-189.173	800.000	0.054	-0.181
-188.158	234.672	0.148	0.241
-187.144	-132.168	0.106	0.014
-186.129	-16.961	0.170	-0.106
-185.114	800.000	-0.071	-0.271
-184.100	-7.175	-0.128	0.086
-183.085	39.472	-0.067	0.059
-182.071	-156.703	0.116	-0.007
-181.056	29.890	0.507	0.426
-180.042	-92.862	0.246	0.068
-179.027	58.542	-0.125	0.121
-178.012	-130.471	-0.233	-0.031
-176.998	-125.135	-0.124	0.019
-175.983	-58.217	0.162	-0.070
-174.969	15.815	0.310	0.241
-173.954	70.250	-0.247	0.251
-172.939	-200.000	0.044	-0.240
-171.925	435.842	-0.060	-0.129
-170.910	-20.311	0.143	-0.087
-169.896	-26.903	-0.325	-0.188
-168.881	19.450	-0.047	0.037
-167.866	-66.378	-0.104	-0.041
-166.852	-126.807	-0.155	-0.023
-165.837	-164.875	-0.050	-0.002
-164.823	33.751	-0.129	-0.110
-163.808	62.511	-0.122	0.120
-162.793	-49.823	0.089	-0.042
-161.779	-167.244	0.148	-0.006
-160.764	-156.371	0.296	0.018
-159.750	-68.433	-0.376	0.144
-158.735	-122.832	-0.319	0.051
-157.720	-200.000	-0.022	-0.104
-156.706	-200.000	0.003	0.079
-155.691	-131.952	-0.159	-0.020
-154.677	-200.000	0.016	0.147
-153.662	-200.000	0.018	0.146
-152.647	665.244	-0.099	0.252
-151.633	-152.578	0.314	0.022
-150.618	-200.000	-0.021	-0.173
-149.604	113.716	0.043	-0.051
-148.589	326.998	0.110	0.209
-147.574	-51.835	0.098	-0.045
-146.560	193.604	-0.180	-0.269
-145.545	-200.000	0.037	0.165
-144.531	-200.000	0.034	0.326
-143.516	-200.000	-0.033	-0.159
-142.502	-33.893	-0.173	0.094
-141.487	42.826	-0.210	0.188
-140.472	21.581	-0.139	0.111
-139.458	-200.000	-0.035	-0.363
-138.443	339.648	-0.068	-0.130
-137.429	-38.117	0.106	-0.055
-136.414	-114.553	0.177	0.034
-135.399	21.555	-0.317	-0.254
-134.385	81.071	0.129	-0.137
-133.370	800.000	0.037	-0.134
-132.356	-116.039	0.296	-0.054
-131.341	214.977	0.025	0.038
-130.326	-29.506	-0.193	-0.109
-129.312	39.847	-0.208	-0.184
-128.297	-95.469	0.350	-0.093
-127.283	-52.234	-0.136	0.062
-126.268	-200.000	-0.010	-0.283
-125.253	-200.000	0.036	-0.234
-124.239	800.000	0.182	-0.584
-123.224	52.145	-0.124	-0.117
-122.210	-48.089	-0.128	-0.061
-121.195	-144.344	0.243	-0.022
-120.180	-87.979	0.325	-0.096
-119.166	-35.946	-0.128	0.068
-118.151	-38.576	0.320	-0.166
-117.137	67.855	0.082	-0.083
-116.122	-148.803	0.482	0.038
-115.107	-14.899	0.032	-0.020
-114.093	345.247	-0.112	-0.216
-113.078	800.000	0.048	-0.187
-112.064	51.253	0.129	-0.120
-111.049	-29.391	-0.114	-0.064
-110.034	-12.019	-0.140	-0.091
-109.020	114.778	0.127	-0.153
-108.005	256.571	-0.200	0.338
-106.991	109.779	0.158	-0.186
-105.976	-109.608	0.221	-0.046
-104.962	202.310	0.034	-0.052
-103.947	118.093	0.098	-0.119
-102.932	175.261	-0.182	0.260
-101.918	-54.226	0.108	0.048
-100.903	-78.276	0.275	-0.093
-99.889	203.969	0.111	0.169
-98.874	-148.858	-0.125	-0.010
-97.859	164.969	0.145	0.202
-96.845	-79.167	-0.226	0.075
-95.830	-94.520	0.228	0.061
-94.816	124.766	0.079	0.097
-93.801	-140.697	-0.124	-0.013
-92.786	702.469	0.179	0.464
-91.772	552.801	0.065	0.153
-90.757	39.570	0.187	0.165
-89.743	800.000	0.044	0.127
-88.728	-41.709	0.112	-0.057
-87.713	800.000	-0.045	-0.153
-86.699	-4.127	-0.173	-0.118
-85.684	-13.882	0.136	0.087
-84.670	-200.000	0.039	0.261
-83.655	-153.074	0.091	-0.006
-82.640	-30.226	-0.294	0.164
-81.626	419.002	-0.129	-0.271
-80.611	-200.000	0.066	0.551
-79.597	248.510	0.045	0.074
-78.582	579.110	-0.073	-0.176
-77.567	-24.548	0.580	0.340
-76.553	-200.000	0.004	0.492
-75.538	102.791	-0.154	0.178
-74.524	-62.230	0.156	-0.064
-73.509	-200.000	-0.015	-0.257
-72.494	294.593	-0.065	0.117
-71.480	800.000	0.024	-0.086
-70.465	-200.000	-0.037	0.184
-69.451	-168.011	-0.131	0.005
-68.436	-200.000	0.026	0.313
-67.422	-109.453	0.142	0.030
-66.407	552.689	0.116	0.273
-65.392	-125.330	-0.186	0.028
-64.378	-150.707	-0.336	0.025
-63.363	-106.156	0.263	-0.058
-62.349	-78.651	0.336	-0.113
-61.334	506.608	-0.520	-1.184
-60.319	27.483	0.609	0.503
-59.305	660.218	-0.388	-0.982
-58.290	78.915	0.975	1.025
-57.276	-200.000	0.175	1.558
-56.261	-200.000	92.889	574.488
-55.246	566.904	1368.134	3261.933
-54.232	161.435	2551.475	3505.662
-53.217	107.183	2279.463	2661.089
-52.203	43.261	1908.780	1711.962
-51.188	37.301	1699.345	1478.860
-50.173	34.503	1655.107	1419.518
-49.159	52.064	1699.605	1590.269
-48.144	53.812	1716.674	1619.337
-47.130	36.806	1678.799	1457.025
-46.115	34.045	1663.888	1423.401
-45.100	33.909	1658.988	1418.136
-44.086	33.816	1656.312	1415.102
-43.071	33.796	1653.890	1412.822
-42.057	33.810	1650.737	1410.182
-41.042	33.842	1649.171	1409.026
-40.027	33.826	1647.419	1407.349
-39.013	33.887	1645.070	1405.738
-37.998	33.864	1643.799	1404.425
-36.984	33.841	1642.364	1402.980
-35.969	33.939	1641.023	1402.497
-34.954	33.882	1639.853	1401.021
-33.940	33.968	1637.414	1399.515
-32.925	33.975	1635.760	1398.096
-31.911	34.102	1634.020	1397.489
-30.896	33.998	1632.161	1395.082
-29.881	33.914	1631.103	1393.508
-28.867	33.938	1629.174	1391.976
-27.852	33.915	1627.629	1390.437
-26.838	33.884	1626.496	1389.187
-25.823	33.919	1625.223	1388.299
-24.809	33.935	1623.904	1387.235
-23.794	33.993	1621.762	1385.774
-22.779	33.987	1620.515	1384.609
-21.765	34.034	1618.780	1383.410
-20.750	33.960	1617.663	1381.861
-19.736	34.065	1615.831	1381.009
-18.721	34.031	1614.146	1379.263
-17.706	34.050	1613.111	1378.460
-16.692	33.972	1611.547	1376.509
-15.677	34.016	1610.149	1375.579
-14.663	33.974	1608.858	1374.116
-13.648	33.962	1607.468	1372.791
-12.633	33.963	1605.981	1371.469
-11.619	33.990	1604.693	1370.512
-10.604	34.053	1603.099	1369.547
-9.590	34.087	1601.485	1368.356
-8.575	34.075	1600.238	1367.151
-7.560	34.005	1599.474	1365.945
-6.546	33.972	1597.952	1364.355
-5.531	34.036	1597.209	1364.125
-4.517	34.054	1595.266	1362.536
-3.502	34.029	1594.523	1361.669
-2.487	33.990	1593.197	1360.207
-1.473	33.322	1579.763	1343.944
-0.458	28.689	1556.323	1291.448
0.556	22.447	1551.851	1240.930
1.571	18.821	1572.354	1231.276
2.586	17.693	1584.382	1232.434
3.600	16.067	1533.194	1181.127
4.615	9.555	1426.531	1056.279
5.629	2.678	1362.661	965.699
6.644	1.339	1354.099	951.160
7.659	1.108	1353.190	948.991
8.673	1.076	1352.419	948.163
9.688	1.038	1350.522	946.513
10.702	0.888	1347.402	943.309
11.717	3.978	1351.966	965.722
12.731	11.385	1363.241	1020.151
13.746	16.864	1370.334	1059.712
14.761	17.803	1370.832	1065.875
15.775	17.122	1368.699	1059.873
16.790	16.036	1366.564	1051.356
17.804	15.411	1363.558	1045.057
18.819	14.911	1363.276	1041.636
19.834	14.594	1361.585	1038.280
20.848	14.343	1360.545	1035.837
21.863	14.178	1359.099	1033.617
22.877	13.966	1357.715	1031.158
23.892	14.058	1356.200	1030.482
24.907	13.974	1355.808	1029.577
25.921	13.956	1355.117	1028.846
26.936	14.006	1354.105	1028.297
27.950	14.048	1353.073	1027.683
28.965	14.041	1352.361	1027.005
29.980	14.081	1351.406	1026.440
30.994	14.131	1350.382	1025.878
32.009	14.164	1349.839	1025.579
33.023	14.154	1348.735	1024.589
34.038	14.101	1347.174	1022.986
35.053	14.169	1346.004	1022.423
36.067	14.145	1345.247	1021.613
37.082	14.146	1344.025	1020.598
38.096	14.059	1343.516	1019.590
39.111	14.135	1342.587	1019.260
40.126	14.023	1342.032	1018.061
41.140	14.047	1340.989	1017.330
42.155	13.902	1340.523	1015.997
43.169	14.021	1340.234	1016.416
44.184	13.973	1339.934	1015.804
45.199	13.929	1339.893	1015.414
46.213	14.062	1339.199	1015.608
47.228	14.048	1337.888	1014.443
48.242	14.018	1336.992	1013.492
49.257	14.028	1335.558	1012.375
50.271	14.041	1334.325	1011.427
51.286	14.102	1332.699	1010.478
52.301	14.120	1331.474	1009.572
53.315	14.016	1330.306	1007.963
54.330	14.070	1329.346	1007.476
55.344	13.998	1328.521	1006.325
56.359	14.069	1327.062	1005.561
57.374	13.977	1326.097	1004.180
58.388	13.780	1326.073	1002.888
59.403	13.962	1325.079	1003.145
60.417	13.896	1324.736	1002.399
61.432	13.914	1323.407	1001.413
62.447	13.852	1322.905	1000.570
63.461	13.885	1321.566	999.668
64.476	13.904	1320.468	998.865
65.490	13.885	1319.021	997.563
66.505	13.950	1317.359	996.612
67.520	13.880	1316.577	995.511
68.534	13.848	1315.815	994.654
69.549	13.946	1314.000	993.778
70.563	13.837	1313.923	992.981
71.578	13.795	1312.327	991.438
72.593	13.852	1311.327	990.936
73.607	13.747	1310.994	989.970
74.622	13.745	1310.111	989.204
75.636	13.828	1309.291	988.987
76.651	13.814	1308.352	988.109
77.666	13.830	1307.662	987.596
78.680	13.841	1307.473	987.434
79.695	13.819	1306.674	986.607
80.709	13.798	1305.744	985.696
81.724	13.839	1304.612	984.996
82.739	13.929	1303.479	984.591
83.753	14.035	1302.645	984.498
84.768	14.066	1301.413	983.662
85.782	14.000	1300.697	982.648
86.797	13.995	1299.613	981.711
87.812	13.951	1298.239	980.328
88.826	13.998	1297.018	979.592
89.841	13.892	1295.987	978.102
90.855	14.074	1294.845	978.227
91.870	14.081	1294.177	977.677
92.884	14.036	1293.320	976.677
93.899	14.126	1292.663	976.625
94.914	14.169	1291.751	976.101
95.928	14.096	1290.947	974.979
96.943	14.018	1290.113	973.808
97.957	14.032	1289.237	973.144
98.972	14.076	1288.003	972.378
99.987	14.021	1287.217	971.379
101.001	14.044	1286.033	970.532
102.016	14.053	1285.075	969.779
103.030	14.025	1284.396	969.020
104.045	14.027	1283.692	968.413
105.060	14.074	1282.098	967.394
106.074	13.916	1281.402	965.868
107.089	13.958	1279.703	964.747
108.103	14.038	1278.319	964.083
109.118	13.971	1277.036	962.641
110.133	14.031	1275.692	961.891
111.147	13.968	1274.501	960.540
112.162	14.055	1272.909	959.759
113.176	13.999	1272.059	958.709
114.191	14.044	1270.920	958.024
115.206	14.065	1269.988	957.360
116.220	14.179	1268.651	956.922
117.235	14.131	1267.299	955.541
118.249	13.991	1266.907	954.355
119.264	14.077	1265.201	953.481
120.279	14.038	1264.473	952.625
121.293	13.925	1263.638	951.264
122.308	13.961	1262.331	950.401
123.322	14.078	1261.367	950.261
124.337	13.907	1260.287	948.385
125.352	13.979	1259.378	948.028
126.366	13.978	1258.153	947.017
127.381	13.936	1257.440	946.157
128.395	14.032	1255.779	945.369
129.410	13.930	1255.169	944.247
130.424	14.020	1254.388	944.089
131.439	14.058	1253.427	943.496
132.454	14.090	1251.887	942.436
133.468	14.077	1251.540	942.016
134.483	14.104	1251.096	941.752
135.497	14.018	1250.391	940.654
136.512	14.085	1248.692	939.673
137.527	14.123	1246.981	938.513
138.541	14.059	1246.118	937.422
139.556	14.110	1244.596	936.482
140.570	14.135	1243.537	935.742
141.585	14.277	1242.165	935.425
142.600	14.210	1241.418	934.404
143.614	14.103	1240.954	933.369
144.629	14.145	1239.177	932.186
145.643	14.209	1238.244	931.763
146.658	14.171	1237.026	930.550
147.673	14.116	1235.713	929.173
148.687	14.110	1234.662	928.264
149.702	14.060	1233.413	926.968
150.716	14.075	1232.280	926.115
151.731	14.212	1230.425	925.400
152.746	14.276	1229.454	924.943
153.760	14.178	1228.742	923.786
154.775	14.227	1227.187	922.802
155.789	14.216	1226.120	921.858
156.804	14.190	1225.751	921.356
157.819	14.397	1224.378	921.390
158.833	14.356	1223.268	920.246
159.848	14.358	1222.604	919.675
160.862	14.390	1221.464	918.911
161.877	14.233	1220.725	917.408
162.892	14.221	1219.784	916.557
163.906	14.211	1219.063	915.878
164.921	14.297	1217.920	915.409
165.935	14.407	1216.379	914.776
166.950	14.327	1215.996	913.966
167.964	14.341	1215.328	913.459
168.979	14.229	1214.972	912.498
169.994	14.271	1214.068	911.967
171.008	14.390	1213.024	911.755
172.023	14.342	1212.721	911.185
173.037	14.392	1211.771	910.663
174.052	14.392	1211.040	910.031
175.067	14.393	1209.488	908.789
176.081	14.448	1208.383	908.178
177.096	14.435	1207.688	907.506
178.110	14.402	1206.782	906.565
179.125	14.497	1205.182	905.801
180.140	14.400	1204.105	904.387
181.154	14.407	1203.051	903.549
182.169	14.456	1202.230	903.120
183.183	14.524	1200.639	902.213
184.198	14.481	1199.657	901.161
185.213	14.538	1198.760	900.715
186.227	14.574	1197.537	899.913
187.242	14.567	1196.714	899.179
188.256	14.687	1195.712	898.992
189.271	14.479	1195.086	897.319
190.286	14.576	1193.690	896.713
191.300	14.484	1192.946	895.582
192.315	14.463	1192.640	895.159
193.329	14.560	1191.255	894.561
194.344	14.543	1190.751	894.012
195.359	14.492	1190.863	893.745
196.373	14.644	1189.767	893.659
197.388	14.670	1189.108	893.223
198.402	14.693	1188.565	892.855
199.417	14.745	1188.498	893.004
200.432	14.793	1187.588	892.500
201.446	14.874	1186.253	891.850
202.461	14.818	1185.414	890.840
203.475	14.885	1184.336	890.309
204.490	14.853	1183.259	889.251
205.504	14.897	1182.333	888.708
206.519	14.871	1181.153	887.608
207.534	14.818	1179.693	886.149
208.548	14.809	1179.111	885.587
209.563	14.770	1178.286	884.681
210.577	14.803	1177.288	884.029
211.592	14.908	1176.643	884.022
212.607	14.905	1175.736	883.244
213.621	14.890	1174.740	882.340
214.636	14.982	1173.918	882.132
215.650	14.880	1173.441	881.155
216.665	15.003	1172.043	880.679
217.680	15.076	1170.957	880.163
218.694	15.057	1170.466	879.618
219.709	15.056	1169.454	878.776
220.723	14.967	1168.870	877.791
221.738	15.089	1167.912	877.636
222.753	14.945	1167.592	876.559
223.767	15.014	1167.018	876.415
224.782	15.098	1166.375	876.293
225.796	15.184	1165.625	876.103
226.811	15.115	1165.080	875.257
227.826	15.149	1163.878	874.451
228.840	15.120	1163.360	873.833
229.855	15.201	1162.561	873.579
230.869	15.085	1162.009	872.485
231.884	15.157	1161.242	872.206
232.899	15.121	1160.487	871.372
233.913	15.106	1159.602	870.553
234.928	15.027	1158.953	869.578
235.942	15.057	1158.197	869.090
236.957	15.181	1157.270	868.962
237.972	15.207	1156.451	868.400
238.986	15.121	1156.007	867.549
240.001	15.150	1155.189	867.008
241.015	15.194	1154.383	866.551
242.030	15.191	1153.329	865.667
243.045	15.273	1153.114	865.854
244.059	15.251	1152.098	864.905
245.074	15.288	1151.306	864.422
246.088	15.255	1150.678	863.705
247.103	15.439	1149.463	863.661
248.117	15.391	1148.540	862.648
249.132	15.389	1148.522	862.545
250.147	15.480	1147.184	861.932
251.161	15.535	1146.490	861.614
252.176	15.506	1145.952	860.985
253.190	15.546	1145.206	860.554
254.205	15.498	1144.670	859.829
255.220	15.544	1144.529	859.883
256.234	15.552	1144.102	859.526
257.249	15.589	1143.139	858.917
258.263	15.661	1142.351	858.617
259.278	15.630	1141.831	857.994
260.293	15.800	1140.659	857.902
261.307	15.691	1140.663	857.275
262.322	15.850	1139.814	857.372
263.336	15.774	1139.219	856.459
264.351	15.741	1138.812	855.908
265.366	15.806	1138.075	855.608
266.380	15.807	1137.248	854.919
267.395	15.822	1136.352	854.247
268.409	15.719	1135.405	852.934
269.424	15.732	1135.094	852.690
270.439	15.788	1134.350	852.343
271.453	15.779	1133.635	851.681
272.468	15.893	1132.292	851.173
273.482	15.816	1132.199	850.639
274.497	15.817	1131.731	850.217
275.512	15.908	1130.868	849.956
276.526	15.872	1130.083	849.107
277.541	15.848	1129.290	848.314
278.555	15.872	1128.709	847.923
279.570	16.020	1127.753	847.876
280.585	15.944	1127.244	847.037
281.599	16.008	1126.113	846.436
282.614	16.052	1124.658	845.486
283.628	15.996	1124.332	844.887
284.643	15.985	1123.165	843.878
285.657	15.984	1122.310	843.157
286.672	16.047	1121.478	842.772
287.687	16.006	1120.707	841.911
288.701	16.120	1119.985	841.864
289.716	16.081	1119.017	840.870
290.730	16.179	1118.324	840.762
291.745	16.080	1118.048	839.984
292.760	16.163	1116.861	839.433
293.774	16.356	1116.147	839.782
294.789	16.311	1115.887	839.288
295.803	16.191	1115.452	838.293
296.818	16.157	1114.732	837.504
297.833	16.267	1113.767	837.255
298.847	16.095	1113.459	836.095
299.862	16.262	1112.450	836.093
300.876	16.146	1111.998	835.105
301.891	16.348	1111.301	835.506
302.906	16.380	1110.235	834.785
303.920	16.293	1109.782	833.942
304.935	16.463	1109.160	834.241
305.949	16.352	1108.942	833.458
306.964	16.360	1107.699	832.486
307.979	16.388	1107.016	832.037
308.993	16.401	1106.418	831.580
310.008	16.467	1105.606	831.221
311.022	16.531	1104.750	830.818
312.037	16.596	1103.639	830.229
313.052	16.449	1103.237	829.131
314.066	16.555	1102.334	828.899
315.081	16.485	1101.454	827.819
316.095	16.466	1100.770	827.141
317.110	16.458	1100.053	826.488
318.125	16.522	1099.504	826.317
319.139	16.429	1098.784	825.250
320.154	16.433	1097.642	824.337
321.168	16.463	1097.205	824.081
322.183	16.540	1096.768	824.056
323.197	16.585	1096.087	823.687
324.212	16.518	1095.795	823.071
325.227	16.460	1095.279	822.329
326.241	16.593	1094.416	822.254
327.256	16.496	1093.406	820.950
328.270	16.538	1092.759	820.596
329.285	16.590	1091.411	819.766
330.300	16.691	1090.599	819.570
331.314	16.561	1090.098	818.492
332.329	16.531	1089.426	817.773
333.343	16.648	1087.946	817.150
334.358	16.721	1087.047	816.756
335.373	16.676	1086.765	816.256
336.387	16.782	1086.115	816.205
337.402	16.801	1085.308	815.621
338.416	16.701	1084.853	814.725
339.431	16.744	1084.152	814.330
340.446	16.832	1083.167	813.941
341.460	16.859	1083.017	813.888
342.475	16.886	1081.842	813.064
343.489	16.877	1081.163	812.437
344.504	16.855	1080.447	811.723
345.519	16.953	1079.102	811.109
346.533	17.014	1078.345	810.761
347.548	16.980	1078.099	810.340
348.562	17.111	1076.879	809.975
349.577	17.010	1075.976	808.744
350.592	17.029	1075.406	808.332
351.606	16.957	1074.911	807.549
352.621	16.851	1074.462	806.635
353.635	16.950	1073.515	806.323
354.650	16.971	1072.794	805.810
355.665	17.028	1071.976	805.396
356.679	17.010	1071.349	804.767
357.694	17.084	1070.751	804.597
358.708	17.036	1070.319	803.975
359.723	17.058	1069.697	803.542
360.738	16.956	1069.053	802.502
361.752	17.252	1067.922	802.981
362.767	17.176	1067.858	802.504
363.781	17.171	1067.326	802.009
364.796	17.147	1066.638	801.309
365.810	17.217	1065.745	800.894
366.825	17.302	1065.245	800.847
367.840	17.271	1064.580	800.133
368.854	17.371	1064.427	800.416
369.869	17.336	1063.642	799.594
370.883	17.365	1062.525	798.817
371.898	17.324	1062.228	798.331
372.913	17.308	1061.655	797.756
373.927	17.354	1060.918	797.347
374.942	17.423	1060.614	797.370
375.956	17.410	1059.954	796.742
376.971	17.395	1059.362	796.156
377.986	17.419	1058.735	795.727
379.000	17.408	1058.226	795.223
380.015	17.451	1057.753	794.999
381.029	17.590	1056.691	794.777
382.044	17.654	1056.349	794.750
383.059	17.677	1055.768	794.347
384.073	17.598	1054.789	793.173
385.088	17.648	1054.173	792.872
386.102	17.497	1053.025	791.239
387.117	17.522	1052.118	790.604
388.132	17.632	1051.280	790.414
389.146	17.477	1050.688	789.181
390.161	17.584	1049.828	788.960
391.175	17.614	1049.129	788.505
392.190	17.697	1048.612	788.427
393.205	17.653	1048.092	787.766
394.219	17.744	1046.990	787.287
395.234	17.679	1046.161	786.296
396.248	17.682	1045.021	785.383
397.263	17.670	1043.920	784.430
398.278	17.761	1043.395	784.386
399.292	17.778	1042.976	784.078
400.307	17.618	1042.499	782.914
401.321	17.735	1041.690	782.774
402.336	17.679	1040.800	781.779
403.350	17.622	1040.083	780.909
404.365	17.782	1039.688	781.279
405.380	17.804	1038.904	780.720
406.394	17.828	1038.156	780.198
407.409	17.853	1037.079	779.436
408.423	17.886	1036.497	779.081
409.438	17.996	1036.090	779.208
410.453	17.899	1035.205	778.032
411.467	17.908	1034.588	777.537
412.482	18.015	1033.987	777.503
413.496	18.100	1032.988	777.073
414.511	17.988	1032.773	776.331
415.526	18.128	1032.021	776.331
416.540	18.099	1031.691	775.885
417.555	18.141	1031.139	775.589
418.569	18.111	1030.786	775.120
419.584	18.083	1030.108	774.414
420.599	17.979	1029.786	773.633
421.613	103.502	1317.747	1457.676
422.628	94.799	1359.677	1457.786
