DTS Sentinel unit serial number:	SN413079Multiplexer serial number:	ORYXHardware model number:	OX4-SRSoftware version number:	ORYX F/W v4.00 Oryx Data Collector v3.7.2.0data status	okinstallation	princeton_trtdifferential loss correction	single-endedforward channel	channel 2reverse channel	N/Adate	2019/09/19time	01:19:35forward acquisition time	60.00reverse acquisition time	0.00gamma	496.2192k internal	0.2353k external	0.2353temperature offset calibration	1.0018default loss term (dB/km)	0.3790temperature slope calibration	1.0000multiplexer offset coefficient	1.0000multiplexer slope coefficient	1.0000fibre end	0.00T internal ref (°C)	21.69T ext. ref 1 (°C)	0.70T ext. ref 2 (°C)	15.13length (m)	temperature (°C)	Stokes	anti-Stokes-747.200	-13.106	-0.198	0.128
-746.185	498.350	0.048	-0.110
-745.171	132.946	-0.122	-0.157
-744.156	655.747	-0.045	-0.115
-743.142	-130.384	-0.126	0.017
-742.127	111.564	-0.073	0.088
-741.112	-16.188	0.077	0.049
-740.098	-200.000	0.011	-0.201
-739.083	364.048	0.209	0.420
-738.069	245.736	0.147	0.247
-737.054	-25.063	0.083	-0.049
-736.039	-115.815	-0.357	-0.067
-735.025	-200.000	-0.006	-0.061
-734.010	-112.734	-0.126	-0.025
-732.996	-71.512	0.194	-0.072
-731.981	-65.104	-0.074	-0.030
-730.966	684.800	-0.095	-0.246
-729.952	701.992	-0.103	0.271
-728.937	-200.000	0.400	0.001
-727.923	312.334	-0.078	0.145
-726.908	-200.000	0.003	0.153
-725.894	-27.945	-0.139	-0.080
-724.879	-200.000	-0.027	0.222
-723.864	496.934	0.064	0.146
-722.850	800.000	0.134	0.554
-721.835	12.926	-0.117	-0.090
-720.821	-10.228	0.128	0.084
-719.806	-162.112	0.215	0.011
-718.791	242.529	-0.042	0.070
-717.777	530.594	-0.008	-0.019
-716.762	71.451	0.103	0.107
-715.748	67.626	0.240	-0.244
-714.733	115.638	0.073	0.089
-713.718	25.618	0.464	0.384
-712.704	480.588	-0.120	0.272
-711.689	229.133	-0.213	-0.346
-710.675	128.964	0.200	-0.254
-709.660	466.347	0.078	0.173
-708.645	720.459	-0.102	0.270
-707.631	76.976	-0.131	0.139
-706.616	-27.315	-0.361	-0.209
-705.602	152.743	0.098	-0.133
-704.587	-95.314	-0.039	-0.010
-703.572	226.310	-0.141	0.227
-702.558	13.471	-0.304	0.235
-701.543	129.879	0.115	-0.146
-700.529	89.083	-0.063	-0.070
-699.514	800.000	0.041	-0.118
-698.499	-200.000	-0.021	-0.099
-697.485	-61.252	0.126	-0.053
-696.470	86.397	-0.175	0.192
-695.456	148.522	-0.055	0.074
-694.441	800.000	0.117	-0.452
-693.426	133.777	0.073	0.094
-692.412	-19.252	0.221	0.137
-691.397	-131.780	-0.319	-0.042
-690.383	-200.000	0.030	-0.180
-689.368	344.723	0.159	0.311
-688.354	452.374	0.111	0.245
-687.339	154.091	0.105	0.143
-686.324	660.903	0.027	-0.070
-685.310	547.933	0.091	-0.217
-684.295	-47.289	0.218	0.106
-683.281	-200.000	-0.022	0.117
-682.266	-200.000	0.008	0.046
-681.251	147.410	-0.123	-0.165
-680.237	-11.625	0.091	-0.059
-679.222	-58.867	-0.305	0.131
-678.208	48.246	-0.031	0.029
-677.193	96.443	0.143	0.163
-676.178	-200.000	0.004	0.123
-675.164	-184.569	0.336	0.005
-674.149	-145.665	-0.270	-0.024
-673.135	-200.000	0.008	-0.184
-672.120	-79.605	0.221	-0.074
-671.105	-200.000	0.017	0.171
-670.091	429.031	-0.010	0.022
-669.076	673.079	-0.032	-0.082
-668.062	-177.471	-0.521	-0.013
-667.047	-117.502	-0.045	0.008
-666.032	-147.271	-0.071	0.006
-665.018	-200.000	0.026	0.222
-664.003	43.719	0.241	-0.219
-662.989	302.307	0.077	0.142
-661.974	-200.000	0.002	0.022
-660.959	800.000	-0.037	-0.116
-659.945	306.021	-0.157	0.290
-658.930	-200.000	0.007	0.179
-657.916	-62.660	0.229	0.094
-656.901	-200.000	-0.045	0.273
-655.886	-57.881	-0.085	-0.037
-654.872	-200.000	-0.005	-0.222
-653.857	76.287	0.016	0.017
-652.843	-176.696	-0.365	0.009
-651.828	800.000	0.137	-0.406
-650.814	352.175	0.181	-0.357
-649.799	2.558	0.037	0.027
-648.784	-41.596	-0.198	0.101
-647.770	-200.000	0.016	0.112
-646.755	-200.000	0.092	-0.625
-645.741	-200.000	0.004	-0.064
-644.726	198.698	-0.026	0.040
-643.711	38.984	0.134	0.119
-642.697	-200.000	-0.014	0.138
-641.682	-200.000	0.025	0.107
-640.668	-200.000	0.039	-0.206
-639.653	6.861	-0.187	-0.138
-638.638	800.000	-0.122	-0.342
-637.624	13.404	0.131	-0.101
-636.609	-200.000	0.015	-0.145
-635.595	-200.000	-0.041	-0.297
-634.580	324.813	0.209	-0.396
-633.565	-94.448	-0.422	-0.114
-632.551	800.000	0.037	0.115
-631.536	-110.237	0.116	0.024
-630.522	320.900	0.126	-0.238
-629.507	-65.468	0.276	0.110
-628.492	273.558	0.046	0.080
-627.478	-38.746	0.321	0.168
-626.463	-32.053	-0.366	-0.203
-625.449	-107.691	0.090	0.020
-624.434	-200.000	0.013	-0.115
-623.419	800.000	-0.038	0.151
-622.405	156.328	0.140	-0.192
-621.390	59.115	-0.099	-0.097
-620.376	-61.237	-0.140	0.059
-619.361	-35.071	0.200	0.108
-618.346	-124.013	0.331	0.052
-617.332	137.335	-0.112	0.145
-616.317	66.276	-0.217	-0.219
-615.303	-76.891	-0.122	0.042
-614.288	-200.000	0.003	0.090
-613.273	115.533	-0.143	-0.173
-612.259	109.594	0.097	-0.115
-611.244	93.797	-0.103	-0.116
-610.230	-200.000	0.013	0.210
-609.215	-89.328	-0.547	0.160
-608.201	9.497	-0.275	-0.207
-607.186	-184.407	-0.298	-0.005
-606.171	5.714	-0.109	0.080
-605.157	-200.000	0.033	-0.225
-604.142	-200.000	0.022	0.146
-603.128	249.546	-0.233	0.392
-602.113	-149.437	-0.065	0.005
-601.098	-96.548	0.033	0.009
-600.084	194.629	0.079	0.119
-599.069	-6.916	0.112	0.075
-598.055	800.000	-0.124	0.343
-597.040	-146.687	-0.303	0.026
-596.025	800.000	-0.009	0.033
-595.011	180.050	0.197	-0.287
-593.996	4.047	0.234	0.170
-592.982	-200.000	-0.040	-0.215
-591.967	-185.803	-0.284	0.004
-590.952	-121.010	-0.485	-0.081
-589.938	234.580	-0.107	0.176
-588.923	800.000	-0.051	-0.150
-587.909	-200.000	-0.004	0.078
-586.894	6.802	-0.093	-0.068
-585.879	230.767	0.026	-0.042
-584.865	605.694	-0.035	0.087
-583.850	-154.424	-0.037	-0.002
-582.836	-17.790	-0.118	0.073
-581.821	163.444	-0.313	0.437
-580.806	-103.438	0.135	-0.031
-579.792	-52.141	-0.247	0.113
-578.777	353.062	-0.089	-0.175
-577.763	696.000	-0.076	0.199
-576.748	245.807	-0.081	0.135
-575.733	2.961	0.278	-0.200
-574.719	51.065	0.165	0.155
-573.704	209.260	-0.139	-0.216
-572.690	-130.932	-0.101	0.013
-571.675	-200.000	0.006	0.195
-570.661	-153.124	-0.232	-0.016
-569.646	14.401	0.194	-0.150
-568.631	328.225	0.123	0.235
-567.617	54.872	-0.222	0.213
-566.602	184.916	0.247	-0.362
-565.588	-200.000	0.029	0.173
-564.573	17.034	-0.378	0.296
-563.558	141.934	0.019	0.025
-562.544	-35.977	0.023	-0.013
-561.529	-200.000	0.050	-0.261
-560.515	54.280	-0.185	-0.177
-559.500	85.779	0.107	0.117
-558.485	-152.929	-0.071	0.005
-557.471	-137.340	-0.106	0.012
-556.456	-174.166	-0.409	-0.012
-555.442	-65.263	-0.100	-0.040
-554.427	-200.000	0.009	0.237
-553.412	-17.746	0.121	0.075
-552.398	-109.005	0.094	0.020
-551.383	-87.784	0.140	0.042
-550.369	-59.915	-0.248	-0.105
-549.354	-17.347	-0.498	-0.311
-548.339	-200.000	0.023	-0.313
-547.325	30.542	-0.160	0.136
-546.310	800.000	0.161	0.588
-545.296	-200.000	-0.053	0.310
-544.281	445.170	-0.078	-0.170
-543.266	63.638	0.070	0.069
-542.252	-58.495	0.292	0.125
-541.237	28.190	0.103	0.086
-540.223	-200.000	0.018	0.106
-539.208	-200.000	0.011	-0.053
-538.193	122.175	-0.045	-0.056
-537.179	-200.000	0.001	-0.267
-536.164	-200.000	0.039	-0.307
-535.150	547.757	0.119	0.282
-534.135	74.863	0.247	-0.257
-533.121	55.585	0.148	0.142
-532.106	-14.642	0.180	-0.114
-531.091	800.000	-0.080	0.239
-530.077	77.273	-0.067	0.071
-529.062	106.254	0.055	0.065
-528.048	185.980	-0.081	-0.119
-527.033	-200.000	-0.013	-0.064
-526.018	250.351	-0.145	-0.243
-525.004	-27.369	0.372	-0.214
-523.989	-114.699	0.136	0.026
-522.975	-200.000	0.033	0.217
-521.960	153.050	-0.101	0.136
-520.945	59.819	0.289	0.282
-519.931	-102.175	0.172	0.041
-518.916	-42.150	0.066	-0.033
-517.902	9.920	-0.466	-0.350
-516.887	99.776	0.218	0.249
-515.872	-135.644	-0.359	0.042
-514.858	-200.000	0.024	-0.143
-513.843	-200.000	0.056	-0.273
-512.829	120.113	-0.055	-0.068
-511.814	158.964	0.060	-0.082
-510.799	-200.000	0.101	0.454
-509.785	-65.864	-0.304	0.120
-508.770	-1.238	0.225	-0.157
-507.756	150.416	-0.182	0.244
-506.741	86.629	0.271	0.295
-505.726	84.668	0.151	0.163
-504.712	-182.231	0.341	0.006
-503.697	800.000	-0.027	-0.092
-502.683	-69.989	-0.140	-0.053
-501.668	672.802	0.054	-0.139
-500.653	-200.000	-0.035	0.169
-499.639	-175.970	-0.076	0.002
-498.624	-200.000	-0.003	-0.266
-497.610	531.437	0.095	0.222
-496.595	-200.000	-0.002	0.044
-495.581	390.509	0.033	-0.068
-494.566	713.037	-0.084	-0.219
-493.551	-200.000	0.001	-0.197
-492.537	-63.802	-0.182	-0.073
-491.522	-99.372	0.222	0.055
-490.508	-108.762	0.234	-0.049
-489.493	-108.436	0.133	0.028
-488.478	26.066	0.077	-0.063
-487.464	800.000	-0.062	-0.229
-486.449	-74.880	0.393	0.139
-485.435	-93.792	0.051	-0.014
-484.420	32.348	-0.126	-0.108
-483.405	800.000	0.045	-0.159
-482.391	-127.622	-0.009	-0.001
-481.376	800.000	0.002	-0.007
-480.362	625.696	-0.145	-0.361
-479.347	235.698	0.100	0.163
-478.332	-128.662	0.136	-0.019
-477.318	147.366	-0.074	-0.099
-476.303	-43.962	-0.154	-0.077
-475.289	328.618	0.091	0.172
-474.274	800.000	0.026	-0.098
-473.259	-15.856	-0.067	-0.042
-472.245	-16.574	-0.083	-0.052
-471.230	53.333	-0.116	-0.110
-470.216	-200.000	-0.002	-0.357
-469.201	800.000	-0.077	-0.292
-468.186	-76.287	0.256	0.089
-467.172	-173.781	-0.322	0.009
-466.157	-29.043	0.284	0.161
-465.143	70.057	-0.077	0.079
-464.128	602.844	0.055	-0.135
-463.113	-75.835	0.106	0.037
-462.099	-70.663	-0.328	0.122
-461.084	-79.656	-0.221	0.074
-460.070	-121.057	-0.173	-0.029
-459.055	800.000	-0.028	0.077
-458.040	800.000	-0.053	-0.198
-457.026	800.000	0.052	0.174
-456.011	-200.000	-0.046	-0.322
-454.997	674.977	-0.030	-0.077
-453.982	57.414	0.223	-0.214
-452.968	41.208	0.348	0.310
-451.953	-132.366	-0.121	-0.015
-450.938	-72.883	0.091	0.033
-449.924	465.850	-0.104	-0.229
-448.909	-200.000	0.015	-0.204
-447.895	-84.327	0.251	0.078
-446.880	-181.868	0.249	0.005
-445.865	-87.937	-0.463	0.137
-444.851	-76.930	0.376	0.129
-443.836	800.000	-0.027	-0.096
-442.822	-151.220	0.243	0.018
-441.807	-200.000	-0.003	0.149
-440.792	-200.000	0.009	0.230
-439.778	-14.394	-0.160	-0.101
-438.763	104.001	0.116	0.134
-437.749	-5.870	-0.122	-0.082
-436.734	-200.000	-0.035	-0.211
-435.719	275.193	-0.132	0.231
-434.705	61.907	0.107	-0.105
-433.690	209.096	0.180	-0.277
-432.676	162.606	-0.102	-0.141
-431.661	-20.882	-0.108	0.065
-430.646	-200.000	-0.062	-0.297
-429.632	-200.000	-0.027	-0.162
-428.617	334.818	-0.158	-0.301
-427.603	-54.261	0.090	-0.040
-426.588	150.252	-0.072	-0.097
-425.573	800.000	0.074	-0.212
-424.559	598.323	0.234	-0.570
-423.544	-62.458	0.074	-0.030
-422.530	3.880	0.145	-0.104
-421.515	800.000	-0.133	-0.417
-420.500	-200.000	-0.011	-0.193
-419.486	242.841	-0.166	-0.274
-418.471	-146.888	0.162	0.014
-417.457	800.000	-0.042	-0.150
-416.442	-200.000	-0.032	0.164
-415.428	-200.000	-0.043	0.267
-414.413	30.931	-0.137	0.116
-413.398	800.000	0.101	-0.406
-412.384	800.000	-0.167	-0.504
-411.369	3.387	0.191	-0.137
-410.355	-132.683	0.255	0.032
-409.340	-200.000	-0.629	-0.001
-408.325	-29.870	-0.211	-0.118
-407.311	106.005	0.104	-0.121
-406.296	272.971	0.150	-0.260
-405.282	172.430	0.142	0.202
-404.267	11.442	-0.125	-0.094
-403.252	219.140	-0.111	0.174
-402.238	171.229	-0.064	0.090
-401.223	25.984	-0.071	-0.058
-400.209	-50.065	0.342	-0.159
-399.194	-37.272	0.192	-0.101
-398.179	-30.766	-0.266	0.148
-397.165	-200.000	0.019	-0.120
-396.150	-169.616	0.463	-0.017
-395.136	529.256	-0.173	0.402
-394.121	14.435	-0.256	0.196
-393.106	-70.807	-0.057	-0.021
-392.092	215.168	0.074	0.115
-391.077	43.405	0.110	0.099
-390.063	16.718	-0.067	0.052
-389.048	475.825	0.123	0.273
-388.033	-107.063	0.134	-0.029
-387.019	146.817	-0.129	-0.170
-386.004	-129.980	-0.148	-0.020
-384.990	-116.620	0.077	0.014
-383.975	44.702	0.348	0.314
-382.960	-40.842	-0.229	0.116
-381.946	12.901	-0.297	0.226
-380.931	204.092	0.156	-0.237
-379.917	-143.695	0.162	-0.015
-378.902	22.425	0.185	0.149
-377.888	219.915	-0.086	0.136
-376.873	28.126	0.093	0.077
-375.858	-200.000	-0.016	0.332
-374.844	719.849	-0.043	0.112
-373.829	283.739	0.088	-0.156
-372.815	-111.590	-0.130	0.026
-371.800	-126.749	-0.119	-0.017
-370.785	-43.216	-0.272	-0.135
-369.771	50.628	-0.037	-0.035
-368.756	170.204	0.150	0.211
-367.742	6.366	-0.176	0.128
-366.727	-200.000	0.021	-0.102
-365.712	473.554	0.069	-0.153
-364.698	-126.049	-0.394	-0.058
-363.683	190.118	-0.105	0.154
-362.669	-131.068	-0.082	0.011
-361.654	-116.429	0.122	-0.022
-360.639	-163.255	0.080	0.004
-359.625	21.422	0.190	-0.151
-358.610	-101.312	-0.239	0.057
-357.596	-200.000	0.050	0.315
-356.581	394.555	0.063	-0.128
-355.566	-111.116	0.368	0.074
-354.552	-57.206	-0.097	-0.042
-353.537	800.000	-0.072	0.275
-352.523	-200.000	-0.003	-0.063
-351.508	-5.987	-0.297	-0.199
-350.493	59.037	0.105	0.102
-349.479	-26.409	0.181	0.104
-348.464	268.506	-0.200	-0.344
-347.450	376.811	0.088	-0.177
-346.435	-200.000	-0.016	0.422
-345.420	60.022	0.110	0.107
-344.406	45.635	0.062	0.057
-343.391	134.855	-0.143	-0.183
-342.377	-133.644	0.317	0.039
-341.362	198.797	-0.225	0.338
-340.348	3.750	-0.377	0.270
-339.333	5.223	-0.086	-0.062
-338.318	285.679	0.246	0.435
-337.304	-13.228	-0.033	0.021
-336.289	-200.000	-0.062	-0.442
-335.275	-200.000	-0.001	-0.540
-334.260	85.711	0.206	-0.222
-333.245	800.000	0.149	-0.510
-332.231	-125.017	0.300	0.045
-331.216	170.485	-0.090	0.126
-330.202	-150.289	-0.366	-0.028
-329.187	189.154	0.106	-0.156
-328.172	-62.588	0.207	-0.084
-327.158	-200.000	0.024	0.245
-326.143	-133.300	0.258	-0.032
-325.129	48.463	0.061	0.056
-324.114	-182.756	-0.081	-0.001
-323.099	99.723	0.048	-0.054
-322.085	-200.000	-0.015	0.260
-321.070	158.028	0.195	0.265
-320.056	156.630	0.113	-0.153
-319.041	-6.281	-0.191	0.128
-318.026	-30.223	0.236	0.132
-317.012	143.042	-0.046	0.060
-315.997	14.931	0.463	-0.355
-314.983	-98.523	-0.474	-0.119
-313.968	298.698	0.082	-0.148
-312.953	-200.000	-0.002	0.170
-311.939	71.236	-0.192	0.196
-310.924	-101.901	-0.275	0.065
-309.910	656.286	0.100	-0.251
-308.895	764.515	-0.023	0.061
-307.880	-200.000	0.023	-0.139
-306.866	-154.306	-0.102	-0.007
-305.851	-71.134	0.155	-0.057
-304.837	-111.983	0.263	-0.052
-303.822	-200.000	-0.001	0.107
-302.807	-36.388	0.101	-0.053
-301.793	-163.617	-0.158	0.007
-300.778	-139.315	0.098	0.010
-299.764	-39.920	0.105	0.054
-298.749	-41.365	-0.139	-0.070
-297.735	800.000	-0.031	0.097
-296.720	104.472	0.194	-0.224
-295.705	-125.932	-0.131	-0.019
-294.691	112.000	0.174	0.206
-293.676	133.207	-0.138	0.174
-292.662	168.890	-0.143	0.200
-291.647	-121.021	0.365	0.060
-290.632	-113.708	-0.454	0.087
-289.618	-22.677	0.109	0.065
-288.603	-97.697	0.191	-0.048
-287.589	-105.896	-0.107	0.024
-286.574	-200.000	0.024	0.135
-285.559	-77.210	0.049	0.017
-284.545	-152.973	0.487	-0.034
-283.530	-200.000	-0.042	0.251
-282.516	-200.000	-0.016	0.187
-281.501	219.659	-0.272	0.426
-280.486	218.290	-0.237	0.371
-279.472	-37.201	0.224	-0.118
-278.457	-117.572	-0.110	0.020
-277.443	-61.501	0.076	-0.031
-276.428	178.241	-0.105	-0.150
-275.413	-200.000	0.009	-0.374
-274.399	327.763	-0.035	-0.066
-273.384	800.000	-0.052	-0.185
-272.370	800.000	0.046	-0.179
-271.355	-19.120	0.116	-0.070
-270.340	319.508	0.110	-0.204
-269.326	800.000	-0.030	-0.089
-268.311	-200.000	0.010	-0.068
-267.297	177.458	0.187	0.266
-266.282	-200.000	0.006	0.046
-265.267	322.431	-0.268	0.499
-264.253	-95.644	0.291	0.076
-263.238	-13.144	0.201	0.128
-262.224	800.000	0.070	-0.247
-261.209	55.025	-0.046	0.044
-260.195	0.666	0.147	-0.103
-259.180	-174.738	0.270	0.007
-258.165	149.567	0.042	-0.055
-257.151	-156.448	0.384	-0.023
-256.136	-74.549	-0.050	0.018
-255.122	98.225	-0.215	-0.242
-254.107	179.956	0.178	0.256
-253.092	140.445	-0.156	0.201
-252.078	-111.775	-0.127	-0.025
-251.063	411.370	-0.058	-0.121
-250.049	-108.814	0.443	-0.093
-249.034	78.777	0.209	0.218
-248.019	54.591	0.234	-0.221
-247.005	-9.585	0.173	-0.113
-245.990	-41.678	0.139	-0.070
-244.976	320.324	0.130	0.242
-243.961	-7.298	-0.315	0.209
-242.946	800.000	-0.054	0.158
-241.932	264.217	0.096	-0.163
-240.917	-20.373	-0.445	0.268
-239.903	-200.000	-0.005	-0.118
-238.888	214.949	0.319	0.495
-237.873	84.781	-0.106	-0.113
-236.859	108.605	0.081	0.095
-235.844	24.902	0.175	-0.142
-234.830	800.000	-0.041	-0.134
-233.815	-22.996	0.257	0.151
-232.800	-35.311	0.050	0.026
-231.786	800.000	0.067	0.181
-230.771	-200.000	0.092	0.511
-229.757	184.852	0.130	0.189
-228.742	-127.003	0.420	0.060
-227.727	-200.000	-0.003	0.324
-226.713	-200.000	-0.011	0.073
-225.698	410.562	-0.085	-0.176
-224.684	-98.341	0.248	-0.062
-223.669	331.436	-0.042	0.079
-222.655	-200.000	0.043	0.209
-221.640	-18.798	-0.137	-0.083
-220.625	-5.569	-0.175	-0.118
-219.611	-200.000	0.002	0.318
-218.596	-175.160	-0.069	-0.002
-217.582	-92.317	0.340	-0.094
-216.567	188.633	-0.089	-0.129
-215.552	-35.374	0.408	-0.217
-214.538	101.296	-0.250	-0.284
-213.523	684.628	-0.029	-0.074
-212.509	-200.000	0.007	-0.091
-211.494	82.482	-0.058	0.061
-210.479	546.792	0.066	0.153
-209.465	26.230	-0.103	0.084
-208.450	-57.002	-0.270	0.116
-207.436	-94.704	0.162	-0.043
-206.421	397.863	-0.267	-0.545
-205.406	-200.000	-0.000	-0.248
-204.392	230.769	-0.200	0.319
-203.377	108.983	-0.087	-0.102
-202.363	401.831	0.084	-0.172
-201.348	-200.000	0.003	0.364
-200.333	-88.993	-0.319	-0.092
-199.319	-200.000	-0.041	-0.231
-198.304	117.245	-0.241	0.289
-197.290	225.389	-0.157	0.248
-196.275	-4.903	-0.111	0.075
-195.260	-96.531	0.188	0.048
-194.246	161.244	-0.182	-0.248
-193.231	-200.000	0.004	-0.023
-192.217	151.439	0.171	0.227
-191.202	-102.802	-0.117	-0.027
-190.187	-200.000	0.038	-0.191
-189.173	-73.671	0.243	0.086
-188.158	-200.000	-0.005	-0.112
-187.144	-200.000	-0.027	0.271
-186.129	350.758	-0.035	-0.067
-185.114	169.380	0.133	-0.186
-184.100	-61.476	-0.051	-0.021
-183.085	-29.704	-0.446	0.248
-182.071	-124.337	0.362	0.055
-181.056	99.602	-0.120	-0.136
-180.042	-52.379	0.072	-0.033
-179.027	-83.985	-0.244	0.076
-178.012	-178.046	-0.062	-0.001
-176.998	-129.074	0.273	-0.037
-175.983	-200.000	0.037	-0.444
-174.969	454.534	-0.025	0.054
-173.954	17.943	-0.282	0.219
-172.939	-165.725	-0.108	0.005
-171.925	233.119	-0.180	-0.289
-170.910	101.742	0.139	0.158
-169.896	-200.000	-0.009	0.411
-168.881	193.309	-0.080	0.117
-167.866	517.425	-0.076	-0.174
-166.852	333.252	-0.050	0.094
-165.837	242.887	-0.056	-0.092
-164.823	-200.000	0.025	0.164
-163.808	-200.000	0.013	0.092
-162.793	79.279	0.188	0.196
-161.779	133.744	0.098	0.123
-160.764	47.938	0.059	-0.053
-159.750	-52.083	-0.148	0.067
-158.735	-36.978	0.054	0.028
-157.720	0.510	-0.139	0.097
-156.706	-92.822	-0.102	0.028
-155.691	-133.055	-0.126	-0.016
-154.677	-48.021	-0.085	-0.040
-153.662	337.137	-0.151	-0.285
-152.647	-200.000	-0.035	0.390
-151.633	-76.121	0.342	0.118
-150.618	-144.375	0.363	0.033
-149.604	213.960	-0.065	-0.099
-148.589	55.325	0.155	0.146
-147.574	-116.684	-0.477	-0.085
-146.560	-36.612	0.122	-0.064
-145.545	24.035	-0.100	-0.081
-144.531	800.000	0.063	-0.196
-143.516	687.829	0.045	0.115
-142.502	-20.375	0.192	-0.115
-141.487	736.912	-0.079	-0.206
-140.472	213.819	0.068	0.104
-139.458	-6.327	-0.176	-0.117
-138.443	101.583	0.092	-0.104
-137.429	144.779	-0.189	-0.246
-136.414	-23.396	-0.123	0.072
-135.399	-101.357	0.032	-0.008
-134.385	155.379	0.193	-0.259
-133.370	-200.000	-0.040	0.234
-132.356	-15.555	0.197	-0.122
-131.341	-106.907	-0.231	0.050
-130.326	800.000	-0.170	0.571
-129.312	103.129	-0.218	-0.249
-128.297	99.558	0.246	0.277
-127.283	-103.562	0.096	0.022
-126.268	800.000	0.030	-0.125
-125.253	-200.000	-0.038	-0.206
-124.239	-117.145	-0.390	0.069
-123.224	42.179	0.437	0.387
-122.210	35.887	-0.082	0.070
-121.195	-3.265	-0.286	0.194
-120.180	17.199	0.218	0.168
-119.166	-200.000	0.036	-0.194
-118.151	800.000	0.053	0.215
-117.137	800.000	0.012	0.048
-116.122	-33.324	-0.145	0.078
-115.107	800.000	-0.058	-0.189
-114.093	-115.267	0.082	0.015
-113.078	-13.192	0.114	0.072
-112.064	800.000	0.013	0.055
-111.049	-86.466	-0.228	-0.068
-110.034	-1.114	0.181	0.124
-109.020	109.648	-0.037	0.044
-108.005	-200.000	0.023	0.218
-106.991	103.629	0.127	-0.145
-105.976	79.017	0.322	0.335
-104.962	138.397	-0.134	0.171
-103.947	-200.000	-0.012	-0.079
-102.932	164.087	-0.263	-0.360
-101.918	-200.000	-0.024	0.123
-100.903	528.804	0.136	0.313
-99.889	800.000	-0.043	0.131
-98.874	800.000	-0.067	0.187
-97.859	-105.555	-0.087	0.019
-96.845	756.310	0.127	-0.335
-95.830	36.708	0.126	-0.109
-94.816	-200.000	-0.013	0.118
-93.801	-18.597	0.225	0.136
-92.786	-62.251	0.067	-0.027
-91.772	-150.521	0.172	0.013
-90.757	9.721	-0.261	0.193
-89.743	800.000	0.061	0.230
-88.728	-107.221	0.102	0.022
-87.713	-85.676	0.346	0.104
-86.699	-200.000	-0.362	0.001
-85.684	-13.345	0.178	0.112
-84.670	135.463	0.148	0.187
-83.655	77.693	-0.325	-0.336
-82.640	-82.593	-0.111	0.035
-81.626	800.000	0.112	0.441
-80.611	265.010	-0.178	-0.301
-79.597	272.661	0.121	0.208
-78.582	-200.000	-0.019	0.197
-77.567	307.346	-0.197	0.357
-76.553	104.446	0.118	-0.135
-75.538	-200.000	0.022	0.220
-74.524	-121.465	-0.190	0.031
-73.509	171.128	0.117	0.164
-72.494	-41.676	-0.139	-0.069
-71.480	341.597	0.126	-0.239
-70.465	-7.581	-0.130	0.086
-69.451	800.000	0.103	-0.427
-68.436	-92.434	0.111	0.030
-67.422	142.599	0.146	0.189
-66.407	-64.984	-0.530	-0.208
-65.392	-200.000	0.029	0.233
-64.378	-87.494	-0.177	0.052
-63.363	-200.000	0.087	0.373
-62.349	800.000	0.043	-0.150
-61.334	64.123	-1.323	-1.292
-60.319	222.843	0.445	0.696
-59.305	337.060	-0.631	-1.190
-58.290	358.584	0.676	1.311
-57.276	800.000	0.583	1.583
-56.261	-200.000	135.099	688.324
-55.246	352.058	1669.483	3210.377
-54.232	134.336	2812.128	3538.513
-53.217	85.296	2307.292	2457.619
-52.203	30.574	1903.046	1579.508
-51.188	24.693	1697.761	1364.339
-50.173	22.696	1659.830	1318.888
-49.159	44.970	1733.745	1549.228
-48.144	42.012	1742.815	1534.642
-47.130	24.271	1693.450	1357.445
-46.115	21.766	1677.688	1325.835
-45.100	21.492	1673.016	1320.024
-44.086	21.506	1670.614	1318.179
-43.071	21.543	1667.597	1316.027
-42.057	21.510	1665.351	1313.956
-41.042	21.620	1663.437	1313.219
-40.027	21.459	1662.564	1311.271
-39.013	21.483	1660.298	1309.608
-37.998	21.476	1658.447	1308.042
-36.984	21.550	1656.846	1307.285
-35.969	21.599	1655.977	1306.913
-34.954	21.708	1653.941	1306.065
-33.940	21.643	1652.294	1304.229
-32.925	21.634	1650.475	1302.676
-31.911	21.653	1649.038	1301.627
-30.896	21.769	1646.515	1300.448
-29.881	21.619	1645.795	1298.715
-28.867	21.680	1644.291	1297.930
-27.852	21.768	1642.245	1296.915
-26.838	21.690	1641.413	1295.629
-25.823	21.692	1639.963	1294.443
-24.809	21.740	1639.152	1294.110
-23.794	21.724	1637.410	1292.563
-22.779	21.736	1636.052	1291.529
-21.765	21.705	1634.267	1289.840
-20.750	21.668	1632.397	1288.041
-19.736	21.768	1631.341	1287.894
-18.721	21.770	1630.275	1287.015
-17.706	21.652	1628.768	1284.905
-16.692	21.702	1627.025	1283.849
-15.677	21.786	1625.483	1283.197
-14.663	21.786	1624.022	1281.993
-13.648	21.780	1622.441	1280.648
-12.633	21.807	1621.092	1279.731
-11.619	21.707	1619.986	1278.073
-10.604	21.755	1618.580	1277.265
-9.590	21.649	1617.337	1275.464
-8.575	21.732	1615.490	1274.560
-7.560	21.687	1614.533	1273.424
-6.546	21.773	1613.513	1273.193
-5.531	21.708	1612.576	1271.932
-4.517	21.623	1611.206	1270.186
-3.502	21.758	1610.585	1270.628
-2.487	21.842	1608.156	1269.270
-1.473	21.290	1596.393	1255.962
-0.458	18.238	1576.525	1218.584
0.556	13.588	1578.940	1186.806
1.571	11.289	1602.774	1187.876
2.586	11.095	1614.254	1194.861
3.600	10.349	1560.208	1149.462
4.615	6.016	1454.542	1042.800
5.629	1.538	1398.983	974.236
6.644	0.713	1392.356	964.272
7.659	0.676	1391.607	963.429
8.673	0.663	1390.660	962.608
9.688	0.758	1387.771	961.127
10.702	0.512	1384.235	957.030
11.717	2.772	1386.673	972.974
12.731	8.886	1396.236	1018.543
13.746	14.917	1405.117	1063.394
14.761	17.143	1407.835	1079.517
15.775	16.705	1406.365	1075.518
16.790	15.679	1403.862	1066.996
17.804	15.005	1401.779	1061.049
18.819	14.595	1400.710	1057.548
19.834	14.349	1399.105	1054.683
20.848	14.158	1397.454	1052.135
21.863	13.832	1396.681	1049.401
22.877	13.677	1394.897	1046.993
23.892	13.548	1394.657	1045.901
24.907	13.633	1393.139	1045.209
25.921	13.686	1392.061	1044.638
26.936	13.691	1391.477	1044.144
27.950	13.713	1390.646	1043.562
28.965	13.701	1389.818	1042.773
29.980	13.836	1388.683	1042.679
30.994	13.858	1387.871	1042.116
32.009	13.867	1386.854	1041.318
33.023	13.872	1385.258	1040.059
34.038	13.995	1383.542	1039.443
35.053	13.807	1382.993	1037.765
36.067	13.842	1382.075	1037.205
37.082	13.854	1381.323	1036.620
38.096	13.865	1380.795	1036.204
39.111	13.867	1379.435	1035.102
40.126	13.778	1378.399	1033.682
41.140	13.716	1377.921	1032.847
42.155	13.696	1377.413	1032.249
43.169	13.651	1377.445	1031.897
44.184	13.654	1377.145	1031.605
45.199	13.604	1376.466	1030.690
46.213	13.705	1375.842	1030.760
47.228	13.799	1374.769	1030.450
48.242	13.721	1373.495	1028.917
49.257	13.719	1372.560	1028.115
50.271	13.773	1370.474	1026.795
51.286	13.688	1369.402	1025.378
52.301	13.791	1367.533	1024.520
53.315	13.597	1367.232	1023.009
54.330	13.742	1365.974	1022.869
55.344	13.685	1364.893	1021.617
56.359	13.643	1363.489	1020.219
57.374	13.588	1363.020	1019.441
58.388	13.631	1361.959	1018.819
59.403	13.621	1361.387	1018.245
60.417	13.566	1360.819	1017.388
61.432	13.636	1359.570	1016.796
62.447	13.555	1358.680	1015.540
63.461	13.524	1357.796	1014.603
64.476	13.565	1356.170	1013.549
65.490	13.593	1354.916	1012.691
66.505	13.610	1353.444	1011.606
67.520	13.601	1352.066	1010.432
68.534	13.591	1351.222	1009.651
69.549	13.577	1350.137	1008.666
70.563	13.639	1349.141	1008.210
71.578	13.571	1348.025	1006.871
72.593	13.516	1347.202	1005.833
73.607	13.562	1346.035	1005.152
74.622	13.498	1345.189	1004.045
75.636	13.560	1344.568	1003.872
76.651	13.592	1344.180	1003.685
77.666	13.436	1343.500	1002.143
78.680	13.557	1342.930	1002.358
79.695	13.604	1341.556	1001.529
80.709	13.529	1341.559	1000.990
81.724	13.621	1340.140	1000.401
82.739	13.603	1339.926	1000.042
83.753	13.632	1338.475	999.047
84.768	13.756	1337.416	998.915
85.782	13.732	1336.164	997.744
86.797	13.735	1334.663	996.553
87.812	13.748	1333.456	995.643
88.826	13.719	1332.118	994.383
89.841	13.705	1331.191	993.516
90.855	13.668	1330.658	992.814
91.870	13.669	1329.245	991.673
92.884	13.790	1328.130	991.480
93.899	13.825	1327.435	991.081
94.914	13.846	1326.795	990.640
95.928	13.878	1325.768	989.980
96.943	13.856	1324.917	989.124
97.957	13.792	1324.061	988.014
98.972	13.810	1323.146	987.356
99.987	13.755	1322.156	986.202
101.001	13.820	1321.178	985.769
102.016	13.724	1320.345	984.490
103.030	13.773	1319.290	983.906
104.045	13.852	1318.238	983.505
105.060	13.824	1317.336	982.578
106.074	13.823	1315.320	980.983
107.089	13.530	1315.131	979.021
108.103	13.663	1313.024	978.153
109.118	13.682	1311.886	977.331
110.133	13.703	1310.508	976.340
111.147	13.590	1309.419	974.776
112.162	13.747	1308.082	974.618
113.176	13.724	1306.935	973.544
114.191	13.720	1305.922	972.676
115.206	13.600	1305.091	971.271
116.220	13.814	1303.680	971.388
117.235	13.694	1302.249	969.534
118.249	13.721	1300.893	968.598
119.264	13.725	1300.150	967.979
120.279	13.695	1299.105	966.944
121.293	13.758	1298.201	966.548
122.308	13.660	1297.218	965.162
123.322	13.796	1295.678	964.719
124.337	13.656	1295.094	963.389
125.352	13.726	1293.725	962.689
126.366	13.659	1292.737	961.479
127.381	13.630	1291.885	960.594
128.395	13.765	1289.961	959.860
129.410	13.587	1289.843	958.658
130.424	13.600	1289.062	958.069
131.439	13.682	1287.463	957.265
132.454	13.836	1286.412	957.292
133.468	13.769	1286.150	956.623
134.483	13.837	1284.730	955.876
135.497	13.764	1283.937	954.780
136.512	13.660	1282.442	952.985
137.527	13.729	1281.118	952.313
138.541	13.773	1279.887	951.570
139.556	13.660	1278.814	950.036
140.570	13.831	1277.696	950.101
141.585	13.800	1275.895	948.502
142.600	13.798	1275.399	948.039
143.614	13.898	1274.434	947.810
144.629	13.993	1273.188	947.337
145.643	13.873	1272.204	945.840
146.658	13.910	1270.599	944.776
147.673	13.900	1269.383	943.726
148.687	13.912	1268.219	942.846
149.702	14.017	1267.060	942.499
150.716	13.857	1266.205	940.873
151.731	13.795	1265.254	939.731
152.746	13.861	1263.355	938.612
153.760	13.926	1262.112	937.968
154.775	13.882	1261.319	937.049
155.789	13.999	1260.238	936.824
156.804	14.069	1259.131	936.314
157.819	14.050	1257.928	935.227
158.833	14.124	1256.963	934.845
159.848	14.099	1255.797	933.752
160.862	14.100	1255.236	933.257
161.877	14.011	1253.684	931.525
162.892	14.097	1252.890	931.333
163.906	13.989	1252.232	930.157
164.921	13.980	1251.438	929.434
165.935	13.995	1250.305	928.593
166.950	14.070	1249.346	928.217
167.964	14.081	1248.809	927.799
168.979	14.065	1247.996	927.022
169.994	14.098	1247.260	926.582
171.008	14.121	1245.978	925.673
172.023	14.095	1245.625	925.184
173.037	14.218	1244.530	924.973
174.052	14.235	1243.834	924.469
175.067	14.215	1242.599	923.356
176.081	14.243	1241.077	922.301
177.096	14.110	1240.853	921.314
178.110	14.135	1240.102	920.816
179.125	14.182	1238.187	919.572
180.140	14.227	1236.819	918.725
181.154	14.332	1235.593	918.312
182.169	14.227	1234.791	917.054
183.183	14.329	1233.607	916.652
184.198	14.332	1232.203	915.544
185.213	14.208	1231.212	914.047
186.227	14.296	1230.147	913.657
187.242	14.311	1229.228	912.979
188.256	14.392	1227.887	912.347
189.271	14.488	1226.989	912.120
190.286	14.357	1226.055	910.629
191.300	14.218	1225.268	909.205
192.315	14.241	1224.949	909.015
193.329	14.315	1223.999	908.633
194.344	14.259	1223.233	907.678
195.359	14.390	1222.581	907.830
196.373	14.410	1222.315	907.658
197.388	14.436	1221.559	907.157
198.402	14.568	1220.991	907.377
199.417	14.426	1220.915	906.464
200.432	14.475	1219.586	905.667
201.446	14.499	1218.700	905.058
202.461	14.653	1217.717	905.080
203.475	14.596	1216.928	904.106
204.490	14.664	1215.216	903.121
205.504	14.581	1214.459	902.035
206.519	14.662	1213.008	901.313
207.534	14.534	1212.516	900.174
208.548	14.625	1210.973	899.442
209.563	14.526	1210.630	898.576
210.577	14.639	1209.096	897.963
211.592	14.653	1208.258	897.337
212.607	14.707	1207.638	897.089
213.621	14.661	1206.689	896.058
214.636	14.721	1206.106	895.868
215.650	14.651	1205.080	894.647
216.665	14.732	1203.993	894.195
217.680	14.737	1202.951	893.372
218.694	14.894	1202.084	893.485
219.709	14.812	1201.578	892.592
220.723	14.738	1200.834	891.568
221.738	14.856	1199.959	891.465
222.753	14.803	1199.294	890.614
223.767	14.859	1198.501	890.244
224.782	14.855	1198.143	889.876
225.796	14.986	1197.511	890.024
226.811	14.939	1196.456	888.915
227.826	14.990	1195.594	888.463
228.840	14.864	1195.471	887.623
229.855	14.921	1194.495	887.122
230.869	14.920	1193.431	886.250
231.884	14.920	1192.738	885.658
232.899	14.967	1191.818	885.143
233.913	14.843	1191.117	883.892
234.928	14.862	1190.789	883.672
235.942	14.845	1190.137	883.015
236.957	14.957	1188.944	882.647
237.972	15.005	1187.994	882.112
238.986	14.856	1187.881	881.170
240.001	14.977	1186.662	880.823
241.015	14.960	1185.813	880.026
242.030	15.065	1185.177	880.030
243.045	15.052	1184.551	879.417
244.059	15.075	1183.714	878.835
245.074	15.100	1182.396	877.914
246.088	15.078	1181.968	877.401
247.103	15.166	1181.015	877.077
248.117	15.084	1180.598	876.262
249.132	15.200	1179.972	876.324
250.147	15.213	1178.915	875.529
251.161	15.332	1178.163	875.518
252.176	15.248	1177.546	874.544
253.190	15.360	1176.580	874.330
254.205	15.264	1176.686	873.834
255.220	15.436	1175.917	874.079
256.234	15.403	1175.252	873.334
257.249	15.354	1174.546	872.480
258.263	15.475	1173.543	872.286
259.278	15.419	1173.060	871.557
260.293	15.493	1172.802	871.676
261.307	15.471	1172.062	870.933
262.322	15.519	1171.352	870.578
263.336	15.644	1170.525	870.531
264.351	15.492	1170.196	869.422
265.366	15.712	1168.908	869.529
266.380	15.671	1168.031	868.586
267.395	15.557	1167.443	867.483
268.409	15.610	1166.602	867.055
269.424	15.577	1166.396	866.656
270.439	15.560	1165.909	866.131
271.453	15.625	1165.123	865.801
272.468	15.540	1164.152	864.570
273.482	15.651	1163.343	864.462
274.497	15.616	1162.548	863.614
275.512	15.726	1161.861	863.594
276.526	15.543	1161.330	862.184
277.541	15.705	1160.028	861.971
278.555	15.746	1159.300	861.560
279.570	15.742	1158.939	861.195
280.585	15.822	1157.762	860.654
281.599	15.837	1156.760	859.909
282.614	15.754	1156.089	858.914
283.628	15.871	1154.834	858.503
284.643	15.845	1153.715	857.462
285.657	15.934	1152.812	857.169
286.672	15.880	1152.348	856.470
287.687	15.853	1151.412	855.565
288.701	15.866	1150.822	855.115
289.716	15.828	1150.064	854.281
290.730	15.943	1149.565	854.418
291.745	15.892	1148.512	853.302
292.760	15.957	1147.947	853.136
293.774	15.840	1147.879	852.419
294.789	15.992	1146.850	852.347
295.803	15.972	1146.066	851.587
296.818	16.028	1145.422	851.317
297.833	15.896	1144.885	850.178
298.847	15.978	1143.961	849.830
299.862	16.061	1143.064	849.504
300.876	16.038	1142.678	849.028
301.891	16.131	1141.752	848.731
302.906	16.092	1140.950	847.866
303.920	16.095	1140.300	847.322
304.935	16.185	1139.648	847.214
305.949	16.189	1139.099	846.749
306.964	16.149	1138.700	846.182
307.979	16.088	1137.574	844.962
308.993	16.146	1137.094	844.823
310.008	16.198	1135.917	844.135
311.022	16.409	1134.844	844.316
312.037	16.339	1134.261	843.457
313.052	16.179	1133.619	842.107
314.066	16.262	1132.451	841.580
315.081	16.381	1131.747	841.571
316.095	16.344	1131.311	840.991
317.110	16.306	1130.451	840.088
318.125	16.317	1129.884	839.649
319.139	16.256	1129.192	838.753
320.154	16.408	1128.067	838.598
321.168	16.386	1127.636	838.098
322.183	16.338	1126.954	837.276
323.197	16.257	1126.435	836.418
324.212	16.329	1125.817	836.240
325.227	16.300	1125.431	835.734
326.241	16.260	1124.799	834.993
327.256	16.388	1123.482	834.575
328.270	16.418	1123.091	834.361
329.285	16.448	1121.617	833.337
330.300	16.415	1120.751	832.459
331.314	16.353	1120.002	831.521
332.329	16.437	1119.014	831.131
333.343	16.420	1118.203	830.372
334.358	16.469	1117.602	830.088
335.373	16.494	1116.692	829.463
336.387	16.536	1115.757	828.900
337.402	16.499	1115.194	828.231
338.416	16.541	1114.674	827.976
339.431	16.583	1113.581	827.296
340.446	16.627	1113.348	827.265
341.460	16.687	1112.226	826.650
342.475	16.673	1111.803	826.193
343.489	16.738	1110.793	825.688
344.504	16.687	1110.469	825.126
345.519	16.651	1109.147	823.896
346.533	16.824	1108.106	823.892
347.548	16.813	1107.836	823.563
348.562	16.993	1106.432	823.320
349.577	16.907	1105.862	822.407
350.592	16.766	1105.214	821.166
351.606	16.788	1104.455	820.639
352.621	16.849	1103.641	820.253
353.635	16.784	1103.167	819.518
354.650	16.803	1102.651	819.151
355.665	16.869	1101.512	818.550
356.679	16.844	1100.946	817.939
357.694	16.817	1100.484	817.391
358.708	16.990	1099.673	817.554
359.723	16.880	1099.111	816.533
360.738	16.924	1098.490	816.208
361.752	16.946	1097.760	815.702
362.767	17.013	1096.958	815.355
363.781	16.919	1096.699	814.636
364.796	17.103	1096.093	815.000
365.810	17.026	1095.717	814.281
366.825	17.094	1095.248	814.185
367.840	17.154	1094.384	813.756
368.854	17.062	1094.191	813.100
369.869	17.194	1093.177	812.909
370.883	17.276	1091.980	812.339
371.898	17.135	1091.364	811.134
372.913	17.118	1091.084	810.773
373.927	17.266	1090.306	810.831
374.942	17.152	1089.941	809.943
375.956	17.244	1089.466	809.954
376.971	17.353	1088.389	809.601
377.986	17.216	1088.097	808.659
379.000	17.386	1087.137	808.682
380.015	17.414	1086.603	808.349
381.029	17.338	1086.249	807.653
382.044	17.352	1085.769	807.292
383.059	17.452	1084.610	806.832
384.073	17.487	1083.773	806.304
385.088	17.508	1082.840	805.635
386.102	17.527	1081.986	805.020
387.117	17.416	1081.365	803.965
388.132	17.507	1080.291	803.525
389.146	17.450	1079.491	802.590
390.161	17.377	1079.074	801.862
391.175	17.491	1077.890	801.447
392.190	17.464	1077.613	801.043
393.205	17.507	1076.898	800.643
394.219	17.558	1076.035	800.170
395.234	17.478	1075.068	799.007
396.248	17.519	1074.169	798.461
397.263	17.517	1072.737	797.313
398.278	17.538	1072.173	796.923
399.292	17.477	1071.495	796.066
400.307	17.479	1071.054	795.677
401.321	17.481	1070.611	795.286
402.336	17.562	1069.835	795.017
403.350	17.530	1069.082	794.239
404.365	17.659	1068.334	794.210
405.380	17.551	1067.767	793.220
406.394	17.540	1066.931	792.474
407.409	17.680	1065.977	792.346
408.423	17.689	1065.353	791.856
409.438	17.796	1064.817	791.884
410.453	17.761	1063.938	790.998
411.467	17.842	1063.476	790.958
412.482	17.845	1062.746	790.361
413.496	17.838	1062.073	789.759
414.511	17.894	1061.318	789.384
415.526	17.822	1061.253	788.936
416.540	17.954	1060.493	788.911
417.555	17.904	1060.046	788.276
418.569	17.932	1059.693	788.073
419.584	18.120	1058.613	788.068
420.599	18.024	1058.142	787.204
421.613	110.155	1331.265	1491.646
422.628	101.683	1370.971	1491.707
