DTS Sentinel unit serial number:	SN413079Multiplexer serial number:	ORYXHardware model number:	OX4-SRSoftware version number:	ORYX F/W v4.00 Oryx Data Collector v3.7.2.0data status	okinstallation	princeton_trtdifferential loss correction	single-endedforward channel	channel 2reverse channel	N/Adate	2019/09/16time	10:27:34forward acquisition time	60.00reverse acquisition time	0.00gamma	496.2192k internal	0.2318k external	0.2318temperature offset calibration	0.9959default loss term (dB/km)	0.3790temperature slope calibration	1.0000multiplexer offset coefficient	1.0000multiplexer slope coefficient	1.0000fibre end	0.00T internal ref (°C)	35.12T ext. ref 1 (°C)	12.55T ext. ref 2 (°C)	33.51length (m)	temperature (°C)	Stokes	anti-Stokes-747.200	60.536	0.122	0.122
-746.185	-102.830	0.154	0.037
-745.171	213.652	-0.164	-0.263
-744.156	291.821	-0.197	-0.363
-743.142	0.820	0.077	0.056
-742.127	-80.753	-0.067	0.023
-741.112	603.751	-0.083	0.208
-740.098	134.941	0.133	0.174
-739.083	67.798	0.193	-0.200
-738.069	-104.925	0.260	0.060
-737.054	-200.000	0.010	0.285
-736.039	472.449	0.094	0.214
-735.025	144.412	-0.170	0.230
-734.010	-200.000	-0.003	0.118
-732.996	695.853	0.049	0.130
-731.981	800.000	-0.041	-0.158
-730.966	-200.000	0.003	-0.163
-729.952	12.642	-0.348	-0.272
-728.937	-99.355	0.235	-0.060
-727.923	-100.982	0.140	-0.035
-726.908	37.183	0.212	-0.190
-725.894	800.000	-0.113	-0.339
-724.879	17.276	-0.218	-0.175
-723.864	-146.356	-0.287	-0.025
-722.850	92.564	-0.078	0.089
-721.835	-80.964	-0.173	0.058
-720.821	336.544	0.089	-0.174
-719.806	-78.951	-0.181	-0.062
-718.791	-10.334	0.059	0.040
-717.777	249.220	0.146	-0.250
-716.762	-49.491	0.276	-0.133
-715.748	-85.395	-0.268	-0.085
-714.733	-200.000	-0.035	-0.225
-713.718	374.099	0.192	0.395
-712.704	6.560	0.214	0.160
-711.689	346.518	-0.164	0.325
-710.675	213.437	0.176	-0.281
-709.660	746.886	0.062	-0.170
-708.645	-47.088	0.128	-0.063
-707.631	-200.000	-0.011	0.118
-706.616	-67.253	0.407	0.162
-705.602	-200.000	-0.014	-0.347
-704.587	172.336	-0.179	-0.260
-703.572	57.388	-0.250	0.246
-702.558	5.654	-0.073	-0.055
-701.543	-200.000	-0.045	0.253
-700.529	-104.501	0.200	0.047
-699.514	169.599	-0.194	-0.280
-698.499	-77.080	0.220	-0.077
-697.485	452.470	-0.161	0.360
-696.470	800.000	0.086	0.251
-695.456	800.000	0.055	-0.155
-694.441	482.223	0.123	0.282
-693.426	33.238	-0.186	-0.163
-692.412	197.442	-0.026	-0.041
-691.397	-200.000	-0.011	-0.511
-690.383	-101.502	0.467	-0.115
-689.368	800.000	0.028	-0.091
-688.354	800.000	0.082	-0.262
-687.339	-29.325	0.137	-0.079
-686.324	-102.990	-0.658	-0.158
-685.310	-99.366	-0.031	0.008
-684.295	244.113	0.265	-0.448
-683.281	-2.555	-0.313	-0.221
-682.266	-11.089	-0.173	0.115
-681.251	800.000	-0.021	0.066
-680.237	-13.387	0.147	-0.096
-679.222	-128.955	0.143	0.020
-678.208	800.000	0.105	-0.325
-677.193	148.063	0.089	0.121
-676.178	-89.100	0.132	-0.039
-675.164	-2.847	0.042	0.030
-674.149	21.592	-0.095	0.078
-673.135	154.033	0.122	0.168
-672.120	167.391	0.203	-0.292
-671.105	-200.000	-0.051	0.258
-670.091	724.001	0.034	-0.090
-669.076	-11.805	-0.351	0.233
-668.062	401.564	0.035	0.075
-667.047	800.000	-0.102	-0.295
-666.032	-85.462	0.271	-0.085
-665.018	8.495	-0.268	-0.204
-664.003	-30.515	0.198	-0.113
-662.989	-135.103	0.366	0.044
-661.974	366.603	0.158	0.322
-660.959	57.207	-0.113	-0.111
-659.945	-117.825	-0.072	-0.013
-658.930	-200.000	-0.070	-0.329
-657.916	-200.000	-0.035	0.204
-656.901	134.778	-0.074	0.097
-655.886	122.319	-0.189	0.238
-654.872	800.000	-0.110	0.307
-653.857	156.640	-0.130	0.181
-652.843	-103.218	0.176	-0.042
-651.828	800.000	0.042	0.121
-650.814	-139.669	-0.215	0.023
-649.799	700.346	0.130	-0.346
-648.784	-200.000	0.015	0.305
-647.770	-132.292	0.269	-0.035
-646.755	-137.391	0.107	0.012
-645.741	60.977	-0.138	0.138
-644.726	59.483	-0.107	0.106
-643.711	800.000	0.046	-0.181
-642.697	349.552	0.073	0.145
-641.682	-70.859	-0.474	-0.180
-640.668	726.640	-0.129	-0.348
-639.653	800.000	-0.060	-0.217
-638.638	-131.050	-0.273	0.037
-637.624	-200.000	0.232	0.001
-636.609	-59.334	-0.280	0.121
-635.595	-136.114	-0.206	-0.024
-634.580	12.035	-0.043	0.033
-633.565	26.046	-0.122	0.102
-632.551	550.135	0.124	-0.299
-631.536	111.566	-0.255	-0.310
-630.522	-78.409	0.282	0.098
-629.507	-24.607	-0.277	0.166
-628.492	800.000	-0.060	-0.215
-627.478	-142.752	-0.073	-0.007
-626.463	-149.306	-0.114	0.009
-625.449	800.000	-0.049	-0.211
-624.434	-200.000	-0.021	0.114
-623.419	161.793	-0.041	0.058
-622.405	-78.773	-0.011	-0.004
-621.390	0.622	-0.261	-0.188
-620.376	-90.927	-0.193	-0.056
-619.361	-108.815	0.183	-0.039
-618.346	-200.000	0.016	0.250
-617.332	647.202	-0.142	0.366
-616.317	15.027	0.299	0.236
-615.303	317.768	0.226	0.431
-614.288	-74.185	-0.163	0.059
-613.273	-56.327	-0.090	-0.040
-612.259	800.000	0.075	0.322
-611.244	-33.606	-0.238	0.132
-610.230	-12.290	-0.182	-0.120
-609.215	613.437	0.096	-0.242
-608.201	-81.746	0.135	-0.045
-607.186	-200.000	-0.049	-0.279
-606.171	-124.868	-0.114	0.018
-605.157	56.817	-0.157	-0.154
-604.142	-200.000	0.027	0.174
-603.128	-27.440	-0.023	0.014
-602.113	-179.356	-0.168	-0.004
-601.098	-150.880	-0.167	0.013
-600.084	9.974	0.257	0.196
-599.069	800.000	-0.076	0.240
-598.055	24.921	-0.244	-0.204
-597.040	-132.276	-0.075	0.010
-596.025	800.000	0.074	-0.304
-595.011	800.000	-0.050	0.158
-593.996	102.331	-0.299	-0.352
-592.982	-137.546	-0.315	-0.036
-591.967	800.000	0.096	0.405
-590.952	37.898	0.367	0.328
-589.938	-87.994	-0.154	0.047
-588.923	374.096	-0.119	0.243
-587.909	-146.086	-0.396	-0.035
-586.894	-141.185	0.286	0.029
-585.879	-104.862	-0.176	0.041
-584.865	53.378	-0.066	-0.064
-583.850	-36.518	-0.202	0.109
-582.836	800.000	0.017	0.056
-581.821	-146.620	-0.229	0.020
-580.806	-132.085	0.227	-0.030
-579.792	800.000	0.040	-0.119
-578.777	-200.000	-0.077	-0.418
-577.763	6.505	0.167	-0.125
-576.748	34.266	-0.202	-0.177
-575.733	174.985	0.170	0.247
-574.719	336.123	0.106	-0.206
-573.704	75.888	0.286	0.304
-572.690	78.557	0.117	-0.126
-571.675	-200.000	0.058	-0.379
-570.661	148.924	0.186	-0.253
-569.646	-92.840	-0.420	-0.118
-568.631	-67.647	-0.319	-0.126
-567.617	-200.000	-0.050	-0.229
-566.602	-10.243	0.117	-0.078
-565.588	25.096	0.237	-0.198
-564.573	-78.749	-0.164	-0.056
-563.558	505.655	-0.035	-0.083
-562.544	173.056	-0.079	0.115
-561.529	48.700	0.437	-0.412
-560.515	138.787	0.117	-0.154
-559.500	17.041	-0.135	-0.108
-558.485	288.401	0.052	-0.094
-557.471	256.497	-0.077	-0.133
-556.456	-63.773	0.242	0.100
-555.442	800.000	-0.082	0.259
-554.427	99.092	-0.073	0.085
-553.412	-84.635	-0.082	0.026
-552.398	-84.077	0.247	-0.079
-551.383	2.215	-0.002	-0.001
-550.369	-200.000	0.035	-0.399
-549.354	-5.999	-0.130	-0.089
-548.339	156.094	0.226	-0.314
-547.325	-43.249	-0.181	-0.092
-546.310	247.053	0.072	0.123
-545.296	-189.840	-0.036	0.000
-544.281	90.118	0.132	0.148
-543.266	-200.000	0.010	-0.072
-542.252	-200.000	0.028	-0.143
-541.237	-200.000	0.040	-0.243
-540.223	-51.697	0.164	-0.077
-539.208	-109.564	-0.360	0.076
-538.193	382.384	-0.039	-0.081
-537.179	41.452	0.103	0.094
-536.164	-200.000	0.021	0.095
-535.150	100.948	0.026	-0.031
-534.135	182.111	-0.084	-0.125
-533.121	-200.000	-0.004	0.156
-532.106	-46.674	-0.192	-0.094
-531.091	-200.000	0.041	-0.184
-530.077	-13.601	0.202	0.131
-529.062	-7.104	-0.111	-0.075
-528.048	-200.000	-0.024	0.156
-527.033	-72.055	-0.077	-0.029
-526.018	-200.000	-0.080	0.000
-525.004	35.479	-0.090	-0.079
-523.989	800.000	-0.056	0.186
-522.975	192.147	-0.166	0.251
-521.960	-70.770	-0.174	-0.066
-520.945	-145.006	-0.197	-0.018
-519.931	-89.322	0.062	-0.018
-518.916	313.334	0.035	-0.066
-517.902	174.055	-0.082	0.119
-516.887	-200.000	-0.039	0.281
-515.872	-200.000	0.009	0.153
-514.858	220.552	0.227	0.365
-513.843	-200.000	0.011	0.472
-512.829	708.307	0.109	0.289
-511.814	47.062	-0.141	0.131
-510.799	48.403	-0.060	0.056
-509.785	800.000	-0.130	-0.394
-508.770	-59.248	0.081	0.035
-507.756	-103.051	0.288	-0.068
-506.741	-36.125	0.275	0.149
-505.726	58.774	-0.169	-0.167
-504.712	25.692	0.283	0.236
-503.697	252.896	-0.169	-0.288
-502.683	463.864	-0.103	-0.232
-501.668	-98.461	0.164	-0.042
-500.653	-200.000	-0.046	-0.290
-499.639	-25.038	0.145	-0.086
-498.624	-200.000	-0.020	0.157
-497.610	-200.000	0.019	-0.129
-496.595	-200.000	-0.027	0.322
-495.581	-56.601	0.064	-0.028
-494.566	750.796	-0.133	-0.360
-493.551	-134.307	-0.280	0.035
-492.537	-27.764	0.091	-0.053
-491.522	-200.000	0.023	0.204
-490.508	-88.314	0.302	-0.090
-489.493	-153.047	-0.138	0.010
-488.478	-112.482	0.239	-0.048
-487.464	-165.951	-0.330	-0.014
-486.449	-127.275	0.136	0.020
-485.435	41.923	0.147	-0.133
-484.420	-200.000	-0.076	0.445
-483.405	-37.085	0.369	-0.198
-482.391	-200.000	0.005	-0.025
-481.376	-87.962	0.048	-0.015
-480.362	-200.000	-0.026	0.116
-479.347	-175.525	-0.271	0.007
-478.332	-42.392	0.114	-0.058
-477.318	-200.000	-0.003	-0.096
-476.303	-14.701	-0.278	0.179
-475.289	1.035	0.102	-0.073
-474.274	-138.051	-0.135	-0.015
-473.259	186.159	0.166	0.248
-472.245	110.168	0.106	0.127
-471.230	-113.427	0.172	0.034
-470.216	-131.572	-0.191	-0.025
-469.201	-200.000	-0.016	-0.073
-468.186	-141.339	-0.111	0.011
-467.172	800.000	-0.028	0.092
-466.157	159.274	-0.048	0.067
-465.143	130.815	-0.289	0.372
-464.128	-78.814	-0.151	-0.052
-463.113	-200.000	-0.038	-0.195
-462.099	103.529	0.356	-0.419
-461.084	-200.000	-0.067	0.347
-460.070	-52.680	-0.184	0.085
-459.055	-141.122	0.413	0.042
-458.040	-43.381	0.263	-0.133
-457.026	-53.432	-0.154	-0.070
-456.011	-123.778	0.152	0.024
-454.997	-65.122	0.085	-0.034
-453.982	172.143	0.094	-0.135
-452.968	198.488	-0.212	0.325
-451.953	329.915	-0.081	0.156
-450.938	73.319	0.107	-0.112
-449.924	97.977	0.072	-0.083
-448.909	-102.582	0.309	0.074
-447.895	95.957	-0.233	-0.266
-446.880	308.955	0.276	-0.515
-445.865	-85.212	0.265	-0.083
-444.851	96.185	0.136	0.156
-443.836	-77.339	0.280	-0.097
-442.822	317.419	-0.090	0.170
-441.807	-139.078	-0.115	-0.012
-440.792	-27.938	0.208	0.120
-439.778	109.827	-0.247	-0.296
-438.763	26.542	-0.072	-0.060
-437.749	3.705	0.167	0.122
-436.734	800.000	0.104	-0.292
-435.719	-28.129	0.179	0.104
-434.705	659.640	-0.135	0.347
-433.690	-46.730	0.050	0.025
-432.676	-15.851	-0.364	-0.232
-431.661	9.964	0.199	-0.151
-430.646	95.067	-0.249	0.284
-429.632	800.000	0.028	-0.115
-428.617	-200.000	0.026	-0.126
-427.603	-139.541	-0.655	0.070
-426.588	526.214	0.127	-0.299
-425.573	-81.860	0.403	-0.132
-424.559	451.054	-0.050	0.111
-423.544	-151.996	0.213	0.016
-422.530	-119.608	0.537	-0.093
-421.515	3.955	0.251	0.183
-420.500	-86.097	0.130	-0.040
-419.486	-80.668	-0.108	0.036
-418.471	-200.000	0.021	0.202
-417.457	16.776	-0.108	-0.085
-416.442	-109.368	0.331	-0.070
-415.428	134.989	0.127	0.165
-414.413	73.012	-0.025	0.026
-413.398	-81.245	-0.078	-0.026
-412.384	-88.365	-0.073	-0.022
-411.369	-200.000	0.099	-0.462
-410.355	150.322	-0.105	-0.142
-409.340	-76.177	-0.223	0.079
-408.325	-91.843	0.271	-0.077
-407.311	-200.000	0.004	-0.192
-406.296	576.595	0.041	-0.099
-405.282	-176.538	0.140	-0.004
-404.267	226.655	0.267	0.433
-403.252	-108.298	-0.257	-0.055
-402.238	63.458	0.138	-0.138
-401.223	587.431	0.082	0.203
-400.209	-58.214	-0.127	0.055
-399.194	62.421	0.046	0.046
-398.179	142.437	-0.127	-0.169
-397.165	49.115	0.007	0.006
-396.150	-147.920	-0.040	0.003
-395.136	-170.054	0.205	-0.007
-394.121	38.829	-0.056	-0.050
-393.106	158.574	-0.083	-0.116
-392.092	14.814	-0.090	0.071
-391.077	800.000	0.095	0.370
-390.063	403.604	-0.161	0.337
-389.048	-200.000	0.060	-0.284
-388.033	-132.683	0.179	-0.023
-387.019	79.013	0.273	0.292
-386.004	-26.167	-0.212	-0.124
-384.990	327.966	0.117	-0.225
-383.975	800.000	-0.098	0.425
-382.960	-79.757	-0.155	-0.052
-381.946	-89.144	-0.168	-0.050
-380.931	8.559	-0.113	0.085
-379.917	261.519	0.173	0.298
-378.902	-200.000	0.020	-0.163
-377.888	-200.000	0.001	0.079
-376.873	232.128	-0.010	-0.016
-375.858	-76.345	-0.500	0.176
-374.844	104.060	-0.288	0.338
-373.829	186.418	0.143	0.212
-372.815	-9.837	-0.146	0.097
-371.800	-51.943	-0.186	0.086
-370.785	-183.481	0.182	-0.003
-369.771	-200.000	-0.027	-0.441
-368.756	2.782	0.227	-0.164
-367.742	-200.000	0.022	-0.182
-366.727	37.109	0.086	0.076
-365.712	166.019	0.075	-0.106
-364.698	-200.000	0.051	-0.366
-363.683	59.548	0.141	0.138
-362.669	800.000	-0.043	0.142
-361.654	-165.980	0.263	0.011
-360.639	-111.292	0.192	-0.039
-359.625	-3.434	0.158	-0.109
-358.610	-103.170	-0.227	-0.054
-357.596	-109.665	0.094	0.020
-356.581	-97.986	0.358	0.092
-355.566	-34.985	-0.191	-0.104
-354.552	35.837	-0.133	-0.117
-353.537	-16.190	0.042	-0.026
-352.523	-200.000	-0.023	0.212
-351.508	64.171	-0.170	0.170
-350.493	88.991	0.078	0.086
-349.479	-140.434	0.065	0.007
-348.464	92.364	0.193	0.216
-347.450	34.850	0.252	0.220
-346.435	260.281	0.089	-0.153
-345.420	194.964	-0.112	-0.170
-344.406	214.104	0.127	-0.201
-343.391	55.211	0.074	-0.071
-342.377	-192.326	-0.256	-0.002
-341.362	485.359	-0.040	-0.091
-340.348	800.000	0.054	0.175
-339.333	201.399	-0.145	0.223
-338.318	-86.036	-0.165	-0.051
-337.304	-37.827	-0.142	0.075
-336.289	66.282	0.207	0.210
-335.275	-200.000	-0.031	-0.566
-334.260	-106.605	0.115	-0.026
-333.245	360.536	0.119	0.237
-332.231	-63.439	0.119	-0.049
-331.216	-74.546	0.635	-0.228
-330.202	800.000	0.120	0.398
-329.187	-34.031	0.129	0.070
-328.172	143.828	-0.167	0.222
-327.158	32.159	0.149	-0.128
-326.143	-66.662	-0.058	0.023
-325.129	-87.487	0.379	-0.114
-324.114	392.085	0.018	0.038
-323.099	178.393	0.082	0.120
-322.085	-80.042	0.168	-0.056
-321.070	-156.232	-0.157	-0.010
-320.056	184.890	0.054	-0.080
-319.041	-83.313	-0.225	-0.072
-318.026	-200.000	0.018	0.120
-317.012	-83.803	-0.115	0.036
-315.997	-35.619	-0.337	-0.182
-314.983	-108.398	0.131	-0.028
-313.968	-200.000	-0.023	0.117
-312.953	-71.653	0.070	-0.026
-311.939	6.472	0.083	-0.061
-310.924	-138.840	0.232	-0.025
-309.910	78.892	0.128	0.137
-308.895	800.000	0.033	0.137
-307.880	-20.127	0.210	-0.129
-306.866	70.230	-0.218	0.224
-305.851	365.767	-0.173	-0.347
-304.837	-200.000	-0.072	0.405
-303.822	23.835	0.176	0.144
-302.807	287.286	-0.174	-0.313
-301.793	111.439	-0.127	-0.152
-300.778	71.710	-0.194	-0.201
-299.764	192.565	-0.073	-0.110
-298.749	618.934	-0.058	0.146
-297.735	411.851	-0.148	0.312
-296.720	398.793	-0.018	0.038
-295.705	-200.000	0.024	0.108
-294.691	-200.000	0.018	0.095
-293.676	800.000	-0.095	0.326
-292.662	-87.752	0.204	0.061
-291.647	-200.000	0.006	-0.062
-290.632	70.844	-0.017	0.017
-289.618	54.481	0.109	0.104
-288.603	-51.475	0.184	0.086
-287.589	383.550	-0.029	0.060
-286.574	-91.836	-0.350	0.099
-285.559	-27.578	0.374	0.216
-284.545	61.072	-0.067	-0.066
-283.530	532.247	0.147	-0.346
-282.516	70.248	-0.337	0.345
-281.501	1.122	0.170	-0.121
-280.486	-158.946	-0.101	0.006
-279.472	800.000	-0.045	0.169
-278.457	-86.387	0.271	0.083
-277.443	-111.625	-0.277	-0.056
-276.428	-86.704	-0.426	-0.130
-275.413	-135.180	-0.133	-0.016
-274.399	263.648	0.071	0.122
-273.384	-132.840	0.241	0.031
-272.370	-52.393	-0.200	-0.092
-271.355	13.784	0.293	0.226
-270.340	-113.700	0.182	0.035
-269.326	-200.000	-0.073	-0.321
-268.311	-200.000	0.009	0.174
-267.297	15.784	-0.211	0.165
-266.282	166.881	0.295	0.416
-265.267	800.000	0.022	-0.077
-264.253	-176.581	-0.159	-0.004
-263.238	-20.628	-0.379	0.231
-262.224	293.672	0.068	0.123
-261.209	134.157	0.267	0.343
-260.195	-71.424	0.226	-0.084
-259.180	800.000	-0.065	0.254
-258.165	386.132	0.064	0.130
-257.151	396.080	-0.129	0.267
-256.136	-200.000	-0.060	0.278
-255.122	-200.000	0.003	0.144
-254.107	-51.866	0.120	0.055
-253.092	-148.063	0.167	0.014
-252.078	800.000	0.124	0.345
-251.063	-132.411	0.044	-0.006
-250.049	23.548	0.067	-0.055
-249.034	-182.290	0.267	-0.005
-248.019	-123.008	0.030	-0.005
-247.005	43.617	-0.099	0.090
-245.990	2.264	-0.245	0.176
-244.976	155.356	0.125	-0.170
-243.961	-137.282	-0.008	-0.001
-242.946	-151.528	-0.152	-0.011
-241.932	-200.000	0.018	-0.175
-240.917	-81.597	-0.229	0.075
-239.903	299.484	0.028	-0.052
-238.888	-4.916	0.106	-0.073
-237.873	-200.000	0.022	-0.169
-236.859	370.393	0.133	0.267
-235.844	800.000	-0.025	0.071
-234.830	-156.918	0.420	-0.026
-233.815	-200.000	-0.126	-0.000
-232.800	240.216	0.080	-0.132
-231.786	-143.395	0.308	-0.029
-230.771	-125.465	-0.074	-0.011
-229.757	-200.000	-0.029	-0.418
-228.742	-25.305	-0.185	0.109
-227.727	662.203	-0.147	0.375
-226.713	-12.036	-0.235	-0.153
-225.698	26.454	-0.120	0.099
-224.684	-86.786	0.141	0.043
-223.669	-161.266	0.347	0.018
-222.655	-200.000	0.049	-0.288
-221.640	-200.000	0.011	-0.072
-220.625	-84.032	0.357	-0.112
-219.611	-57.926	-0.288	0.125
-218.596	-125.415	0.255	-0.039
-217.582	22.135	-0.138	-0.111
-216.567	-183.186	0.134	0.002
-215.552	-200.000	-0.020	-0.139
-214.538	132.058	-0.107	-0.137
-213.523	800.000	-0.015	-0.055
-212.509	-200.000	-0.013	-0.284
-211.494	800.000	0.049	0.197
-210.479	-61.026	0.175	-0.073
-209.465	800.000	0.138	-0.393
-208.450	-40.294	0.243	-0.125
-207.436	81.350	-0.199	-0.213
-206.421	-69.377	-0.228	-0.087
-205.406	-71.747	-0.151	0.056
-204.392	26.599	-0.303	0.251
-203.377	-99.306	-0.173	-0.043
-202.363	0.323	-0.325	-0.230
-201.348	-30.067	0.105	-0.059
-200.333	-6.023	-0.077	0.052
-199.319	-200.000	0.014	0.089
-198.304	-35.856	0.075	-0.040
-197.290	-93.586	-0.170	-0.047
-196.275	-200.000	-0.011	-0.186
-195.260	-200.000	0.040	-0.265
-194.246	59.085	0.102	-0.099
-193.231	-18.564	0.396	-0.245
-192.217	626.144	-0.018	-0.046
-191.202	-103.035	-0.163	-0.038
-190.187	-200.000	-0.003	0.067
-189.173	-12.528	0.266	-0.172
-188.158	527.335	-0.075	-0.176
-187.144	-11.554	-0.040	0.026
-186.129	498.450	-0.080	-0.183
-185.114	40.221	0.416	0.370
-184.100	-51.556	-0.497	0.230
-183.085	154.707	0.183	0.249
-182.071	172.009	-0.158	0.225
-181.056	709.886	0.107	-0.279
-180.042	53.225	0.047	-0.045
-179.027	-200.000	-0.023	-0.173
-178.012	383.196	-0.127	0.259
-176.998	180.365	-0.123	0.179
-175.983	602.788	0.034	-0.084
-174.969	-170.575	-0.111	0.004
-173.954	101.316	-0.082	-0.094
-172.939	800.000	-0.122	-0.440
-171.925	-40.606	-0.152	0.078
-170.910	-200.000	0.044	0.207
-169.896	219.402	-0.139	0.220
-168.881	-76.620	-0.443	0.154
-167.866	-94.407	0.184	0.050
-166.852	1.430	0.045	-0.032
-165.837	-200.000	-0.026	-0.140
-164.823	-62.048	-0.257	-0.106
-163.808	-32.508	0.079	0.044
-162.793	188.677	-0.271	0.401
-161.779	475.332	-0.313	-0.699
-160.764	-135.953	0.221	-0.026
-159.750	391.343	-0.101	-0.207
-158.735	800.000	-0.037	0.105
-157.720	93.092	-0.221	-0.247
-156.706	-200.000	0.049	0.272
-155.691	-22.553	-0.101	0.060
-154.677	-118.309	0.168	0.030
-153.662	-11.709	0.377	0.245
-152.647	-34.425	-0.228	-0.124
-151.633	45.757	0.103	-0.094
-150.618	262.186	0.086	0.148
-149.604	34.450	-0.138	0.119
-148.589	102.441	0.141	-0.163
-147.574	-106.834	0.096	0.021
-146.560	-200.000	-0.007	0.050
-145.545	-40.626	0.081	-0.041
-144.531	73.170	0.216	0.223
-143.516	-54.410	-0.214	-0.096
-142.502	-28.597	-0.088	0.050
-141.487	96.104	0.354	-0.400
-140.472	-66.110	0.181	-0.071
-139.458	298.542	-0.058	0.105
-138.443	17.869	0.259	-0.204
-137.429	12.870	-0.200	-0.153
-136.414	-200.000	0.009	-0.227
-135.399	161.969	-0.098	0.136
-134.385	-146.173	0.236	0.021
-133.370	-80.540	-0.061	0.020
-132.356	25.856	-0.273	-0.225
-131.341	-121.754	-0.087	-0.014
-130.326	-16.114	-0.190	0.119
-129.312	-200.000	-0.090	0.467
-128.297	-94.371	0.385	0.104
-127.283	445.645	-0.099	0.214
-126.268	800.000	-0.066	0.250
-125.253	-178.008	0.153	-0.004
-124.239	-200.000	0.000	0.153
-123.224	-69.385	-0.237	0.090
-122.210	632.575	0.080	-0.200
-121.195	116.805	-0.197	-0.239
-120.180	-57.010	-0.265	0.115
-119.166	-97.364	0.116	0.030
-118.151	73.526	-0.140	-0.144
-117.137	41.151	0.263	0.234
-116.122	511.602	-0.062	0.143
-115.107	333.683	-0.143	0.273
-114.093	-200.000	0.000	0.095
-113.078	9.754	0.026	0.020
-112.064	177.545	0.194	0.279
-111.049	-200.000	-0.006	0.160
-110.034	284.451	0.172	0.306
-109.020	399.161	-0.044	0.091
-108.005	-200.000	-0.037	0.185
-106.991	394.364	-0.143	-0.294
-105.976	389.267	0.134	0.273
-104.962	438.834	0.112	0.241
-103.947	82.856	0.122	0.131
-102.932	321.474	-0.107	0.201
-101.918	-54.453	0.309	-0.138
-100.903	39.750	-0.155	0.137
-99.889	4.515	-0.149	0.108
-98.874	144.707	0.167	-0.221
-97.859	-200.000	-0.062	0.391
-96.845	800.000	-0.101	-0.303
-95.830	119.487	0.012	-0.014
-94.816	40.391	0.026	-0.023
-93.801	-0.907	-0.125	0.087
-92.786	-200.000	0.049	0.254
-91.772	800.000	0.044	0.138
-90.757	314.223	-0.097	-0.180
-89.743	-32.413	-0.027	0.015
-88.728	-83.621	0.297	-0.094
-87.713	-98.696	0.099	-0.025
-86.699	216.762	-0.119	-0.187
-85.684	-136.329	0.082	0.009
-84.670	17.512	-0.096	0.075
-83.655	800.000	0.076	-0.301
-82.640	-85.664	0.150	0.046
-81.626	-200.000	-0.049	-0.255
-80.611	-189.709	-0.247	0.003
-79.597	501.391	-0.040	0.092
-78.582	185.222	0.015	0.022
-77.567	-114.575	-0.282	-0.053
-76.553	-200.000	-0.045	-0.416
-75.538	-71.503	0.183	0.068
-74.524	38.667	0.177	-0.155
-73.509	-38.306	-0.302	0.158
-72.494	432.258	-0.041	-0.087
-71.480	243.602	-0.205	0.339
-70.465	-200.000	-0.012	0.277
-69.451	179.206	0.092	0.132
-68.436	800.000	-0.059	0.235
-67.422	-155.173	0.163	0.010
-66.407	-66.247	-0.213	0.084
-65.392	-66.843	0.441	-0.172
-64.378	-200.000	-0.019	-0.325
-63.363	369.139	-0.056	-0.111
-62.349	127.296	0.137	-0.171
-61.334	45.881	-0.818	-0.746
-60.319	700.212	0.133	0.344
-59.305	-200.000	-0.229	-1.029
-58.290	80.674	0.935	0.993
-57.276	800.000	0.539	1.578
-56.261	-200.000	92.222	537.352
-55.246	500.432	1411.427	3207.586
-54.232	146.172	2635.566	3483.533
-53.217	105.977	2355.200	2745.798
-52.203	44.556	1959.651	1773.828
-51.188	38.503	1740.345	1528.184
-50.173	35.582	1695.387	1466.394
-49.159	51.094	1741.430	1626.537
-48.144	53.730	1759.567	1663.823
-47.130	38.052	1716.502	1503.535
-46.115	35.098	1701.659	1467.870
-45.100	35.019	1696.499	1462.760
-44.086	34.955	1694.546	1460.529
-43.071	34.960	1691.515	1457.897
-42.057	35.004	1688.831	1455.859
-41.042	34.994	1686.989	1454.141
-40.027	35.100	1684.853	1453.048
-39.013	35.078	1683.040	1451.258
-37.998	34.931	1681.988	1449.181
-36.984	35.052	1680.373	1448.642
-35.969	35.136	1678.808	1447.877
-34.954	35.181	1677.214	1446.781
-33.940	35.184	1674.962	1444.801
-32.925	35.169	1673.163	1443.080
-31.911	35.152	1671.883	1441.794
-30.896	35.007	1670.146	1439.144
-29.881	35.089	1667.887	1437.757
-28.867	35.094	1666.501	1436.543
-27.852	35.047	1665.325	1435.120
-26.838	35.143	1663.066	1433.838
-25.823	35.118	1662.208	1432.850
-24.809	35.181	1660.580	1431.867
-23.794	35.226	1659.213	1430.965
-22.779	35.074	1657.849	1428.599
-21.765	35.139	1655.906	1427.352
-20.750	35.073	1654.519	1425.604
-19.736	35.170	1653.040	1424.997
-18.721	35.135	1651.792	1423.606
-17.706	35.198	1649.459	1422.008
-16.692	35.108	1647.659	1419.726
-15.677	35.072	1646.849	1418.710
-14.663	35.213	1645.033	1418.129
-13.648	35.184	1643.676	1416.690
-12.633	35.160	1642.040	1415.047
-11.619	35.179	1640.517	1413.822
-10.604	35.252	1638.967	1412.963
-9.590	35.144	1637.465	1410.817
-8.575	35.212	1636.284	1410.245
-7.560	35.228	1634.934	1409.146
-6.546	35.092	1634.061	1407.335
-5.531	35.091	1632.610	1406.024
-4.517	35.220	1631.760	1406.181
-3.502	35.207	1630.759	1405.171
-2.487	35.295	1629.233	1404.442
-1.473	35.405	1618.183	1395.665
-0.458	33.485	1599.901	1366.011
0.556	28.204	1600.905	1336.162
1.571	26.016	1626.210	1340.913
2.586	25.285	1640.287	1346.916
3.600	23.386	1588.904	1290.792
4.615	18.318	1482.394	1169.629
5.629	13.676	1419.384	1089.380
6.644	12.623	1411.423	1076.288
7.659	12.525	1410.551	1074.893
8.673	12.491	1408.758	1073.205
9.688	12.561	1406.999	1072.229
10.702	12.283	1404.429	1068.365
11.717	14.706	1408.099	1086.850
12.731	18.932	1415.843	1120.328
13.746	19.579	1415.122	1123.869
14.761	17.774	1410.789	1108.608
15.775	16.505	1408.434	1098.420
16.790	15.491	1405.135	1089.179
17.804	14.641	1402.936	1081.868
18.819	14.177	1401.061	1077.325
19.834	13.742	1399.734	1073.393
20.848	13.585	1398.063	1071.003
21.863	13.332	1397.192	1068.605
22.877	13.214	1396.199	1066.992
23.892	13.123	1395.120	1065.481
24.907	13.107	1393.850	1064.317
25.921	13.139	1393.427	1064.107
26.936	13.205	1392.515	1063.739
27.950	13.408	1390.993	1063.788
28.965	13.294	1390.086	1062.267
29.980	13.325	1388.671	1061.293
30.994	13.427	1387.681	1061.094
32.009	13.454	1386.510	1060.279
33.023	13.434	1385.364	1059.183
34.038	13.334	1383.833	1057.275
35.053	13.393	1382.734	1056.724
36.067	13.356	1381.816	1055.690
37.082	13.293	1380.703	1054.345
38.096	13.331	1379.608	1053.657
39.111	13.333	1378.759	1052.932
40.126	13.279	1378.066	1051.962
41.140	13.241	1377.213	1050.978
42.155	13.169	1376.640	1049.991
43.169	13.100	1376.342	1049.228
44.184	13.031	1376.316	1048.678
45.199	13.159	1375.503	1048.780
46.213	13.246	1374.971	1048.835
47.228	13.260	1374.236	1048.272
48.242	13.262	1373.188	1047.390
49.257	13.285	1371.381	1046.061
50.271	13.273	1369.615	1044.548
51.286	13.200	1368.784	1043.360
52.301	13.242	1367.107	1042.258
53.315	13.234	1365.843	1041.148
54.330	13.165	1365.146	1040.095
55.344	13.164	1363.479	1038.722
56.359	13.133	1363.029	1038.096
57.374	13.087	1362.103	1037.007
58.388	13.183	1361.022	1036.693
59.403	13.011	1360.575	1035.182
60.417	13.092	1359.866	1035.061
61.432	13.063	1359.079	1034.191
62.447	13.011	1357.779	1032.782
63.461	12.994	1356.540	1031.642
64.476	12.944	1355.833	1030.703
65.490	13.034	1353.978	1029.762
66.505	13.024	1352.483	1028.473
67.520	13.078	1351.578	1028.030
68.534	13.054	1350.661	1027.088
69.549	13.061	1349.714	1026.325
70.563	13.038	1348.382	1025.075
71.578	12.985	1347.252	1023.796
72.593	12.971	1346.503	1023.050
73.607	12.864	1346.227	1022.088
74.622	12.878	1345.031	1021.178
75.636	13.005	1344.225	1021.256
76.651	12.927	1343.400	1020.061
77.666	12.935	1342.775	1019.544
78.680	12.943	1342.980	1019.658
79.695	12.981	1341.424	1018.623
80.709	13.063	1340.849	1018.604
81.724	13.063	1339.980	1017.852
82.739	13.130	1339.144	1017.541
83.753	13.236	1337.996	1017.231
84.768	13.226	1337.378	1016.606
85.782	13.259	1336.115	1015.761
86.797	13.181	1335.390	1014.639
87.812	13.299	1333.187	1013.602
88.826	13.204	1332.605	1012.488
89.841	13.192	1331.552	1011.522
90.855	13.271	1330.378	1011.026
91.870	13.338	1329.249	1010.485
92.884	13.376	1328.427	1010.006
93.899	13.355	1327.561	1009.129
94.914	13.308	1327.174	1008.460
95.928	13.318	1326.471	1007.894
96.943	13.261	1325.794	1006.948
97.957	13.267	1324.510	1005.917
98.972	13.360	1322.923	1005.187
99.987	13.343	1322.247	1004.485
101.001	13.321	1321.107	1003.397
102.016	13.378	1319.734	1002.610
103.030	13.287	1319.277	1001.623
104.045	13.274	1318.441	1000.817
105.060	13.218	1317.220	999.465
106.074	13.157	1315.687	997.843
107.089	13.044	1314.568	996.223
108.103	13.068	1313.136	995.199
109.118	13.115	1311.612	994.239
110.133	13.034	1310.550	992.859
111.147	13.070	1308.934	991.759
112.162	13.096	1307.772	990.951
113.176	13.105	1306.174	989.702
114.191	13.090	1305.882	989.308
115.206	13.092	1304.680	988.317
116.220	13.109	1303.096	987.136
117.235	13.193	1302.064	986.764
118.249	13.212	1300.925	985.931
119.264	13.088	1299.800	984.248
120.279	13.063	1298.602	983.109
121.293	13.055	1297.802	982.365
122.308	13.088	1296.580	981.554
123.322	13.004	1295.619	980.240
124.337	13.075	1294.105	979.429
125.352	13.016	1293.086	978.220
126.366	12.981	1292.092	977.175
127.381	13.128	1290.770	976.956
128.395	13.119	1290.102	976.310
129.410	13.009	1289.221	974.910
130.424	13.057	1288.142	974.290
131.439	13.155	1287.097	973.993
132.454	13.191	1286.075	973.343
133.468	13.232	1285.038	972.712
134.483	13.184	1284.571	971.991
135.497	13.289	1283.562	971.757
136.512	13.236	1281.982	970.167
137.527	13.238	1280.811	969.204
138.541	13.203	1279.399	967.845
139.556	13.163	1278.258	966.663
140.570	13.344	1277.178	966.822
141.585	13.222	1276.255	965.324
142.600	13.304	1274.432	964.338
143.614	13.338	1273.877	964.032
144.629	13.435	1272.465	963.440
145.643	13.429	1271.160	962.330
146.658	13.348	1269.795	960.743
147.673	13.297	1268.843	959.642
148.687	13.260	1267.472	958.303
149.702	13.250	1266.216	957.216
150.716	13.190	1264.988	955.854
151.731	13.243	1264.241	955.513
152.746	13.349	1262.140	954.449
153.760	13.308	1261.448	953.608
154.775	13.407	1260.003	953.003
155.789	13.400	1259.032	952.139
156.804	13.372	1257.921	951.057
157.819	13.369	1257.037	950.285
158.833	13.398	1255.945	949.542
159.848	13.424	1254.903	948.820
160.862	13.425	1253.857	947.948
161.877	13.434	1252.609	946.974
162.892	13.309	1251.650	945.452
163.906	13.406	1250.261	944.872
164.921	13.320	1249.593	943.796
165.935	13.396	1249.141	943.805
166.950	13.471	1247.929	943.228
167.964	13.518	1247.279	942.923
168.979	13.472	1246.744	942.174
169.994	13.466	1245.659	941.236
171.008	13.482	1245.187	940.887
172.023	13.493	1244.169	940.094
173.037	13.615	1243.523	940.217
174.052	13.569	1242.408	939.030
175.067	13.468	1241.467	937.663
176.081	13.524	1240.755	937.360
177.096	13.476	1239.584	936.123
178.110	13.474	1238.446	935.167
179.125	13.493	1237.302	934.328
180.140	13.501	1236.256	933.500
181.154	13.594	1234.734	932.792
182.169	13.671	1233.304	932.066
183.183	13.598	1232.615	931.051
184.198	13.694	1231.534	930.690
185.213	13.649	1230.470	929.551
186.227	13.676	1229.236	928.686
187.242	13.756	1228.166	928.243
188.256	13.676	1227.440	927.169
189.271	13.874	1225.673	926.857
190.286	13.599	1225.037	924.756
191.300	13.543	1224.340	923.837
192.315	13.399	1224.119	922.787
193.329	13.484	1223.033	922.359
194.344	13.587	1222.309	922.304
195.359	13.664	1221.598	922.115
196.373	13.658	1221.345	921.808
197.388	13.763	1220.614	921.759
198.402	13.779	1220.366	921.581
199.417	13.956	1219.428	921.770
200.432	13.940	1218.567	920.951
201.446	13.868	1218.009	920.051
202.461	14.053	1216.718	920.015
203.475	14.007	1215.697	918.907
204.490	13.984	1214.223	917.584
205.504	13.872	1213.154	916.076
206.519	13.905	1212.243	915.495
207.534	13.859	1211.049	914.258
208.548	13.836	1210.401	913.558
209.563	13.915	1209.457	913.202
210.577	13.973	1208.227	912.509
211.592	13.915	1207.366	911.458
212.607	14.126	1206.384	911.795
213.621	14.092	1205.738	911.040
214.636	14.050	1204.985	910.162
215.650	14.082	1203.916	909.449
216.665	14.073	1203.050	908.665
217.680	14.104	1202.315	908.199
218.694	14.276	1200.936	908.014
219.709	14.255	1200.286	907.325
220.723	14.180	1199.691	906.389
221.738	14.107	1199.104	905.469
222.753	14.108	1198.388	904.854
223.767	14.205	1197.880	904.916
224.782	14.285	1196.692	904.371
225.796	14.227	1196.608	903.914
226.811	14.289	1195.467	903.311
227.826	14.273	1194.604	902.490
228.840	14.244	1193.707	901.576
229.855	14.352	1192.662	901.292
230.869	14.260	1192.438	900.545
231.884	14.153	1191.766	899.381
232.899	14.333	1190.302	899.164
233.913	14.166	1190.125	898.049
234.928	14.270	1188.971	897.664
235.942	14.178	1188.414	896.669
236.957	14.323	1187.647	896.789
237.972	14.212	1186.960	895.592
238.986	14.128	1186.290	894.558
240.001	14.247	1185.488	894.510
241.015	14.400	1184.447	894.467
242.030	14.415	1183.517	893.769
243.045	14.346	1183.053	892.970
244.059	14.355	1182.493	892.518
245.074	14.325	1181.728	891.696
246.088	14.463	1180.847	891.695
247.103	14.505	1179.906	891.126
248.117	14.537	1178.950	890.500
249.132	14.677	1178.113	890.532
250.147	14.591	1177.600	889.610
251.161	14.719	1176.938	889.714
252.176	14.689	1176.703	889.297
253.190	14.781	1175.647	888.906
254.205	14.766	1175.097	888.336
255.220	14.875	1174.702	888.534
256.234	14.764	1174.013	887.346
257.249	14.773	1173.419	886.869
258.263	14.762	1172.709	886.193
259.278	14.938	1171.651	886.249
260.293	14.837	1171.271	885.347
261.307	14.904	1170.714	885.204
262.322	14.818	1170.251	884.317
263.336	14.916	1169.526	884.214
264.351	14.917	1168.767	883.564
265.366	15.011	1167.826	883.273
266.380	14.962	1167.359	882.583
267.395	14.938	1166.379	881.638
268.409	14.940	1165.510	880.910
269.424	14.950	1165.373	880.780
270.439	14.912	1164.566	879.896
271.453	14.874	1163.775	879.019
272.468	14.890	1163.037	878.469
273.482	14.896	1162.048	877.674
274.497	14.946	1161.467	877.421
275.512	14.947	1161.011	877.007
276.526	14.972	1160.215	876.455
277.541	15.037	1158.967	875.775
278.555	14.970	1158.522	875.012
279.570	15.182	1157.672	875.398
280.585	15.155	1156.758	874.491
281.599	15.203	1155.598	873.785
282.614	15.086	1155.192	872.792
283.628	15.113	1153.491	871.572
284.643	15.205	1153.126	871.695
285.657	15.217	1151.673	870.583
286.672	15.175	1151.346	870.044
287.687	15.212	1150.688	869.659
288.701	15.110	1149.920	868.474
289.716	15.132	1149.097	867.890
290.730	15.261	1147.876	867.556
291.745	15.349	1147.339	867.531
292.760	15.249	1146.585	866.366
293.774	15.281	1146.441	866.344
294.789	15.265	1145.623	865.566
295.803	15.422	1144.786	865.669
296.818	15.301	1144.314	864.611
297.833	15.248	1143.244	863.453
298.847	15.345	1142.041	862.968
299.862	15.425	1141.400	862.816
300.876	15.418	1141.193	862.551
301.891	15.387	1140.496	861.788
302.906	15.465	1139.715	861.519
303.920	15.431	1139.218	860.893
304.935	15.399	1138.661	860.233
305.949	15.576	1137.832	860.437
306.964	15.454	1137.342	859.367
307.979	15.608	1136.154	859.178
308.993	15.578	1135.358	858.350
310.008	15.637	1134.490	857.918
311.022	15.637	1133.460	857.063
312.037	15.648	1132.859	856.592
313.052	15.563	1132.214	855.594
314.066	15.631	1130.900	854.870
315.081	15.588	1130.179	854.032
316.095	15.381	1129.741	852.572
317.110	15.532	1128.734	852.502
318.125	15.536	1128.116	851.983
319.139	15.551	1127.586	851.581
320.154	15.545	1126.805	850.889
321.168	15.570	1126.026	850.351
322.183	15.620	1125.241	849.935
323.197	15.573	1124.870	849.343
324.212	15.672	1123.954	849.074
325.227	15.649	1123.365	848.441
326.241	15.657	1123.151	848.243
327.256	15.681	1122.103	847.498
328.270	15.657	1121.206	846.624
329.285	15.676	1120.368	846.009
330.300	15.583	1119.246	844.624
331.314	15.668	1118.268	844.234
332.329	15.637	1117.921	843.742
333.343	15.707	1116.942	843.281
334.358	15.821	1115.773	842.894
335.373	15.637	1115.457	841.662
336.387	15.771	1114.201	841.309
337.402	15.794	1113.695	840.967
338.416	15.771	1113.072	840.308
339.431	15.851	1112.422	840.140
340.446	15.937	1111.866	840.077
341.460	15.969	1111.100	839.581
342.475	15.983	1110.279	838.955
343.489	16.127	1108.825	838.500
344.504	15.980	1108.234	837.251
345.519	16.057	1107.656	837.123
346.533	16.026	1106.714	836.183
347.548	16.043	1106.217	835.817
348.562	16.195	1105.019	835.589
349.577	16.146	1104.174	834.634
350.592	15.989	1103.312	833.132
351.606	15.981	1102.924	832.728
352.621	16.067	1102.087	832.446
353.635	15.968	1101.360	831.333
354.650	16.016	1100.405	830.777
355.665	16.121	1099.957	830.880
356.679	16.103	1099.434	830.326
357.694	16.191	1098.654	830.095
358.708	16.171	1097.920	829.368
359.723	16.086	1097.280	828.393
360.738	16.145	1096.578	828.083
361.752	16.175	1096.462	828.069
362.767	16.171	1095.962	827.597
363.781	16.167	1095.095	826.849
364.796	16.484	1094.086	827.568
365.810	16.414	1093.565	826.758
366.825	16.360	1093.052	826.033
367.840	16.447	1092.622	826.058
368.854	16.353	1092.406	825.360
369.869	16.423	1091.200	824.717
370.883	16.533	1090.141	824.385
371.898	16.409	1089.623	823.311
372.913	16.422	1089.023	822.851
373.927	16.512	1088.738	823.001
374.942	16.466	1087.890	822.063
375.956	16.544	1087.243	821.883
376.971	16.405	1086.713	820.732
377.986	16.579	1086.321	821.207
379.000	16.539	1085.675	820.455
380.015	16.623	1085.228	820.452
381.029	16.559	1084.392	819.433
382.044	16.686	1083.762	819.501
383.059	16.569	1083.235	818.465
384.073	16.749	1082.246	818.513
385.088	16.843	1080.890	817.870
386.102	16.711	1080.164	816.612
387.117	16.523	1079.495	815.128
388.132	16.627	1078.399	814.731
389.146	16.675	1077.174	813.960
390.161	16.623	1077.029	813.530
391.175	16.654	1076.065	812.880
392.190	16.684	1075.625	812.620
393.205	16.655	1074.990	811.927
394.219	16.739	1073.957	811.481
395.234	16.770	1073.060	810.876
396.248	16.764	1071.971	809.954
397.263	16.724	1071.044	808.992
398.278	16.748	1070.118	808.335
399.292	16.760	1069.421	807.794
400.307	16.827	1068.688	807.489
401.321	16.766	1067.889	806.524
402.336	16.643	1067.941	805.906
403.350	16.676	1067.130	805.380
404.365	16.751	1065.888	804.724
405.380	16.823	1065.421	804.644
406.394	16.840	1064.686	804.096
407.409	16.798	1064.154	803.429
408.423	16.896	1063.291	803.166
409.438	17.015	1062.700	803.215
410.453	17.078	1061.830	802.785
411.467	16.999	1061.439	802.044
412.482	16.930	1060.511	800.943
413.496	17.073	1060.181	801.300
414.511	17.042	1059.139	800.298
415.526	17.156	1058.857	800.552
416.540	17.044	1058.718	799.847
417.555	17.188	1057.600	799.609
418.569	17.308	1056.883	799.561
419.584	17.197	1056.850	798.942
420.599	17.165	1056.261	798.275
421.613	96.880	1314.437	1435.484
422.628	89.304	1352.019	1435.586
