DTS Sentinel unit serial number:	SN413079Multiplexer serial number:	ORYXHardware model number:	OX4-SRSoftware version number:	ORYX F/W v4.00 Oryx Data Collector v3.7.2.0data status	okinstallation	princeton_trtdifferential loss correction	single-endedforward channel	channel 2reverse channel	N/Adate	2019/09/13time	08:51:35forward acquisition time	60.00reverse acquisition time	0.00gamma	496.2192k internal	0.2332k external	0.2332temperature offset calibration	1.0192default loss term (dB/km)	0.3790temperature slope calibration	1.0000multiplexer offset coefficient	1.0000multiplexer slope coefficient	1.0000fibre end	0.00T internal ref (°C)	28.12T ext. ref 1 (°C)	4.34T ext. ref 2 (°C)	25.12length (m)	temperature (°C)	Stokes	anti-Stokes-747.200	111.582	0.258	0.313
-746.185	800.000	-0.056	0.243
-745.171	15.897	0.134	0.106
-744.156	-173.764	0.099	-0.003
-743.142	-159.970	-0.250	-0.014
-742.127	-200.000	-0.003	0.298
-741.112	-69.668	0.296	-0.114
-740.098	592.858	-0.054	0.133
-739.083	800.000	-0.135	-0.452
-738.069	-55.725	-0.377	0.170
-737.054	-95.304	0.340	-0.092
-736.039	-83.999	-0.092	0.029
-735.025	800.000	-0.033	0.100
-734.010	-63.434	-0.232	-0.096
-732.996	-200.000	-0.074	-0.475
-731.981	3.351	-0.262	-0.192
-730.966	30.913	-0.225	-0.193
-729.952	212.287	0.065	-0.102
-728.937	-200.000	0.027	-0.244
-727.923	-108.928	-0.133	0.028
-726.908	-45.692	0.089	0.044
-725.894	398.092	-0.035	0.075
-724.879	-200.000	0.015	-0.153
-723.864	-11.555	0.104	0.069
-722.850	13.362	0.175	-0.137
-721.835	-83.967	0.273	0.087
-720.821	11.194	-0.118	0.090
-719.806	800.000	0.038	-0.117
-718.791	106.077	0.148	-0.176
-717.777	-200.000	-0.049	0.291
-716.762	800.000	-0.092	-0.332
-715.748	-200.000	0.036	0.260
-714.733	-80.746	-0.016	0.005
-713.718	-156.348	-0.361	-0.023
-712.704	-3.066	0.389	0.273
-711.689	-198.358	0.383	0.002
-710.675	-47.533	-0.144	0.070
-709.660	800.000	-0.080	-0.234
-708.645	-59.075	-0.183	-0.079
-707.631	151.951	-0.058	-0.079
-706.616	150.123	-0.224	-0.306
-705.602	-200.000	0.090	-0.458
-704.587	120.434	-0.241	-0.301
-703.572	10.183	0.021	0.016
-702.558	-100.040	0.257	0.064
-701.543	-53.609	0.228	-0.105
-700.529	-94.199	-0.066	0.018
-699.514	2.648	-0.060	0.044
-698.499	434.114	-0.058	0.127
-697.485	437.877	-0.131	-0.287
-696.470	334.310	0.136	0.264
-695.456	375.773	0.059	0.120
-694.441	-200.000	0.021	-0.170
-693.426	-94.322	0.156	-0.043
-692.412	14.650	-0.166	-0.130
-691.397	-91.409	0.088	0.025
-690.383	-2.962	0.073	-0.051
-689.368	161.063	-0.039	0.055
-688.354	800.000	-0.042	0.147
-687.339	-59.120	0.250	-0.108
-686.324	42.853	0.241	0.221
-685.310	-200.000	0.005	0.173
-684.295	83.137	0.242	-0.265
-683.281	287.308	-0.131	0.237
-682.266	641.705	-0.120	-0.307
-681.251	-105.601	-0.113	-0.026
-680.237	3.513	0.216	0.158
-679.222	800.000	0.066	0.244
-678.208	-109.905	0.343	0.072
-677.193	-88.527	-0.150	-0.045
-676.178	613.437	-0.029	0.072
-675.164	-200.000	-0.009	-0.193
-674.149	-194.919	0.112	-0.001
-673.135	-2.719	-0.254	0.178
-672.120	-200.000	-0.042	-0.272
-671.105	-66.929	-0.037	0.015
-670.091	152.966	0.082	-0.112
-669.076	-118.235	-0.063	0.011
-668.062	264.257	0.076	-0.132
-667.047	34.736	0.064	-0.056
-666.032	32.186	-0.063	0.054
-665.018	-26.949	0.179	-0.105
-664.003	-72.394	-0.074	0.027
-662.989	62.935	-0.220	0.221
-661.974	37.945	0.060	-0.054
-660.959	112.969	-0.149	0.181
-659.945	800.000	0.019	0.084
-658.930	-200.000	-0.031	0.319
-657.916	448.712	-0.126	-0.279
-656.901	-200.000	0.029	-0.176
-655.886	94.597	-0.238	0.271
-654.872	406.978	-0.104	0.220
-653.857	429.624	-0.086	-0.186
-652.843	-124.408	0.165	0.026
-651.828	32.205	0.306	-0.265
-650.814	-66.830	0.153	0.060
-649.799	156.306	0.040	0.056
-648.784	22.215	0.067	0.055
-647.770	-80.766	0.367	-0.122
-646.755	278.279	0.111	-0.198
-645.741	-76.987	-0.235	-0.082
-644.726	629.197	-0.080	-0.203
-643.711	-71.190	-0.192	0.072
-642.697	8.360	0.210	-0.159
-641.682	-22.401	-0.366	-0.222
-640.668	-82.415	0.286	-0.093
-639.653	800.000	-0.055	-0.156
-638.638	-37.651	0.209	-0.111
-637.624	800.000	0.026	-0.090
-636.609	121.214	0.099	0.123
-635.595	800.000	0.118	0.419
-634.580	306.623	-0.116	-0.216
-633.565	-46.885	0.087	-0.043
-632.551	-141.269	-0.369	0.038
-631.536	84.865	0.122	0.134
-630.522	-38.097	-0.049	0.026
-629.507	-55.771	-0.149	0.067
-628.492	124.033	-0.112	-0.141
-627.478	650.188	0.078	0.199
-626.463	12.396	-0.280	-0.216
-625.449	-136.005	0.064	0.008
-624.434	-52.657	-0.116	-0.054
-623.419	408.389	0.041	-0.086
-622.405	-117.168	-0.194	0.035
-621.390	-72.114	0.192	0.071
-620.376	-13.331	0.142	-0.092
-619.361	-63.762	-0.293	-0.120
-618.346	71.836	0.191	0.199
-617.332	223.503	0.320	0.517
-616.317	-41.013	0.069	-0.036
-615.303	-23.256	-0.178	-0.107
-614.288	-40.794	0.089	0.046
-613.273	167.553	-0.065	-0.093
-612.259	118.113	0.086	-0.106
-611.244	-200.000	-0.002	-0.047
-610.230	-200.000	-0.034	0.269
-609.215	5.238	0.168	-0.124
-608.201	-75.304	-0.179	-0.064
-607.186	-150.767	-0.347	-0.026
-606.171	31.543	0.291	-0.250
-605.157	113.544	-0.059	-0.072
-604.142	684.469	-0.137	-0.359
-603.128	486.230	-0.105	-0.239
-602.113	-200.000	0.025	-0.466
-601.098	-36.151	0.335	0.181
-600.084	-36.615	0.365	0.196
-599.069	-37.828	0.044	-0.023
-598.055	70.386	-0.157	-0.162
-597.040	-200.000	-0.036	-0.175
-596.025	-112.076	-0.052	-0.010
-595.011	-167.308	-0.162	0.007
-593.996	-175.650	-0.626	-0.017
-592.982	-50.694	-0.268	0.126
-591.967	-200.000	0.027	-0.162
-590.952	800.000	0.100	0.299
-589.938	-200.000	0.041	-0.290
-588.923	432.213	0.017	0.038
-587.909	-49.585	0.220	0.105
-586.894	-200.000	0.003	-0.181
-585.879	-26.429	0.350	0.205
-584.865	-100.541	-0.120	-0.030
-583.850	800.000	-0.050	-0.215
-582.836	-27.579	0.301	0.175
-581.821	-35.215	-0.065	-0.036
-580.806	-91.755	-0.217	0.062
-579.792	800.000	0.028	0.085
-578.777	134.018	-0.130	-0.168
-577.763	-131.462	0.071	-0.009
-576.748	61.292	0.033	0.033
-575.733	511.564	0.076	0.177
-574.719	-166.159	0.092	0.004
-573.704	266.559	0.176	0.307
-572.690	-62.985	-0.108	-0.045
-571.675	-134.827	-0.182	0.022
-570.661	-25.018	0.212	0.126
-569.646	187.149	-0.089	-0.133
-568.631	154.403	-0.029	-0.039
-567.617	-56.845	-0.253	0.112
-566.602	172.205	-0.148	-0.213
-565.588	-106.166	0.392	-0.088
-564.573	-92.965	0.422	-0.118
-563.558	-92.575	0.241	0.068
-562.544	-200.000	0.053	0.391
-561.529	-200.000	-0.024	-0.137
-560.515	658.743	-0.089	-0.229
-559.500	514.768	-0.156	-0.364
-558.485	800.000	-0.042	-0.176
-557.471	-36.345	0.040	0.022
-556.456	800.000	0.169	-0.535
-555.442	-169.410	0.211	-0.008
-554.427	-37.611	-0.064	0.034
-553.412	451.370	-0.018	0.039
-552.398	800.000	-0.073	0.214
-551.383	-84.816	0.098	-0.031
-550.369	91.485	0.228	0.256
-549.354	-200.000	-0.001	-0.183
-548.339	373.875	0.106	0.215
-547.325	800.000	0.049	-0.190
-546.310	687.274	-0.061	0.160
-545.296	-200.000	-0.009	-0.064
-544.281	348.549	0.031	-0.062
-543.266	49.032	-0.121	-0.114
-542.252	-71.460	0.136	-0.051
-541.237	-200.000	-0.026	0.193
-540.223	-200.000	-0.025	0.120
-539.208	800.000	-0.089	0.257
-538.193	-57.233	0.318	0.140
-537.179	-200.000	0.058	-0.332
-536.164	-88.395	0.076	-0.023
-535.150	-93.654	-0.203	0.056
-534.135	-78.647	-0.046	-0.016
-533.121	29.534	0.358	0.304
-532.106	21.868	-0.120	0.098
-531.091	-97.076	0.063	0.016
-530.077	431.411	-0.045	0.098
-529.062	-108.618	0.112	0.024
-528.048	-200.000	-0.048	0.303
-527.033	-70.053	0.034	-0.013
-526.018	198.596	0.012	0.018
-525.004	113.414	0.039	0.047
-523.989	329.618	-0.067	0.128
-522.975	-155.454	-0.529	0.034
-521.960	-200.000	0.008	0.224
-520.945	800.000	0.035	0.115
-519.931	-200.000	-0.015	-0.095
-518.916	462.044	0.063	0.141
-517.902	-144.568	-0.238	-0.022
-516.887	-200.000	-0.004	-0.410
-515.872	277.792	0.096	-0.171
-514.858	379.447	-0.191	0.389
-513.843	453.555	0.089	-0.197
-512.829	76.899	-0.213	-0.225
-511.814	178.954	0.055	-0.080
-510.799	-200.000	0.055	0.285
-509.785	-96.679	0.142	0.037
-508.770	-116.911	0.168	-0.031
-507.756	-127.607	-0.197	-0.028
-506.741	-108.345	0.095	-0.020
-505.726	-106.447	-0.212	-0.047
-504.712	381.714	0.057	-0.117
-503.697	-33.756	0.299	-0.164
-502.683	-40.505	-0.319	-0.165
-501.668	-200.000	-0.027	0.173
-500.653	-200.000	0.012	0.151
-499.639	-147.777	-0.128	0.011
-498.624	783.944	-0.073	0.200
-497.610	89.146	-0.121	-0.134
-496.595	358.607	-0.114	0.227
-495.581	-22.531	-0.043	-0.026
-494.566	-71.692	0.158	-0.059
-493.551	-38.909	0.060	-0.031
-492.537	2.433	0.126	0.091
-491.522	-103.456	-0.240	0.056
-490.508	-186.952	-0.311	0.004
-489.493	558.293	-0.038	0.091
-488.478	210.926	0.068	0.106
-487.464	601.450	0.102	-0.253
-486.449	93.776	0.144	0.163
-485.435	-200.000	0.006	-0.259
-484.420	-200.000	-0.033	0.177
-483.405	133.137	0.062	-0.079
-482.391	-28.702	-0.287	0.164
-481.376	800.000	0.038	-0.141
-480.362	174.784	0.112	-0.161
-479.347	-111.735	-0.341	0.069
-478.332	-61.635	-0.166	0.069
-477.318	-176.389	-0.171	-0.004
-476.303	-200.000	-0.029	0.358
-475.289	-39.333	-0.232	-0.121
-474.274	314.099	-0.114	-0.214
-473.259	134.222	-0.082	-0.106
-472.245	-200.000	-0.011	-0.076
-471.230	-170.084	0.121	-0.004
-470.216	95.799	-0.285	0.323
-469.201	389.073	0.097	-0.201
-468.186	195.113	0.080	-0.121
-467.172	-200.000	-0.021	0.174
-466.157	-74.950	0.036	0.013
-465.143	51.299	0.082	0.077
-464.128	154.420	0.190	0.259
-463.113	-200.000	0.051	0.563
-462.099	189.630	0.053	-0.080
-461.084	800.000	-0.078	0.277
-460.070	205.877	0.019	0.029
-459.055	-52.922	-0.132	0.061
-458.040	39.416	0.088	-0.079
-457.026	34.538	-0.120	0.104
-456.011	-98.686	0.326	0.083
-454.997	800.000	0.128	0.467
-453.982	800.000	-0.020	-0.069
-452.968	498.477	0.187	-0.429
-451.953	-21.741	0.174	-0.106
-450.938	559.430	-0.040	0.096
-449.924	-103.136	-0.253	-0.059
-448.909	-66.906	0.176	0.069
-447.895	800.000	0.070	-0.193
-446.880	-50.786	-0.088	0.041
-445.865	-172.200	-0.083	0.003
-444.851	46.147	0.157	0.144
-443.836	10.571	0.145	0.110
-442.822	-200.000	-0.003	-0.275
-441.807	-115.626	-0.204	-0.038
-440.792	-11.022	0.084	0.055
-439.778	-44.898	-0.101	0.050
-438.763	15.279	0.106	-0.083
-437.749	76.108	-0.051	-0.054
-436.734	216.126	-0.089	0.141
-435.719	-39.798	0.278	0.144
-434.705	800.000	0.035	0.138
-433.690	64.165	0.071	-0.071
-432.676	306.188	0.201	0.372
-431.661	800.000	0.029	0.103
-430.646	-61.287	0.371	0.155
-429.632	-81.035	0.054	-0.018
-428.617	-54.338	0.097	0.044
-427.603	-80.780	0.140	0.046
-426.588	-200.000	0.107	-0.553
-425.573	729.163	-0.089	0.236
-424.559	236.192	-0.034	-0.057
-423.544	-159.867	0.384	-0.021
-422.530	-200.000	0.030	-0.366
-421.515	-200.000	0.029	-0.210
-420.500	-190.337	-0.052	-0.001
-419.486	-46.210	0.158	-0.077
-418.471	-2.974	0.088	0.061
-417.457	-95.244	-0.309	-0.083
-416.442	-54.844	0.081	0.036
-415.428	-200.000	-0.008	0.122
-414.413	-200.000	0.021	-0.143
-413.398	37.763	0.042	0.037
-412.384	-70.113	-0.103	0.039
-411.369	-13.620	0.243	0.157
-410.355	-97.162	-0.180	-0.047
-409.340	97.017	-0.229	-0.260
-408.325	-134.484	0.038	0.005
-407.311	-173.952	0.091	0.003
-406.296	-200.000	-0.005	-0.156
-405.282	-200.000	-0.163	0.001
-404.267	-35.414	-0.032	0.017
-403.252	-55.622	-0.062	0.027
-402.238	75.534	-0.088	-0.092
-401.223	-105.253	-0.221	-0.050
-400.209	176.566	0.106	-0.153
-399.194	148.105	0.293	0.392
-398.179	177.058	0.059	-0.086
-397.165	-200.000	-0.008	0.119
-396.150	800.000	-0.073	0.250
-395.136	319.047	0.137	-0.258
-394.121	-62.877	-0.152	-0.062
-393.106	341.733	0.084	-0.163
-392.092	46.830	0.150	-0.139
-391.077	46.090	-0.230	-0.212
-390.063	55.027	-0.177	-0.170
-389.048	-14.839	0.288	0.183
-388.033	106.317	-0.018	0.022
-387.019	800.000	0.088	0.316
-386.004	211.628	0.123	-0.192
-384.990	520.729	0.072	0.167
-383.975	21.989	-0.129	0.104
-382.960	116.452	0.115	0.140
-381.946	-163.368	-0.135	0.006
-380.931	71.880	0.094	-0.097
-379.917	9.535	-0.345	-0.259
-378.902	-200.000	0.051	-0.400
-377.888	-200.000	0.026	-0.146
-376.873	800.000	-0.043	-0.126
-375.858	208.293	0.164	-0.255
-374.844	218.298	0.158	-0.250
-373.829	-49.189	0.084	0.040
-372.815	800.000	-0.026	-0.084
-371.800	40.021	0.107	0.095
-370.785	-200.000	-0.250	0.000
-369.771	-200.000	-0.013	-0.069
-368.756	360.464	0.179	0.356
-367.742	-61.535	0.209	0.087
-366.727	32.866	-0.139	0.120
-365.712	398.979	0.095	0.198
-364.698	-134.403	-0.386	-0.047
-363.683	217.701	0.130	0.206
-362.669	-69.263	0.221	0.084
-361.654	-162.980	0.271	-0.013
-360.639	-173.006	0.305	0.009
-359.625	800.000	0.038	-0.129
-358.610	-200.000	-0.044	0.391
-357.596	-135.962	0.429	0.050
-356.581	291.272	-0.156	0.282
-355.566	-58.334	-0.219	0.094
-354.552	166.424	-0.262	0.368
-353.537	800.000	-0.029	0.080
-352.523	-106.605	-0.175	0.039
-351.508	-116.146	0.206	-0.038
-350.493	-35.394	0.127	0.068
-349.479	-9.193	-0.155	-0.103
-348.464	-200.000	-0.015	0.080
-347.450	218.278	0.196	-0.311
-346.435	81.688	0.074	0.079
-345.420	-190.851	0.111	-0.001
-344.406	-14.595	-0.331	-0.211
-343.391	-200.000	-0.049	-0.443
-342.377	401.224	-0.172	0.357
-341.362	525.365	-0.040	0.092
-340.348	276.417	0.081	-0.142
-339.333	-153.546	-0.489	-0.033
-338.318	228.531	-0.034	0.055
-337.304	-200.000	0.063	0.320
-336.289	-26.639	0.098	0.057
-335.275	67.781	0.250	0.253
-334.260	-200.000	-0.095	0.446
-333.245	-200.000	-0.004	0.178
-332.231	-146.548	-0.129	0.011
-331.216	83.624	0.177	-0.191
-330.202	-119.576	0.118	-0.020
-329.187	-5.459	-0.296	0.201
-328.172	119.830	-0.211	0.259
-327.158	157.834	0.142	0.195
-326.143	-200.000	-0.013	0.254
-325.129	-91.151	-0.209	0.059
-324.114	-131.821	0.253	-0.033
-323.099	-127.922	0.327	0.047
-322.085	-79.078	-0.264	0.089
-321.070	-51.487	-0.069	0.032
-320.056	-139.644	-0.228	0.024
-319.041	275.038	0.105	-0.184
-318.026	586.124	0.079	-0.192
-317.012	-177.900	-0.139	0.003
-315.997	-4.229	0.219	0.150
-314.983	51.573	-0.078	0.073
-313.968	-114.331	-0.223	-0.042
-312.953	-19.065	0.092	-0.056
-311.939	696.922	0.134	-0.348
-310.924	-46.267	0.187	-0.091
-309.910	-123.055	0.208	0.033
-308.895	271.865	0.033	-0.057
-307.880	525.224	-0.085	-0.199
-306.866	179.266	0.152	-0.220
-305.851	52.139	0.372	0.351
-304.837	-47.957	0.228	0.109
-303.822	-132.077	0.112	-0.014
-302.807	-6.006	-0.185	-0.125
-301.793	27.465	-0.156	-0.130
-300.778	143.378	-0.107	0.141
-299.764	-200.000	-0.028	-0.346
-298.749	-200.000	0.060	0.387
-297.735	240.769	-0.124	0.204
-296.720	800.000	0.065	-0.243
-295.705	-50.348	-0.070	0.033
-294.691	88.081	0.091	-0.099
-293.676	-200.000	0.011	-0.308
-292.662	304.510	-0.043	-0.079
-291.647	-151.684	0.053	0.004
-290.632	68.918	0.011	-0.011
-289.618	89.638	0.134	-0.148
-288.603	91.072	-0.065	-0.072
-287.589	-101.075	0.302	-0.073
-286.574	-200.000	0.052	-0.277
-285.559	-91.149	-0.264	-0.075
-284.545	-77.633	-0.079	0.027
-283.530	-168.274	0.342	-0.013
-282.516	-200.000	0.080	-0.435
-281.501	-143.901	-0.059	-0.005
-280.486	44.437	0.126	-0.115
-279.472	-0.329	-0.086	-0.061
-278.457	-37.784	0.129	0.068
-277.443	62.423	-0.245	-0.242
-276.428	-200.000	0.012	0.247
-275.413	-15.653	0.221	-0.139
-274.399	-53.523	-0.455	0.206
-273.384	86.537	0.155	-0.168
-272.370	283.561	-0.062	-0.111
-271.355	-170.917	-0.008	0.000
-270.340	102.050	-0.066	-0.076
-269.326	800.000	0.029	0.120
-268.311	115.598	-0.076	0.091
-267.297	-9.128	0.161	-0.106
-266.282	547.623	-0.162	-0.384
-265.267	-118.900	0.288	-0.050
-264.253	-200.000	-0.011	0.065
-263.238	-71.042	-0.096	-0.036
-262.224	-35.457	-0.294	0.158
-261.209	-200.000	-0.011	0.067
-260.195	800.000	-0.080	-0.310
-259.180	-191.031	-0.218	-0.002
-258.165	190.925	0.164	0.244
-257.151	-113.492	-0.347	0.067
-256.136	123.058	-0.173	-0.214
-255.122	800.000	-0.089	-0.327
-254.107	800.000	0.081	0.248
-253.092	4.874	0.094	0.068
-252.078	-144.898	-0.330	-0.030
-251.063	652.319	-0.093	0.236
-250.049	-131.924	-0.059	0.008
-249.034	79.394	0.043	0.046
-248.019	405.370	-0.079	-0.165
-247.005	-76.913	-0.116	-0.040
-245.990	-48.690	-0.107	-0.051
-244.976	80.399	-0.118	0.126
-243.961	-155.258	0.311	-0.020
-242.946	-103.148	-0.323	0.075
-241.932	-14.410	0.251	0.159
-240.917	-163.278	-0.292	-0.014
-239.903	-200.000	0.037	0.191
-238.888	150.163	-0.198	-0.266
-237.873	-200.000	-0.024	0.203
-236.859	-51.864	0.244	0.112
-235.844	477.580	-0.064	-0.142
-234.830	306.603	0.046	-0.084
-233.815	-144.040	0.092	0.008
-232.800	60.185	-0.108	-0.105
-231.786	-200.000	-0.021	0.204
-230.771	-200.000	-0.015	0.110
-229.757	800.000	-0.090	0.371
-228.742	800.000	0.040	-0.130
-227.727	276.790	0.088	0.155
-226.713	40.135	-0.187	0.166
-225.698	800.000	-0.043	-0.120
-224.684	-49.058	0.431	-0.203
-223.669	-8.106	-0.254	0.168
-222.655	13.805	-0.119	0.091
-221.640	39.207	0.181	-0.160
-220.625	-32.382	-0.098	0.054
-219.611	281.411	-0.045	0.080
-218.596	-88.073	0.046	-0.014
-217.582	-99.446	0.099	0.025
-216.567	21.492	0.134	0.108
-215.552	70.996	-0.118	0.120
-214.538	569.751	0.031	0.074
-213.523	216.224	0.133	0.209
-212.509	-139.574	0.128	-0.014
-211.494	-42.779	-0.025	-0.013
-210.479	-13.383	-0.288	-0.184
-209.465	734.667	-0.057	-0.150
-208.450	436.558	-0.063	0.135
-207.436	-145.681	-0.504	0.044
-206.421	-23.106	0.129	0.077
-205.406	32.463	-0.080	0.068
-204.392	-200.000	0.047	0.207
-203.377	29.212	-0.118	-0.099
-202.363	90.432	0.313	0.345
-201.348	-34.944	0.243	0.130
-200.333	427.610	-0.088	-0.188
-199.319	728.470	0.081	0.214
-198.304	-14.168	0.302	0.192
-197.290	-46.493	-0.253	0.122
-196.275	-83.603	-0.232	-0.073
-195.260	-111.897	-0.083	-0.017
-194.246	-200.000	-0.016	0.186
-193.231	-19.405	-0.267	-0.163
-192.217	-67.345	0.123	-0.047
-191.202	-114.516	-0.183	-0.035
-190.187	240.123	-0.328	-0.538
-189.173	-200.000	-0.015	-0.354
-188.158	-64.288	0.115	-0.046
-187.144	-57.756	0.323	-0.139
-186.129	-62.578	0.081	0.033
-185.114	-200.000	0.215	0.000
-184.100	1.039	0.021	-0.015
-183.085	-28.883	-0.408	0.231
-182.071	-80.634	0.096	0.031
-181.056	129.101	-0.025	0.032
-180.042	529.539	-0.119	-0.276
-179.027	-64.442	0.241	0.096
-178.012	-180.218	0.437	0.009
-176.998	123.332	0.182	-0.224
-175.983	-17.176	0.148	-0.092
-174.969	502.672	0.051	-0.115
-173.954	87.866	0.034	0.038
-172.939	-200.000	0.009	-0.229
-171.925	176.824	0.055	0.078
-170.910	-34.493	-0.208	-0.112
-169.896	-200.000	-0.060	-0.411
-168.881	7.293	-0.178	-0.131
-167.866	-55.660	0.089	-0.039
-166.852	-200.000	0.072	-0.427
-165.837	194.278	-0.149	0.222
-164.823	112.410	0.112	-0.133
-163.808	88.858	-0.186	-0.203
-162.793	-200.000	0.007	0.330
-161.779	-45.785	-0.259	0.126
-160.764	453.207	-0.091	0.197
-159.750	-48.837	0.068	0.032
-158.735	-51.390	0.179	-0.082
-157.720	-45.747	-0.298	0.145
-156.706	-65.336	0.174	0.069
-155.691	-16.291	-0.064	-0.040
-154.677	408.157	-0.174	0.362
-153.662	26.473	0.194	0.160
-152.647	205.541	-0.065	0.100
-151.633	-153.525	-0.462	-0.031
-150.618	98.260	-0.072	-0.082
-149.604	188.513	0.142	0.209
-148.589	499.732	-0.117	0.264
-147.574	252.365	0.168	0.281
-146.560	-33.023	0.163	0.089
-145.545	-200.000	0.065	0.309
-144.531	13.915	-0.109	0.083
-143.516	-200.000	0.028	0.309
-142.502	-160.209	-0.368	0.020
-141.487	-29.269	-0.156	-0.088
-140.472	-1.779	0.200	0.138
-139.458	-103.943	0.122	0.028
-138.443	158.800	0.040	0.055
-137.429	-200.000	0.012	-0.157
-136.414	-81.073	-0.389	-0.126
-135.399	-200.000	0.028	0.346
-134.385	-200.000	-0.019	-0.223
-133.370	-200.000	-0.048	0.277
-132.356	-30.516	0.224	0.125
-131.341	412.335	0.091	0.189
-130.326	317.177	-0.066	-0.123
-129.312	698.556	0.062	0.160
-128.297	-20.568	0.085	0.051
-127.283	-200.000	0.025	-0.356
-126.268	107.297	-0.197	-0.230
-125.253	305.202	0.089	-0.163
-124.239	-200.000	-0.030	-0.130
-123.224	-113.187	0.265	-0.051
-122.210	14.428	-0.235	0.180
-121.195	800.000	0.026	-0.081
-120.180	-200.000	0.059	-0.322
-119.166	-8.124	0.307	0.203
-118.151	-35.596	-0.202	0.108
-117.137	-66.263	-0.199	0.078
-116.122	-166.034	-0.045	-0.002
-115.107	-116.753	-0.085	-0.015
-114.093	-18.490	0.113	0.069
-113.078	-200.000	-0.007	0.395
-112.064	-82.163	0.257	-0.082
-111.049	201.015	0.160	0.241
-110.034	206.298	-0.074	-0.113
-109.020	-200.000	0.006	-0.204
-108.005	800.000	0.030	-0.115
-106.991	-32.947	-0.148	0.081
-105.976	800.000	0.099	0.317
-104.962	-200.000	-0.032	0.216
-103.947	632.050	-0.101	0.251
-102.932	-164.905	-0.115	-0.005
-101.918	-37.536	0.305	0.159
-100.903	109.598	-0.298	-0.350
-99.889	61.839	0.143	-0.140
-98.874	13.004	0.172	-0.130
-97.859	-1.026	0.399	-0.277
-96.845	-200.000	-0.001	-0.123
-95.830	-96.413	-0.120	0.031
-94.816	-131.306	0.210	-0.027
-93.801	421.205	0.060	-0.125
-92.786	242.339	-0.040	0.066
-91.772	-2.098	-0.171	-0.118
-90.757	460.366	-0.095	-0.207
-89.743	0.533	0.216	-0.151
-88.728	-145.360	0.243	-0.022
-87.713	18.815	-0.126	0.099
-86.699	-64.384	0.085	0.034
-85.684	378.788	0.102	0.204
-84.670	-36.921	-0.069	-0.036
-83.655	-4.765	0.196	-0.133
-82.640	800.000	0.053	0.145
-81.626	-87.143	0.363	-0.108
-80.611	20.836	0.241	-0.191
-79.597	-99.304	0.304	-0.075
-78.582	63.970	0.176	0.173
-77.567	-80.621	-0.112	-0.036
-76.553	800.000	-0.015	-0.044
-75.538	175.752	0.130	-0.185
-74.524	-40.557	0.094	0.048
-73.509	-200.000	-0.022	0.320
-72.494	-79.929	0.258	0.085
-71.480	-32.473	-0.046	0.025
-70.465	-23.061	0.124	0.073
-69.451	-116.100	-0.368	0.067
-68.436	-200.000	0.024	0.271
-67.422	-200.000	-0.004	-0.097
-66.407	-200.000	-0.045	-0.280
-65.392	800.000	-0.044	0.147
-64.378	402.644	0.117	-0.241
-63.363	-128.864	-0.294	-0.040
-62.349	38.114	0.268	-0.234
-61.334	3.868	-1.097	-0.785
-60.319	101.289	0.387	0.441
-59.305	800.000	-0.450	-1.230
-58.290	692.019	0.474	1.217
-57.276	275.935	0.883	1.535
-56.261	-200.000	111.094	604.512
-55.246	495.265	1530.847	3444.095
-54.232	173.185	2721.454	3841.923
-53.217	101.766	2306.636	2634.709
-52.203	37.373	1908.449	1656.608
-51.188	31.281	1696.087	1425.872
-50.173	28.791	1652.989	1371.031
-49.159	48.125	1709.519	1565.264
-48.144	47.917	1724.018	1576.893
-47.130	30.898	1680.003	1409.236
-46.115	28.168	1665.362	1376.392
-45.100	28.033	1660.230	1371.083
-44.086	27.975	1658.168	1368.896
-43.071	27.977	1655.422	1366.588
-42.057	27.947	1652.714	1364.071
-41.042	28.050	1650.434	1362.905
-40.027	28.043	1648.816	1361.461
-39.013	28.071	1646.499	1359.703
-37.998	27.954	1645.757	1358.171
-36.984	28.042	1643.724	1357.090
-35.969	28.133	1642.500	1356.697
-34.954	28.130	1640.771	1355.199
-33.940	28.113	1639.511	1353.972
-32.925	28.119	1637.912	1352.643
-31.911	28.097	1635.894	1350.766
-30.896	28.149	1634.239	1349.727
-29.881	28.080	1632.598	1347.809
-28.867	28.091	1630.771	1346.326
-27.852	28.017	1629.938	1345.042
-26.838	28.087	1627.880	1343.808
-25.823	28.173	1626.208	1343.005
-24.809	28.148	1625.150	1341.895
-23.794	28.077	1624.342	1340.653
-22.779	28.121	1622.760	1339.617
-21.765	28.179	1620.797	1338.364
-20.750	28.174	1619.301	1337.043
-19.736	28.269	1618.406	1336.944
-18.721	28.159	1616.803	1334.761
-17.706	28.166	1615.968	1334.073
-16.692	28.166	1613.896	1332.308
-15.677	28.251	1612.074	1331.365
-14.663	28.170	1611.449	1330.212
-13.648	28.169	1609.576	1328.606
-12.633	28.131	1608.197	1327.135
-11.619	28.133	1606.358	1325.584
-10.604	28.109	1605.205	1324.404
-9.590	28.154	1604.231	1323.873
-8.575	28.231	1602.970	1323.339
-7.560	28.136	1601.353	1321.261
-6.546	28.182	1600.402	1320.756
-5.531	28.114	1599.298	1319.308
-4.517	28.104	1597.861	1317.993
-3.502	28.218	1596.738	1317.838
-2.487	28.216	1595.303	1316.589
-1.473	28.091	1584.314	1306.571
-0.458	25.676	1565.346	1273.805
0.556	24.398	1568.135	1245.025
1.571	22.375	1592.773	1250.125
2.586	21.808	1605.715	1256.110
3.600	19.386	1550.776	1196.244
4.615	11.892	1441.793	1063.575
5.629	5.468	1380.474	978.188
6.644	4.300	1372.628	965.280
7.659	4.340	1371.555	964.689
8.673	4.377	1371.244	964.609
9.688	4.343	1368.866	962.641
10.702	4.359	1366.427	960.941
11.717	7.468	1372.123	984.166
12.731	15.298	1386.027	1042.932
13.746	21.259	1396.121	1087.664
14.761	22.516	1397.036	1096.112
15.775	21.851	1395.176	1090.421
16.790	20.988	1392.783	1083.096
17.804	20.146	1390.693	1076.150
18.819	19.921	1388.885	1073.264
19.834	19.845	1388.026	1072.028
20.848	19.852	1386.856	1071.074
21.863	19.547	1386.002	1068.437
22.877	19.360	1384.870	1066.314
23.892	19.445	1383.602	1065.766
24.907	19.350	1383.434	1064.952
25.921	19.362	1382.201	1063.988
26.936	19.333	1381.221	1062.959
27.950	19.373	1380.316	1062.411
28.965	19.508	1379.403	1062.448
29.980	19.569	1378.648	1062.149
30.994	19.760	1377.627	1062.439
32.009	19.808	1376.595	1061.844
33.023	19.853	1374.928	1060.742
34.038	19.602	1373.792	1058.233
35.053	19.637	1372.163	1057.098
36.067	19.596	1371.309	1056.095
37.082	19.569	1371.058	1055.646
38.096	19.732	1369.650	1055.462
39.111	19.733	1368.900	1054.798
40.126	19.524	1368.316	1052.981
41.140	19.214	1367.288	1050.209
42.155	19.184	1366.087	1049.010
43.169	19.000	1366.509	1048.120
44.184	19.058	1366.095	1048.060
45.199	19.078	1365.738	1047.814
46.213	19.224	1365.689	1048.574
47.228	19.470	1365.033	1049.477
48.242	19.482	1364.058	1048.703
49.257	19.335	1362.785	1046.739
50.271	19.520	1360.531	1046.039
51.286	19.453	1359.740	1044.932
52.301	19.517	1358.107	1043.971
53.315	19.383	1357.050	1042.256
54.330	19.265	1356.301	1040.879
55.344	19.122	1354.497	1038.540
56.359	19.203	1353.648	1038.281
57.374	19.141	1352.839	1037.196
58.388	18.983	1352.200	1035.664
59.403	19.012	1351.474	1035.194
60.417	18.992	1350.665	1034.360
61.432	18.960	1350.043	1033.599
62.447	18.821	1348.959	1031.845
63.461	18.834	1347.574	1030.770
64.476	18.712	1346.685	1029.268
65.490	18.840	1345.469	1029.013
66.505	18.909	1343.469	1027.804
67.520	18.810	1342.671	1026.513
68.534	18.845	1341.858	1026.011
69.549	18.913	1341.011	1025.680
70.563	18.699	1339.740	1023.341
71.578	18.674	1338.322	1022.016
72.593	18.608	1337.391	1020.825
73.607	18.529	1336.780	1019.796
74.622	18.584	1336.199	1019.590
75.636	18.668	1335.323	1019.331
76.651	18.717	1334.687	1019.044
77.666	18.738	1334.609	1019.021
78.680	18.815	1334.161	1019.045
79.695	18.847	1333.696	1018.787
80.709	19.081	1332.399	1019.095
81.724	19.058	1332.209	1018.724
82.739	19.284	1330.514	1018.669
83.753	19.361	1330.440	1018.980
84.768	19.586	1329.641	1019.608
85.782	19.689	1328.715	1019.412
86.797	19.558	1327.266	1017.437
87.812	19.428	1326.046	1015.649
88.826	19.504	1324.883	1015.112
89.841	19.546	1324.163	1014.720
90.855	19.661	1322.984	1014.403
91.870	19.705	1322.137	1013.922
92.884	19.694	1321.477	1013.262
93.899	19.713	1320.891	1012.833
94.914	19.856	1319.926	1012.843
95.928	19.866	1318.787	1011.935
96.943	19.754	1317.693	1010.352
97.957	19.609	1317.172	1009.017
98.972	19.625	1316.191	1008.272
99.987	19.768	1314.771	1007.928
101.001	19.710	1313.855	1006.798
102.016	19.581	1313.094	1005.371
103.030	19.700	1312.179	1005.278
104.045	19.584	1311.955	1004.344
105.060	19.456	1310.308	1002.248
106.074	19.181	1308.318	999.040
107.089	18.954	1306.970	996.607
108.103	18.775	1305.922	994.685
109.118	18.859	1304.583	994.062
110.133	18.876	1302.837	992.742
111.147	18.875	1301.735	991.811
112.162	19.030	1300.318	991.535
113.176	19.062	1299.535	991.034
114.191	19.104	1299.181	990.921
115.206	18.992	1297.674	989.037
116.220	19.009	1296.616	988.243
117.235	19.051	1295.361	987.440
118.249	18.844	1294.432	985.459
119.264	18.832	1293.121	984.301
120.279	18.878	1291.551	983.285
121.293	18.923	1290.053	982.312
122.308	18.773	1289.083	980.631
123.322	18.578	1288.415	978.922
124.337	18.658	1287.598	978.674
125.352	18.603	1286.594	977.509
126.366	18.601	1285.192	976.345
127.381	18.636	1283.872	975.456
128.395	18.587	1283.323	974.674
129.410	18.695	1282.240	974.381
130.424	18.733	1281.784	974.161
131.439	18.937	1280.601	974.335
132.454	18.971	1280.117	974.069
133.468	18.904	1279.274	972.965
134.483	19.064	1278.357	973.086
135.497	18.997	1277.477	971.950
136.512	18.978	1275.975	970.612
137.527	19.127	1274.788	970.467
138.541	19.145	1273.769	969.706
139.556	19.282	1272.138	969.151
140.570	19.297	1271.676	968.797
141.585	19.307	1270.460	967.840
142.600	19.477	1269.697	968.126
143.614	19.538	1268.668	967.595
144.629	19.588	1267.890	967.199
145.643	19.551	1266.436	965.797
146.658	19.320	1265.005	963.332
147.673	19.214	1263.558	961.549
148.687	19.120	1262.356	960.025
149.702	19.153	1260.369	958.617
150.716	19.064	1259.530	957.400
151.731	19.044	1258.557	956.463
152.746	19.023	1256.975	955.058
153.760	19.095	1256.199	954.781
154.775	19.132	1255.423	954.316
155.789	19.395	1254.223	954.774
156.804	19.341	1253.060	953.505
157.819	19.366	1252.390	953.049
158.833	19.520	1251.704	953.292
159.848	19.755	1250.576	953.645
160.862	19.644	1249.422	952.068
161.877	19.274	1248.360	949.141
162.892	19.124	1246.901	947.121
163.906	19.129	1246.331	946.634
164.921	19.169	1244.762	945.577
165.935	19.220	1244.535	945.602
166.950	19.260	1244.589	945.774
167.964	19.371	1243.036	945.122
168.979	19.283	1242.093	943.840
169.994	19.253	1241.973	943.499
171.008	19.302	1240.587	942.632
172.023	19.333	1240.321	942.513
173.037	19.602	1239.810	943.514
174.052	19.521	1238.664	942.117
175.067	19.220	1237.286	939.342
176.081	19.055	1236.362	937.658
177.096	19.097	1235.500	937.150
178.110	19.185	1234.337	936.662
179.125	19.171	1233.087	935.556
180.140	19.235	1232.110	935.082
181.154	19.437	1231.339	935.506
182.169	19.518	1230.301	935.077
183.183	19.606	1228.973	934.458
184.198	19.687	1227.838	933.953
185.213	19.594	1226.779	932.562
186.227	19.754	1225.752	932.560
187.242	19.831	1224.682	932.081
188.256	19.798	1224.275	931.511
189.271	19.879	1223.091	930.963
190.286	19.633	1221.755	928.542
191.300	19.137	1220.938	925.176
192.315	19.036	1220.142	923.945
193.329	19.148	1219.395	923.900
194.344	19.115	1219.270	923.547
195.359	19.282	1218.504	923.781
196.373	19.306	1217.693	923.213
197.388	19.545	1217.471	924.239
198.402	19.685	1217.151	924.666
199.417	19.903	1216.802	925.486
200.432	20.058	1215.948	925.582
201.446	20.058	1215.639	925.266
202.461	20.121	1214.764	924.852
203.475	20.225	1213.507	924.370
204.490	19.953	1211.913	921.621
205.504	19.785	1210.544	919.607
206.519	19.633	1209.192	917.691
207.534	19.519	1208.709	916.640
208.548	19.614	1207.393	916.067
209.563	19.617	1207.100	915.776
210.577	19.679	1205.815	915.046
211.592	19.774	1205.087	914.919
212.607	20.038	1204.363	915.683
213.621	20.007	1203.775	914.993
214.636	19.938	1202.531	913.600
215.650	19.965	1201.979	913.243
216.665	19.965	1201.421	912.737
217.680	20.228	1199.896	912.882
218.694	20.251	1199.603	912.701
219.709	20.229	1198.454	911.631
220.723	20.070	1197.716	910.156
221.738	20.117	1196.919	909.712
222.753	20.039	1196.616	908.991
223.767	20.116	1195.699	908.619
224.782	20.331	1195.182	909.271
225.796	20.329	1194.894	908.963
226.811	20.439	1193.280	908.232
227.826	20.108	1192.764	906.025
228.840	19.883	1192.088	904.254
229.855	19.949	1191.139	903.801
230.869	19.990	1190.428	903.394
231.884	20.084	1188.923	902.665
232.899	19.828	1188.335	900.806
233.913	19.797	1187.568	899.983
234.928	19.683	1187.209	899.038
235.942	19.702	1186.485	898.511
236.957	19.741	1185.045	897.543
237.972	19.716	1184.652	897.034
238.986	19.717	1184.152	896.584
240.001	19.761	1183.364	896.133
241.015	19.740	1182.694	895.437
242.030	19.896	1181.463	895.234
243.045	20.056	1180.690	895.397
244.059	20.090	1180.081	895.030
245.074	20.094	1179.251	894.345
246.088	20.183	1178.594	894.226
247.103	20.263	1178.047	894.142
248.117	20.380	1178.024	894.650
249.132	20.563	1177.033	894.756
250.147	20.799	1176.554	895.528
251.161	20.932	1176.147	895.824
252.176	20.915	1175.325	895.033
253.190	21.011	1175.012	895.207
254.205	21.222	1173.856	895.328
255.220	21.143	1173.589	894.639
256.234	21.028	1172.701	893.298
257.249	21.040	1171.960	892.711
258.263	21.052	1171.504	892.348
259.278	21.024	1170.730	891.538
260.293	21.106	1170.344	891.582
261.307	21.136	1169.617	891.105
262.322	21.186	1169.177	890.946
263.336	21.280	1168.226	890.622
264.351	21.250	1167.719	890.003
265.366	21.237	1167.379	889.600
266.380	21.138	1166.930	888.674
267.395	21.146	1165.719	887.711
268.409	20.907	1164.948	885.832
269.424	20.850	1164.583	885.186
270.439	20.913	1163.714	884.766
271.453	20.850	1162.806	883.679
272.468	20.768	1161.728	882.367
273.482	20.733	1161.291	881.781
274.497	20.723	1160.184	880.811
275.512	20.728	1159.911	880.549
276.526	20.804	1158.554	879.827
277.541	20.762	1158.151	879.232
278.555	20.950	1157.633	879.710
279.570	21.086	1157.118	879.924
280.585	21.373	1156.012	880.450
281.599	21.142	1155.235	878.618
282.614	20.987	1154.457	877.170
283.628	20.979	1152.519	875.577
284.643	20.950	1152.025	874.983
285.657	20.921	1151.380	874.266
286.672	21.012	1149.994	873.597
287.687	20.937	1149.606	872.849
288.701	21.085	1148.249	872.482
289.716	21.037	1147.542	871.626
290.730	20.941	1147.358	870.928
291.745	21.088	1146.207	870.710
292.760	21.136	1145.972	870.697
293.774	21.130	1145.495	870.225
294.789	21.360	1144.760	870.736
295.803	21.410	1144.132	870.431
296.818	20.934	1143.612	867.588
297.833	21.096	1142.455	867.440
298.847	20.898	1142.172	866.166
299.862	21.015	1141.101	865.859
300.876	21.091	1140.365	865.600
301.891	21.199	1140.031	865.804
302.906	21.433	1139.230	866.277
303.920	21.502	1138.722	866.156
304.935	21.504	1138.504	865.923
305.949	21.558	1137.999	865.731
306.964	21.585	1137.368	865.311
307.979	21.452	1135.740	863.336
308.993	21.376	1135.430	862.649
310.008	21.552	1134.636	862.838
311.022	21.550	1133.946	862.227
312.037	21.572	1132.994	861.535
313.052	21.305	1132.188	859.532
314.066	21.210	1131.247	858.277
315.081	20.962	1130.246	856.221
316.095	21.018	1129.368	855.756
317.110	20.908	1128.593	854.552
318.125	21.101	1127.728	854.769
319.139	21.093	1126.962	854.073
320.154	21.045	1126.567	853.464
321.168	21.070	1125.996	853.079
322.183	21.036	1125.033	852.107
323.197	21.189	1124.576	852.431
324.212	21.221	1123.985	852.066
325.227	21.189	1123.758	851.660
326.241	21.283	1122.885	851.380
327.256	21.218	1122.087	850.383
328.270	21.144	1121.045	849.159
329.285	21.154	1120.117	848.432
330.300	21.142	1119.007	847.457
331.314	21.214	1118.359	847.240
332.329	21.070	1117.780	846.029
333.343	21.242	1116.758	846.011
334.358	21.471	1116.070	846.527
335.373	21.415	1115.522	845.762
336.387	21.569	1114.570	845.710
337.402	21.521	1113.962	844.942
338.416	21.655	1113.428	845.108
339.431	21.618	1112.877	844.438
340.446	21.766	1112.197	844.561
341.460	21.903	1111.754	844.811
342.475	21.981	1111.091	844.606
343.489	22.037	1109.901	843.896
344.504	22.216	1109.203	844.150
345.519	22.149	1108.347	843.103
346.533	22.216	1107.842	842.967
347.548	22.184	1107.174	842.231
348.562	22.181	1106.007	841.251
349.577	21.943	1105.018	839.288
350.592	21.690	1104.256	837.427
351.606	21.589	1103.503	836.298
352.621	21.530	1102.473	835.164
353.635	21.407	1102.195	834.293
354.650	21.572	1101.098	834.173
355.665	21.622	1100.269	833.712
356.679	21.692	1100.130	833.865
357.694	21.750	1099.529	833.611
358.708	21.912	1098.977	833.887
359.723	21.920	1098.346	833.373
360.738	21.905	1097.420	832.526
361.752	21.889	1096.885	831.968
362.767	21.954	1096.278	831.745
363.781	22.007	1095.816	831.572
364.796	22.114	1095.472	831.745
365.810	22.356	1095.003	832.458
366.825	22.306	1094.327	831.633
367.840	22.405	1094.156	831.897
368.854	22.537	1093.832	832.202
369.869	22.573	1092.843	831.544
370.883	22.379	1091.549	829.573
371.898	22.292	1090.603	828.371
372.913	22.322	1090.477	828.344
373.927	22.273	1089.905	827.606
374.942	22.470	1089.768	828.355
375.956	22.357	1088.915	827.104
376.971	22.381	1088.196	826.597
377.986	22.389	1087.987	826.400
379.000	22.496	1087.341	826.337
380.015	22.663	1086.542	826.440
381.029	22.655	1086.295	826.145
382.044	22.515	1085.627	824.904
383.059	22.652	1084.633	824.720
384.073	22.548	1084.047	823.715
385.088	22.655	1082.728	823.139
386.102	22.706	1081.594	822.440
387.117	22.534	1080.480	820.719
388.132	22.323	1079.592	818.992
389.146	22.279	1079.061	818.311
390.161	22.196	1078.250	817.240
391.175	22.272	1077.774	817.157
392.190	22.353	1077.261	817.072
393.205	22.543	1076.399	817.228
394.219	22.576	1075.023	816.266
395.234	22.444	1074.530	815.205
396.248	22.371	1073.132	813.735
397.263	22.237	1072.668	812.693
398.278	22.170	1071.481	811.411
399.292	22.098	1070.981	810.629
400.307	22.074	1070.134	809.805
401.321	22.055	1069.577	809.224
402.336	22.096	1069.001	808.906
403.350	22.093	1068.245	808.250
404.365	22.155	1067.562	807.947
405.380	22.353	1066.930	808.306
406.394	22.427	1066.402	808.177
407.409	22.536	1065.793	808.144
408.423	22.672	1065.168	808.221
409.438	22.695	1064.671	807.877
410.453	22.785	1063.895	807.629
411.467	22.853	1063.315	807.428
412.482	22.931	1062.934	807.422
413.496	22.964	1062.159	806.915
414.511	23.116	1061.575	807.094
415.526	23.100	1061.496	806.887
416.540	23.134	1061.020	806.610
417.555	23.239	1059.951	806.202
418.569	23.112	1059.624	805.307
419.584	23.199	1058.494	804.771
420.599	23.081	1058.242	803.971
421.613	156.988	1403.289	1795.728
422.628	144.318	1453.511	1795.839
