DTS Sentinel unit serial number:	SN413079Multiplexer serial number:	ORYXHardware model number:	OX4-SRSoftware version number:	ORYX F/W v4.00 Oryx Data Collector v3.7.2.0data status	okinstallation	princeton_trtdifferential loss correction	single-endedforward channel	channel 2reverse channel	N/Adate	2019/09/18time	16:07:35forward acquisition time	60.00reverse acquisition time	0.00gamma	496.2192k internal	0.2304k external	0.2304temperature offset calibration	1.0001default loss term (dB/km)	0.3790temperature slope calibration	1.0000multiplexer offset coefficient	1.0000multiplexer slope coefficient	1.0000fibre end	0.00T internal ref (°C)	37.86T ext. ref 1 (°C)	0.81T ext. ref 2 (°C)	37.02length (m)	temperature (°C)	Stokes	anti-Stokes-747.200	145.184	0.175	0.239
-746.185	-174.701	-0.143	-0.004
-745.171	-76.555	-0.138	-0.049
-744.156	-200.000	0.029	0.175
-743.142	-200.000	-0.056	0.390
-742.127	243.169	0.123	0.210
-741.112	61.703	-0.138	-0.140
-740.098	800.000	0.047	0.138
-739.083	800.000	0.072	0.252
-738.069	800.000	-0.104	0.355
-737.054	583.293	-0.118	-0.294
-736.039	-200.000	0.019	-0.642
-735.025	29.036	0.332	-0.287
-734.010	119.522	0.073	-0.092
-732.996	537.896	0.099	-0.239
-731.981	800.000	-0.041	-0.163
-730.966	214.791	0.108	-0.174
-729.952	-16.690	-0.140	-0.090
-728.937	60.604	-0.263	-0.265
-727.923	-200.000	-0.041	-0.197
-726.908	56.725	-0.325	0.322
-725.894	-0.234	-0.116	-0.084
-724.879	-12.990	-0.197	0.131
-723.864	-0.636	-0.174	-0.126
-722.850	-200.000	-0.015	0.173
-721.835	-97.920	-0.115	-0.030
-720.821	800.000	0.038	-0.148
-719.806	55.886	-0.131	0.129
-718.791	-35.774	-0.061	0.033
-717.777	2.376	-0.283	0.208
-716.762	-80.676	0.265	0.090
-715.748	71.688	-0.246	-0.260
-714.733	-57.033	0.260	-0.116
-713.718	-117.248	-0.305	-0.056
-712.704	800.000	-0.097	-0.295
-711.689	-135.543	0.053	0.006
-710.675	-118.024	-0.388	-0.071
-709.660	-23.099	0.158	-0.097
-708.645	-200.000	0.078	-0.377
-707.631	-84.204	0.161	-0.052
-706.616	800.000	-0.057	-0.243
-705.602	-47.312	0.310	0.153
-704.587	49.694	-0.389	0.373
-703.572	275.045	-0.174	0.314
-702.558	268.131	0.128	0.228
-701.543	392.653	-0.101	-0.214
-700.529	426.925	-0.088	-0.193
-699.514	800.000	-0.105	0.337
-698.499	123.447	-0.185	0.235
-697.485	-18.548	-0.247	-0.157
-696.470	62.619	0.214	0.218
-695.456	-30.792	0.101	0.058
-694.441	-79.503	-0.268	-0.092
-693.426	-200.000	-0.003	0.441
-692.412	-200.000	0.013	-0.068
-691.397	50.608	0.102	-0.098
-690.383	49.907	-0.318	-0.305
-689.368	12.389	-0.173	-0.136
-688.354	-15.987	-0.183	0.118
-687.339	-47.208	-0.054	0.027
-686.324	-89.342	0.136	-0.041
-685.310	-200.000	-0.050	-0.226
-684.295	-20.946	-0.150	0.093
-683.281	-20.506	0.059	0.037
-682.266	-86.186	0.270	0.085
-681.251	800.000	0.056	0.228
-680.237	326.832	-0.149	-0.289
-679.222	110.521	-0.064	-0.078
-678.208	-110.467	-0.110	0.023
-677.193	277.102	-0.141	0.255
-676.178	24.105	-0.147	0.123
-675.164	-25.731	-0.213	0.128
-674.149	-87.257	0.386	-0.119
-673.135	-91.776	0.229	-0.066
-672.120	-200.000	-0.016	0.257
-671.105	96.408	-0.067	-0.078
-670.091	-200.000	0.016	0.139
-669.076	-142.830	-0.202	0.020
-668.062	-99.252	0.042	-0.011
-667.047	15.115	0.162	-0.129
-666.032	-200.000	0.031	-0.220
-665.018	-200.000	-0.012	0.062
-664.003	133.658	-0.070	0.092
-662.989	800.000	0.131	0.388
-661.974	-200.000	-0.024	0.195
-660.959	499.036	0.125	-0.293
-659.945	100.478	-0.213	0.251
-658.930	-6.381	0.190	-0.131
-657.916	76.528	0.260	-0.280
-656.901	-90.199	0.293	-0.086
-655.886	481.519	0.092	-0.212
-654.872	120.725	0.169	-0.214
-653.857	-200.000	0.028	-0.325
-652.843	-200.000	0.033	-0.187
-651.828	-154.542	-0.169	-0.011
-650.814	-63.855	-0.061	0.025
-649.799	-113.576	0.212	-0.042
-648.784	-19.680	-0.036	0.022
-647.770	622.237	0.133	-0.340
-646.755	-69.547	-0.378	-0.147
-645.741	-80.757	-0.338	0.114
-644.726	800.000	0.056	-0.194
-643.711	-179.082	-0.287	0.007
-642.697	-7.186	-0.151	0.104
-641.682	165.701	0.140	-0.201
-640.668	-79.656	0.163	0.056
-639.653	-101.989	-0.185	-0.045
-638.638	148.933	0.206	0.283
-637.624	-22.685	-0.142	0.087
-636.609	440.465	0.060	0.134
-635.595	800.000	0.059	-0.191
-634.580	14.929	0.477	-0.379
-633.565	-200.000	0.286	0.000
-632.551	506.399	-0.065	-0.152
-631.536	61.506	0.195	-0.197
-630.522	105.480	-0.156	0.187
-629.507	145.955	-0.292	-0.397
-628.492	290.440	0.109	-0.201
-627.478	-2.134	0.201	-0.143
-626.463	175.650	0.036	-0.054
-625.449	800.000	-0.115	-0.376
-624.434	249.522	-0.083	0.142
-623.419	-117.174	0.280	0.052
-622.405	-200.000	-0.026	-0.181
-621.390	-133.896	-0.230	0.029
-620.376	-127.100	0.183	-0.027
-619.361	313.293	0.057	-0.109
-618.346	-104.039	0.278	0.066
-617.332	800.000	0.023	0.068
-616.317	182.443	0.172	0.257
-615.303	622.445	-0.088	-0.225
-614.288	-85.687	-0.273	0.086
-613.273	-10.789	-0.136	-0.091
-612.259	-101.001	0.162	0.040
-611.244	185.281	-0.102	-0.153
-610.230	43.953	-0.224	-0.208
-609.215	-185.704	0.312	-0.005
-608.201	-47.835	0.291	0.143
-607.186	38.152	-0.178	-0.160
-606.171	-97.501	0.246	0.065
-605.157	-200.000	-0.011	-0.134
-604.142	800.000	-0.032	-0.118
-603.128	24.916	0.104	0.088
-602.113	-77.111	-0.232	0.082
-601.098	-53.277	0.144	-0.067
-600.084	-90.490	0.239	0.070
-599.069	800.000	-0.099	0.352
-598.055	-200.000	-0.307	0.002
-597.040	-178.560	0.146	0.003
-596.025	218.034	-0.093	-0.150
-595.011	-96.522	0.200	0.054
-593.996	-183.519	-0.151	-0.003
-592.982	-175.392	-0.075	0.002
-591.967	149.198	0.084	-0.115
-590.952	257.087	0.152	-0.264
-589.938	60.606	0.295	-0.296
-588.923	-58.833	-0.191	0.084
-587.909	-36.188	0.294	-0.160
-586.894	-21.607	-0.152	0.094
-585.879	-69.467	-0.255	-0.099
-584.865	800.000	-0.028	0.104
-583.850	84.638	-0.307	0.340
-582.836	-200.000	-0.015	0.221
-581.821	800.000	0.117	-0.358
-580.806	800.000	-0.110	0.318
-579.792	661.268	0.107	0.278
-578.777	-197.298	0.163	-0.001
-577.763	-125.124	-0.240	-0.037
-576.748	56.892	0.112	-0.110
-575.733	100.332	-0.251	0.294
-574.719	-44.324	0.316	-0.160
-573.704	-74.385	0.110	0.040
-572.690	84.696	-0.064	0.071
-571.675	406.177	0.107	0.228
-570.661	-100.553	0.227	-0.057
-569.646	-200.000	0.053	0.327
-568.631	198.130	-0.109	-0.169
-567.617	-116.997	-0.325	0.060
-566.602	208.808	-0.085	-0.135
-565.588	-90.426	0.001	-0.000
-564.573	-200.000	-0.014	0.224
-563.558	-63.609	-0.273	-0.113
-562.544	-100.017	0.122	-0.031
-561.529	483.819	0.119	0.274
-560.515	-4.395	0.024	-0.016
-559.500	-104.769	-0.376	-0.087
-558.485	-67.556	-0.280	-0.111
-557.471	-14.993	0.309	0.200
-556.456	-33.702	0.080	-0.045
-555.442	800.000	0.044	0.137
-554.427	267.942	0.065	-0.115
-553.412	-120.332	0.254	0.044
-552.398	785.123	0.130	0.362
-551.383	-22.175	-0.238	-0.146
-550.369	490.765	0.078	-0.181
-549.354	-103.366	0.185	-0.044
-548.339	43.738	-0.186	-0.173
-547.325	800.000	0.064	-0.265
-546.310	483.375	0.112	-0.258
-545.296	-91.061	0.315	-0.091
-544.281	-200.000	-0.014	-0.116
-543.266	800.000	0.041	-0.145
-542.252	-114.990	0.086	0.016
-541.237	-43.857	0.110	-0.056
-540.223	-200.000	-0.044	0.356
-539.208	-200.000	0.208	0.001
-538.193	-102.284	0.094	0.023
-537.179	-9.597	0.134	0.090
-536.164	-135.377	-0.157	-0.019
-535.150	548.667	-0.136	-0.329
-534.135	-98.775	0.257	0.066
-533.121	-138.363	-0.285	0.032
-532.106	-101.269	0.121	0.030
-531.091	-25.250	-0.192	0.115
-530.077	380.467	0.047	-0.097
-529.062	-52.582	-0.200	0.093
-528.048	59.233	0.177	0.176
-527.033	-29.456	-0.279	0.161
-526.018	-85.312	-0.186	0.059
-525.004	-57.080	0.245	0.109
-523.989	-80.566	0.200	-0.067
-522.975	178.342	0.233	0.343
-521.960	327.456	-0.148	-0.286
-520.945	127.098	-0.122	0.157
-519.931	-88.990	-0.187	0.056
-518.916	25.221	0.225	-0.189
-517.902	42.441	0.086	0.079
-516.887	-200.000	0.028	-0.323
-515.872	40.273	0.248	-0.225
-514.858	-149.459	-0.401	0.032
-513.843	-200.000	-0.025	-0.138
-512.829	-139.777	-0.144	-0.015
-511.814	449.268	-0.152	0.338
-510.799	38.361	-0.208	0.187
-509.785	-200.000	-0.014	-0.073
-508.770	-9.199	-0.021	-0.015
-507.756	-161.841	0.481	0.025
-506.741	86.130	-0.259	-0.288
-505.726	-0.485	0.133	0.095
-504.712	-200.000	0.057	-0.439
-503.697	-200.000	-0.113	-0.506
-502.683	-200.000	0.008	-0.163
-501.668	-109.638	0.081	-0.017
-500.653	-3.154	-0.339	-0.239
-499.639	-109.242	0.247	0.053
-498.624	-58.648	0.104	0.045
-497.610	-42.357	0.318	-0.163
-496.595	-200.000	0.002	-0.126
-495.581	-200.000	-0.012	0.088
-494.566	-200.000	0.018	0.199
-493.551	-140.968	0.370	0.038
-492.537	-200.000	-0.002	-0.082
-491.522	-153.768	0.270	0.019
-490.508	-108.039	0.054	0.012
-489.493	718.697	0.052	0.139
-488.478	800.000	0.047	0.192
-487.464	-129.639	-0.386	-0.054
-486.449	-138.442	0.538	-0.060
-485.435	-28.031	-0.194	0.113
-484.420	-82.743	0.248	0.081
-483.405	-100.186	0.273	-0.068
-482.391	-200.000	0.020	0.197
-481.376	414.484	0.077	-0.164
-480.362	-200.000	-0.007	0.031
-479.347	-200.000	-0.024	-0.224
-478.332	475.925	-0.059	0.133
-477.318	72.672	-0.166	-0.175
-476.303	-200.000	0.060	-0.363
-475.289	-165.387	0.299	-0.013
-474.274	-36.800	0.240	-0.130
-473.259	800.000	0.046	0.174
-472.245	-11.975	0.140	-0.093
-471.230	800.000	-0.038	-0.123
-470.216	-200.000	0.051	0.231
-469.201	-100.555	0.223	-0.055
-468.186	787.004	0.093	0.258
-467.172	55.975	-0.402	0.393
-466.157	-137.177	0.053	0.006
-465.143	-51.291	0.304	0.143
-464.128	-200.000	0.044	-0.370
-463.113	-132.249	0.097	0.013
-462.099	800.000	0.120	-0.391
-461.084	-85.021	-0.160	0.051
-460.070	-29.862	0.124	-0.071
-459.055	-96.394	-0.169	0.045
-458.040	308.016	-0.135	0.254
-457.026	-200.000	-0.026	-0.195
-456.011	-79.354	-0.283	-0.097
-454.997	-200.000	-0.038	0.281
-453.982	-119.078	-0.225	0.040
-452.968	30.356	0.053	-0.045
-451.953	-200.000	-0.021	0.135
-450.938	87.544	0.140	-0.156
-449.924	800.000	0.025	-0.071
-448.909	-200.000	0.004	0.408
-447.895	592.613	-0.128	0.319
-446.880	-200.000	0.054	0.297
-445.865	-74.977	0.106	0.038
-444.851	21.319	-0.169	0.138
-443.836	-78.943	-0.381	-0.130
-442.822	800.000	0.016	0.070
-441.807	-53.983	0.170	0.078
-440.792	-22.176	0.081	-0.049
-439.778	-200.000	-0.001	-0.310
-438.763	65.261	0.095	0.097
-437.749	105.220	0.131	0.156
-436.734	-119.907	-0.140	-0.024
-435.719	60.229	-0.158	-0.157
-434.705	-200.000	-0.033	-0.150
-433.690	23.504	-0.157	0.130
-432.676	-200.000	-0.312	0.000
-431.661	-84.196	0.240	-0.077
-430.646	-72.080	0.098	-0.037
-429.632	-22.530	-0.312	0.190
-428.617	131.062	-0.172	0.222
-427.603	-39.984	-0.227	-0.119
-426.588	119.258	-0.141	-0.176
-425.573	-200.000	0.022	0.113
-424.559	264.494	-0.119	0.209
-423.544	6.208	-0.180	0.134
-422.530	169.633	-0.082	0.117
-421.515	-200.000	-0.053	-0.516
-420.500	-38.534	-0.178	-0.095
-419.486	64.458	-0.066	-0.066
-418.471	593.658	0.050	0.125
-417.457	61.146	-0.215	-0.214
-416.442	244.821	-0.189	-0.319
-415.428	35.652	0.190	-0.168
-414.413	82.616	-0.246	-0.269
-413.398	-89.083	0.355	-0.105
-412.384	121.543	0.066	0.082
-411.369	-46.232	0.511	0.253
-410.355	50.735	-0.213	0.202
-409.340	-96.048	-0.327	0.088
-408.325	-200.000	-0.025	-0.332
-407.311	-106.153	0.131	-0.029
-406.296	-63.807	-0.159	-0.065
-405.282	-65.254	0.112	0.045
-404.267	269.216	-0.066	0.116
-403.252	-200.000	0.013	-0.105
-402.238	6.138	-0.020	0.015
-401.223	161.027	-0.232	0.326
-400.209	800.000	-0.177	0.497
-399.194	-67.844	-0.174	-0.068
-398.179	10.713	0.143	0.110
-397.165	-11.788	0.098	0.065
-396.150	-200.000	-0.007	-0.083
-395.136	-200.000	0.012	0.336
-394.121	-58.594	-0.313	0.136
-393.106	268.176	0.043	-0.077
-392.092	-147.547	0.149	-0.013
-391.077	-75.810	0.245	0.087
-390.063	-122.134	0.119	0.020
-389.048	-78.712	-0.309	0.106
-388.033	187.388	-0.233	-0.349
-387.019	-140.130	0.248	-0.026
-386.004	-200.000	0.020	-0.187
-384.990	-89.367	-0.299	0.088
-383.975	-92.191	-0.252	0.071
-382.960	481.613	0.049	0.111
-381.946	186.915	-0.111	0.165
-380.931	-164.046	-0.138	0.006
-379.917	-0.113	-0.173	0.123
-378.902	43.565	-0.212	0.194
-377.888	240.925	0.046	0.077
-376.873	800.000	-0.077	0.309
-375.858	-200.000	0.091	-0.537
-374.844	-153.983	-0.124	0.008
-373.829	749.856	0.041	-0.110
-372.815	11.897	0.169	-0.130
-371.800	763.924	0.130	-0.355
-370.785	228.391	0.214	0.349
-369.771	-13.858	0.310	-0.201
-368.756	-165.154	-0.183	-0.008
-367.742	131.916	-0.236	0.305
-366.727	-200.000	-0.011	-0.054
-365.712	-200.000	-0.010	0.259
-364.698	-100.460	0.069	-0.017
-363.683	200.615	-0.095	0.146
-362.669	411.427	-0.161	0.342
-361.654	-200.000	0.031	0.176
-360.639	-37.669	0.176	-0.094
-359.625	311.246	0.094	-0.176
-358.610	800.000	-0.022	0.069
-357.596	-19.101	-0.145	0.091
-356.581	800.000	-0.026	-0.107
-355.566	169.851	-0.043	-0.062
-354.552	-174.998	0.338	-0.009
-353.537	27.305	-0.127	0.107
-352.523	-152.344	0.260	-0.019
-351.508	57.480	0.159	0.156
-350.493	-128.894	0.082	0.012
-349.479	100.534	0.062	0.073
-348.464	24.371	-0.364	0.302
-347.450	65.033	0.072	-0.073
-346.435	-143.936	0.275	0.026
-345.420	201.580	-0.167	-0.257
-344.406	-200.000	-0.004	0.278
-343.391	180.285	-0.158	0.232
-342.377	101.026	-0.046	-0.054
-341.362	-4.924	0.083	0.058
-340.348	-200.000	0.002	-0.268
-339.333	800.000	-0.013	0.040
-338.318	-147.512	0.093	0.008
-337.304	-200.000	-0.042	-0.242
-336.289	800.000	-0.078	-0.337
-335.275	-102.554	0.261	0.063
-334.260	380.332	-0.202	-0.415
-333.245	580.476	0.068	0.167
-332.231	171.229	0.090	-0.129
-331.216	70.237	0.191	0.198
-330.202	-25.874	0.201	-0.119
-329.187	313.037	0.159	0.300
-328.172	2.637	0.142	-0.103
-327.158	197.403	0.144	-0.220
-326.143	-169.666	0.240	-0.009
-325.129	-46.970	0.403	-0.197
-324.114	164.007	0.095	0.135
-323.099	-200.000	0.015	0.086
-322.085	298.059	-0.086	-0.158
-321.070	-86.453	0.364	0.112
-320.056	-82.543	-0.201	0.065
-319.041	800.000	-0.057	0.229
-318.026	372.936	-0.080	0.163
-317.012	83.458	-0.202	-0.221
-315.997	24.361	0.063	0.052
-314.983	-96.676	-0.335	-0.088
-313.968	-18.171	-0.263	0.165
-312.953	-200.000	-0.008	-0.104
-311.939	-43.329	-0.077	-0.039
-310.924	-21.614	-0.255	0.156
-309.910	800.000	0.054	-0.160
-308.895	-43.393	-0.046	-0.023
-307.880	-200.000	0.002	-0.178
-306.866	50.207	0.176	0.167
-305.851	-83.059	-0.324	-0.105
-304.837	378.183	0.064	-0.131
-303.822	38.657	-0.188	-0.168
-302.807	400.159	0.070	0.146
-301.793	-196.726	-0.218	-0.001
-300.778	-109.100	0.117	-0.025
-299.764	-119.090	-0.341	-0.060
-298.749	800.000	0.047	0.162
-297.735	-147.577	0.226	0.019
-296.720	1.622	-0.492	0.354
-295.705	-126.853	-0.288	-0.043
-294.691	-17.402	0.080	-0.050
-293.676	-92.409	0.141	-0.040
-292.662	-73.215	-0.077	-0.028
-291.647	759.597	0.051	0.138
-290.632	117.683	0.156	-0.193
-289.618	33.302	0.207	-0.180
-288.603	-2.464	-0.167	-0.117
-287.589	136.247	0.167	0.217
-286.574	5.345	-0.155	-0.114
-285.559	15.652	0.201	0.158
-284.545	800.000	0.100	-0.393
-283.530	6.793	-0.121	-0.090
-282.516	-200.000	-0.018	0.083
-281.501	170.896	-0.184	-0.264
-280.486	-154.164	-0.026	0.002
-279.472	241.029	-0.112	0.188
-278.457	382.020	-0.118	-0.243
-277.443	-46.868	0.152	0.074
-276.428	209.456	-0.136	0.214
-275.413	-19.220	-0.172	-0.107
-274.399	-91.415	0.275	-0.079
-273.384	163.425	-0.140	0.197
-272.370	-200.000	-0.016	0.120
-271.355	800.000	-0.131	-0.434
-270.340	-200.000	-0.017	0.292
-269.326	47.319	0.070	-0.065
-268.311	-200.000	0.082	0.397
-267.297	-151.900	0.280	0.021
-266.282	169.902	0.222	-0.317
-265.267	85.172	-0.239	0.262
-264.253	218.930	-0.120	-0.191
-263.238	-138.805	0.360	-0.039
-262.224	-200.000	0.002	-0.319
-261.209	-69.678	0.185	-0.071
-260.195	-200.000	-0.009	0.187
-259.180	-200.000	-0.012	-0.121
-258.165	-98.336	0.572	0.147
-257.151	-49.484	0.188	-0.090
-256.136	-179.257	-0.207	0.005
-255.122	40.837	-0.369	0.333
-254.107	-200.000	-0.004	-0.267
-253.092	-7.756	-0.257	-0.174
-252.078	-128.230	-0.273	0.039
-251.063	-74.679	0.198	0.071
-250.049	-110.530	0.120	0.025
-249.034	63.545	-0.195	0.196
-248.019	-16.009	0.285	0.181
-247.005	103.227	0.184	0.216
-245.990	800.000	0.156	-0.501
-244.976	-143.508	0.351	0.033
-243.961	-38.492	-0.264	-0.139
-242.946	73.333	0.297	-0.310
-241.932	-200.000	0.032	0.147
-240.917	239.579	-0.059	-0.099
-239.903	-110.077	-0.215	0.045
-238.888	-76.445	0.200	0.070
-237.873	-162.051	0.413	-0.021
-236.859	-40.209	-0.130	0.067
-235.844	-92.559	0.337	-0.094
-234.830	-90.522	-0.069	-0.020
-233.815	94.225	-0.289	0.328
-232.800	-200.000	-0.004	0.135
-231.786	-200.000	0.001	0.137
-230.771	800.000	0.060	-0.224
-229.757	795.698	-0.151	0.416
-228.742	-200.000	-0.028	-0.226
-227.727	-105.041	-0.436	-0.100
-226.713	-200.000	0.051	0.229
-225.698	14.018	0.105	-0.081
-224.684	77.469	0.217	-0.231
-223.669	-98.701	-0.110	0.028
-222.655	-131.666	0.300	-0.039
-221.640	800.000	0.042	0.153
-220.625	635.215	0.087	-0.220
-219.611	-46.976	-0.469	-0.229
-218.596	-108.903	0.170	-0.036
-217.582	-200.000	0.027	0.158
-216.567	8.864	-0.131	-0.098
-215.552	-53.419	-0.190	-0.087
-214.538	146.022	0.140	-0.187
-213.523	387.080	-0.147	-0.302
-212.509	52.727	-0.245	-0.233
-211.494	800.000	-0.052	0.224
-210.479	133.262	0.059	0.076
-209.465	800.000	0.010	-0.041
-208.450	-79.853	-0.129	-0.043
-207.436	-37.270	0.227	-0.121
-206.421	31.506	-0.089	0.076
-205.406	-17.923	-0.228	0.143
-204.392	-200.000	0.007	-0.126
-203.377	705.129	0.135	-0.355
-202.363	-1.373	-0.078	0.055
-201.348	-20.304	-0.257	0.158
-200.333	-200.000	0.022	0.140
-199.319	-200.000	0.042	0.229
-198.304	142.116	0.267	0.353
-197.290	-62.917	0.318	0.131
-196.275	497.081	-0.066	0.152
-195.260	-106.836	-0.173	0.038
-194.246	-75.196	0.123	0.044
-193.231	-200.000	-0.008	-0.103
-192.217	-151.120	-0.257	-0.019
-191.202	-70.202	0.179	0.068
-190.187	463.901	-0.128	0.284
-189.173	-200.000	0.031	0.158
-188.158	-200.000	0.026	0.250
-187.144	-168.001	0.209	0.008
-186.129	-119.439	-0.154	0.027
-185.114	13.579	-0.176	-0.136
-184.100	800.000	0.074	0.233
-183.085	22.862	-0.345	0.282
-182.071	-200.000	0.021	-0.341
-181.056	151.966	-0.232	0.315
-180.042	84.305	0.071	-0.077
-179.027	-67.077	-0.196	0.077
-178.012	56.608	-0.158	0.153
-176.998	542.254	-0.140	0.332
-175.983	-200.000	-0.087	-0.387
-174.969	321.048	-0.152	-0.288
-173.954	-8.291	-0.230	-0.154
-172.939	123.452	0.231	-0.288
-171.925	168.516	-0.232	-0.329
-170.910	112.492	0.191	0.230
-169.896	-200.000	-0.074	0.571
-168.881	5.086	-0.150	-0.110
-167.866	-36.168	-0.274	0.147
-166.852	-134.649	0.059	0.007
-165.837	-109.831	0.272	-0.057
-164.823	1.332	0.220	0.158
-163.808	-147.822	0.141	0.012
-162.793	-126.997	0.287	-0.042
-161.779	800.000	0.063	0.252
-160.764	800.000	-0.087	0.309
-159.750	77.682	-0.275	0.291
-158.735	-111.801	0.180	-0.036
-157.720	-200.000	-0.001	-0.451
-156.706	239.237	0.153	-0.253
-155.691	-13.784	0.094	-0.061
-154.677	-166.976	-0.386	-0.016
-153.662	-9.070	0.326	0.217
-152.647	702.542	-0.098	0.258
-151.633	-40.628	-0.146	0.075
-150.618	212.865	-0.113	-0.177
-149.604	-200.000	-0.022	0.154
-148.589	-200.000	-0.001	-0.091
-147.574	172.048	0.082	0.118
-146.560	46.621	-0.099	-0.092
-145.545	-57.224	-0.257	0.113
-144.531	611.224	-0.047	-0.116
-143.516	800.000	-0.095	0.304
-142.502	52.854	-0.052	-0.050
-141.487	-200.000	-0.046	-0.252
-140.472	-40.568	-0.068	-0.035
-139.458	-56.838	0.230	-0.101
-138.443	114.254	0.099	-0.120
-137.429	-0.432	-0.223	0.157
-136.414	-74.491	-0.047	0.017
-135.399	748.318	0.117	0.314
-134.385	114.042	-0.320	0.387
-133.370	800.000	0.076	0.277
-132.356	78.184	0.095	-0.101
-131.341	800.000	0.057	0.159
-130.326	-193.330	0.188	0.002
-129.312	-172.086	0.112	0.004
-128.297	-40.031	0.404	0.210
-127.283	156.157	0.063	0.087
-126.268	-55.821	0.136	0.061
-125.253	800.000	-0.025	0.104
-124.239	-80.875	-0.045	0.015
-123.224	-200.000	-0.018	0.162
-122.210	69.652	-0.239	0.245
-121.195	344.155	0.209	-0.407
-120.180	-71.114	0.287	-0.107
-119.166	800.000	0.084	-0.271
-118.151	-10.803	0.184	-0.121
-117.137	-83.963	0.203	-0.064
-116.122	800.000	-0.067	-0.206
-115.107	-30.468	-0.237	0.133
-114.093	621.662	0.029	-0.073
-113.078	-76.087	0.172	-0.060
-112.064	-200.000	0.004	-0.193
-111.049	-127.070	-0.240	-0.035
-110.034	651.062	-0.166	0.423
-109.020	78.753	-0.077	0.081
-108.005	-64.932	0.389	0.156
-106.991	800.000	0.030	-0.104
-105.976	-33.200	-0.323	-0.178
-104.962	288.261	0.156	0.280
-103.947	22.245	0.093	-0.075
-102.932	-174.196	0.173	-0.005
-101.918	330.045	-0.051	0.098
-100.903	-146.217	0.246	-0.021
-99.889	800.000	-0.083	-0.303
-98.874	9.081	0.046	-0.035
-97.859	-43.836	-0.081	-0.041
-96.845	-200.000	0.016	-0.304
-95.830	135.479	0.039	0.051
-94.816	22.591	-0.387	-0.314
-93.801	800.000	-0.087	-0.363
-92.786	141.778	-0.079	-0.104
-91.772	546.590	0.022	-0.053
-90.757	800.000	0.046	0.169
-89.743	-128.775	0.375	-0.053
-88.728	-5.223	-0.303	0.207
-87.713	-200.000	-0.003	-0.198
-86.699	800.000	0.060	-0.222
-85.684	-153.121	-0.294	0.020
-84.670	54.851	-0.133	0.127
-83.655	-114.929	0.272	-0.051
-82.640	71.252	-0.196	-0.202
-81.626	61.072	0.187	-0.185
-80.611	19.237	-0.274	0.218
-79.597	800.000	-0.014	0.058
-78.582	-161.533	-0.215	-0.011
-77.567	-200.000	0.009	-0.040
-76.553	-86.679	-0.176	0.053
-75.538	-200.000	0.001	-0.436
-74.524	171.378	0.056	0.080
-73.509	365.274	-0.035	-0.069
-72.494	-102.706	0.107	0.025
-71.480	288.014	0.091	0.163
-70.465	800.000	-0.110	0.397
-69.451	800.000	0.092	-0.368
-68.436	-81.596	-0.128	0.042
-67.422	-200.000	0.042	-0.204
-66.407	-200.000	0.033	0.170
-65.392	38.221	0.055	0.049
-64.378	800.000	0.063	-0.229
-63.363	711.543	-0.062	0.162
-62.349	-199.642	-0.169	-0.001
-61.334	38.044	-0.769	-0.678
-60.319	-200.000	0.066	0.323
-59.305	-200.000	-0.046	-0.627
-58.290	128.218	0.607	0.766
-57.276	800.000	0.476	1.482
-56.261	-200.000	80.940	490.872
-55.246	461.184	1380.975	3051.878
-54.232	141.997	2631.337	3458.642
-53.217	103.380	2388.838	2777.525
-52.203	46.396	1994.379	1833.142
-51.188	40.911	1776.714	1589.319
-50.173	38.248	1730.870	1527.470
-49.159	52.564	1769.729	1674.999
-48.144	56.307	1789.287	1723.009
-47.130	40.788	1750.127	1564.317
-46.115	37.878	1735.783	1528.659
-45.100	37.708	1730.928	1522.994
-44.086	37.762	1727.938	1520.724
-43.071	37.751	1725.120	1518.099
-42.057	37.653	1722.978	1515.394
-41.042	37.742	1720.910	1514.208
-40.027	37.698	1718.685	1511.843
-39.013	37.719	1716.917	1510.391
-37.998	37.698	1715.150	1508.613
-36.984	37.745	1713.757	1507.693
-35.969	37.879	1712.090	1507.206
-34.954	37.886	1710.429	1505.738
-33.940	37.901	1708.383	1503.990
-32.925	37.912	1707.013	1502.812
-31.911	37.918	1704.927	1500.961
-30.896	37.811	1703.724	1499.020
-29.881	37.855	1701.805	1497.608
-28.867	37.891	1699.760	1496.023
-27.852	37.883	1698.465	1494.767
-26.838	37.869	1696.955	1493.268
-25.823	37.852	1695.632	1491.914
-24.809	37.811	1694.262	1490.340
-23.794	37.900	1692.919	1489.780
-22.779	37.873	1691.673	1488.415
-21.765	37.858	1689.523	1486.349
-20.750	37.860	1687.882	1484.862
-19.736	37.872	1686.459	1483.642
-18.721	37.974	1684.837	1482.934
-17.706	37.874	1683.453	1480.894
-16.692	37.902	1681.561	1479.389
-15.677	37.802	1680.342	1477.496
-14.663	37.940	1678.769	1477.103
-13.648	37.857	1677.776	1475.539
-12.633	38.005	1675.532	1474.624
-11.619	37.919	1674.197	1472.741
-10.604	37.851	1673.114	1471.220
-9.590	37.840	1671.678	1469.815
-8.575	37.876	1669.914	1468.476
-7.560	37.846	1669.190	1467.559
-6.546	37.897	1667.645	1466.527
-5.531	37.903	1666.394	1465.408
-4.517	37.865	1665.390	1464.183
-3.502	37.841	1664.206	1462.905
-2.487	37.971	1662.806	1462.593
-1.473	38.291	1652.345	1455.717
-0.458	36.876	1634.111	1429.165
0.556	31.720	1633.051	1392.063
1.571	27.708	1654.114	1379.624
2.586	25.707	1666.256	1374.363
3.600	22.296	1610.732	1303.225
4.615	12.465	1491.871	1139.153
5.629	3.005	1419.216	1020.974
6.644	0.967	1408.700	999.872
7.659	0.829	1407.650	998.127
8.673	0.739	1406.879	996.895
9.688	0.685	1404.642	994.866
10.702	0.428	1402.054	991.259
11.717	4.093	1408.283	1019.735
12.731	12.829	1422.493	1087.811
13.746	17.725	1428.802	1124.916
14.761	17.421	1427.278	1121.618
15.775	16.662	1424.172	1114.082
16.790	15.638	1421.417	1105.100
17.804	14.740	1419.575	1097.670
18.819	14.461	1417.983	1094.510
19.834	14.131	1416.004	1090.721
20.848	13.759	1415.311	1087.655
21.863	13.625	1413.149	1085.016
22.877	13.398	1412.036	1082.583
23.892	13.289	1411.726	1081.535
24.907	13.303	1410.919	1080.912
25.921	13.416	1410.063	1080.903
26.936	13.448	1408.792	1080.037
27.950	13.450	1408.045	1079.383
28.965	13.524	1406.309	1078.441
29.980	13.553	1405.776	1078.125
30.994	13.558	1404.960	1077.436
32.009	13.593	1404.267	1077.038
33.023	13.663	1402.731	1076.219
34.038	13.607	1401.481	1074.801
35.053	13.590	1400.290	1073.679
36.067	13.536	1399.788	1072.853
37.082	13.690	1398.467	1072.744
38.096	13.560	1397.576	1071.125
39.111	13.534	1396.909	1070.348
40.126	13.508	1395.975	1069.369
41.140	13.492	1395.307	1068.663
42.155	13.392	1394.830	1067.553
43.169	13.425	1394.794	1067.645
44.184	13.386	1394.197	1066.843
45.199	13.415	1393.738	1066.582
46.213	13.392	1393.188	1065.923
47.228	13.591	1391.985	1066.188
48.242	13.547	1390.976	1065.040
49.257	13.415	1389.715	1063.126
50.271	13.500	1388.032	1062.294
51.286	13.431	1387.136	1061.074
52.301	13.550	1385.019	1060.120
53.315	13.556	1383.895	1059.206
54.330	13.475	1382.953	1057.869
55.344	13.455	1381.809	1056.772
56.359	13.427	1380.716	1055.665
57.374	13.438	1380.008	1055.101
58.388	13.322	1379.378	1053.789
59.403	13.451	1378.772	1054.055
60.417	13.441	1377.667	1053.050
61.432	13.302	1377.442	1051.899
62.447	13.322	1375.941	1050.789
63.461	13.323	1374.838	1049.864
64.476	13.232	1373.906	1048.479
65.490	13.295	1372.647	1047.828
66.505	13.302	1370.692	1046.283
67.520	13.378	1369.342	1045.639
68.534	13.386	1368.164	1044.698
69.549	13.459	1367.073	1044.233
70.563	13.354	1366.374	1042.947
71.578	13.397	1364.635	1041.801
72.593	13.311	1363.923	1040.621
73.607	13.315	1363.727	1040.408
74.622	13.286	1362.595	1039.265
75.636	13.279	1362.020	1038.691
76.651	13.191	1360.890	1037.188
77.666	13.236	1360.745	1037.263
78.680	13.259	1360.192	1036.896
79.695	13.349	1358.662	1036.205
80.709	13.268	1358.328	1035.348
81.724	13.276	1357.450	1034.640
82.739	13.348	1356.208	1034.049
83.753	13.439	1355.282	1033.822
84.768	13.466	1354.263	1033.124
85.782	13.511	1352.569	1032.021
86.797	13.524	1350.991	1030.806
87.812	13.425	1349.809	1029.195
88.826	13.425	1349.310	1028.721
89.841	13.493	1347.927	1028.001
90.855	13.492	1346.975	1027.174
91.870	13.562	1346.183	1026.914
92.884	13.421	1345.796	1025.658
93.899	13.555	1344.790	1025.631
94.914	13.598	1343.671	1024.949
95.928	13.606	1342.635	1024.118
96.943	13.524	1341.649	1022.769
97.957	13.508	1341.174	1022.217
98.972	13.573	1339.970	1021.611
99.987	13.566	1338.536	1020.384
101.001	13.512	1337.917	1019.492
102.016	13.527	1336.685	1018.554
103.030	13.601	1335.532	1018.039
104.045	13.468	1335.078	1016.783
105.060	13.449	1334.258	1015.955
106.074	13.470	1332.739	1014.835
107.089	13.406	1331.196	1013.183
108.103	13.325	1330.051	1011.723
109.118	13.408	1328.765	1011.162
110.133	13.442	1327.025	1009.955
111.147	13.317	1326.225	1008.496
112.162	13.441	1324.480	1007.837
113.176	13.436	1323.425	1006.915
114.191	13.427	1322.481	1006.051
115.206	13.440	1321.684	1005.437
116.220	13.410	1320.448	1004.225
117.235	13.358	1319.275	1002.926
118.249	13.381	1317.871	1001.908
119.264	13.412	1316.862	1001.244
120.279	13.376	1315.878	1000.185
121.293	13.308	1314.939	998.974
122.308	13.358	1313.903	998.401
123.322	13.363	1312.487	997.269
124.337	13.468	1311.241	996.863
125.352	13.461	1310.016	995.806
126.366	13.385	1309.444	994.821
127.381	13.435	1308.024	993.955
128.395	13.387	1306.992	992.799
129.410	13.405	1306.173	992.194
130.424	13.370	1305.676	991.517
131.439	13.421	1304.644	990.954
132.454	13.500	1303.168	990.219
133.468	13.449	1302.851	989.583
134.483	13.542	1301.784	989.242
135.497	13.553	1300.723	988.416
136.512	13.470	1299.405	986.827
137.527	13.553	1297.673	985.921
138.541	13.468	1296.754	984.628
139.556	13.563	1294.971	983.753
140.570	13.534	1294.414	983.069
141.585	13.609	1293.074	982.410
142.600	13.584	1292.088	981.428
143.614	13.606	1291.064	980.695
144.629	13.724	1289.537	980.142
145.643	13.732	1288.276	979.145
146.658	13.553	1287.284	977.248
147.673	13.545	1285.916	976.079
148.687	13.564	1284.622	975.118
149.702	13.486	1283.566	973.772
150.716	13.493	1282.034	972.567
151.731	13.516	1281.111	971.917
152.746	13.570	1279.869	971.203
153.760	13.552	1278.440	969.930
154.775	13.584	1277.058	968.978
155.789	13.607	1276.292	968.449
156.804	13.725	1274.698	967.843
157.819	13.709	1273.829	967.003
158.833	13.684	1272.918	966.082
159.848	13.783	1271.583	965.556
160.862	13.745	1270.617	964.515
161.877	13.732	1269.656	963.630
162.892	13.630	1269.059	962.499
163.906	13.670	1267.694	961.609
164.921	13.661	1266.619	960.653
165.935	13.677	1266.384	960.486
166.950	13.620	1265.493	959.397
167.964	13.741	1264.445	959.217
168.979	13.778	1263.668	958.754
169.994	13.653	1263.373	957.722
171.008	13.730	1262.204	957.196
172.023	13.812	1261.334	956.922
173.037	13.915	1259.914	956.356
174.052	13.780	1259.524	955.197
175.067	13.815	1257.940	954.111
176.081	13.804	1257.268	953.458
177.096	13.790	1256.868	952.990
178.110	13.819	1255.197	951.805
179.125	13.827	1254.260	951.053
180.140	13.858	1252.716	949.978
181.154	13.875	1251.637	949.173
182.169	14.008	1250.669	949.116
183.183	13.944	1249.640	947.886
184.198	14.021	1248.167	947.123
185.213	13.934	1246.864	945.554
186.227	14.029	1245.764	945.177
187.242	13.989	1244.921	944.226
188.256	14.048	1243.934	943.727
189.271	14.120	1242.632	943.066
190.286	13.939	1241.728	941.270
191.300	13.809	1241.216	940.064
192.315	13.909	1240.645	940.112
193.329	13.841	1240.121	939.250
194.344	13.848	1238.954	938.319
195.359	13.912	1238.367	938.152
196.373	14.061	1237.871	938.536
197.388	14.064	1237.352	938.077
198.402	14.009	1236.792	937.258
199.417	14.099	1236.594	937.532
200.432	14.172	1235.358	936.926
201.446	14.165	1234.280	935.987
202.461	14.155	1233.337	935.132
203.475	14.239	1232.167	934.636
204.490	14.207	1231.120	933.574
205.504	14.196	1229.598	932.275
206.519	14.196	1228.291	931.206
207.534	14.241	1227.098	930.473
208.548	14.181	1226.159	929.338
209.563	14.168	1225.461	928.655
210.577	14.226	1224.477	928.154
211.592	14.257	1223.757	927.697
212.607	14.314	1222.620	927.071
213.621	14.368	1221.949	926.782
214.636	14.324	1221.013	925.741
215.650	14.314	1220.271	925.041
216.665	14.350	1219.613	924.661
217.680	14.417	1218.393	924.024
218.694	14.466	1217.096	923.236
219.709	14.451	1216.355	922.504
220.723	14.468	1215.846	922.131
221.738	14.468	1214.885	921.323
222.753	14.480	1214.361	920.909
223.767	14.526	1214.008	920.814
224.782	14.489	1213.043	919.796
225.796	14.480	1212.614	919.342
226.811	14.657	1211.557	919.435
227.826	14.608	1210.839	918.536
228.840	14.424	1210.210	916.965
229.855	14.513	1209.428	916.783
230.869	14.527	1208.443	916.029
231.884	14.528	1207.663	915.364
232.899	14.576	1206.828	914.915
233.913	14.470	1206.355	913.894
234.928	14.655	1204.693	913.566
235.942	14.606	1204.565	913.121
236.957	14.548	1203.705	912.070
237.972	14.503	1203.190	911.353
238.986	14.551	1202.373	910.916
240.001	14.608	1201.616	910.570
241.015	14.516	1201.037	909.549
242.030	14.686	1199.653	909.351
243.045	14.615	1199.328	908.633
244.059	14.719	1197.829	907.983
245.074	14.794	1197.484	908.048
246.088	14.730	1196.442	906.832
247.103	14.769	1195.702	906.406
248.117	14.696	1195.307	905.627
249.132	14.771	1194.522	905.358
250.147	14.927	1193.672	905.480
251.161	14.903	1192.887	904.673
252.176	14.875	1192.468	904.122
253.190	14.971	1191.544	903.862
254.205	15.041	1191.053	903.787
255.220	15.054	1190.341	903.236
256.234	15.037	1189.697	902.576
257.249	14.980	1189.206	901.816
258.263	15.103	1188.097	901.561
259.278	15.045	1187.718	900.881
260.293	15.172	1186.978	900.922
261.307	15.118	1186.449	900.148
262.322	15.008	1186.135	899.242
263.336	15.192	1185.056	899.333
264.351	15.076	1184.833	898.460
265.366	15.182	1183.706	898.093
266.380	15.189	1182.750	897.330
267.395	15.292	1182.107	897.311
268.409	15.213	1181.434	896.297
269.424	15.176	1180.951	895.655
270.439	15.110	1180.334	894.756
271.453	15.127	1179.412	894.068
272.468	15.182	1178.650	893.707
273.482	15.216	1177.911	893.244
274.497	15.161	1177.542	892.593
275.512	15.190	1176.896	892.179
276.526	15.221	1175.520	891.223
277.541	15.281	1174.422	890.633
278.555	15.301	1174.052	890.379
279.570	15.274	1173.457	889.704
280.585	15.388	1172.243	889.310
281.599	15.387	1171.724	888.830
282.614	15.367	1170.548	887.756
283.628	15.321	1169.560	886.687
284.643	15.355	1168.858	886.252
285.657	15.444	1167.763	885.816
286.672	15.393	1166.711	884.669
287.687	15.397	1165.921	884.015
288.701	15.443	1165.134	883.581
289.716	15.555	1163.950	883.195
290.730	15.545	1163.497	882.718
291.745	15.460	1163.806	882.428
292.760	15.487	1162.326	881.368
293.774	15.526	1161.856	881.138
294.789	15.667	1161.079	881.210
295.803	15.617	1160.259	880.250
296.818	15.698	1159.519	880.036
297.833	15.543	1159.206	878.908
298.847	15.613	1157.953	878.247
299.862	15.530	1157.357	877.281
300.876	15.641	1156.529	877.157
301.891	15.804	1155.870	877.427
302.906	15.744	1155.117	876.465
303.920	15.703	1154.821	875.950
304.935	15.787	1153.383	875.222
305.949	15.756	1153.075	874.748
306.964	15.717	1152.758	874.227
307.979	15.883	1151.592	874.126
308.993	15.788	1151.020	873.123
310.008	15.864	1150.141	872.775
311.022	15.888	1149.442	872.291
312.037	15.947	1148.362	871.698
313.052	15.958	1147.120	870.735
314.066	15.867	1146.345	869.600
315.081	15.811	1145.845	868.855
316.095	15.729	1145.319	867.956
317.110	15.804	1144.655	867.760
318.125	15.774	1143.664	866.780
319.139	15.862	1142.608	866.355
320.154	15.890	1142.161	866.083
321.168	15.883	1141.504	865.475
322.183	15.941	1141.107	865.392
323.197	15.941	1139.934	864.430
324.212	15.821	1139.868	863.688
325.227	15.976	1139.175	863.881
326.241	16.018	1138.171	863.255
327.256	15.888	1137.584	862.067
328.270	15.908	1136.665	861.399
329.285	15.896	1135.731	860.555
330.300	15.999	1135.081	860.512
331.314	16.040	1133.502	859.448
332.329	16.040	1133.065	859.039
333.343	16.037	1131.447	857.720
334.358	16.053	1130.825	857.257
335.373	16.013	1130.501	856.731
336.387	16.180	1129.697	856.893
337.402	16.057	1129.136	855.769
338.416	16.059	1128.732	855.396
339.431	16.116	1127.576	854.733
340.446	16.101	1126.942	854.100
341.460	16.190	1126.149	853.873
342.475	16.294	1125.107	853.535
343.489	16.220	1124.203	852.400
344.504	16.451	1123.315	852.818
345.519	16.269	1122.524	851.224
346.533	16.303	1121.555	850.585
347.548	16.399	1120.726	850.365
348.562	16.314	1120.281	849.523
349.577	16.333	1119.299	848.797
350.592	16.367	1118.801	848.516
351.606	16.366	1117.782	847.666
352.621	16.285	1117.167	846.715
353.635	16.486	1116.084	846.829
354.650	16.298	1116.185	845.890
355.665	16.262	1115.171	844.865
356.679	16.387	1114.369	844.807
357.694	16.449	1113.694	844.532
358.708	16.501	1112.968	844.167
359.723	16.589	1112.256	843.989
360.738	16.444	1111.853	842.883
361.752	16.523	1111.206	842.714
362.767	16.529	1110.712	842.296
363.781	16.545	1110.267	841.960
364.796	16.565	1109.331	841.279
365.810	16.521	1108.965	840.706
366.825	16.588	1108.291	840.453
367.840	16.753	1107.609	840.681
368.854	16.731	1106.883	839.946
369.869	16.754	1105.783	839.153
370.883	16.644	1105.227	838.109
371.898	16.717	1104.751	838.038
372.913	16.656	1104.008	837.098
373.927	16.719	1103.642	837.056
374.942	16.914	1102.536	837.107
375.956	16.782	1102.594	836.424
376.971	16.793	1101.837	835.833
377.986	16.904	1101.097	835.744
379.000	16.808	1100.890	835.038
380.015	16.794	1100.103	834.301
381.029	16.991	1099.138	834.465
382.044	16.958	1098.629	833.841
383.059	17.037	1097.595	833.368
384.073	16.992	1096.821	832.487
385.088	16.954	1096.572	832.038
386.102	17.052	1095.348	831.515
387.117	16.956	1094.251	830.140
388.132	17.005	1093.216	829.522
389.146	16.953	1092.146	828.382
390.161	16.854	1092.193	827.859
391.175	17.066	1090.715	827.702
392.190	17.108	1090.143	827.397
393.205	17.090	1090.203	827.281
394.219	17.084	1088.994	826.262
395.234	17.099	1087.640	825.234
396.248	17.085	1086.629	824.327
397.263	17.025	1085.706	823.265
398.278	17.025	1085.265	822.859
399.292	17.087	1084.681	822.643
400.307	17.117	1083.542	821.852
401.321	17.105	1082.679	821.063
402.336	17.104	1082.496	820.850
403.350	17.179	1081.483	820.368
404.365	17.203	1080.965	820.022
405.380	17.204	1080.066	819.272
406.394	17.185	1079.647	818.787
407.409	17.110	1078.928	817.810
408.423	17.241	1077.855	817.556
409.438	17.282	1077.160	817.151
410.453	17.287	1076.506	816.609
411.467	17.302	1076.082	816.284
412.482	17.248	1075.644	815.624
413.496	17.475	1074.161	815.514
414.511	17.542	1073.401	815.185
415.526	17.332	1073.973	814.540
416.540	17.393	1073.285	814.241
417.555	17.434	1072.843	814.029
418.569	17.466	1071.895	813.391
419.584	17.535	1071.147	813.080
420.599	17.521	1070.805	812.679
421.613	92.805	1308.304	1410.594
422.628	85.951	1342.876	1410.750
