DTS Sentinel unit serial number:	SN413079Multiplexer serial number:	ORYXHardware model number:	OX4-SRSoftware version number:	ORYX F/W v4.00 Oryx Data Collector v3.7.2.0data status	okinstallation	princeton_trtdifferential loss correction	single-endedforward channel	channel 2reverse channel	N/Adate	2019/09/19time	15:27:34forward acquisition time	60.00reverse acquisition time	0.00gamma	496.2192k internal	0.2318k external	0.2318temperature offset calibration	1.0026default loss term (dB/km)	0.3790temperature slope calibration	1.0000multiplexer offset coefficient	1.0000multiplexer slope coefficient	1.0000fibre end	0.00T internal ref (°C)	33.97T ext. ref 1 (°C)	1.14T ext. ref 2 (°C)	31.04length (m)	temperature (°C)	Stokes	anti-Stokes-747.200	800.000	-0.111	0.404
-746.185	-65.445	-0.458	0.186
-745.171	-200.000	0.036	0.174
-744.156	-28.774	-0.124	-0.072
-743.142	-50.752	0.031	0.015
-742.127	196.870	0.212	0.328
-741.112	29.329	-0.122	0.105
-740.098	332.349	-0.117	0.228
-739.083	-200.000	-0.064	0.487
-738.069	425.211	-0.154	0.336
-737.054	-27.777	0.260	0.153
-736.039	-174.100	0.046	-0.001
-735.025	800.000	-0.034	0.113
-734.010	-95.588	-0.214	-0.058
-732.996	70.622	-0.223	-0.233
-731.981	-200.000	-0.034	0.234
-730.966	-136.984	-0.434	0.050
-729.952	800.000	-0.056	0.172
-728.937	-99.636	-0.028	-0.007
-727.923	33.347	0.128	0.112
-726.908	475.565	-0.089	-0.203
-725.894	67.158	0.175	-0.180
-724.879	800.000	-0.108	-0.447
-723.864	184.883	-0.154	-0.232
-722.850	-158.641	-0.259	0.015
-721.835	-188.386	0.289	0.004
-720.821	-200.000	-0.279	0.000
-719.806	78.487	-0.192	-0.208
-718.791	25.201	0.167	-0.140
-717.777	-200.000	-0.003	-0.207
-716.762	-159.959	-0.353	-0.019
-715.748	-107.998	0.214	-0.047
-714.733	-122.258	-0.105	0.017
-713.718	-82.100	-0.210	0.069
-712.704	-200.000	0.047	-0.295
-711.689	148.523	-0.146	-0.200
-710.675	-109.901	0.139	0.029
-709.660	-88.536	0.404	-0.122
-708.645	164.382	0.115	0.164
-707.631	-200.000	-0.042	-0.213
-706.616	-125.006	0.186	0.029
-705.602	371.242	-0.246	0.503
-704.587	-200.000	-0.015	0.149
-703.572	240.231	0.061	0.102
-702.558	-69.505	-0.234	0.090
-701.543	-79.477	0.188	-0.064
-700.529	-200.000	0.012	-0.365
-699.514	285.599	-0.222	0.404
-698.499	-200.000	-0.030	-0.252
-697.485	477.864	0.168	0.385
-696.470	-200.000	-0.036	-0.196
-695.456	178.437	0.186	-0.274
-694.441	205.351	-0.258	0.404
-693.426	-144.642	-0.240	0.022
-692.412	75.426	0.161	0.171
-691.397	-171.162	0.138	0.005
-690.383	-104.188	0.207	-0.049
-689.368	-200.000	-0.044	-0.433
-688.354	139.179	-0.164	-0.217
-687.339	-50.709	-0.029	-0.014
-686.324	-14.853	0.047	0.030
-685.310	81.964	0.312	0.341
-684.295	-200.000	0.015	0.099
-683.281	57.752	-0.199	-0.197
-682.266	-49.655	-0.246	0.118
-681.251	-73.280	-0.151	0.056
-680.237	-200.000	0.028	-0.207
-679.222	784.161	0.058	0.159
-678.208	-59.519	0.168	0.073
-677.193	-163.812	-0.308	-0.015
-676.178	-75.526	-0.121	0.044
-675.164	-200.000	0.060	-0.434
-674.149	68.194	-0.247	-0.256
-673.135	276.139	0.075	-0.134
-672.120	-126.965	0.461	0.068
-671.105	5.699	0.114	-0.085
-670.091	272.039	-0.054	-0.096
-669.076	69.399	0.167	-0.174
-668.062	-164.510	-0.315	-0.014
-667.047	107.928	-0.159	0.191
-666.032	-200.000	0.028	-0.250
-665.018	16.205	-0.297	-0.236
-664.003	237.323	-0.084	0.140
-662.989	-131.958	0.321	-0.042
-661.974	79.729	0.061	-0.066
-660.959	-19.556	0.090	0.056
-659.945	800.000	0.005	-0.016
-658.930	316.131	0.088	0.167
-657.916	-71.405	0.450	0.170
-656.901	178.349	0.161	-0.237
-655.886	-22.591	-0.299	0.182
-654.872	-75.254	0.087	-0.031
-653.857	298.610	-0.244	-0.452
-652.843	-180.031	-0.296	0.006
-651.828	-126.150	-0.089	0.013
-650.814	71.451	-0.013	-0.014
-649.799	95.908	-0.066	-0.076
-648.784	324.224	-0.057	0.109
-647.770	133.771	-0.122	0.159
-646.755	-95.470	-0.126	0.034
-645.741	-27.924	-0.372	0.217
-644.726	-200.000	0.052	0.355
-643.711	-76.511	-0.137	-0.048
-642.697	-142.138	0.310	0.031
-641.682	305.582	-0.080	0.149
-640.668	149.161	-0.130	-0.177
-639.653	-200.000	-0.050	-0.274
-638.638	-116.225	-0.257	-0.048
-637.624	-200.000	0.025	-0.123
-636.609	41.829	0.168	-0.153
-635.595	265.482	-0.194	0.341
-634.580	-52.641	-0.276	-0.129
-633.565	-64.307	-0.269	0.110
-632.551	-95.860	-0.221	0.059
-631.536	-59.444	-0.154	0.067
-630.522	-106.024	0.051	-0.011
-629.507	-200.000	-0.020	-0.111
-628.492	-200.000	0.016	-0.206
-627.478	-53.979	-0.159	0.073
-626.463	-40.433	-0.046	0.024
-625.449	-200.000	0.001	-0.179
-624.434	-102.080	-0.208	0.051
-623.419	40.685	0.119	0.108
-622.405	-200.000	0.008	-0.141
-621.390	-200.000	0.036	0.199
-620.376	136.977	-0.160	0.211
-619.361	116.947	-0.133	0.165
-618.346	315.436	-0.070	0.133
-617.332	-20.015	0.048	0.030
-616.317	103.890	-0.029	0.034
-615.303	69.199	0.194	0.201
-614.288	-150.591	0.188	-0.014
-613.273	34.166	-0.267	-0.234
-612.259	-90.716	-0.065	0.019
-611.244	800.000	-0.025	-0.098
-610.230	-200.000	-0.032	-0.155
-609.215	800.000	0.036	0.105
-608.201	33.610	-0.054	0.047
-607.186	28.103	-0.089	-0.076
-606.171	800.000	0.135	-0.424
-605.157	-200.000	-0.021	-0.239
-604.142	-5.957	0.080	-0.055
-603.128	-200.000	0.000	0.045
-602.113	-53.186	-0.392	-0.181
-601.098	557.708	-0.016	-0.039
-600.084	-83.976	0.169	0.054
-599.069	447.748	0.039	0.087
-598.055	565.771	0.075	0.183
-597.040	752.412	-0.030	0.082
-596.025	-200.000	-0.037	0.170
-595.011	108.022	0.097	-0.116
-593.996	-19.215	0.388	0.242
-592.982	-22.002	-0.298	-0.182
-591.967	-71.431	0.123	-0.046
-590.952	0.429	0.074	0.053
-589.938	51.023	-0.369	0.352
-588.923	123.728	0.151	0.191
-587.909	87.425	-0.131	-0.146
-586.894	800.000	-0.080	-0.281
-585.879	116.073	0.100	-0.123
-584.865	-150.875	-0.260	0.020
-583.850	110.713	-0.131	0.159
-582.836	6.006	0.239	-0.178
-581.821	191.744	0.102	0.155
-580.806	41.725	-0.214	-0.195
-579.792	-120.246	-0.166	-0.029
-578.777	110.634	-0.071	0.086
-577.763	66.190	0.046	-0.047
-576.748	-200.000	-0.017	0.195
-575.733	58.277	0.119	-0.117
-574.719	185.732	-0.076	-0.113
-573.704	-50.963	0.168	-0.079
-572.690	800.000	-0.049	0.210
-571.675	511.039	0.039	0.090
-570.661	800.000	-0.084	-0.276
-569.646	-200.000	-0.026	0.161
-568.631	-115.142	0.035	-0.007
-567.617	-99.350	-0.085	-0.022
-566.602	566.554	-0.057	0.140
-565.588	-200.000	-0.007	0.630
-564.573	-2.976	-0.121	0.085
-563.558	800.000	-0.032	0.125
-562.544	249.366	-0.179	0.305
-561.529	32.843	-0.068	-0.059
-560.515	-200.000	0.017	0.196
-559.500	800.000	-0.050	0.152
-558.485	-151.933	-0.132	-0.010
-557.471	-187.175	-0.279	0.004
-556.456	19.454	0.124	0.100
-555.442	701.797	0.082	-0.217
-554.427	145.804	0.099	-0.133
-553.412	-99.018	0.057	-0.015
-552.398	577.778	0.017	0.042
-551.383	16.081	-0.230	-0.182
-550.369	-200.000	-0.027	0.242
-549.354	784.777	0.092	0.252
-548.339	156.800	0.142	0.197
-547.325	-66.077	0.344	0.138
-546.310	97.012	-0.027	-0.031
-545.296	18.571	-0.340	-0.273
-544.281	24.531	0.139	0.116
-543.266	300.777	0.160	-0.296
-542.252	58.506	0.057	0.056
-541.237	-200.000	-0.026	-0.202
-540.223	2.451	0.218	0.158
-539.208	800.000	0.006	0.021
-538.193	-17.327	-0.297	0.188
-537.179	800.000	0.049	-0.179
-536.164	588.355	0.055	-0.137
-535.150	388.264	-0.055	0.114
-534.135	-147.760	0.077	-0.006
-533.121	47.484	0.137	-0.128
-532.106	-200.000	0.005	-0.390
-531.091	39.643	-0.185	-0.167
-530.077	22.859	-0.114	0.094
-529.062	-4.198	0.272	0.189
-528.048	-200.000	-0.012	0.066
-527.033	-79.206	-0.215	-0.073
-526.018	800.000	0.032	-0.102
-525.004	-200.000	0.010	0.097
-523.989	-167.620	-0.106	-0.004
-522.975	-146.586	0.343	0.030
-521.960	83.279	-0.133	0.145
-520.945	-73.360	0.207	-0.076
-519.931	-200.000	-0.004	-0.240
-518.916	25.935	-0.061	0.051
-517.902	800.000	-0.029	-0.100
-516.887	-200.000	-0.011	0.070
-515.872	-200.000	-0.080	0.414
-514.858	-140.885	0.270	0.028
-513.843	-45.758	0.103	0.051
-512.829	-99.849	0.240	-0.060
-511.814	-113.035	-0.106	-0.021
-510.799	130.217	-0.152	0.195
-509.785	57.635	0.162	0.159
-508.770	-200.000	0.017	-0.122
-507.756	-51.627	0.157	-0.074
-506.741	-147.840	-0.202	0.017
-505.726	-15.119	-0.013	-0.008
-504.712	-131.202	-0.122	-0.016
-503.697	123.098	0.028	-0.035
-502.683	-81.168	-0.272	-0.090
-501.668	187.879	0.264	0.396
-500.653	-35.449	-0.240	-0.131
-499.639	-34.067	-0.172	0.095
-498.624	-200.000	-0.005	-0.160
-497.610	-174.750	0.217	-0.006
-496.595	-51.646	-0.049	-0.023
-495.581	-133.059	0.423	0.054
-494.566	416.621	0.077	-0.164
-493.551	-39.741	-0.289	-0.151
-492.537	-179.006	-0.314	0.007
-491.522	-200.000	0.040	-0.415
-490.508	-90.517	0.176	-0.051
-489.493	-30.816	-0.159	-0.090
-488.478	-25.734	0.265	-0.156
-487.464	-0.040	0.053	0.038
-486.449	247.039	0.166	-0.281
-485.435	-78.078	-0.161	-0.055
-484.420	207.716	0.094	-0.147
-483.405	163.011	0.134	0.188
-482.391	38.764	-0.113	0.101
-481.376	515.256	-0.092	-0.216
-480.362	-20.769	0.232	0.143
-479.347	-153.210	0.255	-0.018
-478.332	69.509	-0.188	0.194
-477.318	-2.888	0.316	-0.221
-476.303	-112.564	-0.283	0.056
-475.289	-114.267	-0.262	-0.051
-474.274	-95.532	0.167	-0.045
-473.259	220.212	0.018	0.029
-472.245	208.005	0.126	-0.197
-471.230	-104.370	0.231	0.054
-470.216	40.002	0.197	-0.177
-469.201	-39.634	-0.060	0.032
-468.186	19.171	-0.153	0.123
-467.172	39.313	-0.253	-0.227
-466.157	279.857	-0.235	0.420
-465.143	327.806	0.116	-0.223
-464.128	715.774	0.156	-0.414
-463.113	800.000	0.114	0.393
-462.099	-14.217	0.250	0.161
-461.084	-97.231	0.266	0.069
-460.070	83.757	0.050	0.055
-459.055	84.000	-0.033	-0.036
-458.040	-76.739	-0.153	0.054
-457.026	165.099	-0.199	-0.282
-456.011	-84.595	-0.106	-0.034
-454.997	-7.298	0.272	-0.185
-453.982	109.254	-0.170	-0.203
-452.968	-170.534	-0.151	-0.005
-451.953	293.862	-0.077	0.140
-450.938	74.471	0.354	0.373
-449.924	-50.801	0.096	0.045
-448.909	53.066	-0.186	0.178
-447.895	155.375	-0.211	0.291
-446.880	-70.208	-0.164	0.062
-445.865	-132.515	-0.249	-0.032
-444.851	1.545	-0.167	-0.121
-443.836	-200.000	-0.015	-0.393
-442.822	318.242	-0.176	-0.333
-441.807	69.601	-0.114	-0.117
-440.792	118.104	0.017	-0.021
-439.778	-200.000	-0.036	-0.322
-438.763	800.000	-0.008	-0.027
-437.749	-200.000	-0.015	-0.208
-436.734	-200.000	0.027	0.143
-435.719	-200.000	-0.012	0.150
-434.705	-43.968	-0.117	-0.059
-433.690	-200.000	-0.015	-0.134
-432.676	-97.945	-0.163	0.042
-431.661	-112.358	0.161	-0.032
-430.646	800.000	-0.049	0.210
-429.632	114.343	0.064	0.078
-428.617	-179.714	-0.160	-0.003
-427.603	-186.611	0.348	-0.005
-426.588	-200.000	0.016	-0.420
-425.573	-61.193	-0.074	0.031
-424.559	-155.304	-0.202	-0.013
-423.544	109.713	0.093	0.111
-422.530	-26.407	0.189	0.111
-421.515	-125.759	-0.537	0.081
-420.500	102.582	0.008	0.010
-419.486	554.421	-0.083	-0.199
-418.471	-100.952	0.173	-0.042
-417.457	-200.000	0.024	-0.141
-416.442	136.933	-0.050	0.065
-415.428	800.000	-0.049	0.186
-414.413	800.000	-0.087	-0.250
-413.398	-128.698	0.243	-0.034
-412.384	221.788	-0.105	-0.169
-411.369	-65.904	-0.109	0.043
-410.355	-81.517	0.230	0.076
-409.340	-25.105	-0.246	0.146
-408.325	-200.000	0.010	0.072
-407.311	800.000	-0.098	-0.273
-406.296	35.420	-0.173	-0.152
-405.282	123.166	0.179	-0.224
-404.267	155.294	-0.079	-0.109
-403.252	49.963	0.251	0.236
-402.238	-52.983	-0.160	0.073
-401.223	388.293	0.146	0.302
-400.209	-200.000	0.037	0.191
-399.194	-94.995	-0.089	0.024
-398.179	135.647	-0.207	0.269
-397.165	-25.499	-0.258	0.152
-396.150	124.971	-0.164	-0.206
-395.136	40.698	-0.219	0.197
-394.121	-152.840	0.073	0.005
-393.106	-121.254	0.203	0.034
-392.092	-117.224	-0.097	0.018
-391.077	-75.807	0.272	0.096
-390.063	-110.845	0.328	0.067
-389.048	-123.313	-0.183	-0.029
-388.033	17.236	-0.093	0.074
-387.019	93.998	-0.061	0.070
-386.004	-121.320	0.355	-0.059
-384.990	800.000	0.050	0.188
-383.975	-49.213	0.416	0.198
-382.960	-200.000	-0.095	0.000
-381.946	-92.218	0.284	-0.080
-380.931	-52.076	0.110	-0.051
-379.917	-108.486	0.068	-0.015
-378.902	-200.000	0.004	0.078
-377.888	215.743	-0.035	-0.055
-376.873	-20.839	0.259	-0.158
-375.858	17.958	0.114	-0.091
-374.844	22.201	0.193	-0.157
-373.829	-52.927	0.398	-0.183
-372.815	2.212	-0.206	-0.148
-371.800	-10.221	-0.185	0.123
-370.785	-20.483	0.218	0.134
-369.771	800.000	-0.014	-0.045
-368.756	-62.447	0.191	0.079
-367.742	-200.000	-0.010	0.113
-366.727	290.285	0.080	0.145
-365.712	800.000	0.097	-0.325
-364.698	-89.288	-0.166	-0.049
-363.683	-134.632	-0.359	0.044
-362.669	42.475	0.237	0.215
-361.654	299.840	0.219	-0.402
-360.639	-11.928	-0.012	0.008
-359.625	-200.000	0.006	0.236
-358.610	-89.540	-0.133	-0.039
-357.596	526.077	0.054	-0.126
-356.581	264.132	-0.130	0.225
-355.566	-200.000	0.005	-0.220
-354.552	93.334	0.048	-0.054
-353.537	5.208	-0.090	-0.066
-352.523	-200.000	-0.010	-0.049
-351.508	-200.000	-0.075	-0.530
-350.493	434.107	-0.060	-0.130
-349.479	-144.030	-0.301	0.028
-348.464	-39.322	0.132	-0.069
-347.450	-10.811	0.099	-0.065
-346.435	-115.055	0.135	0.025
-345.420	338.337	0.073	0.141
-344.406	314.764	0.056	-0.105
-343.391	-125.183	-0.268	-0.041
-342.377	-38.182	-0.222	0.117
-341.362	-151.502	-0.300	-0.022
-340.348	-22.003	0.181	0.110
-339.333	-155.053	0.326	0.021
-338.318	-6.339	0.031	-0.021
-337.304	800.000	-0.063	0.178
-336.289	81.173	0.189	-0.204
-335.275	364.729	0.168	0.337
-334.260	-153.804	-0.362	0.025
-333.245	98.595	-0.105	0.120
-332.231	-69.571	0.304	-0.116
-331.216	-139.642	0.202	-0.021
-330.202	800.000	0.061	0.173
-329.187	-200.000	-0.017	0.166
-328.172	800.000	0.086	-0.261
-327.158	140.999	-0.086	-0.113
-326.143	2.516	0.154	-0.111
-325.129	2.212	0.163	-0.118
-324.114	-200.000	0.011	0.150
-323.099	123.158	-0.247	0.308
-322.085	-46.322	-0.302	-0.148
-321.070	-200.000	0.030	0.174
-320.056	-146.721	0.112	-0.010
-319.041	-62.157	-0.187	0.078
-318.026	-153.531	0.092	0.006
-317.012	-20.957	-0.143	0.087
-315.997	84.345	0.244	0.265
-314.983	-1.850	0.182	0.128
-313.968	182.986	-0.067	-0.099
-312.953	-50.164	-0.357	0.168
-311.939	82.404	0.149	0.160
-310.924	-135.343	-0.241	0.029
-309.910	370.427	-0.017	-0.035
-308.895	481.308	-0.091	-0.206
-307.880	800.000	0.066	-0.200
-306.866	783.674	-0.093	-0.253
-305.851	-149.578	0.341	0.027
-304.837	-20.398	0.245	0.150
-303.822	20.323	-0.136	0.109
-302.807	110.610	-0.203	-0.242
-301.793	7.629	-0.199	0.148
-300.778	-138.716	0.196	-0.021
-299.764	-174.039	-0.205	-0.006
-298.749	-50.183	-0.159	-0.075
-297.735	-200.000	0.012	0.188
-296.720	-51.823	0.378	0.175
-295.705	-58.234	-0.350	-0.152
-294.691	53.963	0.143	0.137
-293.676	-200.000	0.042	0.394
-292.662	-200.000	0.020	-0.275
-291.647	363.403	0.127	0.255
-290.632	41.143	-0.089	0.080
-289.618	214.970	-0.070	0.111
-288.603	-71.724	0.208	0.077
-287.589	237.182	-0.042	0.070
-286.574	-200.000	-0.024	-0.182
-285.559	-13.542	0.207	-0.133
-284.545	-200.000	0.038	0.213
-283.530	-80.553	0.137	-0.045
-282.516	-120.502	0.302	-0.051
-281.501	341.638	0.152	0.296
-280.486	68.419	0.187	0.190
-279.472	-200.000	-0.047	0.249
-278.457	408.601	0.095	-0.200
-277.443	-4.552	-0.227	-0.156
-276.428	120.800	0.129	0.160
-275.413	-153.508	-0.112	0.008
-274.399	367.427	-0.070	-0.140
-273.384	-35.931	-0.211	-0.113
-272.370	-18.878	0.084	-0.052
-271.355	800.000	0.108	0.426
-270.340	-9.787	-0.265	-0.175
-269.326	769.404	-0.061	-0.166
-268.311	211.918	-0.134	0.210
-267.297	-50.412	0.154	-0.072
-266.282	-200.000	-0.070	0.312
-265.267	42.168	-0.111	0.100
-264.253	17.208	0.098	-0.077
-263.238	-131.661	-0.054	-0.007
-262.224	-69.244	-0.100	-0.038
-261.209	-121.529	-0.122	0.020
-260.195	374.521	-0.073	-0.148
-259.180	-153.122	-0.337	-0.023
-258.165	-103.295	-0.251	0.059
-257.151	800.000	-0.022	-0.083
-256.136	800.000	-0.013	-0.055
-255.122	10.529	0.049	0.037
-254.107	-43.476	0.082	-0.041
-253.092	211.701	-0.216	0.338
-252.078	-67.097	0.101	-0.040
-251.063	-40.324	0.090	0.047
-250.049	800.000	0.072	0.309
-249.034	800.000	0.043	0.138
-248.019	597.273	-0.015	0.037
-247.005	24.598	-0.040	0.033
-245.990	-200.000	0.007	0.074
-244.976	-78.706	-0.329	-0.111
-243.961	-144.775	0.473	-0.043
-242.946	-162.505	0.223	0.011
-241.932	99.133	-0.078	0.089
-240.917	41.449	0.076	-0.069
-239.903	21.719	-0.281	0.227
-238.888	750.809	-0.072	0.192
-237.873	800.000	0.022	0.076
-236.859	-42.000	0.164	-0.083
-235.844	121.809	-0.186	0.230
-234.830	109.843	-0.102	0.121
-233.815	-149.268	0.274	-0.022
-232.800	-62.622	-0.430	-0.177
-231.786	-12.124	0.288	0.187
-230.771	-1.169	0.086	0.060
-229.757	274.424	0.086	0.150
-228.742	800.000	0.021	-0.084
-227.727	-150.637	0.267	-0.020
-226.713	-95.790	0.141	-0.037
-225.698	800.000	-0.031	-0.110
-224.684	10.688	0.068	0.051
-223.669	800.000	0.049	0.162
-222.655	78.975	0.046	0.048
-221.640	-70.140	-0.193	-0.073
-220.625	17.247	0.117	0.092
-219.611	197.668	-0.069	0.104
-218.596	-200.000	-0.053	-0.239
-217.582	3.609	0.123	0.089
-216.567	-12.890	0.159	0.102
-215.552	-19.131	0.106	0.065
-214.538	129.885	-0.212	-0.268
-213.523	256.040	0.097	-0.164
-212.509	-32.483	0.367	-0.203
-211.494	800.000	-0.102	-0.315
-210.479	-57.215	-0.293	0.128
-209.465	-48.980	-0.116	0.055
-208.450	-200.000	0.005	0.176
-207.436	-85.580	0.312	-0.096
-206.421	30.451	-0.083	-0.071
-205.406	-64.295	-0.151	-0.061
-204.392	129.482	0.283	-0.358
-203.377	-94.893	0.191	-0.051
-202.363	-106.440	-0.205	-0.045
-201.348	193.994	-0.089	-0.133
-200.333	7.098	0.128	-0.095
-199.319	4.006	0.237	0.171
-198.304	-200.000	0.023	-0.231
-197.290	800.000	0.016	-0.067
-196.275	-200.000	-0.014	0.171
-195.260	290.800	0.063	-0.114
-194.246	-126.731	-0.277	-0.041
-193.231	-200.000	-0.002	-0.122
-192.217	-200.000	0.011	0.252
-191.202	-200.000	0.003	0.342
-190.187	656.940	0.030	-0.077
-189.173	800.000	0.110	-0.319
-188.158	800.000	0.028	-0.116
-187.144	121.674	0.069	-0.085
-186.129	-55.414	-0.059	0.026
-185.114	-200.000	-0.002	-0.127
-184.100	-91.811	-0.115	0.032
-183.085	-93.860	0.194	0.053
-182.071	792.245	-0.097	-0.264
-181.056	359.775	-0.036	0.072
-180.042	-13.251	0.357	-0.229
-179.027	-200.000	0.031	-0.389
-178.012	573.816	-0.078	0.188
-176.998	-108.307	0.080	0.017
-175.983	-200.000	0.042	-0.212
-174.969	-200.000	0.028	-0.158
-173.954	800.000	0.148	-0.477
-172.939	-200.000	0.009	-0.056
-171.925	133.349	-0.124	0.158
-170.910	414.329	-0.063	0.132
-169.896	-94.810	0.126	0.034
-168.881	47.789	-0.059	0.054
-167.866	-162.738	-0.053	-0.003
-166.852	-151.898	-0.230	-0.017
-165.837	800.000	0.072	0.254
-164.823	109.880	0.095	-0.112
-163.808	-200.000	0.226	-0.000
-162.793	-48.252	-0.184	0.088
-161.779	-200.000	-0.028	0.225
-160.764	201.195	-0.083	0.126
-159.750	-85.586	-0.071	0.022
-158.735	638.832	0.086	-0.217
-157.720	-195.121	0.292	0.002
-156.706	604.347	0.057	-0.141
-155.691	452.290	0.128	-0.280
-154.677	-99.167	0.108	-0.027
-153.662	20.895	0.042	-0.033
-152.647	775.059	0.093	-0.250
-151.633	15.472	0.246	-0.191
-150.618	-200.000	-0.001	0.187
-149.604	525.070	-0.134	-0.312
-148.589	18.506	0.003	-0.003
-147.574	719.401	0.113	-0.297
-146.560	-179.543	0.169	0.004
-145.545	173.607	-0.185	-0.265
-144.531	329.200	-0.103	-0.195
-143.516	12.608	-0.189	0.144
-142.502	-177.329	0.332	0.008
-141.487	-200.000	0.079	0.414
-140.472	-200.000	0.007	0.241
-139.458	-200.000	0.013	-0.298
-138.443	238.228	0.112	-0.183
-137.429	-13.355	0.080	0.051
-136.414	-64.886	0.395	0.158
-135.399	271.379	0.046	-0.080
-134.385	-147.266	0.025	-0.002
-133.370	-78.046	0.252	0.086
-132.356	-200.000	0.027	0.215
-131.341	-92.160	0.133	-0.037
-130.326	-122.737	0.101	-0.016
-129.312	-27.596	0.261	-0.150
-128.297	21.789	0.232	-0.186
-127.283	800.000	-0.082	-0.226
-126.268	-105.412	0.121	0.027
-125.253	800.000	-0.033	0.091
-124.239	-200.000	0.091	0.591
-123.224	-28.288	-0.308	-0.176
-122.210	-200.000	-0.004	0.049
-121.195	272.819	-0.197	0.344
-120.180	-200.000	0.079	0.391
-119.166	138.897	-0.252	0.326
-118.151	-3.128	0.244	-0.168
-117.137	65.745	-0.021	-0.021
-116.122	190.700	0.099	-0.147
-115.107	-32.712	0.228	-0.125
-114.093	-58.582	-0.205	0.088
-113.078	-5.172	0.273	-0.185
-112.064	-142.206	0.344	-0.034
-111.049	158.579	-0.110	0.151
-110.034	19.073	0.232	0.184
-109.020	-127.222	-0.150	0.022
-108.005	-64.409	0.244	0.098
-106.991	141.048	-0.153	-0.199
-105.976	134.152	0.135	0.172
-104.962	800.000	0.111	-0.330
-103.947	800.000	0.071	0.271
-102.932	800.000	-0.028	-0.104
-101.918	-28.440	-0.261	-0.148
-100.903	800.000	0.080	0.268
-99.889	-46.690	0.553	-0.267
-98.874	-191.510	0.393	-0.004
-97.859	37.539	-0.214	0.188
-96.845	-78.875	-0.284	0.095
-95.830	98.374	0.179	-0.203
-94.816	-170.764	-0.209	0.007
-93.801	-56.158	-0.169	0.074
-92.786	671.940	0.032	-0.081
-91.772	-76.449	0.361	0.125
-90.757	119.525	0.091	0.111
-89.743	-200.000	0.039	0.300
-88.728	100.979	-0.156	0.179
-87.713	-151.120	0.173	0.013
-86.699	800.000	-0.015	0.065
-85.684	-109.010	0.115	0.024
-84.670	148.300	0.163	0.216
-83.655	102.178	-0.196	-0.226
-82.640	-27.214	0.232	-0.133
-81.626	-200.000	0.008	-0.271
-80.611	-79.030	-0.158	0.053
-79.597	55.504	0.166	-0.158
-78.582	79.100	0.218	-0.230
-77.567	-200.000	0.014	0.139
-76.553	-200.000	-0.037	-0.172
-75.538	-28.499	0.231	-0.131
-74.524	152.539	0.051	-0.069
-73.509	102.188	-0.150	0.172
-72.494	25.580	0.238	-0.195
-71.480	-152.287	-0.297	-0.021
-70.465	-108.057	-0.385	-0.082
-69.451	50.974	-0.057	0.053
-68.436	63.287	0.186	0.184
-67.422	-31.736	-0.153	-0.085
-66.407	-47.992	0.204	0.097
-65.392	148.561	0.066	-0.088
-64.378	-34.332	0.146	0.079
-63.363	-85.439	0.121	0.037
-62.349	-45.866	0.117	-0.057
-61.334	80.909	-0.892	-0.949
-60.319	221.238	0.338	0.535
-59.305	800.000	-0.399	-1.096
-58.290	548.441	0.487	1.150
-57.276	500.107	0.567	1.287
-56.261	-200.000	97.013	555.458
-55.246	500.637	1429.685	3249.493
-54.232	142.393	2672.840	3494.836
-53.217	104.533	2357.996	2735.227
-52.203	43.388	1961.617	1765.332
-51.188	37.137	1746.597	1522.902
-50.173	34.486	1700.808	1462.622
-49.159	50.751	1749.753	1631.596
-48.144	53.696	1766.925	1670.445
-47.130	36.794	1723.323	1499.709
-46.115	34.070	1707.779	1465.176
-45.100	33.837	1703.015	1459.245
-44.086	33.933	1700.197	1457.509
-43.071	33.808	1697.686	1454.340
-42.057	33.799	1695.022	1451.931
-41.042	33.881	1692.975	1450.743
-40.027	33.850	1691.295	1449.008
-39.013	33.828	1688.629	1446.501
-37.998	33.767	1687.122	1444.690
-36.984	33.806	1685.809	1443.805
-35.969	33.981	1684.225	1443.717
-34.954	34.058	1682.533	1442.799
-33.940	33.922	1680.709	1440.141
-32.925	33.979	1678.465	1438.599
-31.911	34.001	1676.564	1437.076
-30.896	33.901	1675.600	1435.439
-29.881	33.887	1673.712	1433.653
-28.867	34.036	1671.720	1433.013
-27.852	33.905	1670.683	1431.083
-26.838	34.079	1668.286	1430.279
-25.823	34.052	1667.010	1428.932
-24.809	33.992	1665.976	1427.536
-23.794	33.952	1664.988	1426.330
-22.779	34.003	1663.043	1424.992
-21.765	33.986	1661.455	1423.446
-20.750	33.929	1660.047	1421.754
-19.736	33.967	1658.429	1420.603
-18.721	34.018	1656.853	1419.575
-17.706	33.997	1655.156	1417.906
-16.692	34.016	1653.188	1416.303
-15.677	34.003	1651.924	1415.074
-14.663	34.025	1650.543	1413.995
-13.648	34.009	1649.387	1412.833
-12.633	34.003	1647.737	1411.313
-11.619	33.922	1646.505	1409.602
-10.604	33.999	1644.736	1408.605
-9.590	33.962	1643.370	1407.106
-8.575	34.085	1641.669	1406.500
-7.560	34.054	1640.616	1405.314
-6.546	34.050	1639.446	1404.229
-5.531	34.014	1638.293	1402.919
-4.517	34.084	1637.472	1402.674
-3.502	34.011	1635.996	1400.820
-2.487	34.089	1634.394	1399.961
-1.473	34.105	1623.896	1391.032
-0.458	31.893	1604.575	1358.423
0.556	27.079	1603.485	1321.162
1.571	23.795	1625.953	1315.296
2.586	22.312	1638.111	1313.946
3.600	19.387	1582.872	1248.385
4.615	10.783	1468.616	1100.142
5.629	2.862	1400.442	997.667
6.644	1.214	1391.809	980.782
7.659	1.167	1390.624	979.553
8.673	1.152	1389.015	978.239
9.688	1.047	1387.264	976.243
10.702	0.865	1383.916	972.633
11.717	4.034	1389.252	996.718
12.731	11.614	1401.029	1054.134
13.746	16.636	1406.989	1090.974
14.761	17.371	1408.018	1096.417
15.775	16.849	1406.496	1091.775
16.790	15.819	1404.172	1083.248
17.804	15.127	1401.412	1076.573
18.819	14.749	1400.135	1073.069
19.834	14.418	1398.562	1069.645
20.848	14.161	1397.011	1066.715
21.863	13.933	1395.570	1064.064
22.877	13.738	1394.293	1061.743
23.892	13.681	1393.959	1061.035
24.907	13.624	1392.694	1059.614
25.921	13.698	1392.292	1059.685
26.936	13.680	1391.560	1058.916
27.950	13.773	1390.055	1058.275
28.965	13.804	1388.976	1057.554
29.980	13.857	1387.991	1057.048
30.994	13.925	1387.400	1056.939
32.009	13.958	1386.156	1056.109
33.023	13.924	1384.824	1054.785
34.038	13.883	1384.254	1053.993
35.053	13.823	1382.541	1052.219
36.067	13.872	1381.810	1051.880
37.082	13.757	1381.140	1050.547
38.096	13.835	1379.831	1049.953
39.111	13.745	1378.904	1048.587
40.126	13.751	1378.311	1048.081
41.140	13.716	1377.311	1047.006
42.155	13.650	1377.047	1046.295
43.169	13.655	1376.816	1046.061
44.184	13.677	1376.929	1046.192
45.199	13.691	1376.319	1045.722
46.213	13.667	1375.749	1045.042
47.228	13.687	1374.764	1044.328
48.242	13.832	1373.159	1043.931
49.257	13.710	1371.985	1042.179
50.271	13.849	1370.146	1041.565
51.286	13.881	1368.679	1040.557
52.301	13.810	1368.011	1039.514
53.315	13.702	1367.238	1038.157
54.330	13.805	1365.889	1037.681
55.344	13.677	1364.820	1035.980
56.359	13.703	1363.949	1035.388
57.374	13.790	1362.121	1034.454
58.388	13.720	1361.811	1033.689
59.403	13.614	1361.925	1033.027
60.417	13.635	1360.766	1032.184
61.432	13.504	1360.000	1030.699
62.447	13.655	1358.562	1030.457
63.461	13.654	1357.182	1029.308
64.476	13.653	1356.127	1028.413
65.490	13.600	1355.179	1027.275
66.505	13.634	1353.290	1025.963
67.520	13.640	1352.466	1025.281
68.534	13.509	1351.934	1023.978
69.549	13.601	1350.337	1023.245
70.563	13.668	1348.851	1022.442
71.578	13.676	1347.536	1021.406
72.593	13.666	1346.780	1020.680
73.607	13.657	1345.699	1019.718
74.622	13.542	1345.545	1018.806
75.636	13.561	1344.374	1017.941
76.651	13.567	1344.041	1017.639
77.666	13.572	1342.815	1016.649
78.680	13.585	1342.545	1016.436
79.695	13.617	1341.882	1016.036
80.709	13.636	1340.833	1015.272
81.724	13.606	1340.121	1014.456
82.739	13.586	1339.113	1013.486
83.753	13.646	1337.915	1012.855
84.768	13.746	1336.853	1012.571
85.782	13.752	1335.559	1011.535
86.797	13.772	1334.529	1010.791
87.812	13.686	1333.355	1009.291
88.826	13.717	1331.993	1008.357
89.841	13.697	1331.231	1007.569
90.855	13.719	1329.974	1006.663
91.870	13.832	1329.175	1006.652
92.884	13.800	1328.392	1005.778
93.899	13.716	1327.948	1004.843
94.914	13.820	1326.966	1004.641
95.928	13.871	1326.019	1004.140
96.943	13.882	1324.965	1003.320
97.957	13.808	1324.132	1002.153
98.972	13.824	1323.130	1001.408
99.987	13.766	1322.100	1000.187
101.001	13.899	1320.816	999.931
102.016	13.858	1319.985	998.964
103.030	13.806	1319.448	998.160
104.045	13.805	1318.415	997.280
105.060	13.679	1317.020	995.382
106.074	13.696	1316.042	994.657
107.089	13.722	1314.919	993.874
108.103	13.662	1313.607	992.434
109.118	13.745	1311.987	991.618
110.133	13.702	1310.966	990.506
111.147	13.777	1309.593	989.829
112.162	13.758	1308.368	988.701
113.176	13.794	1307.235	987.974
114.191	13.674	1306.559	986.657
115.206	13.785	1305.130	986.150
116.220	13.779	1303.816	985.034
117.235	13.773	1302.816	984.158
118.249	13.656	1302.193	982.905
119.264	13.707	1301.098	982.297
120.279	13.683	1299.760	981.057
121.293	13.708	1298.844	980.426
122.308	13.702	1297.533	979.313
123.322	13.705	1296.547	978.500
124.337	13.677	1295.601	977.535
125.352	13.791	1294.256	977.106
126.366	13.736	1293.390	976.042
127.381	13.810	1291.936	975.292
128.395	13.750	1291.228	974.320
129.410	13.791	1290.452	973.889
130.424	13.805	1289.949	973.507
131.439	13.787	1288.846	972.482
132.454	13.931	1287.324	972.091
133.468	13.777	1286.874	970.762
134.483	13.864	1286.172	970.657
135.497	13.904	1284.547	969.580
136.512	13.821	1283.445	968.178
137.527	13.875	1281.697	967.084
138.541	13.818	1280.851	966.028
139.556	13.775	1279.920	964.992
140.570	13.832	1278.021	963.804
141.585	13.786	1277.043	962.717
142.600	13.872	1275.395	961.888
143.614	13.988	1274.565	961.850
144.629	13.863	1273.947	960.572
145.643	13.902	1272.607	959.705
146.658	13.856	1271.492	958.514
147.673	13.837	1269.904	957.117
148.687	13.792	1269.277	956.303
149.702	13.916	1267.311	955.452
150.716	13.877	1266.331	954.405
151.731	13.895	1265.058	953.463
152.746	13.959	1263.450	952.534
153.760	14.048	1262.511	952.252
154.775	13.986	1261.452	951.013
155.789	14.115	1260.001	950.573
156.804	14.140	1258.997	949.872
157.819	14.007	1258.255	948.471
158.833	14.069	1257.238	947.977
159.848	14.056	1256.624	947.353
160.862	14.081	1255.421	946.508
161.877	14.067	1254.222	945.436
162.892	14.015	1253.226	944.306
163.906	13.978	1252.201	943.241
164.921	14.075	1251.269	943.009
165.935	14.013	1250.748	942.182
166.950	14.079	1249.767	941.732
167.964	14.053	1248.865	940.822
168.979	14.076	1248.555	940.635
169.994	14.097	1247.652	939.988
171.008	14.139	1246.886	939.568
172.023	14.137	1245.896	938.724
173.037	14.102	1245.319	938.011
174.052	14.177	1244.207	937.511
175.067	14.076	1243.131	936.049
176.081	14.105	1242.220	935.443
177.096	14.092	1241.266	934.572
178.110	14.181	1240.151	934.149
179.125	14.167	1238.733	932.917
180.140	14.138	1237.438	931.699
181.154	14.264	1236.336	931.492
182.169	14.246	1235.433	930.629
183.183	14.221	1234.471	929.681
184.198	14.357	1232.881	929.161
185.213	14.343	1231.587	928.027
186.227	14.375	1230.753	927.493
187.242	14.354	1229.872	926.630
188.256	14.381	1228.598	925.738
189.271	14.358	1227.579	924.758
190.286	14.348	1226.731	923.985
191.300	14.270	1225.874	922.825
192.315	14.254	1225.610	922.457
193.329	14.173	1224.942	921.424
194.344	14.316	1223.655	921.163
195.359	14.362	1223.312	921.077
196.373	14.329	1222.837	920.455
197.388	14.424	1222.132	920.369
198.402	14.354	1221.910	919.733
199.417	14.498	1220.659	919.509
200.432	14.519	1220.264	919.244
201.446	14.462	1219.524	918.290
202.461	14.648	1217.950	918.046
203.475	14.542	1216.778	916.501
204.490	14.507	1215.751	915.454
205.504	14.609	1214.407	914.918
206.519	14.639	1213.362	914.217
207.534	14.460	1212.533	912.528
208.548	14.614	1211.238	912.318
209.563	14.640	1210.457	911.788
210.577	14.468	1209.682	910.187
211.592	14.570	1209.174	910.279
212.607	14.624	1208.120	909.703
213.621	14.574	1207.333	908.757
214.636	14.625	1206.276	908.158
215.650	14.608	1205.621	907.492
216.665	14.676	1204.602	907.014
217.680	14.774	1202.999	906.258
218.694	14.826	1202.273	905.909
219.709	14.804	1202.070	905.561
220.723	14.696	1201.135	904.189
221.738	14.854	1199.950	904.072
222.753	14.773	1199.153	902.954
223.767	14.807	1198.722	902.735
224.782	14.758	1198.129	901.942
225.796	14.925	1197.120	902.003
226.811	15.010	1196.567	901.967
227.826	14.893	1196.027	900.851
228.840	14.859	1195.317	900.049
229.855	14.782	1194.818	899.181
230.869	14.828	1193.978	898.716
231.884	14.888	1192.999	898.223
232.899	14.798	1192.001	896.908
233.913	14.856	1191.294	896.609
234.928	14.913	1190.754	896.431
235.942	14.804	1190.057	895.240
236.957	14.941	1189.087	895.164
237.972	14.866	1188.353	894.132
238.986	14.890	1187.751	893.726
240.001	14.845	1187.066	892.894
241.015	15.070	1185.559	892.881
242.030	14.930	1185.118	891.725
243.045	14.979	1184.551	891.481
244.059	15.009	1183.676	890.899
245.074	15.102	1182.675	890.565
246.088	15.127	1182.078	890.170
247.103	15.080	1181.012	889.039
248.117	15.217	1180.063	888.971
249.132	15.163	1179.481	888.167
250.147	15.154	1179.179	887.815
251.161	15.207	1178.149	887.244
252.176	15.267	1177.464	886.963
253.190	15.328	1176.510	886.489
254.205	15.338	1175.880	885.988
255.220	15.418	1175.372	885.950
256.234	15.349	1174.787	885.069
257.249	15.418	1174.004	884.763
258.263	15.283	1173.761	883.787
259.278	15.384	1172.782	883.505
260.293	15.472	1172.122	883.391
261.307	15.432	1171.683	882.772
262.322	15.420	1171.026	882.140
263.336	15.446	1170.252	881.615
264.351	15.495	1169.766	881.424
265.366	15.539	1168.994	881.000
266.380	15.611	1168.159	880.665
267.395	15.496	1167.748	879.676
268.409	15.496	1167.047	879.073
269.424	15.682	1165.954	879.145
270.439	15.448	1165.607	877.580
271.453	15.511	1164.807	877.229
272.468	15.648	1163.291	876.725
273.482	15.585	1162.888	876.016
274.497	15.584	1162.424	875.584
275.512	15.680	1161.619	875.397
276.526	15.666	1160.684	874.544
277.541	15.636	1159.990	873.786
278.555	15.742	1159.001	873.515
279.570	15.750	1158.255	872.917
280.585	15.769	1157.549	872.406
281.599	15.762	1156.528	871.524
282.614	15.746	1155.436	870.543
283.628	15.836	1154.192	869.993
284.643	15.743	1153.903	869.217
285.657	15.840	1153.119	869.050
286.672	15.843	1151.793	867.990
287.687	15.886	1151.080	867.599
288.701	15.807	1150.509	866.683
289.716	15.808	1149.416	865.787
290.730	15.860	1148.888	865.582
291.745	15.837	1148.430	865.042
292.760	15.969	1147.425	864.884
293.774	15.944	1147.000	864.361
294.789	16.006	1146.681	864.361
295.803	15.977	1145.731	863.418
296.818	15.927	1145.233	862.715
297.833	15.942	1144.556	862.205
298.847	15.969	1143.252	861.283
299.862	16.018	1142.409	860.820
300.876	15.968	1141.811	860.038
301.891	16.063	1140.922	859.780
302.906	16.018	1140.550	859.190
303.920	16.102	1139.750	858.941
304.935	16.055	1139.115	858.149
305.949	16.301	1138.366	858.760
306.964	16.220	1137.668	857.747
307.979	16.202	1136.965	857.049
308.993	16.122	1136.451	856.179
310.008	16.260	1135.558	856.131
311.022	16.208	1134.950	855.334
312.037	16.278	1133.717	854.683
313.052	16.310	1132.439	853.804
314.066	16.167	1132.133	852.774
315.081	16.174	1131.060	851.926
316.095	16.203	1130.631	851.677
317.110	16.226	1129.201	850.638
318.125	16.243	1129.175	850.628
319.139	16.281	1128.179	849.995
320.154	16.128	1127.552	848.678
321.168	16.241	1127.134	848.855
322.183	16.233	1126.248	848.072
323.197	16.309	1125.818	848.056
324.212	16.422	1124.858	847.824
325.227	16.363	1124.740	847.363
326.241	16.395	1124.203	847.046
327.256	16.414	1122.801	846.009
328.270	16.386	1121.921	845.131
329.285	16.304	1121.164	844.074
330.300	16.338	1119.970	843.272
331.314	16.337	1119.123	842.557
332.329	16.326	1118.451	841.919
333.343	16.378	1117.330	841.260
334.358	16.402	1116.681	840.815
335.373	16.382	1115.951	840.094
336.387	16.514	1114.805	839.812
337.402	16.498	1114.523	839.446
338.416	16.469	1113.691	838.602
339.431	16.555	1112.852	838.324
340.446	16.488	1112.449	837.611
341.460	16.631	1111.828	837.777
342.475	16.635	1110.813	836.959
343.489	16.642	1109.610	836.016
344.504	16.816	1108.191	835.727
345.519	16.823	1107.809	835.401
346.533	16.808	1107.169	834.771
347.548	16.640	1107.025	833.762
348.562	16.828	1105.458	833.434
349.577	16.756	1105.297	832.882
350.592	16.812	1104.210	832.262
351.606	16.759	1103.408	831.327
352.621	16.794	1102.738	830.917
353.635	16.756	1102.293	830.325
354.650	16.688	1101.492	829.314
355.665	16.743	1100.847	829.025
356.679	16.704	1100.036	828.151
357.694	16.780	1099.625	828.137
358.708	16.850	1098.606	827.638
359.723	16.866	1098.215	827.348
360.738	17.018	1097.362	827.376
361.752	16.826	1097.332	826.341
362.767	16.855	1096.723	825.952
363.781	16.934	1096.279	825.930
364.796	16.923	1095.479	825.202
365.810	16.989	1094.576	824.767
366.825	17.067	1093.635	824.363
367.840	17.042	1093.470	824.047
368.854	17.063	1092.879	823.631
369.869	17.176	1092.114	823.528
370.883	17.159	1090.964	822.504
371.898	17.033	1090.071	821.150
372.913	17.053	1089.574	820.799
373.927	17.098	1089.318	820.750
374.942	17.059	1088.816	820.115
375.956	17.114	1088.525	820.087
376.971	17.284	1087.689	820.205
377.986	17.176	1086.953	819.057
379.000	17.206	1085.981	818.396
380.015	17.367	1085.666	818.862
381.029	17.293	1084.853	817.818
382.044	17.268	1084.484	817.347
383.059	17.330	1083.828	817.082
384.073	17.259	1083.026	816.062
385.088	17.397	1081.898	815.804
386.102	17.317	1081.312	814.905
387.117	17.499	1079.614	814.425
388.132	17.387	1079.008	813.357
389.146	17.417	1077.983	812.659
390.161	17.330	1077.537	811.833
391.175	17.290	1077.296	811.391
392.190	17.291	1076.672	810.853
393.205	17.465	1075.810	810.960
394.219	17.384	1074.817	809.754
395.234	17.501	1073.766	809.449
396.248	17.386	1072.639	807.982
397.263	17.483	1071.906	807.820
398.278	17.522	1070.958	807.215
399.292	17.548	1070.527	806.942
400.307	17.544	1069.532	806.103
401.321	17.536	1069.328	805.841
402.336	17.592	1068.546	805.446
403.350	17.540	1068.079	804.774
404.365	17.529	1067.467	804.190
405.380	17.503	1066.680	803.402
406.394	17.571	1065.640	802.870
407.409	17.638	1064.521	802.271
408.423	17.695	1064.187	802.218
409.438	17.750	1063.136	801.614
410.453	17.679	1062.789	800.949
411.467	17.694	1061.898	800.275
412.482	17.791	1061.397	800.283
413.496	17.699	1060.625	799.199
414.511	17.800	1059.729	798.924
415.526	17.826	1059.571	798.855
416.540	17.791	1059.467	798.545
417.555	17.895	1058.575	798.285
418.569	17.818	1058.241	797.606
419.584	17.963	1057.539	797.681
420.599	17.920	1056.786	796.844
421.613	100.412	1316.919	1446.780
422.628	92.649	1354.805	1446.902
