DTS Sentinel unit serial number:	SN413079Multiplexer serial number:	ORYXHardware model number:	OX4-SRSoftware version number:	ORYX F/W v4.00 Oryx Data Collector v3.7.2.0data status	okinstallation	princeton_trtdifferential loss correction	single-endedforward channel	channel 2reverse channel	N/Adate	2019/09/11time	22:13:11forward acquisition time	60.00reverse acquisition time	0.00gamma	496.2192k internal	0.2325k external	0.2325temperature offset calibration	1.0070default loss term (dB/km)	0.3790temperature slope calibration	1.0000multiplexer offset coefficient	1.0000multiplexer slope coefficient	1.0000fibre end	0.00T internal ref (°C)	35.31T ext. ref 1 (°C)	1.73T ext. ref 2 (°C)	29.76length (m)	temperature (°C)	Stokes	anti-Stokes-747.200	-23.386	0.130	-0.079
-746.185	68.116	0.232	0.240
-745.171	-200.000	-0.016	-0.257
-744.156	-142.524	-0.127	0.013
-743.142	-139.418	-0.126	-0.014
-742.127	19.568	0.263	0.214
-741.112	-94.245	-0.258	-0.071
-740.098	11.942	0.283	0.219
-739.083	-182.968	0.262	0.005
-738.069	154.523	-0.021	0.029
-737.054	-200.000	-0.014	0.131
-736.039	800.000	-0.089	-0.308
-735.025	800.000	0.052	0.200
-734.010	-121.933	-0.149	-0.025
-732.996	-60.852	-0.155	0.066
-731.981	155.952	-0.269	0.375
-730.966	800.000	0.038	-0.157
-729.952	-52.859	-0.113	0.052
-728.937	-30.790	-0.243	-0.138
-727.923	238.845	-0.097	-0.162
-726.908	158.747	0.210	-0.294
-725.894	-200.000	0.054	0.376
-724.879	-3.515	0.239	0.167
-723.864	-200.000	0.021	0.099
-722.850	468.990	0.103	0.232
-721.835	85.844	-0.307	0.340
-720.821	15.632	0.071	0.056
-719.806	-172.880	-0.229	-0.007
-718.791	-200.000	-0.515	-0.002
-717.777	236.577	-0.113	0.189
-716.762	-200.000	0.008	0.385
-715.748	-200.000	-0.089	-0.000
-714.733	224.168	0.119	-0.194
-713.718	-40.031	-0.102	0.053
-712.704	-166.745	0.309	0.013
-711.689	-54.525	-0.202	-0.092
-710.675	-27.598	-0.231	-0.135
-709.660	-200.000	0.004	-0.188
-708.645	-200.000	-0.043	0.193
-707.631	153.436	0.050	-0.069
-706.616	40.389	0.187	0.170
-705.602	-200.000	-0.037	-0.281
-704.587	55.158	0.113	-0.110
-703.572	800.000	-0.047	0.180
-702.558	-200.000	-0.003	0.051
-701.543	-164.564	0.093	0.004
-700.529	205.845	0.182	0.285
-699.514	-200.000	-0.010	-0.165
-698.499	-58.889	-0.264	-0.115
-697.485	800.000	-0.175	0.612
-696.470	119.409	-0.079	0.099
-695.456	-200.000	-0.053	-0.311
-694.441	-200.000	0.017	-0.168
-693.426	499.022	-0.088	-0.205
-692.412	-55.429	0.124	-0.056
-691.397	-60.386	0.161	-0.069
-690.383	-200.000	0.046	-0.280
-689.368	165.742	-0.263	-0.374
-688.354	50.892	0.174	-0.166
-687.339	-55.148	0.272	-0.123
-686.324	176.925	0.173	-0.254
-685.310	-122.231	0.188	-0.031
-684.295	-100.338	-0.229	-0.057
-683.281	-60.331	0.152	0.065
-682.266	800.000	-0.022	0.082
-681.251	226.076	0.104	0.170
-680.237	49.367	-0.252	0.239
-679.222	-161.780	0.190	0.010
-678.208	16.929	-0.386	0.308
-677.193	173.515	0.091	-0.132
-676.178	406.884	0.035	0.074
-675.164	-147.119	0.272	0.023
-674.149	-59.239	0.128	0.055
-673.135	346.428	0.111	-0.220
-672.120	-200.000	-0.030	-0.567
-671.105	-200.000	0.052	-0.302
-670.091	-14.671	0.260	-0.168
-669.076	-200.000	-0.011	0.218
-668.062	131.412	-0.291	-0.376
-667.047	-100.848	0.147	0.036
-666.032	-150.223	-0.301	-0.023
-665.018	218.944	-0.088	0.142
-664.003	-200.000	0.004	0.034
-662.989	-83.234	0.127	-0.041
-661.974	-181.926	-0.200	0.004
-660.959	601.618	0.033	-0.082
-659.945	-112.824	0.122	0.024
-658.930	-200.000	0.029	0.155
-657.916	-200.000	0.003	0.075
-656.901	-117.639	-0.068	0.012
-655.886	1.833	-0.144	0.105
-654.872	800.000	0.067	0.195
-653.857	69.509	-0.141	0.146
-652.843	-200.000	-0.052	-0.261
-651.828	153.538	0.011	0.015
-650.814	-140.493	-0.599	0.063
-649.799	-200.000	-0.012	-0.181
-648.784	78.439	-0.218	-0.234
-647.770	-125.808	0.130	-0.020
-646.755	305.825	0.080	-0.149
-645.741	-200.000	0.016	-0.351
-644.726	290.881	-0.070	0.129
-643.711	-145.068	0.344	-0.031
-642.697	200.936	0.071	-0.109
-641.682	-93.050	0.220	0.062
-640.668	55.043	0.115	-0.112
-639.653	-5.804	0.097	-0.067
-638.638	-200.000	0.054	-0.289
-637.624	185.762	-0.133	-0.199
-636.609	-200.000	-0.014	-0.114
-635.595	-133.632	0.162	0.020
-634.580	-200.000	0.007	0.211
-633.565	-200.000	-0.016	0.144
-632.551	-92.514	-0.109	0.031
-631.536	107.608	-0.138	0.165
-630.522	800.000	0.059	0.193
-629.507	-114.688	0.130	-0.025
-628.492	-126.237	-0.372	-0.056
-627.478	-141.130	-0.256	0.026
-626.463	-37.770	-0.430	0.230
-625.449	33.445	0.229	-0.200
-624.434	280.230	0.126	-0.225
-623.419	-162.364	0.038	0.002
-622.405	-199.329	0.428	-0.002
-621.390	-200.000	0.024	-0.205
-620.376	189.089	-0.135	0.202
-619.361	-72.116	0.211	0.079
-618.346	80.889	0.101	-0.109
-617.332	-200.000	-0.029	-0.333
-616.317	83.509	0.186	-0.204
-615.303	-200.000	0.017	-0.399
-614.288	-127.017	0.153	0.022
-613.273	429.842	0.114	0.247
-612.259	93.316	0.213	0.242
-611.244	-33.037	0.241	0.134
-610.230	-40.707	-0.151	-0.079
-609.215	-73.658	0.300	0.110
-608.201	-24.118	0.198	-0.119
-607.186	-86.880	0.021	0.007
-606.171	-200.000	0.031	-0.172
-605.157	-117.971	-0.182	0.033
-604.142	-200.000	0.004	-0.039
-603.128	-78.696	-0.302	0.103
-602.113	51.332	-0.147	0.140
-601.098	-200.000	-0.034	0.355
-600.084	-200.000	-0.054	0.336
-599.069	331.709	0.194	-0.376
-598.055	-200.000	-0.264	0.000
-597.040	-75.773	0.304	0.108
-596.025	207.568	-0.142	-0.223
-595.011	800.000	-0.056	-0.162
-593.996	-106.841	0.206	-0.046
-592.982	800.000	0.090	0.358
-591.967	-137.368	0.249	0.028
-590.952	-79.946	0.223	0.075
-589.938	800.000	-0.086	0.295
-588.923	24.566	0.094	0.078
-587.909	-66.005	-0.225	-0.090
-586.894	12.150	0.243	0.188
-585.879	-140.371	0.314	0.033
-584.865	16.047	0.182	0.144
-583.850	-200.000	-0.015	-0.100
-582.836	-200.000	0.054	-0.465
-581.821	-58.367	0.056	0.024
-580.806	-25.882	-0.199	0.117
-579.792	-78.831	0.374	0.128
-578.777	-58.701	0.149	-0.065
-577.763	-200.000	0.000	-0.176
-576.748	-84.736	0.112	-0.035
-575.733	-72.625	-0.095	0.035
-574.719	800.000	-0.048	0.133
-573.704	-116.711	-0.181	0.033
-572.690	-41.756	-0.305	0.157
-571.675	-84.490	-0.242	-0.077
-570.661	800.000	0.065	-0.211
-569.646	-200.000	-0.011	-0.257
-568.631	-51.743	-0.205	0.096
-567.617	-73.166	-0.113	0.042
-566.602	-75.155	0.053	0.019
-565.588	-200.000	0.011	0.068
-564.573	47.457	0.198	-0.185
-563.558	745.509	-0.141	-0.381
-562.544	-60.888	0.295	-0.125
-561.529	59.829	-0.110	-0.109
-560.515	39.339	0.229	-0.206
-559.500	272.980	0.174	0.309
-558.485	-52.131	0.186	-0.086
-557.471	0.433	-0.230	0.165
-556.456	217.991	0.114	-0.182
-555.442	97.451	-0.134	-0.154
-554.427	-200.000	-0.031	-0.229
-553.412	69.152	-0.223	-0.230
-552.398	-73.781	-0.082	-0.030
-551.383	-94.631	-0.193	0.053
-550.369	-200.000	0.026	-0.113
-549.354	272.180	-0.061	-0.108
-548.339	800.000	0.049	-0.154
-547.325	-200.000	-0.021	-0.307
-546.310	-152.736	-0.064	0.005
-545.296	-200.000	0.001	0.395
-544.281	-68.045	0.332	-0.130
-543.266	-200.000	0.006	-0.125
-542.252	800.000	-0.121	0.379
-541.237	121.789	0.120	-0.150
-540.223	1.403	-0.137	0.099
-539.208	798.493	0.033	-0.092
-538.193	229.686	0.028	0.045
-537.179	-163.599	0.225	0.011
-536.164	-200.000	-0.004	0.018
-535.150	800.000	-0.044	-0.160
-534.135	-162.680	-0.233	-0.011
-533.121	63.783	0.067	-0.067
-532.106	-58.885	0.167	-0.072
-531.091	301.742	0.173	0.320
-530.077	800.000	0.034	0.098
-529.062	-68.655	-0.268	0.104
-528.048	-63.568	0.043	-0.018
-527.033	-61.151	0.370	-0.156
-526.018	-200.000	0.021	0.167
-525.004	571.517	-0.090	-0.218
-523.989	-185.139	-0.154	-0.002
-522.975	-88.255	-0.234	0.070
-521.960	359.327	-0.077	-0.155
-520.945	-50.362	0.077	0.036
-519.931	215.609	-0.042	-0.067
-518.916	-45.860	-0.289	-0.143
-517.902	383.689	0.128	-0.264
-516.887	800.000	0.054	-0.187
-515.872	696.718	0.114	0.298
-514.858	221.270	0.112	-0.181
-513.843	-19.162	-0.261	-0.162
-512.829	-200.000	0.005	-0.059
-511.814	-119.673	-0.299	0.052
-510.799	62.987	-0.054	0.054
-509.785	10.499	0.055	-0.042
-508.770	-200.000	0.004	-0.146
-507.756	800.000	-0.064	0.220
-506.741	103.021	-0.031	-0.037
-505.726	221.435	0.097	0.155
-504.712	800.000	-0.071	-0.302
-503.697	800.000	-0.046	0.153
-502.683	-51.419	-0.222	-0.104
-501.668	-84.324	0.267	0.085
-500.653	528.698	0.111	0.262
-499.639	245.258	-0.263	0.443
-498.624	30.580	0.313	0.267
-497.610	432.899	-0.063	0.137
-496.595	-185.877	-0.282	-0.004
-495.581	-200.000	-0.069	-0.434
-494.566	-100.560	0.173	0.043
-493.551	-104.780	-0.295	0.068
-492.537	38.750	0.366	-0.327
-491.522	44.619	0.034	-0.032
-490.508	-146.312	-0.185	-0.016
-489.493	-167.689	-0.202	0.008
-488.478	164.503	-0.122	-0.172
-487.464	798.629	-0.088	-0.242
-486.449	517.965	-0.064	-0.151
-485.435	-34.380	0.257	0.141
-484.420	800.000	0.072	-0.309
-483.405	-200.000	0.065	0.306
-482.391	94.076	-0.148	0.168
-481.376	238.979	-0.221	-0.367
-480.362	-12.157	0.033	-0.022
-479.347	-8.772	0.022	-0.015
-478.332	12.360	0.132	-0.101
-477.318	-156.075	-0.249	0.016
-476.303	-142.926	-0.209	0.020
-475.289	113.093	0.203	-0.245
-474.274	800.000	-0.071	0.205
-473.259	-80.730	-0.265	0.088
-472.245	-157.493	0.463	-0.028
-471.230	-93.777	0.132	-0.036
-470.216	-78.928	0.113	-0.038
-469.201	-26.861	0.177	0.103
-468.186	541.863	0.102	-0.242
-467.172	-200.000	-0.367	0.001
-466.157	-136.888	0.130	-0.015
-465.143	-89.898	-0.332	-0.097
-464.128	-200.000	0.023	0.154
-463.113	-152.734	0.161	-0.011
-462.099	-130.458	-0.158	-0.021
-461.084	-3.512	0.352	0.245
-460.070	653.740	0.137	-0.352
-459.055	-39.355	-0.121	0.064
-458.040	-57.025	0.277	-0.122
-457.026	465.393	0.075	-0.168
-456.011	-166.243	0.291	0.012
-454.997	-200.000	0.076	-0.464
-453.982	149.028	-0.040	0.053
-452.968	-170.642	-0.102	0.004
-451.953	65.409	0.123	0.125
-450.938	286.701	0.220	0.397
-449.924	-85.915	0.312	-0.096
-448.909	-100.890	-0.088	-0.022
-447.895	-200.000	0.044	-0.240
-446.880	414.081	-0.082	0.173
-445.865	-142.700	0.227	-0.022
-444.851	323.484	0.134	0.256
-443.836	800.000	0.052	-0.214
-442.822	196.909	-0.132	0.200
-441.807	800.000	0.066	0.211
-440.792	79.525	-0.110	0.117
-439.778	-0.417	0.205	-0.145
-438.763	36.840	0.298	0.263
-437.749	-144.725	-0.152	-0.014
-436.734	51.909	0.064	-0.061
-435.719	-200.000	0.033	0.231
-434.705	-200.000	-0.048	-0.351
-433.690	30.919	-0.154	0.132
-432.676	-119.086	-0.070	0.012
-431.661	53.552	0.075	0.072
-430.646	-185.589	-0.283	0.004
-429.632	-200.000	-0.017	-0.166
-428.617	100.676	-0.169	-0.196
-427.603	53.343	-0.223	-0.213
-426.588	366.920	0.230	-0.464
-425.573	-39.824	-0.116	-0.060
-424.559	800.000	0.095	-0.302
-423.544	330.085	0.037	-0.070
-422.530	800.000	-0.132	-0.402
-421.515	-90.563	-0.289	-0.083
-420.500	43.780	-0.056	0.051
-419.486	800.000	0.100	-0.309
-418.471	-31.984	0.205	0.114
-417.457	800.000	-0.008	0.026
-416.442	-200.000	0.004	-0.218
-415.428	140.042	-0.058	-0.076
-414.413	-151.759	-0.160	-0.012
-413.398	800.000	0.082	0.279
-412.384	435.832	0.011	-0.023
-411.369	-36.425	-0.108	-0.058
-410.355	-37.923	0.250	-0.132
-409.340	14.686	0.266	0.207
-408.325	-75.806	0.159	0.056
-407.311	137.519	0.071	0.093
-406.296	800.000	0.028	-0.100
-405.282	-200.000	0.016	0.152
-404.267	735.457	-0.099	0.265
-403.252	-124.013	-0.263	0.041
-402.238	-122.605	-0.469	0.076
-401.223	-200.000	0.025	0.184
-400.209	-150.798	-0.300	0.023
-399.194	282.927	0.180	0.321
-398.179	379.592	-0.063	0.128
-397.165	-118.966	-0.221	0.039
-396.150	248.514	0.047	-0.078
-395.136	-30.891	-0.064	0.036
-394.121	-49.969	0.155	0.073
-393.106	-8.930	0.150	0.100
-392.092	222.520	-0.111	0.178
-391.077	-93.299	0.190	0.053
-390.063	-200.000	0.020	0.172
-389.048	-76.467	-0.200	0.070
-388.033	141.778	-0.148	0.196
-387.019	-200.000	0.012	0.325
-386.004	-135.173	0.131	0.016
-384.990	65.371	0.131	0.132
-383.975	-200.000	-0.018	0.146
-382.960	80.409	-0.245	-0.263
-381.946	131.420	-0.119	0.152
-380.931	136.446	-0.179	-0.232
-379.917	-200.000	-0.038	0.363
-378.902	800.000	0.014	0.044
-377.888	175.710	-0.074	-0.106
-376.873	-71.660	-0.170	0.063
-375.858	374.770	-0.057	-0.116
-374.844	233.208	-0.081	0.132
-373.829	662.047	-0.148	0.380
-372.815	1.268	0.209	0.150
-371.800	-200.000	-0.022	0.111
-370.785	-200.000	0.024	-0.341
-369.771	-44.367	0.209	0.104
-368.756	178.380	-0.042	-0.061
-367.742	-143.950	0.307	0.029
-366.727	285.968	0.146	-0.262
-365.712	107.155	-0.190	0.224
-364.698	-200.000	0.011	-0.210
-363.683	-2.079	-0.069	-0.048
-362.669	-200.000	0.019	-0.244
-361.654	44.927	-0.133	-0.122
-360.639	-62.581	0.133	0.055
-359.625	2.593	-0.181	0.130
-358.610	800.000	-0.068	-0.262
-357.596	237.416	-0.222	-0.365
-356.581	-79.602	-0.203	-0.068
-355.566	30.853	-0.298	-0.254
-354.552	118.859	0.155	0.190
-353.537	-29.934	-0.321	0.182
-352.523	-200.000	-0.054	-0.272
-351.508	-13.235	0.171	-0.110
-350.493	105.707	-0.117	0.138
-349.479	800.000	0.091	-0.317
-348.464	38.472	0.197	0.175
-347.450	-146.436	0.342	0.030
-346.435	-200.000	0.025	0.164
-345.420	-46.764	-0.256	0.125
-344.406	191.685	-0.058	0.086
-343.391	91.951	-0.141	0.158
-342.377	-28.771	-0.351	0.201
-341.362	800.000	0.030	-0.107
-340.348	-10.314	-0.203	-0.134
-339.333	-76.947	0.077	-0.027
-338.318	-35.950	0.053	-0.029
-337.304	173.268	0.170	0.243
-336.289	-129.193	0.108	0.015
-335.275	-35.524	-0.134	0.072
-334.260	800.000	-0.046	0.137
-333.245	561.526	0.100	0.241
-332.231	-171.479	-0.176	-0.006
-331.216	-106.379	-0.363	-0.081
-330.202	44.578	0.256	-0.233
-329.187	18.449	-0.281	0.223
-328.172	-200.000	-0.033	0.244
-327.158	46.168	0.188	-0.173
-326.143	-145.134	-0.408	-0.037
-325.129	-200.000	-0.011	-0.127
-324.114	160.965	-0.076	0.105
-323.099	8.132	0.164	0.122
-322.085	-8.706	0.138	-0.092
-321.070	-52.674	-0.113	-0.052
-320.056	-200.000	0.001	0.409
-319.041	800.000	-0.073	0.258
-318.026	28.557	-0.277	0.233
-317.012	-57.831	-0.296	-0.129
-315.997	-200.000	-0.011	-0.104
-314.983	115.209	-0.029	0.035
-313.968	48.188	0.029	0.027
-312.953	-86.514	0.166	-0.050
-311.939	-31.614	-0.485	-0.270
-310.924	4.244	0.183	0.133
-309.910	-155.626	-0.143	-0.009
-308.895	-129.649	0.390	0.053
-307.880	54.769	0.181	0.173
-306.866	51.391	0.180	0.170
-305.851	800.000	-0.136	0.376
-304.837	800.000	-0.041	0.141
-303.822	-24.288	-0.077	0.045
-302.807	-200.000	0.040	-0.218
-301.793	800.000	-0.060	-0.226
-300.778	-81.249	0.322	0.105
-299.764	75.798	-0.133	0.140
-298.749	306.745	0.140	0.258
-297.735	800.000	-0.001	0.003
-296.720	170.993	-0.048	-0.068
-295.705	-200.000	-0.005	0.142
-294.691	800.000	0.083	0.343
-293.676	17.480	0.192	0.152
-292.662	97.466	-0.160	0.182
-291.647	630.039	0.053	-0.134
-290.632	-62.316	-0.347	0.143
-289.618	-185.836	-0.153	-0.002
-288.603	128.479	-0.121	0.152
-287.589	-1.955	0.228	0.159
-286.574	534.510	-0.119	-0.280
-285.559	800.000	0.065	0.193
-284.545	-56.428	-0.194	-0.085
-283.530	-104.947	0.305	0.069
-282.516	58.690	0.057	0.056
-281.501	-106.569	0.252	0.056
-280.486	528.216	-0.072	0.169
-279.472	-89.840	0.174	-0.050
-278.457	432.892	-0.090	0.193
-277.443	-200.000	-0.047	0.550
-276.428	22.016	0.347	0.280
-275.413	-200.000	0.053	-0.374
-274.399	800.000	0.046	-0.151
-273.384	-200.000	0.031	0.246
-272.370	-59.001	-0.409	0.175
-271.355	-28.194	0.074	-0.043
-270.340	-200.000	0.033	-0.266
-269.326	102.344	-0.106	-0.123
-268.311	89.495	0.081	-0.089
-267.297	243.963	-0.159	0.264
-266.282	12.108	-0.176	-0.134
-265.267	800.000	0.084	0.240
-264.253	-108.057	-0.242	0.052
-263.238	-80.380	-0.123	-0.041
-262.224	-200.000	0.000	-0.182
-261.209	62.196	0.031	-0.030
-260.195	223.545	0.029	0.047
-259.180	89.671	-0.052	-0.058
-258.165	-200.000	-0.041	0.237
-257.151	-41.211	-0.175	-0.089
-256.136	83.636	0.357	-0.386
-255.122	-200.000	-0.025	0.390
-254.107	-200.000	-0.044	-0.370
-253.092	-68.132	0.346	-0.134
-252.078	12.714	0.069	0.053
-251.063	-30.475	-0.149	0.084
-250.049	71.533	0.210	0.216
-249.034	48.445	0.118	0.109
-248.019	800.000	0.041	-0.121
-247.005	65.688	-0.080	0.080
-245.990	-141.839	0.071	-0.007
-244.976	-68.547	0.061	0.024
-243.961	227.964	0.110	-0.177
-242.946	-12.332	-0.104	0.067
-241.932	-200.000	-0.019	0.115
-240.917	94.434	0.176	-0.198
-239.903	800.000	0.058	-0.170
-238.888	127.415	-0.100	0.125
-237.873	-200.000	-0.037	-0.236
-236.859	-88.590	-0.167	-0.049
-235.844	158.570	0.082	0.112
-234.830	-125.466	-0.161	0.024
-233.815	-77.840	-0.098	0.034
-232.800	-26.154	-0.213	0.124
-231.786	-200.000	0.018	0.327
-230.771	-200.000	0.021	0.359
-229.757	-200.000	-0.003	0.263
-228.742	75.228	-0.074	0.077
-227.727	-200.000	0.009	0.437
-226.713	3.208	0.045	0.033
-225.698	-200.000	-0.354	0.001
-224.684	262.733	-0.075	-0.129
-223.669	-22.561	0.189	0.113
-222.655	-200.000	-0.002	0.152
-221.640	-114.609	0.248	-0.047
-220.625	-200.000	-0.066	0.404
-219.611	162.010	-0.033	0.046
-218.596	84.020	-0.149	-0.161
-217.582	800.000	0.022	-0.080
-216.567	-54.233	0.431	0.193
-215.552	-200.000	-0.015	-0.193
-214.538	-200.000	-0.013	-0.113
-213.523	397.885	0.078	0.162
-212.509	331.606	-0.173	0.329
-211.494	-200.000	-0.019	-0.293
-210.479	-59.236	-0.355	-0.151
-209.465	600.413	0.144	-0.354
-208.450	-200.000	0.031	0.180
-207.436	72.015	0.124	0.128
-206.421	-63.082	0.324	-0.132
-205.406	-141.800	0.205	-0.020
-204.392	800.000	-0.043	0.143
-203.377	-99.527	-0.181	0.045
-202.363	-125.601	0.475	0.071
-201.348	111.293	-0.029	-0.034
-200.333	800.000	0.039	0.159
-199.319	-65.284	0.242	-0.096
-198.304	-19.444	0.187	-0.114
-197.290	-134.539	-0.284	0.034
-196.275	-200.000	-0.032	0.237
-195.260	-166.687	-0.472	-0.019
-194.246	-30.102	0.314	0.176
-193.231	-200.000	-0.009	-0.152
-192.217	442.780	-0.031	-0.068
-191.202	-200.000	0.045	0.000
-190.187	125.110	-0.108	-0.134
-189.173	356.609	0.217	-0.426
-188.158	114.273	-0.099	-0.119
-187.144	-200.000	0.007	0.202
-186.129	-200.000	0.027	0.166
-185.114	-53.664	-0.128	0.058
-184.100	42.700	0.217	-0.195
-183.085	99.914	-0.153	-0.175
-182.071	124.834	-0.036	0.044
-181.056	36.686	0.165	0.144
-180.042	800.000	-0.127	-0.430
-179.027	-200.000	0.003	-0.039
-178.012	4.851	-0.218	-0.159
-176.998	597.667	0.117	0.286
-175.983	-200.000	0.001	0.190
-174.969	800.000	0.040	-0.133
-173.954	-200.000	-0.045	-0.383
-172.939	633.562	0.061	0.154
-171.925	33.018	-0.132	0.113
-170.910	35.716	-0.205	-0.178
-169.896	800.000	0.037	0.128
-168.881	-200.000	0.043	-0.239
-167.866	-139.941	0.207	-0.022
-166.852	-200.000	-0.041	0.228
-165.837	2.683	0.084	0.060
-164.823	800.000	-0.091	0.375
-163.808	-200.000	0.424	0.000
-162.793	-200.000	0.083	-0.455
-161.779	-8.211	0.033	-0.022
-160.764	-24.868	-0.163	-0.095
-159.750	-16.466	0.100	0.062
-158.735	138.888	-0.104	-0.135
-157.720	800.000	-0.078	-0.287
-156.706	195.512	-0.124	-0.186
-155.691	-85.443	-0.190	0.058
-154.677	-200.000	0.021	-0.224
-153.662	141.538	-0.204	-0.267
-152.647	98.666	-0.131	-0.149
-151.633	523.985	0.018	-0.042
-150.618	17.565	0.365	0.286
-149.604	-155.326	0.239	-0.015
-148.589	-120.100	-0.252	0.043
-147.574	-152.695	-0.263	0.018
-146.560	-200.000	0.002	-0.072
-145.545	-49.162	-0.152	0.072
-144.531	-78.449	0.240	-0.081
-143.516	89.634	-0.271	-0.299
-142.502	-54.582	-0.137	0.061
-141.487	24.274	0.158	-0.128
-140.472	163.719	0.207	-0.287
-139.458	81.204	-0.127	0.136
-138.443	-200.000	-0.001	0.046
-137.429	-99.376	0.131	-0.033
-136.414	-145.442	0.199	0.018
-135.399	-57.367	0.069	0.030
-134.385	-51.160	0.421	-0.194
-133.370	-71.560	-0.178	0.066
-132.356	-76.167	-0.136	0.047
-131.341	-158.620	0.310	0.018
-130.326	84.645	-0.357	-0.385
-129.312	-200.000	-0.019	0.124
-128.297	-102.155	0.231	0.055
-127.283	-37.122	-0.166	0.087
-126.268	389.043	0.098	0.201
-125.253	121.113	-0.101	0.124
-124.239	-162.483	-0.074	-0.004
-123.224	-3.666	0.043	-0.029
-122.210	800.000	-0.067	-0.279
-121.195	57.572	-0.309	-0.297
-120.180	15.024	0.505	-0.389
-119.166	-32.562	0.271	-0.149
-118.151	203.897	0.046	0.071
-117.137	-5.566	0.199	-0.134
-116.122	-163.968	0.491	0.023
-115.107	800.000	-0.021	0.063
-114.093	-100.112	-0.167	0.041
-113.078	-30.497	-0.083	-0.046
-112.064	738.839	-0.031	-0.081
-111.049	501.867	-0.230	0.523
-110.034	0.540	-0.280	-0.197
-109.020	-68.973	0.262	0.099
-108.005	-200.000	0.035	0.159
-106.991	-200.000	-0.014	0.193
-105.976	188.013	0.025	-0.036
-104.962	800.000	0.071	0.223
-103.947	-200.000	-0.033	0.172
-102.932	-58.600	-0.182	-0.078
-101.918	-123.809	0.307	-0.048
-100.903	800.000	-0.059	0.211
-99.889	93.262	0.084	0.093
-98.874	2.254	0.338	0.241
-97.859	388.851	0.015	0.030
-96.845	1.618	-0.081	-0.057
-95.830	208.967	0.147	-0.227
-94.816	-200.000	-0.002	0.060
-93.801	-29.078	0.095	0.054
-92.786	89.307	0.153	-0.168
-91.772	800.000	-0.011	-0.049
-90.757	-200.000	0.015	0.169
-89.743	794.361	-0.087	-0.236
-88.728	568.951	0.108	-0.257
-87.713	800.000	-0.063	0.241
-86.699	800.000	0.063	-0.227
-85.684	5.566	0.195	0.142
-84.670	-200.000	0.025	0.583
-83.655	12.236	-0.230	0.175
-82.640	-30.092	-0.281	0.157
-81.626	800.000	0.079	0.282
-80.611	213.604	-0.088	0.137
-79.597	331.780	0.074	0.140
-78.582	-89.388	-0.195	-0.057
-77.567	-127.016	-0.167	-0.024
-76.553	24.579	-0.187	0.153
-75.538	151.263	0.065	-0.088
-74.524	-48.047	0.360	-0.171
-73.509	251.752	0.270	0.451
-72.494	676.087	-0.049	-0.124
-71.480	-34.017	-0.134	0.072
-70.465	800.000	-0.105	-0.351
-69.451	-39.164	-0.377	-0.195
-68.436	-200.000	-0.000	-0.159
-67.422	-163.883	-0.311	-0.014
-66.407	-178.251	-0.291	-0.007
-65.392	-200.000	0.030	-0.243
-64.378	-200.000	-0.008	0.070
-63.363	42.082	0.190	-0.169
-62.349	-34.973	0.149	0.080
-61.334	236.783	-0.684	-1.113
-60.319	695.610	0.220	0.568
-59.305	508.927	-0.314	-0.718
-58.290	278.334	0.523	0.916
-57.276	244.965	0.854	1.411
-56.261	-200.000	95.545	582.183
-55.246	578.288	1369.957	3292.515
-54.232	154.556	2586.571	3489.571
-53.217	111.675	2283.790	2707.329
-52.203	45.216	1901.189	1721.831
-51.188	38.746	1688.785	1480.749
-50.173	35.911	1643.216	1419.864
-49.159	54.068	1692.022	1598.203
-48.144	57.759	1710.819	1643.462
-47.130	38.355	1665.461	1457.154
-46.115	35.350	1651.076	1422.266
-45.100	35.143	1646.499	1416.740
-44.086	35.145	1643.549	1414.161
-43.071	35.197	1641.483	1412.711
-42.057	35.134	1638.577	1409.686
-41.042	35.229	1636.358	1408.420
-40.027	35.134	1634.874	1406.387
-39.013	35.217	1632.401	1404.819
-37.998	35.173	1630.880	1403.127
-36.984	35.141	1630.038	1402.114
-35.969	35.274	1627.883	1401.175
-34.954	35.378	1626.186	1400.417
-33.940	35.423	1624.291	1399.062
-32.925	35.330	1622.670	1396.933
-31.911	35.278	1621.512	1395.502
-30.896	35.212	1620.081	1393.735
-29.881	35.250	1618.126	1392.274
-28.867	35.286	1616.805	1391.343
-27.852	35.354	1614.514	1389.810
-26.838	35.284	1612.900	1387.856
-25.823	35.412	1611.794	1387.779
-24.809	35.397	1610.522	1386.516
-23.794	35.326	1608.834	1384.499
-22.779	35.314	1607.786	1383.453
-21.765	35.386	1605.633	1382.064
-20.750	35.352	1604.022	1380.378
-19.736	35.314	1602.758	1378.963
-18.721	35.330	1601.355	1377.818
-17.706	35.329	1600.033	1376.618
-16.692	35.388	1597.741	1375.010
-15.677	35.262	1596.753	1373.205
-14.663	35.381	1595.453	1372.883
-13.648	35.356	1594.082	1371.471
-12.633	35.389	1592.390	1370.200
-11.619	35.353	1590.782	1368.504
-10.604	35.360	1589.798	1367.654
-9.590	35.359	1588.604	1366.564
-8.575	35.334	1587.475	1365.361
-7.560	35.316	1586.060	1363.957
-6.546	35.291	1584.873	1362.708
-5.531	35.316	1583.671	1361.800
-4.517	35.354	1582.464	1360.976
-3.502	35.339	1581.962	1360.383
-2.487	35.464	1580.096	1359.607
-1.473	35.215	1568.149	1347.523
-0.458	32.336	1549.687	1311.569
0.556	28.945	1549.547	1280.694
1.571	26.622	1573.858	1284.215
2.586	26.144	1588.029	1292.244
3.600	23.288	1534.919	1229.127
4.615	13.134	1423.120	1073.815
5.629	3.585	1354.738	962.784
6.644	1.849	1345.393	945.295
7.659	1.785	1343.792	943.694
8.673	1.698	1342.570	942.215
9.688	1.598	1341.121	940.495
10.702	1.351	1337.865	936.607
11.717	5.032	1345.186	964.444
12.731	15.471	1364.979	1043.762
13.746	23.789	1379.104	1106.497
14.761	25.674	1381.115	1119.756
15.775	25.915	1381.349	1121.345
16.790	26.041	1380.444	1121.290
17.804	26.091	1379.652	1120.859
18.819	26.397	1379.634	1122.644
19.834	26.447	1378.945	1122.299
20.848	26.509	1377.944	1121.770
21.863	26.397	1377.396	1120.526
22.877	26.439	1376.312	1119.806
23.892	26.418	1375.670	1119.054
24.907	26.457	1374.913	1118.581
25.921	26.413	1373.764	1117.279
26.936	26.379	1373.277	1116.573
27.950	26.386	1371.878	1115.378
28.965	26.338	1371.143	1114.383
29.980	26.341	1369.515	1112.985
30.994	26.455	1368.029	1112.377
32.009	26.381	1367.368	1111.285
33.023	26.493	1365.636	1110.471
34.038	26.448	1364.554	1109.214
35.053	26.528	1363.564	1108.802
36.067	26.544	1362.766	1108.154
37.082	26.484	1361.893	1106.975
38.096	26.466	1360.951	1106.002
39.111	26.418	1360.312	1105.096
40.126	26.470	1359.620	1104.750
41.140	26.478	1359.057	1104.244
42.155	26.372	1358.853	1103.337
43.169	26.392	1359.206	1103.643
44.184	26.373	1358.896	1103.181
45.199	26.330	1358.567	1102.556
46.213	26.403	1357.463	1102.003
47.228	26.425	1356.763	1101.475
48.242	26.454	1355.570	1100.584
49.257	26.466	1354.051	1099.325
50.271	26.475	1352.461	1097.993
51.286	26.455	1351.297	1096.828
52.301	26.418	1350.398	1095.779
53.315	26.499	1348.886	1094.947
54.330	26.395	1348.436	1093.854
55.344	26.408	1347.663	1093.209
56.359	26.400	1346.696	1092.280
57.374	26.444	1345.588	1091.549
58.388	26.439	1345.073	1091.006
59.403	26.485	1344.410	1090.649
60.417	26.419	1344.029	1089.842
61.432	26.515	1342.971	1089.470
62.447	26.442	1341.868	1088.036
63.461	26.344	1341.363	1086.944
64.476	26.405	1340.465	1086.484
65.490	26.388	1339.300	1085.343
66.505	26.379	1337.677	1083.876
67.520	26.435	1336.156	1082.886
68.534	26.369	1335.504	1081.867
69.549	26.381	1334.556	1081.072
70.563	26.419	1333.612	1080.440
71.578	26.485	1332.367	1079.728
72.593	26.483	1331.808	1079.167
73.607	26.512	1330.971	1078.567
74.622	26.445	1330.507	1077.698
75.636	26.383	1329.791	1076.654
76.651	26.474	1329.014	1076.469
77.666	26.525	1328.464	1076.232
78.680	26.508	1327.988	1075.650
79.695	26.486	1327.026	1074.648
80.709	26.473	1326.109	1073.731
81.724	26.469	1325.504	1073.119
82.739	26.398	1324.659	1071.924
83.753	26.473	1323.325	1071.189
84.768	26.464	1322.413	1070.303
85.782	26.457	1321.368	1069.324
86.797	26.566	1319.748	1068.563
87.812	26.472	1319.401	1067.631
88.826	26.504	1318.116	1066.686
89.841	26.463	1317.372	1065.749
90.855	26.472	1316.202	1064.762
91.870	26.484	1315.305	1064.012
92.884	26.459	1314.625	1063.219
93.899	26.545	1313.999	1063.123
94.914	26.532	1313.173	1062.285
95.928	26.485	1312.576	1061.434
96.943	26.491	1311.862	1060.798
97.957	26.514	1310.753	1059.941
98.972	26.476	1310.059	1059.062
99.987	26.474	1309.192	1058.260
101.001	26.427	1308.156	1057.050
102.016	26.513	1306.958	1056.492
103.030	26.626	1306.163	1056.414
104.045	26.544	1305.980	1055.693
105.060	26.505	1304.719	1054.354
106.074	26.605	1303.594	1053.932
107.089	26.586	1302.705	1053.015
108.103	26.621	1301.589	1052.218
109.118	26.549	1300.703	1050.992
110.133	26.621	1299.156	1050.069
111.147	26.596	1298.506	1049.308
112.162	26.552	1297.397	1048.061
113.176	26.514	1296.582	1047.092
114.191	26.596	1295.358	1046.481
115.206	26.664	1294.390	1046.001
116.220	26.570	1293.411	1044.577
117.235	26.472	1292.534	1043.208
118.249	26.586	1291.795	1043.178
119.264	26.453	1291.086	1041.746
120.279	26.554	1290.157	1041.484
121.293	26.551	1289.316	1040.698
122.308	26.609	1288.829	1040.548
123.322	26.593	1287.630	1039.391
124.337	26.642	1286.945	1039.030
125.352	26.748	1285.726	1038.563
126.366	26.610	1285.162	1037.224
127.381	26.685	1284.263	1036.836
128.395	26.631	1283.179	1035.559
129.410	26.691	1282.441	1035.217
130.424	26.660	1281.764	1034.399
131.439	26.710	1280.799	1033.817
132.454	26.607	1279.954	1032.455
133.468	26.613	1279.450	1031.991
134.483	26.598	1279.255	1031.656
135.497	26.565	1278.194	1030.524
136.512	26.501	1277.604	1029.593
137.527	26.561	1276.191	1028.705
138.541	26.650	1274.736	1027.945
139.556	26.531	1273.588	1026.255
140.570	26.603	1273.011	1026.103
141.585	26.606	1271.590	1024.887
142.600	26.551	1270.788	1023.834
143.614	26.483	1270.311	1022.975
144.629	26.553	1269.034	1022.252
145.643	26.516	1268.069	1021.174
146.658	26.466	1267.049	1019.985
147.673	26.433	1266.286	1019.096
148.687	26.512	1264.809	1018.258
149.702	26.480	1263.625	1017.035
150.716	26.429	1262.962	1016.124
151.731	26.585	1261.593	1015.810
152.746	26.492	1260.513	1014.328
153.760	26.579	1259.923	1014.249
154.775	26.557	1258.899	1013.216
155.789	26.628	1257.689	1012.549
156.804	26.610	1256.892	1011.714
157.819	26.444	1256.539	1010.418
158.833	26.663	1255.569	1010.767
159.848	26.640	1255.057	1010.138
160.862	26.704	1254.220	1009.733
161.877	26.665	1253.442	1008.798
162.892	26.715	1252.382	1008.135
163.906	26.633	1251.669	1007.014
164.921	26.654	1251.265	1006.718
165.935	26.721	1250.303	1006.227
166.950	26.764	1249.391	1005.641
167.964	26.720	1249.096	1005.070
168.979	26.655	1249.003	1004.551
169.994	26.703	1248.161	1004.050
171.008	26.673	1247.245	1003.056
172.023	26.765	1246.581	1002.940
173.037	26.824	1245.480	1002.296
174.052	26.709	1245.213	1001.355
175.067	26.728	1244.788	1001.031
176.081	26.652	1243.754	999.691
177.096	26.656	1242.949	998.975
178.110	26.765	1241.936	998.675
179.125	26.782	1240.803	997.769
180.140	26.896	1239.579	997.320
181.154	26.696	1238.786	995.495
182.169	26.785	1237.687	995.015
183.183	26.785	1236.818	994.231
184.198	26.783	1235.923	993.409
185.213	26.814	1234.666	992.483
186.227	26.840	1234.262	992.211
187.242	26.794	1233.286	991.087
188.256	26.840	1232.354	990.500
189.271	26.825	1231.939	989.996
190.286	26.796	1231.190	989.149
191.300	26.785	1230.368	988.345
192.315	26.801	1230.049	988.088
193.329	26.756	1229.657	987.440
194.344	26.884	1229.021	987.538
195.359	26.836	1228.775	986.994
196.373	26.803	1228.032	986.130
197.388	26.739	1227.793	985.503
198.402	26.826	1227.397	985.570
199.417	26.845	1226.842	985.140
200.432	26.805	1226.170	984.297
201.446	26.843	1225.331	983.738
202.461	26.779	1224.811	982.887
203.475	26.761	1224.018	982.069
204.490	26.775	1223.263	981.450
205.504	26.761	1222.256	980.479
206.519	26.877	1221.117	980.108
207.534	27.020	1219.868	979.791
208.548	26.829	1219.552	978.417
209.563	26.709	1219.181	977.389
210.577	26.964	1217.631	977.431
211.592	26.879	1216.934	976.330
212.607	26.906	1216.358	975.924
213.621	26.896	1215.993	975.494
214.636	26.922	1214.934	974.696
215.650	26.941	1213.991	973.956
216.665	26.846	1213.346	972.841
217.680	26.809	1212.500	971.881
218.694	27.008	1211.220	971.832
219.709	26.931	1210.858	971.043
220.723	27.011	1209.895	970.615
221.738	27.005	1209.613	970.269
222.753	26.943	1208.589	969.031
223.767	26.863	1208.549	968.488
224.782	27.019	1207.502	968.394
225.796	27.005	1207.245	968.027
226.811	27.097	1206.307	967.678
227.826	26.983	1205.989	966.734
228.840	27.053	1205.515	966.636
229.855	27.036	1204.909	965.974
230.869	27.022	1204.448	965.445
231.884	27.102	1203.241	964.818
232.899	27.048	1202.405	963.778
233.913	27.077	1201.739	963.309
234.928	27.137	1201.182	963.100
235.942	27.082	1200.805	962.418
236.957	27.057	1200.102	961.639
237.972	27.063	1199.331	960.965
238.986	27.104	1198.546	960.470
240.001	27.116	1198.125	960.113
241.015	27.230	1197.434	960.072
242.030	27.226	1196.831	959.485
243.045	27.205	1195.860	958.509
244.059	27.209	1194.885	957.666
245.074	27.287	1194.297	957.520
246.088	27.243	1193.809	956.813
247.103	27.282	1192.577	955.946
248.117	27.241	1192.140	955.295
249.132	27.340	1191.050	954.854
250.147	27.186	1191.140	954.037
251.161	27.314	1189.851	953.587
252.176	27.283	1189.131	952.767
253.190	27.298	1188.828	952.520
254.205	27.294	1188.143	951.862
255.220	27.254	1187.269	950.869
256.234	27.325	1187.092	951.017
257.249	27.348	1186.335	950.445
258.263	27.279	1185.807	949.579
259.278	27.407	1185.136	949.626
260.293	27.363	1184.635	948.907
261.307	27.368	1184.253	948.546
262.322	27.402	1183.346	947.910
263.336	27.381	1182.965	947.414
264.351	27.361	1182.297	946.691
265.366	27.310	1181.922	946.040
266.380	27.384	1181.196	945.763
267.395	27.359	1180.465	944.962
268.409	27.277	1179.731	943.864
269.424	27.339	1179.449	943.876
270.439	27.377	1178.774	943.453
271.453	27.373	1178.523	943.149
272.468	27.319	1177.196	941.722
273.482	27.231	1176.765	940.837
274.497	27.288	1176.463	940.806
275.512	27.444	1175.719	940.938
276.526	27.466	1174.932	940.335
277.541	27.414	1174.357	939.524
278.555	27.335	1173.892	938.661
279.570	27.411	1172.764	938.069
280.585	27.490	1171.991	937.772
281.599	27.423	1170.947	936.509
282.614	27.489	1169.874	935.908
283.628	27.493	1169.392	935.461
284.643	27.534	1168.761	935.084
285.657	27.400	1168.137	933.814
286.672	27.472	1167.091	933.265
287.687	27.514	1166.270	932.739
288.701	27.617	1165.693	932.723
289.716	27.568	1165.140	931.951
290.730	27.551	1164.497	931.263
291.745	27.546	1163.823	930.616
292.760	27.627	1163.043	930.323
293.774	27.553	1162.886	929.738
294.789	27.700	1162.002	929.701
295.803	27.689	1161.496	929.157
296.818	27.635	1160.507	928.007
297.833	27.700	1160.255	928.057
298.847	27.612	1159.696	927.081
299.862	27.594	1158.932	926.297
300.876	27.719	1157.757	925.910
301.891	27.705	1157.679	925.693
302.906	27.757	1157.087	925.399
303.920	27.831	1156.009	924.830
304.935	27.750	1155.488	923.922
305.949	27.715	1154.851	923.153
306.964	27.746	1154.668	923.083
307.979	27.980	1153.225	923.031
308.993	27.702	1153.415	921.697
310.008	27.861	1152.272	921.503
311.022	27.885	1151.520	920.941
312.037	27.873	1150.866	920.276
313.052	27.767	1149.729	918.754
314.066	27.766	1149.056	918.129
315.081	27.786	1148.624	917.803
316.095	27.859	1147.776	917.410
317.110	27.860	1147.399	917.034
318.125	27.947	1146.603	916.751
319.139	27.904	1146.141	916.088
320.154	27.869	1145.398	915.235
321.168	27.831	1144.885	914.554
322.183	27.870	1144.673	914.499
323.197	27.805	1143.517	913.171
324.212	27.921	1142.787	913.085
325.227	27.790	1142.919	912.457
326.241	27.958	1142.064	912.532
327.256	27.917	1141.348	911.672
328.270	27.895	1140.648	910.925
329.285	27.914	1139.986	910.409
330.300	27.994	1139.053	909.981
331.314	27.944	1138.416	909.145
332.329	27.962	1137.812	908.672
333.343	28.073	1136.665	908.224
334.358	27.964	1135.826	906.936
335.373	28.044	1135.345	906.865
336.387	28.015	1134.823	906.224
337.402	28.000	1133.906	905.341
338.416	28.047	1133.492	905.160
339.431	28.110	1132.894	904.917
340.446	28.070	1132.615	904.413
341.460	28.147	1131.783	904.053
342.475	28.179	1131.003	903.507
343.489	28.112	1130.001	902.297
344.504	28.080	1128.965	901.228
345.519	28.237	1128.008	901.162
346.533	28.134	1127.724	900.346
347.548	28.095	1126.836	899.367
348.562	28.205	1125.966	899.133
349.577	28.139	1125.489	898.346
350.592	28.191	1124.533	897.760
351.606	28.176	1124.152	897.305
352.621	28.114	1123.763	896.608
353.635	28.188	1122.891	896.195
354.650	28.143	1122.628	895.685
355.665	28.327	1121.351	895.487
356.679	28.252	1121.296	895.000
357.694	28.243	1120.618	894.335
358.708	28.334	1119.434	893.754
359.723	28.419	1118.757	893.550
360.738	28.378	1118.092	892.740
361.752	28.295	1117.889	892.093
362.767	28.291	1117.570	891.740
363.781	28.386	1116.782	891.494
364.796	28.356	1116.407	890.971
365.810	28.359	1115.656	890.307
366.825	28.451	1114.690	889.902
367.840	28.625	1114.067	890.173
368.854	28.573	1113.675	889.527
369.869	28.499	1113.354	888.836
370.883	28.450	1112.499	887.835
371.898	28.509	1111.802	887.488
372.913	28.443	1111.620	886.943
373.927	28.541	1110.718	886.621
374.942	28.425	1110.657	885.932
375.956	28.627	1109.695	886.060
376.971	28.470	1109.493	885.062
377.986	28.538	1108.793	884.753
379.000	28.610	1108.281	884.613
380.015	28.589	1107.649	883.933
381.029	28.604	1106.993	883.401
382.044	28.612	1106.141	882.684
383.059	28.777	1105.378	882.791
384.073	28.642	1104.831	881.623
385.088	28.543	1104.277	880.630
386.102	28.589	1103.465	880.126
387.117	28.626	1102.237	879.242
388.132	28.597	1101.717	878.613
389.146	28.719	1100.779	878.370
390.161	28.675	1100.610	877.946
391.175	28.653	1099.965	877.249
392.190	28.650	1099.155	876.514
393.205	28.829	1098.084	876.433
394.219	28.678	1097.801	875.411
395.234	28.675	1096.831	874.547
396.248	28.791	1096.319	874.611
397.263	28.769	1095.072	873.437
398.278	28.820	1094.783	873.372
399.292	28.941	1094.265	873.456
400.307	28.824	1093.854	872.494
401.321	28.732	1093.445	871.653
402.336	28.824	1092.202	871.021
403.350	28.802	1091.467	870.256
404.365	28.906	1091.165	870.429
405.380	28.755	1090.620	869.203
406.394	28.905	1089.325	868.803
407.409	28.974	1088.938	868.745
408.423	28.885	1088.471	867.875
409.438	28.972	1087.627	867.532
410.453	29.009	1086.876	867.035
411.467	29.023	1086.039	866.353
412.482	28.999	1085.421	865.673
413.496	29.122	1084.428	865.380
414.511	29.031	1084.287	864.767
415.526	28.851	1084.028	863.634
416.540	28.948	1083.589	863.665
417.555	29.085	1083.056	863.806
418.569	29.098	1082.456	863.311
419.584	29.073	1082.273	862.974
420.599	29.043	1081.839	862.412
421.613	101.550	1316.170	1441.524
422.628	94.492	1350.298	1441.646
