DTS Sentinel unit serial number:	SN413079Multiplexer serial number:	ORYXHardware model number:	OX4-SRSoftware version number:	ORYX F/W v4.00 Oryx Data Collector v3.7.2.0data status	okinstallation	princeton_trtdifferential loss correction	single-endedforward channel	channel 2reverse channel	N/Adate	2019/09/19time	12:07:35forward acquisition time	60.00reverse acquisition time	0.00gamma	496.2192k internal	0.2338k external	0.2338temperature offset calibration	1.0012default loss term (dB/km)	0.3790temperature slope calibration	1.0000multiplexer offset coefficient	1.0000multiplexer slope coefficient	1.0000fibre end	0.00T internal ref (°C)	26.22T ext. ref 1 (°C)	0.84T ext. ref 2 (°C)	22.67length (m)	temperature (°C)	Stokes	anti-Stokes-747.200	-45.970	-0.328	-0.163
-746.185	136.719	-0.160	0.210
-745.171	-58.703	0.253	0.110
-744.156	-122.913	-0.137	0.022
-743.142	36.363	0.133	0.118
-742.127	320.795	-0.104	0.199
-741.112	-125.139	-0.089	0.014
-740.098	-167.826	-0.179	0.007
-739.083	-95.185	0.226	-0.061
-738.069	47.071	-0.107	-0.100
-737.054	-84.808	-0.159	0.050
-736.039	204.263	-0.160	-0.249
-735.025	-200.000	0.012	-0.189
-734.010	30.987	0.076	-0.065
-732.996	92.061	-0.234	-0.264
-731.981	-200.000	0.034	-0.209
-730.966	-157.035	-0.202	-0.012
-729.952	-9.430	0.184	-0.123
-728.937	-95.750	-0.309	-0.083
-727.923	-112.698	-0.065	0.013
-726.908	-86.253	-0.260	-0.080
-725.894	-1.054	0.445	-0.316
-724.879	45.284	-0.289	0.268
-723.864	-200.000	0.001	0.124
-722.850	-200.000	0.002	0.095
-721.835	58.566	0.220	0.217
-720.821	-200.000	0.007	-0.107
-719.806	-153.850	-0.191	-0.013
-718.791	-13.509	0.224	-0.145
-717.777	-91.630	-0.440	-0.126
-716.762	-61.874	0.151	0.063
-715.748	-200.000	-0.008	0.082
-714.733	-200.000	0.015	0.294
-713.718	800.000	0.018	0.069
-712.704	-13.546	-0.165	0.107
-711.689	397.648	0.095	-0.199
-710.675	312.664	-0.081	-0.153
-709.660	-53.326	-0.080	0.037
-708.645	-200.000	-0.025	-0.194
-707.631	-99.598	0.132	-0.033
-706.616	-71.617	0.213	-0.080
-705.602	-200.000	-0.028	0.170
-704.587	130.817	-0.185	-0.238
-703.572	-149.741	-0.338	-0.027
-702.558	-1.595	0.179	0.127
-701.543	-95.467	-0.449	0.121
-700.529	-51.395	-0.113	0.053
-699.514	-200.000	0.043	0.246
-698.499	-200.000	-0.009	-0.268
-697.485	-200.000	-0.241	0.000
-696.470	110.516	-0.133	-0.160
-695.456	-76.621	-0.128	-0.045
-694.441	794.478	0.054	-0.149
-693.426	-120.002	0.340	-0.058
-692.412	66.650	0.153	-0.156
-691.397	25.719	-0.005	-0.004
-690.383	295.383	0.162	-0.298
-689.368	404.336	0.043	0.091
-688.354	243.508	0.119	-0.199
-687.339	773.549	-0.141	0.385
-686.324	-122.844	0.356	-0.057
-685.310	-200.000	0.006	0.138
-684.295	-24.995	0.140	-0.083
-683.281	-11.645	-0.302	-0.199
-682.266	-33.320	-0.199	0.110
-681.251	180.666	-0.048	0.071
-680.237	346.131	-0.176	0.347
-679.222	429.815	-0.118	0.256
-678.208	512.064	-0.012	0.028
-677.193	-126.033	0.237	0.036
-676.178	-90.559	-0.291	0.084
-675.164	27.370	0.327	0.275
-674.149	155.421	-0.081	0.111
-673.135	-200.000	-0.001	-0.345
-672.120	-18.673	-0.200	-0.125
-671.105	-200.000	0.012	0.174
-670.091	-62.959	0.272	-0.113
-669.076	-36.813	0.381	-0.204
-668.062	-113.242	-0.226	0.044
-667.047	695.719	-0.191	0.502
-666.032	714.123	0.081	0.214
-665.018	140.153	-0.261	-0.344
-664.003	724.318	-0.104	-0.276
-662.989	-200.000	0.003	0.234
-661.974	726.233	0.056	-0.150
-660.959	-200.000	-0.024	0.263
-659.945	-54.044	-0.160	-0.073
-658.930	213.785	0.034	0.054
-657.916	-200.000	0.035	-0.219
-656.901	-34.427	-0.526	-0.288
-655.886	-44.023	-0.061	-0.031
-654.872	241.901	0.077	0.129
-653.857	-200.000	-0.009	0.122
-652.843	262.482	0.101	0.175
-651.828	273.669	-0.074	-0.131
-650.814	-60.983	0.139	0.059
-649.799	-20.403	0.221	-0.136
-648.784	63.956	-0.144	-0.145
-647.770	273.225	0.120	-0.213
-646.755	37.598	-0.315	-0.280
-645.741	-73.154	-0.219	0.080
-644.726	-25.797	0.156	-0.092
-643.711	-200.000	0.011	-0.112
-642.697	800.000	0.102	-0.294
-641.682	-42.979	0.165	-0.084
-640.668	800.000	-0.047	-0.198
-639.653	-57.812	-0.094	0.041
-638.638	566.951	0.023	0.056
-637.624	174.611	0.111	0.160
-636.609	-108.642	-0.141	0.030
-635.595	-200.000	0.000	-0.161
-634.580	800.000	0.027	0.097
-633.565	-111.057	0.169	-0.035
-632.551	271.543	0.067	-0.119
-631.536	144.607	-0.185	-0.247
-630.522	-7.884	-0.178	-0.120
-629.507	-149.619	-0.210	0.017
-628.492	155.101	-0.138	-0.189
-627.478	219.292	0.059	0.094
-626.463	-58.027	-0.311	0.136
-625.449	-134.608	0.216	0.026
-624.434	-200.000	-0.018	0.089
-623.419	-2.877	0.208	0.145
-622.405	56.068	-0.101	-0.098
-621.390	770.263	0.168	0.456
-620.376	310.091	0.038	0.070
-619.361	-26.016	0.190	-0.111
-618.346	-127.238	-0.357	-0.052
-617.332	68.719	0.384	0.393
-616.317	-93.456	0.162	-0.045
-615.303	219.871	-0.196	-0.313
-614.288	104.785	-0.304	0.358
-613.273	-117.655	-0.269	-0.048
-612.259	324.121	-0.120	-0.228
-611.244	-100.479	-0.219	0.054
-610.230	-119.190	0.204	0.036
-609.215	-138.759	-0.191	0.021
-608.201	241.031	0.180	-0.300
-607.186	295.765	0.056	-0.102
-606.171	-140.736	0.184	0.019
-605.157	-142.238	0.349	-0.034
-604.142	-90.711	-0.213	0.061
-603.128	-65.626	0.067	-0.027
-602.113	-199.026	-0.280	-0.002
-601.098	420.250	-0.091	0.194
-600.084	-200.000	0.026	0.213
-599.069	-26.842	0.142	-0.083
-598.055	20.017	0.053	-0.043
-597.040	-159.592	0.165	0.009
-596.025	-200.000	0.031	-0.190
-595.011	-104.826	-0.123	-0.028
-593.996	-200.000	-0.009	0.130
-592.982	-200.000	-0.013	0.120
-591.967	-99.174	-0.289	-0.073
-590.952	-15.704	-0.321	0.204
-589.938	162.774	-0.047	0.065
-588.923	662.957	-0.073	0.187
-587.909	800.000	-0.102	-0.399
-586.894	101.650	-0.103	-0.120
-585.879	19.933	0.114	0.091
-584.865	800.000	0.046	0.172
-583.850	-187.266	0.068	-0.001
-582.836	-200.000	-0.005	0.272
-581.821	258.641	0.106	-0.183
-580.806	-78.147	-0.503	0.173
-579.792	265.436	0.146	0.254
-578.777	109.472	-0.109	0.131
-577.763	281.924	-0.049	-0.087
-576.748	15.691	-0.106	0.083
-575.733	165.351	-0.145	0.204
-574.719	-200.000	-0.018	0.198
-573.704	-188.385	-0.068	0.001
-572.690	97.797	-0.251	-0.287
-571.675	-149.987	0.231	-0.018
-570.661	-200.000	0.005	-0.292
-569.646	-166.184	0.075	-0.003
-568.631	70.539	-0.229	-0.236
-567.617	295.973	-0.034	0.063
-566.602	269.244	-0.094	-0.165
-565.588	-63.506	-0.395	-0.162
-564.573	-1.832	0.074	-0.052
-563.558	273.193	0.084	-0.148
-562.544	-83.929	-0.260	-0.083
-561.529	-23.675	-0.370	0.221
-560.515	-35.777	0.339	0.183
-559.500	63.183	0.257	-0.256
-558.485	-200.000	0.024	0.140
-557.471	-121.908	-0.054	-0.009
-556.456	181.327	0.180	-0.264
-555.442	-200.000	0.026	-0.134
-554.427	149.464	0.143	-0.192
-553.412	102.797	-0.256	-0.298
-552.398	242.868	-0.206	0.344
-551.383	-200.000	0.024	0.301
-550.369	190.156	-0.177	-0.264
-549.354	-167.546	0.296	-0.012
-548.339	-49.183	-0.093	-0.044
-547.325	346.971	-0.057	0.113
-546.310	43.247	0.091	-0.083
-545.296	-9.323	0.077	-0.051
-544.281	800.000	-0.015	0.052
-543.266	60.775	0.159	-0.157
-542.252	-106.392	0.252	0.056
-541.237	-65.571	-0.327	-0.131
-540.223	250.688	-0.058	-0.099
-539.208	146.969	-0.119	-0.159
-538.193	-4.892	0.139	-0.095
-537.179	-3.290	-0.076	-0.053
-536.164	-98.567	-0.139	0.035
-535.150	-200.000	0.022	0.171
-534.135	151.539	0.148	0.201
-533.121	-104.376	-0.154	0.036
-532.106	340.524	0.087	-0.169
-531.091	-144.389	0.048	0.004
-530.077	9.041	0.413	0.310
-529.062	-41.995	-0.350	-0.178
-528.048	229.843	-0.179	-0.290
-527.033	384.990	-0.093	-0.190
-526.018	189.069	-0.235	-0.350
-525.004	7.709	-0.210	-0.157
-523.989	-72.560	-0.163	0.060
-522.975	175.870	0.181	-0.262
-521.960	100.986	0.137	0.159
-520.945	120.552	0.223	-0.275
-519.931	800.000	-0.022	-0.068
-518.916	-200.000	0.030	-0.139
-517.902	59.681	0.172	0.169
-516.887	66.936	0.026	-0.026
-515.872	789.804	0.028	-0.077
-514.858	-142.438	0.356	0.035
-513.843	800.000	-0.050	0.182
-512.829	-45.223	0.080	0.040
-511.814	-180.027	0.087	0.002
-510.799	114.687	-0.103	0.125
-509.785	-195.506	-0.234	-0.002
-508.770	716.375	-0.108	-0.285
-507.756	33.439	0.127	0.109
-506.741	-110.885	0.179	-0.037
-505.726	-200.000	0.026	-0.252
-504.712	-200.000	-0.035	0.347
-503.697	-94.669	-0.288	-0.078
-502.683	-129.828	-0.086	-0.012
-501.668	-200.000	0.022	-0.389
-500.653	-200.000	-0.012	0.067
-499.639	665.502	0.151	0.388
-498.624	-166.219	-0.038	0.002
-497.610	292.201	-0.069	0.124
-496.595	-200.000	0.021	-0.234
-495.581	65.059	0.270	-0.271
-494.566	-18.596	0.143	-0.089
-493.551	-51.553	0.306	-0.142
-492.537	-79.218	0.316	-0.107
-491.522	-150.669	-0.030	-0.002
-490.508	800.000	-0.045	0.175
-489.493	-72.644	-0.194	0.071
-488.478	472.834	0.060	-0.135
-487.464	-58.842	0.317	0.136
-486.449	253.714	-0.082	0.139
-485.435	-83.655	0.153	0.049
-484.420	535.300	-0.060	0.142
-483.405	-133.062	0.142	0.018
-482.391	315.245	-0.076	-0.142
-481.376	-84.358	0.275	-0.087
-480.362	-87.092	0.127	0.038
-479.347	-16.117	-0.164	-0.104
-478.332	-122.499	0.174	0.028
-477.318	-6.588	-0.246	0.166
-476.303	-79.288	0.276	-0.093
-475.289	-138.395	-0.253	0.028
-474.274	-144.202	0.222	0.021
-473.259	-200.000	-0.011	-0.223
-472.245	-200.000	0.036	-0.197
-471.230	-36.244	-0.204	0.109
-470.216	-200.000	0.009	-0.178
-469.201	172.981	0.228	-0.326
-468.186	-97.157	-0.248	0.064
-467.172	-200.000	0.029	-0.130
-466.157	-58.970	0.510	0.219
-465.143	-45.894	-0.215	0.105
-464.128	46.955	-0.151	0.139
-463.113	-73.814	-0.163	0.059
-462.099	-200.000	0.003	0.183
-461.084	-200.000	-0.043	0.445
-460.070	128.584	0.153	0.194
-459.055	366.464	-0.126	-0.252
-458.040	521.603	0.144	0.335
-457.026	180.030	-0.102	0.148
-456.011	800.000	0.033	0.101
-454.997	95.918	0.126	-0.143
-453.982	-200.000	0.006	-0.061
-452.968	157.564	-0.166	0.228
-451.953	-25.360	0.339	0.199
-450.938	-200.000	0.002	0.270
-449.924	-200.000	0.034	0.347
-448.909	670.523	0.088	-0.225
-447.895	-115.239	0.332	-0.062
-446.880	514.628	-0.100	0.230
-445.865	-47.683	-0.057	0.028
-444.851	88.312	-0.174	-0.191
-443.836	-200.000	0.040	0.329
-442.822	51.383	-0.081	0.076
-441.807	71.290	-0.075	0.078
-440.792	539.357	-0.086	-0.204
-439.778	318.128	0.091	0.171
-438.763	-196.184	0.248	-0.002
-437.749	164.074	-0.128	-0.178
-436.734	-200.000	-0.036	0.340
-435.719	759.116	0.080	-0.214
-434.705	112.870	0.092	0.111
-433.690	182.960	0.160	-0.234
-432.676	800.000	0.024	-0.081
-431.661	800.000	-0.026	-0.096
-430.646	-200.000	-0.004	0.027
-429.632	5.146	-0.113	-0.083
-428.617	-200.000	0.055	-0.366
-427.603	69.824	-0.270	-0.276
-426.588	-116.724	-0.080	0.015
-425.573	-113.878	-0.261	-0.050
-424.559	-200.000	-0.014	0.134
-423.544	370.809	0.060	0.120
-422.530	-200.000	-0.060	0.272
-421.515	-200.000	-0.073	0.332
-420.500	99.138	0.119	-0.136
-419.486	71.555	-0.181	0.187
-418.471	-200.000	-0.045	0.419
-417.457	-200.000	0.020	-0.198
-416.442	800.000	0.122	-0.340
-415.428	45.038	0.123	0.112
-414.413	-5.664	-0.236	0.161
-413.398	-200.000	-0.028	-0.337
-412.384	-21.241	-0.200	-0.121
-411.369	-200.000	0.059	-0.299
-410.355	-200.000	0.054	-0.282
-409.340	-164.126	-0.376	-0.017
-408.325	-195.786	-0.261	-0.002
-407.311	-90.387	-0.315	-0.090
-406.296	177.305	-0.175	-0.252
-405.282	169.549	-0.108	0.153
-404.267	-40.247	-0.265	-0.137
-403.252	-113.475	-0.455	0.088
-402.238	-161.453	-0.242	0.012
-401.223	186.809	0.046	-0.068
-400.209	800.000	-0.082	-0.241
-399.194	-200.000	0.012	-0.070
-398.179	377.796	-0.119	0.242
-397.165	-200.000	0.017	-0.338
-396.150	-88.412	-0.087	-0.026
-395.136	417.116	-0.104	-0.221
-394.121	-200.000	0.034	0.334
-393.106	-200.000	0.002	-0.212
-392.092	94.111	0.069	-0.078
-391.077	190.646	0.075	0.112
-390.063	-80.742	-0.278	0.091
-389.048	-200.000	-0.014	0.222
-388.033	-93.960	0.178	-0.048
-387.019	-200.000	0.009	0.432
-386.004	77.237	0.101	0.106
-384.990	-16.081	0.213	-0.134
-383.975	-161.970	-0.150	0.007
-382.960	-78.592	-0.257	0.087
-381.946	-200.000	-0.031	-0.166
-380.931	-200.000	-0.032	0.205
-379.917	626.692	0.036	0.090
-378.902	-61.663	0.047	0.020
-377.888	-200.000	-0.008	-0.166
-376.873	41.806	-0.223	-0.200
-375.858	-200.000	-0.030	0.307
-374.844	390.527	-0.198	0.406
-373.829	-71.376	-0.128	-0.048
-372.815	447.484	0.034	-0.074
-371.800	36.783	-0.022	0.019
-370.785	176.861	0.133	0.192
-369.771	68.183	-0.087	0.089
-368.756	97.883	0.175	0.200
-367.742	18.218	-0.073	0.057
-366.727	-47.519	0.393	-0.189
-365.712	-84.092	-0.124	-0.039
-364.698	-92.297	-0.190	0.053
-363.683	-149.381	-0.350	0.028
-362.669	263.642	0.120	-0.206
-361.654	109.829	0.058	0.069
-360.639	-78.395	0.288	-0.098
-359.625	-200.000	0.012	-0.138
-358.610	305.136	0.093	-0.171
-357.596	-15.872	0.140	-0.088
-356.581	-70.650	0.220	0.082
-355.566	-110.738	0.196	-0.040
-354.552	-135.978	-0.270	0.031
-353.537	97.622	0.030	0.034
-352.523	128.874	0.197	-0.249
-351.508	-200.000	-0.011	-0.056
-350.493	-200.000	-0.014	0.092
-349.479	5.199	0.163	-0.119
-348.464	-200.000	0.016	0.234
-347.450	-148.734	0.045	0.004
-346.435	795.695	0.076	0.207
-345.420	16.556	0.136	0.106
-344.406	585.259	0.069	0.167
-343.391	214.840	0.083	-0.130
-342.377	-200.000	-0.007	-0.041
-341.362	324.159	-0.148	-0.279
-340.348	191.669	0.098	0.145
-339.333	308.292	0.154	0.284
-338.318	-97.535	0.249	-0.064
-337.304	48.724	0.074	0.068
-336.289	-99.935	-0.357	0.088
-335.275	-200.000	-0.002	0.318
-334.260	-200.000	0.001	-0.042
-333.245	-2.999	0.068	0.047
-332.231	80.320	0.219	0.232
-331.216	411.296	-0.199	0.417
-330.202	-78.566	0.247	0.084
-329.187	104.084	0.224	0.260
-328.172	-48.901	-0.157	-0.074
-327.158	800.000	0.027	-0.102
-326.143	79.491	-0.114	0.121
-325.129	58.792	0.152	0.147
-324.114	-56.050	0.230	-0.101
-323.099	-50.375	-0.055	-0.026
-322.085	65.144	0.141	0.140
-321.070	-200.000	0.035	-0.333
-320.056	-72.835	-0.019	-0.007
-319.041	-123.816	0.275	-0.043
-318.026	-8.708	-0.116	-0.077
-317.012	-200.000	-0.034	-0.172
-315.997	800.000	-0.084	0.305
-314.983	91.920	0.141	-0.157
-313.968	-25.708	0.304	0.177
-312.953	-1.763	0.211	0.146
-311.939	-51.061	0.135	-0.062
-310.924	-200.000	-0.042	-0.337
-309.910	-44.173	0.413	-0.204
-308.895	12.594	-0.068	0.052
-307.880	94.139	-0.124	0.138
-306.866	-142.196	-0.160	0.016
-305.851	-52.633	-0.303	-0.138
-304.837	-32.242	-0.176	-0.097
-303.822	800.000	0.087	0.251
-302.807	-200.000	-0.008	0.057
-301.793	-200.000	0.004	0.163
-300.778	800.000	-0.045	0.193
-299.764	41.280	-0.179	-0.160
-298.749	800.000	-0.154	-0.429
-297.735	800.000	0.036	0.100
-296.720	707.090	-0.112	0.292
-295.705	-50.752	0.354	-0.164
-294.691	-70.726	0.278	-0.104
-293.676	25.724	0.083	-0.068
-292.662	-38.944	0.216	-0.112
-291.647	12.721	-0.113	0.086
-290.632	-36.503	-0.317	-0.168
-289.618	800.000	0.035	-0.132
-288.603	-200.000	-0.032	-0.154
-287.589	800.000	-0.123	0.425
-286.574	800.000	0.128	0.399
-285.559	266.990	0.089	-0.154
-284.545	421.633	-0.111	-0.234
-283.530	-110.987	-0.084	-0.017
-282.516	800.000	-0.003	-0.008
-281.501	2.165	-0.460	0.327
-280.486	-98.131	-0.455	-0.115
-279.472	188.734	-0.234	0.345
-278.457	-51.994	0.164	-0.075
-277.443	272.920	0.106	-0.185
-276.428	-200.000	-0.061	-0.286
-275.413	-16.472	0.256	0.160
-274.399	388.315	0.154	0.313
-273.384	-200.000	0.002	0.172
-272.370	583.214	0.084	0.203
-271.355	-200.000	-0.071	0.347
-270.340	62.835	-0.130	0.128
-269.326	-40.487	0.196	-0.100
-268.311	123.271	0.115	-0.142
-267.297	-81.060	-0.247	0.081
-266.282	27.144	-0.084	0.070
-265.267	-200.000	0.002	0.214
-264.253	-200.000	-0.005	0.108
-263.238	92.699	-0.041	0.045
-262.224	340.684	-0.193	-0.371
-261.209	-168.781	-0.151	0.006
-260.195	800.000	0.064	-0.202
-259.180	-94.597	0.408	-0.109
-258.165	176.199	-0.242	-0.345
-257.151	-53.927	-0.220	-0.099
-256.136	110.722	0.121	-0.143
-255.122	-103.039	-0.096	-0.022
-254.107	800.000	0.096	0.345
-253.092	-153.700	-0.135	0.009
-252.078	-200.000	-0.229	0.001
-251.063	90.021	-0.186	0.205
-250.049	800.000	-0.029	0.108
-249.034	64.431	-0.177	-0.175
-248.019	-200.000	-0.036	0.289
-247.005	800.000	-0.133	-0.386
-245.990	-138.691	0.393	0.042
-244.976	370.513	0.048	-0.096
-243.961	219.555	0.144	0.227
-242.946	-26.289	-0.169	0.098
-241.932	787.096	-0.042	-0.114
-240.917	-51.244	0.402	-0.185
-239.903	-200.000	-0.025	-0.174
-238.888	-87.450	0.261	-0.078
-237.873	-200.000	0.020	0.160
-236.859	339.169	-0.180	-0.346
-235.844	16.659	-0.127	0.099
-234.830	800.000	-0.058	0.176
-233.815	75.731	0.088	-0.092
-232.800	105.087	-0.344	0.399
-231.786	90.289	0.020	0.022
-230.771	107.998	0.216	0.253
-229.757	198.027	-0.153	-0.231
-228.742	363.896	-0.139	-0.274
-227.727	-38.248	0.371	-0.193
-226.713	800.000	-0.072	0.220
-225.698	800.000	0.137	0.497
-224.684	184.442	0.147	-0.214
-223.669	-32.273	-0.169	0.093
-222.655	-50.978	-0.135	-0.062
-221.640	-82.200	0.251	-0.080
-220.625	-25.707	0.340	0.197
-219.611	-114.338	-0.305	-0.058
-218.596	191.406	0.100	-0.148
-217.582	-71.164	0.083	-0.031
-216.567	-200.000	-0.005	-0.378
-215.552	-39.652	0.289	-0.149
-214.538	185.719	0.165	0.241
-213.523	-75.327	-0.159	-0.056
-212.509	800.000	-0.029	0.085
-211.494	-200.000	-0.007	0.302
-210.479	-8.839	-0.186	-0.123
-209.465	36.922	0.165	-0.143
-208.450	257.252	-0.129	0.218
-207.436	-200.000	0.051	-0.451
-206.421	-31.226	0.158	0.088
-205.406	-200.000	-0.005	0.074
-204.392	-200.000	-0.038	0.395
-203.377	-89.479	0.264	0.076
-202.363	-7.483	-0.082	0.055
-201.348	130.175	-0.061	0.076
-200.333	45.429	-0.164	0.149
-199.319	-82.317	0.302	0.096
-198.304	-57.170	-0.445	-0.193
-197.290	-61.687	0.310	0.128
-196.275	-30.282	-0.166	0.093
-195.260	-113.251	-0.168	-0.033
-194.246	-200.000	-0.021	0.116
-193.231	-40.806	0.252	-0.128
-192.217	-200.000	-0.027	-0.189
-191.202	508.924	-0.105	-0.239
-190.187	-172.104	0.139	0.004
-189.173	2.572	0.014	0.010
-188.158	39.504	0.031	-0.027
-187.144	-10.299	-0.024	0.016
-186.129	-27.859	0.412	-0.234
-185.114	-1.863	-0.073	-0.050
-184.100	800.000	-0.028	0.108
-183.085	386.648	0.082	0.166
-182.071	-8.121	0.097	-0.064
-181.056	74.754	-0.248	0.256
-180.042	-17.083	0.295	-0.182
-179.027	79.826	0.137	0.145
-178.012	-111.331	-0.174	-0.035
-176.998	243.601	0.096	-0.158
-175.983	0.942	0.234	0.164
-174.969	41.964	0.194	0.173
-173.954	-110.053	-0.041	-0.008
-172.939	328.912	-0.176	0.333
-171.925	800.000	0.107	-0.421
-170.910	50.111	0.116	0.107
-169.896	-42.942	0.328	0.164
-168.881	-159.666	0.168	0.009
-167.866	-67.412	-0.434	0.167
-166.852	-200.000	-0.007	0.134
-165.837	-132.536	-0.250	0.032
-164.823	303.318	0.157	-0.285
-163.808	-5.980	0.084	0.057
-162.793	-130.508	-0.240	-0.032
-161.779	-200.000	0.033	0.364
-160.764	-62.552	-0.220	-0.090
-159.750	-89.036	0.329	0.095
-158.735	-24.670	0.105	0.061
-157.720	-50.230	0.343	-0.159
-156.706	-70.688	0.220	0.081
-155.691	134.054	0.089	-0.113
-154.677	-200.000	-0.006	-0.118
-153.662	383.626	-0.073	-0.147
-152.647	59.243	0.183	-0.177
-151.633	800.000	0.086	-0.255
-150.618	55.964	-0.074	-0.071
-149.604	-200.000	-0.020	0.404
-148.589	800.000	0.051	0.151
-147.574	208.870	0.250	0.384
-146.560	-102.016	0.074	-0.017
-145.545	-200.000	-0.044	-0.188
-144.531	-49.203	0.339	-0.159
-143.516	-104.682	0.178	0.040
-142.502	-200.000	0.033	0.329
-141.487	-200.000	-0.055	0.314
-140.472	216.942	0.211	-0.330
-139.458	215.936	-0.058	0.090
-138.443	-200.000	0.012	-0.210
-137.429	-135.682	-0.109	0.013
-136.414	800.000	-0.065	0.252
-135.399	85.703	0.192	0.206
-134.385	-200.000	0.024	0.257
-133.370	-164.241	0.198	-0.009
-132.356	96.874	-0.101	-0.113
-131.341	731.051	0.182	0.477
-130.326	-53.187	0.275	-0.124
-129.312	-85.072	-0.302	0.093
-128.297	52.419	-0.104	0.097
-127.283	163.645	-0.161	0.221
-126.268	159.943	0.198	0.270
-125.253	-197.396	-0.368	-0.002
-124.239	-16.936	0.182	-0.113
-123.224	-200.000	-0.001	-0.008
-122.210	14.179	-0.077	-0.059
-121.195	135.154	0.076	-0.097
-120.180	-122.431	-0.268	-0.043
-119.166	-14.033	0.151	-0.096
-118.151	-200.000	-0.063	0.376
-117.137	16.032	-0.150	-0.116
-116.122	-109.224	-0.215	0.045
-115.107	83.228	-0.132	0.140
-114.093	-151.824	0.416	-0.030
-113.078	-200.000	-0.016	0.160
-112.064	366.546	-0.140	0.276
-111.049	-41.692	0.014	-0.007
-110.034	200.769	-0.295	-0.444
-109.020	128.992	-0.305	-0.381
-108.005	-33.879	0.061	-0.033
-106.991	-200.000	-0.083	0.407
-105.976	147.194	0.177	0.234
-104.962	-128.837	0.125	-0.017
-103.947	120.577	0.197	0.240
-102.932	-79.072	-0.247	0.082
-101.918	248.411	-0.171	-0.282
-100.903	18.869	-0.128	-0.100
-99.889	514.938	0.055	0.127
-98.874	-1.747	0.261	-0.180
-97.859	23.282	-0.124	0.099
-96.845	30.596	0.182	0.152
-95.830	341.966	-0.143	-0.274
-94.816	-128.996	0.077	0.010
-93.801	-168.277	0.202	-0.008
-92.786	223.764	0.052	-0.082
-91.772	143.706	-0.149	0.194
-90.757	-110.449	0.316	-0.064
-89.743	43.024	0.079	0.071
-88.728	-89.549	0.088	0.025
-87.713	-110.572	-0.285	0.058
-86.699	142.042	-0.211	0.274
-85.684	-108.593	0.108	-0.023
-84.670	163.915	-0.050	-0.069
-83.655	486.245	-0.079	0.177
-82.640	58.161	0.097	0.093
-81.626	-42.940	-0.124	0.061
-80.611	-40.363	-0.111	0.056
-79.597	-115.647	-0.231	-0.042
-78.582	-79.268	0.444	-0.147
-77.567	-5.867	-0.164	-0.110
-76.553	-200.000	-0.075	-0.532
-75.538	800.000	0.125	-0.383
-74.524	-51.737	-0.171	-0.078
-73.509	800.000	-0.034	0.116
-72.494	515.635	0.081	0.184
-71.480	145.675	0.256	0.336
-70.465	-120.162	-0.332	0.056
-69.451	310.354	0.038	0.069
-68.436	-200.000	-0.055	0.395
-67.422	548.407	0.067	0.156
-66.407	800.000	0.060	0.256
-65.392	212.969	0.110	-0.170
-64.378	-176.560	0.364	0.009
-63.363	-5.634	0.365	0.244
-62.349	-127.944	0.143	-0.020
-61.334	90.186	-1.115	-1.218
-60.319	24.211	0.890	0.718
-59.305	-200.000	0.124	-1.166
-58.290	109.606	0.762	0.892
-57.276	-200.000	0.301	1.478
-56.261	-200.000	114.880	615.862
-55.246	429.187	1531.999	3235.304
-54.232	140.783	2734.379	3529.476
-53.217	92.951	2331.036	2572.537
-52.203	35.283	1934.348	1656.796
-51.188	29.242	1723.457	1429.422
-50.173	26.883	1681.738	1376.882
-49.159	46.953	1737.791	1578.170
-48.144	45.419	1751.551	1578.773
-47.130	28.838	1709.551	1414.549
-46.115	26.368	1694.511	1383.180
-45.100	26.177	1690.212	1378.162
-44.086	26.144	1687.372	1375.538
-43.071	26.134	1684.673	1373.207
-42.057	26.090	1682.683	1371.193
-41.042	26.154	1680.157	1369.567
-40.027	26.039	1678.965	1367.672
-39.013	26.035	1676.534	1365.603
-37.998	25.998	1675.173	1364.167
-36.984	26.028	1674.113	1363.475
-35.969	26.129	1672.168	1362.599
-34.954	26.206	1670.390	1361.673
-33.940	26.213	1668.875	1360.436
-32.925	26.290	1666.722	1359.207
-31.911	26.262	1665.447	1357.904
-30.896	26.188	1663.548	1355.743
-29.881	26.297	1661.577	1354.907
-28.867	26.141	1660.771	1353.023
-27.852	26.184	1658.793	1351.684
-26.838	26.217	1657.899	1351.144
-25.823	26.325	1655.968	1350.325
-24.809	26.303	1654.935	1349.262
-23.794	26.237	1653.677	1347.696
-22.779	26.251	1651.882	1346.281
-21.765	26.278	1650.146	1345.012
-20.750	26.229	1648.159	1342.975
-19.736	26.288	1646.525	1342.028
-18.721	26.186	1645.771	1340.602
-17.706	26.266	1644.101	1339.786
-16.692	26.233	1642.329	1338.042
-15.677	26.242	1641.050	1337.013
-14.663	26.253	1639.392	1335.690
-13.648	26.280	1638.166	1334.839
-12.633	26.312	1636.611	1333.760
-11.619	26.242	1635.315	1332.134
-10.604	26.241	1633.158	1330.313
-9.590	26.235	1632.114	1329.363
-8.575	26.302	1630.739	1328.688
-7.560	26.276	1629.594	1327.511
-6.546	26.260	1628.734	1326.640
-5.531	26.251	1627.232	1325.300
-4.517	26.288	1625.881	1324.412
-3.502	26.289	1625.146	1323.769
-2.487	26.268	1623.083	1321.882
-1.473	26.144	1611.602	1311.579
-0.458	23.810	1592.663	1279.338
0.556	19.413	1594.496	1249.416
1.571	16.982	1618.096	1249.910
2.586	16.472	1630.983	1255.962
3.600	15.252	1576.814	1205.374
4.615	8.612	1466.476	1076.385
5.629	2.132	1403.978	988.577
6.644	0.896	1396.718	975.414
7.659	0.852	1395.184	973.974
8.673	0.824	1394.033	972.904
9.688	0.799	1391.885	971.158
10.702	0.561	1388.661	967.301
11.717	3.713	1392.973	990.451
12.731	10.945	1403.866	1044.703
13.746	16.015	1411.324	1082.819
14.761	17.169	1412.302	1090.887
15.775	16.632	1410.762	1086.155
16.790	15.688	1407.755	1077.693
17.804	14.894	1405.276	1070.621
18.819	14.533	1404.331	1067.493
19.834	14.194	1402.959	1064.190
20.848	14.099	1401.205	1062.158
21.863	13.717	1400.356	1058.982
22.877	13.666	1398.571	1057.211
23.892	13.568	1397.721	1055.854
24.907	13.603	1396.881	1055.347
25.921	13.592	1395.854	1054.408
26.936	13.618	1395.328	1054.086
27.950	13.636	1394.265	1053.300
28.965	13.691	1393.265	1052.802
29.980	13.655	1392.653	1052.022
30.994	13.759	1391.245	1051.524
32.009	13.793	1389.880	1050.614
33.023	13.772	1388.811	1049.578
34.038	13.829	1387.417	1048.794
35.053	13.707	1386.926	1047.555
36.067	13.662	1385.888	1046.394
37.082	13.739	1384.695	1045.890
38.096	13.641	1384.089	1044.723
39.111	13.689	1383.318	1044.351
40.126	13.639	1382.304	1043.177
41.140	13.525	1381.349	1041.643
42.155	13.585	1380.625	1041.384
43.169	13.518	1380.753	1040.969
44.184	13.605	1380.189	1040.995
45.199	13.525	1380.056	1040.299
46.213	13.461	1379.601	1039.466
47.228	13.605	1378.473	1039.430
48.242	13.612	1377.022	1038.287
49.257	13.548	1375.954	1036.985
50.271	13.598	1374.341	1035.991
51.286	13.584	1373.056	1034.847
52.301	13.619	1371.596	1033.872
53.315	13.583	1370.816	1032.970
54.330	13.527	1369.579	1031.593
55.344	13.636	1368.451	1031.329
56.359	13.553	1367.096	1029.701
57.374	13.539	1366.716	1029.241
58.388	13.477	1366.388	1028.516
59.403	13.461	1365.841	1027.913
60.417	13.480	1364.645	1027.043
61.432	13.481	1363.846	1026.352
62.447	13.454	1362.752	1025.271
63.461	13.450	1361.589	1024.285
64.476	13.450	1360.348	1023.259
65.490	13.491	1358.855	1022.298
66.505	13.423	1357.544	1020.804
67.520	13.486	1356.083	1019.999
68.534	13.510	1355.040	1019.277
69.549	13.534	1354.118	1018.639
70.563	13.567	1352.770	1017.736
71.578	13.444	1351.982	1016.300
72.593	13.359	1350.920	1014.888
73.607	13.426	1350.258	1014.713
74.622	13.403	1349.377	1013.818
75.636	13.392	1348.718	1013.169
76.651	13.383	1347.787	1012.325
77.666	13.438	1347.428	1012.300
78.680	13.464	1346.982	1012.033
79.695	13.447	1345.747	1010.916
80.709	13.440	1344.786	1010.060
81.724	13.455	1344.251	1009.662
82.739	13.608	1342.775	1009.396
83.753	13.538	1341.965	1008.272
84.768	13.600	1341.180	1007.966
85.782	13.639	1340.163	1007.350
86.797	13.548	1338.771	1005.663
87.812	13.467	1337.802	1004.353
88.826	13.669	1336.019	1004.151
89.841	13.580	1335.376	1003.042
90.855	13.723	1333.960	1002.753
91.870	13.720	1333.127	1002.018
92.884	13.712	1332.436	1001.364
93.899	13.591	1331.907	1000.147
94.914	13.709	1330.618	999.801
95.928	13.645	1329.799	998.715
96.943	13.727	1329.329	998.763
97.957	13.703	1328.195	997.678
98.972	13.669	1327.024	996.507
99.987	13.634	1326.059	995.483
101.001	13.660	1324.924	994.699
102.016	13.685	1323.798	993.920
103.030	13.729	1322.546	993.151
104.045	13.705	1322.165	992.634
105.060	13.643	1320.982	991.290
106.074	13.651	1319.494	990.130
107.089	13.638	1317.723	988.636
108.103	13.551	1316.732	987.290
109.118	13.617	1315.549	986.705
110.133	13.681	1314.039	985.869
111.147	13.634	1312.712	984.509
112.162	13.601	1311.525	983.332
113.176	13.661	1310.106	982.537
114.191	13.590	1308.967	981.174
115.206	13.673	1308.077	980.914
116.220	13.624	1306.612	979.436
117.235	13.651	1305.808	978.911
118.249	13.601	1304.820	977.786
119.264	13.622	1303.449	976.795
120.279	13.687	1302.282	976.218
121.293	13.572	1301.370	974.769
122.308	13.666	1300.200	974.362
123.322	13.628	1299.167	973.280
124.337	13.474	1298.819	972.027
125.352	13.511	1297.582	971.231
126.366	13.536	1296.104	970.190
127.381	13.588	1294.878	969.489
128.395	13.547	1294.070	968.557
129.410	13.544	1293.330	967.901
130.424	13.524	1292.054	966.742
131.439	13.711	1290.597	966.656
132.454	13.671	1290.392	966.188
133.468	13.644	1288.977	964.881
134.483	13.595	1288.641	964.261
135.497	13.578	1287.029	962.869
136.512	13.609	1285.582	961.881
137.527	13.652	1283.979	960.849
138.541	13.634	1282.785	959.767
139.556	13.639	1281.428	958.692
140.570	13.747	1280.222	958.329
141.585	13.718	1279.069	957.213
142.600	13.690	1278.238	956.345
143.614	13.776	1276.945	955.790
144.629	13.788	1275.689	954.837
145.643	13.684	1275.088	953.701
146.658	13.746	1273.387	952.701
147.673	13.745	1271.888	951.492
148.687	13.788	1270.475	950.596
149.702	13.646	1269.790	949.184
150.716	13.805	1267.944	948.629
151.731	13.682	1267.286	947.351
152.746	13.691	1266.171	946.484
153.760	13.894	1264.145	946.046
154.775	13.828	1263.279	944.939
155.789	13.772	1262.368	943.853
156.804	13.804	1261.306	943.155
157.819	13.876	1260.127	942.601
158.833	13.835	1259.139	941.543
159.848	13.920	1258.393	941.384
160.862	13.864	1257.391	940.238
161.877	13.922	1256.433	939.765
162.892	13.867	1255.405	938.604
163.906	13.767	1254.501	937.277
164.921	13.931	1253.110	937.084
165.935	13.844	1252.588	936.117
166.950	13.942	1251.503	935.777
167.964	13.911	1251.181	935.278
168.979	13.992	1250.293	934.989
169.994	13.870	1249.567	933.678
171.008	13.897	1248.411	932.882
172.023	14.023	1247.558	932.869
173.037	14.095	1246.600	932.471
174.052	14.125	1245.239	931.540
175.067	13.931	1245.052	930.235
176.081	13.861	1244.286	929.184
177.096	13.930	1242.798	928.377
178.110	14.019	1241.620	927.913
179.125	14.062	1239.954	926.827
180.140	14.039	1239.378	926.187
181.154	13.998	1238.193	924.987
182.169	14.052	1237.048	924.353
183.183	14.085	1235.663	923.420
184.198	14.142	1234.252	922.601
185.213	14.213	1233.257	922.167
186.227	14.123	1232.282	920.861
187.242	14.171	1231.157	920.201
188.256	14.226	1230.539	919.962
189.271	14.155	1229.400	918.638
190.286	14.126	1228.231	917.522
191.300	13.973	1227.580	916.114
192.315	13.989	1227.007	915.692
193.329	13.997	1226.356	915.167
194.344	14.090	1225.619	915.049
195.359	14.121	1224.778	914.512
196.373	14.186	1224.382	914.492
197.388	14.315	1223.700	914.609
198.402	14.307	1223.328	914.205
199.417	14.287	1222.480	913.384
200.432	14.384	1221.475	913.080
201.446	14.467	1220.541	912.755
202.461	14.394	1219.571	911.550
203.475	14.354	1218.782	910.666
204.490	14.434	1217.394	909.985
205.504	14.378	1216.378	908.836
206.519	14.462	1214.845	908.066
207.534	14.478	1213.569	907.120
208.548	14.419	1213.090	906.360
209.563	14.408	1212.197	905.557
210.577	14.492	1211.305	905.262
211.592	14.552	1210.739	905.087
212.607	14.633	1209.280	904.357
213.621	14.577	1208.310	903.245
214.636	14.595	1207.711	902.818
215.650	14.531	1206.824	901.727
216.665	14.577	1205.791	901.124
217.680	14.652	1204.972	900.835
218.694	14.660	1203.888	899.990
219.709	14.623	1203.436	899.374
220.723	14.564	1203.034	898.677
221.738	14.613	1201.719	897.877
222.753	14.669	1201.237	897.737
223.767	14.690	1200.716	897.383
224.782	14.771	1199.614	896.916
225.796	14.782	1198.796	896.285
226.811	14.808	1198.395	896.046
227.826	14.820	1197.725	895.529
228.840	14.752	1196.733	894.341
229.855	14.766	1196.161	893.911
230.869	14.838	1195.062	893.397
231.884	14.754	1194.444	892.405
232.899	14.771	1193.781	891.921
233.913	14.723	1192.634	890.728
234.928	14.693	1192.015	890.028
235.942	14.776	1191.419	889.950
236.957	14.816	1190.446	889.354
237.972	14.810	1189.751	888.727
238.986	14.812	1188.919	888.035
240.001	14.753	1188.706	887.482
241.015	14.777	1187.512	886.641
242.030	14.817	1186.764	886.218
243.045	14.892	1185.933	885.916
244.059	14.925	1185.263	885.513
245.074	14.907	1184.199	884.542
246.088	14.943	1183.616	884.218
247.103	15.022	1182.896	884.021
248.117	15.006	1182.182	883.325
249.132	14.974	1181.771	882.772
250.147	15.105	1180.557	882.476
251.161	15.151	1179.611	881.934
252.176	15.185	1178.954	881.542
253.190	15.107	1178.705	880.867
254.205	15.143	1177.893	880.373
255.220	15.150	1177.141	879.770
256.234	15.306	1176.056	879.697
257.249	15.273	1175.525	879.052
258.263	15.228	1175.020	878.362
259.278	15.302	1174.252	878.095
260.293	15.268	1174.003	877.652
261.307	15.388	1173.049	877.489
262.322	15.365	1172.489	876.875
263.336	15.318	1172.083	876.247
264.351	15.348	1171.354	875.778
265.366	15.309	1170.973	875.216
266.380	15.325	1170.061	874.541
267.395	15.385	1169.182	874.118
268.409	15.329	1168.538	873.269
269.424	15.461	1167.743	873.282
270.439	15.305	1167.198	871.983
271.453	15.389	1166.180	871.587
272.468	15.423	1165.213	870.961
273.482	15.414	1164.783	870.519
274.497	15.376	1164.606	870.111
275.512	15.456	1163.309	869.478
276.526	15.383	1162.742	868.600
277.541	15.355	1162.133	867.923
278.555	15.486	1160.986	867.665
279.570	15.618	1160.306	867.763
280.585	15.599	1159.580	867.045
281.599	15.544	1158.775	866.083
282.614	15.534	1157.621	865.091
283.628	15.644	1156.712	864.903
284.643	15.621	1155.819	864.040
285.657	15.833	1154.557	864.112
286.672	15.643	1153.894	862.562
287.687	15.657	1152.947	861.850
288.701	15.684	1152.048	861.239
289.716	15.729	1151.245	860.795
290.730	15.697	1150.893	860.292
291.745	15.813	1149.586	859.828
292.760	15.658	1149.638	859.001
293.774	15.705	1149.262	858.881
294.789	15.763	1148.525	858.554
295.803	15.933	1147.258	858.397
296.818	15.748	1147.073	857.242
297.833	15.826	1145.927	856.702
298.847	15.790	1145.197	855.897
299.862	15.747	1144.540	855.113
300.876	15.827	1143.978	855.023
301.891	15.904	1143.089	854.677
302.906	15.905	1142.385	854.081
303.920	15.917	1141.718	853.567
304.935	15.975	1140.859	853.139
305.949	15.986	1140.369	852.753
306.964	16.082	1139.856	852.783
307.979	15.946	1138.913	851.314
308.993	16.018	1138.092	850.989
310.008	16.053	1137.986	851.009
311.022	16.046	1136.650	849.900
312.037	16.021	1135.692	848.984
313.052	16.055	1134.908	848.494
314.066	16.068	1133.769	847.630
315.081	16.101	1132.901	847.075
316.095	16.077	1132.320	846.443
317.110	16.068	1131.972	846.065
318.125	16.174	1130.771	845.621
319.139	16.216	1129.986	845.170
320.154	16.018	1129.774	843.946
321.168	16.062	1128.778	843.345
322.183	16.153	1128.065	843.195
323.197	16.150	1127.388	842.600
324.212	16.033	1127.421	841.965
325.227	16.158	1126.732	842.002
326.241	16.171	1125.733	841.244
327.256	16.160	1125.166	840.690
328.270	16.223	1123.766	839.885
329.285	16.165	1123.328	839.192
330.300	16.141	1122.217	838.170
331.314	16.196	1121.056	837.502
332.329	16.173	1120.313	836.757
333.343	16.330	1119.156	836.600
334.358	16.282	1118.585	835.857
335.373	16.363	1117.691	835.520
336.387	16.285	1117.127	834.639
337.402	16.221	1116.216	833.569
338.416	16.340	1115.964	833.894
339.431	16.497	1115.033	833.895
340.446	16.381	1114.563	832.902
341.460	16.557	1113.501	832.898
342.475	16.502	1112.549	831.841
343.489	16.521	1111.851	831.342
344.504	16.461	1110.736	830.141
345.519	16.548	1109.808	829.798
346.533	16.550	1109.433	829.457
347.548	16.592	1108.697	829.039
348.562	16.575	1107.612	828.070
349.577	16.674	1106.795	827.867
350.592	16.598	1106.309	827.063
351.606	16.562	1105.346	826.093
352.621	16.679	1104.167	825.711
353.635	16.616	1104.295	825.426
354.650	16.633	1103.387	824.755
355.665	16.582	1102.643	823.876
356.679	16.729	1101.868	823.943
357.694	16.628	1101.489	823.094
358.708	16.629	1100.838	822.538
359.723	16.753	1100.150	822.553
360.738	16.757	1099.254	821.833
361.752	16.691	1099.113	821.334
362.767	16.706	1098.463	820.846
363.781	16.780	1097.803	820.641
364.796	16.724	1097.534	820.095
365.810	16.787	1096.643	819.659
366.825	16.828	1095.942	819.266
367.840	16.855	1095.363	818.888
368.854	16.978	1094.497	818.762
369.869	16.939	1093.759	817.950
370.883	16.886	1093.070	817.107
371.898	16.938	1092.151	816.598
372.913	16.965	1091.871	816.447
373.927	16.903	1091.628	815.895
374.942	16.944	1091.107	815.628
375.956	16.969	1090.448	815.187
376.971	16.973	1089.644	814.532
377.986	17.178	1088.938	814.913
379.000	17.035	1088.736	814.006
380.015	17.042	1087.992	813.409
381.029	17.092	1087.417	813.147
382.044	17.292	1086.461	813.320
383.059	17.224	1085.902	812.503
384.073	17.273	1084.626	811.710
385.088	17.094	1084.030	810.339
386.102	17.176	1083.095	809.957
387.117	17.211	1082.109	809.317
388.132	17.098	1081.457	808.216
389.146	17.213	1080.440	807.935
390.161	17.204	1079.888	807.408
391.175	17.264	1078.799	806.804
392.190	17.157	1078.538	806.030
393.205	17.341	1077.743	806.239
394.219	17.336	1076.692	805.359
395.234	17.394	1075.714	804.830
396.248	17.325	1075.133	803.996
397.263	17.227	1073.888	802.531
398.278	17.193	1073.207	801.793
399.292	17.195	1072.824	801.445
400.307	17.191	1072.192	800.881
401.321	17.227	1071.321	800.332
402.336	17.269	1070.877	800.123
403.350	17.374	1069.678	799.654
404.365	17.461	1068.880	799.395
405.380	17.564	1067.971	799.128
406.394	17.407	1067.776	798.175
407.409	17.533	1066.637	797.844
408.423	17.611	1066.096	797.734
409.438	17.452	1065.437	796.422
410.453	17.491	1065.104	796.289
411.467	17.676	1064.021	796.271
412.482	17.731	1063.148	795.805
413.496	17.592	1062.750	794.786
414.511	17.643	1062.028	794.414
415.526	17.696	1061.778	794.406
416.540	17.726	1061.105	793.972
417.555	17.724	1060.573	793.495
418.569	17.629	1060.523	792.944
419.584	17.703	1059.860	792.721
420.599	17.768	1058.963	792.282
421.613	106.659	1328.781	1481.790
422.628	98.422	1368.065	1481.916
