DTS Sentinel unit serial number:	SN413079Multiplexer serial number:	ORYXHardware model number:	OX4-SRSoftware version number:	ORYX F/W v4.00 Oryx Data Collector v3.7.2.0data status	okinstallation	princeton_trtdifferential loss correction	single-endedforward channel	channel 2reverse channel	N/Adate	2019/09/11time	19:41:10forward acquisition time	60.00reverse acquisition time	0.00gamma	496.2192k internal	0.2307k external	0.2307temperature offset calibration	1.0049default loss term (dB/km)	0.3790temperature slope calibration	1.0000multiplexer offset coefficient	1.0000multiplexer slope coefficient	1.0000fibre end	0.00T internal ref (°C)	39.77T ext. ref 1 (°C)	1.34T ext. ref 2 (°C)	32.40length (m)	temperature (°C)	Stokes	anti-Stokes-747.200	525.010	0.100	-0.240
-746.185	-200.000	0.041	-0.389
-745.171	-38.157	0.233	-0.126
-744.156	-110.967	-0.312	-0.065
-743.142	-46.524	0.493	0.246
-742.127	-86.413	-0.217	0.068
-741.112	-125.339	0.105	-0.016
-740.098	280.309	-0.129	0.234
-739.083	-200.000	-0.023	-0.199
-738.069	800.000	0.087	-0.363
-737.054	-163.312	0.124	0.006
-736.039	800.000	-0.076	-0.249
-735.025	-59.764	0.236	-0.103
-734.010	-90.082	-0.147	-0.044
-732.996	246.773	-0.132	-0.226
-731.981	59.284	-0.237	0.237
-730.966	-115.970	-0.245	-0.046
-729.952	-140.573	0.183	0.019
-728.937	-36.813	-0.296	0.162
-727.923	-169.715	-0.279	-0.010
-726.908	193.124	0.215	-0.331
-725.894	-141.163	-0.289	0.030
-724.879	166.332	-0.093	-0.135
-723.864	284.325	0.194	-0.355
-722.850	73.589	0.184	0.196
-721.835	152.410	0.105	0.146
-720.821	-200.000	0.089	-0.680
-719.806	-200.000	-0.008	-0.192
-718.791	272.763	0.068	-0.122
-717.777	-35.220	0.195	0.108
-716.762	800.000	0.038	0.137
-715.748	361.422	-0.109	0.221
-714.733	-110.969	-0.190	0.040
-713.718	411.615	0.121	0.262
-712.704	326.526	-0.127	0.248
-711.689	-147.129	-0.285	0.025
-710.675	-171.236	0.231	-0.008
-709.660	-57.833	-0.135	0.060
-708.645	451.365	-0.230	0.517
-707.631	-2.754	0.074	-0.052
-706.616	-41.311	0.082	-0.043
-705.602	-200.000	0.006	-0.146
-704.587	-200.000	0.016	-0.121
-703.572	-6.796	-0.289	-0.199
-702.558	-4.134	-0.144	0.101
-701.543	265.153	0.030	0.054
-700.529	-200.000	-0.038	0.176
-699.514	-20.617	-0.524	-0.327
-698.499	-200.000	0.025	0.255
-697.485	-135.041	-0.319	-0.039
-696.470	-102.257	-0.015	0.004
-695.456	724.306	0.078	0.210
-694.441	-39.536	0.084	-0.045
-693.426	-200.000	-0.070	0.592
-692.412	-75.409	-0.281	0.102
-691.397	133.854	0.336	0.441
-690.383	533.321	0.020	0.047
-689.368	34.025	-0.055	-0.049
-688.354	98.409	-0.274	-0.320
-687.339	-200.000	-0.025	0.174
-686.324	-61.811	-0.125	0.053
-685.310	565.177	-0.111	-0.272
-684.295	-143.498	0.308	0.030
-683.281	800.000	-0.027	-0.081
-682.266	800.000	0.053	-0.168
-681.251	-37.430	-0.024	-0.013
-680.237	-157.408	0.189	0.012
-679.222	-83.167	-0.366	-0.119
-678.208	-105.733	-0.129	-0.030
-677.193	39.836	0.012	0.011
-676.178	514.652	-0.036	0.084
-675.164	43.807	-0.082	0.076
-674.149	-73.000	-0.225	0.084
-673.135	223.519	0.062	-0.101
-672.120	-58.142	0.268	0.118
-671.105	-66.559	-0.309	0.124
-670.091	106.883	0.237	0.285
-669.076	46.915	0.077	-0.073
-668.062	43.318	0.103	-0.096
-667.047	-200.000	0.010	-0.061
-666.032	204.452	-0.187	0.293
-665.018	184.409	0.121	0.182
-664.003	165.368	0.026	0.038
-662.989	20.334	0.138	0.113
-661.974	271.979	0.140	-0.250
-660.959	295.747	0.117	0.217
-659.945	-200.000	0.008	-0.151
-658.930	-200.000	-0.033	0.160
-657.916	-116.567	0.526	0.098
-656.901	14.762	0.086	-0.068
-655.886	-177.624	0.365	0.009
-654.872	-99.836	0.195	0.050
-653.857	-72.664	-0.073	0.027
-652.843	-200.000	0.020	-0.132
-651.828	-176.015	-0.096	-0.003
-650.814	-93.999	0.144	-0.040
-649.799	18.551	-0.078	-0.063
-648.784	-200.000	0.005	0.119
-647.770	54.818	-0.217	0.212
-646.755	75.277	0.262	0.280
-645.741	-200.000	-0.070	-0.522
-644.726	-74.358	0.320	-0.117
-643.711	489.457	0.023	-0.054
-642.697	800.000	0.063	-0.183
-641.682	-111.605	-0.248	-0.051
-640.668	-56.043	-0.149	-0.067
-639.653	-89.707	-0.226	-0.067
-638.638	-149.208	-0.163	0.013
-637.624	38.045	-0.242	-0.218
-636.609	-200.000	0.014	-0.154
-635.595	-91.126	-0.178	0.052
-634.580	238.217	-0.179	0.301
-633.565	-68.152	0.187	-0.074
-632.551	125.853	0.114	-0.146
-631.536	-122.232	-0.124	-0.021
-630.522	-74.801	0.150	0.055
-629.507	-200.000	0.001	-0.266
-628.492	-200.000	0.175	0.000
-627.478	102.211	-0.199	-0.235
-626.463	-57.941	-0.092	0.040
-625.449	221.768	0.143	-0.233
-624.434	-200.000	0.049	-0.262
-623.419	221.649	-0.113	0.184
-622.405	-136.068	-0.055	0.007
-621.390	-200.000	-0.015	0.205
-620.376	-200.000	-0.011	-0.207
-619.361	-103.340	0.129	-0.031
-618.346	303.740	-0.113	0.212
-617.332	157.282	-0.044	-0.061
-616.317	-89.729	0.120	-0.035
-615.303	-155.434	-0.177	-0.012
-614.288	7.252	-0.160	-0.121
-613.273	438.864	0.140	0.308
-612.259	273.041	0.026	-0.047
-611.244	-113.985	0.339	0.067
-610.230	44.171	0.070	0.065
-609.215	-200.000	0.030	-0.133
-608.201	97.360	-0.055	-0.064
-607.186	-200.000	-0.018	0.107
-606.171	-31.480	-0.142	0.081
-605.157	-78.186	0.204	0.071
-604.142	-200.000	0.052	-0.406
-603.128	-200.000	-0.020	-0.271
-602.113	-60.393	-0.361	-0.155
-601.098	166.042	-0.082	-0.118
-600.084	-200.000	0.029	-0.221
-599.069	161.193	-0.039	0.055
-598.055	800.000	-0.059	-0.178
-597.040	231.610	-0.084	-0.139
-596.025	-52.490	-0.419	-0.196
-595.011	800.000	0.053	-0.163
-593.996	-40.151	-0.199	-0.105
-592.982	7.291	0.194	-0.146
-591.967	-92.192	-0.218	0.062
-590.952	6.213	0.166	-0.124
-589.938	537.797	-0.075	0.180
-588.923	800.000	0.022	-0.087
-587.909	-191.037	0.439	-0.005
-586.894	-200.000	0.014	-0.197
-585.879	224.954	0.197	0.323
-584.865	-89.582	-0.176	-0.052
-583.850	-200.000	-0.049	-0.289
-582.836	167.440	0.183	0.263
-581.821	-184.323	-0.394	-0.007
-580.806	-52.369	-0.352	0.165
-579.792	-5.824	0.174	-0.120
-578.777	-11.219	-0.092	-0.061
-577.763	77.465	-0.073	0.078
-576.748	-58.786	-0.216	0.095
-575.733	29.538	-0.086	-0.074
-574.719	756.455	0.101	-0.276
-573.704	-25.824	-0.295	0.175
-572.690	-200.000	0.001	-0.204
-571.675	170.280	0.210	-0.304
-570.661	-200.000	0.034	-0.272
-569.646	800.000	0.063	-0.265
-568.631	154.691	0.050	0.070
-567.617	-113.822	0.179	-0.035
-566.602	176.017	0.172	-0.252
-565.588	-99.919	-0.574	0.145
-564.573	-200.000	-0.001	0.110
-563.558	-39.319	-0.248	-0.131
-562.544	-137.719	-0.100	0.011
-561.529	199.284	-0.086	-0.132
-560.515	-98.726	0.226	0.058
-559.500	233.227	0.215	0.357
-558.485	-103.783	-0.298	0.070
-557.471	12.525	-0.184	0.144
-556.456	70.343	0.204	-0.213
-555.442	800.000	0.035	-0.099
-554.427	185.086	0.193	0.289
-553.412	83.336	-0.287	0.316
-552.398	-62.207	-0.200	-0.084
-551.383	32.662	-0.075	-0.065
-550.369	617.515	0.055	0.138
-549.354	389.208	-0.206	-0.431
-548.339	185.979	-0.135	-0.202
-547.325	423.335	0.091	0.198
-546.310	-82.424	-0.353	-0.116
-545.296	-200.000	0.032	0.214
-544.281	-29.074	0.261	-0.151
-543.266	-71.868	0.103	0.039
-542.252	11.246	-0.233	0.180
-541.237	524.478	-0.053	-0.126
-540.223	143.291	-0.026	-0.035
-539.208	800.000	0.005	0.020
-538.193	-151.981	0.349	-0.026
-537.179	156.189	-0.085	0.118
-536.164	-168.770	0.145	-0.006
-535.150	-127.211	0.207	-0.031
-534.135	151.583	-0.113	0.156
-533.121	-129.340	-0.402	-0.056
-532.106	61.417	-0.077	0.077
-531.091	415.363	-0.102	-0.220
-530.077	55.745	0.086	0.084
-529.062	5.105	0.178	-0.132
-528.048	-158.924	0.084	0.005
-527.033	-16.235	0.352	0.226
-526.018	104.493	0.108	0.129
-525.004	426.084	-0.063	-0.138
-523.989	8.429	0.215	0.163
-522.975	464.008	-0.147	0.332
-521.960	-130.495	0.239	0.033
-520.945	177.024	-0.156	0.230
-519.931	57.256	-0.042	0.041
-518.916	671.392	0.095	0.249
-517.902	-140.816	0.203	-0.021
-516.887	-200.000	-0.014	-0.066
-515.872	31.166	-0.216	-0.187
-514.858	-200.000	-0.052	0.386
-513.843	719.260	-0.009	0.025
-512.829	36.339	-0.221	-0.196
-511.814	-200.000	0.007	0.068
-510.799	-155.702	0.391	-0.025
-509.785	26.665	0.158	0.134
-508.770	-63.883	0.005	-0.002
-507.756	-184.651	-0.332	-0.005
-506.741	-124.949	0.028	0.004
-505.726	-84.249	0.304	-0.097
-504.712	8.483	-0.080	-0.061
-503.697	-23.524	0.083	0.050
-502.683	-25.905	0.361	0.214
-501.668	800.000	0.111	0.363
-500.653	-18.462	0.161	-0.101
-499.639	11.359	0.087	0.067
-498.624	-102.463	0.235	0.057
-497.610	-21.689	0.180	0.110
-496.595	-171.124	0.284	-0.010
-495.581	101.681	-0.267	0.313
-494.566	800.000	0.050	0.186
-493.551	323.514	-0.098	-0.188
-492.537	-128.338	-0.194	0.028
-491.522	-200.000	0.029	0.219
-490.508	11.789	-0.077	-0.060
-489.493	800.000	0.049	0.181
-488.478	61.895	-0.142	-0.142
-487.464	-112.268	-0.258	0.052
-486.449	244.207	0.101	-0.171
-485.435	768.164	0.040	0.108
-484.420	-200.000	-0.003	0.108
-483.405	2.286	0.187	-0.136
-482.391	0.956	0.227	0.164
-481.376	800.000	0.055	0.230
-480.362	-14.108	-0.183	-0.119
-479.347	391.445	-0.088	0.183
-478.332	164.418	-0.175	-0.249
-477.318	-146.000	0.159	0.014
-476.303	357.858	0.280	0.562
-475.289	611.868	-0.053	0.134
-474.274	146.753	-0.047	-0.063
-473.259	142.691	0.012	-0.016
-472.245	336.162	0.135	0.263
-471.230	-200.000	-0.081	0.433
-470.216	55.831	0.210	-0.205
-469.201	-200.000	-0.023	0.221
-468.186	800.000	-0.076	0.274
-467.172	232.734	0.114	0.188
-466.157	99.254	0.106	0.124
-465.143	800.000	-0.086	-0.281
-464.128	-152.366	0.076	-0.006
-463.113	-200.000	0.047	-0.317
-462.099	-52.913	0.356	-0.165
-461.084	176.771	-0.134	0.196
-460.070	800.000	-0.087	-0.380
-459.055	-70.472	0.202	-0.077
-458.040	-77.153	0.297	0.104
-457.026	-79.904	-0.041	0.014
-456.011	-15.754	-0.237	-0.152
-454.997	-114.362	-0.161	0.031
-453.982	-151.934	-0.083	-0.006
-452.968	135.618	0.104	0.136
-451.953	-85.082	0.119	0.037
-450.938	-40.032	-0.065	0.034
-449.924	-66.766	0.232	0.092
-448.909	405.475	0.163	-0.345
-447.895	54.376	0.292	-0.283
-446.880	-77.658	-0.043	0.015
-445.865	-22.108	-0.113	-0.069
-444.851	281.753	-0.081	-0.145
-443.836	133.690	-0.033	0.043
-442.822	-200.000	0.078	0.351
-441.807	58.423	0.106	0.105
-440.792	44.495	-0.118	-0.109
-439.778	-50.585	-0.180	-0.085
-438.763	61.151	0.033	-0.033
-437.749	-73.738	-0.027	0.010
-436.734	105.871	0.144	-0.171
-435.719	50.241	0.043	-0.041
-434.705	800.000	-0.108	-0.378
-433.690	800.000	-0.147	0.421
-432.676	-200.000	-0.028	0.227
-431.661	-200.000	0.032	-0.280
-430.646	-28.996	-0.204	0.118
-429.632	-87.560	0.382	0.116
-428.617	-32.591	0.120	-0.067
-427.603	262.872	-0.073	-0.127
-426.588	104.075	0.144	-0.170
-425.573	-200.000	0.006	0.111
-424.559	752.758	0.140	-0.378
-423.544	67.337	0.230	-0.236
-422.530	515.760	-0.127	0.299
-421.515	-200.000	-0.031	-0.157
-420.500	-7.711	0.161	0.109
-419.486	-94.583	0.229	-0.063
-418.471	-112.791	0.306	-0.061
-417.457	34.427	-0.077	0.068
-416.442	-36.856	0.114	0.061
-415.428	-37.359	-0.228	0.122
-414.413	-200.000	0.220	0.001
-413.398	-32.689	-0.356	-0.199
-412.384	800.000	-0.072	-0.208
-411.369	-27.139	0.324	-0.190
-410.355	-200.000	0.027	0.301
-409.340	-24.944	0.137	-0.081
-408.325	-65.908	0.173	-0.070
-407.311	800.000	-0.063	0.195
-406.296	152.324	-0.124	-0.170
-405.282	-200.000	-0.001	-0.200
-404.267	-200.000	0.008	0.126
-403.252	449.435	-0.064	0.141
-402.238	276.087	-0.106	0.189
-401.223	186.582	-0.123	-0.184
-400.209	-116.279	-0.257	0.048
-399.194	630.954	-0.079	-0.200
-398.179	800.000	-0.038	0.121
-397.165	391.884	-0.171	0.357
-396.150	52.880	-0.152	0.146
-395.136	-200.000	-0.030	-0.437
-394.121	-114.317	-0.082	-0.016
-393.106	-109.770	-0.141	-0.030
-392.092	-200.000	0.021	-0.309
-391.077	-100.764	0.193	-0.048
-390.063	444.154	-0.089	-0.197
-389.048	-160.158	-0.092	0.005
-388.033	-200.000	0.030	0.311
-387.019	45.152	0.173	0.160
-386.004	-71.790	0.119	0.044
-384.990	18.391	0.218	0.175
-383.975	800.000	0.070	0.216
-382.960	-81.347	0.167	-0.055
-381.946	-122.759	0.118	0.019
-380.931	63.183	0.157	0.157
-379.917	-127.758	-0.137	-0.020
-378.902	17.341	0.021	-0.017
-377.888	217.721	0.030	-0.047
-376.873	-200.000	0.037	-0.185
-375.858	-144.423	-0.155	-0.014
-374.844	62.617	-0.082	-0.082
-373.829	185.407	-0.184	-0.274
-372.815	-200.000	-0.018	-0.231
-371.800	-200.000	-0.022	-0.229
-370.785	-85.052	-0.170	-0.053
-369.771	-84.969	0.286	-0.090
-368.756	264.551	-0.097	0.169
-367.742	-149.092	0.102	-0.008
-366.727	-200.000	-0.100	0.451
-365.712	-56.763	-0.198	-0.088
-364.698	-75.483	-0.312	-0.111
-363.683	-14.554	-0.061	0.039
-362.669	103.152	0.015	0.018
-361.654	163.032	-0.192	-0.270
-360.639	83.073	-0.077	0.084
-359.625	56.098	-0.193	-0.188
-358.610	-97.993	0.480	-0.124
-357.596	-10.871	-0.156	0.103
-356.581	33.684	-0.163	-0.142
-355.566	-145.149	-0.161	0.015
-354.552	82.439	0.112	0.122
-353.537	-149.755	-0.240	-0.019
-352.523	-161.028	0.053	0.003
-351.508	318.611	0.102	0.194
-350.493	-59.350	-0.302	-0.130
-349.479	-78.889	-0.317	0.108
-348.464	800.000	-0.044	0.131
-347.450	-88.798	0.185	0.055
-346.435	-200.000	0.018	0.090
-345.420	-12.530	-0.363	0.237
-344.406	-200.000	-0.025	0.252
-343.391	-37.910	-0.506	-0.269
-342.377	800.000	-0.117	-0.359
-341.362	-19.100	0.272	0.169
-340.348	258.463	-0.069	0.119
-339.333	109.611	-0.060	-0.072
-338.318	64.640	0.193	-0.195
-337.304	132.883	0.115	-0.149
-336.289	14.443	-0.247	0.193
-335.275	-98.717	0.148	0.038
-334.260	224.077	-0.139	-0.224
-333.245	375.905	0.128	-0.261
-332.231	-92.958	-0.089	0.025
-331.216	105.059	0.215	-0.253
-330.202	800.000	-0.075	-0.232
-329.187	800.000	0.025	-0.109
-328.172	8.298	0.244	0.183
-327.158	37.119	0.141	-0.125
-326.143	487.692	0.061	-0.140
-325.129	701.083	-0.030	0.079
-324.114	-58.702	0.221	0.096
-323.099	39.897	0.141	0.127
-322.085	-200.000	-0.013	-0.079
-321.070	-102.764	-0.140	0.033
-320.056	-66.945	0.042	-0.017
-319.041	-67.641	-0.084	0.033
-318.026	59.679	0.188	-0.185
-317.012	-200.000	-0.004	0.061
-315.997	114.247	0.042	-0.051
-314.983	522.091	-0.035	-0.083
-313.968	-200.000	-0.011	0.157
-312.953	800.000	-0.007	-0.028
-311.939	50.347	0.231	-0.218
-310.924	520.245	0.040	0.094
-309.910	275.079	-0.118	-0.209
-308.895	-52.502	0.170	0.078
-307.880	-14.550	0.074	0.047
-306.866	-71.224	-0.167	-0.063
-305.851	-200.000	-0.003	0.185
-304.837	-9.673	-0.136	-0.091
-303.822	-104.386	0.409	0.095
-302.807	-200.000	0.038	-0.223
-301.793	145.618	-0.019	0.025
-300.778	509.923	0.106	0.246
-299.764	-200.000	0.018	0.136
-298.749	285.106	-0.135	0.243
-297.735	-200.000	-0.027	0.175
-296.720	143.601	0.140	-0.186
-295.705	148.011	-0.147	-0.198
-294.691	800.000	-0.025	-0.093
-293.676	64.044	-0.327	-0.328
-292.662	175.131	0.090	0.130
-291.647	800.000	0.058	0.180
-290.632	41.672	-0.077	0.070
-289.618	34.314	0.142	-0.124
-288.603	-200.000	-0.040	0.313
-287.589	303.994	0.187	0.347
-286.574	-200.000	0.009	0.045
-285.559	-200.000	-0.094	0.632
-284.545	-101.699	0.364	-0.088
-283.530	-132.051	-0.330	-0.043
-282.516	-153.415	0.131	-0.009
-281.501	156.768	0.162	0.223
-280.486	-200.000	-0.152	-0.001
-279.472	-92.257	-0.038	0.011
-278.457	800.000	0.041	0.143
-277.443	-29.403	0.111	-0.063
-276.428	81.620	-0.134	0.145
-275.413	-140.447	0.344	-0.036
-274.399	0.758	-0.151	0.108
-273.384	40.710	-0.254	0.229
-272.370	800.000	-0.065	-0.281
-271.355	-104.712	-0.382	-0.088
-270.340	-28.548	-0.146	-0.084
-269.326	451.770	0.069	-0.151
-268.311	-200.000	-0.010	0.196
-267.297	-200.000	0.018	0.278
-266.282	471.448	-0.104	0.233
-265.267	226.857	0.036	-0.058
-264.253	-200.000	-0.025	-0.167
-263.238	367.349	0.111	-0.224
-262.224	-31.767	0.119	-0.067
-261.209	22.188	0.205	-0.167
-260.195	29.384	0.054	-0.046
-259.180	-200.000	0.010	-0.086
-258.165	41.760	-0.122	-0.111
-257.151	-159.058	-0.287	-0.016
-256.136	-70.573	-0.189	0.071
-255.122	-3.231	0.003	0.002
-254.107	-160.305	-0.250	0.013
-253.092	-52.827	0.429	0.197
-252.078	46.960	-0.246	-0.228
-251.063	800.000	-0.047	0.194
-250.049	-200.000	0.037	-0.215
-249.034	-150.337	-0.264	0.020
-248.019	800.000	0.058	0.162
-247.005	-17.173	-0.148	0.093
-245.990	-72.951	-0.141	-0.052
-244.976	-200.000	0.025	-0.312
-243.961	305.158	-0.108	-0.200
-242.946	-154.364	-0.288	-0.019
-241.932	-200.000	-0.016	0.185
-240.917	354.883	0.134	-0.266
-239.903	-73.197	-0.130	0.047
-238.888	216.093	0.210	-0.333
-237.873	111.093	0.134	0.161
-236.859	87.549	0.101	0.112
-235.844	800.000	-0.039	-0.125
-234.830	70.773	0.074	0.076
-233.815	-101.771	-0.115	0.028
-232.800	158.390	-0.129	0.179
-231.786	800.000	-0.074	-0.255
-230.771	196.613	-0.151	-0.229
-229.757	-106.358	0.008	-0.002
-228.742	-108.821	0.054	-0.011
-227.727	240.410	-0.050	0.084
-226.713	310.130	0.154	0.287
-225.698	-52.403	0.285	0.132
-224.684	253.188	-0.049	0.084
-223.669	20.342	-0.051	-0.041
-222.655	-96.029	0.083	-0.022
-221.640	-105.745	-0.520	0.117
-220.625	7.351	0.268	-0.200
-219.611	-54.332	0.104	-0.047
-218.596	-15.625	-0.175	-0.111
-217.582	219.021	0.206	0.328
-216.567	-200.000	0.034	0.165
-215.552	737.792	0.057	-0.152
-214.538	800.000	-0.083	0.338
-213.523	-200.000	-0.008	-0.048
-212.509	80.924	0.084	-0.090
-211.494	86.689	0.079	-0.087
-210.479	-93.516	-0.275	-0.076
-209.465	-34.306	0.170	0.093
-208.450	-63.434	0.214	0.088
-207.436	800.000	-0.106	0.312
-206.421	-61.586	-0.143	-0.060
-205.406	-200.000	-0.060	0.325
-204.392	27.959	-0.141	0.118
-203.377	317.703	0.044	0.084
-202.363	-7.435	0.232	0.156
-201.348	300.622	0.110	0.202
-200.333	622.838	0.095	0.238
-199.319	5.400	0.125	-0.092
-198.304	-121.213	-0.357	-0.059
-197.290	-165.815	0.451	-0.019
-196.275	-85.868	0.086	0.026
-195.260	139.566	0.015	0.020
-194.246	795.276	0.137	0.376
-193.231	57.144	-0.050	-0.049
-192.217	-164.574	0.371	0.017
-191.202	146.159	0.071	-0.094
-190.187	-65.622	-0.065	0.026
-189.173	-87.369	-0.216	0.065
-188.158	92.669	-0.232	-0.260
-187.144	-200.000	-0.034	-0.164
-186.129	78.465	-0.115	0.122
-185.114	800.000	0.120	-0.380
-184.100	170.020	0.225	0.320
-183.085	31.315	0.102	0.087
-182.071	25.860	-0.291	-0.241
-181.056	-59.425	0.165	0.071
-180.042	764.011	0.090	-0.244
-179.027	-200.000	0.044	-0.221
-178.012	-90.242	-0.326	0.094
-176.998	128.950	0.225	-0.285
-175.983	-2.082	0.165	0.115
-174.969	146.870	-0.195	0.260
-173.954	-97.261	0.286	-0.074
-172.939	31.220	0.173	0.148
-171.925	-103.706	-0.222	0.052
-170.910	-200.000	0.001	-0.392
-169.896	-138.376	-0.031	-0.003
-168.881	-200.000	0.004	-0.043
-167.866	-200.000	0.012	0.226
-166.852	-200.000	-0.008	0.264
-165.837	28.778	-0.140	-0.118
-164.823	-71.395	0.383	0.143
-163.808	-147.637	-0.156	0.013
-162.793	130.869	-0.066	-0.084
-161.779	465.024	-0.039	0.086
-160.764	-200.000	-0.029	0.239
-159.750	641.876	0.140	-0.354
-158.735	-15.572	0.322	0.204
-157.720	497.049	0.036	0.082
-156.706	-200.000	-0.004	-0.107
-155.691	-117.737	-0.188	-0.034
-154.677	122.515	0.176	0.219
-153.662	-152.105	-0.408	0.029
-152.647	800.000	0.036	-0.130
-151.633	-24.096	0.333	0.198
-150.618	-200.000	-0.031	0.243
-149.604	-44.552	-0.167	0.083
-148.589	762.214	-0.063	-0.170
-147.574	-200.000	0.101	-0.460
-146.560	607.154	-0.065	0.160
-145.545	91.830	0.029	0.032
-144.531	-81.599	-0.129	0.042
-143.516	25.540	-0.255	-0.210
-142.502	-200.000	0.059	0.271
-141.487	43.470	-0.179	-0.162
-140.472	-27.305	-0.135	-0.078
-139.458	30.213	-0.105	0.089
-138.443	372.543	0.109	0.220
-137.429	76.980	0.161	-0.169
-136.414	196.462	-0.141	-0.214
-135.399	248.362	-0.062	0.105
-134.385	-200.000	0.040	0.257
-133.370	-105.256	0.132	0.030
-132.356	-79.244	-0.087	0.029
-131.341	150.536	0.068	0.091
-130.326	-104.381	-0.251	-0.058
-129.312	-106.305	-0.124	-0.027
-128.297	800.000	-0.075	0.253
-127.283	-99.532	0.134	0.033
-126.268	47.405	0.268	-0.248
-125.253	800.000	-0.022	-0.069
-124.239	-200.000	-0.010	-0.049
-123.224	101.091	-0.115	-0.133
-122.210	-200.000	-0.018	0.412
-121.195	-67.480	0.191	0.075
-120.180	-79.068	-0.313	0.106
-119.166	93.282	-0.015	0.017
-118.151	25.693	0.301	0.248
-117.137	176.338	-0.067	0.096
-116.122	34.663	-0.012	-0.011
-115.107	-177.734	-0.296	0.007
-114.093	-131.722	0.276	-0.036
-113.078	-25.223	-0.141	-0.083
-112.064	800.000	0.059	0.166
-111.049	-106.627	-0.467	-0.103
-110.034	-103.435	0.315	0.074
-109.020	76.949	0.322	0.339
-108.005	-147.109	0.230	-0.019
-106.991	800.000	0.030	-0.087
-105.976	-99.777	-0.044	-0.011
-104.962	-16.088	0.163	0.103
-103.947	-200.000	-0.000	0.262
-102.932	-137.508	-0.280	-0.031
-101.918	-89.715	0.245	-0.071
-100.903	354.737	-0.130	-0.256
-99.889	-13.085	0.507	0.327
-98.874	253.719	0.093	-0.158
-97.859	69.145	-0.064	0.066
-96.845	209.580	-0.169	0.262
-95.830	174.732	0.085	-0.122
-94.816	800.000	0.052	-0.210
-93.801	69.449	-0.392	0.400
-92.786	187.473	-0.152	0.224
-91.772	177.727	-0.154	-0.222
-90.757	-200.000	0.005	-0.119
-89.743	-200.000	-0.035	0.251
-88.728	-200.000	0.016	-0.284
-87.713	246.525	-0.070	-0.117
-86.699	-200.000	0.014	-0.315
-85.684	-23.537	0.182	-0.108
-84.670	-18.910	-0.190	0.117
-83.655	-18.256	0.072	-0.045
-82.640	-200.000	0.009	0.053
-81.626	-149.708	-0.141	-0.011
-80.611	-158.938	-0.181	0.010
-79.597	-105.879	0.265	0.059
-78.582	-164.746	0.160	-0.007
-77.567	-29.144	-0.179	0.102
-76.553	306.480	-0.030	-0.054
-75.538	-55.272	-0.178	0.079
-74.524	-154.909	-0.163	0.011
-73.509	58.332	0.161	0.157
-72.494	-143.205	0.162	-0.015
-71.480	111.956	-0.083	-0.099
-70.465	-200.000	-0.008	0.263
-69.451	-76.900	0.292	0.101
-68.436	-200.000	-0.066	0.401
-67.422	-200.000	-0.035	0.449
-66.407	9.597	0.077	0.058
-65.392	579.955	-0.080	-0.194
-64.378	-19.375	-0.175	0.108
-63.363	-140.412	0.222	-0.023
-62.349	800.000	-0.066	0.246
-61.334	91.353	-0.779	-0.866
-60.319	-34.101	0.377	0.205
-59.305	434.693	-0.320	-0.688
-58.290	101.375	0.552	0.636
-57.276	800.000	0.513	1.452
-56.261	-200.000	80.757	492.209
-55.246	518.118	1327.627	3075.801
-54.232	151.954	2552.885	3445.911
-53.217	108.360	2321.511	2742.198
-52.203	48.503	1941.890	1800.593
-51.188	42.875	1729.987	1560.582
-50.173	40.176	1684.338	1498.927
-49.159	54.349	1722.766	1641.818
-48.144	59.332	1741.621	1697.845
-47.130	42.864	1703.139	1536.034
-46.115	39.789	1689.390	1500.243
-45.100	39.637	1684.059	1494.300
-44.086	39.614	1681.385	1491.689
-43.071	39.703	1678.620	1489.851
-42.057	39.560	1676.456	1486.796
-41.042	39.655	1674.093	1485.356
-40.027	39.638	1672.619	1483.863
-39.013	39.688	1670.338	1482.157
-37.998	39.640	1668.919	1480.478
-36.984	39.629	1668.172	1479.669
-35.969	39.848	1665.674	1479.036
-34.954	39.828	1664.480	1477.772
-33.940	39.765	1662.892	1475.829
-32.925	39.773	1660.999	1474.147
-31.911	39.807	1658.967	1472.539
-30.896	39.748	1657.377	1470.634
-29.881	39.769	1655.386	1468.966
-28.867	39.726	1654.174	1467.512
-27.852	39.761	1652.513	1466.237
-26.838	39.819	1651.214	1465.462
-25.823	39.820	1649.787	1464.141
-24.809	39.871	1648.094	1462.957
-23.794	39.752	1647.067	1461.104
-22.779	39.845	1645.154	1460.040
-21.765	39.782	1644.136	1458.612
-20.750	39.756	1641.999	1456.470
-19.736	39.820	1640.508	1455.556
-18.721	39.796	1639.596	1454.516
-17.706	39.830	1637.510	1452.857
-16.692	39.792	1636.168	1451.333
-15.677	39.815	1634.735	1450.174
-14.663	39.701	1633.901	1448.535
-13.648	39.706	1632.176	1446.988
-12.633	39.742	1630.437	1445.653
-11.619	39.747	1628.776	1444.161
-10.604	39.800	1627.057	1442.966
-9.590	39.724	1626.135	1441.536
-8.575	39.786	1625.030	1440.950
-7.560	39.753	1623.793	1439.550
-6.546	39.885	1622.496	1439.310
-5.531	39.764	1621.276	1437.288
-4.517	39.768	1620.262	1436.365
-3.502	39.757	1619.060	1435.157
-2.487	39.769	1617.731	1434.011
-1.473	39.288	1605.161	1419.340
-0.458	35.971	1582.944	1375.993
0.556	31.132	1580.780	1334.903
1.571	28.191	1604.113	1333.105
2.586	27.455	1618.096	1339.194
3.600	24.243	1565.580	1272.720
4.615	13.707	1449.697	1108.357
5.629	3.435	1378.059	987.942
6.644	1.465	1368.156	968.212
7.659	1.369	1366.373	966.255
8.673	1.274	1365.418	964.890
9.688	1.253	1364.160	963.785
10.702	0.981	1361.146	959.848
11.717	4.590	1368.686	988.049
12.731	15.146	1388.730	1070.194
13.746	23.479	1402.511	1134.263
14.761	25.239	1404.324	1146.887
15.775	25.379	1404.659	1147.952
16.790	25.434	1404.129	1147.772
17.804	25.591	1403.309	1147.999
18.819	25.688	1402.517	1147.870
19.834	25.903	1402.079	1148.780
20.848	25.797	1402.116	1148.036
21.863	25.931	1400.774	1147.685
22.877	25.749	1399.874	1145.691
23.892	25.751	1399.168	1145.024
24.907	25.763	1398.205	1144.212
25.921	25.753	1397.253	1143.265
26.936	25.798	1396.187	1142.580
27.950	25.829	1394.687	1141.449
28.965	25.780	1393.760	1140.274
29.980	25.820	1392.211	1139.158
30.994	25.872	1390.666	1138.127
32.009	25.831	1389.955	1137.183
33.023	25.850	1388.676	1136.159
34.038	25.857	1387.906	1135.473
35.053	25.843	1386.625	1134.236
36.067	25.855	1385.505	1133.294
37.082	25.835	1384.646	1132.363
38.096	25.820	1383.589	1131.307
39.111	25.713	1383.021	1130.069
40.126	25.926	1382.274	1130.696
41.140	25.892	1381.674	1129.889
42.155	25.837	1381.714	1129.480
43.169	25.824	1381.592	1129.198
44.184	25.830	1380.739	1128.436
45.199	25.856	1380.290	1128.134
46.213	25.871	1380.566	1128.352
47.228	25.775	1379.298	1126.617
48.242	25.850	1377.957	1125.890
49.257	25.751	1376.897	1124.308
50.271	25.802	1375.033	1123.002
51.286	25.804	1374.041	1122.107
52.301	25.797	1372.452	1120.667
53.315	25.782	1371.599	1119.775
54.330	25.786	1370.699	1118.967
55.344	25.717	1369.510	1117.468
56.359	25.756	1368.402	1116.711
57.374	25.818	1367.755	1116.469
58.388	25.746	1367.505	1115.719
59.403	25.887	1366.656	1115.798
60.417	25.779	1366.074	1114.558
61.432	25.753	1365.191	1113.578
62.447	25.754	1364.962	1113.296
63.461	25.786	1363.570	1112.263
64.476	25.862	1362.223	1111.532
65.490	25.753	1361.226	1109.950
66.505	25.774	1359.560	1108.623
67.520	25.845	1358.465	1108.065
68.534	25.729	1357.712	1106.643
69.549	25.719	1356.817	1105.752
70.563	25.833	1355.643	1105.399
71.578	25.865	1354.596	1104.643
72.593	25.848	1353.746	1103.750
73.607	25.789	1353.250	1102.883
74.622	25.807	1352.421	1102.220
75.636	25.796	1351.736	1101.497
76.651	25.829	1350.858	1100.888
77.666	25.743	1350.520	1099.992
78.680	25.822	1349.857	1099.833
79.695	25.780	1349.400	1099.110
80.709	25.760	1348.363	1098.044
81.724	25.756	1347.434	1097.166
82.739	25.812	1346.575	1096.709
83.753	25.838	1345.619	1095.992
84.768	25.806	1344.245	1094.583
85.782	25.857	1343.148	1093.900
86.797	25.840	1341.961	1092.734
87.812	25.937	1340.758	1092.245
88.826	25.862	1340.105	1091.163
89.841	25.954	1338.533	1090.346
90.855	25.935	1337.399	1089.211
91.870	25.843	1337.542	1088.674
92.884	25.844	1336.250	1087.530
93.899	25.903	1335.555	1087.223
94.914	25.885	1335.109	1086.655
95.928	25.820	1334.428	1085.614
96.943	25.795	1333.785	1084.845
97.957	25.876	1332.618	1084.287
98.972	25.938	1331.603	1083.739
99.987	25.903	1330.473	1082.514
101.001	25.921	1329.518	1081.748
102.016	25.866	1328.799	1080.734
103.030	25.891	1327.803	1079.984
104.045	25.896	1326.888	1079.175
105.060	25.918	1326.093	1078.559
106.074	25.847	1325.246	1077.353
107.089	25.856	1324.201	1076.459
108.103	25.932	1322.661	1075.566
109.118	25.967	1322.013	1075.156
110.133	25.881	1320.991	1073.717
111.147	25.996	1319.735	1073.283
112.162	25.984	1318.474	1072.091
113.176	25.885	1317.642	1070.731
114.191	25.976	1316.671	1070.390
115.206	25.994	1315.715	1069.627
116.220	25.947	1314.607	1068.349
117.235	25.956	1313.609	1067.498
118.249	25.948	1312.709	1066.623
119.264	25.838	1312.113	1065.394
120.279	25.991	1311.110	1065.389
121.293	25.999	1310.287	1064.674
122.308	25.982	1309.546	1063.877
123.322	26.045	1308.665	1063.437
124.337	26.059	1307.811	1062.732
125.352	25.995	1307.345	1061.884
126.366	26.073	1305.844	1061.028
127.381	26.114	1305.042	1060.524
128.395	25.984	1304.503	1059.232
129.410	26.030	1303.454	1058.555
130.424	26.039	1302.904	1058.067
131.439	26.030	1302.148	1057.306
132.454	25.864	1301.381	1055.618
133.468	26.100	1300.186	1055.937
134.483	25.981	1299.863	1054.882
135.497	25.920	1299.245	1053.930
136.512	25.952	1298.252	1053.224
137.527	25.917	1296.980	1051.889
138.541	25.964	1295.780	1051.098
139.556	25.852	1294.540	1049.348
140.570	26.009	1293.747	1049.526
141.585	25.910	1292.952	1048.215
142.600	25.996	1290.943	1046.992
143.614	25.986	1290.568	1046.537
144.629	26.000	1289.552	1045.703
145.643	25.919	1288.134	1043.988
146.658	25.833	1287.542	1042.917
147.673	25.866	1286.568	1042.230
148.687	25.984	1285.214	1041.719
149.702	25.885	1284.622	1040.581
150.716	25.903	1283.339	1039.552
151.731	25.880	1282.371	1038.544
152.746	25.957	1281.051	1037.825
153.760	25.939	1280.176	1036.920
154.775	26.044	1279.165	1036.612
155.789	25.895	1278.906	1035.456
156.804	25.994	1277.479	1034.776
157.819	26.000	1276.549	1033.966
158.833	25.905	1276.261	1033.094
159.848	25.987	1275.111	1032.544
160.862	25.990	1274.883	1032.287
161.877	26.040	1273.720	1031.536
162.892	26.080	1272.632	1030.792
163.906	26.161	1271.988	1030.641
164.921	26.004	1271.107	1028.945
165.935	25.983	1270.836	1028.515
166.950	25.982	1270.248	1027.943
167.964	25.970	1269.599	1027.256
168.979	26.112	1268.716	1027.259
169.994	26.044	1268.312	1026.456
171.008	26.084	1267.325	1025.793
172.023	26.005	1267.220	1025.165
173.037	26.029	1265.909	1024.153
174.052	26.089	1265.213	1023.837
175.067	26.033	1264.555	1022.895
176.081	26.084	1263.945	1022.604
177.096	26.117	1262.989	1021.924
178.110	26.120	1261.993	1021.049
179.125	26.057	1261.144	1019.913
180.140	26.051	1260.162	1018.997
181.154	26.097	1259.136	1018.333
182.169	26.128	1257.470	1017.070
183.183	26.134	1256.902	1016.558
184.198	26.075	1256.272	1015.624
185.213	26.259	1254.483	1015.125
186.227	26.129	1253.978	1013.893
187.242	26.134	1253.391	1013.356
188.256	26.095	1252.556	1012.372
189.271	26.137	1251.616	1011.762
190.286	26.188	1250.621	1011.154
191.300	26.237	1250.121	1010.932
192.315	26.051	1249.989	1009.698
193.329	26.131	1249.224	1009.434
194.344	26.181	1248.944	1009.399
195.359	26.184	1248.807	1009.216
196.373	26.044	1248.509	1008.100
197.388	26.030	1247.613	1007.213
198.402	26.127	1247.131	1007.278
199.417	26.191	1246.684	1007.182
200.432	26.243	1245.619	1006.525
201.446	26.184	1245.227	1005.788
202.461	26.235	1244.270	1005.207
203.475	26.116	1243.853	1004.120
204.490	26.177	1242.663	1003.414
205.504	26.213	1241.567	1002.635
206.519	26.311	1240.647	1002.351
207.534	26.361	1239.611	1001.704
208.548	26.264	1238.859	1000.470
209.563	26.189	1238.317	999.526
210.577	26.239	1237.538	999.083
211.592	26.229	1236.488	998.095
212.607	26.313	1235.637	997.782
213.621	26.309	1235.201	997.322
214.636	26.265	1234.454	996.388
215.650	26.320	1233.140	995.540
216.665	26.326	1232.254	994.768
217.680	26.297	1231.507	993.919
218.694	26.205	1230.675	992.653
219.709	26.380	1229.667	992.713
220.723	26.280	1229.645	992.059
221.738	26.362	1228.978	991.887
222.753	26.181	1228.311	990.265
223.767	26.221	1227.373	989.641
224.782	26.423	1226.656	990.079
225.796	26.495	1226.051	989.898
226.811	26.391	1225.832	989.065
227.826	26.493	1225.063	988.914
228.840	26.503	1224.377	988.331
229.855	26.358	1223.931	987.087
230.869	26.403	1223.112	986.588
231.884	26.432	1221.979	985.742
232.899	26.354	1221.550	984.888
233.913	26.334	1221.233	984.434
234.928	26.459	1220.846	984.716
235.942	26.566	1219.781	984.353
236.957	26.594	1219.034	983.815
237.972	26.402	1218.727	982.435
238.986	26.420	1217.992	981.856
240.001	26.474	1217.323	981.524
241.015	26.641	1216.163	981.401
242.030	26.560	1215.470	980.320
243.045	26.619	1214.883	980.079
244.059	26.617	1214.402	979.591
245.074	26.651	1213.379	978.867
246.088	26.571	1212.647	977.756
247.103	26.588	1211.793	977.069
248.117	26.561	1211.126	976.300
249.132	26.557	1210.522	975.705
250.147	26.545	1210.009	975.144
251.161	26.590	1209.109	974.574
252.176	26.588	1208.414	973.918
253.190	26.658	1207.747	973.670
254.205	26.688	1206.799	972.980
255.220	26.607	1206.269	972.032
256.234	26.766	1205.875	972.479
257.249	26.682	1205.176	971.381
258.263	26.598	1204.951	970.662
259.278	26.672	1204.403	970.531
260.293	26.634	1203.857	969.801
261.307	26.636	1203.439	969.391
262.322	26.712	1202.618	969.049
263.336	26.737	1201.819	968.454
264.351	26.718	1200.884	967.515
265.366	26.773	1200.540	967.446
266.380	26.781	1199.709	966.731
267.395	26.735	1199.239	966.025
268.409	26.673	1198.525	965.034
269.424	26.704	1198.371	964.985
270.439	26.696	1197.807	964.404
271.453	26.775	1196.982	964.076
272.468	26.741	1196.364	963.313
273.482	26.718	1195.418	962.341
274.497	26.829	1194.563	962.155
275.512	26.701	1194.585	961.409
276.526	26.850	1193.762	961.454
277.541	26.738	1192.998	960.158
278.555	26.891	1192.001	960.081
279.570	26.806	1191.536	959.174
280.585	26.824	1190.719	958.528
281.599	26.836	1189.630	957.630
282.614	26.827	1188.982	956.973
283.628	26.766	1188.115	955.869
284.643	26.903	1187.115	955.701
285.657	26.768	1186.839	954.688
286.672	26.802	1185.632	953.810
287.687	26.909	1184.800	953.615
288.701	26.881	1184.286	952.969
289.716	26.944	1183.562	952.633
290.730	26.836	1183.127	951.633
291.745	26.887	1182.577	951.375
292.760	26.876	1181.695	950.521
293.774	26.938	1181.364	950.499
294.789	26.935	1180.617	949.796
295.803	27.028	1180.066	949.754
296.818	26.965	1179.227	948.667
297.833	26.886	1178.987	947.978
298.847	26.976	1177.798	947.406
299.862	27.101	1177.041	947.367
300.876	27.080	1176.165	946.469
301.891	27.127	1175.681	946.242
302.906	27.094	1175.306	945.682
303.920	27.025	1174.810	944.843
304.935	27.090	1174.057	944.493
305.949	27.037	1173.456	943.649
306.964	27.080	1172.905	943.342
307.979	27.136	1171.887	942.734
308.993	27.233	1170.935	942.384
310.008	27.152	1170.365	941.426
311.022	27.067	1170.141	940.719
312.037	27.143	1169.201	940.277
313.052	27.103	1168.249	939.219
314.066	27.178	1167.217	938.696
315.081	26.976	1167.020	937.411
316.095	27.239	1166.059	937.911
317.110	27.289	1165.163	937.368
318.125	27.159	1165.015	936.494
319.139	27.210	1164.288	936.091
320.154	27.176	1164.009	935.606
321.168	27.152	1163.185	934.737
322.183	27.376	1162.575	935.316
323.197	27.346	1161.794	934.453
324.212	27.147	1161.769	933.328
325.227	27.244	1160.841	932.995
326.241	27.302	1160.361	932.824
327.256	27.257	1160.064	932.273
328.270	27.273	1158.729	931.201
329.285	27.343	1157.883	930.794
330.300	27.312	1157.491	930.242
331.314	27.287	1156.368	929.126
332.329	27.360	1155.541	928.753
333.343	27.500	1154.858	928.835
334.358	27.349	1154.132	927.400
335.373	27.279	1154.136	926.966
336.387	27.447	1152.734	926.610
337.402	27.384	1152.174	925.760
338.416	27.513	1151.677	925.931
339.431	27.381	1150.863	924.526
340.446	27.476	1150.289	924.464
341.460	27.517	1149.619	924.055
342.475	27.609	1148.750	923.739
343.489	27.470	1147.773	922.170
344.504	27.384	1147.282	921.256
345.519	27.469	1146.081	920.639
346.533	27.610	1145.476	920.784
347.548	27.589	1145.015	920.229
348.562	27.467	1144.425	919.056
349.577	27.605	1142.990	918.517
350.592	27.554	1142.349	917.663
351.606	27.378	1142.270	916.636
352.621	27.508	1141.299	916.428
353.635	27.551	1140.946	916.280
354.650	27.572	1140.333	915.812
355.665	27.628	1139.364	915.234
356.679	27.646	1138.914	914.882
357.694	27.573	1138.476	914.081
358.708	27.711	1137.540	913.940
359.723	27.737	1136.694	913.312
360.738	27.631	1136.475	912.524
361.752	27.740	1135.955	912.571
362.767	27.819	1134.989	912.108
363.781	27.648	1135.026	911.201
364.796	27.759	1134.154	910.978
365.810	27.834	1133.473	910.725
366.825	27.846	1132.988	910.315
367.840	27.860	1132.207	909.673
368.854	27.823	1131.910	909.169
369.869	27.802	1131.182	908.403
370.883	27.890	1130.294	908.048
371.898	27.788	1129.746	907.017
372.913	27.874	1129.217	906.939
373.927	27.802	1128.841	906.202
374.942	27.867	1128.335	906.039
375.956	28.025	1127.602	906.154
376.971	27.820	1126.902	904.491
377.986	27.894	1126.500	904.458
379.000	27.880	1126.127	904.008
380.015	27.885	1125.587	903.521
381.029	27.956	1124.993	903.315
382.044	27.912	1124.296	902.458
383.059	27.835	1123.659	901.487
384.073	28.040	1122.416	901.420
385.088	27.921	1122.339	900.692
386.102	27.997	1121.236	900.099
387.117	28.018	1119.875	899.033
388.132	28.032	1119.274	898.539
389.146	27.965	1119.005	897.912
390.161	28.142	1117.623	897.595
391.175	28.083	1117.096	896.801
392.190	28.095	1116.719	896.478
393.205	28.125	1115.732	895.755
394.219	28.098	1115.063	895.006
395.234	28.081	1114.821	894.650
396.248	28.253	1113.417	894.281
397.263	28.033	1113.009	892.803
398.278	28.072	1112.339	892.376
399.292	28.101	1111.862	892.056
400.307	28.144	1111.195	891.653
401.321	28.203	1110.380	891.205
402.336	28.159	1109.886	890.515
403.350	28.171	1109.346	890.062
404.365	28.168	1109.031	889.717
405.380	28.272	1107.895	889.231
406.394	28.185	1107.159	888.141
407.409	28.281	1106.521	888.017
408.423	28.369	1105.367	887.437
409.438	28.230	1105.348	886.668
410.453	28.224	1104.320	885.736
411.467	28.362	1103.429	885.613
412.482	28.314	1103.190	885.108
413.496	28.288	1102.213	884.122
414.511	28.383	1101.724	884.110
415.526	28.397	1101.021	883.534
416.540	28.402	1100.701	883.224
417.555	28.400	1100.325	882.833
418.569	28.425	1099.691	882.370
419.584	28.426	1099.603	882.222
420.599	28.402	1098.942	881.500
421.613	92.451	1306.365	1397.890
422.628	86.445	1336.551	1398.012
