DTS Sentinel unit serial number:	SN413079Multiplexer serial number:	ORYXHardware model number:	OX4-SRSoftware version number:	ORYX F/W v4.00 Oryx Data Collector v3.7.2.0data status	okinstallation	princeton_trtdifferential loss correction	single-endedforward channel	channel 2reverse channel	N/Adate	2019/09/17time	02:19:34forward acquisition time	60.00reverse acquisition time	0.00gamma	496.2192k internal	0.2327k external	0.2327temperature offset calibration	0.9973default loss term (dB/km)	0.3790temperature slope calibration	1.0000multiplexer offset coefficient	1.0000multiplexer slope coefficient	1.0000fibre end	0.00T internal ref (°C)	29.75T ext. ref 1 (°C)	0.12T ext. ref 2 (°C)	24.70length (m)	temperature (°C)	Stokes	anti-Stokes-747.200	800.000	-0.061	0.174
-746.185	800.000	-0.115	0.407
-745.171	99.292	0.115	-0.135
-744.156	69.033	0.062	0.064
-743.142	603.056	-0.099	0.247
-742.127	286.518	0.010	0.018
-741.112	-156.549	0.375	-0.024
-740.098	-144.553	-0.249	0.023
-739.083	-68.271	0.393	0.154
-738.069	800.000	0.106	0.314
-737.054	-42.143	-0.012	0.006
-736.039	49.848	-0.141	0.134
-735.025	273.061	0.055	0.098
-734.010	-43.907	-0.332	-0.168
-732.996	-86.539	-0.489	-0.151
-731.981	-200.000	0.112	-0.663
-730.966	-200.000	-0.029	-0.160
-729.952	-82.087	-0.381	0.125
-728.937	83.720	-0.212	-0.233
-727.923	-200.000	-0.007	-0.173
-726.908	-200.000	0.040	-0.191
-725.894	800.000	-0.059	0.225
-724.879	133.928	0.101	-0.131
-723.864	-18.547	0.072	0.045
-722.850	-40.766	0.178	0.093
-721.835	-157.657	-0.257	0.015
-720.821	-200.000	0.079	0.465
-719.806	-56.051	-0.268	0.120
-718.791	393.130	-0.087	-0.182
-717.777	-200.000	-0.015	-0.198
-716.762	-85.536	-0.335	-0.105
-715.748	7.877	-0.259	0.195
-714.733	-68.543	-0.194	0.076
-713.718	-8.826	-0.086	0.058
-712.704	19.669	0.085	0.069
-711.689	-135.886	-0.214	0.025
-710.675	229.339	-0.097	0.160
-709.660	-59.579	-0.308	-0.133
-708.645	18.625	-0.253	-0.204
-707.631	520.081	-0.123	-0.290
-706.616	-200.000	-0.006	-0.072
-705.602	140.106	0.274	-0.364
-704.587	800.000	0.044	-0.179
-703.572	-200.000	0.041	-0.515
-702.558	-78.955	-0.177	0.061
-701.543	-53.775	0.283	0.130
-700.529	-0.793	0.284	-0.202
-699.514	73.574	-0.333	-0.351
-698.499	166.251	-0.181	0.258
-697.485	-141.247	0.228	-0.023
-696.470	106.885	0.124	-0.148
-695.456	34.925	0.156	0.138
-694.441	113.472	0.192	0.235
-693.426	-200.000	-0.024	-0.157
-692.412	-80.174	0.195	-0.066
-691.397	-200.000	0.073	-0.326
-690.383	179.746	-0.103	-0.152
-689.368	21.889	0.336	-0.275
-688.354	56.760	-0.136	0.133
-687.339	-200.000	0.029	0.257
-686.324	800.000	-0.071	0.312
-685.310	-175.355	-0.061	0.002
-684.295	24.293	-0.136	-0.113
-683.281	-60.674	-0.228	-0.097
-682.266	161.494	-0.254	-0.357
-681.251	-200.000	0.033	0.184
-680.237	-91.867	-0.274	0.078
-679.222	800.000	0.069	-0.215
-678.208	-200.000	0.011	0.054
-677.193	421.492	-0.097	-0.209
-676.178	253.774	-0.037	0.064
-675.164	800.000	0.028	0.122
-674.149	-200.000	-0.052	-0.372
-673.135	621.122	0.036	-0.090
-672.120	-127.483	0.289	-0.042
-671.105	-200.000	0.019	0.130
-670.091	-141.727	-0.071	-0.007
-669.076	301.865	0.114	0.212
-668.062	-200.000	0.012	-0.135
-667.047	-111.056	-0.080	-0.017
-666.032	-74.340	0.176	0.064
-665.018	152.188	-0.095	0.131
-664.003	182.420	-0.081	0.120
-662.989	-96.171	-0.116	0.031
-661.974	-108.009	0.306	0.067
-660.959	-200.000	0.014	0.117
-659.945	148.041	-0.298	-0.404
-658.930	132.911	0.236	0.306
-657.916	-4.258	-0.156	0.109
-656.901	800.000	0.039	-0.146
-655.886	-10.468	0.195	0.130
-654.872	699.459	0.044	0.117
-653.857	-200.000	0.060	0.273
-652.843	78.676	0.098	0.105
-651.828	-114.794	-0.230	0.044
-650.814	88.116	0.191	-0.213
-649.799	193.115	0.118	-0.180
-648.784	-200.000	0.030	-0.223
-647.770	-82.371	-0.221	-0.072
-646.755	800.000	0.148	-0.428
-645.741	-14.709	0.245	0.158
-644.726	28.627	-0.105	-0.089
-643.711	-1.359	0.276	0.195
-642.697	-12.174	0.174	0.115
-641.682	4.618	-0.249	-0.184
-640.668	133.363	-0.064	0.083
-639.653	-141.741	-0.219	-0.022
-638.638	-63.861	0.165	-0.068
-637.624	-31.677	-0.191	-0.108
-636.609	-200.000	-0.002	0.135
-635.595	0.067	-0.129	0.092
-634.580	43.102	-0.156	0.143
-633.565	-60.580	0.218	0.093
-632.551	-200.000	-0.023	0.118
-631.536	-131.485	-0.206	-0.027
-630.522	-148.998	-0.293	-0.024
-629.507	-29.738	0.117	-0.067
-628.492	68.310	0.216	0.222
-627.478	179.636	-0.185	-0.271
-626.463	-200.000	-0.047	-0.349
-625.449	-55.568	0.205	0.092
-624.434	-29.108	-0.232	0.133
-623.419	800.000	-0.095	0.302
-622.405	-17.179	0.360	0.228
-621.390	-200.000	-0.046	-0.270
-620.376	-200.000	-0.010	-0.131
-619.361	157.613	0.100	0.139
-618.346	-98.304	0.104	-0.027
-617.332	-116.245	0.152	-0.028
-616.317	-7.255	-0.107	-0.073
-615.303	-200.000	0.014	-0.254
-614.288	297.806	-0.137	-0.253
-613.273	800.000	0.021	-0.092
-612.259	-128.814	-0.162	-0.023
-611.244	800.000	-0.133	0.410
-610.230	112.613	-0.067	-0.081
-609.215	-200.000	0.005	0.264
-608.201	-34.929	-0.326	0.179
-607.186	59.644	0.099	0.098
-606.171	595.930	0.112	-0.278
-605.157	-38.671	-0.248	-0.131
-604.142	-38.763	0.317	0.168
-603.128	-200.000	-0.010	0.337
-602.113	32.254	0.086	0.074
-601.098	142.437	0.182	-0.243
-600.084	800.000	0.013	0.049
-599.069	139.043	-0.200	0.263
-598.055	114.519	0.187	-0.228
-597.040	441.531	0.073	0.160
-596.025	-200.000	0.002	-0.042
-595.011	-200.000	0.021	-0.143
-593.996	2.606	-0.132	0.096
-592.982	800.000	0.070	-0.249
-591.967	-200.000	-0.024	0.116
-590.952	80.716	-0.135	-0.146
-589.938	-12.705	-0.041	-0.027
-588.923	-200.000	0.039	0.175
-587.909	-29.985	-0.211	0.121
-586.894	-147.868	-0.336	-0.028
-585.879	-200.000	0.043	-0.367
-584.865	-200.000	-0.016	0.087
-583.850	-99.876	0.218	-0.055
-582.836	1.930	-0.271	-0.196
-581.821	-155.717	-0.095	0.006
-580.806	21.669	-0.181	0.147
-579.792	444.252	0.118	0.260
-578.777	-53.301	0.277	0.127
-577.763	-200.000	-0.026	-0.196
-576.748	55.104	-0.104	-0.101
-575.733	124.737	-0.033	0.042
-574.719	27.093	-0.098	-0.083
-573.704	-131.237	0.304	-0.040
-572.690	-200.000	-0.034	0.237
-571.675	17.212	0.223	-0.177
-570.661	-11.982	0.182	-0.119
-569.646	800.000	-0.080	-0.267
-568.631	-19.150	-0.224	-0.139
-567.617	-64.313	-0.259	-0.106
-566.602	-8.208	-0.054	-0.037
-565.588	200.906	0.189	0.291
-564.573	-4.708	-0.030	0.021
-563.558	-76.343	0.393	-0.139
-562.544	-38.746	0.345	-0.182
-561.529	102.541	-0.101	0.118
-560.515	-200.000	0.006	-0.202
-559.500	-157.678	0.403	0.024
-558.485	6.883	0.149	0.111
-557.471	407.706	0.059	0.124
-556.456	253.156	0.208	0.356
-555.442	70.285	-0.095	0.098
-554.427	-200.000	0.045	-0.318
-553.412	-62.602	-0.258	-0.107
-552.398	-81.208	-0.121	0.040
-551.383	-78.997	0.268	-0.091
-550.369	-135.339	0.353	-0.042
-549.354	10.252	-0.135	0.103
-548.339	550.740	-0.147	0.352
-547.325	-54.948	0.117	0.053
-546.310	-200.000	0.028	0.155
-545.296	113.362	-0.056	-0.068
-544.281	227.967	-0.184	-0.300
-543.266	16.193	-0.239	-0.189
-542.252	-52.684	-0.158	-0.073
-541.237	800.000	0.067	-0.202
-540.223	-38.960	0.190	0.100
-539.208	-46.620	-0.160	-0.078
-538.193	45.969	0.036	-0.033
-537.179	-200.000	0.005	0.045
-536.164	188.563	0.211	0.315
-535.150	-200.000	0.000	0.083
-534.135	-122.506	-0.173	-0.028
-533.121	470.085	-0.037	0.084
-532.106	800.000	0.036	-0.158
-531.091	-200.000	0.023	0.144
-530.077	-156.804	-0.172	0.011
-529.062	-88.243	0.168	-0.050
-528.048	-106.883	-0.370	0.082
-527.033	-161.881	0.178	-0.009
-526.018	204.326	-0.087	-0.134
-525.004	-200.000	-0.006	0.131
-523.989	-92.087	0.240	-0.068
-522.975	-189.331	-0.105	0.001
-521.960	-48.742	-0.152	0.073
-520.945	-200.000	-0.106	-0.475
-519.931	-200.000	0.004	0.125
-518.916	-10.209	-0.037	0.024
-517.902	-84.510	-0.255	-0.080
-516.887	153.478	0.094	-0.128
-515.872	116.279	0.236	-0.289
-514.858	-41.152	0.414	-0.213
-513.843	509.202	-0.151	-0.350
-512.829	320.000	-0.124	0.236
-511.814	-200.000	0.069	0.398
-510.799	-111.157	-0.135	-0.028
-509.785	-87.334	0.246	-0.074
-508.770	5.489	-0.189	-0.140
-507.756	-200.000	0.022	-0.188
-506.741	-14.773	0.180	0.116
-505.726	-91.594	-0.205	0.058
-504.712	-47.061	-0.248	-0.121
-503.697	800.000	-0.064	0.192
-502.683	56.714	-0.119	0.116
-501.668	-66.595	0.054	0.021
-500.653	800.000	0.006	0.026
-499.639	-90.864	-0.187	0.054
-498.624	-52.103	0.203	-0.094
-497.610	139.889	0.183	-0.241
-496.595	-152.802	0.252	0.018
-495.581	-200.000	0.010	0.094
-494.566	49.630	0.208	0.196
-493.551	438.617	-0.076	0.166
-492.537	171.246	-0.186	0.266
-491.522	31.326	0.096	-0.082
-490.508	-176.084	-0.249	0.007
-489.493	-100.366	-0.172	0.042
-488.478	383.303	-0.001	-0.002
-487.464	-149.499	-0.220	0.017
-486.449	-91.377	0.362	0.103
-485.435	-115.757	0.372	-0.069
-484.420	147.383	0.081	0.108
-483.405	-47.141	-0.141	0.069
-482.391	-157.261	-0.376	0.023
-481.376	131.351	0.077	0.098
-480.362	30.276	0.150	-0.128
-479.347	66.632	-0.093	-0.094
-478.332	780.336	-0.073	-0.199
-477.318	-66.662	0.128	0.051
-476.303	-47.339	-0.123	0.060
-475.289	391.602	0.134	-0.279
-474.274	50.364	0.056	-0.053
-473.259	738.689	0.075	0.201
-472.245	193.587	-0.146	-0.220
-471.230	-87.647	-0.318	0.096
-470.216	82.499	-0.117	-0.126
-469.201	800.000	0.013	0.054
-468.186	-150.578	0.296	0.023
-467.172	-107.753	0.287	-0.062
-466.157	-92.567	-0.556	0.156
-465.143	96.599	-0.081	0.092
-464.128	-16.967	-0.240	-0.151
-463.113	-200.000	0.019	-0.089
-462.099	-200.000	0.041	0.187
-461.084	153.551	-0.106	0.145
-460.070	-156.900	0.018	0.001
-459.055	546.544	0.101	0.241
-458.040	-14.391	-0.056	-0.036
-457.026	800.000	-0.034	-0.107
-456.011	-200.000	-0.039	-0.177
-454.997	-15.422	-0.064	-0.041
-453.982	-126.957	0.060	-0.009
-452.968	-126.209	-0.283	-0.042
-451.953	361.541	0.024	0.047
-450.938	-2.765	-0.311	0.217
-449.924	-200.000	0.020	0.306
-448.909	-109.491	0.297	0.062
-447.895	-200.000	0.046	-0.456
-446.880	-96.696	0.121	0.032
-445.865	160.207	0.048	0.067
-444.851	-29.484	0.104	-0.059
-443.836	34.750	-0.117	-0.102
-442.822	139.781	0.157	-0.206
-441.807	294.974	0.076	0.139
-440.792	28.706	0.250	0.211
-439.778	-200.000	0.023	-0.280
-438.763	-140.694	-0.385	-0.040
-437.749	473.280	0.109	-0.245
-436.734	800.000	-0.060	-0.173
-435.719	-200.000	-0.032	-0.251
-434.705	31.690	-0.073	0.063
-433.690	-1.458	-0.148	0.104
-432.676	800.000	-0.035	-0.099
-431.661	0.584	0.199	-0.141
-430.646	-167.543	-0.267	0.011
-429.632	800.000	-0.020	0.066
-428.617	-200.000	-0.000	-0.101
-427.603	60.384	-0.071	-0.070
-426.588	353.322	0.091	-0.179
-425.573	-95.851	0.321	0.085
-424.559	-95.036	-0.252	-0.068
-423.544	800.000	-0.029	-0.102
-422.530	-200.000	0.055	-0.281
-421.515	-18.393	-0.131	-0.081
-420.500	186.709	-0.151	-0.224
-419.486	3.723	0.257	0.187
-418.471	-200.000	0.026	0.305
-417.457	0.892	-0.231	0.165
-416.442	-76.848	-0.413	-0.144
-415.428	373.058	-0.123	-0.249
-414.413	-48.855	-0.109	0.052
-413.398	-200.000	0.009	-0.159
-412.384	291.788	0.077	-0.139
-411.369	536.008	-0.117	0.276
-410.355	-13.437	0.201	-0.130
-409.340	111.164	-0.122	-0.147
-408.325	-62.087	-0.379	0.157
-407.311	-200.000	-0.041	-0.310
-406.296	31.073	0.201	0.172
-405.282	-132.137	-0.317	-0.041
-404.267	-92.005	0.199	0.056
-403.252	-130.546	0.110	0.015
-402.238	11.747	-0.250	0.191
-401.223	-200.000	-0.013	-0.071
-400.209	-99.050	0.291	0.073
-399.194	-80.247	-0.067	0.022
-398.179	-97.829	-0.285	0.073
-397.165	-200.000	-0.068	-0.307
-396.150	-109.249	0.127	-0.027
-395.136	38.396	0.269	-0.238
-394.121	5.961	-0.164	-0.121
-393.106	-161.125	0.245	-0.013
-392.092	150.491	-0.272	-0.367
-391.077	-110.469	-0.165	0.034
-390.063	690.083	0.098	0.255
-389.048	800.000	-0.074	0.288
-388.033	105.225	-0.194	0.228
-387.019	800.000	0.063	-0.225
-386.004	-200.000	-0.005	-0.138
-384.990	56.099	-0.226	0.218
-383.975	-55.563	-0.150	-0.067
-382.960	-71.255	-0.085	0.032
-381.946	-112.655	0.078	-0.015
-380.931	800.000	0.057	-0.172
-379.917	-16.132	-0.058	0.037
-378.902	-200.000	0.023	0.272
-377.888	-109.791	0.133	-0.028
-376.873	-200.000	-0.006	0.070
-375.858	124.882	0.101	0.127
-374.844	592.605	0.047	0.115
-373.829	800.000	0.070	-0.226
-372.815	-129.886	0.380	0.052
-371.800	218.152	-0.054	-0.086
-370.785	-149.615	-0.055	0.004
-369.771	-83.281	0.189	-0.060
-368.756	-58.910	0.241	0.104
-367.742	-200.000	-0.011	-0.056
-366.727	29.584	-0.171	-0.145
-365.712	-76.347	0.150	0.052
-364.698	-77.145	-0.222	0.077
-363.683	219.500	-0.062	0.099
-362.669	-99.555	-0.224	0.056
-361.654	80.053	-0.156	0.166
-360.639	800.000	-0.077	0.268
-359.625	157.819	-0.082	-0.113
-358.610	227.989	-0.128	0.208
-357.596	-93.759	0.217	-0.059
-356.581	526.444	-0.141	0.329
-355.566	177.893	0.030	-0.043
-354.552	800.000	0.055	-0.200
-353.537	-200.000	0.007	-0.092
-352.523	-200.000	0.049	-0.369
-351.508	50.028	0.075	-0.071
-350.493	73.785	-0.260	-0.270
-349.479	800.000	0.048	0.169
-348.464	-126.073	0.313	-0.047
-347.450	-200.000	-0.015	0.251
-346.435	81.166	0.156	-0.167
-345.420	452.801	-0.021	-0.047
-344.406	3.639	0.178	0.129
-343.391	-165.424	-0.247	0.011
-342.377	23.189	0.089	-0.072
-341.362	-132.126	0.084	0.011
-340.348	-60.024	-0.194	-0.082
-339.333	-183.769	0.462	-0.008
-338.318	-154.967	0.432	0.028
-337.304	59.164	-0.055	-0.054
-336.289	800.000	0.115	0.444
-335.275	-93.246	-0.148	-0.041
-334.260	618.243	-0.143	-0.356
-333.245	-152.437	0.032	-0.002
-332.231	-112.471	0.295	-0.058
-331.216	756.184	-0.095	0.255
-330.202	86.448	0.136	0.149
-329.187	-200.000	0.008	0.074
-328.172	-200.000	-0.037	0.374
-327.158	123.004	0.049	0.061
-326.143	374.828	-0.126	-0.254
-325.129	800.000	0.018	0.076
-324.114	-170.458	0.286	-0.010
-323.099	-190.562	0.203	-0.002
-322.085	734.371	-0.078	-0.207
-321.070	5.897	0.077	0.057
-320.056	-115.212	0.325	-0.061
-319.041	-184.299	0.186	0.003
-318.026	275.049	-0.166	0.292
-317.012	312.027	-0.007	0.012
-315.997	-148.322	-0.425	-0.035
-314.983	575.535	-0.166	0.401
-313.968	-77.246	0.420	-0.145
-312.953	-185.988	0.057	-0.001
-311.939	173.317	-0.037	0.053
-310.924	-154.605	-0.343	-0.023
-309.910	-200.000	-0.001	-0.393
-308.895	-18.466	-0.037	0.023
-307.880	33.247	-0.098	0.084
-306.866	-98.076	-0.068	0.017
-305.851	713.684	-0.049	0.130
-304.837	5.664	0.177	0.130
-303.822	800.000	0.067	0.213
-302.807	-200.000	0.014	0.198
-301.793	-72.821	-0.176	-0.064
-300.778	204.839	-0.105	0.162
-299.764	-127.217	0.332	0.048
-298.749	-42.041	0.215	-0.109
-297.735	79.647	-0.198	0.210
-296.720	800.000	-0.083	0.354
-295.705	-4.281	0.059	-0.041
-294.691	-166.306	0.211	0.009
-293.676	-152.510	-0.208	-0.015
-292.662	-21.797	0.154	-0.093
-291.647	-126.423	-0.383	0.057
-290.632	800.000	-0.059	-0.221
-289.618	33.952	-0.110	0.095
-288.603	-22.296	-0.173	0.104
-287.589	179.913	0.081	0.117
-286.574	353.760	0.021	-0.041
-285.559	377.329	0.081	0.165
-284.545	800.000	0.017	0.066
-283.530	-50.982	-0.061	0.029
-282.516	26.636	0.210	0.174
-281.501	800.000	0.092	0.356
-280.486	-22.679	0.266	-0.159
-279.472	-89.753	-0.301	-0.087
-278.457	-200.000	-0.025	0.108
-277.443	-200.000	0.012	-0.266
-276.428	178.350	-0.174	0.251
-275.413	-130.141	0.223	0.030
-274.399	-2.552	-0.145	-0.100
-273.384	293.240	-0.117	-0.210
-272.370	-92.389	-0.215	0.060
-271.355	453.023	0.075	0.164
-270.340	-200.000	0.030	0.308
-269.326	-82.425	0.102	0.033
-268.311	-200.000	0.004	0.122
-267.297	325.202	-0.090	-0.170
-266.282	800.000	0.010	0.042
-265.267	800.000	0.147	0.409
-264.253	-200.000	0.053	0.286
-263.238	800.000	0.082	-0.241
-262.224	-200.000	-0.067	-0.315
-261.209	134.859	-0.127	-0.163
-260.195	-43.186	-0.069	-0.035
-259.180	65.094	-0.261	-0.261
-258.165	-125.078	-0.075	-0.011
-257.151	-86.792	0.104	-0.031
-256.136	800.000	0.135	-0.468
-255.122	-200.000	-0.011	0.371
-254.107	120.914	0.180	-0.222
-253.092	-200.000	-0.022	-0.178
-252.078	-200.000	-0.204	-0.001
-251.063	157.272	0.112	0.154
-250.049	-146.481	-0.042	0.004
-249.034	-154.504	-0.077	0.005
-248.019	-200.000	-0.018	-0.246
-247.005	217.836	0.071	0.112
-245.990	164.348	0.053	0.074
-244.976	800.000	0.040	-0.154
-243.961	-94.484	0.235	0.063
-242.946	18.203	-0.148	0.117
-241.932	-200.000	0.017	0.224
-240.917	114.697	-0.094	0.113
-239.903	-200.000	-0.018	-0.127
-238.888	-121.798	0.284	-0.046
-237.873	-200.000	-0.012	0.351
-236.859	-62.978	0.126	-0.052
-235.844	361.162	0.196	0.388
-234.830	494.522	0.097	0.220
-233.815	-200.000	-0.034	-0.227
-232.800	-200.000	-0.010	0.364
-231.786	-200.000	0.060	0.269
-230.771	142.237	0.010	0.013
-229.757	-4.667	-0.166	-0.113
-228.742	563.043	-0.096	-0.229
-227.727	-148.655	0.333	0.027
-226.713	311.192	-0.103	-0.190
-225.698	243.528	0.117	-0.193
-224.684	299.467	-0.081	-0.148
-223.669	-157.871	0.184	0.011
-222.655	27.652	0.048	0.040
-221.640	369.875	0.084	-0.167
-220.625	40.986	0.334	0.298
-219.611	-96.690	-0.169	0.044
-218.596	75.636	-0.098	0.103
-217.582	412.517	0.023	0.048
-216.567	-143.401	-0.240	-0.023
-215.552	-200.000	-0.012	-0.145
-214.538	-52.894	-0.309	0.141
-213.523	-200.000	0.028	-0.140
-212.509	-92.312	-0.072	0.020
-211.494	40.957	-0.271	0.242
-210.479	221.184	-0.206	0.326
-209.465	171.403	0.185	0.263
-208.450	37.708	-0.043	0.037
-207.436	82.059	-0.132	-0.142
-206.421	-140.445	0.067	0.007
-205.406	-200.000	0.021	-0.096
-204.392	18.363	-0.153	-0.120
-203.377	-19.504	0.185	0.113
-202.363	55.884	0.199	-0.191
-201.348	159.909	0.156	-0.214
-200.333	-200.000	0.017	0.449
-199.319	-200.000	0.021	-0.248
-198.304	-38.833	0.369	0.192
-197.290	-27.814	-0.172	-0.098
-196.275	114.900	-0.220	0.265
-195.260	283.118	-0.101	-0.180
-194.246	800.000	-0.095	0.328
-193.231	-132.822	-0.275	-0.035
-192.217	194.286	-0.086	0.128
-191.202	-200.000	-0.005	0.111
-190.187	-63.771	0.094	-0.038
-189.173	-200.000	-0.004	-0.154
-188.158	69.776	0.167	0.170
-187.144	-1.643	0.159	0.111
-186.129	800.000	-0.034	-0.097
-185.114	-49.750	-0.444	-0.208
-184.100	67.262	-0.228	-0.230
-183.085	11.904	0.282	0.214
-182.071	347.750	0.061	0.118
-181.056	-89.144	0.070	0.020
-180.042	-200.000	-0.054	-0.430
-179.027	-91.709	0.189	-0.053
-178.012	-3.675	0.132	0.090
-176.998	31.273	-0.062	-0.053
-175.983	-200.000	0.069	-0.368
-174.969	-200.000	-0.018	-0.159
-173.954	21.106	-0.172	0.137
-172.939	70.501	0.199	-0.203
-171.925	-10.420	0.199	0.130
-170.910	-200.000	0.003	-0.077
-169.896	-42.613	0.125	-0.063
-168.881	366.997	0.039	-0.077
-167.866	267.918	-0.177	0.306
-166.852	-152.840	0.358	0.025
-165.837	-129.967	-0.214	0.029
-164.823	800.000	0.054	-0.152
-163.808	-10.475	0.139	0.091
-162.793	81.121	-0.325	-0.346
-161.779	-200.000	0.015	-0.215
-160.764	-70.131	0.183	0.069
-159.750	-48.834	-0.103	0.049
-158.735	207.336	-0.050	0.077
-157.720	-200.000	0.034	0.255
-156.706	439.089	0.043	-0.091
-155.691	-73.324	-0.043	0.015
-154.677	-92.387	0.342	-0.095
-153.662	-63.348	0.142	-0.057
-152.647	-18.229	0.266	-0.164
-151.633	-29.920	0.066	0.037
-150.618	-200.000	-0.002	0.152
-149.604	-24.910	0.221	-0.129
-148.589	327.918	0.122	-0.231
-147.574	-200.000	-0.029	-0.232
-146.560	197.672	0.131	-0.197
-145.545	-65.015	0.027	-0.011
-144.531	800.000	0.062	-0.223
-143.516	-88.375	0.376	-0.111
-142.502	20.752	0.209	0.166
-141.487	-77.457	-0.131	0.045
-140.472	800.000	-0.035	0.146
-139.458	-40.210	-0.373	0.191
-138.443	-46.638	0.087	-0.042
-137.429	290.240	0.162	0.290
-136.414	-200.000	-0.060	-0.000
-135.399	-200.000	-0.010	0.056
-134.385	18.247	-0.202	-0.159
-133.370	237.635	0.129	-0.211
-132.356	-36.495	-0.151	0.080
-131.341	-11.411	-0.020	0.013
-130.326	496.745	0.121	-0.274
-129.312	-200.000	0.058	0.327
-128.297	528.161	0.054	-0.125
-127.283	-200.000	-0.002	0.247
-126.268	-78.393	0.179	0.060
-125.253	-200.000	0.039	0.193
-124.239	-46.558	0.254	0.123
-123.224	800.000	0.150	-0.513
-122.210	-50.170	0.377	-0.176
-121.195	-49.129	0.122	0.058
-120.180	72.497	-0.307	-0.315
-119.166	-96.520	-0.192	-0.050
-118.151	-142.634	0.387	0.037
-117.137	700.740	0.232	-0.600
-116.122	-28.967	0.086	0.049
-115.107	45.668	-0.142	0.129
-114.093	34.353	0.411	0.353
-113.078	564.878	0.120	-0.286
-112.064	551.471	-0.099	-0.233
-111.049	142.508	-0.142	-0.185
-110.034	52.483	0.144	0.135
-109.020	-200.000	0.003	0.352
-108.005	20.857	-0.156	0.124
-106.991	286.964	-0.127	0.225
-105.976	-31.275	-0.260	0.144
-104.962	-17.201	0.191	0.118
-103.947	343.149	0.072	0.138
-102.932	95.857	-0.152	0.171
-101.918	-143.334	0.284	-0.027
-100.903	-56.025	-0.408	0.179
-99.889	294.133	0.081	0.146
-98.874	162.945	0.150	-0.207
-97.859	-51.894	0.116	0.053
-96.845	-200.000	0.023	-0.233
-95.830	5.108	0.261	0.189
-94.816	-200.000	-0.005	-0.098
-93.801	56.367	-0.178	0.170
-92.786	266.546	-0.118	-0.202
-91.772	224.809	-0.013	-0.020
-90.757	27.217	0.068	-0.056
-89.743	465.286	-0.095	0.210
-88.728	18.858	-0.160	0.126
-87.713	257.258	0.303	0.512
-86.699	-179.084	-0.628	0.014
-85.684	100.091	0.154	0.176
-84.670	800.000	0.059	0.238
-83.655	76.542	0.139	-0.145
-82.640	-75.906	0.294	-0.102
-81.626	10.957	-0.276	-0.207
-80.611	-76.985	-0.186	0.064
-79.597	381.808	0.095	-0.192
-78.582	800.000	0.132	-0.385
-77.567	-200.000	-0.036	-0.236
-76.553	-200.000	0.044	0.258
-75.538	-200.000	0.228	0.000
-74.524	-149.131	-0.065	0.005
-73.509	-51.194	0.408	0.188
-72.494	-200.000	-0.036	0.292
-71.480	-15.575	0.325	0.204
-70.465	41.745	-0.083	-0.074
-69.451	-26.364	-0.217	0.125
-68.436	500.940	0.101	0.230
-67.422	149.040	0.060	0.080
-66.407	-200.000	-0.038	-0.254
-65.392	-134.767	-0.205	0.024
-64.378	-200.000	-0.044	-0.188
-63.363	800.000	0.079	-0.294
-62.349	-200.000	0.051	0.416
-61.334	19.058	-0.962	-0.757
-60.319	31.843	0.735	0.621
-59.305	800.000	-0.362	-1.380
-58.290	284.760	0.623	1.102
-57.276	749.075	0.684	1.809
-56.261	-200.000	106.838	579.125
-55.246	453.896	1464.033	3180.935
-54.232	148.064	2657.275	3517.278
-53.217	100.170	2290.408	2606.318
-52.203	38.711	1902.815	1666.218
-51.188	32.966	1691.070	1437.178
-50.173	30.419	1647.636	1381.295
-49.159	48.726	1700.487	1564.434
-48.144	49.212	1716.051	1582.361
-47.130	32.543	1674.144	1419.378
-46.115	29.881	1659.646	1387.106
-45.100	29.745	1655.274	1382.387
-44.086	29.683	1651.948	1379.087
-43.071	29.612	1649.627	1376.570
-42.057	29.655	1646.694	1374.386
-41.042	29.654	1644.877	1372.806
-40.027	29.644	1642.796	1370.938
-39.013	29.673	1640.988	1369.591
-37.998	29.566	1639.877	1367.815
-36.984	29.586	1638.347	1366.635
-35.969	29.787	1636.660	1366.662
-34.954	29.830	1635.267	1365.762
-33.940	29.740	1633.307	1363.405
-32.925	29.704	1631.933	1361.940
-31.911	29.839	1629.871	1361.156
-30.896	29.819	1627.999	1359.394
-29.881	29.733	1627.078	1357.936
-28.867	29.739	1625.078	1356.260
-27.852	29.712	1623.482	1354.673
-26.838	29.654	1622.503	1353.382
-25.823	29.787	1620.527	1352.652
-24.809	29.823	1619.370	1351.893
-23.794	29.828	1618.203	1350.902
-22.779	29.699	1617.003	1348.903
-21.765	29.732	1614.806	1347.259
-20.750	29.776	1613.423	1346.371
-19.736	29.740	1611.804	1344.709
-18.721	29.772	1610.525	1343.823
-17.706	29.681	1609.464	1342.222
-16.692	29.784	1607.465	1341.249
-15.677	29.703	1606.307	1339.643
-14.663	29.903	1604.474	1339.505
-13.648	29.787	1603.553	1337.848
-12.633	29.766	1602.477	1336.743
-11.619	29.803	1600.050	1334.931
-10.604	29.815	1598.813	1333.934
-9.590	29.840	1597.511	1332.977
-8.575	29.783	1596.704	1331.841
-7.560	29.855	1595.207	1331.054
-6.546	29.821	1593.862	1329.638
-5.531	29.669	1593.543	1328.221
-4.517	29.824	1591.810	1327.838
-3.502	29.855	1590.400	1326.831
-2.487	29.913	1588.909	1325.950
-1.473	29.523	1577.309	1313.444
-0.458	27.006	1558.675	1280.154
0.556	21.797	1560.206	1249.826
1.571	19.694	1584.585	1253.999
2.586	19.345	1598.091	1262.024
3.600	17.758	1545.513	1209.153
4.615	9.921	1435.172	1070.938
5.629	1.880	1369.887	971.066
6.644	0.247	1361.120	954.424
7.659	0.132	1359.851	952.722
8.673	0.073	1359.258	951.848
9.688	0.017	1357.349	950.075
10.702	-0.033	1353.758	947.159
11.717	3.664	1360.164	974.932
12.731	12.332	1374.120	1039.936
13.746	17.607	1380.647	1078.256
14.761	17.283	1378.872	1074.723
15.775	16.233	1375.931	1065.711
16.790	15.252	1373.459	1057.513
17.804	14.448	1371.125	1050.558
18.819	14.069	1370.037	1047.242
19.834	13.723	1368.954	1044.148
20.848	13.510	1367.533	1041.633
21.863	13.301	1365.878	1038.968
22.877	13.103	1365.271	1037.169
23.892	13.160	1363.818	1036.332
24.907	13.053	1363.360	1035.216
25.921	13.193	1362.165	1035.094
26.936	13.287	1360.900	1034.635
27.950	13.184	1360.603	1033.670
28.965	13.289	1359.404	1033.326
29.980	13.267	1358.942	1032.747
30.994	13.390	1357.355	1032.212
32.009	13.391	1356.934	1031.809
33.023	13.297	1355.908	1030.355
34.038	13.339	1354.998	1029.831
35.053	13.331	1353.552	1028.590
36.067	13.292	1352.513	1027.467
37.082	13.281	1351.951	1026.881
38.096	13.260	1350.490	1025.548
39.111	13.383	1349.539	1025.500
40.126	13.265	1348.746	1024.074
41.140	13.132	1348.076	1022.654
42.155	13.123	1347.472	1022.051
43.169	13.066	1347.848	1021.889
44.184	13.085	1347.612	1021.740
45.199	13.148	1346.484	1021.181
46.213	13.193	1346.227	1021.173
47.228	13.248	1345.100	1020.570
48.242	13.308	1343.911	1019.948
49.257	13.267	1342.494	1018.531
50.271	13.328	1340.956	1017.649
51.286	13.234	1339.708	1016.036
52.301	13.203	1338.716	1015.000
53.315	13.262	1337.075	1014.026
54.330	13.200	1336.526	1013.140
55.344	13.117	1335.183	1011.528
56.359	13.223	1334.086	1011.257
57.374	13.139	1333.421	1010.149
58.388	13.160	1332.536	1009.516
59.403	13.065	1332.067	1008.493
60.417	13.100	1331.127	1007.904
61.432	13.147	1330.124	1007.342
62.447	13.085	1329.294	1006.246
63.461	13.044	1328.316	1005.166
64.476	12.972	1327.584	1004.088
65.490	13.020	1325.636	1002.815
66.505	13.074	1324.446	1002.156
67.520	13.128	1322.928	1001.242
68.534	13.160	1322.201	1000.797
69.549	13.022	1321.718	999.509
70.563	12.993	1320.541	998.357
71.578	13.106	1318.733	997.585
72.593	13.025	1317.967	996.429
73.607	12.921	1317.580	995.420
74.622	12.943	1316.256	994.464
75.636	13.018	1315.467	994.232
76.651	13.038	1314.681	993.669
77.666	12.971	1314.592	993.110
78.680	12.882	1314.346	992.303
79.695	12.950	1313.311	991.838
80.709	13.080	1311.791	991.386
81.724	13.081	1311.301	990.933
82.739	13.182	1310.159	990.587
83.753	13.138	1309.295	989.586
84.768	13.190	1308.449	989.169
85.782	13.351	1307.047	988.984
86.797	13.229	1305.830	987.246
87.812	13.190	1304.556	985.966
88.826	13.268	1303.324	985.411
89.841	13.113	1302.739	983.954
90.855	13.225	1301.950	983.938
91.870	13.290	1300.980	983.505
92.884	13.306	1299.904	982.699
93.899	13.322	1299.681	982.542
94.914	13.404	1298.351	981.933
95.928	13.372	1297.568	981.065
96.943	13.305	1296.619	979.864
97.957	13.274	1295.846	979.013
98.972	13.260	1295.171	978.332
99.987	13.389	1293.137	977.470
101.001	13.282	1292.790	976.491
102.016	13.287	1292.025	975.856
103.030	13.390	1290.696	975.370
104.045	13.255	1289.955	973.932
105.060	13.238	1288.529	972.668
106.074	13.231	1287.470	971.742
107.089	13.080	1286.084	969.722
108.103	13.145	1284.855	969.089
109.118	13.139	1283.696	968.095
110.133	13.039	1282.392	966.442
111.147	13.181	1280.709	965.918
112.162	13.159	1279.853	965.062
113.176	13.283	1278.720	964.841
114.191	13.212	1277.868	963.697
115.206	13.154	1276.851	962.510
116.220	13.199	1275.682	961.803
117.235	13.266	1274.321	961.085
118.249	13.289	1273.545	960.548
119.264	13.153	1272.402	958.808
120.279	13.228	1271.269	958.305
121.293	13.200	1270.486	957.470
122.308	13.270	1268.834	956.547
123.322	13.259	1267.804	955.622
124.337	13.088	1267.440	954.271
125.352	13.086	1266.157	953.208
126.366	13.099	1264.802	952.184
127.381	13.134	1264.172	951.822
128.395	13.149	1262.695	950.715
129.410	13.108	1262.288	950.091
130.424	13.107	1261.366	949.305
131.439	13.172	1260.566	948.993
132.454	13.232	1259.197	948.220
133.468	13.277	1258.044	947.528
134.483	13.353	1257.035	947.119
135.497	13.218	1256.596	945.933
136.512	13.218	1255.572	945.080
137.527	13.254	1253.824	943.886
138.541	13.209	1252.958	942.889
139.556	13.346	1251.196	942.261
140.570	13.285	1250.243	941.112
141.585	13.250	1249.325	940.140
142.600	13.325	1247.602	939.184
143.614	13.439	1246.814	939.158
144.629	13.528	1245.889	938.883
145.643	13.413	1244.822	937.346
146.658	13.322	1243.678	935.886
147.673	13.333	1242.060	934.648
148.687	13.355	1241.336	934.145
149.702	13.298	1239.876	932.638
150.716	13.380	1238.024	931.627
151.731	13.295	1237.450	930.631
152.746	13.340	1236.255	929.904
153.760	13.328	1235.199	928.961
154.775	13.392	1234.017	928.352
155.789	13.370	1232.983	927.366
156.804	13.454	1232.210	927.173
157.819	13.392	1230.980	925.821
158.833	13.505	1230.361	925.905
159.848	13.537	1229.661	925.472
160.862	13.519	1228.186	924.181
161.877	13.470	1227.187	923.072
162.892	13.461	1225.912	921.983
163.906	13.420	1224.778	920.820
164.921	13.368	1224.349	920.129
165.935	13.397	1223.521	919.588
166.950	13.559	1222.515	919.648
167.964	13.588	1221.948	919.302
168.979	13.530	1221.313	918.417
169.994	13.470	1220.499	917.395
171.008	13.447	1219.662	916.556
172.023	13.573	1219.228	916.847
173.037	13.518	1218.275	915.742
174.052	13.718	1216.955	915.775
175.067	13.604	1215.912	914.280
176.081	13.505	1214.891	912.886
177.096	13.541	1213.999	912.334
178.110	13.578	1212.889	911.621
179.125	13.594	1211.814	910.820
180.140	13.602	1210.499	909.798
181.154	13.758	1208.960	909.416
182.169	13.696	1208.387	908.562
183.183	13.680	1207.095	907.427
184.198	13.711	1205.989	906.683
185.213	13.734	1204.759	905.804
186.227	13.744	1203.614	904.919
187.242	13.921	1202.389	904.879
188.256	13.835	1201.651	903.774
189.271	13.887	1201.011	903.501
190.286	13.694	1200.059	901.652
191.300	13.689	1198.836	900.625
192.315	13.645	1198.471	900.035
193.329	13.660	1197.908	899.614
194.344	13.630	1197.005	898.692
195.359	13.675	1196.944	898.811
196.373	13.717	1195.916	898.185
197.388	13.864	1195.163	898.340
198.402	13.817	1195.104	897.961
199.417	13.923	1194.559	898.043
200.432	13.946	1193.093	896.986
201.446	14.044	1192.455	896.957
202.461	14.057	1191.257	896.046
203.475	14.092	1190.416	895.521
204.490	13.974	1189.215	893.906
205.504	14.070	1187.727	893.224
206.519	13.962	1187.291	892.235
207.534	14.001	1185.543	891.055
208.548	14.061	1185.058	890.929
209.563	14.062	1184.012	890.073
210.577	14.034	1183.259	889.277
211.592	14.060	1182.685	888.904
212.607	14.150	1181.366	888.315
213.621	14.105	1180.724	887.515
214.636	14.211	1179.627	887.177
215.650	14.171	1178.575	886.093
216.665	14.186	1177.864	885.561
217.680	14.198	1177.347	885.158
218.694	14.274	1176.133	884.571
219.709	14.167	1175.882	883.734
220.723	14.144	1174.980	882.855
221.738	14.233	1173.982	882.500
222.753	14.283	1173.569	882.377
223.767	14.354	1172.443	881.828
224.782	14.279	1171.894	880.943
225.796	14.371	1171.395	880.972
226.811	14.389	1170.609	880.402
227.826	14.269	1170.086	879.292
228.840	14.291	1169.925	879.213
229.855	14.331	1168.400	878.200
230.869	14.258	1167.884	877.347
231.884	14.416	1166.763	877.260
232.899	14.331	1165.984	876.148
233.913	14.284	1165.663	875.585
234.928	14.308	1164.903	875.064
235.942	14.299	1163.877	874.167
236.957	14.169	1163.105	872.829
237.972	14.303	1162.270	872.826
238.986	14.323	1161.439	872.229
240.001	14.479	1160.848	872.524
241.015	14.430	1160.032	871.578
242.030	14.453	1159.112	870.930
243.045	14.445	1158.500	870.354
244.059	14.429	1157.848	869.699
245.074	14.450	1156.972	869.074
246.088	14.458	1156.286	868.526
247.103	14.574	1155.420	868.402
248.117	14.578	1154.570	867.707
249.132	14.594	1153.851	867.172
250.147	14.746	1153.359	867.518
251.161	14.718	1152.785	866.860
252.176	14.836	1151.918	866.746
253.190	14.708	1151.742	865.873
254.205	14.788	1151.156	865.768
255.220	14.776	1150.666	865.262
256.234	14.803	1149.810	864.681
257.249	14.878	1148.990	864.375
258.263	14.901	1148.124	863.766
259.278	14.835	1147.553	862.923
260.293	14.972	1146.876	863.044
261.307	15.027	1146.192	862.734
262.322	14.949	1146.010	862.121
263.336	14.989	1144.859	861.384
264.351	15.069	1144.122	861.166
265.366	14.984	1143.813	860.418
266.380	15.001	1142.989	859.809
267.395	15.035	1141.995	859.161
268.409	14.941	1141.652	858.344
269.424	15.002	1140.859	857.984
270.439	14.899	1140.303	856.963
271.453	14.965	1139.515	856.635
272.468	15.059	1138.316	856.136
273.482	15.063	1137.571	855.520
274.497	15.026	1137.263	855.023
275.512	14.979	1136.685	854.276
276.526	14.970	1135.982	853.626
277.541	15.146	1134.776	853.539
278.555	15.077	1134.666	853.028
279.570	15.033	1133.801	852.077
280.585	15.163	1133.193	852.210
281.599	15.264	1131.980	851.737
282.614	15.155	1131.138	850.470
283.628	15.106	1130.299	849.520
284.643	15.183	1129.269	849.059
285.657	15.259	1128.108	848.496
286.672	15.286	1127.131	847.821
287.687	15.292	1126.602	847.381
288.701	15.281	1125.869	846.695
289.716	15.304	1124.971	846.062
290.730	15.226	1124.266	845.064
291.745	15.279	1124.101	845.133
292.760	15.250	1123.377	844.367
293.774	15.387	1122.589	844.389
294.789	15.550	1121.967	844.667
295.803	15.393	1121.449	843.414
296.818	15.393	1120.530	842.649
297.833	15.424	1119.542	841.984
298.847	15.424	1119.122	841.596
299.862	15.337	1118.460	840.587
300.876	15.377	1117.771	840.194
301.891	15.424	1117.501	840.151
302.906	15.552	1116.322	839.831
303.920	15.536	1115.470	839.038
304.935	15.558	1115.018	838.732
305.949	15.717	1114.168	838.813
306.964	15.741	1113.743	838.536
307.979	15.603	1113.131	837.316
308.993	15.709	1112.245	837.104
310.008	15.564	1111.672	835.875
311.022	15.685	1110.694	835.667
312.037	15.635	1109.783	834.660
313.052	15.559	1109.098	833.693
314.066	15.666	1107.776	833.157
315.081	15.688	1107.059	832.655
316.095	15.607	1106.248	831.569
317.110	15.585	1105.839	831.081
318.125	15.541	1104.982	830.142
319.139	15.656	1104.293	830.118
320.154	15.664	1103.598	829.565
321.168	15.696	1103.052	829.239
322.183	15.703	1102.570	828.837
323.197	15.628	1102.250	828.153
324.212	15.773	1101.317	828.092
325.227	15.861	1100.808	828.068
326.241	15.765	1099.878	826.823
327.256	15.748	1099.038	826.036
328.270	15.777	1098.235	825.503
329.285	15.715	1097.507	824.576
330.300	15.804	1096.612	824.270
331.314	15.898	1095.598	823.893
332.329	15.760	1095.139	822.803
333.343	15.816	1093.889	822.062
334.358	15.817	1093.225	821.498
335.373	15.919	1092.454	821.342
336.387	15.985	1091.515	820.883
337.402	15.924	1090.799	819.974
338.416	15.945	1090.454	819.745
339.431	15.969	1089.761	819.269
340.446	16.015	1089.303	819.078
341.460	15.982	1088.552	818.277
342.475	16.100	1087.584	818.052
343.489	16.129	1086.395	817.223
344.504	16.061	1086.157	816.642
345.519	16.206	1084.865	816.302
346.533	16.304	1083.942	816.007
347.548	16.225	1083.329	815.094
348.562	16.224	1082.520	814.407
349.577	16.090	1082.005	813.302
350.592	16.134	1081.408	812.996
351.606	16.175	1080.603	812.512
352.621	16.236	1079.724	812.078
353.635	16.200	1079.032	811.311
354.650	16.201	1078.393	810.762
355.665	16.220	1077.681	810.245
356.679	16.218	1077.376	809.934
357.694	16.311	1076.550	809.690
358.708	16.287	1076.028	809.110
359.723	16.297	1075.052	808.354
360.738	16.282	1074.477	807.776
361.752	16.330	1074.022	807.594
362.767	16.477	1073.281	807.667
363.781	16.327	1073.172	806.794
364.796	16.519	1072.092	806.827
365.810	16.430	1071.759	806.083
366.825	16.517	1071.352	806.119
367.840	16.407	1071.056	805.300
368.854	16.533	1070.328	805.285
369.869	16.569	1069.304	804.610
370.883	16.603	1068.509	804.105
371.898	16.536	1067.824	803.202
372.913	16.459	1067.432	802.468
373.927	16.560	1066.577	802.236
374.942	16.532	1066.312	801.832
375.956	16.518	1065.718	801.248
376.971	16.501	1065.345	800.814
377.986	16.693	1064.451	800.981
379.000	16.649	1064.119	800.454
380.015	16.751	1063.356	800.291
381.029	16.781	1062.830	799.966
382.044	16.736	1062.510	799.440
383.059	16.909	1061.109	799.133
384.073	16.786	1060.836	798.274
385.088	16.841	1059.742	797.642
386.102	16.748	1058.776	796.402
387.117	16.803	1057.744	795.818
388.132	16.801	1057.069	795.228
389.146	16.617	1056.527	793.888
390.161	16.670	1055.728	793.465
391.175	16.789	1054.796	793.251
392.190	16.895	1053.932	793.029
393.205	16.928	1053.274	792.614
394.219	16.934	1052.247	791.803
395.234	16.902	1051.663	791.144
396.248	16.871	1050.722	790.219
397.263	16.849	1049.643	789.237
398.278	16.902	1049.176	789.062
399.292	16.885	1048.553	788.446
400.307	16.789	1048.102	787.592
401.321	16.873	1047.097	787.156
402.336	16.942	1046.512	786.964
403.350	16.811	1045.868	785.804
404.365	16.858	1045.062	785.347
405.380	16.951	1044.416	785.222
406.394	17.077	1043.704	785.200
407.409	16.995	1043.146	784.332
408.423	17.010	1042.340	783.725
409.438	17.015	1041.648	783.158
410.453	17.191	1040.733	783.214
411.467	17.217	1039.759	782.532
412.482	17.236	1039.332	782.228
413.496	17.308	1038.489	781.855
414.511	17.224	1038.431	781.357
415.526	17.233	1038.298	781.230
416.540	17.252	1037.339	780.525
417.555	17.273	1037.125	780.391
418.569	17.340	1036.319	780.024
419.584	17.317	1035.866	779.508
420.599	17.265	1035.191	778.691
421.613	103.219	1322.375	1469.370
422.628	94.587	1364.178	1469.495
