DTS Sentinel unit serial number:	SN413079Multiplexer serial number:	ORYXHardware model number:	OX4-SRSoftware version number:	ORYX F/W v4.00 Oryx Data Collector v3.7.2.0data status	okinstallation	princeton_trtdifferential loss correction	single-endedforward channel	channel 2reverse channel	N/Adate	2019/09/18time	15:35:35forward acquisition time	60.00reverse acquisition time	0.00gamma	496.2192k internal	0.2315k external	0.2315temperature offset calibration	1.0010default loss term (dB/km)	0.3790temperature slope calibration	1.0000multiplexer offset coefficient	1.0000multiplexer slope coefficient	1.0000fibre end	0.00T internal ref (°C)	36.31T ext. ref 1 (°C)	0.77T ext. ref 2 (°C)	30.95length (m)	temperature (°C)	Stokes	anti-Stokes-747.200	228.556	-0.068	-0.112
-746.185	-88.074	0.330	0.100
-745.171	337.442	-0.010	0.019
-744.156	388.128	-0.062	-0.130
-743.142	-86.699	0.266	0.082
-742.127	-3.950	0.316	0.222
-741.112	-125.096	-0.139	-0.022
-740.098	-24.539	0.059	-0.036
-739.083	197.204	-0.044	0.069
-738.069	197.679	0.038	-0.059
-737.054	609.652	-0.103	-0.260
-736.039	800.000	-0.086	-0.317
-735.025	-34.900	0.218	0.121
-734.010	-200.000	0.010	-0.116
-732.996	-26.674	-0.325	-0.193
-731.981	568.003	0.101	-0.248
-730.966	69.579	-0.094	0.098
-729.952	-200.000	-0.029	-0.267
-728.937	-200.000	0.038	-0.221
-727.923	188.850	0.048	-0.073
-726.908	46.703	-0.111	-0.104
-725.894	-200.000	-0.058	-0.306
-724.879	-200.000	-0.002	0.091
-723.864	103.428	0.196	-0.233
-722.850	-160.114	-0.180	0.010
-721.835	-83.901	0.274	0.088
-720.821	-200.000	0.040	-0.316
-719.806	160.498	0.141	-0.199
-718.791	196.576	-0.115	-0.178
-717.777	1.160	-0.201	0.146
-716.762	201.928	-0.050	-0.078
-715.748	64.468	-0.126	-0.128
-714.733	-149.724	0.222	0.018
-713.718	-200.000	-0.006	-0.145
-712.704	546.255	0.085	-0.206
-711.689	-151.259	-0.267	0.020
-710.675	155.891	-0.114	-0.159
-709.660	-79.203	0.336	-0.115
-708.645	19.922	0.114	-0.093
-707.631	-96.893	0.092	-0.024
-706.616	800.000	-0.041	-0.132
-705.602	466.602	0.189	0.428
-704.587	-143.098	0.057	-0.006
-703.572	-200.000	-0.006	0.182
-702.558	-200.000	-0.003	0.422
-701.543	-103.593	0.210	-0.050
-700.529	425.078	-0.054	0.118
-699.514	-154.833	-0.541	-0.036
-698.499	-5.191	0.183	0.127
-697.485	-99.888	-0.161	-0.041
-696.470	-131.838	-0.031	-0.004
-695.456	-152.213	-0.117	-0.009
-694.441	800.000	-0.067	0.194
-693.426	46.507	0.125	-0.117
-692.412	-19.263	-0.398	-0.250
-691.397	637.672	0.150	-0.385
-690.383	307.129	0.146	0.275
-689.368	99.957	-0.244	-0.285
-688.354	45.896	0.183	-0.171
-687.339	-46.322	-0.233	0.116
-686.324	-73.411	-0.354	-0.131
-685.310	165.014	-0.064	0.092
-684.295	24.541	-0.167	-0.139
-683.281	-66.011	-0.120	0.049
-682.266	-5.386	-0.160	-0.111
-681.251	-100.235	0.227	-0.057
-680.237	-128.409	-0.234	0.034
-679.222	36.362	-0.117	0.104
-678.208	-200.000	0.026	0.155
-677.193	800.000	-0.005	-0.015
-676.178	80.072	-0.141	-0.154
-675.164	392.896	-0.065	0.137
-674.149	67.926	-0.280	-0.290
-673.135	-182.235	-0.230	0.004
-672.120	800.000	-0.076	-0.287
-671.105	-135.950	-0.156	0.019
-670.091	-24.467	-0.127	-0.077
-669.076	350.854	-0.089	-0.177
-668.062	115.575	0.228	0.282
-667.047	457.748	0.019	0.043
-666.032	389.451	-0.121	0.253
-665.018	-7.973	-0.119	0.081
-664.003	459.253	-0.069	0.155
-662.989	-95.201	-0.225	0.061
-661.974	-200.000	0.003	-0.027
-660.959	10.442	-0.100	-0.077
-659.945	-0.238	0.080	0.057
-658.930	-200.000	0.078	-0.412
-657.916	-67.561	-0.111	0.044
-656.901	-200.000	0.051	-0.257
-655.886	-91.072	-0.214	0.062
-654.872	18.047	0.412	0.332
-653.857	-102.815	-0.107	0.026
-652.843	-49.050	-0.135	-0.065
-651.828	-49.041	-0.410	0.198
-650.814	-88.457	-0.084	-0.025
-649.799	-200.000	-0.043	-0.557
-648.784	257.911	-0.138	0.239
-647.770	-200.000	-0.004	0.552
-646.755	-200.000	0.097	-0.595
-645.741	190.059	-0.154	-0.234
-644.726	238.020	-0.184	0.309
-643.711	87.003	-0.090	-0.100
-642.697	-7.533	-0.288	-0.197
-641.682	-13.978	-0.314	0.205
-640.668	-200.000	-0.027	0.215
-639.653	-120.050	-0.018	0.003
-638.638	-44.265	-0.209	0.106
-637.624	221.393	0.097	0.157
-636.609	800.000	0.078	-0.233
-635.595	-131.876	0.148	-0.019
-634.580	86.721	0.086	0.096
-633.565	-145.191	0.052	-0.005
-632.551	-200.000	0.022	-0.132
-631.536	238.188	-0.158	-0.264
-630.522	-19.326	0.086	-0.054
-629.507	8.831	0.113	-0.086
-628.492	65.446	-0.206	-0.210
-627.478	161.519	-0.127	-0.179
-626.463	195.259	0.154	-0.236
-625.449	-104.312	-0.351	0.082
-624.434	800.000	0.055	-0.181
-623.419	134.267	-0.052	0.068
-622.405	-73.227	-0.105	-0.039
-621.390	-45.652	-0.054	0.027
-620.376	-200.000	-0.020	-0.207
-619.361	-200.000	0.052	0.255
-618.346	-31.907	0.356	-0.201
-617.332	-23.312	-0.078	-0.047
-616.317	-4.695	0.225	-0.156
-615.303	-200.000	0.065	-0.303
-614.288	123.228	-0.151	-0.190
-613.273	-65.156	0.147	-0.060
-612.259	366.199	-0.101	-0.205
-611.244	665.967	0.038	0.099
-610.230	451.106	0.067	0.150
-609.215	17.230	-0.172	-0.137
-608.201	140.169	-0.045	-0.060
-607.186	800.000	0.093	0.259
-606.171	-50.719	0.160	0.076
-605.157	18.464	0.072	0.058
-604.142	-14.393	0.170	-0.110
-603.128	-53.666	-0.210	0.097
-602.113	57.201	-0.182	0.179
-601.098	-130.186	0.364	-0.050
-600.084	619.872	0.044	-0.111
-599.069	-200.000	0.082	0.522
-598.055	502.146	-0.148	-0.344
-597.040	-200.000	0.014	-0.105
-596.025	17.055	0.227	0.181
-595.011	-6.227	-0.276	0.190
-593.996	551.584	0.090	-0.218
-592.982	143.624	0.100	-0.134
-591.967	429.546	-0.132	-0.287
-590.952	-200.000	-0.005	-0.275
-589.938	800.000	0.054	-0.183
-588.923	-151.806	-0.098	0.007
-587.909	120.649	-0.249	0.311
-586.894	569.171	-0.009	0.022
-585.879	656.238	-0.032	-0.084
-584.865	800.000	0.027	-0.118
-583.850	-178.904	0.269	0.006
-582.836	42.055	-0.115	-0.105
-581.821	800.000	-0.087	-0.293
-580.806	-16.368	-0.382	-0.244
-579.792	-24.664	-0.208	-0.124
-578.777	91.706	0.067	-0.076
-577.763	-200.000	-0.025	-0.139
-576.748	-57.263	0.102	-0.045
-575.733	-171.396	0.087	-0.003
-574.719	800.000	0.080	-0.268
-573.704	-106.867	0.200	-0.045
-572.690	-200.000	0.024	-0.259
-571.675	-200.000	-0.011	-0.170
-570.661	-84.966	-0.104	0.033
-569.646	800.000	0.095	0.269
-568.631	-200.000	0.011	0.211
-567.617	-149.454	0.349	-0.028
-566.602	604.398	-0.089	-0.223
-565.588	-25.473	-0.338	0.201
-564.573	-123.752	-0.154	0.024
-563.558	197.239	-0.076	0.117
-562.544	98.355	0.054	0.063
-561.529	99.149	0.208	0.242
-560.515	-117.906	-0.156	0.028
-559.500	709.133	0.045	-0.119
-558.485	132.703	-0.149	0.194
-557.471	618.868	-0.041	-0.104
-556.456	421.944	0.091	0.197
-555.442	69.877	-0.186	-0.193
-554.427	-9.725	0.174	0.117
-553.412	97.062	-0.119	-0.137
-552.398	-69.631	-0.019	-0.007
-551.383	-148.526	-0.262	0.022
-550.369	-122.845	-0.030	-0.005
-549.354	222.990	0.103	-0.166
-548.339	56.259	0.223	-0.218
-547.325	-63.497	-0.207	-0.086
-546.310	188.541	-0.056	-0.084
-545.296	-44.990	-0.420	0.210
-544.281	-40.315	-0.095	0.049
-543.266	445.464	-0.163	-0.360
-542.252	189.912	0.163	-0.246
-541.237	-84.261	0.104	-0.033
-540.223	5.346	0.353	0.262
-539.208	-15.178	-0.099	-0.064
-538.193	-138.023	0.227	-0.025
-537.179	-22.646	-0.241	0.147
-536.164	-200.000	0.067	0.456
-535.150	-13.688	-0.125	0.081
-534.135	4.803	-0.297	0.219
-533.121	349.122	-0.220	-0.437
-532.106	-78.807	0.141	-0.048
-531.091	-24.135	-0.341	0.205
-530.077	21.555	0.070	0.057
-529.062	90.920	-0.042	0.047
-528.048	-131.135	-0.109	0.015
-527.033	-200.000	0.052	-0.260
-526.018	-140.898	-0.189	-0.019
-525.004	516.589	-0.096	0.226
-523.989	15.644	0.270	-0.213
-522.975	-73.107	-0.339	-0.125
-521.960	800.000	0.069	-0.208
-520.945	-200.000	0.012	-0.212
-519.931	630.716	0.205	-0.522
-518.916	800.000	0.072	0.221
-517.902	142.290	0.346	-0.461
-516.887	-65.912	-0.232	0.093
-515.872	-60.531	-0.171	-0.073
-514.858	683.418	0.013	-0.035
-513.843	800.000	-0.095	0.268
-512.829	-130.707	-0.177	0.024
-511.814	-48.356	-0.107	-0.052
-510.799	166.228	0.115	-0.164
-509.785	-145.851	0.225	-0.020
-508.770	-105.426	0.393	-0.090
-507.756	200.917	0.140	-0.216
-506.741	21.946	0.189	-0.155
-505.726	-159.743	0.591	-0.033
-504.712	18.372	0.176	0.141
-503.697	800.000	-0.019	0.072
-502.683	-152.687	0.143	-0.010
-501.668	412.115	-0.079	0.168
-500.653	-44.683	-0.226	0.113
-499.639	680.643	-0.085	-0.222
-498.624	217.720	-0.060	0.096
-497.610	-200.000	0.010	-0.311
-496.595	-89.650	0.248	0.073
-495.581	133.829	-0.023	-0.030
-494.566	-69.989	-0.101	0.039
-493.551	-200.000	0.021	0.122
-492.537	53.825	0.075	0.072
-491.522	-128.103	-0.036	0.005
-490.508	-32.895	0.221	-0.123
-489.493	-200.000	-0.020	0.319
-488.478	0.228	0.304	-0.217
-487.464	781.125	0.096	-0.263
-486.449	9.012	-0.266	0.201
-485.435	-107.129	0.107	0.024
-484.420	118.654	-0.151	0.187
-483.405	181.979	-0.031	0.046
-482.391	-78.520	-0.163	0.056
-481.376	138.646	-0.086	0.114
-480.362	671.686	0.038	0.098
-479.347	-20.361	-0.008	-0.005
-478.332	-187.329	-0.239	-0.003
-477.318	-200.000	0.107	-0.483
-476.303	650.807	-0.045	-0.115
-475.289	-172.315	-0.418	-0.013
-474.274	-200.000	-0.023	0.117
-473.259	-176.469	0.033	0.001
-472.245	-37.582	-0.229	-0.123
-471.230	-112.973	0.265	-0.052
-470.216	800.000	0.055	0.176
-469.201	-143.662	-0.341	-0.032
-468.186	480.980	0.162	0.368
-467.172	710.128	-0.104	0.276
-466.157	-200.000	-0.037	-0.337
-465.143	142.781	-0.094	-0.126
-464.128	-20.304	-0.320	-0.198
-463.113	-200.000	0.007	-0.250
-462.099	-63.013	0.267	-0.111
-461.084	444.373	-0.107	0.236
-460.070	-200.000	0.016	0.086
-459.055	-200.000	-0.020	-0.099
-458.040	203.172	0.193	-0.299
-457.026	56.197	-0.096	-0.093
-456.011	-107.316	-0.339	0.075
-454.997	237.430	-0.126	0.210
-453.982	30.218	0.115	0.099
-452.968	-200.000	-0.014	0.114
-451.953	-200.000	-0.018	0.255
-450.938	46.374	0.319	-0.297
-449.924	-200.000	0.009	0.058
-448.909	-83.109	-0.077	0.025
-447.895	-200.000	-0.046	0.299
-446.880	-105.775	0.318	-0.072
-445.865	294.906	-0.041	-0.076
-444.851	-200.000	0.050	-0.223
-443.836	30.690	-0.104	-0.089
-442.822	-115.116	0.139	-0.026
-441.807	-200.000	0.032	0.218
-440.792	-69.038	-0.327	-0.126
-439.778	-200.000	0.020	0.164
-438.763	-200.000	0.036	-0.170
-437.749	59.656	-0.288	0.284
-436.734	0.267	-0.203	0.145
-435.719	800.000	-0.047	-0.175
-434.705	77.844	0.084	0.090
-433.690	701.564	0.025	0.067
-432.676	-97.864	0.356	-0.092
-431.661	-116.887	-0.334	0.061
-430.646	-3.627	0.088	0.061
-429.632	-168.707	0.248	0.009
-428.617	-10.038	-0.235	0.157
-427.603	-50.578	0.052	-0.025
-426.588	-99.118	-0.263	0.067
-425.573	282.141	-0.052	0.093
-424.559	34.922	-0.092	0.080
-423.544	58.620	0.346	0.340
-422.530	-73.974	0.241	-0.088
-421.515	-200.000	0.012	-0.171
-420.500	-101.286	-0.264	0.065
-419.486	-200.000	0.034	-0.217
-418.471	-200.000	0.018	-0.186
-417.457	-1.884	-0.085	-0.060
-416.442	-60.536	0.489	0.208
-415.428	257.268	0.113	-0.195
-414.413	190.878	-0.115	-0.173
-413.398	18.426	0.129	-0.103
-412.384	-200.000	-0.002	-0.013
-411.369	-124.907	-0.223	0.034
-410.355	320.023	0.069	-0.131
-409.340	-112.044	-0.449	0.090
-408.325	-16.274	0.089	-0.056
-407.311	-200.000	-0.001	0.046
-406.296	-75.127	0.155	-0.055
-405.282	800.000	-0.073	-0.264
-404.267	742.143	-0.034	-0.091
-403.252	207.763	-0.141	0.220
-402.238	-200.000	-0.063	-0.283
-401.223	132.004	0.108	-0.139
-400.209	-200.000	0.037	0.263
-399.194	163.861	0.140	0.196
-398.179	551.491	-0.075	0.181
-397.165	-132.638	0.143	-0.018
-396.150	-170.884	-0.086	0.003
-395.136	-124.728	-0.162	-0.025
-394.121	-200.000	0.002	-0.026
-393.106	800.000	0.022	0.090
-392.092	69.826	0.107	0.110
-391.077	12.095	0.132	-0.102
-390.063	29.542	-0.355	-0.302
-389.048	-118.507	0.371	-0.066
-388.033	-63.133	0.410	-0.169
-387.019	-176.509	0.059	0.002
-386.004	17.573	-0.312	0.248
-384.990	213.609	-0.189	0.299
-383.975	-170.324	0.238	-0.008
-382.960	-3.516	-0.156	-0.109
-381.946	360.877	0.075	-0.150
-380.931	-45.811	0.322	-0.159
-379.917	-200.000	-0.372	-0.001
-378.902	-158.776	0.310	0.018
-377.888	41.357	-0.263	0.238
-376.873	-193.464	-0.210	0.002
-375.858	-156.813	0.568	-0.035
-374.844	42.929	0.033	0.030
-373.829	-200.000	-0.017	0.152
-372.815	800.000	-0.059	0.182
-371.800	193.297	0.040	0.061
-370.785	218.199	-0.213	0.339
-369.771	-16.561	-0.203	0.129
-368.756	228.440	-0.073	-0.118
-367.742	-200.000	0.084	0.373
-366.727	-29.129	-0.046	-0.026
-365.712	65.657	0.080	0.081
-364.698	245.037	-0.143	0.240
-363.683	-200.000	0.020	-0.274
-362.669	-115.108	-0.190	-0.036
-361.654	-68.675	0.097	-0.037
-360.639	-200.000	-0.061	0.503
-359.625	-131.686	0.180	0.024
-358.610	58.498	-0.172	0.168
-357.596	113.780	-0.047	0.057
-356.581	496.055	0.092	0.211
-355.566	776.428	0.105	0.287
-354.552	429.926	-0.204	0.441
-353.537	-22.762	-0.395	-0.238
-352.523	279.395	-0.156	-0.278
-351.508	-33.643	-0.148	0.082
-350.493	-48.497	-0.268	-0.129
-349.479	42.798	-0.210	-0.191
-348.464	-21.639	0.238	0.145
-347.450	417.998	0.075	0.159
-346.435	-144.645	0.276	-0.025
-345.420	-162.049	0.092	-0.005
-344.406	103.908	0.046	-0.054
-343.391	-5.083	-0.108	0.074
-342.377	228.039	0.147	0.239
-341.362	24.515	0.125	-0.103
-340.348	-104.387	0.216	-0.050
-339.333	521.202	-0.083	0.194
-338.318	407.402	0.047	-0.098
-337.304	-4.410	-0.111	0.077
-336.289	-82.387	0.142	-0.046
-335.275	-35.624	-0.491	0.266
-334.260	-16.420	-0.251	-0.159
-333.245	-48.187	0.320	0.154
-332.231	-63.832	-0.287	-0.117
-331.216	-86.100	0.132	-0.041
-330.202	147.283	0.183	0.246
-329.187	180.924	-0.243	-0.356
-328.172	308.710	0.132	-0.245
-327.158	-57.496	-0.152	0.067
-326.143	-170.329	-0.470	-0.016
-325.129	-200.000	-0.030	0.286
-324.114	-200.000	0.027	0.125
-323.099	-112.195	-0.132	0.026
-322.085	61.308	0.074	-0.073
-321.070	181.601	0.075	0.109
-320.056	10.258	-0.165	-0.125
-319.041	800.000	0.029	0.081
-318.026	22.018	-0.095	0.077
-317.012	102.182	0.218	-0.254
-315.997	684.605	-0.104	-0.271
-314.983	800.000	0.088	-0.318
-313.968	-54.137	0.153	-0.069
-312.953	-200.000	-0.012	0.173
-311.939	23.717	-0.321	-0.264
-310.924	607.691	-0.075	-0.187
-309.910	-133.180	0.484	0.061
-308.895	-200.000	0.014	-0.096
-307.880	-115.524	0.491	-0.092
-306.866	516.812	-0.101	0.235
-305.851	340.522	-0.073	0.141
-304.837	46.025	-0.148	0.136
-303.822	800.000	0.084	-0.330
-302.807	-200.000	0.024	-0.160
-301.793	800.000	0.030	-0.118
-300.778	487.521	0.038	0.086
-299.764	-6.926	0.228	-0.154
-298.749	-200.000	-0.009	0.195
-297.735	26.794	0.125	0.104
-296.720	-74.527	0.243	-0.087
-295.705	16.437	-0.037	-0.029
-294.691	800.000	0.072	0.269
-293.676	-174.509	-0.444	0.013
-292.662	800.000	-0.050	-0.198
-291.647	-200.000	-0.002	0.364
-290.632	-200.000	0.056	0.308
-289.618	198.650	-0.107	-0.163
-288.603	-101.977	0.233	-0.056
-287.589	171.323	0.213	-0.305
-286.574	87.410	0.176	0.194
-285.559	-1.186	0.189	0.133
-284.545	-33.794	-0.226	0.124
-283.530	-134.256	0.157	-0.019
-282.516	-122.047	0.175	0.029
-281.501	-23.394	0.021	-0.012
-280.486	-200.000	0.038	0.241
-279.472	730.698	0.107	0.285
-278.457	162.369	-0.031	-0.043
-277.443	-46.436	0.345	0.169
-276.428	-172.721	-0.109	0.003
-275.413	102.838	0.152	-0.178
-274.399	-200.000	-0.009	0.052
-273.384	393.992	0.137	0.283
-272.370	800.000	-0.033	0.094
-271.355	-116.510	0.061	-0.011
-270.340	-59.503	0.111	-0.047
-269.326	108.644	-0.170	0.202
-268.311	-45.624	0.192	0.095
-267.297	-124.012	0.053	-0.008
-266.282	-50.113	-0.202	0.095
-265.267	-22.038	0.148	-0.090
-264.253	19.580	-0.277	0.221
-263.238	130.165	-0.096	0.123
-262.224	-50.444	0.095	0.045
-261.209	474.882	0.002	0.005
-260.195	-19.743	0.182	0.112
-259.180	-78.105	-0.295	0.101
-258.165	-200.000	0.010	-0.124
-257.151	800.000	0.050	-0.167
-256.136	-30.995	0.161	-0.090
-255.122	-200.000	-0.018	0.288
-254.107	-56.525	0.314	-0.139
-253.092	800.000	0.063	-0.205
-252.078	-63.784	0.239	0.097
-251.063	800.000	-0.067	-0.256
-250.049	800.000	0.054	-0.189
-249.034	-200.000	-0.039	0.238
-248.019	-40.878	0.234	0.120
-247.005	50.517	-0.197	0.185
-245.990	203.774	-0.110	-0.169
-244.976	-49.717	0.276	-0.130
-243.961	-140.153	-0.320	-0.033
-242.946	307.408	0.091	0.169
-241.932	162.853	-0.206	-0.288
-240.917	60.631	0.074	-0.072
-239.903	800.000	-0.072	-0.301
-238.888	-200.000	0.001	0.052
-237.873	196.702	-0.085	-0.128
-236.859	-200.000	0.009	0.063
-235.844	624.393	-0.079	0.197
-234.830	800.000	0.056	-0.166
-233.815	27.747	-0.161	-0.135
-232.800	-200.000	0.027	-0.315
-231.786	800.000	-0.068	0.216
-230.771	-30.887	-0.300	-0.169
-229.757	-22.718	0.103	0.062
-228.742	352.059	0.086	0.169
-227.727	434.808	-0.115	-0.249
-226.713	-200.000	0.003	0.252
-225.698	-109.955	0.028	0.006
-224.684	-196.212	-0.362	-0.002
-223.669	-84.323	0.039	-0.012
-222.655	-78.578	-0.060	-0.020
-221.640	-9.331	-0.033	-0.022
-220.625	21.374	0.311	-0.251
-219.611	-157.730	-0.402	0.024
-218.596	331.106	0.175	0.335
-217.582	-200.000	0.031	0.261
-216.567	-9.560	0.049	-0.032
-215.552	-200.000	0.017	0.241
-214.538	-102.178	0.322	0.077
-213.523	171.661	0.094	0.134
-212.509	377.683	-0.074	-0.150
-211.494	252.118	-0.156	-0.264
-210.479	-110.194	0.283	-0.058
-209.465	35.298	-0.297	0.259
-208.450	-83.732	-0.137	0.043
-207.436	-200.000	0.022	0.379
-206.421	401.744	-0.071	-0.148
-205.406	183.333	-0.122	0.179
-204.392	-143.770	-0.170	-0.016
-203.377	33.841	0.427	0.368
-202.363	-68.737	0.077	-0.029
-201.348	-41.217	0.322	0.165
-200.333	387.270	0.086	0.177
-199.319	384.333	-0.168	-0.343
-198.304	-200.000	0.026	0.241
-197.290	95.687	0.185	0.209
-196.275	-69.145	0.099	0.038
-195.260	-132.554	-0.076	-0.010
-194.246	-84.152	-0.071	0.022
-193.231	191.948	0.133	0.199
-192.217	-200.000	0.026	0.196
-191.202	51.702	0.151	-0.142
-190.187	115.741	-0.196	0.237
-189.173	-124.102	-0.019	0.003
-188.158	311.203	-0.083	0.155
-187.144	525.879	0.231	-0.539
-186.129	800.000	-0.042	0.134
-185.114	800.000	0.074	0.257
-184.100	127.921	-0.120	-0.152
-183.085	800.000	0.052	-0.155
-182.071	348.092	0.098	-0.191
-181.056	800.000	-0.095	0.403
-180.042	-153.225	0.458	-0.032
-179.027	-134.846	-0.187	-0.022
-178.012	-74.970	-0.079	-0.028
-176.998	-1.847	-0.120	-0.084
-175.983	-133.611	-0.234	0.029
-174.969	800.000	-0.075	0.210
-173.954	-87.912	-0.074	0.022
-172.939	800.000	0.083	-0.269
-171.925	-59.664	0.121	-0.051
-170.910	-20.097	0.084	0.051
-169.896	-148.784	0.080	0.006
-168.881	142.750	-0.270	-0.355
-167.866	-92.726	0.379	0.105
-166.852	-25.407	-0.278	-0.163
-165.837	748.128	0.132	0.352
-164.823	-200.000	0.022	-0.193
-163.808	47.070	0.272	0.250
-162.793	-28.024	0.090	0.052
-161.779	-46.403	-0.156	0.076
-160.764	-0.240	0.134	0.094
-159.750	-46.747	0.192	0.093
-158.735	-48.450	0.019	0.009
-157.720	448.089	-0.097	-0.212
-156.706	-200.000	-0.074	0.384
-155.691	-159.072	0.320	-0.018
-154.677	592.359	-0.057	-0.140
-153.662	-144.496	0.143	0.013
-152.647	-35.812	0.218	-0.117
-151.633	96.458	0.105	0.119
-150.618	-26.892	-0.437	-0.253
-149.604	-200.000	-0.018	-0.119
-148.589	158.915	0.208	0.287
-147.574	-200.000	-0.015	-0.113
-146.560	800.000	-0.016	-0.049
-145.545	-200.000	-0.031	0.158
-144.531	374.037	-0.132	-0.267
-143.516	-51.692	0.337	0.156
-142.502	506.349	-0.087	0.199
-141.487	-14.164	-0.282	0.180
-140.472	466.711	-0.178	0.395
-139.458	800.000	-0.087	0.238
-138.443	-13.438	-0.148	-0.095
-137.429	31.154	-0.143	0.122
-136.414	-110.786	-0.274	0.056
-135.399	-58.872	-0.109	0.047
-134.385	-39.310	0.027	0.014
-133.370	-5.762	-0.286	0.194
-132.356	-200.000	0.011	-0.182
-131.341	800.000	-0.061	-0.168
-130.326	0.623	0.204	-0.144
-129.312	327.746	-0.069	-0.132
-128.297	-105.620	0.152	-0.034
-127.283	-131.011	0.366	-0.048
-126.268	-200.000	-0.035	0.337
-125.253	-41.590	-0.060	0.030
-124.239	348.430	-0.127	0.247
-123.224	-46.700	-0.182	0.088
-122.210	-113.463	-0.481	-0.093
-121.195	105.710	-0.042	0.049
-120.180	-51.931	-0.178	-0.082
-119.166	72.355	-0.124	0.128
-118.151	-31.468	-0.419	0.233
-117.137	-72.390	0.023	-0.008
-116.122	108.203	0.053	0.063
-115.107	-200.000	0.008	-0.087
-114.093	0.274	0.219	-0.154
-113.078	357.679	0.074	0.146
-112.064	-39.952	-0.365	0.188
-111.049	-200.000	-0.016	-0.086
-110.034	-16.816	0.057	0.036
-109.020	800.000	0.044	0.145
-108.005	-5.374	0.174	-0.118
-106.991	36.899	-0.202	-0.176
-105.976	-200.000	-0.004	-0.062
-104.962	43.281	-0.162	-0.146
-103.947	5.869	-0.194	0.142
-102.932	-59.974	0.256	0.108
-101.918	-200.000	-0.048	-0.351
-100.903	17.234	0.372	0.291
-99.889	34.609	-0.302	-0.261
-98.874	800.000	0.124	0.470
-97.859	-200.000	-0.041	0.343
-96.845	-152.367	-0.123	-0.009
-95.830	187.823	0.111	-0.164
-94.816	42.751	0.378	0.340
-93.801	61.037	0.150	-0.147
-92.786	-70.234	0.060	-0.023
-91.772	-94.446	0.394	-0.106
-90.757	-18.337	-0.136	0.084
-89.743	-6.041	0.274	-0.185
-88.728	-106.923	-0.071	0.015
-87.713	-200.000	-0.001	0.063
-86.699	145.080	0.191	-0.252
-85.684	537.856	-0.064	0.150
-84.670	214.894	-0.153	-0.240
-83.655	-28.349	0.160	-0.091
-82.640	-139.878	0.106	0.011
-81.626	-77.981	0.181	0.061
-80.611	597.420	0.038	0.094
-79.597	-200.000	-0.016	0.077
-78.582	-148.683	0.099	-0.008
-77.567	-37.496	0.307	-0.162
-76.553	68.142	0.354	0.358
-75.538	517.971	0.080	0.185
-74.524	-200.000	-0.008	-0.225
-73.509	800.000	-0.063	0.180
-72.494	517.237	-0.127	0.293
-71.480	398.689	-0.036	0.074
-70.465	46.070	0.160	-0.146
-69.451	288.518	-0.139	0.249
-68.436	-55.915	0.202	0.089
-67.422	758.540	0.061	-0.163
-66.407	1.563	0.246	-0.175
-65.392	31.320	0.075	0.063
-64.378	-103.190	0.346	0.081
-63.363	-100.913	-0.089	0.022
-62.349	800.000	0.069	-0.223
-61.334	121.700	-0.686	-0.844
-60.319	99.153	0.313	0.357
-59.305	-200.000	-0.009	-0.936
-58.290	400.054	0.312	0.646
-57.276	642.871	0.671	1.687
-56.261	-200.000	90.110	531.855
-55.246	480.778	1420.537	3179.621
-54.232	144.257	2640.016	3475.842
-53.217	107.033	2361.490	2767.399
-52.203	45.712	1965.927	1792.351
-51.188	39.531	1750.265	1547.334
-50.173	36.753	1705.084	1486.035
-49.159	52.556	1749.703	1648.054
-48.144	55.797	1767.632	1690.053
-47.130	39.383	1726.015	1524.506
-46.115	36.450	1711.180	1488.779
-45.100	36.269	1706.328	1483.106
-44.086	36.147	1703.396	1479.566
-43.071	36.258	1701.010	1478.284
-42.057	36.174	1698.736	1475.609
-41.042	36.199	1696.873	1474.119
-40.027	36.227	1694.595	1472.294
-39.013	36.212	1692.379	1470.197
-37.998	36.166	1691.135	1468.708
-36.984	36.262	1689.521	1467.981
-35.969	36.288	1688.443	1467.181
-34.954	36.294	1687.422	1466.279
-33.940	36.378	1684.836	1464.612
-32.925	36.347	1683.045	1462.767
-31.911	36.333	1681.329	1461.107
-30.896	36.292	1679.292	1458.970
-29.881	36.299	1677.652	1457.542
-28.867	36.271	1676.151	1455.970
-27.852	36.319	1674.744	1455.049
-26.838	36.359	1673.050	1453.821
-25.823	36.370	1671.622	1452.606
-24.809	36.326	1670.413	1451.162
-23.794	36.385	1668.713	1450.077
-22.779	36.325	1667.332	1448.368
-21.765	36.319	1665.209	1446.423
-20.750	36.253	1663.914	1444.741
-19.736	36.284	1662.437	1443.634
-18.721	36.339	1661.135	1442.856
-17.706	36.270	1659.226	1440.630
-16.692	36.345	1657.637	1439.751
-15.677	36.294	1656.780	1438.573
-14.663	36.341	1655.364	1437.634
-13.648	36.449	1653.214	1436.515
-12.633	36.400	1651.755	1434.819
-11.619	36.382	1650.569	1433.605
-10.604	36.304	1649.011	1431.614
-9.590	36.351	1647.585	1430.665
-8.575	36.385	1646.079	1429.555
-7.560	36.321	1644.975	1428.068
-6.546	36.259	1644.769	1427.375
-5.531	36.343	1643.014	1426.411
-4.517	36.310	1641.593	1424.880
-3.502	36.330	1640.557	1424.069
-2.487	36.309	1639.674	1423.091
-1.473	36.200	1627.668	1411.820
-0.458	33.384	1606.942	1373.396
0.556	27.724	1604.699	1331.013
1.571	24.108	1625.571	1321.427
2.586	22.491	1637.865	1319.206
3.600	19.889	1585.379	1257.932
4.615	11.324	1471.768	1109.640
5.629	2.786	1401.461	1001.023
6.644	0.913	1392.436	982.341
7.659	0.739	1390.583	979.820
8.673	0.765	1389.503	979.144
9.688	0.654	1387.588	976.985
10.702	0.535	1384.832	974.194
11.717	4.158	1391.092	1001.964
12.731	12.588	1404.644	1066.477
13.746	17.515	1410.647	1102.935
14.761	17.530	1409.487	1102.031
15.775	16.746	1406.853	1094.806
16.790	15.774	1404.178	1086.356
17.804	15.032	1401.708	1079.564
18.819	14.498	1400.805	1075.329
19.834	14.220	1398.770	1071.884
20.848	13.954	1397.423	1069.044
21.863	13.736	1396.345	1066.722
22.877	13.549	1394.813	1064.255
23.892	13.429	1394.528	1063.176
24.907	13.407	1393.564	1062.204
25.921	13.467	1392.964	1062.037
26.936	13.590	1391.499	1061.612
27.950	13.628	1390.649	1061.112
28.965	13.615	1389.631	1060.159
29.980	13.652	1388.692	1059.588
30.994	13.710	1387.713	1059.116
32.009	13.657	1386.655	1057.877
33.023	13.706	1385.794	1057.440
34.038	13.696	1384.695	1056.443
35.053	13.626	1383.671	1055.123
36.067	13.677	1382.226	1054.253
37.082	13.706	1380.791	1053.250
38.096	13.612	1380.706	1052.490
39.111	13.621	1379.417	1051.473
40.126	13.580	1378.528	1050.446
41.140	13.584	1377.824	1049.838
42.155	13.549	1377.393	1049.198
43.169	13.469	1377.451	1048.643
44.184	13.516	1377.194	1048.648
45.199	13.525	1376.989	1048.460
46.213	13.636	1375.711	1048.092
47.228	13.597	1375.145	1047.326
48.242	13.609	1373.746	1046.240
49.257	13.594	1372.621	1045.196
50.271	13.630	1370.810	1043.951
51.286	13.724	1369.442	1043.408
52.301	13.635	1368.463	1042.012
53.315	13.466	1367.537	1040.151
54.330	13.622	1366.095	1039.943
55.344	13.549	1365.462	1038.915
56.359	13.618	1363.921	1038.079
57.374	13.471	1363.443	1036.704
58.388	13.574	1362.349	1036.426
59.403	13.540	1361.748	1035.663
60.417	13.437	1361.716	1034.901
61.432	13.444	1360.717	1034.097
62.447	13.541	1359.539	1033.713
63.461	13.438	1358.135	1031.913
64.476	13.408	1357.027	1030.795
65.490	13.486	1356.044	1030.440
66.505	13.490	1354.202	1028.975
67.520	13.437	1353.204	1027.795
68.534	13.436	1352.129	1026.883
69.549	13.459	1351.345	1026.339
70.563	13.452	1349.946	1025.144
71.578	13.489	1348.785	1024.397
72.593	13.389	1347.766	1022.916
73.607	13.401	1347.169	1022.449
74.622	13.389	1346.079	1021.454
75.636	13.394	1345.570	1021.010
76.651	13.396	1344.629	1020.216
77.666	13.422	1344.360	1020.081
78.680	13.389	1343.780	1019.351
79.695	13.492	1342.688	1019.064
80.709	13.465	1342.179	1018.420
81.724	13.435	1341.449	1017.597
82.739	13.534	1339.828	1016.880
83.753	13.527	1339.000	1016.123
84.768	13.689	1337.741	1016.071
85.782	13.625	1337.153	1015.137
86.797	13.560	1335.767	1013.602
87.812	13.596	1333.995	1012.385
88.826	13.594	1333.200	1011.681
89.841	13.657	1331.809	1010.917
90.855	13.638	1330.852	1009.987
91.870	13.571	1330.269	1009.047
92.884	13.591	1329.544	1008.529
93.899	13.630	1328.140	1007.612
94.914	13.672	1327.797	1007.521
95.928	13.738	1326.941	1007.183
96.943	13.685	1325.962	1006.031
97.957	13.619	1325.228	1004.982
98.972	13.711	1323.702	1004.293
99.987	13.627	1322.897	1003.087
101.001	13.658	1321.853	1002.391
102.016	13.722	1320.317	1001.522
103.030	13.671	1319.637	1000.611
104.045	13.607	1318.812	999.513
105.060	13.531	1318.140	998.456
106.074	13.524	1316.679	997.217
107.089	13.505	1315.092	995.816
108.103	13.458	1313.675	994.373
109.118	13.520	1312.587	993.833
110.133	13.516	1311.473	992.877
111.147	13.535	1310.046	991.821
112.162	13.519	1308.626	990.567
113.176	13.629	1307.470	990.260
114.191	13.617	1306.701	989.520
115.206	13.590	1305.734	988.536
116.220	13.598	1304.002	987.188
117.235	13.518	1303.037	985.891
118.249	13.537	1302.242	985.313
119.264	13.642	1300.982	984.897
120.279	13.584	1299.909	983.654
121.293	13.585	1298.809	982.740
122.308	13.596	1297.608	981.814
123.322	13.513	1296.846	980.655
124.337	13.481	1295.866	979.639
125.352	13.584	1294.693	979.276
126.366	13.579	1293.375	978.163
127.381	13.603	1292.136	977.282
128.395	13.512	1291.113	975.884
129.410	13.603	1289.968	975.468
130.424	13.550	1289.455	974.680
131.439	13.718	1287.879	974.391
132.454	13.713	1287.013	973.619
133.468	13.739	1286.051	972.958
134.483	13.657	1285.629	972.074
135.497	13.608	1284.774	971.056
136.512	13.639	1283.234	969.983
137.527	13.595	1282.216	968.874
138.541	13.623	1280.834	967.903
139.556	13.718	1279.251	967.175
140.570	13.751	1278.491	966.712
141.585	13.690	1277.041	965.173
142.600	13.765	1275.513	964.369
143.614	13.832	1274.573	963.960
144.629	13.851	1273.306	963.028
145.643	13.791	1272.029	961.631
146.658	13.789	1270.891	960.674
147.673	13.697	1269.449	958.964
148.687	13.680	1268.436	958.016
149.702	13.677	1266.884	956.745
150.716	13.597	1265.877	955.434
151.731	13.683	1264.688	954.950
152.746	13.755	1263.278	954.214
153.760	13.775	1261.639	953.005
154.775	13.739	1260.748	952.042
155.789	13.714	1259.954	951.218
156.804	13.828	1258.606	950.768
157.819	13.799	1257.655	949.797
158.833	13.848	1256.786	949.338
159.848	13.843	1256.294	948.855
160.862	13.818	1254.869	947.555
161.877	13.832	1253.616	946.603
162.892	13.831	1252.679	945.802
163.906	13.754	1251.781	944.605
164.921	13.708	1251.220	943.834
165.935	13.776	1250.247	943.405
166.950	13.841	1249.514	943.137
167.964	13.825	1248.622	942.293
168.979	13.834	1247.913	941.725
169.994	13.810	1247.171	940.944
171.008	13.932	1246.455	941.010
172.023	13.924	1245.553	940.200
173.037	13.960	1244.770	939.732
174.052	14.018	1243.201	938.790
175.067	13.900	1242.214	937.298
176.081	13.929	1241.716	937.000
177.096	13.953	1240.511	936.147
178.110	13.979	1239.397	935.368
179.125	13.924	1238.635	934.399
180.140	13.981	1237.078	933.464
181.154	14.024	1235.574	932.485
182.169	13.966	1234.430	931.217
183.183	14.051	1233.396	930.828
184.198	14.101	1232.094	930.046
185.213	14.033	1231.275	928.963
186.227	14.166	1229.406	928.214
187.242	14.274	1228.474	928.029
188.256	14.144	1227.975	926.849
189.271	14.149	1227.024	926.077
190.286	14.010	1226.236	924.625
191.300	14.009	1225.213	923.765
192.315	14.063	1224.258	923.267
193.329	14.060	1223.667	922.718
194.344	14.058	1222.820	921.988
195.359	14.084	1222.173	921.565
196.373	14.163	1222.132	921.889
197.388	14.129	1221.657	921.262
198.402	14.181	1221.043	921.002
199.417	14.310	1220.224	921.016
200.432	14.316	1219.567	920.474
201.446	14.380	1218.438	919.896
202.461	14.447	1217.424	919.418
203.475	14.359	1216.508	918.159
204.490	14.367	1215.096	917.058
205.504	14.400	1214.036	916.356
206.519	14.460	1212.673	915.576
207.534	14.348	1211.646	914.107
208.548	14.391	1210.601	913.469
209.563	14.332	1210.471	912.971
210.577	14.424	1209.249	912.470
211.592	14.428	1208.405	911.774
212.607	14.579	1207.309	911.690
213.621	14.436	1206.431	910.168
214.636	14.411	1205.975	909.605
215.650	14.446	1204.558	908.647
216.665	14.444	1203.695	907.907
217.680	14.511	1203.185	907.808
218.694	14.673	1201.836	907.590
219.709	14.581	1201.686	906.895
220.723	14.633	1200.547	906.234
221.738	14.511	1199.789	904.924
222.753	14.489	1199.583	904.566
223.767	14.636	1198.866	904.742
224.782	14.639	1197.676	903.784
225.796	14.792	1196.850	903.910
226.811	14.815	1196.227	903.482
227.826	14.816	1195.397	902.778
228.840	14.625	1195.134	901.471
229.855	14.627	1194.702	901.073
230.869	14.645	1193.306	900.041
231.884	14.717	1192.648	899.850
232.899	14.708	1192.003	899.238
233.913	14.682	1191.316	898.498
234.928	14.737	1190.448	898.061
235.942	14.674	1189.835	897.178
236.957	14.723	1188.542	896.387
237.972	14.631	1187.952	895.370
238.986	14.757	1187.409	895.557
240.001	14.715	1186.815	894.807
241.015	14.788	1185.454	894.090
242.030	14.821	1184.948	893.805
243.045	14.915	1183.687	893.281
244.059	14.840	1183.279	892.492
245.074	14.792	1182.910	891.875
246.088	14.867	1182.008	891.517
247.103	14.904	1180.851	890.764
248.117	14.969	1180.100	890.462
249.132	15.103	1179.469	890.625
250.147	15.077	1178.621	889.765
251.161	15.208	1177.781	889.749
252.176	15.180	1177.286	889.145
253.190	15.150	1176.961	888.665
254.205	15.132	1176.201	887.917
255.220	15.180	1175.489	887.553
256.234	15.208	1175.139	887.361
257.249	15.131	1174.089	886.083
258.263	15.179	1173.444	885.767
259.278	15.249	1173.005	885.731
260.293	15.271	1172.442	885.342
261.307	15.275	1171.442	884.527
262.322	15.290	1171.067	884.245
263.336	15.356	1170.272	883.918
264.351	15.426	1169.742	883.809
265.366	15.531	1168.633	883.441
266.380	15.438	1168.386	882.688
267.395	15.374	1167.299	881.453
268.409	15.360	1166.856	880.968
269.424	15.424	1165.998	880.579
270.439	15.353	1165.602	879.830
271.453	15.229	1165.451	878.984
272.468	15.311	1163.933	878.191
273.482	15.301	1163.329	877.609
274.497	15.407	1162.836	877.714
275.512	15.517	1162.063	877.627
276.526	15.376	1161.492	876.381
277.541	15.355	1160.484	875.434
278.555	15.448	1159.721	875.262
279.570	15.551	1159.155	875.298
280.585	15.609	1157.763	874.469
281.599	15.470	1157.284	873.308
282.614	15.623	1156.204	873.212
283.628	15.556	1155.081	871.936
284.643	15.579	1154.091	871.234
285.657	15.710	1153.237	871.191
286.672	15.650	1152.385	870.159
287.687	15.616	1151.725	869.408
288.701	15.572	1150.738	868.359
289.716	15.572	1150.161	867.845
290.730	15.519	1149.743	867.177
291.745	15.634	1148.486	866.748
292.760	15.659	1147.968	866.406
293.774	15.703	1147.256	866.021
294.789	15.796	1146.562	865.897
295.803	15.758	1146.289	865.418
296.818	15.799	1145.687	865.099
297.833	15.916	1144.386	864.641
298.847	15.719	1143.958	863.230
299.862	15.806	1143.029	862.898
300.876	15.779	1142.112	861.994
301.891	15.770	1141.770	861.615
302.906	15.881	1140.738	861.327
303.920	15.934	1140.292	861.185
304.935	15.899	1139.580	860.392
305.949	15.994	1138.727	860.153
306.964	16.032	1137.952	859.689
307.979	16.077	1137.277	859.333
308.993	16.122	1136.474	858.877
310.008	16.036	1135.861	857.901
311.022	16.123	1134.507	857.243
312.037	16.062	1133.952	856.438
313.052	16.077	1133.355	855.989
314.066	16.110	1132.363	855.332
315.081	16.037	1131.436	854.183
316.095	15.951	1130.756	853.160
317.110	15.966	1129.735	852.393
318.125	16.017	1129.224	852.187
319.139	16.050	1128.289	851.575
320.154	16.060	1127.836	851.208
321.168	15.965	1127.428	850.345
322.183	15.983	1126.620	849.752
323.197	16.077	1125.896	849.603
324.212	16.076	1125.203	849.001
325.227	16.050	1124.818	848.503
326.241	16.055	1124.086	847.901
327.256	16.144	1122.865	847.352
328.270	16.167	1122.494	847.113
329.285	16.059	1121.256	845.563
330.300	16.033	1120.771	844.990
331.314	16.132	1119.782	844.667
332.329	16.331	1118.128	844.339
333.343	16.305	1117.368	843.562
334.358	16.174	1116.724	842.347
335.373	16.228	1116.146	842.106
336.387	16.290	1115.418	841.792
337.402	16.259	1114.747	841.057
338.416	16.403	1113.515	840.769
339.431	16.387	1112.828	840.093
340.446	16.431	1112.685	840.131
341.460	16.367	1111.830	839.094
342.475	16.500	1111.029	839.076
343.489	16.499	1110.083	838.283
344.504	16.519	1109.300	837.714
345.519	16.634	1107.957	837.196
346.533	16.480	1107.597	836.088
347.548	16.491	1106.979	835.599
348.562	16.510	1106.108	834.964
349.577	16.386	1105.575	833.874
350.592	16.480	1104.605	833.532
351.606	16.480	1103.923	832.948
352.621	16.543	1102.778	832.318
353.635	16.560	1102.388	832.036
354.650	16.549	1101.635	831.335
355.665	16.657	1101.096	831.388
356.679	16.625	1100.578	830.765
357.694	16.547	1099.966	829.846
358.708	16.653	1099.211	829.723
359.723	16.662	1098.577	829.218
360.738	16.701	1097.623	828.611
361.752	16.623	1097.534	828.093
362.767	16.662	1096.828	827.675
363.781	16.695	1096.069	827.189
364.796	16.642	1095.931	826.757
365.810	16.683	1095.227	826.351
366.825	16.737	1094.341	825.874
367.840	16.725	1094.104	825.564
368.854	16.934	1092.865	825.573
369.869	16.892	1092.370	824.919
370.883	16.916	1091.317	824.170
371.898	16.829	1090.522	823.074
372.913	16.997	1089.840	823.299
373.927	16.864	1089.651	822.441
374.942	16.937	1089.086	822.295
375.956	17.038	1088.464	822.240
376.971	17.050	1087.650	821.615
377.986	16.996	1087.251	820.975
379.000	16.952	1086.686	820.266
380.015	17.018	1086.204	820.148
381.029	17.208	1085.312	820.320
382.044	17.102	1084.783	819.337
383.059	17.130	1083.643	818.535
384.073	17.234	1083.186	818.619
385.088	17.128	1082.204	817.295
386.102	17.176	1080.932	816.492
387.117	17.072	1080.339	815.472
388.132	17.086	1079.113	814.545
389.146	17.068	1078.683	814.061
390.161	17.066	1078.239	813.644
391.175	17.167	1077.396	813.419
392.190	17.201	1076.587	812.900
393.205	17.301	1075.798	812.710
394.219	17.308	1074.665	811.814
395.234	17.306	1073.674	810.986
396.248	17.182	1073.115	809.899
397.263	17.232	1072.212	809.386
398.278	17.208	1071.424	808.604
399.292	17.304	1070.378	808.201
400.307	17.239	1069.838	807.411
401.321	17.267	1069.307	807.072
402.336	17.234	1068.911	806.546
403.350	17.313	1068.044	806.195
404.365	17.363	1067.128	805.667
405.380	17.404	1066.130	805.037
406.394	17.321	1065.969	804.452
407.409	17.366	1064.861	803.758
408.423	17.448	1064.377	803.708
409.438	17.410	1063.866	803.070
410.453	17.497	1063.097	802.829
411.467	17.420	1062.624	802.040
412.482	17.454	1061.467	801.254
413.496	17.617	1060.640	801.326
414.511	17.609	1060.576	801.169
415.526	17.684	1059.639	800.741
416.540	17.645	1059.318	800.247
417.555	17.744	1058.930	800.349
418.569	17.647	1058.389	799.414
419.584	17.609	1058.304	799.099
420.599	17.762	1057.094	798.834
421.613	97.080	1311.162	1427.797
422.628	89.584	1348.202	1427.901
