DTS Sentinel unit serial number:	SN413079Multiplexer serial number:	ORYXHardware model number:	OX4-SRSoftware version number:	ORYX F/W v4.00 Oryx Data Collector v3.7.2.0data status	okinstallation	princeton_trtdifferential loss correction	single-endedforward channel	channel 2reverse channel	N/Adate	2019/09/17time	20:35:34forward acquisition time	60.00reverse acquisition time	0.00gamma	496.2192k internal	0.2335k external	0.2335temperature offset calibration	0.9988default loss term (dB/km)	0.3790temperature slope calibration	1.0000multiplexer offset coefficient	1.0000multiplexer slope coefficient	1.0000fibre end	0.00T internal ref (°C)	30.25T ext. ref 1 (°C)	0.21T ext. ref 2 (°C)	20.96length (m)	temperature (°C)	Stokes	anti-Stokes-747.200	23.457	-0.273	-0.226
-746.185	-34.033	-0.173	-0.096
-745.171	289.448	-0.032	-0.058
-744.156	800.000	-0.144	0.418
-743.142	-104.216	0.220	0.051
-742.127	-68.614	-0.497	0.193
-741.112	54.190	0.296	-0.286
-740.098	108.297	-0.223	0.267
-739.083	-166.851	-0.471	-0.019
-738.069	800.000	-0.038	-0.128
-737.054	304.841	-0.046	0.085
-736.039	-68.640	-0.116	0.045
-735.025	-133.751	0.279	0.035
-734.010	-55.326	-0.373	-0.168
-732.996	-200.000	-0.016	0.078
-731.981	-45.198	0.069	0.034
-730.966	636.792	-0.146	-0.373
-729.952	-146.615	-0.399	0.035
-728.937	-92.935	-0.441	0.123
-727.923	800.000	0.032	-0.138
-726.908	-179.807	-0.430	0.009
-725.894	642.289	-0.092	-0.235
-724.879	-200.000	0.026	-0.155
-723.864	63.789	-0.140	0.142
-722.850	-137.217	-0.116	0.013
-721.835	-107.881	-0.273	-0.060
-720.821	-183.654	0.244	-0.004
-719.806	-200.000	0.021	0.296
-718.791	-48.148	-0.114	0.055
-717.777	-200.000	-0.041	-0.191
-716.762	-200.000	0.027	-0.212
-715.748	800.000	0.140	-0.394
-714.733	244.457	0.078	-0.132
-713.718	-197.831	0.279	0.002
-712.704	800.000	-0.048	0.145
-711.689	-200.000	0.005	-0.250
-710.675	-39.795	-0.047	-0.025
-709.660	-100.306	-0.221	-0.055
-708.645	-110.349	0.168	0.035
-707.631	-200.000	0.028	0.428
-706.616	-180.755	0.118	-0.002
-705.602	21.912	0.180	0.147
-704.587	-200.000	0.007	-0.261
-703.572	602.951	-0.088	0.219
-702.558	-200.000	-0.029	0.126
-701.543	456.674	-0.125	-0.278
-700.529	800.000	-0.058	0.226
-699.514	-146.329	-0.644	-0.057
-698.499	236.514	-0.073	0.122
-697.485	-200.000	0.021	0.108
-696.470	592.605	0.043	0.105
-695.456	800.000	-0.050	0.172
-694.441	-102.929	0.211	-0.050
-693.426	-29.972	-0.276	0.158
-692.412	-79.958	-0.102	0.035
-691.397	-9.140	0.108	0.072
-690.383	248.109	-0.085	-0.144
-689.368	-12.303	-0.196	0.128
-688.354	-148.853	-0.332	0.027
-687.339	-65.175	-0.272	-0.110
-686.324	43.875	-0.294	0.270
-685.310	-92.555	-0.292	-0.082
-684.295	-95.943	0.079	-0.021
-683.281	18.362	-0.186	-0.149
-682.266	-146.005	0.141	-0.013
-681.251	-17.511	-0.186	-0.117
-680.237	-99.260	0.196	-0.050
-679.222	-22.117	-0.206	-0.125
-678.208	181.437	-0.116	0.171
-677.193	-57.095	-0.267	-0.118
-676.178	30.880	0.249	0.214
-675.164	-103.794	-0.104	-0.024
-674.149	143.168	-0.059	-0.079
-673.135	168.814	-0.130	-0.186
-672.120	-96.422	-0.124	0.033
-671.105	141.605	0.199	-0.264
-670.091	-200.000	0.046	-0.264
-669.076	113.473	-0.065	-0.080
-668.062	-62.191	-0.202	-0.084
-667.047	-200.000	-0.002	-0.048
-666.032	164.324	-0.232	-0.328
-665.018	-102.280	-0.342	-0.082
-664.003	147.343	-0.145	0.195
-662.989	18.464	-0.185	-0.148
-661.974	800.000	-0.027	-0.111
-660.959	-200.000	-0.074	0.000
-659.945	-113.807	-0.114	-0.022
-658.930	-200.000	-0.002	-0.124
-657.916	-200.000	0.007	-0.116
-656.901	-143.406	-0.238	-0.023
-655.886	800.000	-0.053	0.151
-654.872	-200.000	-0.002	0.051
-653.857	6.007	0.051	-0.038
-652.843	314.955	-0.082	-0.155
-651.828	131.467	-0.095	-0.122
-650.814	-119.872	0.347	-0.060
-649.799	-84.735	-0.248	-0.078
-648.784	-102.765	-0.318	-0.076
-647.770	-119.854	-0.246	-0.042
-646.755	349.618	0.084	0.166
-645.741	-75.655	-0.071	-0.025
-644.726	-62.226	-0.032	-0.013
-643.711	-4.256	0.124	-0.086
-642.697	-200.000	-0.037	-0.204
-641.682	81.388	0.061	-0.066
-640.668	162.997	-0.178	0.250
-639.653	-140.147	0.245	-0.026
-638.638	114.015	0.171	0.209
-637.624	-200.000	-0.009	-0.063
-636.609	-200.000	-0.019	-0.119
-635.595	-140.298	-0.144	-0.015
-634.580	-71.930	-0.225	0.084
-633.565	8.433	0.099	-0.075
-632.551	-75.143	0.139	-0.050
-631.536	-200.000	-0.035	-0.307
-630.522	-200.000	-0.156	0.000
-629.507	-200.000	0.009	-0.042
-628.492	62.309	0.210	0.209
-627.478	-200.000	0.019	-0.265
-626.463	254.976	-0.126	0.216
-625.449	-200.000	-0.054	-0.367
-624.434	-61.473	-0.189	0.080
-623.419	275.695	0.066	-0.117
-622.405	-200.000	-0.047	-0.311
-621.390	134.292	0.138	0.178
-620.376	134.699	0.111	-0.144
-619.361	-129.680	-0.132	0.018
-618.346	175.939	0.119	0.172
-617.332	604.870	-0.123	0.307
-616.317	27.351	-0.132	0.111
-615.303	-200.000	-0.039	-0.405
-614.288	-200.000	-0.032	0.186
-613.273	-200.000	0.014	0.233
-612.259	-47.542	-0.325	0.158
-611.244	-58.863	0.135	-0.058
-610.230	-82.862	0.513	-0.166
-609.215	72.209	-0.055	-0.058
-608.201	288.943	-0.138	-0.250
-607.186	800.000	0.059	0.192
-606.171	800.000	-0.072	0.304
-605.157	-132.860	-0.164	-0.021
-604.142	800.000	0.103	0.311
-603.128	575.313	0.022	0.054
-602.113	-48.005	0.303	0.146
-601.098	21.094	0.078	0.063
-600.084	-21.954	-0.039	-0.024
-599.069	-31.326	-0.298	-0.167
-598.055	785.036	0.087	-0.237
-597.040	-47.177	0.048	0.024
-596.025	619.777	0.107	-0.270
-595.011	11.141	0.131	-0.100
-593.996	-200.000	-0.012	0.271
-592.982	517.744	0.068	0.159
-591.967	279.802	0.071	-0.126
-590.952	631.430	-0.068	0.173
-589.938	-31.700	0.289	-0.162
-588.923	188.802	0.114	0.170
-587.909	738.611	0.063	-0.168
-586.894	83.690	0.087	-0.095
-585.879	337.794	-0.051	-0.099
-584.865	-56.342	0.363	0.161
-583.850	-70.683	-0.114	0.043
-582.836	-42.932	-0.069	0.035
-581.821	-75.709	-0.497	0.176
-580.806	-106.524	-0.193	-0.043
-579.792	-83.855	0.393	-0.125
-578.777	17.417	-0.132	-0.104
-577.763	224.651	-0.011	-0.017
-576.748	-143.497	0.139	-0.013
-575.733	-151.379	-0.136	0.010
-574.719	38.917	0.095	0.084
-573.704	-1.716	-0.270	-0.190
-572.690	-200.000	0.052	-0.368
-571.675	-119.729	0.071	-0.012
-570.661	-200.000	-0.019	-0.098
-569.646	159.690	0.195	-0.271
-568.631	-106.247	0.153	-0.034
-567.617	-81.727	0.264	0.086
-566.602	-95.675	-0.344	0.092
-565.588	-34.322	0.200	-0.109
-564.573	800.000	-0.071	-0.222
-563.558	-133.013	-0.336	0.043
-562.544	-11.880	0.186	0.122
-561.529	109.847	-0.104	0.124
-560.515	56.396	-0.226	0.219
-559.500	-200.000	0.022	0.125
-558.485	-200.000	-0.023	0.213
-557.471	195.640	0.064	-0.097
-556.456	-109.233	0.184	-0.039
-555.442	-112.557	0.120	-0.024
-554.427	139.631	0.113	-0.148
-553.412	-138.579	0.272	0.030
-552.398	-200.000	0.002	0.029
-551.383	800.000	-0.060	-0.243
-550.369	800.000	-0.076	-0.329
-549.354	-18.295	-0.230	0.143
-548.339	-17.929	0.152	-0.095
-547.325	509.966	-0.064	-0.149
-546.310	708.792	-0.162	-0.426
-545.296	-200.000	-0.019	-0.148
-544.281	58.305	-0.104	-0.101
-543.266	127.242	-0.179	-0.226
-542.252	63.327	0.162	-0.162
-541.237	-49.595	-0.118	0.056
-540.223	58.328	-0.356	0.348
-539.208	-35.243	-0.246	0.133
-538.193	-76.866	0.124	-0.043
-537.179	28.577	0.206	0.173
-536.164	-200.000	0.076	0.469
-535.150	-200.000	0.033	-0.235
-534.135	-166.754	-0.039	0.002
-533.121	-200.000	-0.010	0.079
-532.106	-200.000	-0.007	0.158
-531.091	-60.074	-0.283	-0.120
-530.077	-166.476	0.266	0.011
-529.062	-160.050	-0.360	-0.020
-528.048	-200.000	0.014	-0.380
-527.033	340.504	0.046	0.089
-526.018	-153.773	0.126	-0.009
-525.004	209.274	0.024	0.037
-523.989	-55.115	-0.083	0.037
-522.975	800.000	-0.087	0.258
-521.960	-200.000	0.000	0.156
-520.945	-132.341	-0.223	0.029
-519.931	135.214	0.177	0.229
-518.916	406.495	-0.114	0.240
-517.902	-200.000	-0.034	-0.206
-516.887	107.816	0.146	-0.173
-515.872	-146.554	0.389	-0.034
-514.858	-134.325	-0.268	0.033
-513.843	800.000	0.018	0.060
-512.829	-156.862	0.375	-0.023
-511.814	31.921	-0.152	0.131
-510.799	45.388	0.121	0.111
-509.785	187.256	-0.080	-0.119
-508.770	253.823	-0.057	-0.097
-507.756	800.000	-0.030	0.122
-506.741	-99.738	-0.416	-0.104
-505.726	241.112	-0.124	-0.206
-504.712	297.631	-0.029	-0.053
-503.697	287.028	0.153	0.275
-502.683	-117.719	0.161	-0.029
-501.668	-53.833	0.075	0.034
-500.653	-200.000	0.026	-0.357
-499.639	169.946	-0.142	-0.202
-498.624	-37.672	0.165	0.088
-497.610	-63.833	0.243	-0.099
-496.595	-41.182	-0.405	-0.208
-495.581	523.458	0.133	-0.311
-494.566	800.000	0.052	-0.187
-493.551	40.950	-0.088	0.079
-492.537	-23.316	0.081	-0.049
-491.522	605.590	-0.047	0.117
-490.508	311.790	0.100	0.186
-489.493	800.000	-0.028	0.088
-488.478	-200.000	-0.019	-0.318
-487.464	223.265	-0.052	-0.084
-486.449	599.628	-0.070	-0.172
-485.435	392.011	-0.067	-0.139
-484.420	-46.169	0.160	-0.078
-483.405	188.371	0.188	-0.279
-482.391	123.503	0.157	-0.195
-481.376	-200.000	-0.006	0.173
-480.362	-200.000	-0.006	0.032
-479.347	-36.189	-0.199	0.107
-478.332	-31.445	0.141	-0.079
-477.318	734.381	-0.073	-0.195
-476.303	319.616	0.087	-0.164
-475.289	302.737	-0.180	0.332
-474.274	-193.989	0.370	-0.003
-473.259	73.215	-0.077	0.080
-472.245	800.000	-0.033	-0.122
-471.230	63.165	-0.087	0.086
-470.216	-101.336	-0.275	0.067
-469.201	458.567	0.107	-0.236
-468.186	387.908	-0.119	0.245
-467.172	327.739	-0.117	0.223
-466.157	-73.643	-0.220	-0.080
-465.143	16.485	-0.140	-0.110
-464.128	-200.000	-0.064	-0.676
-463.113	-105.701	-0.403	0.091
-462.099	800.000	-0.050	0.195
-461.084	125.852	0.039	-0.049
-460.070	-146.107	-0.287	-0.025
-459.055	288.428	-0.110	-0.198
-458.040	139.694	-0.167	0.219
-457.026	-200.000	0.008	-0.055
-456.011	800.000	0.012	0.034
-454.997	-86.528	0.277	-0.084
-453.982	-3.332	-0.341	0.236
-452.968	495.469	0.074	-0.169
-451.953	14.954	0.199	0.155
-450.938	-200.000	-0.046	-0.212
-449.924	17.385	-0.134	0.106
-448.909	-84.904	0.055	0.017
-447.895	-200.000	0.009	-0.084
-446.880	-112.498	0.425	0.084
-445.865	140.577	-0.278	0.364
-444.851	-200.000	0.031	0.179
-443.836	-200.000	0.031	0.323
-442.822	-4.621	-0.083	-0.057
-441.807	-59.029	0.059	-0.025
-440.792	-200.000	0.005	-0.126
-439.778	-136.775	0.228	-0.026
-438.763	17.474	-0.168	-0.133
-437.749	-89.589	-0.315	-0.092
-436.734	-72.844	-0.297	-0.109
-435.719	-148.079	0.192	0.016
-434.705	-200.000	-0.015	-0.117
-433.690	800.000	0.103	-0.336
-432.676	-90.146	-0.026	-0.007
-431.661	-17.125	-0.120	0.075
-430.646	92.940	-0.141	-0.158
-429.632	-200.000	-0.032	-0.347
-428.617	496.684	0.053	-0.120
-427.603	-158.410	-0.136	-0.008
-426.588	-122.142	-0.078	0.013
-425.573	-157.887	-0.115	0.007
-424.559	35.574	-0.040	0.035
-423.544	800.000	0.047	0.164
-422.530	36.777	0.265	0.232
-421.515	-200.000	-0.021	-0.162
-420.500	140.723	-0.090	-0.118
-419.486	-75.862	-0.051	-0.018
-418.471	800.000	0.043	-0.163
-417.457	800.000	-0.038	-0.161
-416.442	800.000	0.054	0.178
-415.428	180.814	0.098	0.143
-414.413	-200.000	-0.012	0.184
-413.398	-75.570	-0.194	-0.068
-412.384	132.377	0.080	-0.102
-411.369	-0.061	0.314	-0.222
-410.355	-20.395	0.165	0.101
-409.340	-13.294	-0.151	0.097
-408.325	439.482	0.044	-0.096
-407.311	-99.483	-0.262	0.065
-406.296	-49.722	-0.497	0.234
-405.282	188.654	-0.198	-0.294
-404.267	-200.000	-0.021	0.218
-403.252	-137.771	-0.356	-0.040
-402.238	-54.817	-0.103	0.046
-401.223	-200.000	-0.073	-0.353
-400.209	-57.266	0.057	-0.025
-399.194	-39.012	0.122	-0.063
-398.179	-200.000	0.005	-0.027
-397.165	-45.452	-0.250	0.123
-396.150	-33.366	0.185	-0.102
-395.136	136.259	0.172	0.222
-394.121	-40.629	-0.503	0.258
-393.106	13.095	-0.217	0.166
-392.092	-32.594	0.267	0.147
-391.077	161.438	0.028	0.039
-390.063	323.660	-0.082	-0.156
-389.048	800.000	0.058	-0.250
-388.033	800.000	-0.039	0.170
-387.019	-92.935	0.104	-0.029
-386.004	157.566	-0.225	0.308
-384.990	644.454	0.137	0.347
-383.975	329.774	0.174	-0.332
-382.960	-129.062	-0.219	0.030
-381.946	14.432	-0.224	0.173
-380.931	5.305	0.268	-0.196
-379.917	201.077	-0.053	-0.081
-378.902	-119.595	0.301	0.052
-377.888	-96.148	0.167	-0.044
-376.873	22.751	0.250	-0.203
-375.858	144.463	0.089	-0.118
-374.844	-35.810	-0.201	0.108
-373.829	193.025	-0.141	-0.211
-372.815	-25.718	0.126	0.074
-371.800	-53.622	-0.165	0.075
-370.785	-2.554	0.134	-0.093
-369.771	-112.047	0.383	-0.076
-368.756	8.196	-0.202	-0.150
-367.742	800.000	0.147	0.409
-366.727	290.782	0.194	0.348
-365.712	-2.449	0.143	-0.099
-364.698	-89.491	0.380	-0.111
-363.683	-142.426	-0.109	0.011
-362.669	-142.828	0.214	-0.021
-361.654	105.709	0.128	-0.150
-360.639	-101.110	-0.339	-0.082
-359.625	-42.743	-0.307	-0.154
-358.610	-200.000	0.123	0.000
-357.596	-31.685	0.121	0.067
-356.581	176.644	0.145	-0.209
-355.566	-91.436	0.340	0.096
-354.552	29.775	-0.233	-0.197
-353.537	-200.000	-0.013	-0.265
-352.523	706.578	-0.078	0.204
-351.508	-57.159	0.027	0.012
-350.493	26.988	-0.286	-0.238
-349.479	111.271	0.069	0.082
-348.464	-200.000	0.005	0.109
-347.450	309.444	-0.114	0.210
-346.435	-96.901	-0.125	-0.033
-345.420	-167.817	-0.219	0.009
-344.406	588.032	0.169	-0.411
-343.391	13.177	-0.135	-0.103
-342.377	90.196	0.123	-0.136
-341.362	-166.195	-0.027	0.001
-340.348	-200.000	0.025	0.159
-339.333	89.754	-0.352	0.388
-338.318	252.845	0.261	-0.441
-337.304	365.693	0.031	-0.061
-336.289	800.000	-0.018	0.065
-335.275	282.092	-0.067	-0.119
-334.260	-73.158	0.134	0.048
-333.245	-200.000	0.014	0.189
-332.231	-200.000	-0.003	0.100
-331.216	-165.034	0.407	0.018
-330.202	613.297	-0.032	-0.080
-329.187	-121.663	0.254	0.042
-328.172	-75.031	-0.057	-0.020
-327.158	82.859	0.216	0.232
-326.143	-92.189	0.519	0.145
-325.129	479.024	-0.052	-0.116
-324.114	800.000	-0.059	-0.169
-323.099	119.829	-0.137	0.168
-322.085	99.478	-0.088	0.101
-321.070	145.671	-0.124	0.164
-320.056	-21.688	-0.322	-0.194
-319.041	270.670	0.090	-0.157
-318.026	-80.564	-0.108	0.035
-317.012	800.000	0.034	-0.134
-315.997	800.000	0.109	-0.343
-314.983	-200.000	0.041	0.446
-313.968	141.955	-0.260	0.340
-312.953	800.000	0.028	-0.119
-311.939	-63.337	-0.070	-0.028
-310.924	-106.683	0.048	0.010
-309.910	-114.671	0.123	0.023
-308.895	367.678	-0.226	0.451
-307.880	800.000	-0.030	0.109
-306.866	800.000	0.122	0.483
-305.851	37.866	0.312	0.274
-304.837	-103.798	-0.131	0.030
-303.822	262.604	0.091	-0.155
-302.807	-1.096	0.243	-0.169
-301.793	-11.325	0.142	0.092
-300.778	-83.681	0.247	-0.078
-299.764	129.716	0.177	0.223
-298.749	-200.000	-0.010	0.201
-297.735	90.308	0.136	0.150
-296.720	49.757	0.035	0.032
-295.705	-200.000	-0.040	-0.199
-294.691	800.000	0.057	-0.176
-293.676	-200.000	-0.046	0.572
-292.662	-150.095	0.034	0.003
-291.647	110.823	-0.265	0.314
-290.632	-82.962	0.118	-0.038
-289.618	-42.503	0.110	-0.056
-288.603	-65.250	-0.220	0.088
-287.589	535.402	0.057	-0.134
-286.574	457.132	-0.073	-0.160
-285.559	-200.000	-0.011	0.231
-284.545	-39.033	-0.261	-0.135
-283.530	40.446	0.406	-0.360
-282.516	94.008	0.077	0.086
-281.501	24.516	-0.221	0.180
-280.486	-200.000	0.007	0.067
-279.472	-150.622	-0.280	0.021
-278.457	186.251	0.088	0.129
-277.443	31.879	-0.275	0.234
-276.428	-144.074	0.314	0.029
-275.413	395.554	0.052	-0.106
-274.399	209.389	-0.198	0.305
-273.384	-99.142	0.271	0.068
-272.370	84.583	0.217	-0.234
-271.355	20.916	0.055	0.044
-270.340	488.644	-0.164	0.370
-269.326	800.000	0.017	-0.068
-268.311	21.680	-0.170	0.137
-267.297	726.787	-0.108	0.283
-266.282	-33.808	0.075	-0.041
-265.267	168.674	-0.052	0.073
-264.253	66.322	0.226	-0.226
-263.238	404.663	0.174	0.361
-262.224	-154.561	-0.074	0.005
-261.209	12.274	-0.155	0.117
-260.195	760.283	-0.134	0.359
-259.180	-18.288	0.302	0.186
-258.165	101.466	0.198	-0.228
-257.151	-5.738	-0.077	-0.052
-256.136	-200.000	0.034	0.181
-255.122	-53.094	0.240	-0.109
-254.107	-135.443	-0.187	-0.022
-253.092	-181.108	-0.140	-0.003
-252.078	143.713	0.223	-0.292
-251.063	-67.339	0.230	-0.089
-250.049	-131.842	-0.288	-0.037
-249.034	-60.732	0.163	-0.068
-248.019	-66.216	0.387	0.152
-247.005	-13.590	-0.354	0.226
-245.990	-105.343	0.230	-0.052
-244.976	-200.000	0.032	0.174
-243.961	-200.000	-0.000	0.067
-242.946	181.785	0.068	0.098
-241.932	-200.000	0.013	0.264
-240.917	-168.870	0.214	0.008
-239.903	1.687	0.350	-0.248
-238.888	69.303	0.184	0.187
-237.873	800.000	-0.080	0.239
-236.859	20.018	-0.210	-0.167
-235.844	134.774	0.149	-0.190
-234.830	89.838	0.154	0.169
-233.815	242.201	0.161	-0.266
-232.800	-200.000	0.025	-0.169
-231.786	455.279	-0.153	0.333
-230.771	-116.581	-0.220	-0.040
-229.757	-200.000	0.004	0.162
-228.742	-10.979	-0.224	-0.146
-227.727	112.006	0.104	-0.124
-226.713	227.761	-0.032	-0.052
-225.698	155.420	-0.052	0.070
-224.684	211.460	0.162	-0.252
-223.669	-188.016	-0.230	0.003
-222.655	-200.000	-0.022	0.116
-221.640	-107.082	0.306	-0.066
-220.625	95.182	-0.113	-0.127
-219.611	176.293	-0.246	0.351
-218.596	715.920	-0.121	0.316
-217.582	-25.998	-0.088	-0.051
-216.567	-103.893	0.289	0.066
-215.552	-25.562	-0.133	-0.077
-214.538	647.345	0.101	-0.255
-213.523	555.493	0.053	-0.126
-212.509	145.191	-0.057	-0.075
-211.494	-65.200	-0.262	-0.104
-210.479	-118.585	0.193	0.034
-209.465	120.810	-0.145	-0.177
-208.450	239.466	-0.155	0.255
-207.436	-82.632	0.429	-0.137
-206.421	226.432	-0.057	-0.091
-205.406	-123.821	-0.415	0.064
-204.392	102.011	-0.239	-0.275
-203.377	800.000	0.031	0.093
-202.363	-64.074	0.263	0.106
-201.348	-200.000	-0.030	0.245
-200.333	73.922	0.163	0.168
-199.319	-52.183	-0.414	0.189
-198.304	-7.222	-0.140	-0.093
-197.290	378.755	0.033	0.067
-196.275	-140.502	-0.249	-0.025
-195.260	207.239	-0.126	0.193
-194.246	-102.674	0.364	0.085
-193.231	48.130	0.184	0.170
-192.217	-123.698	0.132	0.021
-191.202	-133.960	0.037	0.005
-190.187	-98.179	-0.294	0.074
-189.173	633.532	-0.072	-0.179
-188.158	-200.000	-0.002	0.225
-187.144	-200.000	0.040	0.205
-186.129	86.115	0.048	-0.052
-185.114	-108.471	0.216	0.046
-184.100	54.638	0.202	-0.191
-183.085	81.248	-0.200	-0.212
-182.071	-110.034	-0.142	0.029
-181.056	591.977	-0.066	0.159
-180.042	34.812	0.123	0.106
-179.027	78.905	0.133	-0.140
-178.012	-200.000	0.040	0.283
-176.998	-16.703	0.112	-0.070
-175.983	-123.777	0.349	-0.054
-174.969	-28.662	-0.147	0.083
-173.954	258.285	-0.050	-0.084
-172.939	-200.000	-0.023	-0.199
-171.925	-120.750	-0.128	0.021
-170.910	-41.611	-0.207	-0.104
-169.896	225.553	0.099	-0.158
-168.881	222.498	0.063	-0.099
-167.866	-200.000	-0.037	0.262
-166.852	300.754	0.059	0.106
-165.837	115.413	0.187	0.224
-164.823	51.923	-0.157	-0.147
-163.808	354.850	0.078	-0.152
-162.793	-46.671	0.256	-0.123
-161.779	-97.151	0.189	0.049
-160.764	27.472	0.311	-0.257
-159.750	800.000	-0.089	-0.332
-158.735	-200.000	0.001	0.045
-157.720	-41.928	0.274	-0.138
-156.706	59.509	-0.267	-0.259
-155.691	-115.772	-0.304	-0.056
-154.677	-52.198	-0.207	0.094
-153.662	311.462	0.034	0.062
-152.647	303.475	0.123	-0.223
-151.633	800.000	0.155	0.462
-150.618	406.102	0.161	0.334
-149.604	-145.194	-0.158	-0.014
-148.589	-200.000	-0.024	0.140
-147.574	-134.642	-0.182	-0.022
-146.560	179.521	-0.230	-0.330
-145.545	392.654	-0.040	-0.082
-144.531	-145.857	0.175	0.015
-143.516	-6.636	0.219	-0.147
-142.502	800.000	-0.051	0.208
-141.487	-46.849	0.284	0.136
-140.472	68.545	-0.110	0.111
-139.458	-35.409	0.022	0.012
-138.443	-97.841	0.207	0.053
-137.429	800.000	0.060	0.209
-136.414	-75.533	0.484	0.169
-135.399	470.968	0.081	0.179
-134.385	606.906	0.075	0.185
-133.370	-43.904	0.236	0.117
-132.356	-159.954	-0.136	-0.007
-131.341	-13.293	-0.363	0.231
-130.326	-200.000	-0.016	-0.165
-129.312	336.551	-0.085	0.163
-128.297	800.000	0.024	0.068
-127.283	185.291	-0.225	0.327
-126.268	-80.472	0.260	0.085
-125.253	-48.519	-0.212	0.100
-124.239	164.556	-0.161	0.222
-123.224	-41.028	-0.156	-0.079
-122.210	-88.406	-0.209	0.061
-121.195	-200.000	-0.023	0.131
-120.180	58.454	-0.062	-0.059
-119.166	-46.281	-0.286	-0.138
-118.151	-153.073	-0.060	0.004
-117.137	-200.000	0.002	-0.088
-116.122	-55.770	-0.412	-0.180
-115.107	216.172	-0.207	0.323
-114.093	-122.678	0.168	0.027
-113.078	-200.000	-0.013	-0.213
-112.064	-150.665	-0.318	-0.024
-111.049	161.965	0.154	0.212
-110.034	-48.148	0.245	-0.116
-109.020	-200.000	-0.018	-0.096
-108.005	-86.472	-0.308	-0.093
-106.991	-9.493	-0.041	-0.027
-105.976	274.848	0.139	0.242
-104.962	-150.280	-0.346	0.026
-103.947	-200.000	0.018	0.150
-102.932	-165.976	-0.175	0.007
-101.918	-14.845	0.220	-0.138
-100.903	-52.871	0.254	0.115
-99.889	186.726	-0.248	-0.362
-98.874	-64.109	0.045	-0.018
-97.859	-33.106	-0.166	0.090
-96.845	238.426	0.240	0.391
-95.830	-6.510	0.130	-0.087
-94.816	72.364	-0.103	-0.105
-93.801	-200.000	-0.013	0.147
-92.786	-117.434	0.344	0.061
-91.772	-130.466	0.074	0.010
-90.757	800.000	-0.036	0.121
-89.743	-58.431	0.251	-0.107
-88.728	-64.191	-0.170	0.068
-87.713	-200.000	0.034	0.271
-86.699	-43.565	-0.307	0.152
-85.684	-33.459	0.176	-0.095
-84.670	-200.000	-0.014	0.211
-83.655	42.723	-0.139	-0.124
-82.640	-200.000	-0.001	-0.021
-81.626	-90.354	-0.145	-0.041
-80.611	-16.402	0.224	0.139
-79.597	-2.988	0.148	-0.101
-78.582	-200.000	-0.012	-0.153
-77.567	-200.000	0.029	0.189
-76.553	-200.000	0.030	0.154
-75.538	800.000	0.039	-0.141
-74.524	70.551	-0.172	0.174
-73.509	-200.000	0.009	-0.062
-72.494	-57.726	-0.282	0.121
-71.480	-161.958	0.253	-0.013
-70.465	16.793	-0.295	0.228
-69.451	297.385	0.060	0.108
-68.436	-41.358	0.305	-0.154
-67.422	-200.000	0.001	0.241
-66.407	800.000	0.044	-0.141
-65.392	-200.000	0.005	-0.180
-64.378	213.152	-0.146	0.226
-63.363	52.748	0.273	-0.255
-62.349	-99.990	-0.311	-0.076
-61.334	86.834	-0.991	-1.070
-60.319	-35.455	0.672	0.357
-59.305	763.668	-0.410	-1.089
-58.290	476.102	0.644	1.422
-57.276	-200.000	0.227	1.531
-56.261	-200.000	108.952	646.089
-55.246	486.755	1484.138	3309.987
-54.232	148.514	2663.817	3518.447
-53.217	103.996	2273.866	2613.765
-52.203	39.661	1892.088	1659.226
-51.188	33.551	1685.825	1432.303
-50.173	30.900	1643.482	1376.712
-49.159	52.977	1696.079	1586.671
-48.144	53.519	1711.299	1604.894
-47.130	33.270	1669.946	1416.482
-46.115	30.392	1655.910	1383.122
-45.100	30.187	1651.682	1378.009
-44.086	30.022	1649.311	1374.752
-43.071	29.997	1646.725	1372.361
-42.057	30.067	1643.998	1370.547
-41.042	30.097	1642.032	1369.078
-40.027	30.160	1640.130	1367.900
-39.013	30.074	1638.594	1365.931
-37.998	30.076	1636.712	1364.324
-36.984	30.122	1635.538	1363.632
-35.969	30.224	1634.359	1363.341
-34.954	30.224	1632.683	1361.887
-33.940	30.360	1630.377	1360.912
-32.925	30.204	1628.526	1358.171
-31.911	30.305	1627.084	1357.652
-30.896	30.291	1625.364	1356.057
-29.881	30.260	1623.463	1354.194
-28.867	30.243	1622.187	1352.948
-27.852	30.183	1621.055	1351.518
-26.838	30.300	1618.979	1350.581
-25.823	30.249	1617.757	1349.141
-24.809	30.310	1616.538	1348.509
-23.794	30.296	1614.833	1346.938
-22.779	30.266	1613.886	1345.876
-21.765	30.245	1611.903	1344.014
-20.750	30.255	1610.057	1342.495
-19.736	30.225	1608.945	1341.297
-18.721	30.308	1607.727	1340.830
-17.706	30.214	1606.589	1339.149
-16.692	30.299	1604.659	1338.097
-15.677	30.306	1603.240	1336.915
-14.663	30.319	1602.233	1336.115
-13.648	30.256	1600.755	1334.372
-12.633	30.214	1599.807	1333.227
-11.619	30.340	1597.379	1332.058
-10.604	30.272	1596.260	1330.582
-9.590	30.342	1594.829	1329.843
-8.575	30.277	1594.057	1328.678
-7.560	30.368	1592.202	1327.730
-6.546	30.291	1591.430	1326.483
-5.531	30.233	1590.741	1325.441
-4.517	30.330	1588.890	1324.537
-3.502	30.297	1588.291	1323.750
-2.487	30.301	1586.322	1322.089
-1.473	29.638	1573.590	1306.738
-0.458	25.539	1552.053	1260.136
0.556	19.130	1550.242	1216.902
1.571	16.123	1572.107	1212.371
2.586	15.347	1584.311	1216.054
3.600	13.890	1531.828	1165.442
4.615	7.913	1426.569	1046.093
5.629	1.728	1364.505	961.525
6.644	0.288	1357.143	947.208
7.659	0.224	1355.501	945.575
8.673	0.118	1354.821	944.355
9.688	0.200	1352.493	943.156
10.702	0.073	1349.891	940.470
11.717	2.945	1354.067	961.283
12.731	10.347	1364.920	1015.454
13.746	15.961	1372.799	1056.532
14.761	16.995	1373.543	1063.496
15.775	16.277	1371.496	1057.319
16.790	15.290	1368.819	1048.989
17.804	14.602	1366.346	1042.707
18.819	14.207	1364.922	1039.060
19.834	13.995	1363.884	1036.854
20.848	13.627	1362.588	1033.484
21.863	13.402	1361.444	1031.124
22.877	13.315	1360.106	1029.478
23.892	13.179	1359.331	1027.954
24.907	13.131	1358.468	1026.915
25.921	13.247	1357.452	1026.772
26.936	13.304	1356.685	1026.454
27.950	13.257	1355.950	1025.519
28.965	13.451	1354.373	1025.437
29.980	13.491	1353.640	1025.036
30.994	13.452	1352.764	1024.045
32.009	13.538	1352.489	1024.276
33.023	13.466	1351.160	1022.734
34.038	13.365	1349.853	1021.030
35.053	13.367	1349.042	1020.338
36.067	13.326	1347.768	1019.031
37.082	13.392	1346.894	1018.691
38.096	13.415	1345.764	1017.887
39.111	13.371	1345.123	1017.038
40.126	13.430	1343.931	1016.412
41.140	13.277	1343.128	1014.776
42.155	13.246	1342.416	1013.955
43.169	13.240	1343.076	1014.328
44.184	13.184	1342.547	1013.499
45.199	13.233	1342.205	1013.447
46.213	13.246	1341.693	1013.052
47.228	13.280	1340.464	1012.244
48.242	13.357	1339.504	1011.901
49.257	13.331	1337.553	1010.174
50.271	13.351	1336.295	1009.260
51.286	13.399	1334.885	1008.400
52.301	13.299	1334.109	1007.113
53.315	13.281	1332.441	1005.656
54.330	13.283	1331.518	1004.882
55.344	13.225	1330.654	1003.790
56.359	13.270	1330.022	1003.498
57.374	13.217	1328.975	1002.297
58.388	13.132	1328.415	1001.268
59.403	13.114	1327.765	1000.585
60.417	13.138	1327.304	1000.292
61.432	13.084	1326.483	999.257
62.447	13.183	1324.863	998.545
63.461	13.259	1323.468	997.868
64.476	13.114	1322.889	996.470
65.490	13.143	1320.982	995.118
66.505	13.078	1320.216	994.059
67.520	13.120	1318.791	993.150
68.534	13.251	1317.396	992.797
69.549	13.260	1316.773	992.294
70.563	13.202	1315.753	991.094
71.578	13.191	1314.496	989.992
72.593	13.091	1313.463	988.532
73.607	13.094	1312.795	987.954
74.622	13.003	1311.664	986.473
75.636	13.150	1311.341	987.025
76.651	12.998	1311.210	985.925
77.666	13.114	1309.942	985.581
78.680	13.071	1309.616	984.990
79.695	13.185	1308.428	984.691
80.709	13.125	1307.826	983.790
81.724	13.225	1306.527	983.325
82.739	13.198	1306.239	982.860
83.753	13.294	1304.908	982.337
84.768	13.272	1304.003	981.439
85.782	13.291	1302.784	980.549
86.797	13.403	1301.210	979.943
87.812	13.276	1300.189	978.335
88.826	13.308	1299.299	977.765
89.841	13.355	1298.113	977.064
90.855	13.329	1297.088	976.052
91.870	13.401	1296.156	975.693
92.884	13.321	1295.880	974.926
93.899	13.386	1294.736	974.364
94.914	13.483	1293.761	974.112
95.928	13.371	1293.134	972.898
96.943	13.439	1292.295	972.576
97.957	13.417	1291.116	971.478
98.972	13.401	1290.695	970.976
99.987	13.396	1288.812	969.449
101.001	13.426	1288.153	969.044
102.016	13.451	1287.013	968.244
103.030	13.441	1286.228	967.510
104.045	13.513	1285.620	967.385
105.060	13.374	1284.569	965.702
106.074	13.296	1283.054	964.023
107.089	13.274	1281.757	962.835
108.103	13.184	1281.116	961.739
109.118	13.376	1279.215	961.346
110.133	13.187	1278.547	959.661
111.147	13.285	1276.643	958.716
112.162	13.250	1275.940	957.897
113.176	13.370	1274.229	957.226
114.191	13.355	1273.263	956.326
115.206	13.391	1272.328	955.748
116.220	13.386	1270.984	954.628
117.235	13.242	1270.492	953.343
118.249	13.257	1269.701	952.751
119.264	13.331	1268.153	951.933
120.279	13.286	1267.149	950.831
121.293	13.260	1266.250	949.925
122.308	13.244	1264.935	948.763
123.322	13.180	1264.144	947.716
124.337	13.291	1263.057	947.456
125.352	13.222	1261.985	946.171
126.366	13.249	1260.974	945.486
127.381	13.266	1259.935	944.720
128.395	13.307	1258.651	943.910
129.410	13.279	1257.816	943.036
130.424	13.252	1257.154	942.302
131.439	13.376	1255.748	941.875
132.454	13.276	1255.694	941.183
133.468	13.279	1254.652	940.335
134.483	13.325	1253.877	939.930
135.497	13.338	1252.885	939.177
136.512	13.320	1251.545	937.989
137.527	13.295	1249.865	936.502
138.541	13.334	1248.468	935.594
139.556	13.295	1247.283	934.403
140.570	13.357	1246.212	933.866
141.585	13.465	1244.971	933.464
142.600	13.522	1243.696	932.747
143.614	13.464	1242.986	931.805
144.629	13.425	1242.010	930.774
145.643	13.485	1240.776	930.104
146.658	13.472	1239.463	928.963
147.673	13.431	1237.973	927.537
148.687	13.365	1236.885	926.269
149.702	13.458	1235.316	925.533
150.716	13.367	1233.992	923.949
151.731	13.420	1233.023	923.439
152.746	13.365	1232.245	922.464
153.760	13.382	1230.876	921.454
154.775	13.502	1229.695	921.156
155.789	13.445	1228.638	919.964
156.804	13.501	1227.710	919.504
157.819	13.543	1226.606	918.828
158.833	13.646	1225.135	918.211
159.848	13.641	1224.669	917.753
160.862	13.633	1223.571	916.805
161.877	13.529	1222.383	915.261
162.892	13.534	1221.675	914.676
163.906	13.494	1220.742	913.678
164.921	13.519	1219.839	913.060
165.935	13.716	1218.284	912.898
166.950	13.543	1218.041	911.682
167.964	13.610	1217.361	911.460
168.979	13.658	1216.557	911.043
169.994	13.572	1215.821	909.942
171.008	13.689	1214.657	909.628
172.023	13.689	1214.077	909.116
173.037	13.636	1213.427	908.256
174.052	13.689	1212.394	907.693
175.067	13.661	1211.639	906.894
176.081	13.680	1210.325	905.937
177.096	13.658	1209.331	904.993
178.110	13.725	1208.579	904.715
179.125	13.703	1207.368	903.606
180.140	13.687	1206.126	902.511
181.154	13.722	1205.117	901.867
182.169	13.640	1204.147	900.613
183.183	13.820	1202.938	900.606
184.198	13.870	1201.053	899.388
185.213	13.837	1199.790	898.182
186.227	13.889	1199.176	897.926
187.242	13.898	1198.074	897.068
188.256	13.965	1196.881	896.460
189.271	13.876	1196.256	895.429
190.286	13.805	1195.588	894.472
191.300	13.739	1194.823	893.463
192.315	13.762	1193.861	892.786
193.329	13.746	1193.647	892.463
194.344	13.758	1192.777	891.796
195.359	13.822	1191.742	891.289
196.373	13.874	1191.756	891.498
197.388	13.923	1191.248	891.304
198.402	13.997	1190.178	890.819
199.417	13.988	1189.787	890.402
200.432	14.144	1188.800	890.416
201.446	14.130	1187.940	889.621
202.461	14.057	1187.236	888.623
203.475	14.145	1185.986	888.079
204.490	14.183	1184.814	887.330
205.504	14.151	1183.790	886.313
206.519	14.017	1182.433	884.503
207.534	14.069	1181.723	884.170
208.548	14.049	1180.445	883.031
209.563	14.125	1180.027	883.042
210.577	14.089	1179.014	882.018
211.592	14.235	1177.860	881.847
212.607	14.221	1177.119	881.142
213.621	14.345	1176.214	881.042
214.636	14.214	1175.507	879.740
215.650	14.128	1174.709	878.610
216.665	14.240	1173.684	878.358
217.680	14.380	1172.811	878.368
218.694	14.330	1171.790	877.262
219.709	14.266	1171.223	876.423
220.723	14.287	1170.563	875.961
221.738	14.298	1169.268	874.971
222.753	14.386	1168.675	874.915
223.767	14.463	1168.071	874.787
224.782	14.415	1167.646	874.140
225.796	14.412	1167.084	873.627
226.811	14.471	1165.670	872.801
227.826	14.448	1165.522	872.490
228.840	14.391	1165.213	871.886
229.855	14.464	1164.359	871.552
230.869	14.370	1163.093	870.034
231.884	14.475	1162.506	870.068
232.899	14.392	1161.762	868.997
233.913	14.439	1161.286	868.811
234.928	14.382	1160.587	867.912
235.942	14.457	1159.228	867.213
236.957	14.441	1158.738	866.687
237.972	14.474	1157.685	865.992
238.986	14.484	1157.082	865.516
240.001	14.490	1156.610	865.118
241.015	14.600	1155.642	864.888
242.030	14.503	1154.575	863.511
243.045	14.546	1154.132	863.325
244.059	14.496	1153.506	862.521
245.074	14.541	1152.666	862.050
246.088	14.695	1151.366	861.797
247.103	14.742	1150.517	861.326
248.117	14.751	1149.722	860.700
249.132	14.838	1149.051	860.571
250.147	14.859	1148.456	860.160
251.161	14.837	1147.768	859.451
252.176	14.798	1147.469	858.953
253.190	14.861	1147.060	858.897
254.205	14.945	1146.635	858.931
255.220	14.934	1145.866	858.224
256.234	14.908	1145.302	857.593
257.249	14.890	1144.664	856.946
258.263	14.975	1143.444	856.391
259.278	15.044	1143.278	856.543
260.293	14.902	1142.858	855.425
261.307	14.935	1142.316	855.112
262.322	15.090	1141.166	854.972
263.336	15.119	1140.390	854.459
264.351	15.094	1140.212	854.125
265.366	15.072	1139.597	853.476
266.380	15.235	1138.314	853.270
267.395	15.054	1137.674	851.791
268.409	15.086	1136.946	851.335
269.424	15.081	1136.678	851.032
270.439	15.090	1136.025	850.515
271.453	15.101	1135.214	849.889
272.468	15.140	1133.750	848.915
273.482	14.992	1133.443	847.858
274.497	15.091	1132.976	847.937
275.512	15.084	1132.522	847.488
276.526	15.263	1131.327	847.424
277.541	15.136	1130.600	846.160
278.555	15.150	1130.354	845.973
279.570	15.172	1129.421	845.313
280.585	15.327	1128.306	845.184
281.599	15.287	1126.998	843.930
282.614	15.204	1126.840	843.318
283.628	15.312	1125.379	842.690
284.643	15.212	1124.628	841.555
285.657	15.242	1123.699	840.931
286.672	15.389	1122.424	840.640
287.687	15.307	1121.798	839.686
288.701	15.393	1121.134	839.545
289.716	15.381	1120.359	838.834
290.730	15.270	1119.931	837.882
291.745	15.461	1119.001	838.067
292.760	15.475	1118.369	837.587
293.774	15.474	1117.814	837.096
294.789	15.530	1117.357	836.956
295.803	15.579	1116.608	836.563
296.818	15.501	1115.921	835.588
297.833	15.444	1115.257	834.732
298.847	15.420	1114.574	834.031
299.862	15.504	1113.578	833.628
300.876	15.545	1113.044	833.358
301.891	15.556	1112.392	832.852
302.906	15.691	1111.409	832.708
303.920	15.598	1111.288	832.082
304.935	15.618	1110.089	831.214
305.949	15.644	1109.559	830.869
306.964	15.771	1108.874	830.910
307.979	15.813	1108.052	830.431
308.993	15.799	1107.278	829.705
310.008	15.791	1106.636	829.111
311.022	15.847	1106.161	828.958
312.037	15.823	1104.950	827.859
313.052	15.670	1104.553	826.734
314.066	15.673	1103.129	825.611
315.081	15.659	1102.326	824.868
316.095	15.698	1101.876	824.652
317.110	15.755	1100.945	824.162
318.125	15.806	1099.966	823.605
319.139	15.638	1099.720	822.524
320.154	15.740	1098.777	822.245
321.168	15.777	1098.332	822.020
322.183	15.796	1097.748	821.603
323.197	15.815	1097.175	821.195
324.212	15.751	1096.890	820.595
325.227	15.875	1095.859	820.359
326.241	15.840	1095.314	819.706
327.256	15.820	1094.491	818.921
328.270	15.861	1093.597	818.380
329.285	15.816	1093.027	817.659
330.300	15.864	1091.876	816.960
331.314	15.862	1091.157	816.339
332.329	15.892	1089.820	815.415
333.343	15.964	1089.086	815.141
334.358	15.972	1087.880	814.204
335.373	16.038	1087.641	814.275
336.387	16.028	1086.655	813.416
337.402	16.018	1086.486	813.165
338.416	16.051	1085.583	812.577
339.431	16.157	1084.694	812.350
340.446	16.079	1083.945	811.344
341.460	16.134	1083.662	811.323
342.475	16.190	1082.947	810.988
343.489	16.302	1081.719	810.535
344.504	16.170	1081.280	809.499
345.519	16.223	1080.608	809.181
346.533	16.278	1079.705	808.693
347.548	16.155	1079.042	807.537
348.562	16.336	1077.934	807.501
349.577	16.227	1077.587	806.648
350.592	16.332	1076.651	806.378
351.606	16.285	1075.548	805.258
352.621	16.198	1075.362	804.630
353.635	16.173	1074.652	803.912
354.650	16.213	1073.821	803.407
355.665	16.271	1072.970	802.974
356.679	16.291	1072.739	802.828
357.694	16.386	1071.812	802.513
358.708	16.337	1071.452	801.942
359.723	16.392	1070.918	801.732
360.738	16.430	1069.730	800.950
361.752	16.462	1069.325	800.730
362.767	16.479	1068.612	800.205
363.781	16.473	1068.180	799.783
364.796	16.524	1067.969	799.791
365.810	16.480	1067.445	799.125
366.825	16.584	1066.760	799.031
367.840	16.556	1066.381	798.544
368.854	16.659	1065.233	798.098
369.869	16.661	1064.720	797.654
370.883	16.572	1064.081	796.685
371.898	16.666	1062.922	796.188
372.913	16.643	1062.534	795.719
373.927	16.493	1062.521	794.933
374.942	16.787	1061.086	795.170
375.956	16.717	1061.214	794.869
376.971	16.631	1060.672	793.988
377.986	16.860	1059.678	794.247
379.000	16.838	1059.179	793.697
380.015	16.837	1058.861	793.387
381.029	16.803	1058.283	792.724
382.044	16.795	1057.533	792.057
383.059	16.858	1056.265	791.328
384.073	16.880	1055.962	791.135
385.088	16.836	1055.009	790.144
386.102	16.950	1054.093	789.919
387.117	16.851	1053.132	788.669
388.132	16.965	1052.131	788.381
389.146	16.831	1051.242	787.020
390.161	16.921	1050.717	786.978
391.175	16.836	1050.314	786.210
392.190	16.933	1049.586	786.046
393.205	16.968	1048.622	785.419
394.219	16.896	1047.963	784.522
395.234	16.898	1047.558	784.155
396.248	16.929	1046.378	783.347
397.263	16.947	1045.208	782.486
398.278	16.878	1044.928	781.888
399.292	16.815	1044.136	780.938
400.307	16.897	1043.377	780.676
401.321	16.933	1042.669	780.242
402.336	17.030	1041.810	779.980
403.350	16.978	1041.195	779.209
404.365	16.937	1040.940	778.762
405.380	17.031	1040.051	778.460
406.394	17.153	1038.921	778.102
407.409	17.097	1038.520	777.479
408.423	17.146	1037.503	776.874
409.438	17.088	1037.305	776.388
410.453	17.133	1036.233	775.722
411.467	17.387	1035.466	776.243
412.482	17.250	1034.778	775.031
413.496	17.245	1034.242	774.540
414.511	17.472	1033.154	774.688
415.526	17.471	1033.084	774.564
416.540	17.450	1032.907	774.264
417.555	17.393	1032.569	773.686
418.569	17.418	1031.809	773.162
419.584	17.423	1030.823	772.378
420.599	17.467	1030.783	772.478
421.613	104.784	1322.633	1470.429
422.628	95.944	1365.092	1470.523
