DTS Sentinel unit serial number:	SN413079Multiplexer serial number:	ORYXHardware model number:	OX4-SRSoftware version number:	ORYX F/W v4.00 Oryx Data Collector v3.7.2.0data status	okinstallation	princeton_trtdifferential loss correction	single-endedforward channel	channel 2reverse channel	N/Adate	2019/09/10time	18:37:11forward acquisition time	60.00reverse acquisition time	0.00gamma	496.2192k internal	0.2321k external	0.2321temperature offset calibration	0.9942default loss term (dB/km)	0.3790temperature slope calibration	1.0000multiplexer offset coefficient	1.0000multiplexer slope coefficient	1.0000fibre end	0.00T internal ref (°C)	35.55T ext. ref 1 (°C)	-0.32T ext. ref 2 (°C)	27.60length (m)	temperature (°C)	Stokes	anti-Stokes-747.200	800.000	-0.082	0.249
-746.185	624.330	0.108	-0.276
-745.171	-200.000	0.009	-0.098
-744.156	800.000	0.051	0.215
-743.142	40.067	0.253	-0.230
-742.127	-87.802	-0.086	0.026
-741.112	-183.970	0.196	0.003
-740.098	-22.096	0.205	0.126
-739.083	241.577	0.125	0.212
-738.069	69.193	0.032	0.033
-737.054	800.000	-0.027	-0.087
-736.039	101.373	-0.107	-0.126
-735.025	-7.273	0.198	-0.136
-734.010	-58.269	0.107	-0.047
-732.996	-200.000	-0.034	-0.418
-731.981	-3.575	-0.109	0.077
-730.966	-200.000	-0.009	-0.101
-729.952	-31.137	-0.043	-0.025
-728.937	-200.000	-0.080	-0.544
-727.923	381.896	-0.076	-0.157
-726.908	-144.125	0.154	0.015
-725.894	800.000	0.035	0.118
-724.879	21.814	-0.228	-0.188
-723.864	-200.000	0.057	-0.327
-722.850	-200.000	-0.022	0.111
-721.835	-108.138	-0.210	0.046
-720.821	354.882	0.123	0.247
-719.806	-200.000	0.012	0.182
-718.791	-200.000	0.001	-0.065
-717.777	800.000	0.073	-0.232
-716.762	-122.707	-0.234	-0.038
-715.748	4.901	-0.240	-0.179
-714.733	21.066	-0.091	0.074
-713.718	251.169	0.084	0.144
-712.704	183.711	0.094	0.141
-711.689	-60.687	0.090	0.039
-710.675	307.446	0.096	-0.180
-709.660	-200.000	0.003	0.437
-708.645	-200.000	0.001	0.019
-707.631	-156.608	0.017	-0.001
-706.616	800.000	0.065	0.183
-705.602	209.039	0.035	-0.056
-704.587	237.897	-0.108	0.181
-703.572	-12.273	0.140	0.093
-702.558	-200.000	-0.041	-0.214
-701.543	-11.925	-0.046	0.031
-700.529	800.000	-0.016	-0.071
-699.514	-91.893	-0.373	0.107
-698.499	-180.224	0.018	-0.000
-697.485	-200.000	-0.010	-0.054
-696.470	-134.333	0.290	0.036
-695.456	20.460	0.095	-0.077
-694.441	800.000	-0.059	0.177
-693.426	800.000	-0.101	0.324
-692.412	800.000	-0.128	0.475
-691.397	27.725	-0.357	-0.303
-690.383	-107.692	-0.314	-0.069
-689.368	-200.000	0.044	0.245
-688.354	-200.000	-0.065	0.547
-687.339	-200.000	0.018	-0.250
-686.324	-122.203	-0.299	-0.049
-685.310	800.000	0.066	0.279
-684.295	171.451	0.132	0.191
-683.281	-29.800	-0.222	-0.128
-682.266	-200.000	0.019	0.136
-681.251	-136.258	-0.233	0.027
-680.237	-124.686	0.062	0.010
-679.222	224.574	-0.051	0.083
-678.208	-200.000	0.035	-0.156
-677.193	61.053	0.094	0.094
-676.178	-96.627	0.205	-0.054
-675.164	-76.532	-0.300	-0.106
-674.149	-68.637	0.216	-0.084
-673.135	168.138	0.115	0.165
-672.120	-35.238	0.052	0.028
-671.105	10.662	-0.115	-0.088
-670.091	-47.105	0.300	-0.147
-669.076	30.350	-0.083	-0.071
-668.062	-132.952	-0.178	0.023
-667.047	-79.310	-0.071	-0.024
-666.032	69.561	-0.085	-0.088
-665.018	-126.917	-0.215	-0.032
-664.003	183.611	0.192	-0.287
-662.989	800.000	0.048	-0.162
-661.974	-116.561	-0.148	0.027
-660.959	-200.000	0.043	-0.325
-659.945	179.832	-0.139	-0.205
-658.930	800.000	0.048	-0.204
-657.916	261.587	0.067	0.117
-656.901	-173.717	0.178	-0.005
-655.886	-7.163	-0.199	-0.136
-654.872	-35.573	-0.112	-0.061
-653.857	317.587	-0.099	-0.189
-652.843	-200.000	-0.000	-0.137
-651.828	595.996	0.162	0.404
-650.814	-53.562	-0.364	-0.167
-649.799	-63.248	0.217	0.090
-648.784	-137.521	-0.214	-0.024
-647.770	27.993	-0.133	0.113
-646.755	-61.896	-0.107	0.045
-645.741	58.646	0.034	0.033
-644.726	4.863	-0.062	0.046
-643.711	-115.956	-0.354	-0.067
-642.697	-200.000	-0.012	0.238
-641.682	529.115	-0.044	0.104
-640.668	-86.651	-0.133	-0.041
-639.653	800.000	0.123	-0.460
-638.638	-169.906	0.193	-0.007
-637.624	800.000	-0.054	0.166
-636.609	77.640	-0.264	0.283
-635.595	-3.889	-0.185	0.129
-634.580	-96.541	-0.254	0.067
-633.565	324.565	-0.175	0.336
-632.551	212.235	-0.243	-0.385
-631.536	-78.455	0.207	-0.071
-630.522	-159.984	-0.256	-0.014
-629.507	85.948	-0.214	-0.237
-628.492	-64.666	0.219	-0.089
-627.478	-200.000	-0.060	-0.274
-626.463	86.490	-0.198	0.219
-625.449	800.000	-0.064	-0.274
-624.434	163.038	0.175	0.247
-623.419	-2.473	-0.114	-0.080
-622.405	0.905	0.246	0.178
-621.390	-51.864	-0.385	-0.180
-620.376	160.695	-0.136	0.190
-619.361	49.428	0.187	0.177
-618.346	800.000	0.023	-0.067
-617.332	-104.865	-0.102	0.023
-616.317	80.299	-0.104	0.112
-615.303	94.717	0.128	-0.146
-614.288	-9.199	-0.253	-0.170
-613.273	-56.324	-0.269	0.120
-612.259	206.569	-0.088	-0.139
-611.244	601.507	0.111	-0.276
-610.230	800.000	0.036	0.151
-609.215	-69.909	-0.308	0.118
-608.201	-40.665	-0.131	-0.069
-607.186	471.517	0.122	-0.277
-606.171	-83.011	-0.403	0.131
-605.157	-21.949	0.230	-0.141
-604.142	-134.115	-0.177	0.022
-603.128	102.240	-0.314	-0.369
-602.113	126.412	0.123	-0.156
-601.098	-164.905	0.173	0.008
-600.084	-3.565	-0.218	-0.152
-599.069	353.000	-0.129	0.256
-598.055	564.576	0.090	0.220
-597.040	-106.399	0.091	-0.021
-596.025	800.000	0.046	0.182
-595.011	800.000	-0.073	0.253
-593.996	129.326	-0.111	0.142
-592.982	22.767	0.025	0.020
-591.967	-149.081	0.234	0.019
-590.952	-107.999	-0.219	-0.048
-589.938	565.570	0.048	-0.116
-588.923	-41.336	-0.214	0.111
-587.909	-96.899	0.490	-0.129
-586.894	-22.211	0.246	-0.150
-585.879	-130.184	0.427	0.058
-584.865	-200.000	0.064	0.343
-583.850	295.587	-0.124	-0.229
-582.836	-57.359	-0.234	-0.103
-581.821	-58.450	0.168	-0.073
-580.806	-12.673	0.078	0.051
-579.792	-200.000	-0.039	-0.273
-578.777	-32.099	-0.281	-0.158
-577.763	-200.000	-0.049	-0.264
-576.748	-23.040	0.385	0.233
-575.733	253.734	-0.070	-0.120
-574.719	129.001	0.100	0.127
-573.704	-134.909	-0.155	-0.019
-572.690	-139.020	0.264	-0.029
-571.675	-46.675	-0.139	0.068
-570.661	-7.386	0.209	-0.142
-569.646	-49.604	0.086	-0.041
-568.631	-46.794	0.060	0.029
-567.617	-145.596	-0.203	0.018
-566.602	336.876	-0.140	0.274
-565.588	-200.000	0.060	0.389
-564.573	3.174	0.166	-0.121
-563.558	800.000	-0.024	0.070
-562.544	-161.063	0.284	-0.015
-561.529	-200.000	0.005	-0.112
-560.515	-169.876	-0.357	-0.013
-559.500	-102.533	0.248	0.059
-558.485	-200.000	0.017	-0.144
-557.471	-28.382	0.317	-0.183
-556.456	19.541	0.274	0.221
-555.442	290.968	-0.142	0.260
-554.427	65.026	-0.226	0.229
-553.412	6.240	-0.212	-0.158
-552.398	44.344	-0.384	0.353
-551.383	-200.000	-0.013	0.114
-550.369	703.613	-0.140	0.370
-549.354	-41.549	-0.120	0.062
-548.339	800.000	0.164	0.454
-547.325	800.000	-0.110	-0.310
-546.310	337.720	0.049	0.096
-545.296	138.025	0.106	0.139
-544.281	800.000	0.044	-0.161
-543.266	-43.797	0.338	0.171
-542.252	142.127	-0.150	0.200
-541.237	121.514	0.079	0.098
-540.223	-164.170	0.277	0.013
-539.208	-65.169	-0.043	-0.017
-538.193	-200.000	-0.063	0.335
-537.179	-200.000	-0.001	0.062
-536.164	-200.000	-0.045	-0.281
-535.150	96.884	-0.043	-0.050
-534.135	31.098	-0.055	-0.048
-533.121	350.482	-0.131	-0.259
-532.106	90.301	-0.273	-0.306
-531.091	-102.397	-0.380	-0.091
-530.077	-200.000	-0.037	-0.285
-529.062	35.251	-0.289	0.254
-528.048	25.380	0.056	-0.047
-527.033	-200.000	-0.013	0.204
-526.018	-68.867	-0.102	0.039
-525.004	73.844	-0.502	-0.527
-523.989	74.603	0.079	-0.083
-522.975	-200.000	-0.000	0.209
-521.960	-200.000	0.023	-0.149
-520.945	-89.982	0.155	-0.045
-519.931	-90.616	0.239	0.069
-518.916	-200.000	0.064	0.446
-517.902	4.528	-0.088	0.064
-516.887	-87.627	-0.108	-0.033
-515.872	-5.388	0.241	-0.166
-514.858	800.000	-0.067	-0.200
-513.843	320.523	-0.074	0.141
-512.829	-200.000	-0.011	-0.350
-511.814	-200.000	-0.006	-0.222
-510.799	685.553	0.008	-0.022
-509.785	-11.457	0.021	-0.014
-508.770	449.847	0.025	-0.055
-507.756	-167.202	-0.155	0.006
-506.741	-113.217	0.307	-0.061
-505.726	-64.450	0.270	-0.110
-504.712	800.000	0.067	-0.289
-503.697	128.358	0.128	-0.163
-502.683	-98.838	-0.369	0.094
-501.668	-190.306	-0.237	-0.003
-500.653	-167.966	-0.480	-0.019
-499.639	133.824	0.140	0.181
-498.624	-109.584	0.121	-0.026
-497.610	-73.844	-0.212	0.077
-496.595	70.900	-0.224	0.233
-495.581	6.602	-0.162	0.121
-494.566	-200.000	-0.062	-0.381
-493.551	558.861	-0.023	0.056
-492.537	658.633	0.118	0.305
-491.522	-200.000	-0.026	-0.120
-490.508	-35.823	-0.088	0.048
-489.493	-80.697	0.239	0.080
-488.478	800.000	-0.057	0.171
-487.464	39.502	0.160	-0.143
-486.449	-200.000	0.045	0.273
-485.435	-88.635	0.244	-0.073
-484.420	-200.000	0.040	-0.182
-483.405	-200.000	0.009	-0.189
-482.391	-13.020	0.155	-0.101
-481.376	-36.894	-0.166	0.089
-480.362	-12.402	0.174	-0.114
-479.347	-187.932	0.155	-0.002
-478.332	800.000	-0.044	0.142
-477.318	31.606	0.084	-0.072
-476.303	-41.034	0.250	-0.129
-475.289	341.195	0.060	0.116
-474.274	488.045	0.162	-0.370
-473.259	90.955	0.080	-0.090
-472.245	-97.565	0.373	0.097
-471.230	800.000	-0.036	-0.107
-470.216	-61.079	-0.112	0.047
-469.201	-151.637	-0.148	0.011
-468.186	-12.908	-0.178	-0.116
-467.172	552.524	0.101	0.243
-466.157	485.104	-0.130	-0.297
-465.143	800.000	-0.037	-0.109
-464.128	101.759	-0.169	0.196
-463.113	-200.000	-0.028	-0.197
-462.099	-115.041	0.380	-0.072
-461.084	-19.800	-0.196	-0.121
-460.070	-58.536	0.106	-0.046
-459.055	643.417	0.029	-0.075
-458.040	725.188	0.126	-0.335
-457.026	51.819	0.159	-0.151
-456.011	676.153	0.045	-0.118
-454.997	-34.535	-0.102	0.056
-453.982	-200.000	-0.099	-0.000
-452.968	-110.245	-0.295	0.061
-451.953	800.000	0.039	0.153
-450.938	104.972	0.201	0.237
-449.924	-145.451	-0.173	0.016
-448.909	417.505	0.079	0.169
-447.895	18.128	0.173	-0.138
-446.880	-10.096	0.087	-0.058
-445.865	800.000	0.038	-0.137
-444.851	-59.814	-0.085	0.036
-443.836	645.815	0.176	0.448
-442.822	800.000	0.080	0.340
-441.807	-160.708	0.073	0.004
-440.792	-200.000	-0.022	0.229
-439.778	-200.000	0.003	-0.145
-438.763	-200.000	0.011	0.134
-437.749	-137.953	0.311	-0.035
-436.734	98.770	-0.209	0.240
-435.719	73.595	-0.025	0.026
-434.705	481.274	-0.107	0.243
-433.690	-200.000	-0.040	-0.213
-432.676	177.209	-0.139	0.203
-431.661	-37.873	0.128	-0.068
-430.646	508.909	-0.069	-0.160
-429.632	-36.042	0.259	-0.140
-428.617	-65.232	-0.216	-0.087
-427.603	69.535	-0.051	0.052
-426.588	29.479	0.143	0.121
-425.573	94.480	0.200	0.226
-424.559	-56.968	0.151	0.067
-423.544	6.211	0.121	0.089
-422.530	-102.648	0.124	-0.030
-421.515	82.292	0.112	0.121
-420.500	78.481	-0.023	0.025
-419.486	107.433	0.070	0.083
-418.471	-84.422	-0.356	-0.112
-417.457	-130.112	0.215	-0.029
-416.442	215.881	0.104	0.165
-415.428	-200.000	-0.027	0.273
-414.413	-187.148	-0.222	0.003
-413.398	-200.000	-0.060	0.316
-412.384	-155.617	0.290	0.019
-411.369	83.388	0.120	-0.131
-410.355	-142.374	-0.139	0.014
-409.340	-200.000	-0.030	0.150
-408.325	18.641	-0.063	-0.050
-407.311	16.819	-0.354	0.279
-406.296	-109.497	0.186	0.039
-405.282	13.132	0.021	0.016
-404.267	-200.000	0.027	0.348
-403.252	-200.000	-0.039	0.222
-402.238	-200.000	-0.043	0.326
-401.223	-5.769	0.060	-0.041
-400.209	202.366	-0.149	-0.229
-399.194	-200.000	-0.043	-0.240
-398.179	-200.000	-0.009	0.043
-397.165	-38.205	0.362	-0.191
-396.150	300.097	0.048	-0.088
-395.136	-69.991	0.290	-0.110
-394.121	-200.000	-0.008	-0.188
-393.106	-21.876	0.067	-0.041
-392.092	-200.000	0.039	-0.263
-391.077	-200.000	0.007	0.222
-390.063	86.817	0.122	0.134
-389.048	-200.000	-0.085	0.410
-388.033	-200.000	-0.012	0.194
-387.019	800.000	-0.021	0.086
-386.004	324.402	-0.118	0.224
-384.990	556.848	-0.088	-0.210
-383.975	198.888	-0.116	0.177
-382.960	19.892	-0.172	0.138
-381.946	415.620	0.032	-0.067
-380.931	-178.864	-0.308	-0.007
-379.917	-103.378	-0.223	0.052
-378.902	-148.172	0.162	-0.013
-377.888	-200.000	-0.006	0.188
-376.873	-104.708	0.383	0.088
-375.858	-160.570	0.124	-0.007
-374.844	-66.436	-0.188	0.074
-373.829	-102.779	0.213	-0.051
-372.815	135.183	-0.272	-0.353
-371.800	43.830	-0.082	0.075
-370.785	-113.188	0.596	0.117
-369.771	-200.000	-0.024	0.196
-368.756	-44.210	-0.221	0.110
-367.742	-110.518	-0.167	0.034
-366.727	-200.000	0.012	-0.274
-365.712	138.537	0.114	-0.149
-364.698	-129.948	-0.143	-0.020
-363.683	-184.168	0.031	0.001
-362.669	392.514	0.017	0.034
-361.654	195.937	0.296	0.448
-360.639	800.000	-0.055	-0.177
-359.625	105.719	0.087	-0.102
-358.610	19.502	-0.292	-0.234
-357.596	800.000	0.069	0.280
-356.581	-168.132	-0.199	0.008
-355.566	44.384	0.249	0.228
-354.552	-200.000	-0.071	-0.357
-353.537	-200.000	0.042	-0.378
-352.523	-76.559	-0.269	0.094
-351.508	-118.829	0.185	0.032
-350.493	-19.881	-0.078	-0.048
-349.479	-114.930	-0.275	0.052
-348.464	564.741	-0.106	0.256
-347.450	-74.729	-0.376	-0.134
-346.435	-17.659	0.221	0.138
-345.420	800.000	0.037	0.106
-344.406	275.105	-0.145	-0.255
-343.391	-118.474	0.200	0.035
-342.377	800.000	-0.067	-0.209
-341.362	-143.585	0.118	0.011
-340.348	-120.244	-0.209	0.035
-339.333	154.775	-0.058	0.079
-338.318	-43.398	0.250	-0.126
-337.304	38.983	-0.192	0.171
-336.289	17.339	0.102	-0.081
-335.275	200.144	0.019	0.029
-334.260	-110.209	-0.136	0.028
-333.245	268.756	-0.217	-0.379
-332.231	64.706	-0.072	-0.072
-331.216	275.811	0.002	0.004
-330.202	-29.455	0.229	0.130
-329.187	-200.000	-0.031	-0.157
-328.172	-200.000	0.086	-0.456
-327.158	-102.084	-0.198	-0.047
-326.143	-112.778	0.168	-0.033
-325.129	800.000	0.096	0.265
-324.114	31.067	0.099	0.085
-323.099	172.577	0.173	-0.247
-322.085	-26.346	-0.082	-0.048
-321.070	-13.927	0.141	0.091
-320.056	-200.000	-0.011	-0.319
-319.041	-103.704	-0.098	0.023
-318.026	-200.000	0.036	0.226
-317.012	-197.631	-0.108	0.001
-315.997	-156.173	-0.260	-0.016
-314.983	113.593	-0.288	-0.347
-313.968	283.732	0.086	-0.153
-312.953	266.561	-0.102	0.176
-311.939	-75.622	-0.042	0.015
-310.924	97.011	0.112	-0.128
-309.910	-95.601	0.245	0.065
-308.895	-148.803	0.397	-0.032
-307.880	-136.985	0.431	0.049
-306.866	-200.000	-0.059	-0.298
-305.851	113.494	0.040	-0.048
-304.837	407.493	-0.078	0.163
-303.822	-127.753	-0.179	0.026
-302.807	111.980	0.202	0.242
-301.793	-92.517	0.185	-0.052
-300.778	142.663	0.121	0.160
-299.764	-113.151	-0.081	-0.016
-298.749	471.002	0.105	0.234
-297.735	-200.000	-0.048	0.217
-296.720	-138.531	0.163	-0.018
-295.705	-61.910	0.297	0.123
-294.691	392.228	0.145	-0.299
-293.676	-196.380	-0.372	0.003
-292.662	225.497	0.116	-0.186
-291.647	-17.370	-0.176	0.110
-290.632	425.890	0.093	-0.200
-289.618	99.216	-0.185	-0.213
-288.603	-18.817	0.100	-0.062
-287.589	36.695	-0.249	0.218
-286.574	800.000	-0.090	-0.276
-285.559	-200.000	0.077	0.486
-284.545	619.676	-0.033	0.083
-283.530	-23.348	0.381	-0.227
-282.516	296.693	0.168	0.306
-281.501	-27.384	0.154	0.089
-280.486	44.452	-0.296	-0.270
-279.472	15.067	0.144	-0.112
-278.457	538.287	-0.037	-0.088
-277.443	800.000	0.068	0.247
-276.428	6.193	-0.065	-0.048
-275.413	-27.097	0.357	-0.207
-274.399	33.570	-0.127	0.109
-273.384	-200.000	0.075	0.340
-272.370	227.637	-0.049	0.079
-271.355	402.763	-0.227	0.474
-270.340	133.352	-0.081	-0.104
-269.326	169.475	0.102	0.145
-268.311	-79.834	-0.085	-0.028
-267.297	390.531	-0.126	-0.259
-266.282	21.328	0.279	0.225
-265.267	77.058	0.164	0.173
-264.253	-122.442	-0.484	0.078
-263.238	-43.159	-0.170	-0.085
-262.224	800.000	-0.100	-0.404
-261.209	257.784	0.051	-0.086
-260.195	522.830	-0.052	0.121
-259.180	202.862	0.042	0.065
-258.165	-135.270	0.222	-0.026
-257.151	287.235	-0.201	-0.359
-256.136	-103.562	-0.061	0.014
-255.122	800.000	0.036	0.146
-254.107	600.502	0.071	-0.176
-253.092	51.695	-0.277	0.261
-252.078	-200.000	-0.007	0.214
-251.063	69.542	0.060	0.061
-250.049	-89.147	-0.142	-0.042
-249.034	-200.000	0.087	0.406
-248.019	18.639	0.093	-0.074
-247.005	160.446	-0.109	0.151
-245.990	-109.986	-0.181	-0.038
-244.976	-51.837	0.099	-0.046
-243.961	-71.404	-0.418	-0.155
-242.946	-92.290	0.291	0.081
-241.932	-200.000	-0.004	0.242
-240.917	800.000	-0.087	-0.330
-239.903	-134.591	-0.295	0.036
-238.888	-200.000	0.004	-0.046
-237.873	800.000	-0.063	-0.172
-236.859	-144.820	-0.057	0.005
-235.844	-49.921	0.312	-0.147
-234.830	87.138	-0.051	-0.056
-233.815	-200.000	0.011	0.110
-232.800	-130.962	0.091	-0.012
-231.786	418.211	0.156	0.330
-230.771	228.450	-0.078	0.126
-229.757	-200.000	0.002	-0.219
-228.742	-55.944	-0.055	0.024
-227.727	-121.814	0.174	0.028
-226.713	800.000	-0.112	-0.343
-225.698	-200.000	-0.007	-0.064
-224.684	800.000	-0.027	-0.106
-223.669	-143.355	0.223	-0.021
-222.655	-140.855	-0.483	0.049
-221.640	800.000	0.084	0.236
-220.625	-164.267	0.209	0.009
-219.611	77.407	-0.124	-0.130
-218.596	305.797	0.068	0.126
-217.582	-105.395	0.185	0.042
-216.567	-200.000	0.048	-0.263
-215.552	16.677	0.283	0.221
-214.538	400.219	0.060	-0.125
-213.523	38.732	0.152	-0.134
-212.509	-149.674	-0.266	-0.021
-211.494	320.956	-0.079	-0.149
-210.479	-89.131	-0.082	-0.024
-209.465	-49.185	0.187	-0.088
-208.450	111.999	0.149	-0.178
-207.436	-80.878	-0.096	0.032
-206.421	-35.108	0.244	0.132
-205.406	82.138	0.150	-0.161
-204.392	-36.387	0.258	-0.137
-203.377	-200.000	-0.010	0.057
-202.363	-85.138	0.364	-0.113
-201.348	-200.000	0.019	-0.285
-200.333	-114.446	0.243	0.046
-199.319	2.751	0.240	-0.172
-198.304	-20.955	0.219	-0.132
-197.290	-78.761	0.102	-0.034
-196.275	181.846	0.114	-0.166
-195.260	101.538	-0.103	-0.119
-194.246	18.720	-0.167	-0.132
-193.231	382.905	0.058	0.119
-192.217	81.691	0.205	0.220
-191.202	-136.559	0.246	0.028
-190.187	-200.000	0.039	0.188
-189.173	84.792	0.202	-0.219
-188.158	-40.685	-0.110	0.056
-187.144	-95.085	-0.240	-0.064
-186.129	248.843	-0.123	0.207
-185.114	-200.000	0.021	-0.225
-184.100	-99.933	-0.211	0.052
-183.085	42.715	-0.248	-0.223
-182.071	-200.000	-0.048	-0.277
-181.056	-200.000	-0.004	0.351
-180.042	-102.756	0.071	-0.017
-179.027	-43.519	0.170	0.085
-178.012	549.006	0.095	0.225
-176.998	-66.015	0.284	-0.112
-175.983	437.792	0.029	-0.063
-174.969	-125.271	0.072	0.011
-173.954	3.006	-0.441	-0.317
-172.939	-60.407	-0.041	0.017
-171.925	297.817	-0.114	0.207
-170.910	95.536	-0.071	-0.080
-169.896	13.809	0.199	-0.153
-168.881	800.000	-0.145	-0.419
-167.866	-180.412	-0.188	0.004
-166.852	159.046	0.113	-0.155
-165.837	87.602	-0.187	0.205
-164.823	-168.403	0.072	0.003
-163.808	-8.424	0.107	-0.071
-162.793	-200.000	0.005	0.117
-161.779	-81.317	0.266	0.087
-160.764	-200.000	0.025	-0.108
-159.750	120.439	0.134	0.165
-158.735	-89.365	0.074	0.022
-157.720	83.229	0.154	0.166
-156.706	800.000	0.009	0.025
-155.691	-16.219	-0.128	0.080
-154.677	-35.555	-0.135	0.073
-153.662	-200.000	0.018	-0.152
-152.647	76.389	-0.239	-0.250
-151.633	-49.880	-0.326	-0.153
-150.618	800.000	0.065	-0.184
-149.604	800.000	-0.070	-0.295
-148.589	-200.000	0.005	0.339
-147.574	-78.934	-0.135	0.045
-146.560	-139.609	0.189	0.020
-145.545	-184.895	-0.095	0.001
-144.531	-78.604	0.067	-0.023
-143.516	80.568	-0.188	0.200
-142.502	97.650	0.177	0.201
-141.487	785.704	-0.093	0.251
-140.472	-200.000	-0.030	-0.161
-139.458	152.562	0.052	0.070
-138.443	113.042	-0.086	0.103
-137.429	-61.730	0.511	0.211
-136.414	70.265	-0.217	-0.221
-135.399	144.856	0.245	-0.324
-134.385	447.257	0.066	0.144
-133.370	733.080	0.098	0.259
-132.356	800.000	0.056	0.207
-131.341	-44.268	0.243	0.120
-130.326	-103.983	-0.318	-0.073
-129.312	-47.975	-0.386	-0.184
-128.297	79.510	0.358	0.379
-127.283	134.414	0.217	-0.277
-126.268	-131.818	0.169	0.022
-125.253	-119.473	0.096	0.016
-124.239	193.824	0.125	-0.187
-123.224	-88.703	-0.073	0.022
-122.210	-200.000	-0.026	0.317
-121.195	425.452	-0.136	0.290
-120.180	208.390	0.158	0.244
-119.166	591.893	0.104	-0.253
-118.151	-153.374	0.181	-0.012
-117.137	-59.732	0.355	0.150
-116.122	115.182	0.007	-0.008
-115.107	-200.000	0.041	0.437
-114.093	-113.268	-0.141	0.027
-113.078	130.758	-0.124	0.156
-112.064	-129.497	0.155	0.021
-111.049	675.388	-0.062	-0.160
-110.034	409.378	0.053	-0.111
-109.020	-200.000	-0.045	-0.563
-108.005	88.431	-0.240	-0.262
-106.991	218.852	0.186	0.293
-105.976	-18.632	0.135	-0.083
-104.962	118.417	-0.123	0.150
-103.947	87.934	0.260	0.284
-102.932	-200.000	0.025	0.423
-101.918	-99.948	-0.254	-0.063
-100.903	6.959	0.183	0.134
-99.889	800.000	-0.061	0.225
-98.874	15.808	0.135	0.105
-97.859	-18.318	0.449	-0.277
-96.845	-69.687	0.255	0.096
-95.830	-116.935	-0.208	0.037
-94.816	56.034	-0.127	0.121
-93.801	225.754	-0.074	0.118
-92.786	-200.000	-0.019	-0.111
-91.772	-125.475	0.240	-0.036
-90.757	161.949	-0.115	0.159
-89.743	174.765	-0.117	0.167
-88.728	155.832	0.130	0.176
-87.713	-37.670	0.258	0.135
-86.699	-85.432	-0.136	-0.042
-85.684	-200.000	-0.013	-0.222
-84.670	-104.046	0.171	-0.039
-83.655	-200.000	-0.007	-0.042
-82.640	5.765	-0.059	0.043
-81.626	-96.010	-0.214	0.056
-80.611	161.785	0.155	0.214
-79.597	24.914	0.207	0.169
-78.582	-200.000	0.038	-0.396
-77.567	800.000	0.098	-0.337
-76.553	89.350	-0.046	-0.051
-75.538	179.507	0.155	0.223
-74.524	-200.000	-0.036	0.169
-73.509	-45.250	-0.081	0.040
-72.494	17.788	-0.342	-0.268
-71.480	-124.599	-0.290	-0.044
-70.465	-200.000	0.004	-0.125
-69.451	-121.396	0.176	0.029
-68.436	10.863	0.169	0.127
-67.422	13.171	-0.081	0.062
-66.407	-40.119	0.217	0.111
-65.392	96.319	-0.107	-0.120
-64.378	81.463	-0.099	0.105
-63.363	-33.603	0.070	0.038
-62.349	-138.289	-0.463	-0.050
-61.334	-62.500	-1.007	-0.412
-60.319	-18.602	0.698	0.428
-59.305	167.973	-0.498	-0.696
-58.290	800.000	0.348	0.944
-57.276	419.351	0.810	1.707
-56.261	-200.000	96.863	545.959
-55.246	592.798	1389.882	3378.047
-54.232	184.228	2634.139	3837.071
-53.217	113.969	2323.448	2779.474
-52.203	45.108	1935.217	1754.254
-51.188	38.859	1720.706	1511.784
-50.173	35.975	1675.042	1449.928
-49.159	52.588	1724.464	1619.994
-48.144	55.867	1741.335	1660.802
-47.130	38.507	1697.166	1488.188
-46.115	35.695	1681.718	1453.362
-45.100	35.430	1677.252	1447.447
-44.086	35.427	1674.109	1444.654
-43.071	35.324	1671.843	1441.869
-42.057	35.249	1669.747	1439.439
-41.042	35.254	1668.060	1437.966
-40.027	35.472	1665.415	1437.261
-39.013	35.436	1663.726	1435.477
-37.998	35.299	1662.466	1433.304
-36.984	35.343	1661.274	1432.553
-35.969	35.575	1659.049	1432.309
-34.954	35.665	1657.419	1431.517
-33.940	35.597	1655.583	1429.366
-32.925	35.585	1654.422	1428.219
-31.911	35.613	1652.378	1426.605
-30.896	35.478	1650.926	1424.289
-29.881	35.493	1649.207	1422.861
-28.867	35.546	1647.811	1421.993
-27.852	35.542	1645.893	1420.250
-26.838	35.514	1644.512	1418.802
-25.823	35.600	1642.263	1417.434
-24.809	35.525	1641.761	1416.398
-23.794	35.506	1640.745	1415.320
-22.779	35.614	1638.561	1414.175
-21.765	35.565	1636.889	1412.317
-20.750	35.571	1635.316	1410.949
-19.736	35.615	1633.556	1409.697
-18.721	35.558	1632.145	1408.005
-17.706	35.582	1630.581	1406.775
-16.692	35.611	1628.883	1405.468
-15.677	35.509	1628.186	1404.061
-14.663	35.653	1625.998	1403.172
-13.648	35.663	1624.867	1402.210
-12.633	35.542	1624.074	1400.588
-11.619	35.543	1622.181	1398.909
-10.604	35.672	1620.022	1397.931
-9.590	35.598	1619.412	1396.810
-8.575	35.576	1618.022	1395.397
-7.560	35.523	1617.015	1394.090
-6.546	35.599	1615.720	1393.471
-5.531	35.530	1614.793	1392.116
-4.517	35.575	1613.088	1390.914
-3.502	35.584	1612.115	1390.084
-2.487	35.647	1610.417	1389.021
-1.473	35.175	1598.584	1375.373
-0.458	31.790	1577.526	1333.166
0.556	24.977	1575.954	1292.653
1.571	22.197	1599.182	1291.200
2.586	21.600	1612.868	1297.712
3.600	19.443	1561.411	1240.700
4.615	10.654	1448.608	1092.079
5.629	1.668	1378.746	981.564
6.644	-0.194	1369.936	963.269
7.659	-0.344	1368.085	960.920
8.673	-0.382	1366.678	959.604
9.688	-0.360	1365.373	958.745
10.702	-0.603	1362.179	954.867
11.717	2.628	1368.971	980.230
12.731	11.863	1386.511	1052.296
13.746	17.986	1396.317	1099.170
14.761	18.346	1395.891	1101.047
15.775	18.323	1395.245	1100.293
16.790	18.360	1394.745	1100.041
17.804	18.460	1393.941	1099.952
18.819	18.618	1394.033	1100.942
19.834	18.682	1392.812	1100.287
20.848	18.662	1392.061	1099.469
21.863	18.800	1390.924	1099.358
22.877	18.599	1390.707	1097.803
23.892	18.621	1390.045	1097.324
24.907	18.679	1388.949	1096.734
25.921	18.688	1387.721	1095.720
26.936	18.737	1386.493	1094.973
27.950	18.729	1385.758	1094.242
28.965	18.759	1384.530	1093.366
29.980	18.605	1383.193	1091.235
30.994	18.540	1382.410	1090.105
32.009	18.719	1380.501	1089.643
33.023	18.674	1379.542	1088.499
34.038	18.702	1377.961	1087.335
35.053	18.659	1377.245	1086.404
36.067	18.684	1376.341	1085.751
37.082	18.609	1375.505	1084.522
38.096	18.615	1374.224	1083.450
39.111	18.696	1373.195	1083.059
40.126	18.659	1372.376	1082.084
41.140	18.615	1372.060	1081.459
42.155	18.604	1371.661	1080.978
43.169	18.591	1371.769	1080.890
44.184	18.601	1371.449	1080.606
45.199	18.655	1370.584	1080.164
46.213	18.652	1370.320	1079.843
47.228	18.664	1369.080	1078.847
48.242	18.613	1368.443	1077.927
49.257	18.631	1366.358	1076.304
50.271	18.701	1365.294	1075.810
51.286	18.603	1363.418	1073.623
52.301	18.705	1362.438	1073.394
53.315	18.620	1361.602	1072.110
54.330	18.722	1360.469	1071.758
55.344	18.806	1359.028	1071.050
56.359	18.596	1358.257	1069.041
57.374	18.662	1357.480	1068.745
58.388	18.590	1357.139	1067.937
59.403	18.571	1356.762	1067.422
60.417	18.672	1355.735	1067.149
61.432	18.734	1354.813	1066.713
62.447	18.694	1353.989	1065.722
63.461	18.586	1353.043	1064.213
64.476	18.609	1351.895	1063.363
65.490	18.627	1350.122	1061.985
66.505	18.627	1348.864	1060.903
67.520	18.585	1348.148	1059.983
68.534	18.714	1346.723	1059.566
69.549	18.660	1345.630	1058.278
70.563	18.659	1344.442	1057.246
71.578	18.721	1343.654	1056.915
72.593	18.647	1342.970	1055.828
73.607	18.771	1342.007	1055.736
74.622	18.664	1341.431	1054.531
75.636	18.687	1340.264	1053.662
76.651	18.612	1339.732	1052.690
77.666	18.612	1339.434	1052.367
78.680	18.724	1338.360	1052.115
79.695	18.651	1337.647	1051.015
80.709	18.582	1336.904	1049.917
81.724	18.670	1336.213	1049.817
82.739	18.702	1334.645	1048.686
83.753	18.686	1333.334	1047.469
84.768	18.603	1332.587	1046.281
85.782	18.722	1330.919	1045.605
86.797	18.737	1329.924	1044.823
87.812	18.721	1329.148	1044.024
88.826	18.618	1328.314	1042.651
89.841	18.731	1326.907	1042.138
90.855	18.749	1325.756	1041.249
91.870	18.696	1324.861	1040.135
92.884	18.717	1323.999	1039.494
93.899	18.742	1323.434	1039.112
94.914	18.685	1322.403	1037.866
95.928	18.734	1321.448	1037.316
96.943	18.747	1320.213	1036.334
97.957	18.696	1320.169	1035.903
98.972	18.818	1318.336	1035.109
99.987	18.783	1317.613	1034.238
101.001	18.802	1316.212	1033.159
102.016	18.707	1315.462	1031.910
103.030	18.745	1314.584	1031.356
104.045	18.705	1313.831	1030.436
105.060	18.781	1312.626	1029.851
106.074	18.711	1311.611	1028.544
107.089	18.833	1310.446	1028.272
108.103	18.793	1309.247	1027.000
109.118	18.778	1307.749	1025.647
110.133	18.819	1306.681	1024.965
111.147	18.785	1305.213	1023.516
112.162	18.758	1304.150	1022.432
113.176	18.858	1302.810	1021.888
114.191	18.817	1301.784	1020.746
115.206	18.777	1300.782	1019.637
116.220	18.798	1299.827	1018.920
117.235	18.793	1298.702	1017.921
118.249	18.855	1297.093	1016.933
119.264	18.807	1296.441	1016.049
120.279	18.808	1295.410	1015.160
121.293	18.845	1294.939	1014.916
122.308	18.970	1293.156	1014.167
123.322	18.889	1292.220	1012.864
124.337	18.906	1291.198	1012.073
125.352	18.919	1290.342	1011.393
126.366	18.952	1289.058	1010.492
127.381	18.834	1288.080	1008.943
128.395	18.825	1287.262	1008.159
129.410	18.879	1286.700	1007.947
130.424	18.843	1285.615	1006.798
131.439	18.770	1284.859	1005.687
132.454	18.722	1283.663	1004.380
133.468	18.956	1282.512	1004.759
134.483	18.854	1281.942	1003.626
135.497	18.823	1281.048	1002.658
136.512	18.809	1280.055	1001.711
137.527	18.842	1278.667	1000.728
138.541	18.803	1277.066	999.159
139.556	18.832	1275.787	998.236
140.570	18.776	1275.029	997.235
141.585	18.810	1273.528	996.167
142.600	18.854	1272.040	995.168
143.614	18.796	1271.438	994.274
144.629	18.735	1270.346	992.979
145.643	18.769	1269.151	992.153
146.658	18.705	1268.179	990.940
147.673	18.816	1267.040	990.602
148.687	18.767	1266.202	989.575
149.702	18.712	1264.785	988.065
150.716	18.737	1263.568	987.167
151.731	18.726	1262.718	986.354
152.746	18.900	1261.503	986.316
153.760	18.939	1259.932	985.222
154.775	18.904	1259.045	984.243
155.789	18.882	1258.235	983.396
156.804	18.870	1256.987	982.268
157.819	18.878	1256.222	981.625
158.833	18.841	1255.201	980.532
159.848	18.972	1254.290	980.479
160.862	18.824	1253.746	979.124
161.877	18.810	1252.723	978.162
162.892	18.899	1251.524	977.644
163.906	18.897	1251.211	977.300
164.921	18.969	1250.282	976.898
165.935	18.931	1249.386	975.897
166.950	18.882	1249.130	975.331
167.964	18.854	1248.333	974.466
168.979	18.933	1247.592	974.247
169.994	18.993	1246.728	973.826
171.008	18.905	1246.407	972.989
172.023	18.921	1245.609	972.374
173.037	18.847	1245.006	971.394
174.052	18.881	1244.269	970.929
175.067	18.899	1243.292	970.182
176.081	18.907	1242.468	969.500
177.096	18.991	1241.746	969.321
178.110	18.845	1240.797	967.672
179.125	19.056	1239.236	967.557
180.140	19.002	1238.461	966.564
181.154	18.953	1237.377	965.358
182.169	18.970	1235.996	964.289
183.183	18.991	1235.069	963.595
184.198	19.032	1234.004	962.911
185.213	18.993	1233.189	961.970
186.227	19.110	1232.127	961.714
187.242	19.043	1231.447	960.721
188.256	19.059	1230.598	960.061
189.271	19.013	1229.791	959.095
190.286	19.088	1228.655	958.540
191.300	19.071	1228.312	958.094
192.315	18.981	1228.144	957.377
193.329	19.008	1227.504	956.945
194.344	19.124	1226.960	957.077
195.359	19.093	1225.967	956.046
196.373	19.122	1225.459	955.726
197.388	18.974	1225.848	955.126
198.402	18.939	1225.185	954.329
199.417	19.123	1223.984	954.332
200.432	19.105	1223.726	953.947
201.446	19.029	1223.044	952.904
202.461	18.964	1222.067	951.703
203.475	19.049	1220.947	951.213
204.490	19.085	1220.153	950.713
205.504	19.080	1218.952	949.664
206.519	19.102	1218.189	949.105
207.534	19.147	1216.942	948.299
208.548	19.036	1215.983	946.858
209.563	18.983	1215.643	946.217
210.577	19.067	1215.034	946.123
211.592	19.092	1214.060	945.417
212.607	19.182	1213.112	945.088
213.621	19.136	1212.440	944.229
214.636	19.153	1211.724	943.681
215.650	19.041	1210.789	942.256
216.665	19.107	1209.691	941.679
217.680	19.028	1209.119	940.716
218.694	19.149	1208.059	940.472
219.709	19.176	1207.388	940.013
220.723	19.215	1206.917	939.775
221.738	19.021	1206.443	938.267
222.753	19.053	1205.591	937.694
223.767	19.053	1204.668	936.891
224.782	19.147	1204.663	937.319
225.796	19.232	1203.958	937.152
226.811	19.244	1202.762	936.202
227.826	19.216	1202.506	935.767
228.840	19.258	1201.505	935.134
229.855	19.291	1200.896	934.757
230.869	19.193	1200.326	933.697
231.884	19.119	1199.686	932.718
232.899	19.242	1198.793	932.607
233.913	19.244	1198.249	932.112
234.928	19.278	1197.845	931.897
235.942	19.291	1197.275	931.438
236.957	19.402	1195.929	930.912
237.972	19.224	1195.497	929.533
238.986	19.228	1195.013	929.093
240.001	19.413	1194.334	929.481
241.015	19.296	1193.693	928.271
242.030	19.361	1193.209	928.164
243.045	19.409	1191.955	927.365
244.059	19.330	1191.038	926.144
245.074	19.434	1190.278	926.029
246.088	19.406	1189.306	925.037
247.103	19.389	1188.769	924.447
248.117	19.380	1188.277	923.938
249.132	19.326	1187.535	922.987
250.147	19.440	1186.552	922.755
251.161	19.483	1185.934	922.422
252.176	19.554	1185.271	922.203
253.190	19.474	1184.421	921.034
254.205	19.512	1183.753	920.636
255.220	19.396	1183.238	919.535
256.234	19.377	1182.947	919.125
257.249	19.449	1182.246	918.884
258.263	19.453	1181.791	918.468
259.278	19.493	1181.261	918.190
260.293	19.503	1180.568	917.622
261.307	19.550	1179.898	917.270
262.322	19.532	1179.633	916.885
263.336	19.449	1178.757	915.686
264.351	19.556	1177.807	915.435
265.366	19.486	1177.533	914.768
266.380	19.497	1176.782	914.159
267.395	19.471	1176.151	913.454
268.409	19.494	1175.271	912.810
269.424	19.469	1174.945	912.342
270.439	19.426	1174.757	911.888
271.453	19.515	1173.493	911.296
272.468	19.568	1172.568	910.777
273.482	19.451	1172.172	909.772
274.497	19.622	1171.712	910.236
275.512	19.740	1170.529	909.858
276.526	19.565	1170.652	908.954
277.541	19.552	1169.980	908.279
278.555	19.556	1169.377	907.756
279.570	19.602	1168.279	907.066
280.585	19.671	1167.171	906.486
281.599	19.680	1166.700	906.086
282.614	19.593	1165.935	904.955
283.628	19.686	1164.447	904.208
284.643	19.648	1163.989	903.575
285.657	19.635	1162.899	902.578
286.672	19.603	1162.011	901.642
287.687	19.575	1161.124	900.727
288.701	19.723	1160.406	900.862
289.716	19.686	1159.790	900.114
290.730	19.706	1159.183	899.665
291.745	19.778	1158.308	899.281
292.760	19.738	1157.728	898.544
293.774	19.820	1157.492	898.707
294.789	19.772	1157.017	898.012
295.803	19.758	1156.536	897.484
296.818	19.831	1155.783	897.199
297.833	19.860	1154.834	896.536
298.847	19.820	1154.382	895.898
299.862	19.742	1153.491	894.721
300.876	19.844	1152.758	894.603
301.891	19.935	1151.786	894.236
302.906	19.818	1151.500	893.333
303.920	19.866	1150.932	893.062
304.935	19.946	1149.940	892.623
305.949	19.839	1149.446	891.612
306.964	19.958	1148.833	891.668
307.979	19.849	1148.343	890.650
308.993	19.857	1147.994	890.342
310.008	19.864	1146.943	889.482
311.022	19.918	1146.211	889.112
312.037	19.988	1145.147	888.567
313.052	19.847	1144.540	887.296
314.066	19.897	1143.356	886.557
315.081	19.911	1143.025	886.292
316.095	20.020	1142.029	885.998
317.110	19.878	1141.826	885.039
318.125	19.979	1141.195	884.985
319.139	20.010	1140.128	884.241
320.154	19.979	1139.712	883.681
321.168	20.056	1139.334	883.700
322.183	20.016	1138.616	882.862
323.197	20.045	1137.674	882.203
324.212	20.013	1137.061	881.485
325.227	20.007	1137.051	881.371
326.241	20.026	1136.396	880.879
327.256	20.087	1135.693	880.566
328.270	20.085	1134.698	879.706
329.285	20.128	1134.022	879.323
330.300	20.118	1132.882	878.312
331.314	20.105	1131.947	877.444
332.329	20.143	1131.273	877.033
333.343	20.169	1130.535	876.517
334.358	20.238	1129.440	875.940
335.373	20.036	1129.037	874.526
336.387	20.237	1127.953	874.626
337.402	20.236	1127.664	874.317
338.416	20.166	1127.185	873.520
339.431	20.222	1126.205	872.962
340.446	20.212	1125.872	872.577
341.460	20.257	1125.212	872.213
342.475	20.267	1124.215	871.416
343.489	20.315	1123.430	870.968
344.504	20.231	1122.585	869.817
345.519	20.278	1121.505	869.139
346.533	20.274	1121.049	868.689
347.548	20.281	1120.252	868.030
348.562	20.319	1119.324	867.424
349.577	20.398	1118.701	867.256
350.592	20.273	1118.137	866.119
351.606	20.317	1117.394	865.686
352.621	20.299	1116.734	865.009
353.635	20.400	1115.959	864.837
354.650	20.380	1115.397	864.223
355.665	20.272	1114.901	863.224
356.679	20.385	1114.349	863.283
357.694	20.335	1113.498	862.300
358.708	20.398	1112.862	862.043
359.723	20.401	1112.178	861.453
360.738	20.388	1111.674	860.919
361.752	20.303	1111.396	860.210
362.767	20.368	1110.998	860.145
363.781	20.480	1109.907	859.778
364.796	20.584	1109.226	859.692
365.810	20.610	1108.890	859.480
366.825	20.536	1107.939	858.305
367.840	20.550	1107.645	858.070
368.854	20.532	1107.511	857.799
369.869	20.470	1106.486	856.623
370.883	20.638	1105.792	856.838
371.898	20.574	1105.080	855.895
372.913	20.536	1104.223	854.973
373.927	20.541	1103.961	854.718
374.942	20.562	1103.600	854.463
375.956	20.576	1102.895	853.910
376.971	20.560	1102.569	853.506
377.986	20.623	1101.522	852.928
379.000	20.564	1101.393	852.463
380.015	20.686	1100.314	852.150
381.029	20.622	1099.730	851.310
382.044	20.698	1099.163	851.169
383.059	20.671	1098.473	850.428
384.073	20.695	1097.964	850.071
385.088	20.640	1097.109	849.070
386.102	20.685	1096.002	848.356
387.117	20.727	1095.421	848.037
388.132	20.608	1094.767	846.874
389.146	20.632	1093.910	846.254
390.161	20.658	1093.115	845.689
391.175	20.666	1092.572	845.236
392.190	20.781	1091.769	845.094
393.205	20.764	1091.159	844.468
394.219	20.755	1090.159	843.575
395.234	20.781	1089.829	843.368
396.248	20.826	1088.254	842.295
397.263	20.950	1087.466	842.208
398.278	20.797	1087.123	841.129
399.292	20.902	1086.444	841.037
400.307	20.833	1086.008	840.293
401.321	20.889	1085.160	839.830
402.336	20.906	1084.430	839.277
403.350	20.955	1083.429	838.660
404.365	20.997	1083.034	838.481
405.380	21.025	1082.208	837.902
406.394	20.889	1081.596	836.702
407.409	21.068	1080.722	836.812
408.423	21.003	1080.367	836.151
409.438	21.065	1079.293	835.543
410.453	21.029	1078.929	835.014
411.467	21.081	1077.898	834.389
412.482	21.124	1077.278	834.043
413.496	21.076	1076.456	833.103
414.511	21.060	1075.769	832.420
415.526	21.008	1075.385	831.805
416.540	20.996	1075.414	831.695
417.555	21.057	1074.456	831.170
418.569	21.085	1074.076	830.935
419.584	21.105	1073.763	830.715
420.599	21.031	1073.473	830.068
421.613	147.134	1395.377	1789.674
422.628	135.741	1442.262	1789.783
