DTS Sentinel unit serial number:	SN413079Multiplexer serial number:	ORYXHardware model number:	OX4-SRSoftware version number:	ORYX F/W v4.00 Oryx Data Collector v3.7.2.0data status	okinstallation	princeton_trtdifferential loss correction	single-endedforward channel	channel 2reverse channel	N/Adate	2019/09/15time	14:07:34forward acquisition time	60.00reverse acquisition time	0.00gamma	496.2192k internal	0.2301k external	0.2301temperature offset calibration	0.9992default loss term (dB/km)	0.3790temperature slope calibration	1.0000multiplexer offset coefficient	1.0000multiplexer slope coefficient	1.0000fibre end	0.00T internal ref (°C)	38.66T ext. ref 1 (°C)	4.94T ext. ref 2 (°C)	35.96length (m)	temperature (°C)	Stokes	anti-Stokes-747.200	416.400	-0.128	0.279
-746.185	446.975	-0.121	0.271
-745.171	-142.663	-0.138	0.014
-744.156	234.857	-0.142	0.239
-743.142	633.906	-0.077	-0.200
-742.127	-12.452	0.008	-0.005
-741.112	55.317	-0.206	0.203
-740.098	-137.394	0.144	-0.017
-739.083	-200.000	0.053	0.305
-738.069	686.137	-0.111	0.297
-737.054	-200.000	-0.006	0.133
-736.039	531.990	0.089	-0.214
-735.025	800.000	-0.096	-0.347
-734.010	34.223	0.202	0.180
-732.996	-145.115	-0.388	0.036
-731.981	800.000	-0.087	0.330
-730.966	18.859	-0.289	0.236
-729.952	617.644	-0.047	0.120
-728.937	302.615	-0.109	-0.206
-727.923	-100.196	0.114	-0.029
-726.908	-42.527	-0.175	0.091
-725.894	-34.197	-0.185	0.103
-724.879	-69.117	0.204	0.080
-723.864	192.381	-0.175	0.269
-722.850	39.203	0.203	-0.185
-721.835	800.000	-0.026	0.076
-720.821	-200.000	-0.017	0.189
-719.806	85.463	-0.027	0.030
-718.791	-200.000	-0.006	-0.655
-717.777	800.000	-0.087	0.328
-716.762	126.845	-0.085	0.110
-715.748	-200.000	-0.013	0.137
-714.733	-81.091	-0.093	0.031
-713.718	-191.246	-0.256	-0.003
-712.704	-72.951	0.156	-0.059
-711.689	13.496	-0.214	0.169
-710.675	-87.932	-0.073	-0.022
-709.660	-11.833	-0.106	-0.071
-708.645	-200.000	-0.004	0.274
-707.631	-134.976	-0.088	-0.011
-706.616	-77.223	-0.210	0.075
-705.602	465.167	0.094	0.215
-704.587	-200.000	-0.028	-0.136
-703.572	-111.538	-0.159	-0.033
-702.558	-96.841	-0.165	0.044
-701.543	-36.611	0.032	-0.018
-700.529	-89.045	-0.251	0.076
-699.514	-2.317	0.340	0.243
-698.499	-200.000	-0.038	-0.193
-697.485	538.276	0.155	0.376
-696.470	39.019	-0.283	-0.257
-695.456	800.000	-0.076	0.231
-694.441	800.000	-0.085	0.358
-693.426	-111.471	-0.089	-0.018
-692.412	-43.914	0.099	-0.051
-691.397	301.728	-0.198	0.372
-690.383	-8.669	0.167	0.114
-689.368	-200.000	0.037	0.267
-688.354	-55.544	-0.428	-0.195
-687.339	-200.000	-0.051	-0.305
-686.324	5.336	0.080	0.060
-685.310	-18.041	0.088	-0.056
-684.295	-132.760	0.136	-0.018
-683.281	-91.272	-0.217	-0.063
-682.266	-146.105	0.214	0.019
-681.251	282.633	0.131	0.238
-680.237	800.000	-0.031	-0.109
-679.222	771.570	-0.076	-0.209
-678.208	-157.345	0.182	0.011
-677.193	-21.878	0.298	0.185
-676.178	-200.000	-0.010	-0.073
-675.164	210.719	-0.166	-0.265
-674.149	-171.562	-0.222	0.007
-673.135	-105.097	0.205	-0.048
-672.120	129.781	-0.179	-0.233
-671.105	800.000	0.074	0.214
-670.091	190.257	-0.257	0.392
-669.076	-38.076	-0.106	-0.057
-668.062	-112.584	-0.441	0.089
-667.047	41.451	-0.055	-0.050
-666.032	333.074	-0.074	-0.146
-665.018	203.151	-0.124	0.195
-664.003	-31.299	0.213	-0.122
-662.989	-55.019	-0.105	0.048
-661.974	800.000	-0.075	0.229
-660.959	-8.596	0.006	-0.004
-659.945	252.423	0.188	0.326
-658.930	49.565	0.208	0.199
-657.916	476.669	0.142	0.325
-656.901	54.681	0.130	-0.128
-655.886	-33.975	-0.136	0.076
-654.872	216.277	-0.088	0.142
-653.857	-200.000	0.023	0.170
-652.843	-171.203	-0.303	0.010
-651.828	-200.000	-0.080	0.440
-650.814	330.701	0.128	0.251
-649.799	-178.246	0.090	-0.002
-648.784	-200.000	-0.021	-0.183
-647.770	110.787	-0.122	0.149
-646.755	-141.875	-0.232	0.024
-645.741	800.000	0.018	0.059
-644.726	116.675	-0.082	-0.102
-643.711	2.748	-0.189	-0.139
-642.697	-131.364	-0.242	0.032
-641.682	-42.573	0.170	0.088
-640.668	-3.302	0.282	0.200
-639.653	-88.551	-0.242	0.073
-638.638	-200.000	-0.035	0.189
-637.624	-173.794	0.298	0.009
-636.609	265.592	0.048	0.085
-635.595	-138.290	-0.060	-0.007
-634.580	-28.783	0.217	-0.127
-633.565	800.000	0.145	-0.410
-632.551	-200.000	0.001	-0.210
-631.536	-102.632	-0.394	0.095
-630.522	-200.000	-0.016	0.270
-629.507	34.981	-0.170	0.151
-628.492	-96.815	-0.244	0.065
-627.478	91.789	-0.058	0.067
-626.463	-127.657	-0.035	0.005
-625.449	51.309	-0.155	-0.149
-624.434	-200.000	0.032	0.228
-623.419	440.713	0.097	0.216
-622.405	-107.851	-0.261	-0.058
-621.390	800.000	-0.069	-0.242
-620.376	-200.000	0.070	-0.339
-619.361	234.294	-0.093	-0.156
-618.346	164.503	-0.035	0.050
-617.332	-91.972	0.158	0.045
-616.317	31.075	0.090	-0.078
-615.303	-47.368	0.120	-0.059
-614.288	190.787	0.215	0.328
-613.273	-78.682	0.233	0.081
-612.259	112.503	0.290	0.357
-611.244	-200.000	0.003	0.074
-610.230	-69.929	0.343	0.133
-609.215	-200.000	0.009	0.133
-608.201	-77.270	0.156	-0.055
-607.186	800.000	-0.048	0.133
-606.171	-77.527	-0.207	0.073
-605.157	73.230	0.301	-0.320
-604.142	60.268	-0.213	-0.213
-603.128	-143.642	0.112	0.011
-602.113	42.548	-0.152	0.141
-601.098	-109.276	-0.156	-0.033
-600.084	-200.000	-0.018	-0.154
-599.069	80.519	-0.185	-0.202
-598.055	800.000	-0.056	0.214
-597.040	26.511	-0.131	-0.111
-596.025	30.247	-0.276	-0.239
-595.011	-32.262	0.199	-0.113
-593.996	-92.627	0.256	-0.073
-592.982	-12.282	0.419	0.278
-591.967	-132.982	0.109	0.014
-590.952	673.845	-0.086	0.225
-589.938	141.339	0.049	0.066
-588.923	-200.000	-0.011	-0.126
-587.909	800.000	-0.033	-0.093
-586.894	430.846	-0.054	-0.119
-585.879	-97.402	-0.136	-0.036
-584.865	-200.000	-0.074	0.468
-583.850	-2.052	0.113	0.080
-582.836	-200.000	-0.015	0.150
-581.821	800.000	-0.089	0.353
-580.806	527.122	-0.075	0.179
-579.792	-153.067	-0.467	-0.033
-578.777	800.000	0.021	-0.080
-577.763	800.000	-0.068	0.213
-576.748	-200.000	-0.014	-0.211
-575.733	72.205	-0.099	0.104
-574.719	800.000	0.116	-0.358
-573.704	800.000	0.005	0.018
-572.690	-10.065	-0.413	0.278
-571.675	-94.971	0.315	0.086
-570.661	-32.888	-0.213	-0.120
-569.646	180.496	-0.056	0.083
-568.631	53.977	-0.202	-0.197
-567.617	0.857	0.209	-0.152
-566.602	800.000	0.068	0.282
-565.588	-51.073	0.153	-0.073
-564.573	463.189	0.088	-0.199
-563.558	800.000	0.039	-0.118
-562.544	113.278	-0.030	0.037
-561.529	-137.877	-0.246	-0.028
-560.515	-59.629	0.187	-0.081
-559.500	800.000	0.064	-0.283
-558.485	800.000	0.042	-0.187
-557.471	800.000	-0.050	-0.171
-556.456	218.346	0.066	0.106
-555.442	-83.762	-0.223	0.072
-554.427	-200.000	-0.011	-0.218
-553.412	69.236	-0.158	-0.164
-552.398	-66.194	-0.278	0.112
-551.383	559.350	-0.105	0.256
-550.369	-200.000	-0.006	0.091
-549.354	-22.051	-0.185	-0.114
-548.339	-17.385	0.186	0.118
-547.325	72.481	-0.101	-0.107
-546.310	-126.672	-0.133	0.020
-545.296	-9.045	-0.084	-0.057
-544.281	-200.000	0.014	-0.538
-543.266	-22.657	0.211	0.129
-542.252	179.340	0.156	-0.230
-541.237	-200.000	0.045	-0.317
-540.223	-101.197	-0.082	0.020
-539.208	-87.032	-0.279	0.086
-538.193	-28.794	0.353	-0.205
-537.179	-54.983	-0.192	0.088
-536.164	79.913	0.091	0.099
-535.150	150.676	-0.082	-0.113
-534.135	-10.532	0.394	0.264
-533.121	777.868	0.072	0.199
-532.106	-79.419	-0.062	-0.021
-531.091	-200.000	0.017	0.300
-530.077	64.257	-0.106	-0.108
-529.062	140.270	0.057	-0.077
-528.048	41.524	0.068	-0.062
-527.033	42.035	0.109	0.100
-526.018	60.986	-0.131	-0.131
-525.004	53.964	-0.197	0.191
-523.989	-10.696	0.192	-0.128
-522.975	-200.000	-0.001	-0.165
-521.960	334.066	0.089	0.174
-520.945	-18.737	-0.041	0.026
-519.931	800.000	-0.020	0.076
-518.916	-125.429	-0.236	0.036
-517.902	78.840	-0.116	0.126
-516.887	160.174	-0.059	0.083
-515.872	-96.741	-0.229	-0.061
-514.858	-200.000	-0.001	-0.080
-513.843	11.145	-0.069	0.054
-512.829	800.000	-0.118	0.357
-511.814	-1.359	-0.142	0.102
-510.799	-61.399	0.265	0.112
-509.785	38.676	0.069	0.062
-508.770	-200.000	-0.005	-0.168
-507.756	-110.366	0.090	-0.019
-506.741	-115.331	0.397	0.076
-505.726	-88.140	0.159	-0.048
-504.712	-114.197	-0.256	0.050
-503.697	201.707	0.113	0.175
-502.683	-136.125	-0.065	0.008
-501.668	-200.000	0.029	0.288
-500.653	-99.406	0.146	0.037
-499.639	382.536	-0.084	0.175
-498.624	-93.554	-0.318	-0.089
-497.610	-10.849	0.233	-0.156
-496.595	126.995	0.173	-0.221
-495.581	368.640	-0.195	-0.397
-494.566	-43.571	0.269	0.137
-493.551	240.630	0.137	0.231
-492.537	121.011	-0.117	0.147
-491.522	-110.737	0.544	0.113
-490.508	-200.000	-0.002	-0.038
-489.493	-200.000	-0.038	-0.182
-488.478	-58.196	0.382	-0.168
-487.464	-127.073	0.055	-0.008
-486.449	-200.000	-0.006	0.123
-485.435	394.474	-0.032	0.067
-484.420	223.098	-0.007	-0.011
-483.405	-200.000	0.005	0.161
-482.391	-139.060	0.337	-0.037
-481.376	130.830	-0.025	0.032
-480.362	-200.000	-0.035	0.389
-479.347	800.000	-0.034	0.123
-478.332	163.355	0.187	-0.265
-477.318	85.406	-0.144	-0.160
-476.303	-47.805	-0.363	0.178
-475.289	-200.000	-0.010	0.292
-474.274	-118.323	-0.181	0.032
-473.259	400.633	0.087	0.185
-472.245	800.000	-0.034	0.132
-471.230	703.754	0.069	0.183
-470.216	-200.000	0.013	0.073
-469.201	350.026	-0.087	0.173
-468.186	184.506	0.062	0.093
-467.172	-143.321	0.360	0.035
-466.157	-105.790	0.412	0.094
-465.143	27.602	-0.047	0.040
-464.128	-25.340	-0.292	0.174
-463.113	-142.617	0.160	-0.016
-462.099	800.000	-0.017	0.069
-461.084	-46.195	-0.111	-0.055
-460.070	-98.103	-0.232	-0.060
-459.055	-200.000	0.036	-0.203
-458.040	-200.000	-0.009	-0.043
-457.026	42.704	0.054	-0.050
-456.011	-48.292	-0.099	0.048
-454.997	-180.621	-0.140	-0.003
-453.982	-120.253	-0.158	-0.027
-452.968	-22.319	0.112	0.068
-451.953	27.003	0.118	-0.100
-450.938	-20.997	-0.233	0.144
-449.924	144.403	0.051	-0.068
-448.909	-89.717	0.191	-0.056
-447.895	800.000	-0.145	-0.408
-446.880	482.445	-0.052	-0.120
-445.865	28.485	-0.229	-0.196
-444.851	-32.550	0.023	-0.013
-443.836	-87.941	0.359	-0.109
-442.822	-178.592	0.163	0.004
-441.807	-81.833	-0.110	0.036
-440.792	298.720	0.162	0.300
-439.778	800.000	0.083	-0.348
-438.763	800.000	-0.055	0.225
-437.749	-200.000	0.031	-0.201
-436.734	-3.632	-0.256	-0.180
-435.719	-88.422	0.203	0.061
-434.705	188.252	-0.053	-0.080
-433.690	-200.000	0.003	0.073
-432.676	78.215	0.089	-0.096
-431.661	136.605	-0.109	0.143
-430.646	-200.000	0.007	0.092
-429.632	152.199	0.076	0.104
-428.617	-50.616	0.255	0.121
-427.603	-34.985	0.119	-0.066
-426.588	-115.117	-0.283	-0.054
-425.573	-6.683	-0.170	0.116
-424.559	-42.479	-0.146	0.075
-423.544	86.819	0.137	-0.153
-422.530	-2.154	0.153	-0.108
-421.515	-200.000	0.041	-0.229
-420.500	-82.854	-0.105	0.034
-419.486	49.008	0.341	0.323
-418.471	2.225	-0.083	-0.060
-417.457	55.920	-0.217	-0.212
-416.442	-72.745	0.297	-0.110
-415.428	-115.724	-0.119	-0.022
-414.413	178.131	-0.099	-0.146
-413.398	800.000	0.052	-0.227
-412.384	40.866	-0.299	0.272
-411.369	59.098	0.116	0.115
-410.355	-134.634	0.287	0.035
-409.340	-200.000	0.030	-0.156
-408.325	-200.000	-0.026	-0.157
-407.311	800.000	-0.048	-0.208
-406.296	800.000	0.073	-0.249
-405.282	-200.000	0.015	-0.319
-404.267	227.056	-0.114	-0.187
-403.252	-88.937	0.342	-0.102
-402.238	-42.117	-0.078	-0.040
-401.223	-47.668	0.159	0.078
-400.209	-200.000	-0.115	-0.645
-399.194	-87.806	-0.270	-0.082
-398.179	-200.000	0.014	0.263
-397.165	316.344	0.049	0.093
-396.150	-3.582	0.078	-0.055
-395.136	2.647	0.086	-0.063
-394.121	573.705	0.077	-0.188
-393.106	-34.478	-0.130	-0.072
-392.092	-79.680	-0.096	-0.032
-391.077	-169.509	-0.198	0.007
-390.063	142.424	0.113	0.150
-389.048	-17.147	0.352	0.223
-388.033	-25.934	0.384	0.228
-387.019	-120.514	0.245	0.042
-386.004	800.000	-0.105	0.322
-384.990	-173.397	0.146	-0.004
-383.975	-38.979	-0.259	0.137
-382.960	-200.000	-0.043	-0.284
-381.946	-96.336	0.101	-0.027
-380.931	20.379	-0.097	0.079
-379.917	-41.611	-0.127	-0.066
-378.902	-200.000	0.010	-0.149
-377.888	-200.000	-0.013	-0.190
-376.873	-117.565	0.170	0.031
-375.858	800.000	-0.063	-0.236
-374.844	800.000	0.038	0.123
-373.829	66.058	-0.157	0.160
-372.815	-200.000	-0.027	0.150
-371.800	34.593	-0.247	-0.217
-370.785	215.904	0.221	0.353
-369.771	409.480	-0.109	-0.232
-368.756	-200.000	0.328	-0.001
-367.742	34.318	0.201	0.176
-366.727	180.219	0.080	-0.118
-365.712	-200.000	0.024	0.144
-364.698	20.507	-0.189	0.154
-363.683	-134.995	0.278	-0.034
-362.669	-188.971	-0.367	-0.004
-361.654	320.846	-0.192	0.366
-360.639	-158.246	-0.134	0.008
-359.625	-88.830	-0.332	0.099
-358.610	-172.938	-0.281	0.009
-357.596	-25.807	0.113	0.067
-356.581	559.750	0.038	0.093
-355.566	-27.186	-0.189	-0.111
-354.552	-200.000	-0.020	-0.300
-353.537	-108.416	-0.063	-0.014
-352.523	650.871	-0.161	0.415
-351.508	-0.153	0.129	0.092
-350.493	-82.090	-0.109	0.036
-349.479	34.604	0.271	0.237
-348.464	-200.000	0.011	0.157
-347.450	28.805	-0.037	0.031
-346.435	-5.482	0.109	0.075
-345.420	-200.000	-0.010	-0.152
-344.406	-200.000	0.009	-0.142
-343.391	76.026	0.173	-0.184
-342.377	-36.743	-0.026	-0.014
-341.362	469.414	0.132	0.297
-340.348	33.906	-0.170	-0.148
-339.333	-200.000	0.033	0.293
-338.318	192.921	0.310	0.470
-337.304	170.114	0.161	0.231
-336.289	590.652	0.108	0.268
-335.275	-200.000	-0.000	-0.022
-334.260	-57.516	0.057	-0.025
-333.245	774.664	-0.159	0.435
-332.231	-2.540	0.110	0.077
-331.216	-27.051	-0.337	0.197
-330.202	-62.050	-0.377	-0.158
-329.187	-49.504	0.170	-0.081
-328.172	-200.000	0.010	-0.121
-327.158	80.163	-0.191	-0.206
-326.143	-94.318	-0.243	0.066
-325.129	-200.000	0.017	0.131
-324.114	-125.864	0.173	0.026
-323.099	-97.363	-0.180	-0.047
-322.085	52.701	0.216	-0.207
-321.070	37.351	0.191	-0.170
-320.056	64.423	-0.094	0.095
-319.041	166.175	0.055	-0.078
-318.026	-200.000	-0.021	-0.167
-317.012	-115.572	-0.129	0.024
-315.997	159.404	0.144	-0.201
-314.983	676.418	-0.039	0.102
-313.968	-42.748	0.222	0.113
-312.953	-135.317	0.175	-0.021
-311.939	127.888	0.145	-0.185
-310.924	754.771	0.065	-0.176
-309.910	55.249	-0.070	0.068
-308.895	-160.829	-0.094	0.005
-307.880	-200.000	-0.059	-0.339
-306.866	24.849	-0.261	-0.217
-305.851	-36.095	0.149	-0.081
-304.837	29.043	-0.177	0.151
-303.822	-200.000	-0.002	-0.057
-302.807	106.404	-0.067	-0.080
-301.793	190.021	0.168	0.253
-300.778	-200.000	0.052	0.376
-299.764	-90.551	-0.349	-0.101
-298.749	52.142	0.125	-0.119
-297.735	-1.638	0.134	-0.095
-296.720	52.265	0.230	-0.219
-295.705	-200.000	0.010	-0.249
-294.691	140.314	-0.166	-0.219
-293.676	-148.085	0.266	0.022
-292.662	-104.076	-0.222	-0.052
-291.647	66.558	0.059	-0.060
-290.632	-200.000	-0.298	-0.000
-289.618	-32.741	0.033	-0.018
-288.603	-11.697	-0.144	0.095
-287.589	42.588	-0.093	-0.085
-286.574	57.789	0.241	0.236
-285.559	800.000	0.001	0.005
-284.545	311.706	0.181	-0.340
-283.530	159.393	0.110	-0.153
-282.516	183.736	-0.222	-0.329
-281.501	-200.000	-0.021	-0.138
-280.486	-200.000	-0.032	-0.189
-279.472	-141.069	0.437	0.045
-278.457	-0.399	0.079	-0.056
-277.443	-108.948	0.420	-0.090
-276.428	98.574	-0.091	0.105
-275.413	-136.945	0.127	-0.015
-274.399	25.816	-0.227	-0.190
-273.384	442.385	-0.086	-0.189
-272.370	158.470	-0.072	0.101
-271.355	-71.318	0.095	-0.036
-270.340	-86.044	-0.236	-0.073
-269.326	-200.000	0.000	-0.148
-268.311	-200.000	-0.030	-0.226
-267.297	32.222	0.035	-0.031
-266.282	33.277	-0.169	0.147
-265.267	94.590	0.127	-0.144
-264.253	59.097	-0.098	-0.097
-263.238	181.638	0.212	0.312
-262.224	-134.050	0.182	-0.022
-261.209	210.225	-0.193	0.303
-260.195	-200.000	0.005	0.115
-259.180	45.642	-0.032	0.030
-258.165	-115.227	0.221	-0.042
-257.151	694.510	0.054	-0.141
-256.136	246.149	-0.055	0.092
-255.122	-200.000	-0.056	0.267
-254.107	-61.604	0.235	-0.099
-253.092	-200.000	-0.058	-0.381
-252.078	-64.222	0.357	0.145
-251.063	-136.472	0.286	-0.033
-250.049	-166.795	0.124	-0.005
-249.034	353.839	-0.073	-0.146
-248.019	62.783	0.079	-0.079
-247.005	144.001	0.160	0.214
-245.990	-114.814	-0.046	0.009
-244.976	-200.000	0.049	0.217
-243.961	19.740	-0.078	-0.063
-242.946	-92.977	-0.196	0.055
-241.932	103.887	0.129	-0.152
-240.917	-31.572	0.147	0.083
-239.903	-115.916	0.142	0.026
-238.888	23.520	-0.096	0.079
-237.873	-61.286	0.150	-0.063
-236.859	-132.793	-0.177	-0.023
-235.844	41.152	0.125	-0.113
-234.830	285.050	0.085	-0.153
-233.815	81.134	0.184	-0.198
-232.800	-200.000	0.002	-0.049
-231.786	-171.450	-0.176	-0.006
-230.771	-200.000	0.048	0.342
-229.757	509.866	-0.080	0.187
-228.742	-51.286	-0.134	-0.063
-227.727	-200.000	0.021	-0.362
-226.713	97.030	-0.101	0.116
-225.698	-82.724	-0.261	-0.084
-224.684	-109.631	-0.328	-0.069
-223.669	-200.000	0.005	0.068
-222.655	-115.418	-0.343	-0.065
-221.640	160.730	0.114	-0.158
-220.625	-124.135	-0.120	-0.019
-219.611	-200.000	-0.018	-0.269
-218.596	605.057	0.033	0.083
-217.582	38.924	0.080	0.071
-216.567	-87.719	0.439	-0.132
-215.552	-2.303	-0.137	0.096
-214.538	800.000	-0.064	-0.201
-213.523	-200.000	0.078	0.411
-212.509	800.000	0.098	-0.300
-211.494	-138.985	0.329	-0.036
-210.479	58.403	0.215	-0.210
-209.465	-22.873	-0.213	-0.128
-208.450	-96.424	-0.041	-0.011
-207.436	193.119	0.119	-0.180
-206.421	800.000	-0.088	0.261
-205.406	-85.603	0.169	-0.053
-204.392	45.249	0.098	0.090
-203.377	-125.842	-0.026	0.004
-202.363	25.066	-0.172	-0.143
-201.348	194.573	-0.143	0.217
-200.333	126.358	0.115	0.145
-199.319	-11.574	-0.107	0.070
-198.304	90.401	-0.271	-0.303
-197.290	-35.981	-0.173	-0.093
-196.275	63.710	0.090	-0.090
-195.260	15.007	-0.120	0.094
-194.246	-73.115	0.092	-0.034
-193.231	-200.000	0.047	0.254
-192.217	55.291	0.159	0.154
-191.202	41.606	-0.171	-0.155
-190.187	308.494	0.068	0.127
-189.173	55.753	-0.063	-0.061
-188.158	229.119	-0.225	0.366
-187.144	-200.000	-0.011	0.219
-186.129	259.861	-0.083	-0.143
-185.114	-200.000	0.006	-0.155
-184.100	43.657	0.169	-0.154
-183.085	-54.763	-0.177	0.080
-182.071	747.312	-0.041	0.110
-181.056	269.995	-0.198	0.347
-180.042	41.600	-0.263	0.238
-179.027	-48.878	-0.043	-0.020
-178.012	-125.126	-0.313	-0.048
-176.998	185.939	-0.056	0.082
-175.983	-104.919	0.128	0.029
-174.969	-200.000	0.049	0.303
-173.954	800.000	0.036	0.153
-172.939	-12.471	0.243	0.158
-171.925	-200.000	-0.031	-0.138
-170.910	5.084	0.139	0.102
-169.896	-98.960	-0.303	0.077
-168.881	8.196	-0.181	0.135
-167.866	-115.145	-0.287	-0.054
-166.852	-34.794	0.021	-0.012
-165.837	-44.964	-0.133	0.066
-164.823	-200.000	-0.016	0.333
-163.808	-118.534	-0.257	0.045
-162.793	-200.000	0.013	-0.152
-161.779	-133.181	0.200	-0.025
-160.764	112.643	-0.192	-0.231
-159.750	-42.989	-0.283	-0.143
-158.735	255.583	0.160	-0.274
-157.720	-200.000	-0.034	0.327
-156.706	-200.000	0.041	-0.247
-155.691	-38.584	0.080	-0.042
-154.677	-61.937	0.106	0.044
-153.662	487.899	0.094	-0.214
-152.647	-69.314	-0.076	-0.029
-151.633	-200.000	0.001	0.062
-150.618	-200.000	0.006	0.164
-149.604	258.287	-0.103	0.177
-148.589	0.283	0.086	0.061
-147.574	-37.712	0.152	0.081
-146.560	-138.014	0.294	-0.033
-145.545	-56.018	0.170	-0.076
-144.531	-15.234	-0.370	0.236
-143.516	188.046	0.152	0.226
-142.502	144.288	0.122	0.162
-141.487	89.595	0.293	0.326
-140.472	-200.000	-0.062	0.335
-139.458	84.412	0.199	0.216
-138.443	-158.817	-0.226	-0.013
-137.429	-106.033	0.401	0.090
-136.414	-200.000	-0.002	0.150
-135.399	26.166	0.116	0.096
-134.385	-200.000	-0.023	-0.110
-133.370	-200.000	0.029	-0.142
-132.356	417.043	-0.094	-0.199
-131.341	-126.773	0.225	-0.033
-130.326	131.969	0.147	-0.188
-129.312	-58.562	-0.156	-0.068
-128.297	-160.034	0.045	0.002
-127.283	174.638	-0.029	0.042
-126.268	330.106	0.025	0.048
-125.253	800.000	0.051	-0.187
-124.239	-27.488	-0.349	0.202
-123.224	-200.000	-0.016	0.230
-122.210	366.637	-0.122	-0.244
-121.195	375.520	0.066	-0.134
-120.180	-116.353	0.438	-0.081
-119.166	484.317	-0.092	0.208
-118.151	131.382	0.083	0.106
-117.137	-129.165	0.384	-0.053
-116.122	-200.000	-0.084	0.382
-115.107	800.000	0.027	0.108
-114.093	-100.482	-0.350	0.086
-113.078	110.646	-0.176	0.211
-112.064	142.106	0.135	0.178
-111.049	35.702	-0.087	0.076
-110.034	-200.000	0.037	0.185
-109.020	-126.336	0.209	0.031
-108.005	144.045	0.190	0.252
-106.991	325.576	0.196	0.374
-105.976	-101.033	0.165	-0.040
-104.962	-81.140	0.265	-0.087
-103.947	800.000	0.100	0.324
-102.932	84.026	-0.139	0.151
-101.918	179.807	-0.153	-0.222
-100.903	800.000	-0.140	-0.519
-99.889	-135.346	0.092	-0.011
-98.874	800.000	-0.047	-0.150
-97.859	36.152	0.255	-0.224
-96.845	184.874	-0.241	-0.355
-95.830	83.715	-0.153	0.165
-94.816	-135.023	-0.329	0.039
-93.801	-22.415	-0.273	-0.164
-92.786	-148.268	0.464	0.038
-91.772	-110.954	-0.368	0.075
-90.757	-51.401	0.144	-0.067
-89.743	-110.472	-0.373	0.077
-88.728	-66.252	-0.377	0.149
-87.713	800.000	0.080	0.279
-86.699	97.030	-0.141	0.161
-85.684	68.015	-0.096	0.097
-84.670	-23.451	-0.051	-0.030
-83.655	-114.099	0.150	0.029
-82.640	-24.546	-0.173	0.102
-81.626	334.558	-0.130	-0.251
-80.611	-115.622	0.186	0.035
-79.597	-200.000	0.032	-0.152
-78.582	755.125	0.064	-0.171
-77.567	-60.448	-0.590	0.249
-76.553	-200.000	0.037	-0.289
-75.538	184.428	-0.151	0.222
-74.524	307.479	0.126	0.233
-73.509	-200.000	-0.002	-0.356
-72.494	-34.835	0.155	0.084
-71.480	52.414	0.059	0.056
-70.465	-142.696	0.180	-0.018
-69.451	-200.000	-0.135	0.000
-68.436	-200.000	0.042	-0.426
-67.422	-170.391	-0.130	0.005
-66.407	118.837	-0.034	-0.042
-65.392	538.025	-0.103	-0.243
-64.378	177.461	0.188	0.271
-63.363	164.659	0.128	-0.179
-62.349	579.525	-0.066	0.160
-61.334	137.385	-0.593	-0.771
-60.319	520.602	0.070	0.163
-59.305	-200.000	0.087	-0.857
-58.290	147.950	0.780	1.044
-57.276	370.319	0.788	1.584
-56.261	-200.000	80.141	500.124
-55.246	548.557	1376.548	3272.734
-54.232	181.636	2611.037	3813.462
-53.217	115.116	2364.954	2865.017
-52.203	47.609	1970.760	1824.347
-51.188	41.795	1755.413	1579.180
-50.173	39.129	1709.083	1516.899
-49.159	53.500	1746.412	1662.205
-48.144	57.427	1765.142	1710.556
-47.130	41.758	1727.486	1553.526
-46.115	38.748	1713.115	1517.291
-45.100	38.538	1709.172	1512.115
-44.086	38.547	1706.342	1509.619
-43.071	38.594	1703.410	1507.329
-42.057	38.472	1701.418	1504.565
-41.042	38.596	1699.122	1503.428
-40.027	38.459	1697.426	1500.821
-39.013	38.516	1695.194	1499.221
-37.998	38.440	1693.544	1497.119
-36.984	38.545	1691.791	1496.317
-35.969	38.711	1689.920	1495.865
-34.954	38.647	1688.493	1494.056
-33.940	38.633	1686.805	1492.397
-32.925	38.666	1685.136	1491.110
-31.911	38.584	1683.455	1488.942
-30.896	38.596	1681.693	1487.421
-29.881	38.698	1679.030	1485.779
-28.867	38.661	1677.810	1484.357
-27.852	38.546	1676.576	1482.335
-26.838	38.636	1675.095	1481.648
-25.823	38.691	1673.345	1480.461
-24.809	38.764	1672.015	1479.773
-23.794	38.721	1670.509	1478.059
-22.779	38.734	1669.360	1477.078
-21.765	38.670	1667.582	1474.970
-20.750	38.659	1665.776	1473.228
-19.736	38.721	1663.937	1472.007
-18.721	38.634	1663.276	1470.713
-17.706	38.722	1660.951	1469.255
-16.692	38.761	1659.427	1468.142
-15.677	38.732	1658.385	1466.947
-14.663	38.711	1656.870	1465.392
-13.648	38.660	1655.278	1463.542
-12.633	38.652	1653.632	1461.970
-11.619	38.740	1651.638	1460.805
-10.604	38.652	1650.734	1459.291
-9.590	38.725	1649.180	1458.403
-8.575	38.688	1648.135	1457.146
-7.560	38.686	1646.408	1455.547
-6.546	38.671	1645.858	1454.895
-5.531	38.697	1645.002	1454.266
-4.517	38.705	1643.083	1452.572
-3.502	38.646	1642.514	1451.578
-2.487	38.774	1640.513	1450.700
-1.473	38.660	1629.845	1440.371
-0.458	36.613	1610.564	1408.386
0.556	31.473	1609.539	1373.060
1.571	28.531	1632.853	1370.869
2.586	27.458	1646.215	1373.875
3.600	24.142	1591.619	1303.961
4.615	14.781	1476.516	1145.668
5.629	6.549	1406.681	1037.410
6.644	5.079	1397.805	1021.156
7.659	4.938	1396.090	1018.886
8.673	4.955	1394.801	1017.971
9.688	4.798	1393.485	1015.897
10.702	4.688	1390.612	1012.991
11.717	8.390	1397.655	1042.226
12.731	16.474	1413.403	1107.015
13.746	19.866	1417.891	1132.681
14.761	18.379	1413.181	1119.106
15.775	17.033	1410.506	1108.109
16.790	16.086	1407.424	1099.413
17.804	15.143	1405.296	1091.512
18.819	14.750	1403.747	1087.655
19.834	14.470	1402.635	1084.872
20.848	14.189	1400.716	1081.467
21.863	14.003	1399.539	1079.255
22.877	13.883	1398.262	1077.399
23.892	13.814	1397.645	1076.378
24.907	13.773	1396.912	1075.454
25.921	13.901	1395.403	1075.028
26.936	13.829	1395.347	1074.424
27.950	13.885	1394.012	1073.661
28.965	13.957	1392.518	1072.877
29.980	13.965	1391.658	1072.172
30.994	14.019	1390.727	1071.708
32.009	14.094	1389.146	1070.879
33.023	14.151	1387.864	1070.161
34.038	14.014	1386.556	1068.181
35.053	13.940	1385.344	1066.674
36.067	13.933	1384.161	1065.626
37.082	14.017	1383.207	1065.333
38.096	14.059	1381.848	1064.463
39.111	14.075	1381.246	1064.006
40.126	13.933	1380.959	1062.786
41.140	13.774	1379.839	1060.814
42.155	13.739	1378.795	1059.693
43.169	13.816	1378.768	1060.066
44.184	13.784	1378.299	1059.411
45.199	13.809	1377.938	1059.198
46.213	13.823	1377.632	1058.958
47.228	13.871	1376.818	1058.547
48.242	13.884	1375.117	1057.223
49.257	13.865	1373.850	1056.040
50.271	13.914	1372.179	1054.970
51.286	13.853	1370.920	1053.524
52.301	13.946	1369.480	1052.916
53.315	13.899	1368.075	1051.444
54.330	13.823	1367.678	1050.560
55.344	13.873	1366.084	1049.560
56.359	13.850	1365.170	1048.623
57.374	13.764	1364.384	1047.383
58.388	13.704	1363.782	1046.447
59.403	13.620	1363.297	1045.453
60.417	13.710	1362.329	1045.183
61.432	13.724	1361.436	1044.499
62.447	13.672	1360.303	1043.208
63.461	13.602	1359.536	1042.090
64.476	13.624	1358.039	1040.988
65.490	13.630	1356.394	1039.667
66.505	13.594	1355.158	1038.404
67.520	13.679	1354.051	1037.996
68.534	13.651	1353.456	1037.277
69.549	13.670	1352.003	1036.190
70.563	13.690	1350.866	1035.348
71.578	13.606	1349.683	1033.825
72.593	13.622	1348.559	1032.977
73.607	13.588	1347.864	1032.139
74.622	13.476	1347.319	1030.933
75.636	13.491	1346.892	1030.611
76.651	13.593	1345.861	1030.364
77.666	13.606	1345.538	1030.106
78.680	13.597	1345.217	1029.710
79.695	13.586	1344.218	1028.789
80.709	13.570	1343.429	1027.992
81.724	13.640	1342.737	1027.807
82.739	13.662	1341.873	1027.191
83.753	13.967	1340.099	1027.627
84.768	13.875	1339.386	1026.421
85.782	13.941	1338.383	1025.974
86.797	13.970	1337.214	1025.166
87.812	13.782	1336.145	1023.094
88.826	13.748	1335.319	1022.161
89.841	13.894	1333.765	1021.778
90.855	13.918	1332.816	1021.109
91.870	13.851	1331.911	1019.916
92.884	13.983	1331.272	1020.143
93.899	13.971	1330.243	1019.196
94.914	13.999	1329.617	1018.796
95.928	14.003	1328.488	1017.864
96.943	14.075	1326.979	1017.060
97.957	14.018	1326.122	1015.962
98.972	14.006	1325.370	1015.225
99.987	13.978	1324.394	1014.217
101.001	13.993	1323.376	1013.437
102.016	13.971	1322.418	1012.482
103.030	13.962	1321.136	1011.353
104.045	13.891	1320.579	1010.404
105.060	13.912	1319.087	1009.304
106.074	13.771	1317.773	1007.355
107.089	13.738	1316.223	1005.878
108.103	13.641	1315.164	1004.394
109.118	13.573	1314.077	1003.063
110.133	13.658	1312.510	1002.293
111.147	13.639	1311.267	1001.136
112.162	13.626	1309.801	999.853
113.176	13.746	1308.383	999.404
114.191	13.729	1308.081	998.981
115.206	13.859	1306.384	998.377
116.220	13.713	1305.694	996.889
117.235	13.808	1304.354	996.346
118.249	13.722	1303.587	995.159
119.264	13.715	1302.365	994.096
120.279	13.688	1301.230	992.979
121.293	13.660	1300.075	991.841
122.308	13.669	1298.761	990.807
123.322	13.661	1298.122	990.184
124.337	13.648	1297.038	989.188
125.352	13.652	1296.297	988.559
126.366	13.751	1294.569	987.747
127.381	13.723	1293.785	986.891
128.395	13.678	1292.873	985.841
129.410	13.674	1292.102	985.144
130.424	13.793	1290.913	984.856
131.439	13.680	1290.388	983.695
132.454	13.761	1289.548	983.448
133.468	13.746	1288.620	982.568
134.483	13.801	1287.736	982.132
135.497	13.778	1286.771	981.170
136.512	13.786	1285.493	980.159
137.527	13.928	1284.104	979.851
138.541	13.815	1282.965	978.226
139.556	13.881	1281.910	977.724
140.570	13.935	1280.305	976.732
141.585	14.024	1279.244	976.358
142.600	14.067	1277.464	975.167
143.614	14.140	1276.786	974.990
144.629	14.026	1276.067	973.690
145.643	13.994	1275.214	972.767
146.658	14.064	1273.449	971.743
147.673	13.926	1272.285	969.963
148.687	13.883	1271.269	968.848
149.702	13.810	1269.846	967.254
150.716	13.798	1268.651	966.187
151.731	13.773	1267.233	964.879
152.746	13.923	1266.116	964.814
153.760	13.920	1264.710	963.641
154.775	13.978	1263.466	962.944
155.789	13.918	1262.678	961.907
156.804	13.901	1261.546	960.863
157.819	14.047	1260.256	960.640
158.833	14.018	1259.920	960.128
159.848	14.166	1258.637	959.919
160.862	14.015	1257.846	958.362
161.877	13.948	1256.650	956.979
162.892	13.974	1255.471	956.150
163.906	13.908	1254.619	955.033
164.921	14.065	1253.452	954.965
165.935	14.117	1252.516	954.463
166.950	14.078	1251.518	953.396
167.964	14.035	1250.941	952.628
168.979	14.072	1250.152	952.152
169.994	14.071	1249.485	951.557
171.008	14.074	1248.707	950.896
172.023	14.121	1248.175	950.677
173.037	14.149	1247.625	950.333
174.052	14.149	1246.569	949.442
175.067	14.130	1245.211	948.216
176.081	14.037	1244.316	946.921
177.096	14.026	1243.348	946.041
178.110	14.101	1241.738	945.153
179.125	14.089	1241.215	944.608
180.140	14.091	1239.923	943.550
181.154	14.207	1238.417	942.979
182.169	14.343	1237.192	942.733
183.183	14.213	1236.312	941.244
184.198	14.285	1235.113	940.651
185.213	14.325	1233.860	939.840
186.227	14.285	1232.699	938.648
187.242	14.385	1231.736	938.397
188.256	14.381	1230.640	937.458
189.271	14.415	1229.755	936.892
190.286	14.345	1228.408	935.386
191.300	14.210	1227.226	933.646
192.315	14.052	1226.908	932.438
193.329	14.059	1226.392	931.999
194.344	14.117	1225.744	931.752
195.359	14.187	1225.026	931.513
196.373	14.349	1224.224	931.730
197.388	14.384	1223.928	931.618
198.402	14.469	1223.485	931.674
199.417	14.504	1222.870	931.318
200.432	14.570	1222.208	931.096
201.446	14.644	1221.036	930.534
202.461	14.688	1220.326	930.159
203.475	14.618	1219.208	928.836
204.490	14.622	1217.913	927.788
205.504	14.526	1216.529	926.116
206.519	14.428	1215.743	924.895
207.534	14.472	1214.212	923.891
208.548	14.473	1213.813	923.512
209.563	14.526	1212.289	922.563
210.577	14.532	1211.911	922.229
211.592	14.605	1210.978	921.836
212.607	14.644	1210.337	921.484
213.621	14.654	1209.509	920.825
214.636	14.633	1208.585	919.928
215.650	14.670	1207.710	919.385
216.665	14.810	1206.291	918.994
217.680	14.752	1205.639	918.095
218.694	14.812	1204.974	917.837
219.709	14.756	1204.131	916.807
220.723	14.824	1203.535	916.645
221.738	14.757	1202.814	915.649
222.753	14.840	1201.695	915.167
223.767	14.832	1200.948	914.473
224.782	14.975	1200.440	914.789
225.796	14.940	1200.014	914.194
226.811	14.903	1198.967	913.109
227.826	14.821	1198.849	912.491
228.840	14.874	1197.853	911.942
229.855	14.801	1197.102	910.890
230.869	14.760	1196.389	910.046
231.884	14.842	1195.176	909.491
232.899	14.781	1194.237	908.361
233.913	14.792	1193.851	908.049
234.928	14.810	1192.848	907.302
235.942	14.656	1192.294	905.966
236.957	14.789	1190.932	905.573
237.972	14.708	1190.728	904.896
238.986	14.888	1189.800	905.087
240.001	14.830	1189.088	904.150
241.015	14.943	1187.900	903.777
242.030	14.997	1187.299	903.532
243.045	14.964	1186.652	902.781
244.059	14.972	1186.144	902.359
245.074	15.012	1185.099	901.699
246.088	15.078	1184.319	901.381
247.103	15.154	1183.282	900.921
248.117	15.141	1182.923	900.498
249.132	15.202	1182.227	900.219
250.147	15.263	1181.725	900.082
251.161	15.350	1180.701	899.691
252.176	15.335	1180.400	899.298
253.190	15.379	1179.513	898.778
254.205	15.457	1178.928	898.674
255.220	15.555	1177.798	898.255
256.234	15.503	1177.201	897.443
257.249	15.506	1177.078	897.287
258.263	15.519	1176.294	896.680
259.278	15.487	1175.988	896.196
260.293	15.550	1175.007	895.706
261.307	15.597	1174.612	895.574
262.322	15.538	1173.941	894.667
263.336	15.531	1173.653	894.334
264.351	15.572	1172.566	893.646
265.366	15.582	1171.989	893.177
266.380	15.663	1171.060	892.819
267.395	15.699	1170.308	892.363
268.409	15.545	1169.379	890.755
269.424	15.488	1169.195	890.234
270.439	15.582	1168.638	890.231
271.453	15.524	1167.750	889.168
272.468	15.490	1166.454	887.925
273.482	15.508	1165.638	887.316
274.497	15.495	1165.634	887.166
275.512	15.665	1164.252	886.933
276.526	15.519	1164.041	885.928
277.541	15.613	1162.895	885.470
278.555	15.560	1162.236	884.614
279.570	15.713	1161.645	884.890
280.585	15.697	1160.970	884.212
281.599	15.824	1159.851	883.950
282.614	15.756	1158.750	882.677
283.628	15.735	1157.833	881.788
284.643	15.681	1156.760	880.609
285.657	15.704	1155.826	879.940
286.672	15.790	1154.649	879.414
287.687	15.839	1153.621	878.814
288.701	15.821	1153.374	878.450
289.716	15.874	1152.355	877.877
290.730	15.777	1151.895	876.941
291.745	15.858	1151.034	876.630
292.760	15.792	1150.788	876.021
293.774	15.890	1150.320	876.096
294.789	15.940	1149.807	875.888
295.803	16.067	1148.413	875.411
296.818	15.896	1148.170	874.261
297.833	15.904	1146.830	873.203
298.847	15.895	1146.340	872.705
299.862	15.933	1145.362	872.080
300.876	15.922	1145.188	871.811
301.891	16.009	1144.426	871.608
302.906	15.966	1143.640	870.707
303.920	16.081	1142.667	870.486
304.935	16.280	1141.731	870.723
305.949	16.158	1141.383	869.751
306.964	16.288	1140.549	869.707
307.979	16.255	1140.037	869.069
308.993	16.124	1139.186	867.668
310.008	16.197	1138.313	867.303
311.022	16.297	1137.750	867.311
312.037	16.289	1136.539	866.269
313.052	16.269	1135.777	865.509
314.066	16.161	1134.942	864.242
315.081	16.102	1133.864	863.045
316.095	16.108	1133.414	862.656
317.110	16.086	1132.766	861.974
318.125	16.122	1131.995	861.493
319.139	16.203	1131.327	861.325
320.154	16.066	1130.603	859.998
321.168	16.202	1129.895	860.076
322.183	16.119	1129.764	859.480
323.197	16.129	1129.182	859.008
324.212	16.120	1128.479	858.356
325.227	16.239	1127.782	858.354
326.241	16.132	1127.546	857.553
327.256	16.258	1126.551	857.360
328.270	16.109	1125.487	855.721
329.285	16.202	1124.374	855.271
330.300	16.259	1123.261	854.632
331.314	16.227	1122.329	853.686
332.329	16.079	1121.804	852.464
333.343	16.123	1120.995	851.998
334.358	16.299	1120.018	852.067
335.373	16.332	1119.365	851.660
336.387	16.484	1118.117	851.403
337.402	16.364	1118.009	850.643
338.416	16.481	1116.861	850.279
339.431	16.539	1116.246	850.030
340.446	16.566	1115.931	849.851
341.460	16.513	1115.367	849.077
342.475	16.678	1114.268	848.994
343.489	16.615	1113.563	848.068
344.504	16.716	1112.217	847.473
345.519	16.734	1111.447	846.901
346.533	16.705	1110.972	846.319
347.548	16.774	1110.311	846.083
348.562	16.811	1109.079	845.255
349.577	16.707	1108.662	844.345
350.592	16.648	1107.633	843.191
351.606	16.642	1106.799	842.453
352.621	16.538	1106.522	841.648
353.635	16.596	1105.492	841.081
354.650	16.606	1104.881	840.588
355.665	16.737	1103.984	840.485
356.679	16.740	1103.085	839.741
357.694	16.815	1102.189	839.357
358.708	16.750	1102.422	839.136
359.723	16.654	1101.985	838.254
360.738	16.874	1100.432	838.086
361.752	16.828	1100.254	837.649
362.767	16.846	1099.579	837.151
363.781	16.750	1099.330	836.413
364.796	16.775	1099.258	836.408
365.810	16.975	1097.969	836.336
366.825	16.919	1097.468	835.607
367.840	16.931	1097.185	835.378
368.854	17.153	1096.204	835.648
369.869	17.022	1095.410	834.325
370.883	17.065	1094.508	833.777
371.898	17.150	1093.722	833.521
372.913	16.995	1093.367	832.412
373.927	17.058	1092.903	832.298
374.942	17.088	1092.279	831.896
375.956	17.094	1092.086	831.702
376.971	17.080	1091.448	831.076
377.986	17.162	1090.294	830.523
379.000	17.211	1090.194	830.614
380.015	17.273	1089.437	830.267
381.029	17.388	1088.377	829.949
382.044	17.356	1087.653	829.164
383.059	17.336	1087.323	828.741
384.073	17.301	1086.199	827.641
385.088	17.495	1085.162	827.720
386.102	17.344	1084.440	826.366
387.117	17.354	1083.282	825.457
388.132	17.310	1082.241	824.379
389.146	17.134	1081.842	823.150
390.161	17.273	1081.026	823.128
391.175	17.274	1080.139	822.386
392.190	17.413	1079.475	822.478
393.205	17.407	1078.743	821.818
394.219	17.445	1077.775	821.190
395.234	17.365	1077.187	820.285
396.248	17.328	1075.913	819.062
397.263	17.467	1074.593	818.656
398.278	17.336	1074.207	817.659
399.292	17.309	1073.971	817.278
400.307	17.314	1072.741	816.293
401.321	17.201	1072.541	815.527
402.336	17.335	1071.779	815.518
403.350	17.253	1070.865	814.355
404.365	17.382	1070.020	814.258
405.380	17.400	1069.215	813.661
406.394	17.448	1068.930	813.601
407.409	17.341	1068.435	812.641
408.423	17.570	1067.318	812.815
409.438	17.661	1066.364	812.448
410.453	17.483	1066.281	811.466
411.467	17.769	1065.475	812.140
412.482	17.667	1064.767	811.045
413.496	17.711	1064.035	810.622
414.511	17.803	1063.472	810.563
415.526	17.871	1062.809	810.308
416.540	17.801	1062.692	809.812
417.555	17.766	1062.140	809.153
418.569	17.853	1061.530	809.030
419.584	17.818	1060.958	808.359
420.599	17.853	1060.251	807.914
421.613	141.015	1395.727	1765.801
422.628	129.495	1444.623	1765.919
