DTS Sentinel unit serial number:	SN413079Multiplexer serial number:	ORYXHardware model number:	OX4-SRSoftware version number:	ORYX F/W v4.00 Oryx Data Collector v3.7.2.0data status	okinstallation	princeton_trtdifferential loss correction	single-endedforward channel	channel 2reverse channel	N/Adate	2019/09/18time	00:59:34forward acquisition time	60.00reverse acquisition time	0.00gamma	496.2192k internal	0.2350k external	0.2350temperature offset calibration	0.9984default loss term (dB/km)	0.3790temperature slope calibration	1.0000multiplexer offset coefficient	1.0000multiplexer slope coefficient	1.0000fibre end	0.00T internal ref (°C)	23.30T ext. ref 1 (°C)	0.16T ext. ref 2 (°C)	17.01length (m)	temperature (°C)	Stokes	anti-Stokes-747.200	0.138	-0.346	0.246
-746.185	355.798	-0.056	-0.111
-745.171	-85.155	0.146	-0.046
-744.156	162.511	-0.258	0.361
-743.142	93.487	0.066	0.074
-742.127	-200.000	0.006	-0.026
-741.112	40.574	-0.261	0.235
-740.098	-84.944	-0.348	0.109
-739.083	195.902	0.145	0.220
-738.069	800.000	-0.117	0.372
-737.054	800.000	-0.066	0.196
-736.039	-115.333	-0.164	-0.031
-735.025	-117.472	0.207	0.037
-734.010	-64.767	-0.346	0.140
-732.996	800.000	0.041	-0.118
-731.981	0.617	-0.156	-0.112
-730.966	91.766	0.099	0.111
-729.952	800.000	0.028	-0.115
-728.937	16.447	-0.086	-0.068
-727.923	800.000	-0.072	-0.250
-726.908	-200.000	0.055	-0.409
-725.894	79.537	-0.048	0.051
-724.879	-118.300	-0.491	0.087
-723.864	70.156	0.135	-0.139
-722.850	-200.000	-0.035	0.190
-721.835	-200.000	0.235	0.001
-720.821	-79.877	-0.225	-0.076
-719.806	-58.260	0.295	-0.128
-718.791	-110.357	-0.242	-0.050
-717.777	-106.489	-0.281	-0.062
-716.762	191.772	-0.270	0.406
-715.748	800.000	-0.060	-0.190
-714.733	1.589	0.047	0.034
-713.718	444.480	0.182	0.398
-712.704	-143.244	0.461	0.044
-711.689	-68.621	0.332	0.128
-710.675	212.487	-0.091	-0.143
-709.660	-200.000	0.016	-0.380
-708.645	754.080	-0.068	0.183
-707.631	-49.744	-0.089	0.042
-706.616	-65.132	-0.336	0.135
-705.602	-200.000	0.017	-0.108
-704.587	337.641	0.084	-0.162
-703.572	-134.357	-0.243	0.030
-702.558	147.275	0.087	-0.117
-701.543	129.203	0.239	-0.304
-700.529	317.402	-0.213	-0.401
-699.514	-122.591	-0.077	-0.012
-698.499	-200.000	0.000	0.318
-697.485	119.492	-0.099	0.122
-696.470	-63.414	0.298	0.122
-695.456	-96.236	-0.310	0.082
-694.441	-46.429	0.189	-0.093
-693.426	-6.066	-0.212	-0.145
-692.412	357.593	-0.054	-0.107
-691.397	-27.576	-0.206	-0.119
-690.383	-144.205	0.106	0.010
-689.368	-198.731	0.207	0.001
-688.354	-0.202	-0.169	-0.120
-687.339	-11.716	0.086	0.056
-686.324	126.754	-0.102	-0.129
-685.310	-147.162	0.342	-0.029
-684.295	-194.171	-0.170	-0.001
-683.281	499.940	-0.188	-0.433
-682.266	-200.000	-0.014	-0.157
-681.251	-139.852	0.299	0.032
-680.237	-117.591	-0.225	-0.040
-679.222	-200.000	-0.009	-0.299
-678.208	-200.000	-0.001	-0.240
-677.193	31.477	0.112	-0.096
-676.178	-50.520	-0.223	-0.105
-675.164	227.837	-0.070	0.113
-674.149	-200.000	0.044	-0.331
-673.135	94.719	-0.229	-0.260
-672.120	-178.950	-0.354	0.008
-671.105	-45.965	-0.251	-0.123
-670.091	360.775	0.070	-0.140
-669.076	100.561	0.062	0.072
-668.062	-0.136	0.273	-0.194
-667.047	-200.000	0.050	-0.289
-666.032	-161.103	-0.440	-0.023
-665.018	6.129	-0.143	0.105
-664.003	145.499	-0.173	-0.230
-662.989	112.705	-0.170	-0.205
-661.974	59.372	-0.171	-0.168
-660.959	-51.673	0.026	0.012
-659.945	385.504	0.089	0.182
-658.930	-122.123	0.360	-0.059
-657.916	18.684	-0.200	-0.159
-656.901	-101.070	-0.204	-0.050
-655.886	800.000	-0.061	0.195
-654.872	-126.792	-0.233	0.034
-653.857	-200.000	-0.011	-0.154
-652.843	494.691	-0.075	-0.172
-651.828	-29.696	-0.168	0.095
-650.814	643.937	-0.059	0.150
-649.799	-200.000	-0.006	-0.304
-648.784	-44.251	0.143	0.071
-647.770	800.000	-0.055	-0.202
-646.755	72.975	-0.187	-0.194
-645.741	59.433	0.056	0.055
-644.726	264.764	0.176	0.304
-643.711	62.064	0.097	0.096
-642.697	-62.540	-0.144	-0.060
-641.682	-200.000	-0.020	-0.237
-640.668	800.000	0.058	-0.207
-639.653	-65.452	-0.191	-0.076
-638.638	47.793	-0.318	-0.295
-637.624	-200.000	0.026	-0.138
-636.609	-110.451	-0.233	0.048
-635.595	-200.000	0.029	0.131
-634.580	413.351	0.049	0.103
-633.565	45.169	0.196	-0.180
-632.551	45.061	-0.124	0.113
-631.536	-200.000	-0.043	0.202
-630.522	127.646	0.131	0.165
-629.507	-200.000	-0.065	0.330
-628.492	42.730	0.197	-0.178
-627.478	113.796	-0.123	-0.149
-626.463	-200.000	-0.020	-0.140
-625.449	340.401	0.027	-0.052
-624.434	-68.622	-0.114	0.044
-623.419	-171.821	-0.138	-0.005
-622.405	71.843	0.260	-0.269
-621.390	-140.521	-0.144	-0.015
-620.376	-39.337	0.186	-0.097
-619.361	0.665	-0.067	0.048
-618.346	-200.000	0.052	0.227
-617.332	-200.000	0.069	-0.318
-616.317	-48.112	0.208	-0.100
-615.303	800.000	0.091	-0.291
-614.288	117.657	-0.040	0.049
-613.273	8.588	0.115	0.086
-612.259	442.318	0.059	0.128
-611.244	-5.953	0.220	0.149
-610.230	-200.000	0.006	0.122
-609.215	-135.017	-0.217	0.026
-608.201	-65.166	0.216	0.087
-607.186	38.119	-0.304	0.268
-606.171	10.445	0.165	-0.125
-605.157	66.470	-0.171	0.173
-604.142	-200.000	-0.043	-0.265
-603.128	-6.526	-0.333	0.225
-602.113	800.000	-0.053	0.166
-601.098	-200.000	0.018	-0.420
-600.084	514.710	-0.060	0.138
-599.069	-48.928	0.128	0.061
-598.055	-32.674	-0.114	-0.063
-597.040	-200.000	0.009	-0.180
-596.025	380.770	-0.140	-0.285
-595.011	-166.010	-0.065	0.003
-593.996	702.854	0.028	-0.074
-592.982	260.398	0.119	0.205
-591.967	137.110	0.048	-0.063
-590.952	-200.000	-0.037	0.256
-589.938	-200.000	-0.063	0.292
-588.923	696.415	0.117	0.305
-587.909	125.084	-0.071	-0.089
-586.894	-111.719	-0.093	0.019
-585.879	259.422	-0.060	0.103
-584.865	301.692	0.069	-0.126
-583.850	139.665	0.123	-0.161
-582.836	800.000	-0.021	0.065
-581.821	-48.273	-0.301	0.144
-580.806	-27.722	-0.242	-0.139
-579.792	245.120	0.183	-0.305
-578.777	381.833	0.014	0.028
-577.763	-200.000	-0.033	0.161
-576.748	297.597	-0.225	0.410
-575.733	609.756	-0.132	0.327
-574.719	137.483	-0.121	0.157
-573.704	189.788	-0.129	-0.192
-572.690	327.366	-0.012	0.023
-571.675	331.705	0.075	0.144
-570.661	182.412	-0.084	-0.122
-569.646	-18.200	-0.181	-0.112
-568.631	-200.000	-0.009	-0.201
-567.617	-108.003	0.199	-0.043
-566.602	-25.234	-0.270	0.159
-565.588	-44.557	0.161	-0.080
-564.573	-44.420	0.036	0.018
-563.558	418.333	-0.038	0.081
-562.544	-138.228	-0.321	-0.035
-561.529	130.002	0.048	0.061
-560.515	493.841	0.021	-0.047
-559.500	-133.615	-0.110	0.014
-558.485	13.656	-0.301	-0.232
-557.471	484.375	-0.028	-0.063
-556.456	-200.000	-0.002	-0.030
-555.442	2.468	-0.052	-0.038
-554.427	-94.992	0.046	-0.012
-553.412	413.822	0.114	0.241
-552.398	-118.212	-0.134	-0.024
-551.383	-11.500	-0.032	0.021
-550.369	-101.858	0.117	-0.028
-549.354	800.000	0.072	-0.269
-548.339	68.290	0.164	0.167
-547.325	-200.000	0.051	0.431
-546.310	-200.000	-0.003	0.335
-545.296	-125.733	0.273	0.041
-544.281	-134.970	-0.391	0.047
-543.266	-134.587	0.313	0.038
-542.252	289.340	0.144	-0.259
-541.237	74.264	-0.040	0.041
-540.223	-200.000	0.045	-0.198
-539.208	-183.614	-0.216	0.004
-538.193	374.772	-0.219	0.442
-537.179	800.000	0.080	-0.315
-536.164	-200.000	-0.026	-0.261
-535.150	-53.141	-0.203	0.092
-534.135	-125.001	-0.192	-0.029
-533.121	-43.206	0.249	-0.125
-532.106	-200.000	-0.003	-0.028
-531.091	-139.732	0.298	-0.031
-530.077	-47.572	0.152	-0.073
-529.062	8.674	-0.226	0.169
-528.048	-12.400	0.344	-0.222
-527.033	550.269	0.082	0.195
-526.018	-129.835	-0.226	-0.031
-525.004	275.398	0.034	-0.060
-523.989	-89.416	0.127	0.037
-522.975	-200.000	-0.000	0.158
-521.960	-200.000	-0.029	-0.136
-520.945	-161.541	-0.244	0.012
-519.931	-178.417	-0.281	0.006
-518.916	-99.284	0.190	-0.047
-517.902	-200.000	-0.002	0.189
-516.887	-70.386	0.329	-0.124
-515.872	-33.925	-0.161	0.088
-514.858	57.012	0.122	0.118
-513.843	255.987	0.162	0.276
-512.829	-66.031	0.378	-0.149
-511.814	-190.238	-0.226	0.002
-510.799	98.235	-0.086	-0.099
-509.785	-127.975	0.072	0.010
-508.770	203.266	-0.142	0.217
-507.756	55.391	-0.087	0.084
-506.741	258.167	0.158	0.269
-505.726	61.436	-0.173	0.170
-504.712	-106.437	-0.107	-0.024
-503.697	-200.000	-0.029	0.165
-502.683	-24.101	-0.186	0.110
-501.668	153.078	0.078	-0.106
-500.653	-36.421	-0.126	0.067
-499.639	-73.428	-0.059	0.021
-498.624	-129.066	-0.373	0.052
-497.610	670.305	-0.051	0.131
-496.595	-200.000	0.054	0.349
-495.581	-137.225	-0.150	0.017
-494.566	-171.349	0.503	-0.017
-493.551	-200.000	0.025	0.135
-492.537	-80.098	-0.351	0.116
-491.522	-66.590	-0.153	-0.060
-490.508	-66.590	0.114	-0.045
-489.493	-150.999	-0.325	-0.024
-488.478	1.832	0.056	-0.040
-487.464	-145.220	-0.284	-0.025
-486.449	-113.060	0.225	-0.044
-485.435	333.329	0.040	-0.076
-484.420	41.039	0.158	0.141
-483.405	800.000	-0.033	0.121
-482.391	-138.274	-0.162	-0.018
-481.376	-4.868	0.209	-0.142
-480.362	800.000	-0.056	-0.158
-479.347	269.418	0.132	-0.229
-478.332	108.058	-0.050	-0.059
-477.318	246.388	0.232	0.387
-476.303	175.816	-0.199	0.285
-475.289	340.601	-0.067	0.129
-474.274	153.779	0.090	0.121
-473.259	-12.866	-0.176	-0.114
-472.245	20.316	-0.331	0.264
-471.230	800.000	-0.061	0.188
-470.216	-142.026	0.158	0.016
-469.201	492.635	0.114	0.259
-468.186	145.374	-0.155	0.205
-467.172	-200.000	-0.021	0.114
-466.157	100.346	-0.106	-0.121
-465.143	-73.851	0.091	0.033
-464.128	28.765	-0.163	-0.136
-463.113	-40.649	-0.110	-0.057
-462.099	800.000	-0.069	-0.293
-461.084	-91.498	-0.127	-0.036
-460.070	37.103	-0.229	0.200
-459.055	-129.333	0.101	-0.014
-458.040	-58.328	0.177	0.076
-457.026	-200.000	0.014	-0.185
-456.011	-168.424	-0.260	-0.010
-454.997	-131.813	0.171	-0.022
-453.982	-200.000	-0.015	0.079
-452.968	-96.890	0.154	-0.040
-451.953	-200.000	-0.002	-0.050
-450.938	-24.665	-0.574	-0.337
-449.924	554.431	0.009	-0.022
-448.909	728.162	-0.138	0.364
-447.895	-94.051	0.050	-0.014
-446.880	800.000	0.035	0.105
-445.865	-90.085	-0.156	0.045
-444.851	114.017	0.144	0.173
-443.836	-200.000	-0.004	0.024
-442.822	0.687	0.231	-0.163
-441.807	56.853	0.163	-0.156
-440.792	-200.000	-0.014	-0.189
-439.778	-174.433	0.082	0.002
-438.763	479.439	-0.099	0.221
-437.749	-90.263	-0.184	0.053
-436.734	55.423	0.211	0.201
-435.719	-200.000	0.067	-0.533
-434.705	-9.475	0.287	-0.189
-433.690	-94.951	0.378	-0.101
-432.676	800.000	0.109	-0.324
-431.661	220.982	-0.226	0.357
-430.646	50.656	-0.194	0.181
-429.632	-78.127	-0.385	0.130
-428.617	-200.000	-0.050	-0.274
-427.603	-26.498	0.139	0.080
-426.588	-200.000	0.051	-0.325
-425.573	282.927	0.135	-0.239
-424.559	738.277	0.039	0.102
-423.544	-100.053	-0.304	-0.075
-422.530	-85.859	-0.281	0.086
-421.515	71.616	-0.103	0.105
-420.500	-115.021	-0.331	0.062
-419.486	-149.502	-0.264	0.021
-418.471	-200.000	0.058	-0.291
-417.457	-90.905	-0.086	-0.024
-416.442	-200.000	0.003	0.319
-415.428	-200.000	0.038	0.169
-414.413	-200.000	-0.019	-0.385
-413.398	-119.143	0.280	0.048
-412.384	115.299	0.090	-0.109
-411.369	-102.517	-0.437	0.103
-410.355	-200.000	0.013	-0.233
-409.340	-200.000	0.024	-0.157
-408.325	-200.000	0.040	0.207
-407.311	38.442	-0.142	-0.125
-406.296	-77.346	-0.163	0.056
-405.282	235.339	-0.101	0.165
-404.267	384.885	0.132	0.269
-403.252	-68.862	0.234	-0.089
-402.238	-74.693	0.394	-0.139
-401.223	723.015	0.089	0.233
-400.209	-200.000	0.015	0.078
-399.194	334.578	0.171	-0.326
-398.179	-97.243	-0.146	0.038
-397.165	-200.000	-0.039	0.173
-396.150	-200.000	0.008	0.218
-395.136	637.035	-0.029	-0.073
-394.121	-200.000	-0.014	-0.332
-393.106	22.173	0.214	0.172
-392.092	-200.000	-0.016	-0.305
-391.077	516.753	-0.054	-0.124
-390.063	-179.690	0.039	0.001
-389.048	69.154	-0.076	-0.077
-388.033	544.205	0.219	-0.515
-387.019	230.723	0.064	-0.103
-386.004	-107.160	0.183	0.040
-384.990	800.000	0.123	-0.453
-383.975	-200.000	-0.008	0.131
-382.960	-200.000	-0.019	0.182
-381.946	-80.167	-0.226	-0.074
-380.931	21.847	-0.182	0.146
-379.917	-200.000	-0.070	-0.321
-378.902	-2.459	0.003	0.002
-377.888	-115.286	-0.062	-0.011
-376.873	-57.463	0.358	-0.155
-375.858	307.707	0.051	0.093
-374.844	78.134	-0.287	0.302
-373.829	449.768	-0.058	-0.126
-372.815	-31.214	0.364	0.202
-371.800	53.525	0.060	-0.057
-370.785	270.368	0.138	-0.239
-369.771	-88.476	0.333	-0.098
-368.756	17.141	0.241	0.188
-367.742	800.000	0.034	0.133
-366.727	-104.363	-0.434	-0.099
-365.712	-49.938	-0.188	0.088
-364.698	-68.547	0.158	-0.060
-363.683	-31.824	0.126	0.069
-362.669	-54.666	-0.399	-0.177
-361.654	41.453	-0.059	-0.052
-360.639	-200.000	-0.021	-0.311
-359.625	-103.053	0.253	-0.059
-358.610	800.000	-0.026	0.073
-357.596	-104.454	0.093	0.021
-356.581	413.554	0.176	-0.369
-355.566	169.602	0.114	-0.160
-354.552	800.000	-0.024	0.068
-353.537	-200.000	-0.073	0.334
-352.523	-12.377	0.165	0.106
-351.508	800.000	-0.033	0.097
-350.493	-200.000	0.021	0.092
-349.479	212.322	0.169	0.262
-348.464	800.000	-0.123	-0.446
-347.450	-32.259	-0.067	0.037
-346.435	172.574	0.035	0.050
-345.420	-56.309	0.137	-0.060
-344.406	57.007	0.135	0.130
-343.391	-44.011	-0.268	-0.132
-342.377	800.000	-0.044	0.157
-341.362	100.509	0.166	0.189
-340.348	190.952	0.151	-0.223
-339.333	-200.000	0.033	0.402
-338.318	400.072	0.090	0.186
-337.304	-120.084	0.086	0.014
-336.289	-43.499	0.202	0.100
-335.275	6.195	-0.127	0.092
-334.260	-58.585	-0.491	0.209
-333.245	-157.128	-0.031	-0.002
-332.231	-200.000	-0.004	-0.108
-331.216	-67.588	0.283	-0.109
-330.202	108.681	-0.154	0.180
-329.187	-200.000	-0.036	0.191
-328.172	256.313	-0.036	-0.060
-327.158	800.000	-0.046	0.149
-326.143	-200.000	-0.052	-0.243
-325.129	75.300	-0.135	0.140
-324.114	-176.354	0.260	0.007
-323.099	-200.000	-0.011	0.108
-322.085	792.349	-0.145	0.392
-321.070	-98.607	0.194	-0.049
-320.056	4.892	0.096	-0.069
-319.041	516.448	0.052	-0.120
-318.026	-31.123	-0.117	0.065
-317.012	-74.128	0.223	-0.079
-315.997	-8.889	-0.089	0.058
-314.983	-142.722	0.242	0.023
-313.968	800.000	0.067	0.230
-312.953	-200.000	0.007	0.268
-311.939	-71.800	0.166	0.061
-310.924	401.281	-0.104	-0.214
-309.910	10.950	0.340	0.255
-308.895	141.305	0.138	-0.179
-307.880	223.205	-0.063	-0.100
-306.866	-20.522	0.139	0.084
-305.851	422.618	-0.074	0.157
-304.837	-158.505	0.308	0.017
-303.822	-111.631	0.152	0.030
-302.807	-102.255	-0.159	-0.038
-301.793	129.897	-0.072	-0.091
-300.778	79.244	0.053	0.056
-299.764	43.478	0.214	-0.192
-298.749	-200.000	-0.097	0.496
-297.735	800.000	-0.110	-0.354
-296.720	277.007	0.163	-0.284
-295.705	247.889	0.140	-0.232
-294.691	-200.000	-0.015	-0.126
-293.676	-83.198	0.333	-0.105
-292.662	540.957	-0.011	0.026
-291.647	-4.634	0.299	0.203
-290.632	510.557	-0.065	-0.148
-289.618	158.838	-0.194	0.264
-288.603	-74.450	-0.265	0.094
-287.589	800.000	-0.100	-0.310
-286.574	-103.686	0.189	0.043
-285.559	-200.000	-0.030	0.228
-284.545	57.236	-0.060	-0.058
-283.530	-162.644	-0.132	0.006
-282.516	800.000	0.034	0.111
-281.501	-169.171	-0.374	0.014
-280.486	164.038	-0.214	0.296
-279.472	9.156	0.136	-0.101
-278.457	6.680	-0.243	-0.178
-277.443	-69.959	-0.142	-0.053
-276.428	43.541	0.120	-0.107
-275.413	81.985	0.167	0.177
-274.399	-156.186	0.083	0.005
-273.384	46.395	0.229	-0.208
-272.370	-59.144	0.575	0.243
-271.355	-50.517	-0.119	0.055
-270.340	-1.541	0.097	0.067
-269.326	-164.294	-0.141	0.006
-268.311	-51.391	0.265	-0.121
-267.297	-81.327	-0.134	0.043
-266.282	-146.917	0.205	-0.017
-265.267	88.115	-0.315	0.342
-264.253	-36.879	0.222	-0.117
-263.238	-103.990	0.205	-0.047
-262.224	-75.078	0.224	0.078
-261.209	-89.753	0.378	0.109
-260.195	-200.000	0.007	-0.342
-259.180	79.946	-0.394	-0.415
-258.165	43.343	0.082	0.074
-257.151	-1.599	-0.150	-0.104
-256.136	-200.000	-0.019	-0.148
-255.122	-73.081	-0.215	-0.077
-254.107	76.404	-0.097	0.101
-253.092	-118.850	-0.066	-0.011
-252.078	-47.430	0.101	-0.048
-251.063	-48.562	-0.252	0.118
-250.049	96.104	0.198	-0.222
-249.034	-107.417	-0.031	-0.007
-248.019	-67.589	0.308	-0.118
-247.005	-200.000	-0.007	-0.064
-245.990	-156.044	-0.119	0.007
-244.976	-43.873	0.075	-0.037
-243.961	398.905	-0.053	0.108
-242.946	800.000	-0.130	-0.369
-241.932	-32.277	-0.098	-0.054
-240.917	-73.758	0.189	0.067
-239.903	78.851	-0.111	-0.116
-238.888	-200.000	-0.061	-0.317
-237.873	-200.000	0.003	0.036
-236.859	109.808	-0.387	0.455
-235.844	-100.277	-0.167	-0.041
-234.830	-134.749	-0.368	0.044
-233.815	-75.155	-0.312	0.109
-232.800	71.710	-0.281	-0.286
-231.786	-35.859	0.327	0.173
-230.771	455.838	-0.163	-0.353
-229.757	-34.801	-0.081	-0.043
-228.742	303.204	-0.111	-0.202
-227.727	109.873	0.136	0.160
-226.713	-0.913	-0.211	-0.146
-225.698	-194.799	0.124	-0.001
-224.684	-48.561	0.064	-0.030
-223.669	-107.453	0.122	-0.026
-222.655	800.000	-0.131	-0.365
-221.640	-27.746	-0.184	-0.104
-220.625	171.209	-0.175	-0.245
-219.611	-111.657	-0.168	-0.033
-218.596	-200.000	-0.046	-0.224
-217.582	246.339	0.254	-0.419
-216.567	-61.254	0.280	0.115
-215.552	800.000	0.083	0.298
-214.538	-200.000	0.032	0.262
-213.523	800.000	-0.079	0.302
-212.509	47.555	0.260	0.237
-211.494	28.155	0.299	0.247
-210.479	-53.374	0.324	-0.145
-209.465	-71.010	-0.239	0.088
-208.450	800.000	0.108	0.305
-207.436	64.441	0.136	-0.134
-206.421	297.292	0.195	0.349
-205.406	-150.763	-0.182	-0.014
-204.392	-94.899	0.050	0.013
-203.377	129.504	0.236	-0.295
-202.363	234.616	0.135	0.218
-201.348	87.671	0.290	-0.314
-200.333	152.606	0.019	-0.026
-199.319	-200.000	0.032	0.445
-198.304	-110.226	0.094	0.019
-197.290	-200.000	0.027	-0.447
-196.275	-155.074	-0.019	-0.001
-195.260	-5.606	-0.034	-0.023
-194.246	-21.482	0.197	0.118
-193.231	-177.080	0.222	0.005
-192.217	133.119	0.048	0.061
-191.202	-154.719	0.242	0.016
-190.187	598.620	0.064	-0.155
-189.173	-200.000	-0.048	-0.343
-188.158	800.000	0.069	0.228
-187.144	14.622	0.309	0.236
-186.129	42.786	0.238	-0.212
-185.114	-200.000	0.048	0.311
-184.100	446.646	0.050	0.107
-183.085	-200.000	-0.011	-0.097
-182.071	365.970	-0.017	-0.034
-181.056	-49.219	-0.250	0.117
-180.042	-159.297	-0.132	0.007
-179.027	-123.656	0.175	-0.027
-178.012	-96.711	0.058	0.015
-176.998	-30.253	-0.215	-0.119
-175.983	-200.000	-0.005	0.073
-174.969	315.628	0.128	0.236
-173.954	-132.628	-0.175	0.022
-172.939	61.879	-0.191	0.186
-171.925	674.131	-0.146	-0.369
-170.910	-143.900	-0.185	0.017
-169.896	33.033	0.315	-0.267
-168.881	141.491	0.071	0.091
-167.866	316.959	-0.136	0.251
-166.852	-6.245	0.195	0.130
-165.837	145.513	-0.127	-0.166
-164.823	-200.000	0.041	-0.251
-163.808	11.872	-0.211	0.158
-162.793	-138.526	-0.153	0.016
-161.779	-144.111	0.058	0.005
-160.764	-80.041	-0.354	-0.116
-159.750	42.394	0.097	-0.086
-158.735	-27.918	-0.282	-0.159
-157.720	-200.000	-0.012	-0.091
-156.706	12.675	-0.099	-0.074
-155.691	-51.620	0.237	0.108
-154.677	-200.000	-0.037	-0.205
-153.662	34.270	0.119	0.101
-152.647	399.695	-0.132	-0.270
-151.633	-92.358	0.204	-0.056
-150.618	800.000	0.092	0.262
-149.604	-164.784	0.281	-0.012
-148.589	80.734	0.240	0.253
-147.574	-200.000	0.062	-0.452
-146.560	-102.345	-0.201	0.047
-145.545	125.024	0.176	0.216
-144.531	-2.187	-0.313	0.214
-143.516	-200.000	-0.024	0.129
-142.502	-200.000	0.029	-0.128
-141.487	-100.317	0.231	0.056
-140.472	-64.509	-0.181	-0.072
-139.458	540.235	0.131	-0.305
-138.443	692.476	-0.071	0.181
-137.429	-135.569	0.064	0.007
-136.414	45.949	0.169	-0.153
-135.399	-200.000	0.007	0.081
-134.385	191.344	-0.170	0.250
-133.370	13.275	0.180	-0.136
-132.356	-133.831	-0.162	0.020
-131.341	-49.904	0.211	-0.098
-130.326	81.076	0.274	0.288
-129.312	18.060	-0.250	0.194
-128.297	-103.886	-0.188	0.043
-127.283	800.000	0.071	0.226
-126.268	32.921	-0.255	-0.215
-125.253	800.000	0.078	-0.213
-124.239	-164.027	-0.119	-0.005
-123.224	800.000	0.090	-0.345
-122.210	21.853	0.222	-0.176
-121.195	-183.448	-0.134	-0.002
-120.180	331.923	0.031	-0.058
-119.166	-11.206	0.203	0.130
-118.151	119.672	0.155	-0.187
-117.137	-25.051	0.167	-0.096
-116.122	-39.180	0.282	0.144
-115.107	361.489	0.119	-0.232
-114.093	-200.000	-0.028	-0.175
-113.078	-200.000	0.033	0.344
-112.064	800.000	-0.154	-0.459
-111.049	-179.273	-0.142	0.003
-110.034	27.309	0.161	-0.132
-109.020	-29.227	0.157	-0.087
-108.005	800.000	0.062	-0.192
-106.991	14.788	0.194	0.147
-105.976	-39.026	-0.188	0.096
-104.962	-109.861	-0.060	0.012
-103.947	108.254	-0.081	-0.094
-102.932	17.413	0.157	-0.122
-101.918	-74.656	-0.094	0.033
-100.903	65.577	0.263	0.260
-99.889	-49.048	-0.147	0.069
-98.874	27.719	0.203	-0.166
-97.859	800.000	0.094	-0.306
-96.845	148.939	-0.147	0.194
-95.830	-122.913	0.204	-0.032
-94.816	-200.000	0.045	0.291
-93.801	-155.729	0.144	0.009
-92.786	245.681	0.073	-0.120
-91.772	13.583	-0.288	0.217
-90.757	118.113	0.239	0.287
-89.743	-200.000	-0.046	0.300
-88.728	-200.000	0.032	-0.323
-87.713	89.902	-0.059	-0.064
-86.699	-48.165	0.136	-0.064
-85.684	-200.000	-0.017	0.160
-84.670	800.000	-0.029	0.091
-83.655	-61.293	0.185	-0.076
-82.640	93.643	0.203	0.224
-81.626	800.000	-0.054	-0.205
-80.611	-48.398	0.329	0.154
-79.597	-200.000	0.010	0.271
-78.582	-178.317	-0.063	0.001
-77.567	-105.471	0.387	-0.085
-76.553	-200.000	0.010	-0.307
-75.538	800.000	0.055	0.229
-74.524	-21.038	-0.168	-0.100
-73.509	-184.424	0.246	-0.004
-72.494	476.507	0.054	0.120
-71.480	800.000	0.128	-0.361
-70.465	52.721	0.209	-0.194
-69.451	17.758	-0.210	-0.162
-68.436	-119.736	-0.036	-0.006
-67.422	-31.325	0.145	-0.079
-66.407	-29.207	-0.128	-0.071
-65.392	130.724	-0.127	-0.158
-64.378	-200.000	0.021	-0.166
-63.363	353.950	0.153	0.295
-62.349	800.000	0.075	0.276
-61.334	69.766	-1.217	-1.220
-60.319	77.858	0.502	0.520
-59.305	-200.000	-0.306	-1.322
-58.290	198.636	0.924	1.374
-57.276	372.760	0.732	1.446
-56.261	-200.000	125.426	670.882
-55.246	433.796	1568.416	3310.082
-54.232	143.865	2729.105	3535.411
-53.217	91.164	2289.187	2496.475
-52.203	32.316	1898.723	1592.689
-51.188	26.272	1696.282	1376.918
-50.173	24.273	1656.996	1330.078
-49.159	46.278	1726.768	1554.847
-48.144	43.616	1738.800	1545.313
-47.130	26.037	1689.368	1369.308
-46.115	23.351	1674.430	1336.907
-45.100	23.223	1669.327	1331.815
-44.086	23.153	1666.778	1329.205
-43.071	23.200	1664.435	1327.636
-42.057	23.141	1662.286	1325.423
-41.042	23.241	1660.041	1324.334
-40.027	23.119	1658.326	1322.001
-39.013	23.188	1656.221	1320.785
-37.998	23.171	1655.122	1319.729
-36.984	23.126	1653.950	1318.409
-35.969	23.307	1652.436	1318.497
-34.954	23.318	1650.640	1317.092
-33.940	23.235	1649.854	1315.791
-32.925	23.276	1647.193	1313.923
-31.911	23.294	1645.781	1312.881
-30.896	23.205	1644.449	1311.103
-29.881	23.184	1642.506	1309.345
-28.867	23.302	1640.986	1308.954
-27.852	23.242	1640.090	1307.750
-26.838	23.348	1638.022	1306.830
-25.823	23.340	1636.525	1305.520
-24.809	23.393	1635.857	1305.328
-23.794	23.329	1634.743	1303.915
-22.779	23.329	1633.081	1302.541
-21.765	23.319	1631.404	1301.074
-20.750	23.415	1628.858	1299.696
-19.736	23.352	1628.455	1298.865
-18.721	23.305	1627.135	1297.413
-17.706	23.267	1625.639	1295.890
-16.692	23.306	1624.191	1294.973
-15.677	23.340	1622.657	1293.942
-14.663	23.263	1621.595	1292.488
-13.648	23.427	1619.818	1292.216
-12.633	23.312	1619.016	1290.683
-11.619	23.375	1616.566	1289.136
-10.604	23.307	1615.439	1287.697
-9.590	23.385	1613.876	1286.964
-8.575	23.354	1612.925	1285.932
-7.560	23.400	1611.667	1285.212
-6.546	23.283	1610.642	1283.491
-5.531	23.326	1609.480	1282.831
-4.517	23.340	1608.025	1281.721
-3.502	23.404	1606.688	1281.063
-2.487	23.334	1605.637	1279.666
-1.473	22.982	1593.202	1267.187
-0.458	19.966	1573.926	1230.403
0.556	14.929	1575.190	1199.143
1.571	12.722	1598.637	1200.809
2.586	12.479	1610.377	1207.733
3.600	11.498	1556.231	1160.054
4.615	6.318	1450.169	1046.534
5.629	1.191	1392.624	972.114
6.644	0.241	1385.255	960.830
7.659	0.179	1384.571	959.870
8.673	0.202	1383.547	959.225
9.688	0.028	1381.613	956.693
10.702	0.080	1377.607	954.162
11.717	2.608	1381.116	972.566
12.731	9.310	1391.903	1022.828
13.746	15.142	1400.257	1066.100
14.761	16.742	1402.183	1077.660
15.775	16.215	1399.947	1072.496
16.790	15.183	1397.230	1063.771
17.804	14.450	1394.856	1057.226
18.819	14.190	1393.291	1054.296
19.834	13.797	1392.540	1051.145
20.848	13.636	1391.030	1048.892
21.863	13.384	1389.745	1046.236
22.877	13.289	1388.594	1044.677
23.892	13.212	1387.567	1043.327
24.907	13.110	1387.161	1042.290
25.921	13.222	1386.133	1042.128
26.936	13.341	1384.605	1041.637
27.950	13.256	1383.897	1040.478
28.965	13.400	1383.092	1040.687
29.980	13.466	1381.782	1040.022
30.994	13.451	1381.455	1039.588
32.009	13.480	1380.159	1038.708
33.023	13.396	1379.483	1037.577
34.038	13.393	1378.241	1036.535
35.053	13.432	1376.900	1035.678
36.067	13.297	1376.042	1034.096
37.082	13.316	1374.817	1033.203
38.096	13.346	1373.722	1032.477
39.111	13.410	1372.818	1032.105
40.126	13.327	1372.047	1030.918
41.140	13.229	1371.127	1029.522
42.155	13.190	1371.057	1029.136
43.169	13.171	1370.749	1028.694
44.184	13.194	1370.349	1028.450
45.199	13.232	1370.090	1028.399
46.213	13.111	1369.756	1027.303
47.228	13.254	1368.418	1027.096
48.242	13.303	1367.486	1026.614
49.257	13.326	1365.591	1025.239
50.271	13.388	1363.889	1024.258
51.286	13.314	1362.886	1022.955
52.301	13.319	1361.488	1021.846
53.315	13.264	1360.638	1020.779
54.330	13.214	1359.682	1019.664
55.344	13.209	1358.202	1018.430
56.359	13.247	1356.712	1017.460
57.374	13.174	1356.229	1016.559
58.388	13.166	1355.363	1015.766
59.403	13.176	1354.990	1015.458
60.417	13.156	1353.574	1014.188
61.432	13.084	1353.285	1013.438
62.447	13.167	1351.990	1012.887
63.461	13.129	1350.664	1011.569
64.476	13.149	1349.879	1011.015
65.490	13.230	1348.599	1010.461
66.505	13.120	1347.026	1008.525
67.520	13.038	1346.036	1007.195
68.534	13.096	1344.571	1006.359
69.549	13.197	1343.769	1006.289
70.563	13.125	1342.657	1004.925
71.578	13.067	1341.471	1003.597
72.593	13.038	1340.766	1002.808
73.607	12.970	1340.116	1001.820
74.622	13.070	1339.082	1001.561
75.636	13.026	1338.349	1000.659
76.651	13.082	1337.132	1000.003
77.666	13.098	1336.783	999.745
78.680	13.149	1335.968	999.356
79.695	13.111	1335.307	998.544
80.709	13.116	1334.653	998.001
81.724	13.115	1333.439	996.999
82.739	13.205	1332.579	996.809
83.753	13.179	1331.438	995.711
84.768	13.332	1330.294	995.684
85.782	13.350	1328.861	994.632
86.797	13.252	1328.036	993.339
87.812	13.295	1326.335	992.237
88.826	13.173	1325.614	990.882
89.841	13.324	1324.455	990.828
90.855	13.307	1323.557	989.971
91.870	13.371	1322.435	989.424
92.884	13.408	1321.563	988.907
93.899	13.313	1321.064	987.879
94.914	13.472	1320.332	988.190
95.928	13.426	1319.720	987.374
96.943	13.382	1318.737	986.287
97.957	13.274	1318.124	985.096
98.972	13.396	1316.586	984.587
99.987	13.362	1315.329	983.359
101.001	13.399	1314.273	982.699
102.016	13.407	1313.580	982.146
103.030	13.314	1312.671	980.827
104.045	13.262	1312.162	980.048
105.060	13.272	1310.839	979.032
106.074	13.284	1309.422	977.960
107.089	13.153	1308.367	976.311
108.103	13.209	1306.772	975.364
109.118	13.275	1305.569	974.770
110.133	13.166	1304.319	973.109
111.147	13.184	1303.103	972.223
112.162	13.217	1301.584	971.194
113.176	13.342	1300.333	970.909
114.191	13.276	1299.694	969.962
115.206	13.346	1298.358	969.291
116.220	13.122	1297.410	967.181
117.235	13.271	1295.955	966.885
118.249	13.296	1294.586	965.923
119.264	13.290	1293.689	965.131
120.279	13.188	1292.454	963.533
121.293	13.209	1291.509	962.864
122.308	13.164	1290.646	961.873
123.322	13.289	1289.186	961.430
124.337	13.138	1288.443	959.908
125.352	13.193	1287.151	959.183
126.366	13.171	1286.210	958.269
127.381	13.186	1284.718	957.163
128.395	13.246	1283.632	956.612
129.410	13.166	1283.031	955.619
130.424	13.223	1282.499	955.469
131.439	13.225	1281.412	954.584
132.454	13.297	1280.134	953.961
133.468	13.364	1278.977	953.404
134.483	13.196	1278.951	952.333
135.497	13.264	1277.242	951.367
136.512	13.204	1276.091	950.078
137.527	13.247	1274.554	949.096
138.541	13.233	1273.284	947.986
139.556	13.289	1271.813	947.127
140.570	13.381	1270.772	946.797
141.585	13.442	1269.240	945.919
142.600	13.274	1268.979	944.682
143.614	13.487	1267.698	944.860
144.629	13.474	1266.623	943.903
145.643	13.499	1265.633	943.220
146.658	13.418	1263.973	941.442
147.673	13.354	1262.814	940.131
148.687	13.339	1261.650	939.098
149.702	13.409	1259.999	938.180
150.716	13.363	1258.928	937.042
151.731	13.396	1257.826	936.326
152.746	13.340	1256.834	935.185
153.760	13.486	1255.181	934.697
154.775	13.501	1254.119	933.910
155.789	13.603	1252.924	933.511
156.804	13.559	1252.276	932.698
157.819	13.594	1251.019	931.878
158.833	13.695	1249.687	931.368
159.848	13.617	1248.884	930.252
160.862	13.601	1247.949	929.378
161.877	13.578	1247.351	928.724
162.892	13.497	1246.111	927.266
163.906	13.520	1244.844	926.367
164.921	13.596	1243.897	926.007
165.935	13.563	1243.448	925.409
166.950	13.573	1242.391	924.596
167.964	13.591	1242.018	924.337
168.979	13.558	1241.066	923.362
169.994	13.697	1240.069	923.313
171.008	13.593	1239.376	922.133
172.023	13.610	1238.862	921.768
173.037	13.725	1237.452	921.275
174.052	13.608	1237.086	920.272
175.067	13.677	1235.946	919.724
176.081	13.601	1234.847	918.404
177.096	13.634	1234.264	918.070
178.110	13.759	1232.745	917.549
179.125	13.590	1231.592	915.676
180.140	13.731	1230.184	915.327
181.154	13.707	1229.322	914.474
182.169	13.754	1228.015	913.679
183.183	13.784	1226.906	912.937
184.198	13.837	1225.700	912.252
185.213	13.847	1225.039	911.733
186.227	13.771	1223.736	910.266
187.242	14.030	1222.626	910.778
188.256	13.810	1221.599	908.728
189.271	13.904	1220.129	908.073
190.286	13.823	1219.858	907.344
191.300	13.791	1218.447	906.041
192.315	13.858	1217.931	905.943
193.329	13.721	1217.244	904.607
194.344	13.692	1216.967	904.157
195.359	13.817	1216.094	904.112
196.373	13.886	1215.233	903.765
197.388	13.985	1214.977	904.034
198.402	14.028	1214.445	903.797
199.417	14.013	1213.649	903.041
200.432	13.960	1213.297	902.412
201.446	14.001	1212.112	901.670
202.461	14.126	1211.204	901.594
203.475	14.043	1210.415	900.479
204.490	14.053	1208.838	899.278
205.504	14.055	1207.588	898.281
206.519	14.108	1206.199	897.454
207.534	14.138	1204.760	896.463
208.548	14.009	1204.304	895.353
209.563	14.142	1203.273	895.220
210.577	14.192	1202.123	894.554
211.592	14.209	1201.665	894.227
212.607	14.218	1200.884	893.613
213.621	14.248	1199.680	892.801
214.636	14.251	1199.087	892.296
215.650	14.173	1198.276	891.199
216.665	14.212	1197.051	890.414
217.680	14.322	1195.887	890.061
218.694	14.356	1195.372	889.779
219.709	14.295	1194.875	889.007
220.723	14.232	1194.017	887.949
221.738	14.388	1193.155	888.062
222.753	14.357	1192.699	887.482
223.767	14.394	1192.109	887.161
224.782	14.411	1191.298	886.565
225.796	14.450	1190.068	885.779
226.811	14.361	1190.216	885.342
227.826	14.365	1189.321	884.617
228.840	14.442	1188.212	884.122
229.855	14.434	1187.775	883.679
230.869	14.394	1186.888	882.728
231.884	14.539	1186.101	882.831
232.899	14.438	1185.052	881.440
233.913	14.424	1184.583	880.934
234.928	14.460	1183.788	880.460
235.942	14.361	1183.433	879.593
236.957	14.414	1182.035	878.756
237.972	14.510	1181.441	878.743
238.986	14.465	1180.697	877.875
240.001	14.578	1179.973	877.854
241.015	14.508	1178.982	876.669
242.030	14.475	1178.222	875.855
243.045	14.539	1177.762	875.771
244.059	14.588	1176.797	875.234
245.074	14.512	1176.221	874.330
246.088	14.573	1175.146	873.770
247.103	14.619	1174.222	873.245
248.117	14.681	1173.919	873.269
249.132	14.744	1172.964	872.812
250.147	14.709	1172.411	872.138
251.161	14.700	1172.052	871.746
252.176	14.718	1171.206	871.135
253.190	14.824	1170.657	871.204
254.205	14.876	1170.016	870.919
255.220	15.030	1169.109	870.970
256.234	14.966	1168.640	870.211
257.249	14.885	1168.031	869.260
258.263	14.934	1167.387	868.955
259.278	14.979	1166.399	868.377
260.293	15.001	1165.885	868.031
261.307	15.047	1165.278	867.741
262.322	15.082	1164.036	866.920
263.336	15.073	1163.611	866.484
264.351	15.096	1163.418	866.377
265.366	15.182	1162.569	866.114
266.380	15.081	1162.141	865.200
267.395	15.066	1161.220	864.357
268.409	15.105	1160.240	863.753
269.424	15.152	1159.354	863.261
270.439	15.144	1159.150	862.989
271.453	15.069	1158.715	862.202
272.468	15.070	1157.491	861.221
273.482	15.081	1156.772	860.668
274.497	15.107	1156.355	860.417
275.512	15.101	1155.704	859.825
276.526	15.096	1154.778	859.031
277.541	15.193	1153.880	858.784
278.555	15.267	1153.201	858.584
279.570	15.335	1152.389	858.250
280.585	15.290	1151.719	857.447
281.599	15.299	1150.504	856.513
282.614	15.356	1149.613	856.063
283.628	15.285	1148.878	855.078
284.643	15.276	1147.976	854.283
285.657	15.245	1147.446	853.658
286.672	15.362	1145.524	852.747
287.687	15.406	1144.732	852.306
288.701	15.411	1144.373	851.986
289.716	15.472	1143.237	851.378
290.730	15.260	1142.881	849.960
291.745	15.353	1142.095	849.773
292.760	15.497	1141.102	849.686
293.774	15.443	1140.878	849.172
294.789	15.469	1140.107	848.655
295.803	15.522	1139.638	848.497
296.818	15.510	1139.047	847.922
297.833	15.517	1137.842	846.988
298.847	15.522	1137.345	846.566
299.862	15.533	1136.757	846.108
300.876	15.629	1135.693	845.724
301.891	15.497	1135.236	844.645
302.906	15.656	1134.838	845.073
303.920	15.612	1134.295	844.374
304.935	15.701	1133.093	843.849
305.949	15.736	1132.429	843.460
306.964	15.739	1131.985	843.069
307.979	15.713	1131.325	842.373
308.993	15.742	1130.354	841.720
310.008	15.726	1129.789	841.141
311.022	15.736	1129.323	840.771
312.037	15.837	1128.003	840.221
313.052	15.752	1127.550	839.382
314.066	15.747	1126.302	838.355
315.081	15.797	1125.301	837.785
316.095	15.800	1124.862	837.396
317.110	15.716	1124.113	836.348
318.125	15.663	1123.509	835.561
319.139	15.749	1122.699	835.313
320.154	15.696	1122.241	834.635
321.168	15.835	1121.622	834.790
322.183	15.890	1120.649	834.266
323.197	15.728	1120.213	833.063
324.212	15.768	1119.500	832.660
325.227	15.821	1119.298	832.696
326.241	15.801	1118.597	832.004
327.256	15.786	1117.984	831.400
328.270	15.882	1116.483	830.682
329.285	15.922	1115.452	830.040
330.300	15.896	1114.595	829.201
331.314	15.852	1113.616	828.184
332.329	15.808	1112.849	827.321
333.343	15.894	1112.398	827.336
334.358	15.842	1111.301	826.193
335.373	15.938	1110.383	825.905
336.387	15.941	1109.487	825.183
337.402	16.034	1109.060	825.250
338.416	16.076	1108.137	824.693
339.431	16.150	1107.474	824.488
340.446	16.149	1106.764	823.881
341.460	16.175	1106.247	823.549
342.475	16.141	1105.517	822.768
343.489	16.220	1104.269	822.154
344.504	16.308	1103.069	821.616
345.519	16.216	1102.903	820.972
346.533	16.257	1102.116	820.512
347.548	16.207	1101.301	819.587
348.562	16.318	1100.324	819.329
349.577	16.368	1099.429	818.834
350.592	16.192	1099.043	817.617
351.606	16.078	1098.251	816.407
352.621	16.204	1097.622	816.473
353.635	16.236	1096.864	815.992
354.650	16.258	1095.974	815.366
355.665	16.248	1095.359	814.790
356.679	16.294	1095.011	814.677
357.694	16.285	1094.262	814.006
358.708	16.375	1093.616	813.888
359.723	16.449	1093.082	813.775
360.738	16.411	1092.542	813.117
361.752	16.227	1092.022	811.774
362.767	16.425	1091.124	811.984
363.781	16.468	1090.465	811.628
364.796	16.430	1089.680	810.791
365.810	16.469	1089.162	810.519
366.825	16.590	1088.414	810.472
367.840	16.670	1087.993	810.470
368.854	16.638	1087.437	809.829
369.869	16.735	1086.711	809.685
370.883	16.617	1085.922	808.458
371.898	16.683	1085.168	808.144
372.913	16.711	1084.420	807.647
373.927	16.535	1084.573	806.847
374.942	16.735	1083.376	806.842
375.956	16.633	1083.122	806.093
376.971	16.712	1082.536	805.963
377.986	16.707	1082.006	805.475
379.000	16.765	1081.458	805.269
380.015	16.876	1080.827	805.257
381.029	16.834	1080.131	804.468
382.044	16.874	1079.415	804.051
383.059	16.924	1078.522	803.552
384.073	16.922	1077.839	802.961
385.088	16.825	1076.876	801.715
386.102	16.905	1076.060	801.415
387.117	16.897	1074.868	800.420
388.132	16.967	1074.077	800.090
389.146	16.964	1073.296	799.423
390.161	16.862	1072.689	798.417
391.175	16.961	1072.025	798.318
392.190	16.866	1071.297	797.261
393.205	16.892	1070.783	796.928
394.219	16.978	1069.930	796.629
395.234	17.015	1068.891	795.957
396.248	16.993	1067.804	794.973
397.263	16.988	1066.877	794.190
398.278	17.047	1066.072	793.796
399.292	16.994	1065.510	793.059
400.307	16.931	1065.040	792.348
401.321	16.973	1064.375	791.978
402.336	17.008	1063.476	791.404
403.350	17.027	1062.866	790.965
404.365	17.206	1061.926	791.029
405.380	17.071	1061.658	790.132
406.394	17.113	1061.095	789.839
407.409	17.130	1059.877	788.942
408.423	17.258	1059.091	788.882
409.438	17.177	1058.435	787.946
410.453	17.276	1057.841	787.896
411.467	17.260	1057.411	787.430
412.482	17.240	1056.825	786.830
413.496	17.314	1055.653	786.233
414.511	17.411	1054.901	786.049
415.526	17.316	1054.962	785.585
416.540	17.420	1054.441	785.611
417.555	17.576	1053.694	785.704
418.569	17.413	1053.442	784.693
419.584	17.444	1052.857	784.331
420.599	17.425	1052.595	783.979
421.613	108.222	1330.572	1488.043
422.628	99.680	1371.035	1488.130
