DTS Sentinel unit serial number:	SN413079Multiplexer serial number:	ORYXHardware model number:	OX4-SRSoftware version number:	ORYX F/W v4.00 Oryx Data Collector v3.7.2.0data status	okinstallation	princeton_trtdifferential loss correction	single-endedforward channel	channel 2reverse channel	N/Adate	2019/09/13time	03:03:34forward acquisition time	60.00reverse acquisition time	0.00gamma	496.2192k internal	0.2335k external	0.2335temperature offset calibration	1.0189default loss term (dB/km)	0.3790temperature slope calibration	1.0000multiplexer offset coefficient	1.0000multiplexer slope coefficient	1.0000fibre end	0.00T internal ref (°C)	27.42T ext. ref 1 (°C)	4.07T ext. ref 2 (°C)	22.18length (m)	temperature (°C)	Stokes	anti-Stokes-747.200	318.032	0.205	-0.390
-746.185	647.155	-0.246	0.633
-745.171	-70.969	-0.308	0.116
-744.156	800.000	-0.044	0.190
-743.142	-200.000	0.021	-0.212
-742.127	28.655	-0.230	-0.196
-741.112	-125.175	-0.323	0.050
-740.098	-138.758	-0.066	-0.007
-739.083	-163.775	-0.247	-0.012
-738.069	160.161	0.215	0.301
-737.054	-41.305	0.049	-0.025
-736.039	-153.106	-0.521	0.037
-735.025	23.235	0.194	0.160
-734.010	800.000	-0.084	0.313
-732.996	-96.680	-0.193	-0.051
-731.981	-200.000	-0.024	-0.365
-730.966	-108.821	-0.142	0.030
-729.952	-22.483	-0.049	0.030
-728.937	-140.889	-0.197	-0.020
-727.923	107.685	-0.039	-0.047
-726.908	-163.723	0.061	-0.003
-725.894	138.527	-0.090	0.119
-724.879	-200.000	-0.139	0.000
-723.864	306.562	0.041	0.076
-722.850	-90.242	-0.227	-0.066
-721.835	-161.807	0.093	-0.005
-720.821	-52.964	-0.202	-0.093
-719.806	264.879	-0.148	-0.258
-718.791	113.656	0.268	-0.326
-717.777	800.000	-0.072	0.269
-716.762	-41.983	0.151	-0.078
-715.748	724.450	-0.062	0.166
-714.733	-200.000	-0.014	-0.079
-713.718	-26.247	-0.211	-0.124
-712.704	-35.927	0.110	-0.060
-711.689	226.490	0.060	-0.098
-710.675	103.235	0.234	0.275
-709.660	-200.000	0.053	0.296
-708.645	49.161	0.096	0.090
-707.631	173.990	0.162	0.235
-706.616	40.838	-0.221	-0.200
-705.602	300.267	0.103	-0.190
-704.587	9.809	0.267	-0.203
-703.572	-92.726	0.132	0.037
-702.558	-200.000	0.002	0.182
-701.543	-200.000	0.042	-0.229
-700.529	501.932	0.065	-0.152
-699.514	-200.000	-0.002	-0.139
-698.499	100.100	0.119	0.139
-697.485	158.553	-0.221	-0.308
-696.470	246.908	-0.068	-0.115
-695.456	-200.000	-0.035	-0.212
-694.441	41.555	0.175	-0.159
-693.426	28.534	0.140	0.119
-692.412	-27.473	0.128	0.074
-691.397	-118.294	-0.096	0.017
-690.383	-139.695	-0.113	-0.012
-689.368	-116.659	0.099	-0.018
-688.354	-124.046	0.084	0.013
-687.339	-147.783	0.245	0.021
-686.324	-92.807	0.039	0.011
-685.310	-136.860	-0.222	-0.026
-684.295	-134.793	0.149	0.018
-683.281	-200.000	0.046	-0.398
-682.266	-76.299	0.113	-0.040
-681.251	-25.250	-0.299	-0.178
-680.237	-101.197	0.201	-0.049
-679.222	181.037	-0.109	-0.161
-678.208	-121.044	0.138	-0.023
-677.193	127.298	0.176	-0.224
-676.178	-29.606	-0.303	-0.174
-675.164	314.640	-0.055	0.103
-674.149	-169.599	-0.218	-0.008
-673.135	-9.779	-0.109	-0.073
-672.120	287.990	0.174	-0.315
-671.105	41.890	0.146	0.133
-670.091	-96.790	0.232	-0.061
-669.076	295.174	-0.153	-0.281
-668.062	348.215	-0.048	-0.095
-667.047	49.457	0.150	-0.141
-666.032	42.836	-0.159	0.145
-665.018	204.276	-0.110	-0.171
-664.003	103.814	-0.082	-0.096
-662.989	800.000	0.079	0.238
-661.974	-57.834	0.293	-0.128
-660.959	110.638	0.134	-0.161
-659.945	800.000	0.008	-0.030
-658.930	-93.785	-0.321	-0.089
-657.916	245.242	0.137	0.231
-656.901	-160.361	0.240	-0.013
-655.886	50.402	0.110	0.104
-654.872	544.981	0.101	-0.241
-653.857	34.759	0.150	-0.131
-652.843	-98.851	-0.199	-0.051
-651.828	-149.294	-0.369	0.029
-650.814	8.212	-0.132	0.099
-649.799	800.000	-0.051	-0.148
-648.784	800.000	0.091	-0.295
-647.770	146.743	0.055	0.075
-646.755	-141.951	-0.082	-0.008
-645.741	282.450	-0.153	0.275
-644.726	241.930	0.191	-0.319
-643.711	-109.576	-0.241	-0.051
-642.697	218.451	0.118	0.189
-641.682	-54.250	-0.506	-0.230
-640.668	800.000	-0.064	0.271
-639.653	216.655	-0.122	0.194
-638.638	-64.797	-0.110	0.044
-637.624	12.604	0.111	0.085
-636.609	-10.157	-0.289	-0.192
-635.595	-148.991	-0.032	-0.003
-634.580	800.000	-0.104	-0.322
-633.565	72.514	-0.198	-0.206
-632.551	508.259	0.085	0.198
-631.536	-129.843	-0.282	-0.039
-630.522	-200.000	-0.028	0.240
-629.507	800.000	-0.067	-0.190
-628.492	-17.337	0.110	-0.069
-627.478	63.823	-0.078	-0.079
-626.463	-51.727	-0.049	0.023
-625.449	140.370	0.114	-0.150
-624.434	-200.000	0.037	0.202
-623.419	-32.423	-0.262	-0.146
-622.405	213.085	-0.202	-0.319
-621.390	301.177	0.016	-0.030
-620.376	-200.000	-0.027	0.426
-619.361	-200.000	0.023	-0.155
-618.346	366.084	-0.055	-0.112
-617.332	623.784	0.067	-0.169
-616.317	127.531	0.041	-0.053
-615.303	-94.734	-0.054	-0.015
-614.288	447.934	-0.156	-0.344
-613.273	212.415	-0.202	0.319
-612.259	97.227	0.203	-0.233
-611.244	-161.733	0.077	-0.004
-610.230	262.302	-0.039	-0.068
-609.215	228.432	-0.139	0.226
-608.201	-200.000	0.006	-0.242
-607.186	-200.000	0.002	-0.107
-606.171	575.703	-0.097	-0.236
-605.157	800.000	0.077	0.231
-604.142	62.374	-0.086	0.086
-603.128	225.352	-0.153	-0.248
-602.113	500.617	0.107	0.247
-601.098	57.434	-0.057	-0.056
-600.084	800.000	0.102	-0.349
-599.069	225.533	0.178	0.289
-598.055	400.861	-0.095	-0.199
-597.040	800.000	-0.047	0.146
-596.025	-200.000	-0.033	0.282
-595.011	-135.422	-0.229	-0.027
-593.996	113.828	-0.094	-0.114
-592.982	156.884	0.121	-0.167
-591.967	-110.930	0.408	-0.084
-590.952	182.122	0.101	-0.149
-589.938	-167.956	-0.121	0.005
-588.923	-200.000	0.030	-0.203
-587.909	-4.030	-0.178	0.123
-586.894	202.918	0.133	-0.205
-585.879	231.499	0.216	0.353
-584.865	150.442	-0.125	-0.169
-583.850	105.685	0.103	-0.121
-582.836	-95.926	-0.150	-0.040
-581.821	800.000	-0.058	-0.163
-580.806	14.650	-0.229	0.178
-579.792	9.978	0.102	0.078
-578.777	-62.865	0.027	0.011
-577.763	-200.000	0.014	0.137
-576.748	-173.810	0.128	0.004
-575.733	52.527	-0.371	0.354
-574.719	13.608	-0.073	-0.057
-573.704	688.968	-0.087	0.227
-572.690	800.000	-0.051	0.153
-571.675	-200.000	0.023	0.270
-570.661	129.197	-0.078	0.099
-569.646	-80.794	0.220	0.073
-568.631	-51.176	0.186	-0.087
-567.617	-200.000	-0.005	-0.138
-566.602	-133.165	0.125	-0.016
-565.588	-98.619	-0.250	0.064
-564.573	-200.000	-0.000	-0.060
-563.558	44.368	-0.156	0.143
-562.544	-200.000	0.031	-0.183
-561.529	-62.685	0.181	0.075
-560.515	-130.869	0.076	-0.010
-559.500	365.440	-0.102	0.204
-558.485	-95.292	-0.223	0.060
-557.471	140.430	0.042	-0.056
-556.456	800.000	0.069	-0.289
-555.442	117.792	0.162	-0.199
-554.427	-75.136	-0.201	-0.072
-553.412	49.430	-0.166	-0.156
-552.398	-180.793	-0.120	-0.002
-551.383	105.245	0.057	0.067
-550.369	106.988	-0.092	-0.109
-549.354	-200.000	-0.391	0.001
-548.339	-88.997	0.420	-0.124
-547.325	50.676	0.176	-0.166
-546.310	-111.733	-0.174	-0.035
-545.296	-89.865	0.348	-0.101
-544.281	-200.000	0.055	0.263
-543.266	-200.000	-0.066	0.493
-542.252	146.581	0.055	0.073
-541.237	-200.000	0.027	-0.254
-540.223	-200.000	-0.035	-0.348
-539.208	-200.000	-0.041	0.281
-538.193	-200.000	0.024	0.118
-537.179	542.437	-0.045	-0.108
-536.164	9.561	-0.266	-0.201
-535.150	-164.439	0.340	-0.015
-534.135	101.771	0.146	-0.170
-533.121	-5.305	-0.112	-0.077
-532.106	-92.312	0.070	-0.020
-531.091	80.858	-0.097	0.104
-530.077	59.646	-0.072	-0.071
-529.062	-3.217	0.235	-0.163
-528.048	-200.000	-0.004	0.027
-527.033	-64.112	0.070	0.028
-526.018	481.404	0.114	0.258
-525.004	-16.263	-0.210	-0.133
-523.989	712.039	0.042	-0.112
-522.975	-78.009	0.127	-0.044
-521.960	800.000	0.067	0.247
-520.945	-200.000	-0.007	-0.106
-519.931	-138.166	-0.218	0.024
-518.916	417.109	0.052	-0.110
-517.902	23.102	-0.198	0.162
-516.887	-52.899	0.037	-0.017
-515.872	-104.285	0.274	0.063
-514.858	-94.025	0.356	-0.097
-513.843	147.870	0.225	-0.302
-512.829	20.933	-0.169	-0.137
-511.814	-200.000	0.013	0.272
-510.799	-28.772	0.239	0.137
-509.785	420.957	0.044	-0.094
-508.770	-49.758	0.194	0.092
-507.756	58.899	0.118	-0.115
-506.741	341.249	-0.060	0.117
-505.726	-1.600	-0.142	0.099
-504.712	-109.788	-0.052	0.011
-503.697	68.963	0.093	0.096
-502.683	-168.440	-0.393	-0.015
-501.668	-200.000	0.085	-0.403
-500.653	-155.087	-0.232	0.015
-499.639	116.782	-0.134	0.163
-498.624	-200.000	0.055	-0.273
-497.610	-111.992	-0.246	0.049
-496.595	800.000	0.008	-0.029
-495.581	600.873	-0.119	0.293
-494.566	442.883	0.020	-0.044
-493.551	-54.095	-0.059	-0.027
-492.537	119.845	-0.167	-0.206
-491.522	83.533	0.083	-0.090
-490.508	156.842	0.124	0.170
-489.493	578.162	-0.183	-0.446
-488.478	-200.000	-0.003	0.103
-487.464	-126.061	-0.093	-0.014
-486.449	3.587	-0.362	-0.263
-485.435	-137.898	-0.300	0.033
-484.420	-57.049	-0.466	0.204
-483.405	142.554	0.163	-0.215
-482.391	129.223	0.126	-0.160
-481.376	800.000	0.070	0.196
-480.362	123.432	0.172	0.215
-479.347	49.673	-0.027	-0.025
-478.332	122.417	-0.115	0.142
-477.318	-200.000	-0.025	0.272
-476.303	-132.848	-0.211	0.027
-475.289	-101.330	0.528	0.128
-474.274	-52.419	0.285	-0.131
-473.259	-20.859	-0.168	0.102
-472.245	39.189	-0.095	-0.085
-471.230	771.234	0.080	0.215
-470.216	800.000	-0.019	-0.074
-469.201	153.281	0.141	-0.192
-468.186	230.804	-0.049	0.079
-467.172	186.191	0.058	0.086
-466.157	-28.835	-0.243	-0.139
-465.143	252.146	0.147	0.249
-464.128	-88.656	0.352	-0.104
-463.113	-78.493	0.058	-0.020
-462.099	-200.000	-0.072	0.408
-461.084	0.440	0.248	0.176
-460.070	800.000	0.047	-0.189
-459.055	72.156	-0.175	0.181
-458.040	-148.693	-0.186	-0.015
-457.026	26.574	0.187	0.156
-456.011	-132.660	0.263	0.033
-454.997	-200.000	-0.094	-0.437
-453.982	171.494	-0.143	-0.205
-452.968	-200.000	0.021	0.260
-451.953	-107.150	-0.086	0.019
-450.938	78.772	-0.217	-0.231
-449.924	-129.517	0.091	-0.012
-448.909	-200.000	0.056	0.248
-447.895	38.821	-0.352	-0.312
-446.880	488.051	0.083	-0.188
-445.865	-94.905	0.086	-0.023
-444.851	-68.580	0.052	0.020
-443.836	800.000	-0.053	0.213
-442.822	-200.000	0.005	0.171
-441.807	800.000	0.062	-0.218
-440.792	-7.000	0.091	0.061
-439.778	-200.000	0.034	0.261
-438.763	-200.000	-0.017	-0.158
-437.749	-194.076	-0.166	-0.001
-436.734	-200.000	-0.081	0.000
-435.719	179.716	0.131	0.191
-434.705	-103.676	-0.259	0.060
-433.690	485.663	0.016	0.037
-432.676	68.935	-0.232	0.236
-431.661	-115.093	0.225	-0.042
-430.646	66.289	-0.140	-0.141
-429.632	-21.474	-0.280	0.170
-428.617	24.962	0.219	0.180
-427.603	-200.000	-0.024	-0.214
-426.588	128.587	-0.173	0.218
-425.573	800.000	-0.196	0.570
-424.559	800.000	-0.048	0.141
-423.544	74.918	0.225	-0.235
-422.530	695.355	0.069	-0.180
-421.515	-77.128	0.319	0.110
-420.500	296.775	0.054	-0.099
-419.486	-182.456	-0.026	-0.000
-418.471	12.369	-0.274	-0.209
-417.457	-84.779	0.149	-0.047
-416.442	-34.691	0.275	-0.149
-415.428	800.000	-0.034	-0.105
-414.413	800.000	-0.021	0.076
-413.398	800.000	-0.015	-0.060
-412.384	203.737	-0.270	-0.415
-411.369	-70.881	0.216	0.081
-410.355	-42.877	0.351	-0.177
-409.340	800.000	-0.049	-0.137
-408.325	-123.494	0.225	0.036
-407.311	650.782	0.099	0.253
-406.296	-200.000	-0.017	0.217
-405.282	5.987	-0.180	0.133
-404.267	95.579	-0.111	0.125
-403.252	-186.389	0.282	-0.004
-402.238	115.971	-0.074	0.090
-401.223	-200.000	-0.011	0.185
-400.209	-113.079	0.383	0.075
-399.194	-40.837	0.123	0.063
-398.179	543.112	-0.136	-0.321
-397.165	347.800	0.063	-0.122
-396.150	-79.401	0.148	-0.050
-395.136	476.370	-0.062	0.139
-394.121	-200.000	0.017	-0.119
-393.106	-154.917	-0.186	0.012
-392.092	167.241	0.183	-0.258
-391.077	-108.976	-0.107	0.023
-390.063	800.000	0.025	-0.083
-389.048	-15.784	-0.105	-0.066
-388.033	267.499	0.067	0.116
-387.019	-115.373	0.161	0.030
-386.004	-200.000	-0.006	0.483
-384.990	227.992	0.078	0.126
-383.975	-140.892	0.034	-0.003
-382.960	-154.153	-0.266	-0.018
-381.946	800.000	-0.055	-0.167
-380.931	138.831	-0.087	0.113
-379.917	3.184	-0.030	0.022
-378.902	99.402	0.132	-0.151
-377.888	-200.000	-0.003	0.018
-376.873	-200.000	0.025	0.221
-375.858	576.930	0.103	0.250
-374.844	105.592	0.112	-0.131
-373.829	-200.000	0.071	0.389
-372.815	604.548	0.169	0.417
-371.800	-32.937	0.132	0.073
-370.785	800.000	0.078	0.245
-369.771	-95.293	-0.302	0.080
-368.756	161.127	0.077	-0.106
-367.742	-99.408	-0.173	0.043
-366.727	147.852	-0.066	-0.088
-365.712	800.000	-0.093	0.336
-364.698	105.770	0.100	-0.117
-363.683	800.000	0.150	-0.549
-362.669	-139.081	0.274	-0.029
-361.654	-47.188	0.307	-0.148
-360.639	68.113	0.036	-0.037
-359.625	112.391	0.249	0.298
-358.610	-200.000	0.010	0.340
-357.596	-163.650	-0.138	0.006
-356.581	-65.531	-0.223	0.089
-355.566	-39.181	-0.375	0.195
-354.552	441.478	0.056	0.122
-353.537	35.717	0.058	0.050
-352.523	67.808	-0.112	0.113
-351.508	133.985	0.162	0.207
-350.493	800.000	-0.014	0.050
-349.479	-39.353	-0.226	0.117
-348.464	-200.000	-0.030	0.195
-347.450	339.372	-0.130	-0.251
-346.435	572.568	0.089	0.214
-345.420	659.292	-0.146	-0.371
-344.406	270.753	-0.108	-0.188
-343.391	-77.261	-0.191	0.066
-342.377	33.674	0.083	-0.072
-341.362	-200.000	-0.036	-0.173
-340.348	105.913	0.103	0.120
-339.333	89.691	-0.043	0.047
-338.318	456.325	-0.101	-0.222
-337.304	-172.034	-0.234	0.007
-336.289	-91.290	-0.236	-0.067
-335.275	475.083	-0.113	0.252
-334.260	-33.501	-0.296	-0.162
-333.245	-200.000	-0.004	0.255
-332.231	-37.079	0.040	0.021
-331.216	738.660	0.082	-0.217
-330.202	-134.541	-0.132	0.016
-329.187	129.981	0.061	-0.077
-328.172	-35.097	0.257	-0.139
-327.158	-200.000	0.115	-0.000
-326.143	-126.376	0.156	0.023
-325.129	-49.266	0.429	-0.202
-324.114	320.140	-0.150	-0.282
-323.099	-42.821	-0.173	0.087
-322.085	-33.217	-0.065	0.036
-321.070	-11.752	0.360	0.233
-320.056	-200.000	0.012	-0.066
-319.041	-200.000	0.004	-0.272
-318.026	89.050	-0.170	-0.187
-317.012	-122.037	0.275	-0.045
-315.997	-114.446	0.311	0.059
-314.983	-200.000	0.065	0.347
-313.968	-50.967	0.181	0.084
-312.953	-136.933	-0.067	0.008
-311.939	-92.369	0.210	-0.058
-310.924	26.619	0.474	-0.392
-309.910	-200.000	0.004	0.101
-308.895	245.444	-0.138	-0.229
-307.880	800.000	-0.154	-0.454
-306.866	-42.961	0.104	0.052
-305.851	81.664	0.085	-0.090
-304.837	800.000	-0.074	-0.221
-303.822	-83.888	-0.104	0.033
-302.807	-12.959	-0.012	0.008
-301.793	-140.027	0.169	0.018
-300.778	258.045	0.133	0.226
-299.764	176.422	-0.147	0.210
-298.749	-200.000	-0.010	0.055
-297.735	125.193	-0.008	0.010
-296.720	14.082	0.178	0.137
-295.705	155.204	-0.097	-0.132
-294.691	-43.113	-0.250	-0.125
-293.676	-26.687	-0.229	0.132
-292.662	32.397	0.147	-0.125
-291.647	-71.975	-0.344	-0.126
-290.632	-136.667	-0.047	-0.005
-289.618	800.000	0.008	-0.034
-288.603	-183.459	0.022	0.000
-287.589	26.671	0.253	-0.209
-286.574	-91.351	0.179	0.051
-285.559	800.000	-0.124	0.374
-284.545	637.621	-0.041	0.102
-283.530	509.670	0.047	-0.107
-282.516	-24.779	0.225	0.132
-281.501	210.972	-0.052	-0.081
-280.486	-200.000	0.057	-0.257
-279.472	80.359	-0.185	0.197
-278.457	409.384	0.142	-0.297
-277.443	-107.840	0.186	0.040
-276.428	-105.575	-0.230	0.051
-275.413	-145.592	0.268	0.024
-274.399	-200.000	-0.016	0.478
-273.384	-200.000	-0.012	0.072
-272.370	222.200	-0.109	-0.173
-271.355	-61.168	0.372	0.155
-270.340	-86.276	0.066	0.020
-269.326	-122.231	0.361	-0.058
-268.311	-100.632	-0.170	-0.041
-267.297	429.358	0.084	-0.180
-266.282	-200.000	-0.078	-0.418
-265.267	-200.000	-0.005	0.061
-264.253	-8.612	-0.097	0.064
-263.238	-36.969	-0.360	0.190
-262.224	-148.351	0.182	-0.015
-261.209	-129.357	0.076	-0.010
-260.195	-200.000	0.012	-0.160
-259.180	160.661	0.149	0.206
-258.165	800.000	0.045	0.150
-257.151	84.754	0.129	-0.139
-256.136	30.785	0.260	-0.220
-255.122	315.728	-0.101	0.188
-254.107	-111.339	0.253	-0.051
-253.092	-110.735	-0.240	0.049
-252.078	-80.353	-0.308	0.102
-251.063	-30.336	-0.111	-0.062
-250.049	800.000	-0.080	0.244
-249.034	-90.557	0.181	-0.052
-248.019	-110.464	-0.209	-0.043
-247.005	-11.497	0.281	0.182
-245.990	800.000	0.035	-0.129
-244.976	-102.540	-0.163	-0.038
-243.961	104.907	-0.177	-0.206
-242.946	376.332	0.153	-0.307
-241.932	649.154	-0.044	0.111
-240.917	161.802	-0.124	-0.171
-239.903	364.661	0.060	0.119
-238.888	230.418	0.245	0.395
-237.873	-105.932	-0.180	-0.040
-236.859	9.811	0.254	0.190
-235.844	-67.131	-0.119	-0.046
-234.830	31.227	-0.216	-0.182
-233.815	93.096	-0.218	0.243
-232.800	75.879	0.132	0.138
-231.786	224.266	-0.087	0.139
-230.771	31.416	-0.057	-0.048
-229.757	-177.036	-0.117	0.003
-228.742	-200.000	0.019	0.352
-227.727	-200.000	0.006	0.205
-226.713	147.591	0.193	-0.256
-225.698	337.272	0.086	-0.165
-224.684	-12.543	-0.199	-0.128
-223.669	26.238	-0.363	0.298
-222.655	800.000	0.064	0.211
-221.640	-55.292	0.418	-0.185
-220.625	-70.362	0.097	-0.036
-219.611	81.189	0.041	0.043
-218.596	-93.880	-0.288	-0.078
-217.582	-88.362	0.249	0.073
-216.567	-200.000	-0.003	0.080
-215.552	-65.476	0.253	-0.100
-214.538	-140.822	-0.212	0.021
-213.523	44.175	-0.142	-0.128
-212.509	168.116	-0.096	-0.135
-211.494	-200.000	0.015	0.198
-210.479	-200.000	-0.106	-0.559
-209.465	800.000	0.050	-0.136
-208.450	60.471	0.160	-0.156
-207.436	-200.000	-0.015	-0.091
-206.421	800.000	0.078	-0.243
-205.406	-200.000	0.047	-0.368
-204.392	-88.442	0.321	0.094
-203.377	407.747	0.061	0.127
-202.363	-200.000	0.010	-0.086
-201.348	-200.000	0.041	0.212
-200.333	-200.000	-0.021	0.132
-199.319	29.865	0.128	-0.107
-198.304	-200.000	0.032	0.291
-197.290	19.369	0.111	-0.088
-196.275	-18.198	-0.165	-0.101
-195.260	-155.955	-0.433	0.027
-194.246	-76.822	-0.194	-0.067
-193.231	-23.039	0.152	0.090
-192.217	-3.185	-0.108	-0.074
-191.202	-129.195	0.299	-0.041
-190.187	-200.000	0.004	-0.176
-189.173	-3.497	-0.168	0.115
-188.158	48.954	-0.176	0.162
-187.144	-30.026	0.383	-0.214
-186.129	280.002	0.216	-0.380
-185.114	34.498	-0.158	0.136
-184.100	-42.393	-0.172	0.086
-183.085	436.210	-0.135	0.288
-182.071	-36.878	0.129	-0.068
-181.056	-121.366	-0.325	0.053
-180.042	-150.903	0.262	-0.019
-179.027	-200.000	0.013	0.273
-178.012	800.000	-0.040	0.172
-176.998	-40.480	-0.116	-0.059
-175.983	665.459	-0.114	0.289
-174.969	-85.624	0.134	-0.041
-173.954	-24.004	-0.128	-0.075
-172.939	199.454	0.035	-0.053
-171.925	-200.000	0.036	0.206
-170.910	-91.260	0.117	-0.033
-169.896	-72.361	-0.178	-0.065
-168.881	775.365	-0.040	-0.108
-167.866	-58.364	0.087	0.037
-166.852	-200.000	0.026	0.220
-165.837	800.000	0.088	-0.281
-164.823	-99.279	0.519	0.129
-163.808	-200.000	0.021	0.405
-162.793	6.359	0.224	-0.164
-161.779	-80.643	-0.279	0.091
-160.764	-95.541	0.350	-0.092
-159.750	-89.902	-0.240	0.069
-158.735	-92.338	0.062	0.017
-157.720	800.000	0.125	-0.405
-156.706	-29.249	-0.103	0.058
-155.691	69.917	-0.047	-0.047
-154.677	-59.092	-0.128	-0.054
-153.662	-176.924	0.204	-0.005
-152.647	254.154	-0.240	0.403
-151.633	-200.000	-0.033	-0.309
-150.618	-83.833	-0.290	-0.091
-149.604	74.447	-0.140	-0.144
-148.589	-89.662	-0.284	0.082
-147.574	-87.923	-0.247	-0.073
-146.560	-90.244	-0.097	0.028
-145.545	-3.061	0.161	0.111
-144.531	-108.636	0.176	0.037
-143.516	53.375	-0.090	-0.085
-142.502	-59.933	0.292	-0.123
-141.487	-64.732	-0.263	0.105
-140.472	187.193	0.046	0.067
-139.458	37.480	-0.078	-0.068
-138.443	125.874	0.201	0.249
-137.429	800.000	0.024	0.091
-136.414	-200.000	0.463	0.002
-135.399	-170.802	-0.304	-0.010
-134.385	-113.981	0.131	-0.025
-133.370	-200.000	-0.007	0.408
-132.356	800.000	-0.035	0.141
-131.341	800.000	-0.092	-0.262
-130.326	360.575	-0.130	-0.255
-129.312	-200.000	-0.015	-0.136
-128.297	-200.000	0.006	0.138
-127.283	34.396	-0.094	-0.080
-126.268	425.223	0.093	0.196
-125.253	800.000	-0.091	0.260
-124.239	-200.000	-0.003	0.164
-123.224	175.134	0.180	-0.255
-122.210	-200.000	-0.010	0.110
-121.195	-200.000	0.025	0.308
-120.180	-66.924	-0.426	-0.165
-119.166	262.782	-0.135	-0.230
-118.151	308.275	0.153	0.279
-117.137	372.645	-0.177	-0.352
-116.122	800.000	-0.066	-0.200
-115.107	21.657	-0.032	0.026
-114.093	21.896	-0.230	-0.184
-113.078	-69.805	-0.407	0.152
-112.064	145.965	-0.289	0.380
-111.049	13.551	-0.133	0.102
-110.034	-200.000	-0.009	0.051
-109.020	48.615	0.235	0.216
-108.005	415.196	0.226	0.472
-106.991	-200.000	0.020	-0.107
-105.976	800.000	0.074	0.261
-104.962	-148.317	-0.107	-0.009
-103.947	-63.947	-0.182	-0.073
-102.932	84.803	-0.080	0.086
-101.918	800.000	-0.101	-0.316
-100.903	12.041	-0.105	-0.079
-99.889	800.000	-0.022	0.060
-98.874	-4.439	0.291	-0.197
-97.859	1.789	0.166	0.118
-96.845	-182.032	0.281	-0.005
-95.830	95.012	-0.149	0.166
-94.816	-136.825	-0.131	0.015
-93.801	-200.000	-0.030	-0.202
-92.786	-22.818	-0.211	0.125
-91.772	470.193	0.146	0.321
-90.757	517.213	0.099	0.228
-89.743	99.746	0.198	-0.225
-88.728	-200.000	0.024	-0.334
-87.713	-181.979	-0.220	0.004
-86.699	800.000	-0.105	0.307
-85.684	800.000	0.023	0.081
-84.670	22.772	0.238	0.191
-83.655	258.470	-0.135	-0.227
-82.640	189.644	0.115	0.169
-81.626	334.224	0.123	0.233
-80.611	-81.258	-0.046	0.015
-79.597	-22.245	0.353	-0.209
-78.582	-200.000	0.043	-0.212
-77.567	-19.322	-0.124	0.075
-76.553	1.970	0.164	-0.116
-75.538	-200.000	-0.006	0.328
-74.524	-113.539	-0.329	-0.063
-73.509	-47.596	-0.341	-0.162
-72.494	-200.000	-0.028	-0.280
-71.480	74.152	-0.090	0.093
-70.465	56.980	-0.248	-0.236
-69.451	-72.978	0.169	0.061
-68.436	591.442	-0.108	0.260
-67.422	-51.073	-0.311	0.143
-66.407	568.379	0.177	0.420
-65.392	-47.282	0.165	0.079
-64.378	-177.758	-0.144	0.003
-63.363	-200.000	0.007	-0.031
-62.349	-200.000	0.040	-0.317
-61.334	27.208	-1.090	-0.895
-60.319	77.969	0.577	0.602
-59.305	-200.000	-0.210	-1.177
-58.290	581.991	0.569	1.364
-57.276	253.851	0.790	1.321
-56.261	-200.000	113.938	657.600
-55.246	543.642	1523.181	3555.832
-54.232	177.322	2699.484	3845.010
-53.217	102.732	2288.711	2619.732
-52.203	36.654	1895.551	1637.192
-51.188	30.617	1684.701	1409.434
-50.173	28.023	1642.629	1354.979
-49.159	49.946	1698.608	1566.834
-48.144	48.483	1712.449	1568.539
-47.130	30.188	1669.868	1393.578
-46.115	27.462	1655.491	1361.186
-45.100	27.305	1650.199	1355.608
-44.086	27.333	1647.849	1353.834
-43.071	27.366	1645.066	1351.739
-42.057	27.244	1643.223	1349.261
-41.042	27.360	1640.390	1347.742
-40.027	27.441	1638.732	1346.924
-39.013	27.343	1637.015	1344.734
-37.998	27.295	1635.344	1342.955
-36.984	27.326	1634.133	1342.140
-35.969	27.497	1632.085	1341.659
-34.954	27.390	1631.054	1339.972
-33.940	27.438	1628.512	1338.183
-32.925	27.414	1627.366	1337.011
-31.911	27.395	1625.522	1335.309
-30.896	27.430	1623.505	1333.851
-29.881	27.382	1622.261	1332.426
-28.867	27.423	1620.101	1330.899
-27.852	27.333	1618.890	1329.195
-26.838	27.390	1617.427	1328.359
-25.823	27.381	1615.892	1326.980
-24.809	27.487	1614.737	1326.746
-23.794	27.556	1612.610	1325.448
-22.779	27.389	1611.742	1323.468
-21.765	27.378	1610.487	1322.307
-20.750	27.384	1608.747	1320.866
-19.736	27.421	1607.217	1319.832
-18.721	27.467	1606.054	1319.155
-17.706	27.393	1604.988	1317.692
-16.692	27.496	1602.701	1316.508
-15.677	27.443	1601.734	1315.274
-14.663	27.539	1600.281	1314.727
-13.648	27.564	1598.680	1313.539
-12.633	27.430	1597.276	1311.367
-11.619	27.373	1595.675	1309.589
-10.604	27.430	1594.361	1308.869
-9.590	27.467	1593.284	1308.195
-8.575	27.477	1592.155	1307.294
-7.560	27.482	1590.542	1305.952
-6.546	27.521	1589.475	1305.304
-5.531	27.445	1588.829	1304.178
-4.517	27.417	1587.523	1302.854
-3.502	27.407	1586.247	1301.679
-2.487	27.533	1584.246	1300.890
-1.473	27.230	1572.726	1289.230
-0.458	24.369	1553.488	1253.341
0.556	22.840	1555.150	1222.632
1.571	20.430	1579.108	1224.390
2.586	20.008	1591.037	1230.531
3.600	17.990	1537.559	1175.196
4.615	11.272	1430.667	1050.256
5.629	5.113	1371.071	968.297
6.644	3.987	1363.769	956.097
7.659	3.978	1362.641	955.166
8.673	4.116	1361.614	955.216
9.688	4.190	1359.234	953.915
10.702	4.049	1356.632	951.138
11.717	6.945	1362.062	972.703
12.731	14.743	1375.938	1030.820
13.746	21.439	1386.962	1080.499
14.761	23.126	1389.080	1092.485
15.775	22.553	1387.083	1087.283
16.790	21.645	1385.018	1079.972
17.804	20.942	1382.750	1073.777
18.819	20.825	1381.329	1071.860
19.834	20.673	1381.050	1070.610
20.848	20.615	1379.775	1069.172
21.863	20.592	1378.442	1067.901
22.877	20.345	1377.866	1065.844
23.892	20.420	1376.464	1065.129
24.907	20.307	1376.042	1064.014
25.921	20.253	1375.152	1062.898
26.936	20.189	1374.546	1061.944
27.950	20.279	1373.393	1061.510
28.965	20.495	1372.231	1061.838
29.980	20.630	1370.985	1061.602
30.994	20.647	1370.631	1061.342
32.009	20.814	1369.526	1061.407
33.023	20.737	1368.105	1059.747
34.038	20.624	1366.859	1058.001
35.053	20.468	1365.394	1055.826
36.067	20.518	1364.399	1055.266
37.082	20.504	1363.334	1054.265
38.096	20.576	1362.633	1054.067
39.111	20.658	1362.014	1053.990
40.126	20.403	1361.175	1051.704
41.140	20.139	1359.808	1048.957
42.155	19.968	1359.212	1047.370
43.169	19.933	1358.875	1046.807
44.184	19.871	1358.751	1046.244
45.199	20.012	1358.499	1046.809
46.213	20.200	1358.446	1047.808
47.228	20.445	1357.339	1048.340
48.242	20.425	1356.308	1047.333
49.257	20.359	1355.097	1045.904
50.271	20.378	1353.198	1044.461
51.286	20.427	1351.706	1043.513
52.301	20.255	1351.027	1041.865
53.315	20.243	1349.369	1040.423
54.330	20.123	1348.501	1038.941
55.344	19.969	1347.524	1037.174
56.359	19.977	1346.425	1036.282
57.374	19.988	1345.383	1035.454
58.388	19.947	1344.474	1034.422
59.403	19.866	1344.142	1033.586
60.417	19.893	1343.505	1033.166
61.432	19.725	1342.394	1031.224
62.447	19.565	1341.399	1029.411
63.461	19.663	1340.327	1029.079
64.476	19.606	1339.273	1027.842
65.490	19.668	1337.932	1027.088
66.505	19.665	1336.519	1025.896
67.520	19.579	1335.833	1024.767
68.534	19.683	1334.478	1024.254
69.549	19.579	1333.936	1023.132
70.563	19.462	1332.334	1021.123
71.578	19.465	1330.937	1019.975
72.593	19.316	1330.137	1018.396
73.607	19.320	1329.638	1017.945
74.622	19.422	1328.799	1017.813
75.636	19.473	1328.059	1017.460
76.651	19.566	1327.239	1017.287
77.666	19.562	1327.505	1017.380
78.680	19.702	1326.444	1017.301
79.695	19.697	1325.964	1016.815
80.709	19.843	1325.502	1017.229
81.724	19.954	1324.439	1016.973
82.739	20.182	1323.645	1017.610
83.753	20.265	1323.365	1017.796
84.768	20.403	1322.483	1017.836
85.782	20.574	1321.744	1018.178
86.797	20.599	1320.472	1017.255
87.812	20.468	1318.920	1015.199
88.826	20.389	1317.868	1013.839
89.841	20.441	1317.533	1013.795
90.855	20.619	1315.849	1013.447
91.870	20.603	1315.695	1013.147
92.884	20.757	1314.629	1013.132
93.899	20.745	1313.478	1012.085
94.914	20.728	1313.141	1011.638
95.928	20.748	1312.447	1011.128
96.943	20.683	1311.721	1010.106
97.957	20.511	1310.288	1007.917
98.972	20.648	1309.396	1007.935
99.987	20.532	1308.615	1006.573
101.001	20.552	1307.748	1005.928
102.016	20.638	1306.446	1005.336
103.030	20.534	1306.361	1004.580
104.045	20.507	1304.630	1003.004
105.060	20.327	1303.124	1000.723
106.074	20.042	1301.506	997.750
107.089	19.824	1300.131	995.354
108.103	19.633	1298.774	993.129
109.118	19.743	1297.168	992.445
110.133	19.678	1295.922	991.032
111.147	19.728	1294.535	990.168
112.162	19.738	1293.500	989.344
113.176	19.878	1292.476	989.274
114.191	19.889	1291.552	988.541
115.206	19.875	1290.669	987.698
116.220	19.839	1289.313	986.370
117.235	19.827	1287.949	985.170
118.249	19.807	1286.855	984.134
119.264	19.657	1285.636	982.259
120.279	19.591	1284.682	981.068
121.293	19.582	1283.668	980.156
122.308	19.449	1282.488	978.419
123.322	19.224	1281.658	976.421
124.337	19.326	1280.152	975.763
125.352	19.274	1279.269	974.710
126.366	19.319	1277.865	973.809
127.381	19.265	1277.074	972.814
128.395	19.271	1276.022	971.961
129.410	19.376	1275.226	971.863
130.424	19.439	1274.697	971.729
131.439	19.673	1273.930	972.373
132.454	19.756	1272.770	971.869
133.468	19.771	1272.067	971.331
134.483	19.770	1272.030	971.213
135.497	19.880	1270.675	970.710
136.512	19.766	1269.838	969.345
137.527	19.816	1268.499	968.515
138.541	19.803	1267.110	967.298
139.556	20.031	1265.978	967.622
140.570	20.069	1265.220	967.167
141.585	20.165	1264.432	967.012
142.600	20.247	1263.616	966.765
143.614	20.377	1262.987	966.918
144.629	20.475	1261.814	966.483
145.643	20.528	1260.643	965.790
146.658	20.186	1259.455	962.900
147.673	20.189	1257.453	961.300
148.687	20.032	1256.263	959.433
149.702	19.872	1254.804	957.353
150.716	19.847	1253.026	955.774
151.731	19.734	1252.697	954.811
152.746	19.945	1251.089	954.666
153.760	19.867	1250.315	953.563
154.775	20.085	1249.567	954.108
155.789	20.090	1248.910	953.546
156.804	20.145	1247.550	952.725
157.819	20.311	1246.237	952.552
158.833	20.381	1246.049	952.709
159.848	20.521	1245.098	952.666
160.862	20.449	1243.863	951.239
161.877	20.140	1242.181	948.182
162.892	19.891	1240.948	945.792
163.906	19.804	1240.375	944.800
164.921	19.817	1238.805	943.590
165.935	19.851	1238.567	943.511
166.950	20.038	1238.092	944.086
167.964	20.015	1237.457	943.390
168.979	19.957	1236.458	942.230
169.994	20.012	1235.678	941.850
171.008	19.964	1234.959	940.959
172.023	20.124	1234.427	941.342
173.037	20.394	1233.811	942.253
174.052	20.324	1233.064	941.221
175.067	20.012	1231.756	938.448
176.081	19.776	1230.556	936.172
177.096	19.839	1229.031	935.268
178.110	19.787	1228.295	934.347
179.125	19.963	1227.402	934.535
180.140	20.041	1226.047	933.841
181.154	20.251	1225.789	934.695
182.169	20.343	1224.419	934.063
183.183	20.407	1223.028	933.262
184.198	20.351	1222.311	932.328
185.213	20.525	1221.015	932.195
186.227	20.494	1220.379	931.459
187.242	20.580	1219.039	930.817
188.256	20.686	1217.998	930.505
189.271	20.673	1217.528	929.992
190.286	20.390	1216.595	927.686
191.300	19.973	1214.977	924.146
192.315	19.733	1214.369	922.321
193.329	19.951	1213.593	922.810
194.344	19.777	1213.241	921.535
195.359	19.976	1212.529	921.973
196.373	20.090	1212.051	922.137
197.388	20.268	1211.555	922.622
198.402	20.451	1211.923	923.794
199.417	20.678	1211.345	924.476
200.432	20.732	1211.113	924.505
201.446	20.971	1210.119	924.936
202.461	20.958	1209.713	924.473
203.475	20.969	1208.462	923.492
204.490	20.776	1206.250	920.700
205.504	20.364	1205.576	917.925
206.519	20.389	1203.999	916.778
207.534	20.303	1202.865	915.378
208.548	20.264	1201.914	914.370
209.563	20.359	1200.954	914.057
210.577	20.390	1200.096	913.486
211.592	20.492	1199.787	913.706
212.607	20.710	1199.456	914.517
213.621	20.730	1198.454	913.779
214.636	20.664	1196.866	912.142
215.650	20.685	1196.116	911.599
216.665	20.804	1195.528	911.692
217.680	20.907	1195.133	911.851
218.694	20.999	1194.338	911.644
219.709	21.000	1193.165	910.673
220.723	20.883	1192.686	909.615
221.738	20.945	1191.886	909.250
222.753	20.761	1191.084	907.599
223.767	20.864	1190.385	907.524
224.782	20.914	1189.909	907.337
225.796	21.262	1189.181	908.514
226.811	21.065	1188.365	906.789
227.826	20.822	1188.020	905.179
228.840	20.726	1186.885	903.737
229.855	20.640	1186.223	902.707
230.869	20.688	1184.910	901.875
231.884	20.599	1184.231	900.818
232.899	20.473	1183.705	899.684
233.913	20.445	1182.661	898.668
234.928	20.434	1181.671	897.777
235.942	20.326	1180.729	896.426
236.957	20.335	1180.152	895.957
237.972	20.215	1179.946	895.099
238.986	20.264	1178.962	894.526
240.001	20.381	1178.004	894.323
241.015	20.436	1177.396	894.066
242.030	20.558	1176.730	894.112
243.045	20.702	1175.971	894.196
244.059	20.737	1175.370	893.839
245.074	20.756	1174.650	893.306
246.088	20.767	1174.269	892.994
247.103	20.943	1173.557	893.279
248.117	21.170	1172.804	893.790
249.132	21.331	1172.554	894.343
250.147	21.556	1172.208	895.151
251.161	21.745	1171.472	895.477
252.176	21.803	1170.834	895.204
253.190	21.835	1169.986	894.637
254.205	21.936	1169.838	894.960
255.220	21.951	1169.263	894.520
256.234	21.924	1168.662	893.844
257.249	21.857	1167.711	892.694
258.263	21.804	1166.876	891.710
259.278	21.839	1166.536	891.548
260.293	21.862	1166.087	891.242
261.307	21.872	1165.568	890.819
262.322	21.985	1165.058	890.923
263.336	22.008	1164.389	890.446
264.351	22.090	1163.406	890.035
265.366	21.988	1163.155	889.248
266.380	21.979	1162.130	888.337
267.395	21.960	1161.265	887.505
268.409	21.750	1159.862	885.292
269.424	21.651	1159.722	884.604
270.439	21.690	1159.227	884.346
271.453	21.654	1158.091	883.220
272.468	21.513	1156.957	881.566
273.482	21.380	1156.337	880.349
274.497	21.452	1155.680	880.130
275.512	21.437	1155.140	879.566
276.526	21.446	1154.351	878.935
277.541	21.533	1153.577	878.702
278.555	21.617	1153.341	878.870
279.570	21.598	1152.932	878.383
280.585	21.990	1151.966	879.531
281.599	22.033	1151.336	879.189
282.614	21.710	1149.766	876.296
283.628	21.666	1148.356	874.927
284.643	21.510	1147.673	873.552
285.657	21.684	1146.570	873.499
286.672	21.610	1145.489	872.233
287.687	21.568	1144.976	871.557
288.701	21.677	1144.419	871.596
289.716	21.639	1142.987	870.240
290.730	21.660	1142.694	870.042
291.745	21.724	1142.280	869.970
292.760	21.791	1141.518	869.645
293.774	21.886	1141.261	869.843
294.789	22.047	1141.127	870.460
295.803	21.892	1139.967	868.730
296.818	21.766	1138.698	867.063
297.833	21.652	1138.304	866.124
298.847	21.604	1137.602	865.277
299.862	21.698	1136.642	864.934
300.876	21.838	1135.613	864.765
301.891	21.815	1135.737	864.671
302.906	22.117	1134.801	865.366
303.920	22.192	1134.441	865.385
304.935	22.281	1133.917	865.346
305.949	22.500	1133.291	865.869
306.964	22.348	1132.685	864.582
307.979	22.178	1131.919	863.087
308.993	22.162	1130.780	862.062
310.008	22.290	1130.019	862.037
311.022	22.110	1130.066	861.114
312.037	22.344	1128.490	860.979
313.052	22.103	1127.337	858.847
314.066	21.868	1125.989	856.596
315.081	21.628	1125.416	854.914
316.095	21.492	1124.504	853.480
317.110	21.520	1124.100	853.234
318.125	21.625	1123.384	853.128
319.139	21.607	1122.837	852.547
320.154	21.643	1122.123	852.107
321.168	21.673	1121.546	851.740
322.183	21.671	1120.973	851.219
323.197	21.637	1120.277	850.448
324.212	21.749	1119.633	850.430
325.227	21.849	1119.077	850.416
326.241	21.876	1118.766	850.237
327.256	21.749	1117.481	848.568
328.270	21.740	1116.277	847.539
329.285	21.681	1115.379	846.496
330.300	21.549	1114.858	845.386
331.314	21.631	1113.654	844.795
332.329	21.726	1113.046	844.718
333.343	21.827	1112.159	844.454
334.358	21.992	1111.595	844.748
335.373	22.072	1110.933	844.553
336.387	22.169	1110.175	844.366
337.402	22.259	1109.214	843.993
338.416	22.245	1109.106	843.770
339.431	22.451	1108.117	843.932
340.446	22.545	1107.649	843.949
341.460	22.706	1107.233	844.329
342.475	22.724	1106.708	843.942
343.489	22.856	1105.643	843.682
344.504	22.907	1104.944	843.319
345.519	22.825	1104.563	842.562
346.533	22.881	1103.550	841.984
347.548	23.053	1102.859	842.198
348.562	22.955	1102.218	841.172
349.577	22.558	1101.120	838.369
350.592	22.366	1100.032	836.552
351.606	22.227	1099.146	835.145
352.621	22.036	1098.671	833.805
353.635	21.965	1097.823	832.752
354.650	22.095	1096.939	832.621
355.665	22.208	1096.432	832.696
356.679	22.208	1096.095	832.370
357.694	22.283	1095.382	832.109
358.708	22.531	1094.724	832.707
359.723	22.579	1093.949	832.272
360.738	22.474	1093.575	831.420
361.752	22.421	1092.812	830.514
362.767	22.411	1092.393	830.072
363.781	22.551	1091.779	830.194
364.796	22.739	1091.161	830.536
365.810	22.954	1091.162	831.474
366.825	23.075	1090.633	831.568
367.840	23.158	1090.452	831.745
368.854	23.230	1090.007	831.670
369.869	23.197	1088.905	830.599
370.883	23.014	1088.057	829.024
371.898	22.819	1087.339	827.486
372.913	22.879	1086.577	827.116
373.927	22.991	1085.953	827.094
374.942	23.095	1085.290	827.001
375.956	23.063	1085.397	826.861
376.971	22.999	1084.425	825.749
377.986	23.057	1083.827	825.489
379.000	23.351	1083.270	826.365
380.015	23.321	1083.078	826.002
381.029	23.351	1082.597	825.704
382.044	23.347	1081.767	824.978
383.059	23.288	1080.770	823.873
384.073	23.172	1079.932	822.618
385.088	23.238	1079.080	822.208
386.102	23.289	1078.436	821.877
387.117	22.934	1077.275	819.275
388.132	22.768	1076.073	817.520
389.146	22.963	1074.390	817.069
390.161	22.796	1074.286	816.148
391.175	22.746	1073.774	815.453
392.190	22.899	1073.413	815.815
393.205	23.241	1072.788	816.847
394.219	23.175	1072.309	816.104
395.234	23.000	1070.978	814.212
396.248	22.964	1069.611	812.936
397.263	22.859	1068.728	811.709
398.278	22.796	1068.032	810.824
399.292	22.550	1067.165	808.962
400.307	22.547	1066.602	808.452
401.321	22.575	1065.606	807.750
402.336	22.575	1065.064	807.268
403.350	22.589	1064.512	806.845
404.365	22.758	1063.796	807.002
405.380	22.896	1063.211	807.120
406.394	22.918	1062.515	806.618
407.409	23.131	1062.088	807.194
408.423	23.264	1061.716	807.448
409.438	23.309	1061.057	807.081
410.453	23.460	1060.226	807.063
411.467	23.552	1059.469	806.836
412.482	23.607	1059.124	806.753
413.496	23.627	1058.623	806.387
414.511	23.706	1058.125	806.296
415.526	23.760	1057.954	806.339
416.540	23.795	1057.738	806.264
417.555	23.827	1056.729	805.566
418.569	23.534	1056.341	803.872
419.584	23.659	1055.626	803.825
420.599	23.567	1055.138	802.963
421.613	157.927	1403.544	1798.666
422.628	145.077	1454.263	1798.745
