DTS Sentinel unit serial number:	SN413079Multiplexer serial number:	ORYXHardware model number:	OX4-SRSoftware version number:	ORYX F/W v4.00 Oryx Data Collector v3.7.2.0data status	okinstallation	princeton_trtdifferential loss correction	single-endedforward channel	channel 2reverse channel	N/Adate	2019/09/14time	00:03:34forward acquisition time	60.00reverse acquisition time	0.00gamma	496.2192k internal	0.2338k external	0.2338temperature offset calibration	1.0130default loss term (dB/km)	0.3790temperature slope calibration	1.0000multiplexer offset coefficient	1.0000multiplexer slope coefficient	1.0000fibre end	0.00T internal ref (°C)	26.50T ext. ref 1 (°C)	3.15T ext. ref 2 (°C)	21.38length (m)	temperature (°C)	Stokes	anti-Stokes-747.200	-55.174	0.156	-0.070
-746.185	-115.319	-0.167	0.032
-745.171	800.000	0.021	-0.072
-744.156	12.197	-0.101	-0.078
-743.142	123.995	0.197	-0.248
-742.127	25.452	-0.143	0.119
-741.112	28.617	0.211	-0.180
-740.098	136.073	-0.121	0.158
-739.083	-26.088	-0.078	0.046
-738.069	-80.315	0.325	-0.109
-737.054	-90.248	-0.194	0.057
-736.039	76.805	-0.148	-0.158
-735.025	71.655	0.305	0.318
-734.010	-61.247	-0.256	0.108
-732.996	469.517	-0.238	-0.536
-731.981	800.000	-0.042	0.152
-730.966	738.329	-0.069	-0.186
-729.952	478.982	-0.138	-0.314
-728.937	194.345	0.134	-0.204
-727.923	548.734	0.079	-0.190
-726.908	-14.695	-0.314	-0.202
-725.894	100.477	0.078	0.091
-724.879	-9.666	-0.209	-0.140
-723.864	133.548	0.144	-0.187
-722.850	800.000	-0.055	-0.188
-721.835	45.277	-0.355	-0.329
-720.821	-200.000	-0.028	-0.292
-719.806	800.000	0.144	-0.426
-718.791	15.959	-0.189	0.150
-717.777	12.295	-0.074	-0.057
-716.762	48.812	-0.174	0.164
-715.748	-42.042	-0.339	-0.174
-714.733	3.288	-0.275	-0.201
-713.718	56.032	0.137	-0.133
-712.704	-200.000	0.042	-0.318
-711.689	-200.000	-0.041	-0.245
-710.675	-147.778	0.212	0.018
-709.660	800.000	0.003	-0.013
-708.645	-200.000	-0.071	-0.511
-707.631	93.508	-0.119	0.135
-706.616	-200.000	0.007	-0.099
-705.602	-200.000	-0.059	-0.285
-704.587	-128.223	0.013	-0.002
-703.572	31.665	0.189	0.163
-702.558	160.821	0.027	-0.038
-701.543	800.000	-0.099	0.285
-700.529	229.817	0.085	0.140
-699.514	27.964	-0.179	0.152
-698.499	800.000	-0.048	0.166
-697.485	-60.380	-0.069	-0.030
-696.470	-134.753	-0.184	-0.022
-695.456	-74.873	0.234	0.084
-694.441	-94.532	0.072	0.020
-693.426	-127.601	-0.142	-0.021
-692.412	102.787	-0.091	0.107
-691.397	-83.851	0.180	0.058
-690.383	-136.099	0.047	-0.005
-689.368	-108.953	-0.157	0.033
-688.354	-23.788	0.230	-0.138
-687.339	335.044	0.072	0.140
-686.324	-200.000	0.013	0.126
-685.310	203.766	-0.122	-0.188
-684.295	661.037	-0.090	-0.232
-683.281	-97.769	0.130	0.034
-682.266	-198.625	-0.181	-0.001
-681.251	-44.646	0.361	0.180
-680.237	-76.117	-0.156	0.055
-679.222	-175.181	-0.529	0.015
-678.208	800.000	0.098	-0.274
-677.193	276.280	-0.205	-0.365
-676.178	-73.037	-0.204	0.075
-675.164	115.412	0.133	0.162
-674.149	-200.000	-0.028	0.145
-673.135	535.714	-0.018	0.044
-672.120	-200.000	-0.036	0.261
-671.105	800.000	-0.078	-0.220
-670.091	-200.000	0.015	0.082
-669.076	-50.363	-0.225	0.107
-668.062	29.499	-0.152	-0.129
-667.047	-200.000	0.020	-0.237
-666.032	-21.925	-0.257	0.156
-665.018	47.285	-0.169	0.157
-664.003	800.000	-0.062	0.205
-662.989	-200.000	0.006	0.222
-661.974	104.115	-0.132	0.155
-660.959	-200.000	-0.021	0.157
-659.945	-200.000	-0.002	0.102
-658.930	124.285	0.154	-0.193
-657.916	6.324	-0.113	0.084
-656.901	-12.093	-0.153	-0.100
-655.886	27.165	-0.277	-0.233
-654.872	7.786	0.095	0.071
-653.857	800.000	0.063	-0.175
-652.843	-104.721	0.392	0.090
-651.828	800.000	-0.031	0.123
-650.814	-136.457	0.629	0.073
-649.799	-6.097	0.046	-0.032
-648.784	-121.638	-0.344	-0.057
-647.770	-200.000	-0.001	-0.068
-646.755	-97.448	0.306	-0.080
-645.741	-100.644	0.233	0.058
-644.726	45.923	-0.162	-0.150
-643.711	-123.767	0.169	-0.027
-642.697	-200.000	0.059	0.271
-641.682	43.330	0.114	-0.105
-640.668	-200.000	0.021	0.144
-639.653	-98.570	0.024	0.006
-638.638	-108.791	-0.188	0.040
-637.624	-120.901	0.322	-0.054
-636.609	224.946	0.358	0.580
-635.595	-200.000	0.031	0.206
-634.580	-98.340	0.251	0.064
-633.565	-200.000	-0.044	0.460
-632.551	-95.398	0.236	-0.063
-631.536	-200.000	0.031	-0.256
-630.522	-38.805	-0.047	0.025
-629.507	-26.546	0.262	-0.154
-628.492	-37.365	0.113	0.060
-627.478	-37.158	-0.346	0.185
-626.463	154.244	-0.078	0.107
-625.449	267.976	-0.023	-0.040
-624.434	-21.915	-0.178	-0.108
-623.419	-84.138	-0.285	0.090
-622.405	-28.166	-0.018	0.010
-621.390	310.450	-0.151	0.283
-620.376	110.152	0.074	-0.089
-619.361	-14.818	-0.372	-0.238
-618.346	-200.000	-0.025	-0.185
-617.332	-169.535	-0.310	0.011
-616.317	800.000	-0.055	-0.202
-615.303	-3.197	0.106	0.074
-614.288	-114.318	-0.085	0.016
-613.273	83.936	0.146	-0.160
-612.259	200.922	0.077	0.118
-611.244	261.127	-0.124	-0.214
-610.230	191.481	0.158	0.237
-609.215	81.269	0.110	0.118
-608.201	-102.455	-0.163	0.039
-607.186	197.646	0.227	-0.346
-606.171	-200.000	0.018	0.103
-605.157	800.000	-0.085	0.248
-604.142	-24.078	0.184	-0.110
-603.128	-200.000	-0.001	0.441
-602.113	-118.254	-0.201	0.036
-601.098	800.000	0.055	-0.224
-600.084	800.000	0.079	-0.231
-599.069	800.000	-0.054	0.168
-598.055	404.366	-0.077	0.161
-597.040	-200.000	0.007	0.134
-596.025	-84.184	0.407	-0.129
-595.011	201.491	0.117	0.180
-593.996	-200.000	0.078	-0.342
-592.982	254.400	0.049	-0.084
-591.967	-53.281	0.105	0.048
-590.952	-200.000	0.017	0.116
-589.938	7.749	0.104	0.077
-588.923	-55.582	-0.066	-0.029
-587.909	-12.755	-0.097	0.063
-586.894	-160.777	0.202	-0.011
-585.879	143.438	0.219	-0.291
-584.865	-114.162	-0.108	0.021
-583.850	-108.485	0.226	0.048
-582.836	-100.554	-0.048	0.012
-581.821	-65.336	0.215	0.086
-580.806	-43.749	0.056	-0.028
-579.792	-200.000	0.070	-0.411
-578.777	-64.543	-0.253	-0.103
-577.763	-48.269	-0.264	-0.127
-576.748	800.000	0.112	-0.351
-575.733	464.133	0.108	0.241
-574.719	-68.479	-0.157	-0.061
-573.704	-16.262	-0.175	-0.111
-572.690	-72.481	0.225	-0.083
-571.675	-200.000	-0.004	-0.053
-570.661	-28.530	0.090	0.052
-569.646	-170.708	-0.406	-0.014
-568.631	-134.960	-0.141	-0.017
-567.617	-66.281	-0.337	-0.134
-566.602	68.388	-0.013	-0.013
-565.588	-77.707	0.121	0.042
-564.573	20.103	0.250	0.201
-563.558	-200.000	0.038	-0.273
-562.544	-39.816	0.118	-0.061
-561.529	-21.590	-0.180	0.109
-560.515	-200.000	-0.024	-0.142
-559.500	3.599	0.062	-0.045
-558.485	-137.187	-0.006	-0.001
-557.471	92.622	0.236	-0.266
-556.456	-200.000	0.059	0.389
-555.442	-60.324	-0.330	-0.140
-554.427	-79.018	-0.272	-0.092
-553.412	284.466	0.067	0.121
-552.398	-0.492	-0.184	-0.130
-551.383	-142.601	-0.222	0.022
-550.369	-141.327	0.496	0.050
-549.354	800.000	0.037	0.144
-548.339	42.329	-0.216	0.195
-547.325	-200.000	0.034	0.306
-546.310	118.937	-0.089	0.110
-545.296	-200.000	-0.061	-0.456
-544.281	632.006	0.124	0.312
-543.266	75.831	-0.266	0.280
-542.252	-26.824	-0.081	-0.047
-541.237	-48.965	0.289	-0.138
-540.223	-21.101	0.197	0.120
-539.208	233.429	-0.092	0.150
-538.193	-200.000	-0.044	0.240
-537.179	75.083	-0.194	0.204
-536.164	800.000	0.023	-0.079
-535.150	3.374	0.198	-0.144
-534.135	189.014	-0.086	-0.129
-533.121	-200.000	0.041	-0.177
-532.106	3.794	0.212	-0.154
-531.091	-49.100	-0.258	-0.123
-530.077	597.014	-0.103	-0.254
-529.062	279.899	-0.031	0.055
-528.048	65.771	-0.139	-0.140
-527.033	116.379	0.030	-0.036
-526.018	-12.580	-0.308	0.200
-525.004	26.410	0.277	-0.230
-523.989	-89.610	-0.199	-0.058
-522.975	-144.448	-0.232	-0.021
-521.960	-79.982	-0.121	-0.040
-520.945	800.000	-0.092	-0.385
-519.931	562.459	0.131	0.314
-518.916	-33.773	-0.260	-0.143
-517.902	113.172	0.215	-0.259
-516.887	82.320	0.037	-0.040
-515.872	-183.730	0.097	0.002
-514.858	21.936	-0.266	0.215
-513.843	-200.000	-0.014	0.432
-512.829	20.310	0.121	-0.097
-511.814	63.126	-0.162	-0.161
-510.799	444.707	0.123	-0.268
-509.785	-95.652	-0.284	0.076
-508.770	163.893	0.357	0.500
-507.756	800.000	0.060	0.197
-506.741	-200.000	0.071	0.333
-505.726	-200.000	-0.017	0.091
-504.712	-54.165	-0.237	0.107
-503.697	-102.924	-0.065	-0.015
-502.683	-143.494	0.272	0.026
-501.668	374.308	0.098	-0.198
-500.653	46.662	0.121	0.111
-499.639	178.130	0.169	-0.245
-498.624	16.818	-0.215	0.169
-497.610	800.000	0.020	0.065
-496.595	-189.808	-0.515	-0.006
-495.581	-120.416	-0.076	-0.013
-494.566	-186.274	0.208	-0.003
-493.551	42.421	0.205	-0.185
-492.537	800.000	0.096	-0.388
-491.522	32.338	0.191	0.164
-490.508	122.106	0.087	0.108
-489.493	168.463	0.179	0.254
-488.478	-60.315	-0.016	0.007
-487.464	-200.000	-0.012	-0.196
-486.449	-71.668	0.166	0.062
-485.435	800.000	0.060	-0.186
-484.420	106.529	0.164	-0.193
-483.405	15.399	0.168	-0.131
-482.391	-200.000	0.019	-0.209
-481.376	22.127	0.281	-0.227
-480.362	150.251	0.099	0.134
-479.347	226.189	0.396	0.637
-478.332	48.066	-0.271	0.252
-477.318	-0.195	0.424	-0.300
-476.303	4.539	-0.309	0.225
-475.289	-152.629	-0.261	-0.019
-474.274	-200.000	-0.042	0.207
-473.259	800.000	-0.069	-0.219
-472.245	46.606	0.173	-0.159
-471.230	-26.281	-0.202	0.117
-470.216	123.894	-0.109	-0.136
-469.201	-112.589	-0.282	-0.056
-468.186	299.960	-0.103	-0.188
-467.172	-95.949	-0.318	0.084
-466.157	-175.560	-0.233	-0.006
-465.143	767.491	-0.123	0.332
-464.128	-200.000	0.008	-0.085
-463.113	449.398	-0.124	-0.272
-462.099	-38.187	0.204	-0.107
-461.084	-200.000	-0.002	0.343
-460.070	55.265	0.052	-0.050
-459.055	79.701	0.154	0.164
-458.040	-41.215	-0.081	0.041
-457.026	-36.971	-0.268	0.143
-456.011	66.489	0.082	-0.083
-454.997	-139.032	0.269	0.029
-453.982	78.273	0.105	-0.111
-452.968	135.793	0.126	-0.163
-451.953	610.102	0.051	0.126
-450.938	18.321	-0.241	-0.191
-449.924	-200.000	-0.056	0.246
-448.909	-200.000	0.075	-0.363
-447.895	-92.617	0.179	-0.050
-446.880	165.851	-0.124	0.174
-445.865	363.957	0.030	0.060
-444.851	50.883	-0.211	0.199
-443.836	-82.045	-0.219	-0.071
-442.822	419.476	0.229	-0.487
-441.807	413.876	-0.079	-0.168
-440.792	-21.631	0.079	-0.048
-439.778	-32.015	0.154	0.085
-438.763	-32.464	0.092	-0.051
-437.749	-105.327	-0.329	0.074
-436.734	177.368	0.112	-0.161
-435.719	-200.000	-0.056	-0.384
-434.705	582.528	0.069	-0.167
-433.690	375.567	0.102	0.207
-432.676	13.115	-0.124	0.095
-431.661	-50.322	-0.259	0.121
-430.646	-200.000	0.007	-0.105
-429.632	-30.969	-0.108	-0.060
-428.617	-141.941	-0.248	0.024
-427.603	-200.000	-0.053	0.237
-426.588	-200.000	0.103	0.486
-425.573	800.000	0.025	-0.100
-424.559	-80.386	-0.137	0.045
-423.544	-200.000	-0.132	-0.000
-422.530	-41.483	-0.163	-0.083
-421.515	291.448	-0.050	-0.091
-420.500	-113.284	0.157	0.031
-419.486	-86.001	0.406	0.124
-418.471	332.946	0.195	-0.373
-417.457	148.906	-0.135	-0.181
-416.442	-53.448	-0.387	-0.176
-415.428	12.655	-0.131	-0.100
-414.413	-20.000	0.140	-0.085
-413.398	79.853	0.197	0.210
-412.384	-200.000	-0.033	0.448
-411.369	800.000	0.041	0.142
-410.355	462.390	0.101	-0.224
-409.340	-93.632	-0.278	0.076
-408.325	-191.544	-0.151	0.002
-407.311	-5.166	0.404	-0.275
-406.296	800.000	-0.090	-0.301
-405.282	-104.813	-0.473	-0.108
-404.267	141.381	0.166	0.217
-403.252	-64.983	0.154	-0.061
-402.238	-11.450	-0.229	0.149
-401.223	800.000	0.039	0.118
-400.209	-78.797	-0.244	0.082
-399.194	89.396	0.156	0.172
-398.179	-200.000	-0.017	-0.127
-397.165	800.000	0.057	0.216
-396.150	-200.000	0.042	0.237
-395.136	167.540	0.100	0.141
-394.121	114.740	0.128	-0.154
-393.106	-200.000	0.051	0.234
-392.092	-33.315	0.209	-0.114
-391.077	-200.000	-0.019	0.218
-390.063	-200.000	-0.018	0.272
-389.048	-34.579	0.454	-0.246
-388.033	391.885	0.069	0.141
-387.019	9.504	-0.198	0.148
-386.004	-115.045	0.205	0.039
-384.990	-200.000	-0.041	0.554
-383.975	-59.202	0.295	-0.126
-382.960	-200.000	-0.003	0.113
-381.946	196.610	-0.230	0.347
-380.931	121.448	0.148	-0.183
-379.917	800.000	-0.038	-0.132
-378.902	-27.117	-0.153	0.088
-377.888	-19.502	0.316	0.194
-376.873	800.000	-0.122	-0.357
-375.858	45.442	0.372	-0.340
-374.844	-32.734	0.418	0.230
-373.829	-200.000	-0.042	0.000
-372.815	45.688	-0.284	0.260
-371.800	800.000	0.059	0.199
-370.785	264.284	0.120	0.206
-369.771	800.000	-0.060	0.172
-368.756	-42.860	-0.156	-0.078
-367.742	-118.611	0.109	-0.019
-366.727	276.836	-0.059	0.104
-365.712	-161.928	0.237	-0.012
-364.698	1.358	-0.077	-0.055
-363.683	-91.951	-0.008	0.002
-362.669	-84.528	0.186	0.058
-361.654	418.258	0.034	0.072
-360.639	800.000	0.014	-0.048
-359.625	-72.029	0.146	-0.054
-358.610	800.000	-0.083	-0.237
-357.596	67.227	-0.169	0.171
-356.581	-42.225	-0.481	0.243
-355.566	-76.143	-0.227	0.079
-354.552	120.526	0.107	-0.132
-353.537	68.329	0.104	-0.106
-352.523	-1.222	0.056	-0.039
-351.508	111.561	-0.111	-0.132
-350.493	-200.000	-0.034	0.161
-349.479	430.478	0.050	0.108
-348.464	87.414	-0.004	-0.005
-347.450	800.000	0.016	0.045
-346.435	-158.784	-0.006	-0.000
-345.420	35.916	0.147	0.128
-344.406	-41.745	0.210	0.107
-343.391	205.687	-0.070	-0.108
-342.377	205.952	0.177	-0.272
-341.362	-200.000	0.019	-0.292
-340.348	174.357	0.117	0.167
-339.333	-200.000	-0.049	-0.240
-338.318	-86.019	0.212	-0.065
-337.304	-200.000	0.051	0.219
-336.289	59.953	-0.124	-0.121
-335.275	-81.196	-0.170	-0.055
-334.260	800.000	-0.042	-0.122
-333.245	-194.438	-0.016	-0.000
-332.231	-200.000	-0.017	-0.110
-331.216	-127.826	0.302	-0.043
-330.202	-200.000	0.045	0.203
-329.187	-118.662	-0.572	-0.100
-328.172	800.000	-0.105	-0.347
-327.158	-195.853	0.124	-0.001
-326.143	73.663	-0.186	0.193
-325.129	-67.243	-0.156	0.061
-324.114	285.272	0.017	0.030
-323.099	800.000	0.061	-0.178
-322.085	-192.751	0.029	0.000
-321.070	128.315	-0.292	-0.367
-320.056	-5.730	0.180	-0.122
-319.041	-200.000	0.011	-0.252
-318.026	-80.758	-0.283	-0.093
-317.012	-124.536	0.344	-0.053
-315.997	235.049	0.178	-0.289
-314.983	-200.000	-0.005	0.067
-313.968	-113.158	0.052	0.010
-312.953	-72.042	-0.410	-0.151
-311.939	424.842	-0.064	-0.135
-310.924	800.000	0.159	-0.448
-309.910	-110.985	0.333	0.068
-308.895	-9.376	-0.199	0.131
-307.880	0.977	-0.180	-0.127
-306.866	123.618	0.044	0.054
-305.851	79.019	-0.156	0.165
-304.837	-14.906	-0.152	-0.096
-303.822	-156.952	0.235	0.014
-302.807	800.000	0.039	0.109
-301.793	800.000	-0.121	-0.393
-300.778	-21.148	-0.106	-0.064
-299.764	-200.000	0.022	0.195
-298.749	-112.347	0.134	-0.027
-297.735	-200.000	0.068	0.328
-296.720	141.277	-0.193	-0.252
-295.705	236.383	-0.039	0.063
-294.691	-72.980	0.318	-0.115
-293.676	-80.668	0.318	0.104
-292.662	496.037	0.026	0.058
-291.647	-88.488	-0.158	-0.047
-290.632	800.000	-0.112	-0.411
-289.618	-200.000	0.016	-0.277
-288.603	182.074	0.149	0.216
-287.589	120.341	-0.218	-0.267
-286.574	231.542	-0.135	0.218
-285.559	146.555	0.178	0.236
-284.545	-200.000	0.033	0.250
-283.530	29.121	-0.252	0.211
-282.516	800.000	0.028	0.115
-281.501	-164.670	0.445	0.020
-280.486	-200.000	0.001	-0.337
-279.472	-200.000	0.058	-0.329
-278.457	149.187	0.095	0.127
-277.443	78.183	-0.081	0.085
-276.428	800.000	0.069	0.206
-275.413	-78.928	0.428	-0.144
-274.399	41.217	0.076	-0.068
-273.384	25.196	0.153	-0.125
-272.370	-200.000	-0.005	-0.149
-271.355	156.073	0.115	0.156
-270.340	38.769	-0.225	0.198
-269.326	-61.842	0.203	-0.084
-268.311	-0.919	-0.110	0.077
-267.297	-60.828	-0.180	-0.075
-266.282	-21.387	-0.180	0.108
-265.267	150.604	0.058	0.078
-264.253	326.802	0.109	-0.206
-263.238	800.000	0.059	-0.225
-262.224	-200.000	-0.017	0.146
-261.209	39.905	0.146	-0.129
-260.195	282.195	-0.144	-0.255
-259.180	37.705	-0.162	-0.142
-258.165	800.000	0.112	-0.358
-257.151	242.963	-0.135	-0.223
-256.136	-70.787	-0.226	0.084
-255.122	800.000	-0.060	-0.247
-254.107	-200.000	-0.127	-0.585
-253.092	76.924	-0.169	-0.177
-252.078	-131.082	0.216	-0.028
-251.063	67.340	0.131	-0.132
-250.049	158.616	0.326	0.445
-249.034	-65.152	-0.304	-0.121
-248.019	123.075	-0.012	0.014
-247.005	-118.346	-0.094	0.016
-245.990	800.000	-0.073	0.296
-244.976	800.000	-0.183	0.547
-243.961	-28.587	0.080	0.045
-242.946	343.108	-0.190	0.367
-241.932	192.871	0.140	-0.208
-240.917	-200.000	0.005	0.210
-239.903	-144.089	-0.368	-0.034
-238.888	-65.181	0.148	0.059
-237.873	-89.523	-0.254	0.073
-236.859	16.208	-0.178	-0.138
-235.844	-113.513	-0.226	-0.043
-234.830	-200.000	-0.019	0.281
-233.815	-99.936	0.141	0.035
-232.800	800.000	-0.074	-0.233
-231.786	-64.133	-0.181	0.073
-230.771	59.345	-0.092	-0.089
-229.757	484.846	-0.140	0.314
-228.742	71.404	0.162	-0.166
-227.727	-1.761	0.142	-0.098
-226.713	326.126	0.130	0.245
-225.698	-20.297	0.324	-0.196
-224.684	-200.000	0.015	0.106
-223.669	533.728	-0.069	0.160
-222.655	196.211	-0.027	0.041
-221.640	51.957	-0.128	-0.120
-220.625	-120.932	0.136	-0.022
-219.611	800.000	0.073	0.242
-218.596	-200.000	-0.009	-0.234
-217.582	-95.190	-0.105	-0.028
-216.567	-200.000	0.001	0.319
-215.552	-94.410	-0.145	0.039
-214.538	-200.000	0.074	-0.354
-213.523	165.705	0.078	0.108
-212.509	62.207	-0.144	0.141
-211.494	800.000	0.114	0.350
-210.479	16.543	-0.126	0.098
-209.465	-101.784	0.143	-0.034
-208.450	-102.474	-0.182	-0.043
-207.436	-99.888	0.443	0.109
-206.421	100.507	-0.139	0.159
-205.406	-200.000	0.138	0.000
-204.392	-200.000	0.036	-0.215
-203.377	-80.376	0.270	-0.089
-202.363	-86.956	-0.113	0.034
-201.348	-38.714	0.168	-0.087
-200.333	-63.759	-0.213	0.086
-199.319	800.000	0.052	0.148
-198.304	-172.790	-0.141	-0.004
-197.290	-70.506	-0.148	-0.055
-196.275	-200.000	-0.048	-0.224
-195.260	-164.351	0.356	-0.016
-194.246	176.331	0.020	-0.029
-193.231	4.003	-0.235	-0.169
-192.217	5.862	0.111	0.080
-191.202	74.046	0.204	0.211
-190.187	-200.000	0.003	0.034
-189.173	61.674	0.203	0.199
-188.158	119.372	-0.173	0.210
-187.144	-120.418	0.129	0.022
-186.129	-151.327	-0.122	-0.009
-185.114	-44.281	-0.105	-0.052
-184.100	-96.915	0.087	0.022
-183.085	-45.991	-0.106	0.051
-182.071	38.071	0.174	0.152
-181.056	-108.780	0.048	-0.010
-180.042	-200.000	0.062	-0.302
-179.027	156.889	-0.195	0.264
-178.012	46.389	-0.111	-0.101
-176.998	43.952	-0.090	-0.081
-175.983	256.560	0.134	-0.226
-174.969	-152.541	-0.256	0.018
-173.954	-121.567	-0.247	-0.040
-172.939	61.356	-0.156	0.152
-171.925	74.410	0.229	0.236
-170.910	262.699	-0.116	0.197
-169.896	-128.895	0.276	-0.038
-168.881	97.807	0.093	0.104
-167.866	-33.432	0.082	0.045
-166.852	-94.691	-0.331	0.088
-165.837	-150.769	0.299	-0.022
-164.823	-164.834	0.115	0.005
-163.808	63.106	-0.054	-0.053
-162.793	-198.025	-0.328	-0.002
-161.779	-200.000	-0.015	-0.179
-160.764	418.850	-0.069	-0.146
-159.750	-2.139	-0.332	0.229
-158.735	-26.929	0.209	-0.120
-157.720	-200.000	0.016	0.383
-156.706	126.272	-0.334	-0.414
-155.691	-80.949	0.132	0.043
-154.677	800.000	0.090	-0.286
-153.662	-200.000	0.048	0.242
-152.647	-129.453	-0.252	0.034
-151.633	162.179	-0.009	-0.012
-150.618	439.921	0.079	0.170
-149.604	-82.849	0.403	-0.128
-148.589	-200.000	-0.093	-0.453
-147.574	507.662	-0.012	0.027
-146.560	265.364	-0.072	0.124
-145.545	118.318	-0.125	-0.151
-144.531	-200.000	0.005	0.164
-143.516	-117.778	-0.021	0.004
-142.502	-143.089	0.144	-0.014
-141.487	-48.089	-0.185	-0.088
-140.472	-130.913	-0.151	0.020
-139.458	-77.843	0.167	-0.057
-138.443	800.000	-0.037	-0.136
-137.429	-200.000	-0.072	0.307
-136.414	78.692	0.180	0.188
-135.399	-115.658	-0.109	-0.020
-134.385	-200.000	-0.295	0.001
-133.370	-124.953	0.394	-0.060
-132.356	-122.776	0.105	0.017
-131.341	-69.017	-0.534	-0.202
-130.326	40.421	-0.148	-0.131
-129.312	-68.873	-0.300	-0.113
-128.297	344.442	-0.021	0.040
-127.283	381.549	-0.098	0.198
-126.268	-67.738	-0.141	0.054
-125.253	1.173	-0.064	0.045
-124.239	120.644	0.169	0.206
-123.224	44.006	-0.082	-0.073
-122.210	-63.956	-0.388	-0.155
-121.195	-200.000	0.012	-0.176
-120.180	104.767	-0.217	-0.251
-119.166	133.962	0.148	-0.188
-118.151	-140.953	-0.159	-0.016
-117.137	-5.985	0.112	-0.075
-116.122	0.548	-0.241	0.168
-115.107	-150.808	-0.054	-0.004
-114.093	478.664	0.143	0.318
-113.078	313.224	-0.039	0.072
-112.064	57.663	-0.114	0.109
-111.049	-100.649	-0.131	-0.032
-110.034	68.520	-0.152	-0.152
-109.020	136.881	0.240	0.306
-108.005	-131.282	-0.131	-0.017
-106.991	-200.000	0.001	0.345
-105.976	34.689	-0.178	0.152
-104.962	800.000	-0.028	0.079
-103.947	-185.004	0.201	-0.003
-102.932	27.893	0.251	0.207
-101.918	33.057	-0.172	0.146
-100.903	101.441	0.266	0.303
-99.889	213.279	0.118	0.183
-98.874	-158.562	0.206	-0.012
-97.859	-103.258	0.056	-0.013
-96.845	0.272	-0.122	-0.085
-95.830	-50.822	0.295	0.136
-94.816	800.000	-0.041	0.116
-93.801	-55.420	0.101	-0.044
-92.786	-200.000	0.022	0.131
-91.772	121.818	0.163	-0.199
-90.757	158.481	0.067	-0.091
-89.743	-98.889	0.264	-0.066
-88.728	800.000	-0.106	0.425
-87.713	72.519	0.157	0.160
-86.699	-199.453	-0.313	0.002
-85.684	-35.589	-0.148	0.079
-84.670	-169.908	0.354	0.012
-83.655	183.395	0.087	-0.126
-82.640	-36.152	-0.225	-0.119
-81.626	-200.000	0.033	0.203
-80.611	-55.610	0.214	0.094
-79.597	414.914	0.086	-0.178
-78.582	113.278	0.128	-0.152
-77.567	-90.068	0.430	-0.123
-76.553	-0.264	0.330	0.230
-75.538	547.118	0.135	0.316
-74.524	-200.000	0.015	0.100
-73.509	126.928	-0.076	0.095
-72.494	541.278	0.052	0.122
-71.480	800.000	-0.044	-0.179
-70.465	261.440	0.036	0.061
-69.451	-61.841	-0.158	-0.064
-68.436	-200.000	0.025	-0.378
-67.422	-31.298	0.345	0.190
-66.407	-150.338	0.202	0.015
-65.392	31.725	-0.034	-0.028
-64.378	608.556	-0.043	-0.105
-63.363	-44.610	-0.285	-0.139
-62.349	589.461	0.169	0.407
-61.334	61.128	-0.987	-0.958
-60.319	-24.269	0.687	0.401
-59.305	536.227	-0.461	-1.069
-58.290	247.380	0.801	1.321
-57.276	800.000	0.466	1.353
-56.261	-200.000	115.664	644.318
-55.246	504.747	1534.510	3470.522
-54.232	175.513	2712.980	3842.042
-53.217	98.800	2288.402	2579.681
-52.203	35.366	1898.267	1626.465
-51.188	29.615	1691.758	1405.854
-50.173	27.189	1650.953	1353.844
-49.159	46.908	1708.770	1551.348
-48.144	45.723	1721.768	1554.108
-47.130	29.096	1679.209	1391.282
-46.115	26.456	1665.063	1359.688
-45.100	26.352	1660.229	1354.911
-44.086	26.399	1657.396	1352.896
-43.071	26.322	1655.012	1350.321
-42.057	26.408	1652.280	1348.679
-41.042	26.354	1650.477	1346.751
-40.027	26.475	1648.327	1345.843
-39.013	26.343	1646.739	1343.512
-37.998	26.311	1645.098	1341.889
-36.984	26.388	1643.937	1341.457
-35.969	26.487	1642.337	1340.834
-34.954	26.521	1640.710	1339.704
-33.940	26.403	1639.320	1337.637
-32.925	26.480	1637.289	1336.498
-31.911	26.539	1635.782	1335.649
-30.896	26.482	1633.605	1333.401
-29.881	26.447	1632.500	1332.186
-28.867	26.521	1630.708	1331.217
-27.852	26.425	1629.701	1329.636
-26.838	26.564	1627.981	1329.200
-25.823	26.540	1626.441	1327.712
-24.809	26.602	1624.675	1326.671
-23.794	26.554	1623.225	1325.086
-22.779	26.577	1621.700	1323.960
-21.765	26.568	1620.625	1322.964
-20.750	26.469	1618.682	1320.599
-19.736	26.467	1617.634	1319.680
-18.721	26.619	1615.529	1319.014
-17.706	26.621	1614.495	1318.131
-16.692	26.439	1613.802	1316.192
-15.677	26.543	1611.552	1315.062
-14.663	26.520	1610.306	1313.821
-13.648	26.580	1609.015	1313.157
-12.633	26.537	1607.730	1311.739
-11.619	26.537	1605.785	1310.105
-10.604	26.584	1604.131	1309.042
-9.590	26.509	1602.634	1307.222
-8.575	26.494	1601.546	1306.178
-7.560	26.575	1600.060	1305.500
-6.546	26.509	1599.263	1304.322
-5.531	26.491	1598.744	1303.717
-4.517	26.495	1597.328	1302.539
-3.502	26.410	1596.473	1301.180
-2.487	26.561	1594.652	1300.728
-1.473	26.199	1582.713	1288.357
-0.458	23.455	1562.994	1252.892
0.556	20.949	1564.877	1222.625
1.571	18.603	1589.166	1224.755
2.586	18.274	1601.826	1232.035
3.600	16.174	1545.867	1174.286
4.615	9.515	1438.630	1049.462
5.629	4.021	1379.705	971.967
6.644	3.204	1372.459	961.677
7.659	3.031	1371.195	959.623
8.673	3.147	1370.329	959.659
9.688	3.238	1368.206	958.656
10.702	3.140	1365.297	955.922
11.717	5.739	1369.755	975.145
12.731	12.984	1383.295	1030.070
13.746	19.106	1393.370	1075.862
14.761	20.391	1394.603	1084.752
15.775	19.796	1392.736	1079.492
16.790	18.836	1390.177	1071.428
17.804	17.963	1388.061	1064.270
18.819	17.722	1386.761	1061.673
19.834	17.471	1385.653	1059.171
20.848	17.385	1384.405	1057.586
21.863	17.157	1383.069	1055.059
22.877	17.037	1381.984	1053.396
23.892	17.026	1380.981	1052.469
24.907	16.958	1380.209	1051.363
25.921	17.038	1379.358	1051.118
26.936	17.047	1377.848	1049.931
27.950	17.115	1377.379	1049.901
28.965	17.241	1376.030	1049.559
29.980	17.265	1375.408	1049.139
30.994	17.310	1374.199	1048.404
32.009	17.427	1372.692	1047.877
33.023	17.383	1371.962	1046.961
34.038	17.311	1370.488	1045.300
35.053	17.134	1369.655	1043.480
36.067	17.171	1368.130	1042.455
37.082	17.236	1367.402	1042.210
38.096	17.315	1366.628	1042.007
39.111	17.335	1365.708	1041.339
40.126	17.185	1364.712	1039.570
41.140	16.867	1363.762	1036.807
42.155	16.879	1362.801	1036.061
43.169	16.792	1362.694	1035.352
44.184	16.848	1362.176	1035.213
45.199	16.767	1361.977	1034.473
46.213	17.021	1361.274	1035.402
47.228	17.260	1360.313	1036.036
48.242	17.140	1359.762	1034.790
49.257	17.059	1357.950	1032.826
50.271	17.139	1356.224	1031.908
51.286	17.116	1355.350	1031.014
52.301	17.110	1353.967	1029.834
53.315	16.996	1352.832	1028.190
54.330	16.840	1352.056	1026.561
55.344	16.825	1350.638	1025.303
56.359	16.978	1349.814	1025.515
57.374	16.812	1349.146	1023.911
58.388	16.880	1347.714	1023.147
59.403	16.815	1347.518	1022.514
60.417	16.690	1346.956	1021.245
61.432	16.714	1346.150	1020.683
62.447	16.613	1344.974	1019.095
63.461	16.657	1343.385	1018.069
64.476	16.570	1342.619	1016.872
65.490	16.624	1341.370	1016.159
66.505	16.714	1339.783	1015.411
67.520	16.648	1338.785	1014.169
68.534	16.758	1337.260	1013.581
69.549	16.715	1336.591	1012.727
70.563	16.630	1335.629	1011.397
71.578	16.533	1334.331	1009.751
72.593	16.474	1333.612	1008.761
73.607	16.439	1332.751	1007.813
74.622	16.516	1331.618	1007.324
75.636	16.496	1331.333	1006.901
76.651	16.458	1331.020	1006.350
77.666	16.494	1330.213	1005.866
78.680	16.631	1329.488	1006.046
79.695	16.653	1328.602	1005.414
80.709	16.655	1328.604	1005.339
81.724	16.682	1327.722	1004.744
82.739	16.926	1326.843	1005.435
83.753	17.024	1326.338	1005.547
84.768	17.087	1325.157	1004.932
85.782	17.229	1323.909	1004.739
86.797	17.171	1322.814	1003.475
87.812	16.977	1321.530	1001.269
88.826	17.072	1320.457	1000.923
89.841	17.164	1319.084	1000.337
90.855	17.260	1318.045	1000.024
91.870	17.386	1317.511	1000.274
92.884	17.193	1317.079	998.722
93.899	17.329	1315.950	998.576
94.914	17.361	1315.407	998.263
95.928	17.370	1314.114	997.245
96.943	17.308	1313.010	995.961
97.957	17.230	1312.436	994.978
98.972	17.252	1311.242	994.117
99.987	17.150	1310.389	992.783
101.001	17.223	1309.583	992.511
102.016	17.191	1307.986	991.025
103.030	17.310	1307.049	990.923
104.045	17.216	1306.303	989.722
105.060	17.054	1305.192	987.852
106.074	16.925	1303.291	985.576
107.089	16.712	1301.756	983.091
108.103	16.627	1300.973	981.916
109.118	16.731	1299.322	981.188
110.133	16.701	1297.882	979.837
111.147	16.792	1296.449	979.195
112.162	16.757	1295.313	978.052
113.176	16.793	1294.752	977.745
114.191	16.852	1293.831	977.307
115.206	16.906	1292.259	976.345
116.220	16.854	1290.985	974.997
117.235	16.823	1290.185	974.127
118.249	16.648	1289.530	972.539
119.264	16.749	1287.874	971.787
120.279	16.777	1286.861	971.096
121.293	16.679	1286.018	969.814
122.308	16.684	1284.446	968.570
123.322	16.641	1283.389	967.443
124.337	16.602	1282.629	966.556
125.352	16.564	1281.700	965.557
126.366	16.678	1279.965	964.814
127.381	16.636	1279.289	963.979
128.395	16.485	1278.601	962.515
129.410	16.580	1277.361	962.036
130.424	16.790	1276.440	962.450
131.439	16.878	1275.459	962.127
132.454	16.766	1275.268	961.262
133.468	16.813	1274.438	960.816
134.483	16.877	1273.544	960.422
135.497	16.900	1272.519	959.696
136.512	16.829	1271.426	958.385
137.527	16.854	1270.153	957.482
138.541	16.881	1268.984	956.664
139.556	16.957	1267.382	955.803
140.570	17.036	1266.332	955.369
141.585	17.182	1264.904	955.029
142.600	17.160	1264.061	954.183
143.614	17.239	1263.109	953.828
144.629	17.213	1262.482	953.123
145.643	17.136	1261.172	951.620
146.658	17.085	1259.843	950.245
147.673	17.038	1258.184	948.648
148.687	16.856	1257.409	946.959
149.702	16.957	1255.705	946.160
150.716	16.852	1254.757	944.777
151.731	16.860	1253.619	943.880
152.746	16.948	1252.076	943.121
153.760	17.002	1251.273	942.737
154.775	17.105	1249.879	942.172
155.789	17.101	1248.965	941.376
156.804	17.205	1248.352	941.407
157.819	17.199	1247.290	940.492
158.833	17.179	1246.683	939.837
159.848	17.389	1245.749	940.216
160.862	17.237	1245.003	938.726
161.877	16.975	1243.586	936.132
162.892	16.907	1242.282	934.690
163.906	16.971	1241.062	934.043
164.921	17.042	1240.356	933.821
165.935	17.082	1239.300	933.160
166.950	17.102	1238.807	932.821
167.964	17.147	1237.831	932.250
168.979	17.056	1237.028	931.062
169.994	17.077	1236.302	930.548
171.008	17.142	1235.256	930.032
172.023	17.176	1234.865	929.843
173.037	17.281	1234.547	930.097
174.052	17.241	1233.231	928.806
175.067	17.189	1231.966	927.483
176.081	17.026	1230.665	925.535
177.096	17.099	1229.794	925.198
178.110	17.108	1228.858	924.459
179.125	17.047	1228.048	923.435
180.140	17.205	1226.657	923.168
181.154	17.299	1225.251	922.536
182.169	17.327	1224.424	921.982
183.183	17.450	1223.067	921.546
184.198	17.483	1222.069	920.891
185.213	17.366	1221.356	919.639
186.227	17.449	1220.234	919.161
187.242	17.539	1219.041	918.670
188.256	17.546	1218.125	917.934
189.271	17.528	1217.258	917.106
190.286	17.284	1216.645	915.245
191.300	17.164	1214.957	913.249
192.315	17.018	1214.591	912.112
193.329	16.974	1213.689	911.116
194.344	17.126	1212.831	911.206
195.359	17.233	1212.986	911.815
196.373	17.417	1212.095	912.054
197.388	17.412	1211.954	911.841
198.402	17.607	1211.627	912.556
199.417	17.673	1210.622	912.073
200.432	17.824	1210.353	912.595
201.446	17.806	1209.455	911.744
202.461	17.823	1208.757	911.229
203.475	17.842	1207.757	910.493
204.490	17.654	1206.311	908.323
205.504	17.574	1204.842	906.711
206.519	17.495	1204.017	905.588
207.534	17.485	1202.518	904.329
208.548	17.538	1201.719	903.930
209.563	17.641	1200.722	903.644
210.577	17.625	1200.227	903.106
211.592	17.725	1199.593	903.080
212.607	17.710	1198.342	901.979
213.621	17.880	1197.338	902.040
214.636	17.787	1196.863	901.112
215.650	17.808	1195.848	900.379
216.665	17.732	1195.312	899.494
217.680	17.957	1194.670	900.120
218.694	17.959	1193.540	899.197
219.709	17.972	1192.701	898.553
220.723	17.973	1191.761	897.770
221.738	17.855	1191.436	896.829
222.753	17.863	1190.249	895.895
223.767	17.937	1189.644	895.752
224.782	18.016	1189.440	895.929
225.796	18.048	1188.917	895.627
226.811	18.054	1187.964	894.860
227.826	17.991	1187.111	893.812
228.840	17.935	1186.487	892.966
229.855	17.901	1185.723	892.133
230.869	17.966	1184.401	891.401
231.884	17.856	1183.817	890.308
232.899	17.841	1183.007	889.541
233.913	17.794	1182.092	888.531
234.928	17.746	1181.328	887.628
235.942	17.689	1180.910	886.939
236.957	17.813	1179.839	886.703
237.972	17.741	1178.973	885.599
238.986	17.620	1178.989	884.904
240.001	17.810	1177.941	885.022
241.015	17.893	1176.562	884.339
242.030	17.908	1176.310	884.152
243.045	18.012	1175.310	883.859
244.059	18.002	1174.733	883.296
245.074	18.043	1173.897	882.800
246.088	17.996	1173.457	882.148
247.103	18.146	1172.639	882.230
248.117	18.158	1172.090	881.801
249.132	18.351	1171.459	882.241
250.147	18.496	1170.823	882.431
251.161	18.704	1169.460	882.395
252.176	18.580	1169.304	881.559
253.190	18.569	1168.934	881.146
254.205	18.757	1167.715	881.116
255.220	18.812	1167.284	880.996
256.234	18.735	1166.586	879.996
257.249	18.671	1165.922	879.089
258.263	18.693	1165.368	878.707
259.278	18.725	1164.712	878.298
260.293	18.691	1164.512	877.897
261.307	18.823	1163.738	877.909
262.322	18.760	1163.240	877.132
263.336	18.787	1162.404	876.560
264.351	18.741	1161.971	875.924
265.366	18.920	1161.099	876.100
266.380	18.836	1160.335	875.019
267.395	18.848	1159.270	874.199
268.409	18.756	1158.481	873.059
269.424	18.745	1157.990	872.556
270.439	18.816	1157.353	872.362
271.453	18.736	1156.261	871.054
272.468	18.499	1155.714	869.361
273.482	18.589	1154.721	868.994
274.497	18.629	1154.246	868.763
275.512	18.693	1153.615	868.534
276.526	18.627	1152.976	867.644
277.541	18.585	1152.429	866.945
278.555	18.823	1151.305	867.223
279.570	18.940	1150.633	867.228
280.585	18.959	1150.123	866.865
281.599	18.936	1149.294	866.047
282.614	18.840	1148.151	864.625
283.628	18.800	1146.999	863.479
284.643	18.781	1146.125	862.651
285.657	18.812	1145.186	862.026
286.672	18.762	1144.280	861.016
287.687	18.755	1143.499	860.314
288.701	18.666	1143.037	859.446
289.716	18.869	1141.942	859.563
290.730	18.863	1141.282	858.958
291.745	18.834	1140.480	858.137
292.760	18.945	1140.189	858.396
293.774	18.875	1139.508	857.458
294.789	19.063	1139.053	857.977
295.803	19.069	1138.323	857.377
296.818	18.945	1137.463	856.040
297.833	18.934	1136.570	855.236
298.847	18.819	1135.642	853.888
299.862	18.950	1134.872	853.888
300.876	19.081	1134.067	853.854
301.891	18.973	1133.810	853.050
302.906	19.113	1133.093	853.132
303.920	19.326	1132.591	853.733
304.935	19.232	1131.999	852.744
305.949	19.400	1131.367	853.023
306.964	19.446	1130.876	852.803
307.979	19.312	1129.838	851.287
308.993	19.225	1129.434	850.474
310.008	19.392	1128.397	850.443
311.022	19.276	1127.451	849.086
312.037	19.307	1126.617	848.532
313.052	19.270	1125.539	847.465
314.066	19.142	1124.570	846.034
315.081	19.010	1123.647	844.611
316.095	19.026	1122.904	844.061
317.110	18.973	1122.510	843.426
318.125	18.994	1121.675	842.829
319.139	19.084	1121.097	842.760
320.154	18.955	1120.400	841.533
321.168	19.093	1119.528	841.478
322.183	19.103	1119.225	841.223
323.197	19.141	1118.408	840.720
324.212	19.199	1117.854	840.512
325.227	19.277	1117.019	840.191
326.241	19.051	1116.643	838.732
327.256	19.155	1115.929	838.630
328.270	19.174	1114.719	837.737
329.285	19.195	1113.726	837.020
330.300	19.172	1112.798	836.133
331.314	19.093	1112.212	835.238
332.329	19.141	1111.128	834.585
333.343	19.195	1110.539	834.327
334.358	19.355	1109.216	834.032
335.373	19.314	1109.035	833.626
336.387	19.508	1107.785	833.550
337.402	19.445	1107.182	832.716
338.416	19.546	1106.788	832.834
339.431	19.498	1106.444	832.271
340.446	19.533	1105.864	831.929
341.460	19.716	1104.905	832.014
342.475	19.731	1104.509	831.715
343.489	19.877	1103.451	831.548
344.504	19.903	1102.592	830.951
345.519	19.781	1101.826	829.715
346.533	19.856	1101.491	829.748
347.548	19.928	1100.332	829.147
348.562	19.907	1099.546	828.382
349.577	19.732	1098.727	826.855
350.592	19.712	1097.591	825.832
351.606	19.626	1096.723	824.693
352.621	19.560	1096.234	823.939
353.635	19.483	1095.221	822.739
354.650	19.659	1094.465	822.935
355.665	19.680	1093.776	822.443
356.679	19.699	1093.352	822.142
357.694	19.624	1093.182	821.586
358.708	19.686	1092.675	821.425
359.723	19.806	1091.985	821.402
360.738	19.727	1091.242	820.398
361.752	19.720	1090.817	819.970
362.767	19.816	1090.128	819.838
363.781	19.855	1089.500	819.478
364.796	20.011	1089.145	819.875
365.810	19.993	1088.665	819.358
366.825	20.078	1087.935	819.138
367.840	20.190	1087.537	819.292
368.854	20.289	1086.706	819.064
369.869	20.224	1086.196	818.298
370.883	20.083	1085.300	816.889
371.898	20.136	1083.999	816.085
372.913	20.150	1083.781	815.913
373.927	20.171	1083.564	815.778
374.942	20.230	1082.825	815.428
375.956	20.238	1082.191	814.913
376.971	20.160	1081.658	814.074
377.986	20.361	1081.098	814.523
379.000	20.280	1080.573	813.677
380.015	20.368	1080.161	813.706
381.029	20.494	1079.301	813.580
382.044	20.373	1078.777	812.545
383.059	20.426	1078.315	812.371
384.073	20.390	1077.187	811.283
385.088	20.353	1076.229	810.319
386.102	20.428	1075.131	809.768
387.117	20.309	1074.332	808.538
388.132	20.137	1073.201	806.817
389.146	20.255	1072.357	806.659
390.161	20.154	1071.837	805.729
391.175	20.274	1070.909	805.514
392.190	20.327	1070.281	805.216
393.205	20.406	1069.327	804.795
394.219	20.434	1068.908	804.540
395.234	20.196	1068.086	802.746
396.248	20.336	1066.750	802.321
397.263	20.283	1065.778	801.271
398.278	20.276	1065.282	800.796
399.292	20.154	1064.358	799.468
400.307	20.118	1063.796	798.809
401.321	20.156	1063.387	798.606
402.336	20.220	1062.251	797.978
403.350	20.170	1061.613	797.198
404.365	20.032	1061.370	796.309
405.380	20.252	1060.297	796.444
406.394	20.458	1059.182	796.483
407.409	20.533	1059.253	796.809
408.423	20.619	1058.099	796.265
409.438	20.611	1057.813	795.943
410.453	20.707	1057.302	795.926
411.467	20.690	1056.279	795.007
412.482	20.751	1055.618	794.720
413.496	20.851	1054.856	794.532
414.511	20.842	1054.305	794.003
415.526	20.951	1054.407	794.506
416.540	20.938	1054.005	794.074
417.555	20.923	1053.137	793.281
418.569	20.879	1052.373	792.438
419.584	20.955	1051.687	792.196
420.599	20.969	1051.440	792.002
421.613	155.587	1404.647	1796.942
422.628	142.717	1456.078	1797.037
