DTS Sentinel unit serial number:	SN413079Multiplexer serial number:	ORYXHardware model number:	OX4-SRSoftware version number:	ORYX F/W v4.00 Oryx Data Collector v3.7.2.0data status	okinstallation	princeton_trtdifferential loss correction	single-endedforward channel	channel 2reverse channel	N/Adate	2019/09/17time	01:19:35forward acquisition time	60.00reverse acquisition time	0.00gamma	496.2192k internal	0.2329k external	0.2329temperature offset calibration	0.9974default loss term (dB/km)	0.3790temperature slope calibration	1.0000multiplexer offset coefficient	1.0000multiplexer slope coefficient	1.0000fibre end	0.00T internal ref (°C)	29.50T ext. ref 1 (°C)	0.10T ext. ref 2 (°C)	24.19length (m)	temperature (°C)	Stokes	anti-Stokes-747.200	-90.703	-0.156	-0.045
-746.185	-200.000	0.099	0.441
-745.171	112.466	0.174	-0.212
-744.156	120.332	-0.136	0.171
-743.142	-200.000	0.020	-0.112
-742.127	800.000	0.069	-0.216
-741.112	800.000	0.040	-0.140
-740.098	-135.212	0.135	-0.016
-739.083	-79.403	0.161	0.055
-738.069	119.174	-0.143	0.179
-737.054	-135.155	-0.268	0.032
-736.039	-88.369	0.139	-0.042
-735.025	-87.334	0.125	-0.038
-734.010	-200.000	-0.040	-0.280
-732.996	800.000	0.076	-0.269
-731.981	49.633	-0.157	0.149
-730.966	-46.125	-0.148	-0.073
-729.952	-19.999	-0.125	-0.078
-728.937	800.000	-0.094	-0.276
-727.923	-105.926	0.391	-0.089
-726.908	800.000	0.078	-0.299
-725.894	-89.083	0.080	-0.024
-724.879	800.000	-0.015	-0.047
-723.864	800.000	-0.039	-0.150
-722.850	56.543	-0.070	0.068
-721.835	14.481	0.060	-0.047
-720.821	24.078	-0.180	-0.149
-719.806	-179.648	-0.280	-0.006
-718.791	-105.830	-0.166	0.038
-717.777	800.000	-0.047	-0.196
-716.762	-81.460	-0.260	-0.086
-715.748	-44.083	0.267	0.135
-714.733	-72.997	0.261	-0.097
-713.718	800.000	0.061	-0.216
-712.704	90.386	0.105	0.119
-711.689	-43.159	-0.085	-0.043
-710.675	-6.288	-0.296	-0.203
-709.660	154.000	-0.054	0.075
-708.645	-43.533	0.325	-0.165
-707.631	-98.967	-0.310	0.079
-706.616	-200.000	-0.016	0.234
-705.602	495.653	0.131	-0.303
-704.587	-42.622	-0.246	0.126
-703.572	-84.017	-0.210	0.067
-702.558	-159.018	0.294	-0.017
-701.543	-200.000	0.008	-0.124
-700.529	800.000	0.052	0.186
-699.514	800.000	0.071	0.213
-698.499	-85.649	0.146	-0.046
-697.485	-153.391	0.249	-0.017
-696.470	-200.000	0.040	0.213
-695.456	241.851	-0.013	-0.022
-694.441	-29.324	-0.165	-0.095
-693.426	-200.000	0.002	0.073
-692.412	-55.993	0.229	-0.103
-691.397	42.537	-0.287	-0.263
-690.383	-51.684	-0.239	0.112
-689.368	-200.000	0.032	-0.160
-688.354	-200.000	0.025	0.153
-687.339	-17.021	0.150	0.095
-686.324	134.838	-0.061	0.080
-685.310	-107.652	0.114	0.025
-684.295	671.676	0.072	-0.186
-683.281	164.345	0.175	-0.248
-682.266	592.945	0.049	-0.121
-681.251	-122.005	0.162	0.027
-680.237	50.212	-0.182	-0.172
-679.222	-43.249	-0.245	0.125
-678.208	90.773	0.106	-0.119
-677.193	-12.139	0.417	0.274
-676.178	-44.436	-0.097	-0.049
-675.164	540.510	-0.152	-0.364
-674.149	23.929	0.235	0.195
-673.135	126.884	0.179	-0.228
-672.120	182.026	-0.128	0.189
-671.105	589.825	0.078	-0.193
-670.091	86.179	0.089	0.098
-669.076	63.307	-0.179	0.180
-668.062	-36.389	0.419	0.227
-667.047	800.000	-0.062	-0.251
-666.032	-129.191	-0.398	-0.056
-665.018	-71.017	0.277	0.105
-664.003	-84.578	0.175	0.055
-662.989	-200.000	-0.018	0.086
-661.974	-64.964	-0.092	0.037
-660.959	-200.000	-0.028	0.231
-659.945	132.948	0.216	0.280
-658.930	-200.000	-0.011	-0.203
-657.916	780.895	-0.079	0.216
-656.901	800.000	-0.080	0.251
-655.886	-176.965	0.093	0.002
-654.872	147.951	0.211	0.286
-653.857	340.294	0.257	-0.503
-652.843	127.234	0.104	0.133
-651.828	18.670	0.140	-0.113
-650.814	9.273	0.139	0.106
-649.799	209.391	0.318	-0.501
-648.784	461.746	0.060	-0.134
-647.770	210.661	-0.099	0.157
-646.755	-6.533	0.341	-0.233
-645.741	800.000	-0.028	0.080
-644.726	-76.461	-0.336	0.119
-643.711	-127.767	0.336	-0.049
-642.697	-75.864	0.299	0.106
-641.682	144.359	0.124	-0.167
-640.668	-139.704	-0.471	-0.050
-639.653	-141.869	0.275	-0.028
-638.638	135.227	-0.069	-0.090
-637.624	-151.097	0.249	0.019
-636.609	-128.160	-0.151	-0.022
-635.595	119.825	-0.307	-0.382
-634.580	800.000	0.114	0.379
-633.565	-129.566	0.074	0.010
-632.551	181.838	-0.164	-0.242
-631.536	25.182	0.205	0.171
-630.522	517.048	0.149	-0.350
-629.507	391.920	-0.131	-0.273
-628.492	409.527	0.078	0.167
-627.478	800.000	0.014	-0.041
-626.463	-200.000	-0.037	-0.467
-625.449	-138.413	-0.031	-0.003
-624.434	-22.696	0.206	0.125
-623.419	-18.723	0.116	-0.072
-622.405	-55.353	-0.095	-0.043
-621.390	-73.889	-0.136	0.050
-620.376	121.711	0.089	0.111
-619.361	430.400	-0.164	-0.356
-618.346	-66.270	-0.290	-0.116
-617.332	-144.516	-0.550	-0.051
-616.317	-104.936	0.071	0.016
-615.303	170.139	0.097	0.138
-614.288	-66.244	0.196	-0.078
-613.273	-129.787	0.230	0.032
-612.259	452.865	0.142	-0.314
-611.244	-186.396	0.331	-0.005
-610.230	-63.106	0.113	0.047
-609.215	-200.000	-0.018	-0.284
-608.201	-94.627	-0.468	0.128
-607.186	-28.273	0.178	-0.103
-606.171	-170.242	-0.051	-0.002
-605.157	-15.827	0.058	0.037
-604.142	266.239	-0.057	-0.099
-603.128	-200.000	-0.038	-0.465
-602.113	-167.752	0.319	-0.013
-601.098	-200.000	-0.032	-0.202
-600.084	11.615	0.286	-0.220
-599.069	-187.779	0.326	0.004
-598.055	-200.000	0.017	0.296
-597.040	-200.000	0.022	0.336
-596.025	-200.000	-0.108	-0.000
-595.011	-56.643	-0.196	0.087
-593.996	208.154	-0.290	0.454
-592.982	-90.847	0.285	0.082
-591.967	-200.000	0.001	-0.032
-590.952	6.650	-0.381	-0.284
-589.938	-117.560	0.101	-0.018
-588.923	16.002	0.066	0.052
-587.909	-200.000	0.031	-0.274
-586.894	-200.000	0.022	0.244
-585.879	-117.136	-0.180	-0.033
-584.865	-21.447	-0.150	-0.092
-583.850	-200.000	-0.012	-0.090
-582.836	800.000	-0.036	-0.156
-581.821	-151.591	0.196	0.015
-580.806	-30.549	-0.346	-0.196
-579.792	182.128	0.079	0.117
-578.777	159.804	-0.063	-0.087
-577.763	123.440	-0.091	-0.115
-576.748	800.000	0.096	-0.328
-575.733	130.130	0.081	0.104
-574.719	10.332	0.041	-0.031
-573.704	-37.944	-0.171	0.091
-572.690	-147.620	0.397	-0.033
-571.675	49.684	-0.020	0.019
-570.661	97.495	-0.072	-0.083
-569.646	-200.000	-0.029	0.217
-568.631	800.000	0.049	0.144
-567.617	114.715	0.048	-0.058
-566.602	-103.633	0.090	0.021
-565.588	-19.837	0.045	0.028
-564.573	-76.341	0.168	0.059
-563.558	472.433	-0.074	-0.167
-562.544	-128.201	-0.212	0.030
-561.529	-200.000	0.009	-0.061
-560.515	-94.012	0.314	0.086
-559.500	-120.528	0.144	-0.024
-558.485	47.657	-0.090	-0.084
-557.471	-200.000	0.008	0.227
-556.456	800.000	0.101	0.292
-555.442	-20.277	0.267	0.164
-554.427	-19.420	0.381	-0.236
-553.412	-32.135	0.163	0.091
-552.398	76.489	-0.138	-0.146
-551.383	252.621	-0.042	-0.072
-550.369	151.888	0.145	-0.198
-549.354	800.000	-0.093	-0.372
-548.339	-132.884	-0.195	0.025
-547.325	379.886	0.131	-0.269
-546.310	-113.747	0.088	-0.017
-545.296	165.724	-0.177	0.250
-544.281	-38.208	0.294	0.156
-543.266	-68.532	-0.115	0.045
-542.252	-200.000	-0.010	0.261
-541.237	800.000	0.011	-0.035
-540.223	-200.000	0.049	-0.398
-539.208	-52.456	0.269	0.124
-538.193	-200.000	-0.017	-0.090
-537.179	70.432	-0.038	0.039
-536.164	38.472	0.231	-0.206
-535.150	106.769	0.087	0.103
-534.135	-200.000	-0.063	0.282
-533.121	-53.296	-0.140	-0.064
-532.106	-200.000	-0.007	0.132
-531.091	-31.548	-0.224	0.126
-530.077	-101.760	0.202	-0.049
-529.062	-31.629	0.241	-0.135
-528.048	-30.270	0.179	0.101
-527.033	86.970	-0.148	-0.163
-526.018	-112.364	0.127	-0.025
-525.004	800.000	-0.066	-0.260
-523.989	-18.777	-0.171	0.106
-522.975	-200.000	0.020	0.111
-521.960	-89.175	-0.124	0.036
-520.945	487.155	0.092	0.210
-519.931	571.973	0.101	0.245
-518.916	143.477	0.156	-0.207
-517.902	-2.543	0.263	-0.184
-516.887	-154.610	-0.169	0.011
-515.872	-123.091	0.132	0.021
-514.858	800.000	-0.024	-0.093
-513.843	272.669	0.025	-0.045
-512.829	-200.000	-0.005	-0.383
-511.814	-97.786	-0.369	0.095
-510.799	-200.000	-0.029	0.444
-509.785	-128.179	-0.296	0.042
-508.770	800.000	-0.091	-0.304
-507.756	378.123	-0.079	-0.160
-506.741	-200.000	0.005	0.104
-505.726	800.000	0.061	-0.201
-504.712	-127.484	-0.111	-0.016
-503.697	71.401	0.114	0.118
-502.683	-131.651	0.139	-0.018
-501.668	-2.125	0.112	-0.078
-500.653	-48.365	-0.092	0.044
-499.639	-200.000	-0.014	-0.106
-498.624	-103.111	0.049	0.012
-497.610	104.443	0.108	0.127
-496.595	-107.965	0.597	0.129
-495.581	-200.000	0.015	-0.194
-494.566	190.117	0.128	0.192
-493.551	-158.217	0.162	0.009
-492.537	-92.280	-0.147	0.041
-491.522	-130.254	0.248	0.034
-490.508	41.871	-0.201	-0.181
-489.493	-149.253	-0.072	0.006
-488.478	-200.000	-0.022	-0.241
-487.464	-139.087	-0.282	0.030
-486.449	28.849	-0.189	0.160
-485.435	-141.829	0.364	-0.036
-484.420	-200.000	0.002	0.012
-483.405	-28.578	0.063	-0.036
-482.391	402.587	0.125	-0.262
-481.376	-200.000	-0.032	-0.292
-480.362	-165.645	-0.268	-0.012
-479.347	-200.000	0.015	-0.114
-478.332	800.000	0.048	-0.160
-477.318	22.401	-0.291	0.238
-476.303	13.612	-0.295	0.228
-475.289	800.000	-0.091	0.352
-474.274	-29.949	-0.164	-0.093
-473.259	-23.300	-0.081	0.048
-472.245	-200.000	0.020	-0.305
-471.230	800.000	0.049	0.195
-470.216	141.098	-0.068	-0.089
-469.201	241.081	0.197	0.327
-468.186	91.414	0.378	0.423
-467.172	246.408	0.070	-0.117
-466.157	-104.387	0.379	-0.087
-465.143	-200.000	-0.001	0.008
-464.128	800.000	0.042	0.120
-463.113	-4.206	0.305	-0.210
-462.099	168.520	-0.097	-0.138
-461.084	577.810	-0.064	0.155
-460.070	-71.129	0.120	0.045
-459.055	214.722	0.095	-0.150
-458.040	0.161	-0.114	0.081
-457.026	164.778	-0.279	0.392
-456.011	60.048	-0.219	-0.216
-454.997	-48.967	-0.172	0.082
-453.982	-0.965	0.364	0.256
-452.968	6.765	0.172	0.128
-451.953	483.419	-0.103	0.234
-450.938	800.000	0.030	0.129
-449.924	-168.395	0.295	-0.011
-448.909	800.000	0.033	0.121
-447.895	636.357	-0.124	-0.315
-446.880	-123.388	0.070	0.011
-445.865	235.738	-0.098	-0.161
-444.851	-200.000	0.036	-0.404
-443.836	-112.649	-0.424	0.084
-442.822	-200.000	0.002	0.041
-441.807	-106.252	0.071	-0.016
-440.792	-1.447	0.108	-0.076
-439.778	-200.000	0.029	0.134
-438.763	-200.000	0.006	-0.154
-437.749	800.000	0.070	0.246
-436.734	-50.466	-0.247	0.116
-435.719	31.553	-0.213	-0.182
-434.705	11.420	-0.289	-0.221
-433.690	23.779	0.105	0.086
-432.676	-3.186	-0.108	-0.075
-431.661	776.290	0.090	-0.243
-430.646	53.820	0.014	-0.013
-429.632	145.231	0.108	-0.143
-428.617	132.664	0.117	0.150
-427.603	-46.776	0.222	-0.108
-426.588	-23.465	0.242	0.145
-425.573	47.486	0.200	0.185
-424.559	-200.000	0.027	0.179
-423.544	-135.916	-0.271	-0.032
-422.530	208.643	-0.064	-0.099
-421.515	-83.199	0.469	-0.150
-420.500	800.000	-0.037	0.130
-419.486	513.948	-0.072	0.167
-418.471	-38.334	-0.161	-0.085
-417.457	-38.276	-0.207	0.109
-416.442	79.119	-0.103	0.109
-415.428	473.128	0.122	-0.274
-414.413	-26.534	-0.109	0.063
-413.398	165.223	0.143	0.201
-412.384	-11.532	-0.053	0.035
-411.369	-106.282	-0.230	0.051
-410.355	301.926	0.149	0.274
-409.340	382.814	0.103	-0.211
-408.325	-152.122	0.213	0.015
-407.311	-139.360	-0.182	0.019
-406.296	-75.692	-0.239	0.085
-405.282	-7.636	-0.137	-0.092
-404.267	15.243	-0.170	-0.132
-403.252	69.446	-0.050	-0.051
-402.238	105.975	0.186	-0.219
-401.223	-200.000	0.009	-0.137
-400.209	-186.789	-0.098	-0.001
-399.194	-88.649	-0.073	-0.022
-398.179	419.014	-0.017	-0.037
-397.165	177.175	-0.137	0.198
-396.150	-200.000	-0.001	-0.157
-395.136	-64.257	-0.014	-0.006
-394.121	-40.726	-0.090	0.046
-393.106	-94.061	-0.359	-0.098
-392.092	26.190	0.038	0.031
-391.077	800.000	0.014	0.053
-390.063	-144.839	0.362	-0.033
-389.048	188.798	0.075	-0.112
-388.033	67.371	0.194	-0.197
-387.019	253.332	-0.253	-0.429
-386.004	65.052	0.064	0.064
-384.990	-50.925	-0.255	0.119
-383.975	-26.075	-0.158	-0.093
-382.960	95.649	-0.173	-0.197
-381.946	163.673	-0.117	0.164
-380.931	194.627	-0.051	0.077
-379.917	800.000	0.064	-0.191
-378.902	800.000	-0.054	-0.180
-377.888	219.451	-0.234	-0.372
-376.873	146.059	-0.105	-0.140
-375.858	148.571	-0.141	0.189
-374.844	41.938	-0.116	0.104
-373.829	-163.209	0.258	0.012
-372.815	-200.000	0.010	-0.062
-371.800	22.318	0.111	0.090
-370.785	56.825	-0.137	0.132
-369.771	-200.000	0.011	-0.224
-368.756	-78.595	-0.252	0.085
-367.742	57.026	0.079	-0.076
-366.727	-19.849	0.238	0.146
-365.712	-120.755	-0.169	-0.028
-364.698	162.418	0.117	0.163
-363.683	-99.930	-0.226	-0.056
-362.669	-121.078	0.235	-0.039
-361.654	128.062	-0.160	0.201
-360.639	-22.212	0.228	-0.137
-359.625	800.000	-0.055	-0.190
-358.610	800.000	-0.014	-0.049
-357.596	-200.000	-0.035	0.183
-356.581	-200.000	0.062	0.286
-355.566	64.060	-0.110	-0.109
-354.552	-21.600	0.246	-0.149
-353.537	-200.000	0.026	-0.260
-352.523	-55.725	-0.513	-0.227
-351.508	-145.504	0.233	-0.021
-350.493	121.739	-0.102	0.126
-349.479	-42.325	-0.159	-0.081
-348.464	-171.629	0.325	0.011
-347.450	8.477	-0.334	-0.249
-346.435	800.000	-0.025	-0.087
-345.420	106.636	-0.164	-0.193
-344.406	-11.727	-0.213	-0.139
-343.391	171.470	-0.172	0.245
-342.377	-200.000	0.031	0.257
-341.362	-86.259	0.191	0.058
-340.348	-104.040	0.044	-0.010
-339.333	-200.000	0.013	-0.187
-338.318	171.122	0.220	0.313
-337.304	-5.325	-0.178	0.121
-336.289	-145.738	0.368	-0.033
-335.275	170.399	0.012	0.017
-334.260	-200.000	0.008	-0.175
-333.245	-70.940	-0.535	-0.200
-332.231	-108.794	-0.080	-0.017
-331.216	-5.348	-0.348	0.237
-330.202	562.916	-0.046	0.110
-329.187	340.314	-0.017	0.033
-328.172	-200.000	-0.057	-0.259
-327.158	-7.579	-0.264	0.177
-326.143	39.438	-0.032	-0.028
-325.129	-34.021	0.044	-0.024
-324.114	380.969	-0.076	0.154
-323.099	40.712	0.169	0.151
-322.085	170.546	0.173	0.245
-321.070	-101.694	0.311	-0.075
-320.056	-200.000	-0.044	0.208
-319.041	-51.506	-0.132	-0.061
-318.026	-88.875	-0.282	0.083
-317.012	-93.714	-0.156	-0.043
-315.997	-200.000	-0.027	0.213
-314.983	-200.000	-0.048	0.440
-313.968	-85.402	-0.217	0.067
-312.953	205.532	0.166	-0.255
-311.939	-200.000	-0.242	0.000
-310.924	54.031	0.091	-0.086
-309.910	800.000	-0.060	-0.246
-308.895	-11.507	-0.099	-0.064
-307.880	-200.000	0.029	0.146
-306.866	-200.000	0.003	0.085
-305.851	-200.000	0.023	0.207
-304.837	303.879	0.238	0.436
-303.822	25.633	0.112	0.092
-302.807	64.427	0.069	-0.069
-301.793	292.479	-0.088	-0.159
-300.778	77.646	-0.129	0.136
-299.764	-10.289	-0.047	0.031
-298.749	-141.858	-0.563	0.056
-297.735	785.636	-0.020	0.054
-296.720	-66.924	-0.159	0.062
-295.705	-157.336	0.018	-0.001
-294.691	-104.987	0.190	0.043
-293.676	-91.963	-0.180	-0.050
-292.662	-11.279	-0.053	-0.035
-291.647	-62.378	0.226	0.093
-290.632	-197.493	-0.197	-0.001
-289.618	58.871	-0.248	0.242
-288.603	223.857	0.144	-0.230
-287.589	-132.342	-0.180	-0.023
-286.574	800.000	-0.063	-0.223
-285.559	-190.423	-0.251	-0.003
-284.545	-200.000	-0.017	-0.532
-283.530	78.740	-0.272	-0.288
-282.516	800.000	-0.079	-0.263
-281.501	-65.917	0.060	0.024
-280.486	-200.000	-0.018	0.201
-279.472	99.930	0.161	-0.184
-278.457	800.000	0.061	-0.171
-277.443	392.602	-0.042	0.086
-276.428	4.295	0.261	0.189
-275.413	33.714	-0.073	0.063
-274.399	106.931	-0.036	-0.042
-273.384	800.000	-0.047	-0.186
-272.370	800.000	0.101	0.402
-271.355	687.790	-0.067	0.172
-270.340	-28.883	0.253	0.144
-269.326	-84.824	0.182	0.057
-268.311	21.166	-0.212	0.170
-267.297	114.945	-0.224	-0.271
-266.282	-200.000	0.044	-0.227
-265.267	-165.754	0.282	-0.012
-264.253	192.169	-0.031	-0.046
-263.238	-200.000	-0.013	0.095
-262.224	420.952	-0.037	-0.079
-261.209	-86.974	0.354	0.107
-260.195	-141.820	-0.242	0.024
-259.180	800.000	-0.111	-0.332
-258.165	298.813	0.064	0.116
-257.151	326.362	0.194	0.367
-256.136	-200.000	-0.024	-0.113
-255.122	-97.415	-0.212	0.054
-254.107	4.474	-0.303	0.219
-253.092	-140.720	-0.171	0.017
-252.078	19.502	0.075	0.060
-251.063	61.109	-0.185	0.181
-250.049	389.839	-0.123	-0.251
-249.034	-48.441	0.171	0.081
-248.019	-132.931	0.328	-0.041
-247.005	63.915	0.125	0.124
-245.990	453.158	0.070	0.154
-244.976	-103.504	0.413	0.096
-243.961	90.257	0.125	0.138
-242.946	-62.773	0.306	0.125
-241.932	-200.000	-0.006	0.073
-240.917	283.665	0.182	0.322
-239.903	800.000	-0.012	-0.048
-238.888	-200.000	-0.011	-0.302
-237.873	-200.000	0.006	-0.163
-236.859	-37.709	0.382	0.201
-235.844	225.507	-0.139	0.222
-234.830	800.000	0.101	0.284
-233.815	37.216	-0.131	-0.114
-232.800	137.530	-0.235	0.304
-231.786	-200.000	-0.008	0.152
-230.771	-200.000	0.043	0.361
-229.757	48.852	-0.127	0.117
-228.742	193.729	0.098	-0.146
-227.727	137.780	0.097	-0.125
-226.713	-106.792	0.351	0.077
-225.698	-115.084	-0.180	-0.034
-224.684	-54.685	-0.128	0.057
-223.669	784.806	-0.099	0.269
-222.655	171.142	0.119	0.168
-221.640	190.849	-0.076	0.113
-220.625	34.195	0.089	0.077
-219.611	-200.000	0.071	0.331
-218.596	-200.000	-0.259	-0.000
-217.582	-200.000	-0.049	0.236
-216.567	-200.000	0.055	0.307
-215.552	311.669	-0.081	0.150
-214.538	-200.000	-0.002	-0.126
-213.523	-61.774	-0.305	-0.126
-212.509	800.000	0.059	-0.182
-211.494	574.965	0.075	0.180
-210.479	800.000	-0.099	0.372
-209.465	4.707	0.197	0.143
-208.450	167.663	-0.164	-0.229
-207.436	-75.778	-0.228	-0.080
-206.421	-200.000	0.040	0.180
-205.406	-200.000	-0.003	0.132
-204.392	12.536	-0.434	-0.330
-203.377	111.807	0.173	-0.205
-202.363	9.441	0.288	0.215
-201.348	-160.043	0.359	-0.019
-200.333	441.301	-0.061	-0.131
-199.319	689.996	0.088	0.227
-198.304	95.270	-0.061	-0.069
-197.290	-13.418	-0.143	0.091
-196.275	170.931	0.107	0.151
-195.260	-195.495	0.222	0.002
-194.246	-35.553	-0.250	0.134
-193.231	800.000	0.067	0.210
-192.217	-200.000	-0.017	-0.078
-191.202	-43.906	-0.249	0.124
-190.187	-127.178	0.169	0.024
-189.173	-16.532	0.129	0.081
-188.158	800.000	0.046	-0.168
-187.144	800.000	0.087	-0.255
-186.129	-132.422	-0.380	0.048
-185.114	57.412	0.186	-0.179
-184.100	-68.780	0.256	0.098
-183.085	-96.974	-0.558	-0.144
-182.071	-179.518	0.253	0.005
-181.056	188.523	-0.131	0.193
-180.042	800.000	0.024	0.083
-179.027	241.739	0.130	0.214
-178.012	-76.364	-0.144	-0.050
-176.998	109.002	-0.090	-0.106
-175.983	144.640	0.086	-0.113
-174.969	-29.740	-0.313	-0.176
-173.954	570.808	0.087	-0.209
-172.939	345.376	-0.138	0.267
-171.925	9.848	0.347	-0.259
-170.910	209.503	0.075	-0.116
-169.896	-35.069	0.229	0.123
-168.881	-48.482	-0.063	0.030
-167.866	-76.844	-0.292	0.101
-166.852	-77.286	0.253	0.087
-165.837	-24.216	0.326	-0.192
-164.823	20.248	-0.194	-0.155
-163.808	129.060	0.039	-0.049
-162.793	800.000	-0.099	0.369
-161.779	-131.135	-0.595	-0.078
-160.764	-152.238	0.131	0.009
-159.750	-149.571	-0.154	0.012
-158.735	-200.000	0.013	0.273
-157.720	-200.000	0.071	-0.316
-156.706	-72.984	-0.103	-0.037
-155.691	-195.568	0.355	-0.003
-154.677	-138.996	0.525	0.056
-153.662	394.390	-0.010	-0.020
-152.647	-200.000	0.007	0.159
-151.633	-200.000	0.012	-0.166
-150.618	-50.413	0.252	-0.117
-149.604	397.559	0.151	-0.312
-148.589	-22.327	0.099	-0.059
-147.574	-80.529	0.009	-0.003
-146.560	-200.000	0.023	-0.290
-145.545	800.000	-0.059	0.192
-144.531	-200.000	0.006	-0.117
-143.516	66.724	0.196	-0.197
-142.502	331.669	0.104	0.198
-141.487	72.009	0.126	0.129
-140.472	320.738	-0.166	0.311
-139.458	187.937	0.183	-0.269
-138.443	-200.000	-0.004	0.067
-137.429	41.969	0.347	-0.310
-136.414	-66.134	-0.084	0.033
-135.399	-44.364	0.231	0.114
-134.385	-200.000	0.042	0.240
-133.370	-200.000	-0.045	-0.362
-132.356	-200.000	-0.038	0.211
-131.341	-200.000	0.071	0.328
-130.326	-17.157	0.117	-0.073
-129.312	81.615	0.209	0.223
-128.297	114.449	-0.244	-0.292
-127.283	156.224	0.156	-0.212
-126.268	-200.000	0.055	0.358
-125.253	-125.002	0.220	-0.033
-124.239	-81.175	0.367	-0.119
-123.224	249.183	0.103	-0.171
-122.210	248.584	0.119	0.198
-121.195	616.570	0.102	-0.251
-120.180	758.682	0.092	-0.246
-119.166	612.806	0.111	-0.272
-118.151	-154.695	0.056	0.004
-117.137	527.227	-0.067	0.155
-116.122	800.000	0.036	-0.149
-115.107	-200.000	0.073	0.401
-114.093	-50.462	0.114	0.053
-113.078	-31.843	-0.288	0.158
-112.064	195.576	-0.100	0.149
-111.049	-14.230	0.202	0.128
-110.034	111.562	0.113	0.134
-109.020	627.652	0.055	0.136
-108.005	35.753	0.240	0.207
-106.991	148.004	-0.054	-0.072
-105.976	230.534	0.114	-0.184
-104.962	-86.611	-0.082	-0.025
-103.947	-0.646	-0.087	-0.061
-102.932	19.123	-0.250	-0.197
-101.918	169.768	-0.195	0.273
-100.903	-75.301	-0.220	-0.077
-99.889	-5.085	0.116	0.078
-98.874	-142.371	-0.123	-0.012
-97.859	75.953	0.013	0.014
-96.845	-200.000	-0.016	-0.348
-95.830	8.184	-0.170	-0.126
-94.816	7.644	0.180	0.132
-93.801	-120.113	-0.161	0.027
-92.786	-72.038	0.202	-0.074
-91.772	-200.000	0.038	0.417
-90.757	138.806	-0.105	-0.135
-89.743	-200.000	0.041	-0.195
-88.728	-14.895	0.102	0.064
-87.713	86.770	-0.169	-0.183
-86.699	-151.473	-0.396	0.029
-85.684	218.286	0.170	0.266
-84.670	-46.825	0.251	0.120
-83.655	-200.000	-0.019	-0.269
-82.640	529.361	-0.003	-0.008
-81.626	-200.000	-0.008	0.352
-80.611	-10.239	-0.140	-0.091
-79.597	-71.659	0.160	0.059
-78.582	-95.352	-0.225	-0.059
-77.567	63.028	-0.167	-0.164
-76.553	271.676	-0.092	-0.159
-75.538	78.827	0.106	-0.112
-74.524	-15.564	0.217	0.136
-73.509	-162.181	0.360	-0.018
-72.494	276.612	-0.207	-0.360
-71.480	-44.298	-0.089	0.044
-70.465	106.739	0.058	0.067
-69.451	-200.000	0.016	-0.184
-68.436	-124.946	0.185	0.028
-67.422	-200.000	0.005	0.288
-66.407	-4.100	0.210	0.142
-65.392	800.000	-0.035	0.149
-64.378	78.257	0.150	-0.157
-63.363	-200.000	-0.029	-0.180
-62.349	800.000	0.055	-0.203
-61.334	85.815	-1.005	-1.084
-60.319	118.793	0.386	0.467
-59.305	-200.000	-0.165	-0.951
-58.290	102.509	0.904	1.036
-57.276	173.932	1.057	1.497
-56.261	-200.000	108.545	591.314
-55.246	446.775	1481.040	3193.881
-54.232	146.154	2673.284	3516.935
-53.217	99.834	2289.728	2600.511
-52.203	38.464	1900.320	1660.710
-51.188	32.689	1688.740	1432.036
-50.173	30.135	1645.311	1376.220
-49.159	49.181	1698.815	1565.150
-48.144	49.466	1714.825	1581.983
-47.130	32.346	1672.117	1415.132
-46.115	29.593	1658.071	1382.619
-45.100	29.416	1652.660	1376.725
-44.086	29.405	1650.239	1374.577
-43.071	29.380	1647.510	1372.065
-42.057	29.350	1644.996	1369.689
-41.042	29.431	1642.746	1368.362
-40.027	29.324	1641.418	1366.411
-39.013	29.407	1638.823	1364.808
-37.998	29.304	1637.959	1363.273
-36.984	29.397	1635.784	1362.096
-35.969	29.487	1634.593	1361.713
-34.954	29.547	1633.238	1360.973
-33.940	29.493	1631.834	1359.357
-32.925	29.528	1629.567	1357.670
-31.911	29.495	1628.258	1356.284
-30.896	29.478	1625.935	1354.170
-29.881	29.517	1624.604	1353.288
-28.867	29.520	1622.851	1351.797
-27.852	29.519	1621.497	1350.612
-26.838	29.470	1620.224	1349.138
-25.823	29.408	1619.018	1347.631
-24.809	29.496	1617.226	1346.727
-23.794	29.485	1616.304	1345.823
-22.779	29.480	1614.704	1344.398
-21.765	29.485	1613.066	1343.018
-20.750	29.453	1610.950	1340.970
-19.736	29.505	1610.056	1340.552
-18.721	29.551	1608.221	1339.305
-17.706	29.562	1607.002	1338.316
-16.692	29.575	1605.242	1336.895
-15.677	29.530	1603.969	1335.454
-14.663	29.566	1602.222	1334.205
-13.648	29.535	1601.190	1333.069
-12.633	29.522	1599.459	1331.479
-11.619	29.549	1597.963	1330.379
-10.604	29.597	1596.235	1329.234
-9.590	29.576	1595.700	1328.584
-8.575	29.602	1593.793	1327.132
-7.560	29.526	1593.034	1325.897
-6.546	29.529	1592.216	1325.189
-5.531	29.559	1590.485	1323.912
-4.517	29.553	1589.479	1322.975
-3.502	29.590	1588.534	1322.400
-2.487	29.701	1586.265	1321.255
-1.473	29.334	1574.752	1309.009
-0.458	26.634	1556.319	1274.661
0.556	21.498	1557.378	1244.385
1.571	19.333	1580.909	1247.430
2.586	19.015	1594.227	1255.505
3.600	17.547	1540.866	1203.010
4.615	9.659	1431.277	1065.398
5.629	1.791	1366.493	967.281
6.644	0.351	1357.518	951.756
7.659	0.070	1356.535	949.209
8.673	-0.020	1356.093	948.248
9.688	-0.002	1353.634	946.559
10.702	-0.129	1350.655	943.592
11.717	3.611	1356.572	971.202
12.731	12.286	1369.851	1035.540
13.746	17.457	1376.371	1073.063
14.761	17.214	1375.595	1070.837
15.775	16.290	1372.245	1062.317
16.790	15.198	1369.994	1053.619
17.804	14.371	1367.875	1046.704
18.819	14.038	1366.290	1043.306
19.834	13.831	1364.874	1040.836
20.848	13.569	1363.644	1038.167
21.863	13.278	1362.586	1035.444
22.877	13.187	1361.323	1033.827
23.892	13.118	1360.451	1032.640
24.907	13.069	1359.509	1031.530
25.921	13.128	1358.580	1031.100
26.936	13.292	1357.394	1031.129
27.950	13.185	1356.844	1029.952
28.965	13.260	1355.945	1029.647
29.980	13.361	1355.020	1029.485
30.994	13.355	1354.131	1028.682
32.009	13.466	1352.933	1028.367
33.023	13.414	1351.828	1027.115
34.038	13.409	1351.080	1026.422
35.053	13.424	1349.685	1025.365
36.067	13.352	1348.562	1023.979
37.082	13.352	1347.908	1023.391
38.096	13.426	1346.819	1022.929
39.111	13.475	1346.078	1022.578
40.126	13.257	1345.407	1020.633
41.140	13.227	1344.680	1019.804
42.155	13.176	1343.684	1018.644
43.169	13.009	1344.249	1017.952
44.184	13.162	1343.838	1018.495
45.199	13.091	1343.563	1017.760
46.213	13.261	1342.756	1018.108
47.228	13.277	1341.660	1017.281
48.242	13.265	1340.623	1016.332
49.257	13.296	1339.354	1015.474
50.271	13.314	1337.659	1014.208
51.286	13.309	1336.403	1013.136
52.301	13.330	1335.055	1012.152
53.315	13.244	1334.173	1010.869
54.330	13.196	1333.389	1009.891
55.344	13.215	1332.011	1008.875
56.359	13.202	1330.535	1007.589
57.374	13.136	1330.132	1006.788
58.388	13.170	1329.251	1006.240
59.403	13.058	1328.912	1005.214
60.417	13.088	1327.909	1004.548
61.432	13.019	1327.478	1003.716
62.447	13.054	1325.925	1002.666
63.461	12.974	1324.903	1001.318
64.476	12.934	1324.062	1000.351
65.490	13.069	1322.561	999.943
66.505	13.112	1320.978	998.919
67.520	13.043	1320.063	997.723
68.534	13.104	1319.073	997.256
69.549	13.138	1317.941	996.518
70.563	13.058	1316.844	995.113
71.578	12.999	1316.186	994.172
72.593	13.035	1314.859	993.302
73.607	12.962	1313.999	992.126
74.622	12.916	1313.439	991.336
75.636	12.979	1312.789	991.136
76.651	12.932	1311.711	989.957
77.666	12.916	1311.502	989.611
78.680	13.056	1310.431	989.555
79.695	13.000	1309.983	988.798
80.709	13.042	1308.934	988.166
81.724	13.048	1308.683	987.924
82.739	13.302	1307.420	988.403
83.753	13.156	1306.385	986.663
84.768	13.300	1305.286	986.605
85.782	13.389	1303.926	986.021
86.797	13.257	1302.884	984.358
87.812	13.237	1301.693	983.250
88.826	13.234	1300.239	982.049
89.841	13.266	1299.626	981.686
90.855	13.241	1299.001	980.982
91.870	13.265	1297.817	980.142
92.884	13.323	1296.938	979.736
93.899	13.307	1295.993	978.841
94.914	13.446	1295.552	979.246
95.928	13.361	1294.564	977.906
96.943	13.303	1293.686	976.816
97.957	13.293	1293.026	976.173
98.972	13.368	1291.200	975.149
99.987	13.412	1290.572	974.845
101.001	13.388	1289.731	973.982
102.016	13.295	1289.085	972.865
103.030	13.402	1288.287	972.805
104.045	13.359	1287.067	971.543
105.060	13.300	1285.420	969.872
106.074	13.245	1284.333	968.643
107.089	13.082	1283.200	966.747
108.103	13.069	1281.885	965.595
109.118	13.143	1280.591	964.966
110.133	13.081	1279.266	963.519
111.147	13.140	1278.124	962.918
112.162	13.134	1276.764	961.774
113.176	13.276	1275.377	961.471
114.191	13.314	1274.372	960.846
115.206	13.184	1273.659	959.471
116.220	13.223	1272.199	958.512
117.235	13.234	1270.990	957.581
118.249	13.181	1270.217	956.605
119.264	13.060	1269.174	955.036
120.279	13.051	1268.243	954.197
121.293	13.170	1266.724	953.659
122.308	13.190	1265.867	953.045
123.322	13.099	1265.097	951.859
124.337	13.181	1263.935	951.372
125.352	13.171	1262.823	950.392
126.366	13.188	1261.669	949.539
127.381	13.071	1260.661	948.020
128.395	13.076	1259.472	947.074
129.410	13.263	1258.060	946.997
130.424	13.117	1257.882	945.943
131.439	13.296	1256.728	946.015
132.454	13.182	1255.554	944.398
133.468	13.251	1254.918	944.228
134.483	13.249	1254.127	943.540
135.497	13.190	1253.130	942.371
136.512	13.201	1251.784	941.335
137.527	13.208	1250.540	940.356
138.541	13.241	1248.572	938.982
139.556	13.284	1247.746	938.524
140.570	13.301	1247.217	938.141
141.585	13.326	1245.263	936.729
142.600	13.314	1244.445	935.960
143.614	13.309	1243.636	935.241
144.629	13.373	1242.290	934.511
145.643	13.379	1241.122	933.583
146.658	13.339	1239.967	932.404
147.673	13.267	1239.152	931.302
148.687	13.272	1237.729	930.179
149.702	13.259	1236.028	928.744
150.716	13.284	1235.166	928.156
151.731	13.424	1233.234	927.407
152.746	13.311	1232.757	926.333
153.760	13.488	1231.028	925.939
154.775	13.385	1230.258	924.703
155.789	13.564	1228.838	924.553
156.804	13.503	1227.870	923.405
157.819	13.459	1227.384	922.713
158.833	13.473	1226.101	921.744
159.848	13.584	1225.172	921.582
160.862	13.558	1224.041	920.503
161.877	13.492	1223.289	919.491
162.892	13.455	1222.323	918.478
163.906	13.448	1221.232	917.537
164.921	13.430	1220.692	916.952
165.935	13.442	1219.835	916.292
166.950	13.533	1219.049	916.128
167.964	13.518	1218.290	915.390
168.979	13.458	1217.610	914.470
169.994	13.410	1217.210	913.820
171.008	13.585	1215.960	913.767
172.023	13.509	1215.352	912.809
173.037	13.609	1214.432	912.587
174.052	13.551	1214.178	911.998
175.067	13.584	1212.665	910.963
176.081	13.584	1211.630	910.103
177.096	13.627	1210.160	909.158
178.110	13.659	1209.184	908.519
179.125	13.596	1207.999	907.200
180.140	13.666	1207.278	906.963
181.154	13.635	1205.750	905.567
182.169	13.593	1205.018	904.708
183.183	13.717	1203.595	904.237
184.198	13.743	1202.090	903.167
185.213	13.812	1200.734	902.441
186.227	13.734	1199.959	901.357
187.242	13.847	1199.032	901.194
188.256	13.810	1198.001	900.139
189.271	13.706	1197.303	898.968
190.286	13.755	1195.697	897.951
191.300	13.588	1195.195	896.592
192.315	13.551	1194.944	896.122
193.329	13.575	1193.942	895.419
194.344	13.655	1193.250	895.256
195.359	13.729	1192.825	895.256
196.373	13.703	1192.266	894.617
197.388	13.854	1191.569	894.830
198.402	13.989	1190.729	894.845
199.417	13.973	1190.681	894.644
200.432	13.958	1189.721	893.763
201.446	14.060	1188.893	893.614
202.461	14.091	1187.522	892.667
203.475	14.062	1186.338	891.542
204.490	14.030	1185.265	890.489
205.504	14.006	1183.851	889.215
206.519	13.919	1183.159	888.153
207.534	14.019	1181.794	887.586
208.548	14.028	1180.845	886.843
209.563	14.011	1180.156	886.154
210.577	14.026	1179.608	885.744
211.592	14.109	1178.431	885.223
212.607	14.199	1176.985	884.540
213.621	14.090	1176.810	883.751
214.636	14.156	1175.428	882.981
215.650	14.083	1174.607	881.903
216.665	14.098	1173.986	881.436
217.680	14.100	1173.191	880.771
218.694	14.252	1172.033	880.629
219.709	14.140	1171.707	879.713
220.723	14.197	1170.602	879.107
221.738	14.335	1169.485	878.919
222.753	14.308	1169.510	878.718
223.767	14.281	1168.826	877.984
224.782	14.397	1167.781	877.735
225.796	14.368	1167.058	876.959
226.811	14.403	1166.515	876.656
227.826	14.314	1165.983	875.714
228.840	14.308	1165.288	875.081
229.855	14.295	1164.812	874.580
230.869	14.308	1163.725	873.752
231.884	14.369	1162.538	873.101
232.899	14.340	1161.929	872.416
233.913	14.225	1161.358	871.309
234.928	14.284	1160.486	870.888
235.942	14.339	1159.786	870.570
236.957	14.247	1159.048	869.458
237.972	14.401	1157.862	869.295
238.986	14.371	1157.366	868.692
240.001	14.374	1156.746	868.162
241.015	14.423	1155.894	867.705
242.030	14.355	1155.397	866.898
243.045	14.421	1154.540	866.524
244.059	14.514	1153.845	866.408
245.074	14.496	1152.944	865.560
246.088	14.377	1152.372	864.439
247.103	14.580	1151.353	864.648
248.117	14.621	1150.972	864.497
249.132	14.567	1150.357	863.679
250.147	14.764	1149.136	863.709
251.161	14.811	1148.370	863.299
252.176	14.886	1147.830	863.202
253.190	14.820	1147.295	862.382
254.205	14.826	1146.910	862.048
255.220	14.894	1145.989	861.631
256.234	14.859	1145.257	860.821
257.249	14.886	1144.972	860.673
258.263	14.890	1144.121	859.976
259.278	15.004	1143.110	859.726
260.293	14.943	1142.820	859.117
261.307	14.997	1142.457	859.046
262.322	14.938	1142.050	858.361
263.336	15.053	1140.744	857.896
264.351	14.992	1140.632	857.419
265.366	14.991	1139.582	856.553
266.380	14.936	1139.163	855.881
267.395	15.022	1138.128	855.466
268.409	14.913	1137.526	854.381
269.424	14.940	1137.092	854.115
270.439	14.937	1136.649	853.693
271.453	14.969	1135.879	853.201
272.468	15.002	1135.164	852.758
273.482	15.016	1133.840	851.760
274.497	15.031	1133.459	851.476
275.512	15.107	1132.800	851.289
276.526	15.134	1132.094	850.823
277.541	15.092	1131.229	849.880
278.555	15.101	1130.276	849.135
279.570	15.216	1129.566	849.111
280.585	15.113	1129.149	848.202
281.599	15.159	1128.233	847.668
282.614	15.169	1127.282	846.930
283.628	15.209	1126.048	846.134
284.643	15.261	1125.160	845.653
285.657	15.207	1124.198	844.583
286.672	15.237	1123.597	844.207
287.687	15.316	1122.258	843.525
288.701	15.338	1121.485	842.979
289.716	15.347	1121.376	842.867
290.730	15.350	1120.327	842.018
291.745	15.297	1119.931	841.379
292.760	15.336	1119.088	840.869
293.774	15.603	1118.065	841.360
294.789	15.352	1118.582	840.417
295.803	15.410	1117.427	839.768
296.818	15.509	1116.636	839.593
297.833	15.415	1115.610	838.279
298.847	15.354	1114.865	837.338
299.862	15.319	1114.486	836.807
300.876	15.382	1113.741	836.487
301.891	15.529	1113.181	836.728
302.906	15.535	1112.346	836.054
303.920	15.550	1111.425	835.363
304.935	15.647	1110.933	835.400
305.949	15.550	1110.509	834.526
306.964	15.586	1110.031	834.269
307.979	15.584	1108.782	833.247
308.993	15.683	1108.186	833.218
310.008	15.683	1107.315	832.488
311.022	15.645	1106.740	831.793
312.037	15.671	1105.799	831.145
313.052	15.705	1104.924	830.582
314.066	15.682	1103.879	829.608
315.081	15.676	1102.994	828.837
316.095	15.768	1102.207	828.626
317.110	15.688	1101.531	827.651
318.125	15.647	1101.029	827.000
319.139	15.694	1100.152	826.500
320.154	15.613	1099.844	825.795
321.168	15.651	1099.145	825.384
322.183	15.675	1098.427	824.890
323.197	15.657	1098.005	824.410
324.212	15.700	1097.641	824.278
325.227	15.789	1096.596	823.856
326.241	15.885	1095.829	823.679
327.256	15.694	1095.236	822.223
328.270	15.753	1094.427	821.833
329.285	15.806	1093.288	821.165
330.300	15.774	1092.336	820.216
331.314	15.752	1091.250	819.225
332.329	15.706	1090.435	818.317
333.343	15.896	1089.635	818.569
334.358	15.899	1088.669	817.781
335.373	15.947	1088.217	817.605
336.387	15.918	1087.491	816.847
337.402	15.944	1087.024	816.546
338.416	15.947	1086.245	815.904
339.431	16.013	1085.721	815.761
340.446	16.007	1084.913	815.052
341.460	16.122	1084.096	814.922
342.475	16.165	1083.138	814.338
343.489	16.180	1082.350	813.745
344.504	16.100	1081.718	812.812
345.519	16.199	1080.739	812.484
346.533	16.279	1079.923	812.179
347.548	16.215	1079.404	811.411
348.562	16.172	1078.438	810.405
349.577	16.123	1077.861	809.666
350.592	16.131	1077.372	809.266
351.606	16.252	1075.683	808.505
352.621	16.072	1075.636	807.535
353.635	16.117	1075.085	807.266
354.650	16.167	1074.426	806.938
355.665	16.187	1073.612	806.350
356.679	16.254	1073.191	806.286
357.694	16.229	1072.422	805.513
358.708	16.248	1072.005	805.220
359.723	16.355	1071.081	804.964
360.738	16.293	1070.648	804.275
361.752	16.289	1069.889	803.612
362.767	16.311	1069.615	803.443
363.781	16.340	1068.952	803.010
364.796	16.408	1067.891	802.466
365.810	16.312	1067.877	801.929
366.825	16.477	1066.967	801.957
367.840	16.607	1066.378	802.058
368.854	16.478	1066.037	801.118
369.869	16.505	1065.372	800.678
370.883	16.584	1063.954	799.915
371.898	16.481	1063.956	799.358
372.913	16.476	1063.385	798.836
373.927	16.618	1062.546	798.804
374.942	16.612	1062.225	798.462
375.956	16.636	1061.766	798.162
376.971	16.655	1060.795	797.451
377.986	16.730	1059.868	797.037
379.000	16.615	1059.578	796.206
380.015	16.739	1059.033	796.308
381.029	16.756	1058.718	796.084
382.044	16.844	1057.930	795.831
383.059	16.765	1056.802	794.543
384.073	16.769	1056.169	794.015
385.088	16.814	1055.581	793.713
386.102	16.992	1054.419	793.604
387.117	16.788	1053.574	791.942
388.132	16.763	1052.786	791.163
389.146	16.636	1052.122	790.000
390.161	16.866	1051.076	790.220
391.175	16.821	1050.343	789.388
392.190	16.769	1050.254	789.010
393.205	16.879	1049.313	788.744
394.219	16.917	1048.309	788.098
395.234	16.914	1047.672	787.535
396.248	16.832	1046.837	786.458
397.263	16.841	1045.627	785.521
398.278	16.794	1045.299	784.985
399.292	16.806	1044.477	784.353
400.307	16.767	1043.288	783.214
401.321	16.866	1043.099	783.457
402.336	16.893	1042.414	782.998
403.350	16.979	1041.275	782.472
404.365	16.856	1041.029	781.648
405.380	17.077	1040.258	782.020
406.394	16.932	1039.409	780.647
407.409	16.949	1038.918	780.285
408.423	16.932	1038.230	779.620
409.438	17.150	1037.116	779.717
410.453	17.125	1036.885	779.357
411.467	17.167	1036.005	778.821
412.482	17.241	1035.195	778.481
413.496	17.258	1034.404	777.897
414.511	17.326	1034.206	777.990
415.526	17.296	1033.612	777.337
416.540	17.253	1033.570	777.039
417.555	17.235	1032.900	776.387
418.569	17.360	1031.887	776.125
419.584	17.409	1031.375	775.894
420.599	17.353	1031.501	775.665
421.613	103.312	1322.778	1469.060
422.628	94.551	1365.183	1469.150
