DTS Sentinel unit serial number:	SN413079Multiplexer serial number:	ORYXHardware model number:	OX4-SRSoftware version number:	ORYX F/W v4.00 Oryx Data Collector v3.7.2.0data status	okinstallation	princeton_trtdifferential loss correction	single-endedforward channel	channel 2reverse channel	N/Adate	2019/09/16time	00:59:34forward acquisition time	60.00reverse acquisition time	0.00gamma	496.2192k internal	0.2337k external	0.2337temperature offset calibration	0.9964default loss term (dB/km)	0.3790temperature slope calibration	1.0000multiplexer offset coefficient	1.0000multiplexer slope coefficient	1.0000fibre end	0.00T internal ref (°C)	27.33T ext. ref 1 (°C)	9.73T ext. ref 2 (°C)	21.30length (m)	temperature (°C)	Stokes	anti-Stokes-747.200	800.000	0.038	-0.107
-746.185	-6.985	0.252	0.172
-745.171	-36.858	0.363	-0.196
-744.156	-83.833	-0.397	0.127
-743.142	-200.000	-0.038	-0.241
-742.127	142.310	-0.189	0.252
-741.112	-200.000	-0.005	0.082
-740.098	-24.292	-0.206	0.123
-739.083	-59.057	-0.147	-0.064
-738.069	-200.000	0.024	0.157
-737.054	-81.843	0.266	0.087
-736.039	-139.859	-0.099	-0.011
-735.025	-61.394	-0.374	0.158
-734.010	224.531	-0.071	0.115
-732.996	58.185	-0.170	0.167
-731.981	-49.602	-0.212	-0.101
-730.966	44.413	0.030	-0.028
-729.952	147.693	-0.221	0.299
-728.937	-110.750	-0.314	0.065
-727.923	-102.028	-0.085	-0.021
-726.908	-149.455	-0.449	-0.036
-725.894	800.000	-0.104	0.292
-724.879	-55.564	-0.362	-0.163
-723.864	800.000	0.063	-0.238
-722.850	124.770	-0.182	-0.230
-721.835	193.534	0.050	0.076
-720.821	86.922	-0.225	-0.249
-719.806	800.000	-0.044	0.147
-718.791	800.000	-0.051	0.156
-717.777	94.839	-0.188	-0.215
-716.762	191.391	-0.190	-0.286
-715.748	163.988	-0.093	0.132
-714.733	-2.373	0.041	-0.029
-713.718	74.247	0.175	-0.185
-712.704	-200.000	0.061	-0.543
-711.689	-79.510	0.328	0.111
-710.675	110.776	0.214	-0.258
-709.660	207.955	-0.033	0.051
-708.645	-135.054	0.200	-0.024
-707.631	-128.925	0.351	-0.049
-706.616	-97.775	0.090	0.023
-705.602	800.000	0.079	-0.336
-704.587	78.373	0.147	0.157
-703.572	686.845	0.012	0.031
-702.558	800.000	0.096	0.270
-701.543	774.907	-0.052	-0.141
-700.529	242.000	-0.055	-0.093
-699.514	-146.380	-0.408	-0.036
-698.499	-67.944	-0.266	-0.104
-697.485	-122.019	-0.231	0.038
-696.470	159.126	0.086	-0.120
-695.456	82.342	0.071	-0.077
-694.441	-8.524	0.343	0.231
-693.426	-200.000	0.078	-0.363
-692.412	-107.540	0.143	-0.031
-691.397	-116.114	-0.370	0.069
-690.383	-200.000	-0.065	-0.319
-689.368	-82.242	0.250	-0.081
-688.354	-46.461	0.100	0.049
-687.339	-95.488	-0.405	-0.109
-686.324	-184.000	0.160	-0.003
-685.310	-86.202	-0.206	-0.064
-684.295	-53.970	0.181	0.083
-683.281	20.387	-0.286	-0.231
-682.266	-111.528	-0.142	0.029
-681.251	216.696	-0.038	0.061
-680.237	111.699	0.211	0.255
-679.222	-200.000	0.009	-0.258
-678.208	-168.441	-0.402	-0.015
-677.193	-35.495	-0.056	0.031
-676.178	-90.602	-0.292	-0.084
-675.164	-153.569	-0.197	0.014
-674.149	49.022	-0.191	0.180
-673.135	-116.212	-0.319	-0.059
-672.120	-200.000	-0.012	-0.257
-671.105	-108.369	-0.106	-0.023
-670.091	576.129	0.008	0.020
-669.076	94.601	-0.132	0.150
-668.062	-103.940	-0.446	0.104
-667.047	800.000	-0.087	-0.251
-666.032	-76.564	-0.220	-0.077
-665.018	-200.000	-0.011	-0.046
-664.003	79.229	0.321	0.344
-662.989	351.446	-0.157	0.312
-661.974	-200.000	0.031	-0.213
-660.959	499.170	0.160	-0.368
-659.945	-200.000	-0.028	-0.395
-658.930	-200.000	0.023	-0.109
-657.916	712.022	-0.088	0.234
-656.901	-52.145	-0.151	0.070
-655.886	448.801	-0.148	0.326
-654.872	184.175	-0.081	0.120
-653.857	-76.424	0.130	0.046
-652.843	620.483	-0.089	0.223
-651.828	800.000	0.065	-0.278
-650.814	-91.268	-0.085	0.024
-649.799	800.000	-0.058	0.203
-648.784	-200.000	0.004	-0.034
-647.770	713.502	0.067	-0.177
-646.755	-79.970	-0.306	-0.103
-645.741	-200.000	-0.006	-0.032
-644.726	33.001	0.155	-0.134
-643.711	158.473	-0.241	0.335
-642.697	800.000	0.075	-0.213
-641.682	800.000	0.022	0.072
-640.668	-169.007	0.178	0.007
-639.653	-200.000	-0.012	-0.377
-638.638	58.762	0.249	0.245
-637.624	61.846	0.138	-0.137
-636.609	-200.000	0.073	0.393
-635.595	108.710	0.152	-0.182
-634.580	-33.257	-0.058	0.032
-633.565	-125.839	-0.290	0.044
-632.551	-91.864	-0.153	0.043
-631.536	151.099	0.076	-0.103
-630.522	-31.912	0.222	-0.124
-629.507	-200.000	0.070	0.319
-628.492	-2.540	0.173	0.121
-627.478	148.004	-0.023	0.030
-626.463	90.773	-0.252	0.282
-625.449	-119.134	0.051	0.009
-624.434	8.432	0.350	-0.263
-623.419	800.000	0.036	0.114
-622.405	6.811	0.064	-0.048
-621.390	-69.550	-0.405	0.155
-620.376	259.105	0.160	0.275
-619.361	-200.000	-0.022	0.150
-618.346	631.944	-0.108	-0.274
-617.332	-200.000	0.030	-0.323
-616.317	-27.243	0.199	0.115
-615.303	-8.381	-0.055	0.037
-614.288	76.072	0.148	-0.156
-613.273	249.030	-0.054	0.091
-612.259	-200.000	0.003	0.039
-611.244	-200.000	-0.003	-0.288
-610.230	-53.812	0.118	0.054
-609.215	-101.149	-0.320	0.078
-608.201	147.809	0.148	0.199
-607.186	178.536	0.058	-0.085
-606.171	-50.847	-0.429	0.201
-605.157	-14.896	-0.282	-0.181
-604.142	11.212	-0.182	-0.139
-603.128	180.212	-0.069	0.101
-602.113	510.646	0.035	0.081
-601.098	-200.000	0.051	-0.252
-600.084	286.472	0.189	-0.341
-599.069	-162.943	-0.297	-0.014
-598.055	450.920	0.118	0.261
-597.040	-200.000	0.071	0.317
-596.025	92.668	-0.043	0.048
-595.011	-135.914	-0.266	-0.031
-593.996	-200.000	0.003	0.127
-592.982	-117.827	0.248	-0.045
-591.967	210.346	-0.050	-0.079
-590.952	281.421	-0.088	0.157
-589.938	-200.000	0.019	0.205
-588.923	-168.225	0.149	0.006
-587.909	-18.676	0.239	0.149
-586.894	-200.000	-0.014	-0.111
-585.879	319.053	-0.073	-0.138
-584.865	-5.932	0.375	-0.256
-583.850	450.836	0.106	-0.234
-582.836	-35.996	-0.098	0.053
-581.821	20.777	0.081	0.065
-580.806	165.367	0.166	0.234
-579.792	-200.000	-0.005	-0.128
-578.777	-124.194	-0.224	0.035
-577.763	-84.209	0.336	-0.106
-576.748	-200.000	0.007	0.156
-575.733	93.683	-0.205	0.232
-574.719	-55.420	0.262	-0.117
-573.704	-200.000	0.041	0.291
-572.690	-22.399	-0.186	0.112
-571.675	-17.935	-0.107	-0.067
-570.661	-112.951	-0.160	0.032
-569.646	150.560	0.069	-0.094
-568.631	28.864	0.259	0.219
-567.617	-200.000	-0.019	-0.162
-566.602	800.000	0.158	-0.442
-565.588	173.788	0.042	0.060
-564.573	495.706	-0.102	0.235
-563.558	-45.371	-0.333	-0.165
-562.544	-21.428	-0.378	0.230
-561.529	-152.337	-0.334	0.024
-560.515	26.623	0.175	0.146
-559.500	-200.000	0.031	-0.304
-558.485	-102.708	0.109	0.026
-557.471	-137.392	-0.151	0.017
-556.456	-3.435	-0.171	-0.119
-555.442	-200.000	-0.053	0.286
-554.427	-200.000	0.066	-0.408
-553.412	-200.000	0.006	-0.413
-552.398	-200.000	0.007	-0.222
-551.383	24.600	0.233	0.192
-550.369	800.000	0.064	0.194
-549.354	49.374	-0.037	0.035
-548.339	-33.895	-0.246	-0.135
-547.325	-88.562	0.065	0.019
-546.310	-101.542	0.031	0.007
-545.296	-200.000	-0.027	0.169
-544.281	-200.000	0.007	-0.166
-543.266	46.582	-0.303	-0.280
-542.252	-200.000	-0.064	-0.349
-541.237	-116.718	-0.291	0.053
-540.223	105.655	0.250	-0.294
-539.208	-152.929	-0.174	0.012
-538.193	-200.000	-0.002	0.161
-537.179	238.024	0.036	-0.059
-536.164	-26.964	-0.245	0.142
-535.150	-200.000	0.055	0.352
-534.135	-120.836	0.156	0.026
-533.121	-150.809	-0.137	0.010
-532.106	-57.246	-0.060	-0.026
-531.091	6.603	-0.202	-0.149
-530.077	-104.332	-0.188	0.043
-529.062	57.938	-0.166	0.162
-528.048	475.313	-0.055	-0.124
-527.033	98.150	-0.008	-0.009
-526.018	-77.798	0.078	0.027
-525.004	-99.111	-0.030	0.008
-523.989	-130.731	-0.192	-0.026
-522.975	-73.920	0.367	0.133
-521.960	114.304	-0.071	-0.086
-520.945	-24.553	-0.141	-0.084
-519.931	323.139	0.099	-0.188
-518.916	800.000	0.084	-0.281
-517.902	-200.000	0.006	-0.207
-516.887	357.171	0.106	0.209
-515.872	-200.000	-0.051	0.310
-514.858	800.000	-0.081	-0.301
-513.843	714.248	-0.182	-0.481
-512.829	-115.678	0.335	0.063
-511.814	44.252	0.039	0.036
-510.799	0.197	0.230	-0.163
-509.785	374.903	0.223	-0.453
-508.770	-41.431	-0.025	-0.013
-507.756	108.324	-0.113	0.135
-506.741	135.970	0.122	-0.158
-505.726	-150.155	0.094	0.007
-504.712	800.000	-0.059	0.183
-503.697	21.961	-0.058	0.047
-502.683	800.000	-0.080	-0.329
-501.668	-200.000	0.011	0.303
-500.653	-71.042	-0.381	-0.142
-499.639	23.270	0.174	-0.142
-498.624	800.000	0.037	-0.154
-497.610	-200.000	-0.006	0.174
-496.595	800.000	-0.058	0.193
-495.581	130.575	-0.253	0.323
-494.566	-120.846	-0.203	0.034
-493.551	110.058	0.126	-0.150
-492.537	-122.199	-0.348	0.057
-491.522	161.365	-0.154	-0.215
-490.508	145.438	0.247	0.329
-489.493	-159.735	-0.100	0.005
-488.478	800.000	0.110	-0.406
-487.464	127.671	0.213	0.269
-486.449	106.595	0.166	-0.196
-485.435	513.143	0.087	-0.201
-484.420	701.358	-0.038	-0.100
-483.405	-200.000	-0.015	0.402
-482.391	237.353	0.104	-0.171
-481.376	376.411	0.112	-0.227
-480.362	-127.047	-0.236	0.034
-479.347	-106.295	0.145	0.032
-478.332	454.913	0.105	0.231
-477.318	-123.368	-0.572	-0.091
-476.303	-93.517	0.165	0.045
-475.289	-200.000	0.023	0.305
-474.274	4.074	0.090	-0.066
-473.259	800.000	-0.019	-0.058
-472.245	-179.867	0.315	-0.007
-471.230	-34.388	-0.099	0.054
-470.216	3.249	-0.257	0.186
-469.201	288.147	-0.069	-0.124
-468.186	35.438	0.152	0.133
-467.172	-113.691	-0.172	0.033
-466.157	-28.635	0.249	0.142
-465.143	-46.227	-0.208	0.102
-464.128	-187.234	0.151	0.002
-463.113	10.234	-0.096	-0.072
-462.099	448.512	-0.106	-0.231
-461.084	107.858	0.083	-0.098
-460.070	-79.218	-0.071	0.024
-459.055	32.791	-0.086	0.074
-458.040	41.754	0.175	-0.157
-457.026	91.428	0.157	-0.175
-456.011	-42.186	-0.202	0.102
-454.997	369.437	0.015	0.030
-453.982	113.190	0.099	-0.120
-452.968	46.446	-0.239	-0.220
-451.953	151.107	-0.206	-0.278
-450.938	16.601	-0.207	0.163
-449.924	800.000	-0.042	-0.170
-448.909	800.000	0.088	0.342
-447.895	424.162	-0.144	0.306
-446.880	-71.940	0.035	-0.013
-445.865	-200.000	0.068	-0.320
-444.851	71.951	0.259	-0.267
-443.836	800.000	-0.122	-0.426
-442.822	271.717	-0.237	0.414
-441.807	-27.890	-0.178	-0.102
-440.792	-12.108	-0.471	0.306
-439.778	-75.103	-0.157	-0.056
-438.763	117.856	0.180	0.220
-437.749	-9.348	-0.156	-0.103
-436.734	1.457	0.289	0.206
-435.719	342.653	-0.034	-0.067
-434.705	-76.696	0.124	0.043
-433.690	-40.136	0.218	-0.113
-432.676	99.672	-0.138	0.159
-431.661	800.000	0.097	0.281
-430.646	-186.360	0.196	0.003
-429.632	-143.787	-0.004	0.000
-428.617	-34.187	-0.130	-0.071
-427.603	-200.000	-0.040	0.201
-426.588	15.906	-0.060	0.047
-425.573	69.525	0.051	0.052
-424.559	22.830	-0.035	-0.028
-423.544	800.000	-0.092	0.282
-422.530	-31.885	0.321	0.178
-421.515	-200.000	0.009	-0.137
-420.500	226.170	0.195	-0.314
-419.486	-35.750	-0.266	-0.143
-418.471	-200.000	-0.001	-0.035
-417.457	544.668	-0.072	-0.171
-416.442	375.233	-0.036	0.072
-415.428	214.800	0.090	-0.142
-414.413	50.506	0.022	0.020
-413.398	-36.068	0.289	0.155
-412.384	-128.068	0.166	0.024
-411.369	199.024	0.206	-0.313
-410.355	800.000	-0.024	0.091
-409.340	-77.379	-0.149	0.051
-408.325	-74.141	0.108	-0.039
-407.311	628.411	0.079	0.197
-406.296	100.304	0.150	-0.172
-405.282	-19.095	-0.272	-0.167
-404.267	-77.843	0.336	-0.115
-403.252	721.641	-0.052	-0.137
-402.238	-194.303	0.446	-0.004
-401.223	800.000	-0.029	-0.102
-400.209	-200.000	-0.064	-0.469
-399.194	56.536	-0.122	-0.118
-398.179	-200.000	-0.014	-0.164
-397.165	800.000	-0.114	0.439
-396.150	-78.734	0.187	0.063
-395.136	-90.686	-0.254	-0.073
-394.121	84.949	-0.247	0.268
-393.106	-162.450	0.215	-0.011
-392.092	-200.000	-0.054	0.448
-391.077	662.556	0.012	0.031
-390.063	-23.774	0.264	0.156
-389.048	115.739	0.069	0.084
-388.033	-87.812	0.352	0.105
-387.019	800.000	-0.094	0.353
-386.004	432.170	-0.069	0.148
-384.990	73.119	-0.112	0.116
-383.975	-160.491	-0.165	0.009
-382.960	595.298	0.149	-0.366
-381.946	-18.269	-0.092	0.057
-380.931	130.750	0.069	0.088
-379.917	-52.293	-0.228	-0.105
-378.902	-130.396	-0.235	0.032
-377.888	157.039	0.204	0.279
-376.873	103.920	0.016	0.018
-375.858	-40.886	-0.101	-0.052
-374.844	-187.178	0.420	-0.006
-373.829	20.009	-0.117	0.093
-372.815	-81.347	-0.225	-0.073
-371.800	40.937	-0.072	-0.064
-370.785	692.620	-0.156	-0.405
-369.771	800.000	0.032	0.094
-368.756	269.176	0.180	-0.313
-367.742	800.000	-0.115	-0.389
-366.727	442.149	-0.085	0.184
-365.712	-200.000	0.044	-0.237
-364.698	-6.330	-0.096	-0.065
-363.683	115.450	0.099	0.119
-362.669	-121.131	0.244	0.040
-361.654	-135.196	-0.095	0.011
-360.639	272.397	0.051	-0.088
-359.625	-32.295	-0.277	0.153
-358.610	-200.000	-0.019	0.117
-357.596	800.000	-0.077	-0.275
-356.581	-126.633	0.378	-0.055
-355.566	-103.818	-0.291	-0.067
-354.552	468.594	0.078	0.172
-353.537	85.731	0.069	-0.074
-352.523	11.782	-0.198	-0.150
-351.508	800.000	0.089	0.379
-350.493	-200.000	-0.004	-0.051
-349.479	800.000	0.063	-0.223
-348.464	-103.644	0.353	-0.082
-347.450	158.259	0.265	0.363
-346.435	-52.969	0.115	-0.052
-345.420	-200.000	0.009	-0.214
-344.406	-200.000	0.003	0.317
-343.391	202.010	0.105	0.160
-342.377	182.385	0.076	-0.111
-341.362	39.447	-0.145	-0.128
-340.348	18.434	-0.219	-0.173
-339.333	-200.000	-0.044	-0.213
-338.318	-9.082	-0.230	0.152
-337.304	-131.540	0.276	0.036
-336.289	-92.506	0.230	-0.064
-335.275	-200.000	0.018	-0.171
-334.260	48.620	-0.122	0.113
-333.245	-12.159	-0.125	-0.081
-332.231	49.484	0.214	-0.199
-331.216	141.642	-0.069	-0.090
-330.202	63.629	0.220	-0.218
-329.187	-83.468	0.059	0.019
-328.172	-85.662	-0.081	-0.025
-327.158	-200.000	-0.041	0.280
-326.143	-7.143	-0.231	0.155
-325.129	-78.851	-0.097	-0.033
-324.114	800.000	-0.075	-0.280
-323.099	168.171	-0.163	0.230
-322.085	-200.000	-0.011	-0.170
-321.070	800.000	0.109	-0.297
-320.056	13.374	-0.279	0.213
-319.041	-184.904	-0.274	0.004
-318.026	-200.000	0.013	0.113
-317.012	13.673	-0.193	-0.148
-315.997	-173.923	-0.123	-0.004
-314.983	11.492	-0.198	0.149
-313.968	738.869	0.048	0.126
-312.953	-75.061	0.218	0.077
-311.939	558.268	-0.052	-0.123
-310.924	800.000	0.078	0.233
-309.910	693.910	-0.073	0.189
-308.895	-200.000	-0.010	-0.132
-307.880	-26.495	-0.092	-0.053
-306.866	-51.193	0.170	0.078
-305.851	800.000	-0.036	-0.102
-304.837	487.941	0.024	0.054
-303.822	40.602	-0.270	-0.240
-302.807	-183.490	-0.069	0.001
-301.793	800.000	-0.021	0.065
-300.778	58.529	0.127	0.123
-299.764	149.154	-0.208	0.278
-298.749	8.892	0.022	0.016
-297.735	-10.458	0.271	-0.177
-296.720	775.427	0.070	0.188
-295.705	213.071	0.080	0.124
-294.691	-153.657	0.273	0.019
-293.676	527.782	0.183	0.425
-292.662	-200.000	-0.017	0.144
-291.647	-81.389	0.199	-0.065
-290.632	-37.385	-0.159	-0.084
-289.618	48.971	-0.064	-0.060
-288.603	685.734	-0.092	-0.236
-287.589	800.000	0.063	0.225
-286.574	7.100	-0.124	-0.091
-285.559	-200.000	0.022	-0.097
-284.545	496.164	0.109	0.247
-283.530	-44.373	0.332	0.164
-282.516	-77.734	-0.158	-0.054
-281.501	-105.184	0.072	0.016
-280.486	-200.000	0.013	-0.073
-279.472	-119.592	0.118	-0.020
-278.457	159.395	-0.114	0.156
-277.443	-100.517	-0.087	-0.021
-276.428	256.803	-0.092	0.156
-275.413	800.000	0.037	0.133
-274.399	-33.157	-0.057	-0.031
-273.384	-158.264	0.108	0.006
-272.370	37.666	0.121	-0.106
-271.355	88.618	-0.140	-0.153
-270.340	-200.000	-0.014	0.070
-269.326	800.000	0.127	0.466
-268.311	-32.739	-0.329	-0.180
-267.297	-157.431	-0.321	-0.019
-266.282	-200.000	0.029	0.142
-265.267	-147.371	0.217	-0.018
-264.253	800.000	-0.154	-0.446
-263.238	627.877	0.126	0.312
-262.224	-100.106	0.233	0.057
-261.209	800.000	0.012	0.045
-260.195	375.335	0.040	-0.080
-259.180	137.238	-0.341	-0.439
-258.165	-200.000	0.021	-0.169
-257.151	40.962	0.180	0.160
-256.136	184.247	0.171	0.250
-255.122	248.849	-0.091	0.151
-254.107	-0.488	0.130	0.091
-253.092	677.316	-0.109	0.280
-252.078	-142.846	0.108	0.010
-251.063	-141.716	0.071	-0.007
-250.049	-62.725	0.431	-0.176
-249.034	800.000	-0.008	-0.035
-248.019	286.148	-0.079	-0.140
-247.005	573.828	0.142	-0.341
-245.990	-10.678	0.355	0.231
-244.976	800.000	0.163	0.508
-243.961	-94.452	-0.192	0.052
-242.946	775.162	-0.128	0.344
-241.932	65.398	0.176	-0.175
-240.917	129.614	-0.161	-0.202
-239.903	800.000	0.046	-0.173
-238.888	-57.198	0.287	-0.124
-237.873	147.935	0.178	0.236
-236.859	-200.000	-0.068	0.430
-235.844	-61.172	-0.106	0.044
-234.830	-51.340	0.071	0.033
-233.815	-200.000	0.027	-0.345
-232.800	-23.174	-0.073	-0.043
-231.786	-29.070	-0.125	0.071
-230.771	-54.238	-0.243	0.108
-229.757	184.615	0.044	-0.064
-228.742	301.675	0.088	0.159
-227.727	-174.951	-0.189	-0.005
-226.713	-123.576	-0.106	0.017
-225.698	-0.212	-0.101	-0.070
-224.684	2.684	0.085	0.061
-223.669	537.346	0.074	0.174
-222.655	-78.237	0.127	0.043
-221.640	-158.533	-0.188	-0.011
-220.625	72.334	-0.140	0.143
-219.611	-174.748	0.389	0.011
-218.596	800.000	0.057	0.184
-217.582	146.132	-0.023	0.030
-216.567	-8.946	-0.266	-0.175
-215.552	418.294	-0.075	0.158
-214.538	8.457	0.131	0.097
-213.523	-200.000	-0.019	-0.180
-212.509	-41.007	-0.330	-0.168
-211.494	800.000	0.085	0.274
-210.479	-92.017	0.240	-0.067
-209.465	305.723	-0.096	-0.176
-208.450	-118.359	-0.313	-0.055
-207.436	203.796	0.119	0.181
-206.421	-153.982	0.274	0.018
-205.406	-47.677	-0.070	-0.033
-204.392	-45.291	0.111	-0.054
-203.377	-62.022	-0.066	0.027
-202.363	104.511	-0.116	-0.134
-201.348	-200.000	0.010	0.163
-200.333	-133.427	0.217	0.027
-199.319	82.279	-0.151	-0.161
-198.304	107.788	0.152	-0.178
-197.290	-128.376	0.212	0.030
-196.275	800.000	0.060	-0.253
-195.260	-200.000	0.022	0.353
-194.246	-94.544	0.071	0.019
-193.231	-200.000	-0.014	0.085
-192.217	-117.232	-0.192	0.034
-191.202	57.779	-0.250	-0.240
-190.187	-150.505	0.164	-0.012
-189.173	440.710	0.056	-0.121
-188.158	800.000	0.063	-0.193
-187.144	-22.526	0.291	-0.173
-186.129	-174.548	0.210	0.006
-185.114	-93.885	-0.266	0.072
-184.100	104.528	-0.048	-0.056
-183.085	-50.834	0.139	-0.064
-182.071	-195.620	0.514	0.004
-181.056	-102.838	0.154	0.036
-180.042	-104.445	0.084	-0.019
-179.027	372.850	-0.032	-0.064
-178.012	-200.000	0.018	0.104
-176.998	-30.495	0.205	-0.114
-175.983	206.193	-0.206	-0.315
-174.969	325.844	0.072	0.136
-173.954	397.514	-0.083	-0.170
-172.939	800.000	-0.045	-0.124
-171.925	21.218	-0.190	0.152
-170.910	230.099	-0.141	0.226
-169.896	150.674	-0.193	0.257
-168.881	-200.000	-0.030	-0.232
-167.866	-159.764	-0.147	0.008
-166.852	-200.000	0.015	-0.448
-165.837	307.691	0.080	-0.147
-164.823	-111.841	0.392	0.078
-163.808	-43.625	-0.144	0.071
-162.793	800.000	0.065	0.249
-161.779	225.833	-0.036	0.058
-160.764	369.180	-0.104	0.207
-159.750	-92.285	-0.150	0.041
-158.735	-200.000	0.014	-0.143
-157.720	-200.000	-0.002	0.284
-156.706	-26.229	0.196	-0.113
-155.691	-17.066	-0.305	0.189
-154.677	-200.000	0.005	-0.043
-153.662	18.316	-0.112	-0.088
-152.647	4.027	0.074	-0.053
-151.633	20.778	-0.032	0.025
-150.618	190.159	-0.157	0.232
-149.604	800.000	-0.018	-0.065
-148.589	-92.313	0.348	0.096
-147.574	-200.000	0.101	0.454
-146.560	389.828	0.167	0.339
-145.545	-108.204	-0.013	0.003
-144.531	707.865	-0.034	-0.089
-143.516	227.948	0.094	0.150
-142.502	-200.000	-0.010	0.150
-141.487	377.948	-0.058	0.117
-140.472	20.096	0.155	-0.123
-139.458	-2.517	-0.254	0.174
-138.443	204.386	0.107	-0.163
-137.429	160.460	0.196	-0.268
-136.414	-45.673	-0.035	0.017
-135.399	-83.903	-0.208	-0.065
-134.385	-11.937	-0.209	-0.134
-133.370	-137.344	0.270	0.030
-132.356	104.468	-0.019	0.022
-131.341	312.004	-0.110	-0.203
-130.326	173.416	0.221	0.313
-129.312	-145.703	-0.082	-0.007
-128.297	-200.000	-0.008	0.122
-127.283	-146.066	0.138	0.012
-126.268	583.558	0.097	-0.232
-125.253	385.061	-0.106	-0.214
-124.239	-200.000	0.000	0.005
-123.224	93.381	-0.077	0.085
-122.210	155.930	0.027	-0.037
-121.195	-73.842	-0.258	-0.092
-120.180	-10.778	0.141	0.091
-119.166	47.498	-0.231	-0.211
-118.151	314.084	0.184	-0.339
-117.137	-133.326	0.207	-0.026
-116.122	121.986	0.219	-0.267
-115.107	102.092	-0.237	-0.271
-114.093	35.927	-0.267	0.230
-113.078	90.264	0.083	-0.091
-112.064	800.000	0.031	0.112
-111.049	-165.920	-0.220	-0.009
-110.034	-200.000	0.001	0.088
-109.020	620.344	-0.150	-0.370
-108.005	-200.000	0.064	-0.363
-106.991	71.988	-0.137	0.140
-105.976	24.130	0.215	-0.174
-104.962	-63.851	-0.481	0.193
-103.947	-67.367	0.300	-0.116
-102.932	800.000	-0.106	0.331
-101.918	-77.849	-0.091	0.031
-100.903	-131.245	0.246	0.032
-99.889	-200.000	-0.055	0.348
-98.874	-55.028	-0.320	0.141
-97.859	26.524	0.273	0.224
-96.845	-108.636	0.249	-0.052
-95.830	800.000	0.076	0.233
-94.816	138.974	-0.094	-0.120
-93.801	-59.489	-0.183	0.077
-92.786	-11.100	0.408	-0.264
-91.772	-151.643	-0.154	0.011
-90.757	-179.754	-0.086	-0.002
-89.743	95.146	0.286	0.319
-88.728	-200.000	0.001	0.008
-87.713	-200.000	-0.018	0.290
-86.699	-9.364	0.070	0.046
-85.684	800.000	-0.019	0.054
-84.670	-200.000	-0.021	-0.217
-83.655	49.254	-0.229	-0.210
-82.640	375.410	0.075	-0.149
-81.626	-184.408	-0.354	-0.006
-80.611	-64.039	0.154	-0.062
-79.597	475.289	-0.086	0.190
-78.582	685.235	-0.041	0.104
-77.567	800.000	0.028	0.079
-76.553	134.917	-0.118	0.149
-75.538	-200.000	0.031	0.356
-74.524	-104.603	0.248	0.056
-73.509	-179.955	0.049	0.001
-72.494	-14.523	0.451	0.284
-71.480	111.497	-0.238	0.281
-70.465	-200.000	0.025	0.214
-69.451	-74.699	0.262	-0.092
-68.436	69.650	-0.138	-0.139
-67.422	-88.204	-0.258	0.075
-66.407	-200.000	0.009	0.135
-65.392	74.203	0.033	0.034
-64.378	-200.000	0.075	-0.346
-63.363	-200.000	-0.016	0.163
-62.349	-143.002	-0.384	0.036
-61.334	0.942	-1.029	-0.721
-60.319	-2.435	0.594	0.407
-59.305	531.902	-0.563	-1.301
-58.290	394.408	0.539	1.098
-57.276	585.304	0.629	1.510
-56.261	-200.000	114.290	641.708
-55.246	478.137	1498.670	3314.775
-54.232	148.612	2669.473	3524.039
-53.217	96.035	2276.648	2541.701
-52.203	36.088	1892.799	1628.383
-51.188	30.409	1687.331	1408.638
-50.173	27.983	1645.786	1355.923
-49.159	48.996	1700.430	1559.850
-48.144	47.932	1715.514	1565.619
-47.130	30.084	1673.800	1394.673
-46.115	27.366	1659.942	1362.748
-45.100	27.260	1654.585	1357.511
-44.086	27.148	1652.165	1354.636
-43.071	27.128	1649.904	1352.574
-42.057	27.118	1647.327	1350.338
-41.042	27.195	1645.273	1349.173
-40.027	27.178	1643.289	1347.363
-39.013	27.139	1641.782	1345.787
-37.998	27.224	1640.098	1344.981
-36.984	27.291	1638.455	1344.079
-35.969	27.318	1637.002	1343.031
-34.954	27.307	1635.670	1341.806
-33.940	27.314	1633.712	1340.195
-32.925	27.353	1631.761	1338.831
-31.911	27.326	1630.128	1337.237
-30.896	27.321	1628.501	1335.812
-29.881	27.288	1626.847	1334.164
-28.867	27.361	1625.205	1333.298
-27.852	27.374	1623.557	1331.989
-26.838	27.324	1622.331	1330.563
-25.823	27.353	1620.869	1329.523
-24.809	27.413	1619.745	1328.983
-23.794	27.362	1618.745	1327.741
-22.779	27.275	1617.343	1325.904
-21.765	27.327	1615.346	1324.594
-20.750	27.254	1614.318	1323.163
-19.736	27.318	1612.573	1322.150
-18.721	27.345	1611.471	1321.390
-17.706	27.314	1610.021	1319.920
-16.692	27.370	1607.739	1318.403
-15.677	27.419	1606.565	1317.745
-14.663	27.306	1605.738	1316.192
-13.648	27.461	1603.949	1315.796
-12.633	27.373	1602.720	1314.098
-11.619	27.378	1601.070	1312.733
-10.604	27.315	1599.666	1311.076
-9.590	27.386	1598.329	1310.438
-8.575	27.410	1596.438	1309.011
-7.560	27.381	1595.479	1307.964
-6.546	27.352	1594.698	1307.065
-5.531	27.333	1593.699	1306.051
-4.517	27.293	1592.766	1304.951
-3.502	27.364	1591.262	1304.175
-2.487	27.399	1589.550	1302.969
-1.473	27.019	1578.049	1290.794
-0.458	24.189	1558.672	1254.987
0.556	18.819	1560.293	1224.505
1.571	16.634	1584.271	1227.383
2.586	16.252	1597.206	1234.502
3.600	15.667	1546.437	1191.014
4.615	13.056	1448.301	1097.983
5.629	10.454	1393.616	1039.761
6.644	9.769	1387.235	1030.536
7.659	9.777	1385.946	1029.534
8.673	9.790	1384.369	1028.355
9.688	9.605	1382.626	1025.791
10.702	9.541	1379.612	1023.061
11.717	10.846	1381.572	1032.722
12.731	14.110	1387.353	1057.739
13.746	16.845	1391.359	1078.124
14.761	17.345	1391.011	1080.938
15.775	16.446	1388.467	1073.162
16.790	15.396	1385.777	1064.331
17.804	14.492	1383.572	1056.813
18.819	14.187	1381.563	1053.253
19.834	13.873	1380.553	1050.409
20.848	13.633	1379.072	1047.669
21.863	13.363	1378.022	1045.071
22.877	13.211	1376.949	1043.210
23.892	13.187	1375.955	1042.210
24.907	13.106	1375.233	1041.064
25.921	13.223	1373.912	1040.704
26.936	13.256	1373.167	1040.257
27.950	13.378	1372.533	1040.450
28.965	13.347	1371.381	1039.289
29.980	13.448	1369.871	1038.692
30.994	13.502	1368.630	1037.995
32.009	13.501	1367.254	1036.857
33.023	13.545	1366.049	1036.125
34.038	13.407	1365.087	1034.437
35.053	13.376	1363.723	1033.124
36.067	13.363	1362.518	1032.036
37.082	13.439	1361.254	1031.459
38.096	13.466	1360.708	1031.122
39.111	13.393	1359.783	1029.874
40.126	13.335	1359.018	1028.848
41.140	13.270	1358.144	1027.686
42.155	13.141	1357.869	1026.591
43.169	13.175	1357.746	1026.618
44.184	13.214	1357.017	1026.215
45.199	13.168	1356.750	1025.636
46.213	13.249	1355.940	1025.439
47.228	13.277	1355.331	1025.057
48.242	13.379	1353.979	1024.578
49.257	13.321	1352.635	1023.111
50.271	13.357	1350.926	1021.949
51.286	13.351	1349.687	1020.887
52.301	13.318	1348.833	1019.948
53.315	13.251	1347.503	1018.436
54.330	13.331	1346.061	1017.750
55.344	13.249	1345.263	1016.553
56.359	13.239	1344.088	1015.514
57.374	13.175	1343.679	1014.722
58.388	13.107	1342.221	1013.110
59.403	13.084	1342.509	1013.098
60.417	13.095	1341.708	1012.473
61.432	13.066	1340.501	1011.294
62.447	13.039	1339.535	1010.312
63.461	12.939	1338.325	1008.700
64.476	13.067	1337.445	1008.725
65.490	13.081	1335.579	1007.315
66.505	13.100	1334.479	1006.512
67.520	13.138	1332.966	1005.513
68.534	13.042	1332.745	1004.675
69.549	13.096	1331.189	1003.739
70.563	13.047	1330.638	1002.937
71.578	13.032	1329.224	1001.692
72.593	13.071	1328.091	1000.986
73.607	12.922	1327.570	999.604
74.622	12.952	1326.241	998.696
75.636	12.970	1326.321	998.779
76.651	12.961	1325.604	998.091
77.666	12.932	1325.339	997.629
78.680	13.016	1324.532	997.445
79.695	12.952	1324.104	996.646
80.709	13.069	1323.049	996.469
81.724	13.102	1321.931	995.739
82.739	13.238	1320.668	995.517
83.753	13.163	1320.534	994.876
84.768	13.311	1319.193	994.668
85.782	13.314	1318.033	993.726
86.797	13.345	1316.641	992.774
87.812	13.286	1315.762	991.669
88.826	13.245	1314.507	990.386
89.841	13.375	1313.378	990.227
90.855	13.425	1312.192	989.543
91.870	13.391	1311.873	989.015
92.884	13.362	1310.928	988.040
93.899	13.468	1309.915	987.825
94.914	13.450	1309.610	987.400
95.928	13.402	1308.687	986.328
96.943	13.383	1307.141	984.965
97.957	13.389	1306.588	984.494
98.972	13.332	1305.415	983.186
99.987	13.384	1304.352	982.605
101.001	13.391	1303.029	981.563
102.016	13.474	1302.084	981.260
103.030	13.336	1301.504	979.916
104.045	13.331	1300.480	979.028
105.060	13.323	1299.518	978.169
106.074	13.238	1297.739	976.242
107.089	13.180	1296.711	975.042
108.103	13.143	1295.356	973.716
109.118	13.060	1294.070	972.179
110.133	13.027	1293.001	971.091
111.147	13.230	1290.951	970.663
112.162	13.157	1290.025	969.447
113.176	13.254	1288.606	968.866
114.191	13.204	1288.033	968.057
115.206	13.221	1286.714	967.078
116.220	13.203	1285.381	965.884
117.235	13.170	1284.524	964.964
118.249	13.211	1283.943	964.682
119.264	13.228	1282.581	963.671
120.279	13.167	1281.174	962.172
121.293	13.156	1279.689	960.910
122.308	13.171	1279.213	960.556
123.322	13.093	1278.271	959.312
124.337	13.149	1277.080	958.655
125.352	13.062	1276.020	957.273
126.366	13.097	1274.720	956.414
127.381	13.206	1273.535	956.071
128.395	13.250	1272.196	955.234
129.410	13.105	1271.692	953.932
130.424	13.190	1270.832	953.696
131.439	13.256	1269.388	952.907
132.454	13.262	1268.885	952.479
133.468	13.243	1268.094	951.695
134.483	13.251	1267.271	951.038
135.497	13.157	1266.792	950.052
136.512	13.215	1265.091	949.029
137.527	13.207	1263.271	947.534
138.541	13.236	1261.902	946.587
139.556	13.236	1260.561	945.497
140.570	13.169	1260.154	944.724
141.585	13.320	1258.916	944.577
142.600	13.381	1257.334	943.652
143.614	13.437	1256.684	943.399
144.629	13.408	1255.524	942.285
145.643	13.380	1254.621	941.360
146.658	13.528	1252.538	940.556
147.673	13.393	1251.823	939.171
148.687	13.416	1250.537	938.253
149.702	13.381	1249.109	936.901
150.716	13.317	1247.801	935.475
151.731	13.382	1246.650	934.898
152.746	13.389	1245.661	934.111
153.760	13.412	1244.289	933.127
154.775	13.458	1243.235	932.515
155.789	13.467	1242.513	931.940
156.804	13.502	1241.288	931.139
157.819	13.467	1240.480	930.250
158.833	13.418	1239.916	929.471
159.848	13.603	1238.484	929.353
160.862	13.506	1237.787	928.205
161.877	13.544	1236.114	927.082
162.892	13.416	1234.716	925.234
163.906	13.363	1234.408	924.627
164.921	13.335	1233.265	923.533
165.935	13.414	1232.473	923.299
166.950	13.452	1231.671	922.827
167.964	13.476	1231.126	922.470
168.979	13.459	1230.618	921.915
169.994	13.498	1229.575	921.268
171.008	13.513	1228.789	920.681
172.023	13.623	1227.967	920.594
173.037	13.634	1227.145	919.955
174.052	13.698	1225.663	919.117
175.067	13.504	1225.181	917.601
176.081	13.557	1224.454	917.272
177.096	13.582	1222.920	916.176
178.110	13.579	1222.395	915.689
179.125	13.488	1221.237	914.237
180.140	13.554	1219.642	913.324
181.154	13.557	1218.642	912.510
182.169	13.648	1217.787	912.292
183.183	13.736	1216.231	911.528
184.198	13.783	1215.076	910.842
185.213	13.727	1213.946	909.609
186.227	13.695	1212.782	908.476
187.242	13.809	1211.896	908.358
188.256	13.785	1211.099	907.548
189.271	13.775	1210.417	906.901
190.286	13.660	1209.587	905.572
191.300	13.567	1208.467	904.149
192.315	13.530	1207.837	903.392
193.329	13.477	1206.962	902.371
194.344	13.634	1206.437	902.753
195.359	13.692	1205.774	902.492
196.373	13.654	1205.542	902.031
197.388	13.812	1204.859	902.301
198.402	13.788	1204.744	902.006
199.417	14.014	1203.698	902.369
200.432	13.954	1202.962	901.410
201.446	14.080	1202.073	901.349
202.461	14.114	1201.362	900.922
203.475	14.134	1200.259	900.119
204.490	14.031	1198.838	898.421
205.504	14.110	1197.512	897.774
206.519	14.029	1196.321	896.362
207.534	13.931	1195.061	894.811
208.548	14.072	1194.163	894.818
209.563	13.908	1193.622	893.455
210.577	14.025	1192.340	893.041
211.592	14.022	1191.856	892.585
212.607	14.132	1190.970	892.433
213.621	14.108	1189.948	891.459
214.636	14.227	1188.909	891.239
215.650	14.141	1188.339	890.276
216.665	14.257	1187.012	889.818
217.680	14.170	1186.519	888.905
218.694	14.301	1185.856	889.032
219.709	14.316	1184.948	888.355
220.723	14.251	1184.356	887.483
221.738	14.360	1183.724	887.513
222.753	14.258	1182.865	886.245
223.767	14.228	1182.590	885.802
224.782	14.357	1181.410	885.525
225.796	14.375	1180.777	885.071
226.811	14.406	1180.133	884.673
227.826	14.358	1179.292	883.706
228.840	14.343	1178.443	882.915
229.855	14.414	1177.507	882.511
230.869	14.335	1176.986	881.623
231.884	14.308	1176.324	880.909
232.899	14.351	1175.211	880.223
233.913	14.204	1174.759	879.029
234.928	14.324	1173.709	878.801
235.942	14.251	1173.273	878.012
236.957	14.331	1172.826	878.019
237.972	14.265	1172.051	877.016
238.986	14.257	1171.224	876.275
240.001	14.267	1170.366	875.609
241.015	14.418	1169.202	875.455
242.030	14.480	1168.547	875.212
243.045	14.512	1167.632	874.615
244.059	14.472	1167.196	874.003
245.074	14.486	1165.958	873.074
246.088	14.523	1165.030	872.496
247.103	14.579	1164.340	872.191
248.117	14.575	1164.171	871.970
249.132	14.726	1163.238	871.981
250.147	14.767	1162.673	871.693
251.161	14.749	1162.295	871.239
252.176	14.746	1161.634	870.652
253.190	14.923	1160.487	870.637
254.205	14.898	1160.336	870.315
255.220	14.855	1159.326	869.257
256.234	14.789	1159.111	868.678
257.249	14.769	1158.822	868.280
258.263	14.830	1158.178	868.035
259.278	14.924	1157.124	867.656
260.293	14.923	1156.352	866.999
261.307	14.990	1155.334	866.506
262.322	15.107	1154.920	866.720
263.336	14.945	1154.448	865.454
264.351	14.959	1154.012	865.124
265.366	15.056	1153.245	864.970
266.380	15.115	1152.399	864.566
267.395	15.048	1151.176	863.228
268.409	15.060	1150.406	862.633
269.424	14.921	1150.001	861.537
270.439	15.025	1149.449	861.582
271.453	15.123	1148.375	861.206
272.468	14.929	1148.030	859.872
273.482	14.904	1147.122	858.989
274.497	14.991	1146.541	858.926
275.512	15.008	1145.683	858.291
276.526	15.144	1145.167	858.529
277.541	14.966	1144.771	857.241
278.555	15.128	1143.706	857.199
279.570	15.193	1143.118	857.016
280.585	15.178	1142.063	856.070
281.599	15.202	1141.333	855.569
282.614	15.071	1140.372	854.108
283.628	15.165	1138.797	853.329
284.643	15.228	1138.122	853.072
285.657	15.230	1137.431	852.486
286.672	15.274	1136.526	851.959
287.687	15.191	1135.740	850.873
288.701	15.226	1134.855	850.312
289.716	15.401	1133.694	850.250
290.730	15.296	1133.436	849.448
291.745	15.336	1132.731	849.049
292.760	15.361	1131.887	848.469
293.774	15.354	1131.434	848.017
294.789	15.281	1131.378	847.530
295.803	15.496	1130.636	847.987
296.818	15.350	1129.578	846.383
297.833	15.443	1128.540	845.997
298.847	15.501	1127.897	845.734
299.862	15.421	1126.992	844.575
300.876	15.406	1126.648	844.172
301.891	15.376	1126.019	843.473
302.906	15.586	1124.890	843.606
303.920	15.605	1124.454	843.299
304.935	15.653	1123.628	842.845
305.949	15.654	1123.292	842.527
306.964	15.651	1122.822	842.086
307.979	15.622	1121.843	841.129
308.993	15.704	1120.937	840.784
310.008	15.699	1120.149	840.095
311.022	15.641	1119.531	839.268
312.037	15.760	1118.281	838.852
313.052	15.606	1117.388	837.341
314.066	15.485	1116.835	836.250
315.081	15.542	1116.098	835.906
316.095	15.515	1114.809	834.730
317.110	15.550	1114.823	834.845
318.125	15.549	1113.872	834.050
319.139	15.655	1112.841	833.734
320.154	15.691	1112.324	833.447
321.168	15.625	1111.985	832.792
322.183	15.565	1111.272	831.890
323.197	15.619	1110.656	831.620
324.212	15.701	1109.910	831.395
325.227	15.717	1109.301	830.943
326.241	15.700	1108.653	830.303
327.256	15.825	1107.413	829.915
328.270	15.696	1106.672	828.650
329.285	15.742	1105.989	828.294
330.300	15.686	1104.849	827.089
331.314	15.822	1103.835	826.927
332.329	15.630	1103.407	825.588
333.343	15.699	1102.350	825.064
334.358	15.846	1101.609	825.156
335.373	15.781	1101.009	824.319
336.387	15.962	1099.690	824.143
337.402	15.903	1099.491	823.630
338.416	15.808	1098.771	822.553
339.431	15.860	1098.253	822.346
340.446	16.007	1097.307	822.283
341.460	16.074	1096.921	822.251
342.475	16.067	1096.076	821.510
343.489	16.119	1094.947	820.845
344.504	16.174	1094.156	820.445
345.519	16.210	1092.825	819.551
346.533	16.212	1092.256	819.059
347.548	16.178	1091.847	818.516
348.562	16.212	1090.997	817.971
349.577	16.158	1090.119	816.979
350.592	16.059	1089.515	815.977
351.606	16.005	1088.958	815.226
352.621	16.130	1087.664	814.785
353.635	16.105	1087.363	814.371
354.650	16.198	1086.175	813.858
355.665	16.169	1085.751	813.329
356.679	16.200	1085.064	812.888
357.694	16.201	1084.906	812.703
358.708	16.260	1084.469	812.587
359.723	16.312	1083.332	811.913
360.738	16.371	1082.454	811.467
361.752	16.304	1081.929	810.680
362.767	16.201	1081.817	810.033
363.781	16.267	1080.862	809.561
364.796	16.382	1080.805	810.000
365.810	16.386	1079.831	809.214
366.825	16.469	1079.069	808.972
367.840	16.549	1078.653	808.968
368.854	16.622	1077.717	808.547
369.869	16.537	1077.219	807.694
370.883	16.618	1076.146	807.204
371.898	16.497	1075.424	806.012
372.913	16.515	1074.618	805.423
373.927	16.554	1074.749	805.636
374.942	16.693	1074.020	805.683
375.956	16.641	1073.534	804.999
376.971	16.609	1072.956	804.342
377.986	16.693	1072.233	804.126
379.000	16.688	1071.961	803.826
380.015	16.775	1071.396	803.744
381.029	16.712	1070.906	803.010
382.044	16.776	1069.922	802.502
383.059	16.756	1069.272	801.847
384.073	16.729	1068.349	800.958
385.088	16.737	1067.635	800.388
386.102	16.905	1066.040	799.914
387.117	16.785	1065.511	798.884
388.132	16.665	1064.554	797.527
389.146	16.692	1063.828	797.040
390.161	16.786	1062.946	796.754
391.175	16.669	1062.811	796.032
392.190	16.840	1061.851	796.047
393.205	16.914	1061.391	795.976
394.219	16.865	1060.291	794.850
395.234	16.887	1059.317	794.154
396.248	16.789	1058.513	793.023
397.263	16.782	1057.722	792.327
398.278	16.850	1056.990	792.027
399.292	16.725	1056.258	790.825
400.307	16.803	1055.072	790.231
401.321	16.840	1054.894	790.200
402.336	16.841	1054.285	789.677
403.350	16.891	1053.390	789.168
404.365	16.698	1053.040	787.942
405.380	16.949	1051.896	788.182
406.394	16.931	1051.185	787.493
407.409	17.043	1050.230	787.228
408.423	17.030	1050.120	787.017
409.438	17.073	1049.379	786.592
410.453	17.105	1048.610	786.092
411.467	17.076	1048.302	785.658
412.482	17.159	1047.133	785.097
413.496	17.269	1046.607	785.142
414.511	17.283	1045.967	784.656
415.526	17.269	1045.717	784.333
416.540	17.285	1045.259	783.995
417.555	17.231	1044.753	783.300
418.569	17.243	1044.174	782.848
419.584	17.132	1043.856	782.029
420.599	17.344	1042.965	782.269
421.613	104.798	1325.870	1476.413
422.628	96.236	1367.054	1476.516
