DTS Sentinel unit serial number:	SN413079Multiplexer serial number:	ORYXHardware model number:	OX4-SRSoftware version number:	ORYX F/W v4.00 Oryx Data Collector v3.7.2.0data status	okinstallation	princeton_trtdifferential loss correction	single-endedforward channel	channel 2reverse channel	N/Adate	2019/09/16time	21:51:35forward acquisition time	60.00reverse acquisition time	0.00gamma	496.2192k internal	0.2328k external	0.2328temperature offset calibration	0.9967default loss term (dB/km)	0.3790temperature slope calibration	1.0000multiplexer offset coefficient	1.0000multiplexer slope coefficient	1.0000fibre end	0.00T internal ref (°C)	31.25T ext. ref 1 (°C)	0.06T ext. ref 2 (°C)	25.57length (m)	temperature (°C)	Stokes	anti-Stokes-747.200	97.000	0.082	-0.094
-746.185	31.888	-0.045	0.039
-745.171	233.056	0.093	-0.154
-744.156	226.171	-0.111	0.182
-743.142	3.676	-0.261	0.192
-742.127	180.131	-0.119	0.176
-741.112	237.981	-0.068	-0.113
-740.098	-200.000	0.012	0.239
-739.083	201.024	0.271	-0.421
-738.069	-200.000	0.006	-0.350
-737.054	244.165	-0.145	-0.245
-736.039	-200.000	-0.019	-0.156
-735.025	-200.000	-0.010	-0.051
-734.010	118.045	0.084	-0.104
-732.996	-200.000	-0.038	-0.569
-731.981	86.460	-0.015	-0.017
-730.966	800.000	0.012	-0.038
-729.952	39.746	-0.157	0.142
-728.937	800.000	0.076	-0.283
-727.923	370.910	0.043	-0.089
-726.908	800.000	-0.071	0.236
-725.894	-73.696	0.402	0.147
-724.879	-3.800	0.010	0.007
-723.864	-129.045	-0.257	-0.036
-722.850	122.574	0.134	-0.169
-721.835	-5.090	0.208	-0.144
-720.821	800.000	0.065	-0.227
-719.806	-200.000	-0.051	-0.228
-718.791	54.587	0.068	-0.066
-717.777	-69.576	0.200	-0.077
-716.762	800.000	-0.056	-0.158
-715.748	-140.381	0.224	-0.024
-714.733	-97.372	-0.191	0.050
-713.718	98.843	-0.068	0.079
-712.704	-94.367	0.142	0.039
-711.689	-14.715	0.093	-0.060
-710.675	399.371	0.146	-0.309
-709.660	55.742	-0.231	-0.225
-708.645	-200.000	-0.022	0.139
-707.631	160.340	0.067	-0.095
-706.616	-200.000	-0.023	0.262
-705.602	133.736	-0.220	-0.286
-704.587	-60.645	0.231	-0.099
-703.572	130.627	0.092	0.119
-702.558	800.000	0.017	-0.055
-701.543	800.000	0.097	-0.311
-700.529	232.000	-0.150	0.247
-699.514	115.646	-0.210	0.259
-698.499	-184.739	-0.128	0.002
-697.485	-200.000	0.051	-0.341
-696.470	194.107	-0.180	0.274
-695.456	128.705	0.061	0.078
-694.441	-110.246	-0.206	0.043
-693.426	447.085	0.112	0.249
-692.412	10.100	0.473	0.361
-691.397	10.579	-0.052	-0.040
-690.383	27.017	0.015	0.013
-689.368	800.000	-0.145	0.505
-688.354	-27.505	-0.140	-0.082
-687.339	517.083	0.121	0.285
-686.324	66.300	-0.068	-0.070
-685.310	580.913	-0.115	-0.282
-684.295	7.621	0.286	0.215
-683.281	800.000	0.051	0.160
-682.266	4.455	-0.292	-0.215
-681.251	-103.783	0.401	-0.094
-680.237	-200.000	0.058	-0.371
-679.222	-200.000	0.037	-0.265
-678.208	-50.149	-0.194	-0.092
-677.193	144.472	0.200	-0.268
-676.178	-200.000	0.072	0.335
-675.164	288.652	0.082	0.149
-674.149	-12.826	-0.226	-0.148
-673.135	93.910	-0.158	-0.180
-672.120	-65.918	-0.182	-0.073
-671.105	-200.000	-0.018	-0.217
-670.091	16.493	-0.164	-0.130
-669.076	111.075	-0.257	0.310
-668.062	149.195	0.030	-0.041
-667.047	235.791	-0.047	-0.078
-666.032	-115.771	-0.234	0.044
-665.018	-128.519	-0.186	-0.027
-664.003	13.100	-0.258	-0.200
-662.989	-200.000	0.013	-0.218
-661.974	658.753	0.176	-0.454
-660.959	-125.536	0.052	0.008
-659.945	171.059	-0.224	0.323
-658.930	-55.485	-0.140	-0.063
-657.916	-111.495	0.191	-0.039
-656.901	505.114	0.070	-0.164
-655.886	54.938	0.258	0.250
-654.872	-26.956	-0.227	-0.133
-653.857	284.440	-0.126	0.228
-652.843	-76.369	-0.170	-0.060
-651.828	75.303	0.185	-0.196
-650.814	-89.209	0.256	-0.076
-649.799	454.315	0.006	-0.013
-648.784	-200.000	0.044	0.298
-647.770	-200.000	0.015	-0.153
-646.755	-200.000	-0.075	-0.750
-645.741	-117.770	0.243	-0.044
-644.726	-111.937	-0.245	0.050
-643.711	-200.000	0.051	-0.242
-642.697	-200.000	0.015	0.146
-641.682	63.452	0.092	0.093
-640.668	-200.000	-0.010	-0.093
-639.653	800.000	0.083	0.302
-638.638	-200.000	0.016	-0.098
-637.624	-134.343	0.407	-0.050
-636.609	-200.000	-0.002	0.462
-635.595	-132.095	0.152	0.020
-634.580	-200.000	-0.033	-0.173
-633.565	336.700	-0.034	0.067
-632.551	113.828	-0.314	-0.382
-631.536	103.106	0.329	-0.387
-630.522	-130.497	-0.280	0.038
-629.507	-102.199	0.224	-0.054
-628.492	-190.312	0.375	-0.004
-627.478	85.439	-0.298	-0.328
-626.463	-200.000	-0.032	0.232
-625.449	152.326	0.112	0.154
-624.434	-34.266	0.104	0.057
-623.419	800.000	0.062	0.238
-622.405	-200.000	-0.012	-0.267
-621.390	-169.534	0.207	0.008
-620.376	650.710	-0.038	-0.099
-619.361	117.462	0.109	0.134
-618.346	324.501	-0.094	-0.180
-617.332	31.232	-0.115	-0.099
-616.317	-69.083	-0.104	-0.040
-615.303	800.000	-0.127	-0.368
-614.288	-193.154	0.121	0.001
-613.273	800.000	-0.041	-0.116
-612.259	127.366	0.085	0.108
-611.244	162.542	0.128	0.180
-610.230	-131.907	0.227	0.030
-609.215	800.000	-0.073	-0.289
-608.201	-39.445	0.352	0.185
-607.186	-46.299	0.142	0.070
-606.171	-200.000	-0.012	0.061
-605.157	-18.004	0.353	-0.222
-604.142	68.858	-0.120	-0.123
-603.128	-141.695	0.195	-0.020
-602.113	-37.397	-0.165	0.089
-601.098	-111.773	0.209	0.042
-600.084	23.666	-0.157	0.129
-599.069	90.700	-0.115	-0.129
-598.055	37.999	0.217	0.193
-597.040	151.794	-0.159	-0.218
-596.025	5.154	0.078	0.058
-595.011	-39.242	0.203	-0.107
-593.996	-35.616	0.032	-0.017
-592.982	-30.792	0.185	0.105
-591.967	154.251	0.210	-0.288
-590.952	-52.928	-0.113	-0.052
-589.938	-108.683	0.121	-0.026
-588.923	250.664	-0.101	-0.172
-587.909	280.828	0.131	0.235
-586.894	-200.000	-0.002	0.325
-585.879	-200.000	-0.012	-0.401
-584.865	-48.225	0.174	-0.084
-583.850	-200.000	-0.007	-0.060
-582.836	3.454	0.267	-0.194
-581.821	620.632	0.036	0.091
-580.806	778.186	0.081	0.220
-579.792	-200.000	0.047	0.207
-578.777	-200.000	-0.030	-0.210
-577.763	-65.902	-0.201	-0.080
-576.748	112.011	-0.124	-0.150
-575.733	-11.400	0.125	0.082
-574.719	-200.000	-0.011	-0.076
-573.704	800.000	-0.079	0.223
-572.690	480.226	0.169	0.383
-571.675	48.019	-0.196	0.183
-570.661	-200.000	0.058	0.297
-569.646	266.184	0.032	0.057
-568.631	-200.000	0.017	0.147
-567.617	-8.970	-0.128	0.086
-566.602	46.550	0.199	0.185
-565.588	-180.055	-0.278	-0.006
-564.573	-200.000	0.078	0.000
-563.558	-200.000	0.003	0.108
-562.544	-121.118	-0.227	0.038
-561.529	2.344	-0.083	-0.060
-560.515	-200.000	0.042	-0.440
-559.500	-4.981	0.214	0.147
-558.485	-99.425	-0.252	0.063
-557.471	142.042	-0.164	0.217
-556.456	30.017	0.094	0.080
-555.442	759.467	0.169	-0.458
-554.427	-200.000	0.008	-0.154
-553.412	-54.503	-0.162	0.074
-552.398	-110.979	0.063	0.013
-551.383	96.561	0.130	-0.149
-550.369	6.108	-0.083	0.061
-549.354	-73.793	-0.280	-0.102
-548.339	104.558	-0.104	0.122
-547.325	-124.827	-0.335	0.052
-546.310	230.658	-0.158	0.258
-545.296	-147.448	-0.182	-0.015
-544.281	-51.923	-0.194	0.090
-543.266	90.312	0.137	-0.153
-542.252	228.289	-0.285	-0.463
-541.237	44.905	0.176	0.162
-540.223	217.990	0.155	-0.248
-539.208	333.484	-0.060	0.117
-538.193	-20.255	-0.408	0.251
-537.179	-87.056	0.010	0.003
-536.164	-57.904	0.196	0.085
-535.150	472.395	0.024	-0.054
-534.135	21.597	0.183	0.149
-533.121	-200.000	0.015	-0.344
-532.106	423.423	-0.072	-0.154
-531.091	-200.000	0.025	-0.142
-530.077	-200.000	-0.002	-0.141
-529.062	215.776	0.270	-0.428
-528.048	-76.030	-0.130	0.046
-527.033	-18.428	-0.080	-0.050
-526.018	800.000	-0.054	-0.190
-525.004	300.534	0.076	0.140
-523.989	-83.377	-0.297	-0.095
-522.975	249.846	0.035	0.060
-521.960	-200.000	0.033	-0.180
-520.945	-28.032	0.072	-0.042
-519.931	800.000	0.027	0.103
-518.916	-73.680	-0.122	-0.044
-517.902	-63.015	0.057	0.023
-516.887	-84.330	0.247	-0.078
-515.872	-200.000	-0.081	-0.441
-514.858	800.000	0.039	-0.170
-513.843	7.576	-0.122	0.091
-512.829	800.000	0.046	0.185
-511.814	90.422	-0.214	0.239
-510.799	3.045	0.233	-0.169
-509.785	800.000	-0.036	0.137
-508.770	-200.000	-0.004	0.084
-507.756	-43.325	0.152	0.077
-506.741	-200.000	-0.045	0.217
-505.726	190.330	0.082	-0.122
-504.712	-200.000	0.083	0.549
-503.697	-120.094	-0.370	0.063
-502.683	-88.475	0.418	-0.125
-501.668	-126.539	0.089	0.013
-500.653	-46.245	-0.196	0.096
-499.639	21.473	0.103	-0.083
-498.624	35.557	0.131	0.115
-497.610	82.568	-0.290	-0.315
-496.595	-182.874	0.176	0.003
-495.581	583.274	0.056	-0.137
-494.566	-200.000	-0.039	0.241
-493.551	-25.780	0.046	0.027
-492.537	-194.048	-0.158	-0.001
-491.522	59.252	0.072	-0.071
-490.508	-77.757	0.203	-0.070
-489.493	169.728	0.207	-0.296
-488.478	386.068	-0.096	-0.198
-487.464	800.000	0.034	-0.148
-486.449	-200.000	0.009	0.228
-485.435	800.000	0.073	0.280
-484.420	-117.582	0.280	-0.050
-483.405	-200.000	0.015	-0.143
-482.391	800.000	-0.067	-0.243
-481.376	-159.797	-0.222	0.012
-480.362	363.157	0.099	-0.198
-479.347	275.330	-0.159	0.281
-478.332	50.162	0.168	-0.158
-477.318	240.632	0.142	-0.237
-476.303	-42.016	0.344	-0.176
-475.289	-200.000	0.016	-0.085
-474.274	82.909	0.097	-0.105
-473.259	-126.344	-0.184	0.027
-472.245	99.641	-0.316	0.365
-471.230	-200.000	-0.015	0.123
-470.216	-200.000	0.011	-0.064
-469.201	13.491	-0.366	-0.283
-468.186	45.069	-0.140	0.129
-467.172	-200.000	0.004	-0.228
-466.157	-117.551	0.191	0.034
-465.143	800.000	0.040	0.138
-464.128	-79.789	-0.263	0.088
-463.113	-21.971	-0.075	0.046
-462.099	800.000	0.033	-0.104
-461.084	-36.488	-0.229	0.123
-460.070	-41.749	0.200	-0.102
-459.055	-200.000	-0.007	-0.106
-458.040	70.348	-0.020	0.020
-457.026	91.305	-0.103	0.115
-456.011	-200.000	-0.000	-0.121
-454.997	-98.566	-0.275	-0.070
-453.982	21.516	-0.304	-0.246
-452.968	531.780	-0.076	-0.180
-451.953	-113.413	0.204	-0.040
-450.938	-17.523	-0.126	0.079
-449.924	46.344	-0.019	0.018
-448.909	26.166	0.233	0.193
-447.895	-48.761	-0.138	0.066
-446.880	800.000	-0.026	-0.082
-445.865	-86.865	0.105	0.032
-444.851	-200.000	-0.007	-0.062
-443.836	131.109	0.253	0.323
-442.822	-109.246	0.235	-0.050
-441.807	-159.341	0.095	-0.005
-440.792	96.033	-0.159	-0.181
-439.778	155.939	-0.070	0.096
-438.763	-200.000	-0.026	0.267
-437.749	-200.000	-0.037	0.285
-436.734	800.000	-0.027	-0.108
-435.719	-48.175	-0.194	-0.093
-434.705	-26.813	0.345	-0.201
-433.690	-43.626	-0.115	0.058
-432.676	-27.651	0.009	0.005
-431.661	-110.042	-0.491	0.102
-430.646	-200.000	0.018	0.245
-429.632	800.000	-0.038	0.138
-428.617	309.193	0.184	0.342
-427.603	-101.403	0.336	-0.082
-426.588	158.601	-0.083	0.115
-425.573	84.532	0.292	-0.318
-424.559	-20.273	-0.273	-0.167
-423.544	16.940	-0.175	0.138
-422.530	-147.216	0.077	0.007
-421.515	-200.000	0.036	-0.271
-420.500	-76.497	0.091	0.032
-419.486	-52.975	0.268	0.122
-418.471	14.913	-0.262	-0.204
-417.457	-136.957	0.047	-0.005
-416.442	25.063	-0.290	0.239
-415.428	-116.167	-0.129	-0.024
-414.413	-60.240	-0.223	-0.095
-413.398	-52.306	-0.072	0.033
-412.384	-200.000	0.032	0.268
-411.369	-200.000	-0.054	-0.271
-410.355	340.903	0.065	-0.126
-409.340	-200.000	0.045	0.302
-408.325	-88.008	0.139	0.041
-407.311	-15.893	0.155	0.098
-406.296	60.684	-0.064	-0.063
-405.282	245.741	0.153	0.256
-404.267	710.985	0.051	-0.135
-403.252	-200.000	-0.014	-0.146
-402.238	6.319	0.158	0.117
-401.223	-120.646	-0.299	-0.050
-400.209	-85.786	-0.161	0.050
-399.194	-93.947	0.175	-0.048
-398.179	154.422	0.077	0.106
-397.165	-37.572	-0.191	0.101
-396.150	59.109	0.189	0.185
-395.136	381.661	-0.096	0.196
-394.121	-12.391	-0.380	0.247
-393.106	-5.259	-0.303	0.207
-392.092	800.000	0.065	-0.208
-391.077	411.796	0.103	-0.217
-390.063	-200.000	-0.024	0.140
-389.048	-56.038	-0.130	-0.057
-388.033	-60.239	0.126	-0.053
-387.019	-76.438	-0.207	0.072
-386.004	-100.318	-0.270	-0.067
-384.990	123.792	0.020	-0.025
-383.975	-50.393	0.083	-0.039
-382.960	420.649	0.061	0.129
-381.946	-90.109	-0.090	0.026
-380.931	69.796	-0.147	0.151
-379.917	11.765	0.200	0.153
-378.902	422.064	-0.055	0.117
-377.888	-200.000	-0.008	-0.326
-376.873	45.675	0.139	-0.128
-375.858	-200.000	-0.031	-0.202
-374.844	-200.000	-0.021	-0.093
-373.829	544.697	-0.053	0.127
-372.815	-43.452	0.120	0.060
-371.800	-70.753	-0.133	0.050
-370.785	-124.526	-0.199	0.031
-369.771	-25.209	0.148	0.087
-368.756	-160.988	-0.080	0.004
-367.742	-69.835	-0.140	0.053
-366.727	-47.937	-0.181	0.087
-365.712	209.711	-0.084	-0.131
-364.698	34.492	0.076	-0.066
-363.683	-58.036	-0.381	-0.165
-362.669	-67.819	-0.170	0.066
-361.654	-200.000	0.282	0.000
-360.639	-177.499	-0.075	0.002
-359.625	483.259	0.096	-0.218
-358.610	-13.547	-0.168	-0.108
-357.596	142.049	-0.194	0.255
-356.581	-20.553	-0.083	0.050
-355.566	-33.549	-0.249	-0.137
-354.552	-19.362	0.388	-0.239
-353.537	-200.000	0.012	-0.226
-352.523	359.533	0.074	-0.147
-351.508	-113.149	-0.113	-0.022
-350.493	-129.572	-0.059	0.008
-349.479	131.032	-0.298	0.379
-348.464	-200.000	0.008	-0.063
-347.450	-14.341	-0.135	-0.086
-346.435	111.755	0.128	-0.153
-345.420	314.955	0.164	-0.307
-344.406	561.334	-0.146	-0.350
-343.391	58.970	-0.185	0.181
-342.377	12.186	-0.252	0.192
-341.362	73.815	0.395	0.411
-340.348	-200.000	0.001	0.311
-339.333	200.038	-0.023	-0.035
-338.318	-107.349	-0.384	-0.084
-337.304	-200.000	-0.023	-0.195
-336.289	-160.363	0.074	-0.004
-335.275	-147.777	-0.220	-0.018
-334.260	60.146	-0.329	-0.323
-333.245	-200.000	-0.035	-0.219
-332.231	-200.000	-0.047	-0.368
-331.216	8.421	-0.049	-0.036
-330.202	800.000	-0.076	-0.253
-329.187	-50.487	0.149	0.070
-328.172	-79.875	0.191	0.064
-327.158	-200.000	-0.007	0.103
-326.143	271.887	0.156	-0.273
-325.129	57.047	-0.169	-0.163
-324.114	-127.389	0.373	-0.054
-323.099	209.235	-0.111	0.172
-322.085	800.000	-0.137	-0.462
-321.070	-200.000	0.005	0.249
-320.056	364.942	-0.150	-0.299
-319.041	-149.260	0.229	0.018
-318.026	405.988	-0.022	-0.045
-317.012	35.438	0.036	-0.031
-315.997	22.189	-0.321	0.260
-314.983	-200.000	0.026	0.127
-313.968	800.000	-0.164	0.463
-312.953	600.666	0.053	0.131
-311.939	-30.556	0.035	-0.020
-310.924	174.641	-0.141	-0.202
-309.910	-200.000	-0.013	0.161
-308.895	120.056	0.124	-0.152
-307.880	-147.544	0.103	-0.009
-306.866	-72.719	-0.244	-0.089
-305.851	-142.112	0.137	-0.013
-304.837	93.197	-0.135	0.152
-303.822	-95.935	0.317	-0.084
-302.807	767.566	-0.121	0.327
-301.793	-22.596	0.130	0.078
-300.778	38.345	0.254	-0.224
-299.764	-71.091	-0.190	0.071
-298.749	-143.888	-0.220	-0.021
-297.735	-169.868	-0.126	0.004
-296.720	800.000	0.122	0.342
-295.705	800.000	0.047	0.203
-294.691	-128.063	-0.181	0.026
-293.676	-200.000	-0.001	-0.018
-292.662	-140.627	-0.398	0.041
-291.647	127.300	0.185	-0.232
-290.632	447.693	0.063	-0.137
-289.618	-59.320	0.219	-0.093
-288.603	92.817	-0.190	-0.212
-287.589	-117.830	-0.269	0.048
-286.574	-68.739	0.204	0.078
-285.559	-200.000	0.013	-0.109
-284.545	89.372	-0.037	-0.041
-283.530	-200.000	-0.008	0.283
-282.516	-126.612	0.091	0.013
-281.501	-93.687	0.218	0.059
-280.486	-80.002	0.165	0.055
-279.472	-200.000	-0.022	-0.118
-278.457	26.298	0.173	-0.143
-277.443	-1.778	-0.259	-0.180
-276.428	135.649	-0.206	0.265
-275.413	183.813	-0.078	-0.114
-274.399	-200.000	0.016	0.441
-273.384	-200.000	0.018	0.332
-272.370	45.447	0.187	0.171
-271.355	11.728	0.082	0.063
-270.340	-94.568	-0.176	0.047
-269.326	429.329	0.031	0.066
-268.311	249.727	0.070	0.117
-267.297	-173.243	-0.063	-0.002
-266.282	-200.000	0.016	-0.096
-265.267	17.194	-0.183	0.144
-264.253	213.754	0.122	0.191
-263.238	-20.350	-0.074	0.045
-262.224	-141.660	0.248	-0.025
-261.209	-35.501	0.255	0.137
-260.195	800.000	0.068	0.294
-259.180	-200.000	-0.021	0.308
-258.165	-200.000	0.014	-0.261
-257.151	800.000	-0.088	-0.258
-256.136	-200.000	0.010	0.114
-255.122	-200.000	0.017	0.104
-254.107	-129.379	0.430	-0.059
-253.092	-60.889	0.454	0.190
-252.078	44.145	0.109	0.099
-251.063	-114.549	-0.218	-0.041
-250.049	-10.434	-0.153	0.100
-249.034	-34.379	-0.128	-0.069
-248.019	375.778	0.141	-0.284
-247.005	800.000	-0.063	0.261
-245.990	260.024	0.131	-0.223
-244.976	-58.480	-0.342	0.147
-243.961	-53.041	0.266	0.121
-242.946	243.787	0.215	-0.356
-241.932	104.810	-0.069	0.080
-240.917	800.000	0.082	0.306
-239.903	192.852	0.140	0.209
-238.888	800.000	0.039	-0.160
-237.873	-200.000	-0.009	0.177
-236.859	747.921	0.094	0.250
-235.844	-200.000	0.032	0.175
-234.830	-54.499	-0.331	0.148
-233.815	-115.703	-0.186	0.034
-232.800	169.356	-0.121	-0.170
-231.786	-200.000	-0.014	-0.073
-230.771	-138.621	0.380	0.041
-229.757	135.956	0.112	0.144
-228.742	-200.000	-0.029	0.154
-227.727	375.614	0.020	-0.041
-226.713	702.680	0.038	0.100
-225.698	-182.868	0.043	-0.001
-224.684	-200.000	0.001	-0.156
-223.669	-140.491	0.209	0.022
-222.655	13.996	0.046	0.035
-221.640	108.668	-0.107	-0.127
-220.625	-42.145	0.134	0.068
-219.611	-26.415	-0.076	0.044
-218.596	-200.000	0.022	0.169
-217.582	-173.442	-0.383	0.011
-216.567	800.000	-0.081	0.300
-215.552	800.000	-0.001	-0.003
-214.538	-200.000	0.002	-0.053
-213.523	-17.963	-0.241	-0.149
-212.509	-72.148	0.107	0.039
-211.494	30.723	0.143	-0.121
-210.479	-64.292	-0.317	0.127
-209.465	370.857	-0.061	-0.122
-208.450	-68.992	0.451	0.171
-207.436	-30.563	-0.236	-0.132
-206.421	-200.000	0.105	-0.593
-205.406	427.232	0.090	0.191
-204.392	-167.665	0.050	0.002
-203.377	-200.000	-0.018	-0.169
-202.363	-83.617	0.352	-0.111
-201.348	-200.000	-0.006	-0.085
-200.333	-200.000	-0.007	0.236
-199.319	309.241	-0.151	0.278
-198.304	-18.085	0.255	-0.157
-197.290	-200.000	-0.034	0.294
-196.275	-200.000	0.020	-0.309
-195.260	800.000	0.063	-0.181
-194.246	7.900	-0.297	-0.220
-193.231	4.282	0.200	-0.144
-192.217	-49.925	0.412	0.193
-191.202	313.236	0.067	0.125
-190.187	-116.966	0.247	-0.044
-189.173	160.489	0.076	0.104
-188.158	65.197	0.267	-0.266
-187.144	-139.729	0.366	-0.038
-186.129	-93.200	-0.375	0.103
-185.114	-165.820	0.060	-0.003
-184.100	144.591	-0.118	0.156
-183.085	370.073	-0.080	-0.159
-182.071	142.218	-0.099	-0.129
-181.056	-115.788	-0.092	0.017
-180.042	800.000	-0.041	-0.165
-179.027	532.887	-0.116	0.271
-178.012	800.000	-0.073	-0.212
-176.998	222.197	-0.197	-0.313
-175.983	540.387	-0.085	-0.200
-174.969	-107.816	0.115	0.025
-173.954	116.494	0.095	-0.115
-172.939	4.311	-0.060	-0.044
-171.925	193.665	-0.054	0.081
-170.910	130.913	0.172	0.217
-169.896	2.289	-0.092	0.065
-168.881	-200.000	-0.016	-0.074
-167.866	-200.000	-0.064	0.450
-166.852	800.000	-0.012	0.049
-165.837	-150.599	-0.305	-0.023
-164.823	-38.357	0.556	0.290
-163.808	172.367	-0.044	0.063
-162.793	800.000	0.023	-0.090
-161.779	-67.079	0.134	0.052
-160.764	77.894	-0.237	0.248
-159.750	-84.623	0.195	-0.061
-158.735	56.066	0.103	0.099
-157.720	-40.535	-0.128	0.065
-156.706	-200.000	0.055	-0.258
-155.691	93.131	-0.119	0.133
-154.677	119.817	0.037	0.045
-153.662	596.115	-0.099	-0.241
-152.647	173.835	-0.056	0.080
-151.633	-200.000	-0.038	0.190
-150.618	94.333	-0.225	0.251
-149.604	800.000	-0.109	0.307
-148.589	59.992	0.165	-0.161
-147.574	800.000	0.045	-0.154
-146.560	177.502	-0.040	0.057
-145.545	170.722	0.061	-0.086
-144.531	327.607	0.125	0.236
-143.516	91.166	0.089	-0.099
-142.502	-200.000	-0.018	-0.091
-141.487	-23.068	-0.053	0.031
-140.472	-115.839	-0.037	0.007
-139.458	800.000	-0.035	0.124
-138.443	32.424	-0.222	0.189
-137.429	-47.830	0.115	0.055
-136.414	-122.189	-0.260	-0.042
-135.399	129.157	0.065	0.082
-134.385	10.970	-0.113	0.085
-133.370	-200.000	-0.010	-0.151
-132.356	-140.053	0.373	-0.039
-131.341	-88.023	-0.352	0.104
-130.326	217.968	0.090	-0.142
-129.312	-122.052	0.088	0.014
-128.297	800.000	0.045	0.162
-127.283	-200.000	0.064	-0.539
-126.268	94.827	-0.117	-0.131
-125.253	-147.433	0.044	-0.004
-124.239	800.000	-0.048	0.142
-123.224	17.353	0.091	0.071
-122.210	18.088	-0.058	-0.045
-121.195	-200.000	-0.014	-0.073
-120.180	0.154	0.125	-0.088
-119.166	-153.786	0.167	-0.011
-118.151	-200.000	0.014	-0.080
-117.137	-200.000	0.015	0.335
-116.122	47.501	-0.146	-0.134
-115.107	10.147	0.101	-0.076
-114.093	-200.000	-0.036	-0.407
-113.078	800.000	0.055	-0.194
-112.064	-125.134	0.335	0.050
-111.049	-128.765	0.227	0.032
-110.034	-200.000	-0.019	0.140
-109.020	346.255	-0.098	0.190
-108.005	114.068	0.138	0.164
-106.991	50.527	0.225	0.209
-105.976	416.553	-0.022	0.045
-104.962	-110.194	0.273	0.056
-103.947	-200.000	-0.015	-0.083
-102.932	-200.000	0.011	0.182
-101.918	-190.181	0.339	0.004
-100.903	-24.229	0.367	0.215
-99.889	-122.140	-0.049	0.008
-98.874	-118.541	0.341	0.059
-97.859	37.748	-0.073	0.064
-96.845	-94.650	-0.110	-0.030
-95.830	800.000	-0.101	-0.289
-94.816	400.308	0.048	-0.098
-93.801	210.900	-0.152	-0.234
-92.786	-200.000	0.007	-0.249
-91.772	-56.571	-0.272	-0.118
-90.757	-200.000	0.012	0.076
-89.743	-200.000	-0.027	0.183
-88.728	800.000	-0.090	-0.370
-87.713	-101.899	0.343	0.081
-86.699	-200.000	0.079	-0.463
-85.684	-4.091	0.295	-0.201
-84.670	800.000	-0.014	-0.055
-83.655	-79.914	-0.118	-0.039
-82.640	491.692	-0.009	-0.020
-81.626	248.053	-0.146	-0.242
-80.611	-200.000	-0.037	-0.332
-79.597	-119.850	0.203	-0.034
-78.582	-176.465	0.305	0.008
-77.567	8.043	0.244	0.180
-76.553	-49.170	-0.096	0.045
-75.538	-87.754	-0.150	0.045
-74.524	415.254	-0.146	-0.305
-73.509	-68.322	0.052	-0.020
-72.494	45.805	-0.150	-0.136
-71.480	144.437	-0.130	0.170
-70.465	-200.000	0.023	-0.330
-69.451	67.079	0.243	0.243
-68.436	-200.000	0.044	0.299
-67.422	-62.287	-0.306	-0.125
-66.407	-200.000	0.030	-0.329
-65.392	800.000	-0.072	-0.210
-64.378	-180.031	-0.087	0.002
-63.363	264.217	-0.076	-0.130
-62.349	-114.014	0.060	-0.011
-61.334	125.205	-1.022	-1.264
-60.319	86.053	0.538	0.581
-59.305	800.000	-0.211	-0.824
-58.290	-200.000	0.195	0.994
-57.276	475.300	0.783	1.733
-56.261	-200.000	99.175	587.170
-55.246	517.193	1405.230	3223.386
-54.232	158.056	2582.817	3511.890
-53.217	104.819	2268.035	2622.328
-52.203	40.438	1892.516	1671.096
-51.188	34.379	1683.743	1441.055
-50.173	31.874	1640.057	1385.136
-49.159	49.378	1688.958	1558.039
-48.144	50.864	1705.708	1584.565
-47.130	34.079	1665.716	1423.159
-46.115	31.390	1651.226	1390.746
-45.100	31.253	1646.747	1385.900
-44.086	31.217	1644.160	1383.404
-43.071	31.186	1641.120	1380.559
-42.057	31.087	1639.296	1378.239
-41.042	31.160	1636.662	1376.506
-40.027	31.132	1635.220	1375.036
-39.013	31.165	1633.019	1373.369
-37.998	31.058	1632.020	1371.689
-36.984	31.192	1630.885	1371.670
-35.969	31.247	1629.301	1370.682
-34.954	31.242	1627.601	1369.164
-33.940	31.280	1625.985	1368.028
-32.925	31.252	1624.078	1366.161
-31.911	31.184	1622.870	1364.597
-30.896	31.207	1621.050	1363.176
-29.881	31.177	1619.312	1361.442
-28.867	31.289	1617.372	1360.574
-27.852	31.171	1616.518	1358.943
-26.838	31.193	1614.846	1357.647
-25.823	31.272	1613.259	1356.827
-24.809	31.341	1612.227	1356.412
-23.794	31.213	1611.163	1354.531
-22.779	31.257	1609.514	1353.409
-21.765	31.198	1607.762	1351.460
-20.750	31.361	1605.476	1350.658
-19.736	31.294	1604.961	1349.691
-18.721	31.331	1603.251	1348.463
-17.706	31.236	1601.557	1346.301
-16.692	31.286	1600.177	1345.445
-15.677	31.325	1598.667	1344.404
-14.663	31.321	1597.554	1343.391
-13.648	31.385	1596.149	1342.608
-12.633	31.274	1594.732	1340.567
-11.619	31.253	1593.053	1338.958
-10.604	31.283	1591.644	1337.929
-9.590	31.299	1590.339	1336.895
-8.575	31.331	1588.829	1335.805
-7.560	31.275	1587.937	1334.600
-6.546	31.258	1587.133	1333.748
-5.531	31.306	1585.835	1332.952
-4.517	31.284	1584.516	1331.629
-3.502	31.273	1583.437	1330.596
-2.487	31.343	1582.136	1329.949
-1.473	30.954	1570.657	1317.496
-0.458	28.221	1551.094	1281.922
0.556	22.832	1551.962	1250.777
1.571	20.392	1575.601	1252.143
2.586	20.053	1588.879	1260.121
3.600	18.329	1536.366	1206.228
4.615	10.311	1426.247	1067.037
5.629	1.950	1360.419	964.968
6.644	0.229	1352.175	948.201
7.659	0.127	1351.104	946.726
8.673	-0.064	1349.988	944.658
9.688	-0.031	1347.887	943.317
10.702	-0.059	1344.833	940.922
11.717	3.712	1350.968	968.810
12.731	12.452	1365.250	1034.161
13.746	17.491	1371.907	1070.887
14.761	17.229	1369.560	1067.314
15.775	16.158	1366.737	1058.304
16.790	15.184	1364.357	1050.268
17.804	14.324	1362.583	1043.423
18.819	13.900	1361.302	1039.692
19.834	13.788	1359.246	1037.335
20.848	13.548	1357.787	1034.624
21.863	13.217	1357.025	1031.888
22.877	13.075	1355.539	1029.782
23.892	13.030	1354.909	1028.934
24.907	13.089	1354.168	1028.648
25.921	13.029	1353.157	1027.415
26.936	13.063	1352.387	1026.951
27.950	13.160	1351.617	1026.873
28.965	13.218	1350.440	1026.249
29.980	13.295	1349.617	1026.016
30.994	13.331	1348.237	1025.097
32.009	13.244	1347.679	1024.040
33.023	13.331	1346.708	1023.753
34.038	13.334	1344.965	1022.353
35.053	13.297	1343.519	1020.938
36.067	13.301	1343.074	1020.535
37.082	13.212	1342.306	1019.311
38.096	13.293	1341.221	1018.897
39.111	13.158	1340.813	1017.665
40.126	13.176	1340.091	1017.139
41.140	13.102	1339.307	1015.996
42.155	12.976	1339.000	1014.899
43.169	13.019	1338.558	1014.740
44.184	13.012	1338.115	1014.267
45.199	13.045	1337.735	1014.091
46.213	13.072	1337.057	1013.656
47.228	13.226	1336.037	1013.738
48.242	13.168	1334.834	1012.383
49.257	13.208	1333.434	1011.477
50.271	13.189	1332.072	1010.236
51.286	13.200	1330.923	1009.342
52.301	13.271	1329.713	1008.766
53.315	13.218	1328.525	1007.455
54.330	13.157	1327.277	1006.045
55.344	12.994	1326.672	1004.508
56.359	13.248	1325.344	1004.959
57.374	13.052	1324.750	1003.227
58.388	13.111	1323.905	1002.858
59.403	13.022	1323.376	1001.828
60.417	13.034	1322.794	1001.370
61.432	12.952	1321.670	999.936
62.447	12.970	1320.974	999.427
63.461	12.868	1319.605	997.684
64.476	12.933	1318.324	997.024
65.490	12.967	1316.974	996.120
66.505	12.875	1315.900	994.665
67.520	13.021	1314.499	994.397
68.534	13.068	1313.253	993.647
69.549	13.077	1312.184	992.807
70.563	13.063	1311.091	991.806
71.578	13.008	1309.736	990.364
72.593	12.966	1308.962	989.438
73.607	12.803	1308.649	988.137
74.622	12.817	1307.734	987.444
75.636	12.808	1307.357	987.018
76.651	12.951	1306.422	987.079
77.666	12.883	1305.658	986.009
78.680	12.956	1304.803	985.711
79.695	13.001	1303.925	985.232
80.709	12.939	1303.352	984.341
81.724	13.042	1302.753	984.417
82.739	12.983	1302.107	983.491
83.753	13.136	1300.941	983.434
84.768	13.215	1299.594	982.797
85.782	13.218	1298.646	982.012
86.797	13.303	1296.757	980.998
87.812	13.205	1295.571	979.432
88.826	13.170	1295.028	978.731
89.841	13.162	1293.947	977.776
90.855	13.106	1293.318	976.888
91.870	13.220	1292.166	976.603
92.884	13.304	1291.076	976.187
93.899	13.204	1290.511	975.083
94.914	13.361	1289.850	975.424
95.928	13.264	1289.159	974.244
96.943	13.352	1287.910	973.730
97.957	13.320	1286.951	972.732
98.972	13.283	1285.618	971.419
99.987	13.194	1285.116	970.436
101.001	13.228	1283.896	969.629
102.016	13.217	1283.038	968.831
103.030	13.271	1282.344	968.534
104.045	13.228	1281.406	967.489
105.060	13.241	1280.260	966.611
106.074	13.048	1279.007	964.457
107.089	13.058	1277.827	963.540
108.103	12.954	1276.651	961.960
109.118	13.003	1275.270	961.121
110.133	13.108	1273.467	960.286
111.147	13.084	1272.394	959.255
112.162	13.084	1271.323	958.363
113.176	13.166	1270.240	957.934
114.191	13.122	1269.392	956.955
115.206	13.188	1268.322	956.447
116.220	13.118	1267.000	954.962
117.235	13.145	1266.098	954.352
118.249	13.097	1264.956	953.129
119.264	13.119	1264.137	952.557
120.279	13.100	1263.160	951.626
121.293	13.060	1262.103	950.513
122.308	13.056	1261.013	949.588
123.322	13.048	1259.774	948.522
124.337	13.088	1258.950	948.047
125.352	13.049	1257.973	947.008
126.366	13.058	1256.748	946.053
127.381	13.045	1255.675	945.085
128.395	12.967	1254.893	943.969
129.410	13.113	1253.525	943.686
130.424	13.040	1253.489	943.158
131.439	13.152	1251.942	942.551
132.454	13.117	1251.088	941.628
133.468	13.086	1249.959	940.517
134.483	13.201	1249.566	940.793
135.497	13.179	1248.189	939.549
136.512	13.196	1247.051	938.703
137.527	13.192	1245.966	937.782
138.541	13.133	1244.448	936.221
139.556	13.164	1243.264	935.423
140.570	13.333	1241.826	935.218
141.585	13.211	1241.103	933.898
142.600	13.253	1239.744	933.027
143.614	13.369	1238.809	932.898
144.629	13.353	1238.024	932.135
145.643	13.281	1236.944	930.831
146.658	13.288	1235.562	929.749
147.673	13.241	1234.182	928.365
148.687	13.228	1232.884	927.235
149.702	13.238	1231.518	926.178
150.716	13.166	1229.997	924.550
151.731	13.209	1228.993	923.958
152.746	13.249	1227.714	923.138
153.760	13.273	1226.692	922.421
154.775	13.275	1225.956	921.798
155.789	13.422	1224.469	921.416
156.804	13.340	1223.732	920.323
157.819	13.342	1222.699	919.476
158.833	13.429	1221.975	919.332
159.848	13.493	1220.672	918.627
160.862	13.532	1219.845	918.138
161.877	13.460	1218.696	916.794
162.892	13.383	1217.106	915.092
163.906	13.353	1216.986	914.755
164.921	13.318	1215.976	913.719
165.935	13.476	1215.073	913.834
166.950	13.441	1214.402	913.055
167.964	13.384	1213.757	912.173
168.979	13.431	1213.037	911.812
169.994	13.483	1212.199	911.390
171.008	13.472	1211.134	910.445
172.023	13.426	1210.521	909.649
173.037	13.455	1209.908	909.267
174.052	13.551	1209.073	909.088
175.067	13.513	1207.684	907.756
176.081	13.488	1206.903	906.952
177.096	13.410	1206.073	905.820
178.110	13.396	1204.895	904.780
179.125	13.489	1203.577	904.219
180.140	13.540	1202.410	903.540
181.154	13.571	1201.094	902.638
182.169	13.559	1200.228	901.842
183.183	13.595	1198.663	900.783
184.198	13.680	1197.849	900.556
185.213	13.648	1196.938	899.615
186.227	13.683	1195.827	898.891
187.242	13.676	1195.118	898.240
188.256	13.734	1193.681	897.393
189.271	13.760	1192.474	896.550
190.286	13.696	1191.823	895.631
191.300	13.504	1191.154	894.017
192.315	13.511	1190.388	893.398
193.329	13.533	1189.831	893.020
194.344	13.572	1189.007	892.535
195.359	13.636	1188.472	892.399
196.373	13.613	1188.135	891.943
197.388	13.779	1187.570	892.328
198.402	13.886	1187.231	892.573
199.417	13.764	1186.685	891.428
200.432	13.864	1185.470	890.975
201.446	13.977	1185.010	891.152
202.461	13.947	1184.043	890.188
203.475	14.075	1182.767	889.833
204.490	13.909	1181.659	888.034
205.504	13.872	1180.850	887.151
206.519	13.887	1179.287	885.980
207.534	13.907	1177.652	884.779
208.548	13.929	1177.111	884.411
209.563	13.903	1176.566	883.786
210.577	13.915	1175.653	883.086
211.592	13.941	1174.586	882.340
212.607	14.040	1173.904	882.279
213.621	14.029	1173.015	881.475
214.636	14.052	1172.391	881.047
215.650	14.008	1171.289	879.909
216.665	13.996	1170.391	879.091
217.680	14.162	1169.530	879.246
218.694	14.116	1168.785	878.367
219.709	14.227	1167.897	878.208
220.723	14.082	1167.130	876.784
221.738	14.086	1166.648	876.369
222.753	14.190	1165.587	876.040
223.767	14.225	1164.722	875.495
224.782	14.149	1164.521	874.870
225.796	14.262	1164.047	875.028
226.811	14.348	1162.898	874.539
227.826	14.215	1162.636	873.569
228.840	14.282	1161.448	872.951
229.855	14.360	1160.318	872.431
230.869	14.175	1159.975	871.124
231.884	14.358	1158.741	871.078
232.899	14.221	1158.269	869.930
233.913	14.205	1157.765	869.394
234.928	14.214	1156.954	868.756
235.942	14.262	1155.734	868.011
236.957	14.217	1155.409	867.456
237.972	14.263	1154.700	867.084
238.986	14.252	1154.132	866.526
240.001	14.261	1153.289	865.866
241.015	14.384	1152.233	865.634
242.030	14.362	1151.756	865.082
243.045	14.305	1151.188	864.286
244.059	14.343	1150.186	863.654
245.074	14.341	1149.760	863.245
246.088	14.325	1149.022	862.532
247.103	14.553	1147.552	862.530
248.117	14.522	1147.266	862.083
249.132	14.571	1146.707	861.839
250.147	14.634	1145.869	861.455
251.161	14.684	1144.933	860.932
252.176	14.701	1144.404	860.548
253.190	14.849	1143.610	860.638
254.205	14.687	1143.483	859.630
255.220	14.812	1142.716	859.620
256.234	14.811	1142.058	859.044
257.249	14.799	1141.345	858.374
258.263	14.936	1140.558	858.407
259.278	14.905	1140.142	857.856
260.293	14.901	1139.772	857.486
261.307	14.845	1139.261	856.738
262.322	15.003	1138.012	856.531
263.336	14.924	1137.777	855.875
264.351	14.959	1137.116	855.482
265.366	15.030	1135.979	854.911
266.380	15.000	1135.686	854.465
267.395	14.979	1135.022	853.777
268.409	14.934	1134.149	852.817
269.424	14.930	1133.350	852.120
270.439	14.952	1132.856	851.785
271.453	14.911	1132.310	851.090
272.468	14.900	1131.411	850.287
273.482	14.826	1130.641	849.254
274.497	14.919	1130.153	849.283
275.512	14.840	1129.471	848.298
276.526	15.055	1128.277	848.414
277.541	15.069	1127.510	847.836
278.555	14.977	1126.788	846.751
279.570	15.180	1125.855	847.003
280.585	15.121	1125.422	846.300
281.599	15.157	1124.157	845.456
282.614	15.159	1123.193	844.666
283.628	15.114	1122.684	843.982
284.643	15.111	1121.687	843.143
285.657	15.159	1120.550	842.454
286.672	15.210	1119.820	842.092
287.687	15.221	1118.982	841.438
288.701	15.172	1118.455	840.721
289.716	15.307	1117.262	840.428
290.730	15.282	1116.710	839.816
291.745	15.196	1116.341	839.030
292.760	15.303	1115.478	838.843
293.774	15.248	1115.230	838.307
294.789	15.269	1114.850	838.055
295.803	15.370	1113.550	837.504
296.818	15.287	1113.243	836.788
297.833	15.166	1112.405	835.479
298.847	15.368	1111.459	835.699
299.862	15.384	1110.692	835.131
300.876	15.463	1110.008	834.935
301.891	15.480	1109.313	834.426
302.906	15.453	1108.668	833.728
303.920	15.482	1108.317	833.538
304.935	15.419	1107.799	832.761
305.949	15.490	1106.856	832.328
306.964	15.473	1106.395	831.827
307.979	15.542	1105.645	831.527
308.993	15.509	1105.043	830.842
310.008	15.619	1104.152	830.641
311.022	15.610	1103.663	830.155
312.037	15.570	1102.378	828.916
313.052	15.538	1101.823	828.267
314.066	15.568	1100.533	827.373
315.081	15.616	1099.604	826.839
316.095	15.585	1098.709	825.942
317.110	15.627	1098.223	825.707
318.125	15.488	1097.890	824.701
319.139	15.510	1096.961	824.039
320.154	15.659	1095.964	823.945
321.168	15.593	1095.718	823.364
322.183	15.542	1095.377	822.789
323.197	15.686	1094.755	822.951
324.212	15.688	1094.261	822.517
325.227	15.637	1093.523	821.642
326.241	15.700	1092.756	821.298
327.256	15.707	1091.775	820.524
328.270	15.632	1091.124	819.596
329.285	15.656	1090.272	819.002
330.300	15.732	1088.896	818.264
331.314	15.704	1087.944	817.338
332.329	15.747	1087.376	817.047
333.343	15.867	1086.332	816.773
334.358	15.786	1085.795	815.906
335.373	15.828	1085.267	815.639
336.387	15.820	1084.508	814.959
337.402	15.913	1083.519	814.594
338.416	15.826	1083.122	813.804
339.431	15.836	1082.626	813.406
340.446	16.001	1081.859	813.556
341.460	16.062	1081.185	813.269
342.475	15.998	1080.295	812.221
343.489	16.128	1079.577	812.237
344.504	16.115	1078.366	811.188
345.519	16.149	1077.781	810.839
346.533	16.067	1077.080	809.850
347.548	16.171	1076.071	809.518
348.562	16.184	1075.420	809.020
349.577	16.058	1074.846	807.910
350.592	16.184	1073.975	807.790
351.606	15.977	1073.561	806.413
352.621	16.028	1072.366	805.688
353.635	16.065	1071.727	805.312
354.650	16.048	1071.371	804.895
355.665	16.139	1070.565	804.650
356.679	16.168	1070.093	804.364
357.694	16.139	1069.407	803.639
358.708	16.270	1068.537	803.540
359.723	16.108	1068.353	802.556
360.738	16.126	1067.572	801.986
361.752	16.262	1067.032	802.153
362.767	16.222	1066.459	801.462
363.781	16.224	1065.971	801.038
364.796	16.236	1065.607	800.749
365.810	16.363	1064.629	800.546
366.825	16.386	1064.060	800.153
367.840	16.546	1063.442	800.378
368.854	16.530	1062.673	799.652
369.869	16.572	1061.835	799.146
370.883	16.448	1061.250	798.049
371.898	16.466	1060.714	797.661
372.913	16.447	1060.194	797.113
373.927	16.431	1059.555	796.485
374.942	16.537	1058.906	796.427
375.956	16.539	1058.637	796.161
376.971	16.523	1057.989	795.528
377.986	16.521	1057.519	795.097
379.000	16.551	1057.045	794.811
380.015	16.664	1055.971	794.461
381.029	16.703	1055.464	794.197
382.044	16.675	1054.884	793.556
383.059	16.814	1053.959	793.442
384.073	16.695	1053.668	792.594
385.088	16.785	1052.530	792.090
386.102	16.665	1051.675	790.814
387.117	16.732	1050.439	790.127
388.132	16.850	1049.468	789.880
389.146	16.750	1048.885	788.904
390.161	16.542	1048.729	787.746
391.175	16.716	1047.556	787.606
392.190	16.723	1047.053	787.191
393.205	16.740	1046.305	786.639
394.219	16.803	1045.705	786.408
395.234	16.705	1044.701	785.132
396.248	16.720	1043.836	784.481
397.263	16.744	1042.865	783.793
398.278	16.768	1042.529	783.584
399.292	16.688	1041.757	782.562
400.307	16.687	1041.088	781.987
401.321	16.712	1040.556	781.634
402.336	16.729	1039.612	780.933
403.350	16.838	1038.711	780.691
404.365	16.883	1038.085	780.358
405.380	16.736	1037.670	779.299
406.394	16.861	1036.848	779.188
407.409	16.901	1035.949	778.626
408.423	17.019	1035.347	778.648
409.438	17.042	1034.768	778.247
410.453	16.928	1034.074	777.134
411.467	16.996	1033.613	777.031
412.482	17.102	1033.011	776.993
413.496	17.228	1031.872	776.644
414.511	17.159	1031.247	775.793
415.526	17.241	1031.158	776.032
416.540	17.284	1030.444	775.619
417.555	17.293	1029.967	775.235
418.569	17.247	1029.630	774.700
419.584	17.227	1029.022	774.085
420.599	17.326	1028.202	773.849
421.613	102.619	1319.990	1463.895
422.628	93.852	1362.499	1463.987
