DTS Sentinel unit serial number:	SN413079Multiplexer serial number:	ORYXHardware model number:	OX4-SRSoftware version number:	ORYX F/W v4.00 Oryx Data Collector v3.7.2.0data status	okinstallation	princeton_trtdifferential loss correction	single-endedforward channel	channel 2reverse channel	N/Adate	2019/09/15time	03:59:35forward acquisition time	60.00reverse acquisition time	0.00gamma	496.2192k internal	0.2325k external	0.2325temperature offset calibration	1.0029default loss term (dB/km)	0.3790temperature slope calibration	1.0000multiplexer offset coefficient	1.0000multiplexer slope coefficient	1.0000fibre end	0.00T internal ref (°C)	30.94T ext. ref 1 (°C)	4.61T ext. ref 2 (°C)	25.87length (m)	temperature (°C)	Stokes	anti-Stokes-747.200	531.895	0.072	0.172
-746.185	-73.986	-0.463	0.169
-745.171	-11.969	0.087	0.057
-744.156	-81.773	-0.151	0.050
-743.142	-92.834	0.116	0.033
-742.127	127.797	-0.179	0.229
-741.112	-58.854	-0.188	-0.082
-740.098	-81.835	-0.232	-0.077
-739.083	791.461	-0.057	0.158
-738.069	-200.000	0.049	0.248
-737.054	475.460	0.038	0.086
-736.039	293.365	0.040	-0.073
-735.025	-186.502	0.228	-0.003
-734.010	800.000	-0.080	-0.225
-732.996	105.694	0.088	-0.105
-731.981	-26.664	0.300	0.177
-730.966	675.789	-0.061	-0.160
-729.952	138.299	-0.089	-0.118
-728.937	-200.000	-0.049	-0.231
-727.923	195.472	-0.276	-0.423
-726.908	13.075	-0.247	0.193
-725.894	28.032	-0.314	-0.267
-724.879	-0.714	-0.128	0.091
-723.864	174.571	0.178	0.260
-722.850	0.139	-0.141	0.101
-721.835	-148.145	-0.197	0.016
-720.821	462.284	-0.075	-0.168
-719.806	-84.696	-0.098	-0.031
-718.791	-45.883	0.375	-0.186
-717.777	800.000	-0.034	-0.096
-716.762	36.679	0.164	-0.146
-715.748	220.908	-0.076	-0.123
-714.733	133.900	-0.094	-0.123
-713.718	-61.127	-0.356	-0.151
-712.704	-38.628	0.247	0.131
-711.689	45.335	-0.274	-0.255
-710.675	-178.453	0.102	-0.002
-709.660	62.865	0.121	0.122
-708.645	-179.906	-0.359	-0.008
-707.631	100.827	0.155	0.181
-706.616	-28.634	-0.205	-0.119
-705.602	498.132	0.118	-0.275
-704.587	124.740	0.073	0.093
-703.572	481.672	-0.075	-0.172
-702.558	-136.903	0.271	0.031
-701.543	102.575	0.106	-0.124
-700.529	-26.287	0.229	0.136
-699.514	-200.000	0.038	0.000
-698.499	-77.493	0.129	-0.045
-697.485	180.247	0.247	-0.365
-696.470	-116.685	-0.158	0.029
-695.456	800.000	-0.031	0.094
-694.441	-200.000	-0.035	-0.338
-693.426	-200.000	-0.012	0.119
-692.412	39.547	0.332	0.299
-691.397	-200.000	-0.008	0.351
-690.383	-79.674	-0.380	0.129
-689.368	-38.803	0.128	0.068
-688.354	-200.000	-0.079	0.412
-687.339	-191.167	0.208	-0.002
-686.324	-200.000	-0.036	0.247
-685.310	-105.994	-0.300	-0.068
-684.295	-44.593	-0.137	-0.069
-683.281	259.769	0.212	0.369
-682.266	78.346	-0.080	0.086
-681.251	-83.282	-0.160	-0.052
-680.237	800.000	-0.074	-0.244
-679.222	37.428	0.050	-0.044
-678.208	-13.268	-0.252	0.165
-677.193	465.203	-0.081	-0.183
-676.178	67.286	-0.237	0.243
-675.164	73.790	-0.217	-0.229
-674.149	45.874	0.190	0.177
-673.135	-113.848	-0.275	0.054
-672.120	800.000	-0.049	0.173
-671.105	-83.847	0.294	-0.094
-670.091	-200.000	0.021	-0.268
-669.076	-200.000	-0.002	-0.147
-668.062	-200.000	-0.020	-0.171
-667.047	-5.598	-0.207	-0.143
-666.032	640.177	-0.074	0.189
-665.018	800.000	0.067	0.219
-664.003	800.000	0.024	-0.076
-662.989	-200.000	0.005	-0.238
-661.974	394.201	0.156	0.327
-660.959	-200.000	0.054	-0.331
-659.945	60.484	0.091	0.091
-658.930	-200.000	-0.001	-0.335
-657.916	-117.343	0.065	-0.012
-656.901	-82.528	-0.124	-0.040
-655.886	800.000	0.091	0.297
-654.872	261.843	0.019	0.033
-653.857	-112.857	0.181	0.036
-652.843	26.141	-0.329	0.276
-651.828	-200.000	0.047	-0.414
-650.814	-200.000	0.005	0.152
-649.799	148.495	0.016	0.022
-648.784	-18.226	-0.147	-0.092
-647.770	-54.363	0.167	-0.076
-646.755	-59.297	-0.040	-0.017
-645.741	-111.116	0.303	-0.062
-644.726	-90.897	-0.126	0.036
-643.711	447.139	0.155	-0.342
-642.697	8.090	-0.216	-0.163
-641.682	-187.965	-0.307	0.004
-640.668	496.435	-0.090	0.208
-639.653	-200.000	0.005	0.025
-638.638	109.470	0.246	-0.296
-637.624	-39.482	0.034	0.018
-636.609	-141.708	0.137	0.014
-635.595	187.263	0.120	0.180
-634.580	-154.242	-0.246	0.017
-633.565	98.168	0.101	0.117
-632.551	800.000	0.055	-0.236
-631.536	37.925	-0.260	0.233
-630.522	-144.715	-0.285	-0.026
-629.507	-200.000	0.142	-0.000
-628.492	-44.480	-0.228	-0.114
-627.478	-66.551	0.044	-0.018
-626.463	-172.321	0.358	0.011
-625.449	-200.000	-0.019	-0.086
-624.434	-145.034	0.330	0.030
-623.419	36.539	-0.117	0.104
-622.405	-7.839	0.154	0.104
-621.390	8.183	-0.178	-0.134
-620.376	-40.629	0.191	-0.100
-619.361	27.981	0.099	0.084
-618.346	-91.433	-0.345	0.099
-617.332	-86.331	0.251	-0.078
-616.317	-5.341	-0.231	0.159
-615.303	-200.000	0.051	0.277
-614.288	27.099	0.168	0.142
-613.273	-82.458	-0.323	0.105
-612.259	-107.062	-0.241	0.053
-611.244	230.935	-0.240	0.394
-610.230	-88.678	0.242	0.072
-609.215	181.646	0.107	-0.158
-608.201	693.498	0.031	0.082
-607.186	-120.896	0.187	-0.032
-606.171	-200.000	-0.001	0.038
-605.157	-200.000	-0.017	-0.218
-604.142	-152.416	-0.149	0.011
-603.128	138.593	-0.127	0.168
-602.113	34.128	0.233	-0.204
-601.098	800.000	-0.081	-0.324
-600.084	-32.390	-0.224	-0.126
-599.069	-155.339	0.249	-0.016
-598.055	-20.918	-0.030	-0.018
-597.040	-22.011	0.061	-0.037
-596.025	231.393	0.096	0.158
-595.011	800.000	0.054	0.209
-593.996	90.316	0.102	0.114
-592.982	800.000	-0.039	-0.146
-591.967	-148.126	0.047	0.004
-590.952	-71.734	-0.367	-0.137
-589.938	688.673	-0.094	-0.247
-588.923	104.380	-0.180	-0.212
-587.909	747.899	0.086	0.233
-586.894	-48.748	0.260	-0.125
-585.879	15.101	0.303	0.238
-584.865	651.665	-0.093	0.239
-583.850	-126.729	0.144	0.021
-582.836	-64.141	-0.170	-0.069
-581.821	-175.220	-0.250	-0.007
-580.806	32.907	0.047	0.041
-579.792	109.176	0.073	0.087
-578.777	-110.416	0.533	0.111
-577.763	-102.636	0.268	-0.064
-576.748	800.000	-0.020	0.083
-575.733	-113.849	-0.624	-0.122
-574.719	-200.000	-0.044	0.410
-573.704	800.000	0.039	0.130
-572.690	-80.109	0.136	0.046
-571.675	-81.220	0.215	0.071
-570.661	-200.000	0.010	0.471
-569.646	326.792	0.167	-0.321
-568.631	-29.110	-0.093	-0.053
-567.617	800.000	-0.010	0.038
-566.602	-75.856	0.124	0.044
-565.588	-138.214	-0.041	0.005
-564.573	100.064	-0.088	0.102
-563.558	439.801	-0.075	-0.163
-562.544	95.642	-0.024	-0.028
-561.529	-200.000	-0.024	-0.365
-560.515	-200.000	0.049	-0.221
-559.500	-2.896	0.369	-0.258
-558.485	-200.000	-0.029	-0.234
-557.471	-200.000	-0.012	0.152
-556.456	800.000	0.026	0.092
-555.442	-200.000	0.014	0.082
-554.427	800.000	0.062	0.214
-553.412	-108.546	-0.088	-0.019
-552.398	358.339	-0.103	-0.206
-551.383	-64.506	0.281	-0.114
-550.369	224.584	-0.131	0.213
-549.354	-200.000	-0.026	0.178
-548.339	-141.234	-0.080	-0.008
-547.325	-15.710	0.253	-0.162
-546.310	363.952	0.078	0.156
-545.296	800.000	-0.040	-0.144
-544.281	-19.735	0.123	0.076
-543.266	39.825	0.194	0.174
-542.252	470.554	-0.101	0.227
-541.237	103.796	0.231	-0.272
-540.223	-200.000	-0.073	-0.406
-539.208	292.518	0.064	0.117
-538.193	-16.321	-0.286	0.182
-537.179	-200.000	0.038	0.255
-536.164	-32.114	0.043	0.024
-535.150	-54.747	-0.055	-0.025
-534.135	634.014	-0.028	-0.072
-533.121	86.604	0.043	-0.047
-532.106	61.014	-0.125	0.124
-531.091	-151.914	0.182	-0.013
-530.077	-92.433	-0.394	0.111
-529.062	-79.280	-0.250	0.085
-528.048	-100.154	-0.148	0.037
-527.033	800.000	0.058	-0.199
-526.018	-153.014	-0.071	0.005
-525.004	-200.000	0.033	-0.221
-523.989	-33.952	0.302	0.167
-522.975	83.120	0.114	0.124
-521.960	-200.000	-0.021	-0.264
-520.945	60.220	0.058	0.057
-519.931	-10.486	-0.083	-0.055
-518.916	800.000	0.078	-0.240
-517.902	-200.000	-0.015	0.107
-516.887	-200.000	0.002	-0.218
-515.872	-200.000	-0.002	-0.016
-514.858	238.633	-0.212	-0.353
-513.843	-90.678	0.097	-0.028
-512.829	25.811	0.141	0.117
-511.814	-131.836	0.155	0.020
-510.799	739.358	0.019	-0.050
-509.785	-56.495	-0.214	0.095
-508.770	-200.000	-0.012	0.133
-507.756	51.869	-0.210	-0.200
-506.741	651.767	-0.016	-0.041
-505.726	283.892	0.039	0.070
-504.712	-35.930	0.066	-0.036
-503.697	509.095	-0.112	0.260
-502.683	-25.403	-0.349	0.206
-501.668	411.084	0.100	0.211
-500.653	407.788	-0.143	0.302
-499.639	-37.634	-0.450	0.239
-498.624	-168.614	0.646	0.025
-497.610	418.606	-0.065	0.138
-496.595	-200.000	-0.002	0.113
-495.581	66.920	-0.147	-0.150
-494.566	800.000	-0.063	-0.273
-493.551	-169.876	-0.307	-0.011
-492.537	800.000	-0.080	0.252
-491.522	-38.271	0.150	0.079
-490.508	552.094	-0.068	-0.164
-489.493	800.000	0.039	0.124
-488.478	-48.171	-0.102	-0.049
-487.464	-200.000	0.001	0.150
-486.449	54.464	-0.201	0.193
-485.435	91.175	0.108	-0.121
-484.420	-35.790	-0.195	0.105
-483.405	-12.063	0.220	-0.144
-482.391	-53.573	0.440	0.201
-481.376	0.437	-0.126	0.090
-480.362	800.000	-0.045	-0.136
-479.347	-156.017	-0.127	-0.008
-478.332	29.675	0.033	-0.028
-477.318	424.905	-0.044	0.096
-476.303	592.367	0.103	-0.255
-475.289	-140.742	0.214	0.022
-474.274	142.812	0.088	0.117
-473.259	197.590	-0.089	-0.136
-472.245	188.399	0.063	0.093
-471.230	-200.000	-0.026	-0.334
-470.216	-109.961	0.139	0.029
-469.201	-4.637	-0.135	0.093
-468.186	27.477	-0.324	-0.272
-467.172	-35.147	0.016	0.009
-466.157	58.997	0.212	-0.208
-465.143	-33.458	-0.235	-0.130
-464.128	21.133	0.181	-0.147
-463.113	204.881	0.119	-0.184
-462.099	9.041	-0.179	0.135
-461.084	60.265	-0.097	-0.096
-460.070	71.756	-0.064	-0.067
-459.055	800.000	-0.039	0.138
-458.040	26.305	0.030	0.025
-457.026	93.512	-0.153	0.172
-456.011	-200.000	0.046	0.247
-454.997	83.850	0.290	0.315
-453.982	-35.451	-0.187	0.101
-452.968	26.138	0.136	0.114
-451.953	598.258	-0.121	-0.300
-450.938	-9.450	-0.031	0.020
-449.924	568.049	0.028	-0.068
-448.909	-132.908	0.337	-0.043
-447.895	176.332	0.147	-0.213
-446.880	-125.513	0.011	-0.002
-445.865	-200.000	-0.019	0.209
-444.851	-21.791	0.170	-0.103
-443.836	-200.000	0.033	-0.497
-442.822	-123.395	-0.340	0.054
-441.807	18.013	0.236	0.188
-440.792	-122.131	-0.098	-0.016
-439.778	-164.902	-0.068	-0.003
-438.763	129.874	-0.181	0.231
-437.749	263.672	-0.023	-0.040
-436.734	800.000	0.108	-0.318
-435.719	-19.319	-0.300	0.185
-434.705	258.177	-0.097	-0.167
-433.690	-76.970	0.083	-0.029
-432.676	26.396	-0.241	-0.201
-431.661	800.000	0.030	0.112
-430.646	-16.561	-0.196	-0.124
-429.632	640.106	-0.117	-0.296
-428.617	-200.000	0.062	0.295
-427.603	800.000	0.048	0.178
-426.588	-127.878	-0.373	-0.053
-425.573	386.838	-0.040	0.082
-424.559	610.823	0.147	0.367
-423.544	607.277	-0.024	0.059
-422.530	515.840	-0.121	-0.282
-421.515	-85.997	-0.127	0.039
-420.500	229.787	-0.153	-0.249
-419.486	81.069	-0.377	0.406
-418.471	535.822	-0.098	-0.231
-417.457	-118.327	0.060	0.011
-416.442	272.709	-0.114	-0.200
-415.428	128.442	0.129	-0.164
-414.413	-40.470	-0.217	-0.112
-413.398	271.061	0.229	0.401
-412.384	-200.000	-0.002	0.175
-411.369	-2.774	-0.008	-0.006
-410.355	800.000	-0.093	0.278
-409.340	106.700	0.080	-0.094
-408.325	-82.438	0.090	-0.029
-407.311	198.732	-0.036	0.055
-406.296	384.336	-0.029	-0.059
-405.282	-200.000	0.031	0.230
-404.267	35.812	0.040	-0.035
-403.252	679.844	-0.063	0.164
-402.238	15.709	-0.072	-0.056
-401.223	-200.000	0.012	-0.324
-400.209	800.000	0.054	-0.181
-399.194	185.874	-0.265	0.392
-398.179	-37.060	-0.266	-0.142
-397.165	0.108	-0.268	0.190
-396.150	800.000	-0.040	0.112
-395.136	-200.000	0.196	0.001
-394.121	-71.666	-0.106	0.039
-393.106	800.000	0.022	-0.073
-392.092	141.454	-0.018	0.024
-391.077	245.525	-0.144	0.241
-390.063	-200.000	0.043	0.188
-389.048	-190.675	-0.216	0.002
-388.033	-200.000	0.004	0.204
-387.019	-47.536	-0.212	0.102
-386.004	274.311	0.243	-0.428
-384.990	-91.905	-0.082	-0.023
-383.975	5.491	-0.039	-0.029
-382.960	800.000	0.037	-0.129
-381.946	35.493	0.173	-0.151
-380.931	-75.430	-0.266	0.094
-379.917	-173.114	0.038	0.001
-378.902	-86.675	0.122	-0.037
-377.888	-200.000	-0.047	-0.284
-376.873	232.959	0.120	0.196
-375.858	-85.838	-0.122	0.038
-374.844	694.335	0.023	-0.060
-373.829	569.720	-0.098	0.236
-372.815	-200.000	0.014	0.252
-371.800	-67.727	-0.046	0.018
-370.785	50.818	-0.107	-0.101
-369.771	800.000	0.093	0.268
-368.756	800.000	0.105	-0.334
-367.742	-94.308	0.038	0.010
-366.727	-131.607	-0.186	-0.024
-365.712	136.491	0.132	-0.171
-364.698	-52.880	0.121	-0.055
-363.683	-118.046	0.050	-0.009
-362.669	-200.000	-0.004	0.040
-361.654	-70.232	-0.066	0.025
-360.639	-94.316	0.123	-0.033
-359.625	-13.515	-0.138	-0.089
-358.610	-107.572	-0.157	-0.034
-357.596	-200.000	-0.008	-0.137
-356.581	-200.000	0.044	-0.361
-355.566	-172.938	-0.338	-0.010
-354.552	-140.852	0.268	0.027
-353.537	-0.595	0.136	-0.096
-352.523	265.973	-0.035	0.060
-351.508	-67.675	0.213	-0.083
-350.493	-123.198	-0.133	0.021
-349.479	53.372	0.070	0.067
-348.464	102.539	-0.172	0.200
-347.450	-67.787	-0.309	-0.120
-346.435	-54.433	-0.182	-0.082
-345.420	800.000	0.065	0.237
-344.406	-38.142	-0.269	-0.142
-343.391	-54.553	0.435	-0.196
-342.377	222.497	-0.126	-0.202
-341.362	9.680	-0.253	-0.190
-340.348	38.838	0.196	0.174
-339.333	-90.708	0.087	-0.025
-338.318	-200.000	0.006	0.075
-337.304	241.834	0.290	-0.481
-336.289	406.604	-0.182	0.381
-335.275	714.483	0.095	-0.249
-334.260	191.485	0.226	-0.337
-333.245	-200.000	-0.060	0.309
-332.231	800.000	-0.042	-0.133
-331.216	35.788	-0.061	-0.053
-330.202	401.649	-0.157	-0.326
-329.187	87.767	0.246	0.270
-328.172	332.588	0.113	-0.216
-327.158	-200.000	-0.034	-0.224
-326.143	-86.035	-0.028	0.009
-325.129	160.363	0.214	-0.296
-324.114	65.834	-0.267	0.269
-323.099	365.922	0.061	-0.123
-322.085	-200.000	0.044	-0.326
-321.070	-106.566	0.424	-0.094
-320.056	-76.821	0.067	-0.023
-319.041	-127.618	-0.083	-0.012
-318.026	-158.187	-0.058	-0.003
-317.012	-200.000	0.017	0.130
-315.997	-128.114	0.424	0.060
-314.983	-153.995	0.464	-0.031
-313.968	71.567	-0.249	-0.256
-312.953	80.787	-0.067	-0.072
-311.939	800.000	0.110	0.326
-310.924	61.072	-0.095	0.094
-309.910	754.400	-0.045	-0.121
-308.895	800.000	-0.039	0.119
-307.880	196.190	-0.142	-0.214
-306.866	800.000	0.045	-0.196
-305.851	-200.000	-0.002	-0.340
-304.837	-117.746	0.147	-0.026
-303.822	-107.846	-0.186	0.040
-302.807	-37.024	0.072	0.038
-301.793	742.536	0.060	0.161
-300.778	2.660	-0.121	0.087
-299.764	-59.796	0.258	-0.110
-298.749	629.094	0.083	0.207
-297.735	800.000	-0.031	0.125
-296.720	-60.923	0.395	0.166
-295.705	800.000	0.157	0.440
-294.691	50.258	0.188	-0.176
-293.676	71.733	-0.132	0.136
-292.662	-89.152	-0.190	-0.056
-291.647	800.000	0.023	0.087
-290.632	-100.241	-0.262	-0.065
-289.618	-200.000	0.050	0.000
-288.603	-19.191	0.242	-0.149
-287.589	-200.000	-0.041	0.318
-286.574	9.350	0.125	0.094
-285.559	37.132	-0.198	-0.174
-284.545	-87.465	0.399	0.120
-283.530	-200.000	0.025	0.126
-282.516	-153.913	-0.263	0.018
-281.501	-117.157	-0.316	-0.057
-280.486	626.127	-0.130	0.325
-279.472	28.329	0.244	-0.204
-278.457	-148.854	-0.198	0.016
-277.443	120.325	0.055	0.067
-276.428	4.597	-0.245	-0.178
-275.413	-52.759	-0.102	-0.047
-274.399	-125.566	0.385	-0.058
-273.384	-200.000	-0.031	0.235
-272.370	-64.657	-0.289	-0.116
-271.355	-91.546	0.249	0.070
-270.340	-92.452	0.082	0.023
-269.326	-200.000	0.016	0.174
-268.311	503.944	-0.075	0.172
-267.297	-146.344	0.117	-0.010
-266.282	800.000	0.052	0.221
-265.267	-200.000	0.022	-0.097
-264.253	-1.493	0.095	0.066
-263.238	-200.000	-0.037	-0.473
-262.224	-13.827	-0.114	-0.073
-261.209	-128.724	0.388	-0.054
-260.195	-113.666	0.152	-0.029
-259.180	-148.708	0.331	0.027
-258.165	-58.008	0.250	0.108
-257.151	10.857	-0.258	-0.195
-256.136	-200.000	0.041	0.200
-255.122	-153.892	-0.036	0.002
-254.107	-10.060	0.029	0.019
-253.092	-200.000	-0.002	0.240
-252.078	800.000	0.046	0.195
-251.063	-140.473	-0.168	-0.017
-250.049	543.614	0.058	0.137
-249.034	189.411	-0.156	0.232
-248.019	800.000	-0.009	0.035
-247.005	-127.775	-0.171	-0.024
-245.990	-200.000	-0.026	0.390
-244.976	800.000	0.036	0.125
-243.961	602.697	0.051	0.126
-242.946	-200.000	-0.267	0.001
-241.932	-140.951	0.133	0.013
-240.917	-164.344	0.306	-0.014
-239.903	49.755	-0.102	-0.095
-238.888	-36.907	0.312	-0.165
-237.873	13.322	0.266	0.204
-236.859	31.328	0.203	0.173
-235.844	223.546	-0.066	-0.106
-234.830	-143.400	-0.250	0.024
-233.815	31.095	-0.301	-0.255
-232.800	87.281	-0.037	0.040
-231.786	-200.000	-0.024	-0.126
-230.771	148.132	0.084	0.112
-229.757	234.506	-0.129	0.210
-228.742	-200.000	-0.054	0.249
-227.727	513.782	0.169	0.390
-226.713	-8.235	-0.254	-0.169
-225.698	88.432	0.124	0.137
-224.684	800.000	0.052	-0.148
-223.669	35.331	-0.071	-0.061
-222.655	-142.369	0.293	0.029
-221.640	-118.951	0.203	-0.035
-220.625	-15.079	-0.372	0.236
-219.611	500.245	-0.067	0.152
-218.596	26.133	-0.297	0.245
-217.582	-200.000	0.051	-0.320
-216.567	800.000	-0.076	-0.249
-215.552	141.571	0.275	-0.360
-214.538	-104.681	0.334	0.076
-213.523	-52.229	0.105	-0.048
-212.509	-200.000	0.048	-0.210
-211.494	159.250	-0.157	0.216
-210.479	10.845	-0.175	-0.132
-209.465	59.501	-0.119	0.116
-208.450	251.062	0.096	0.161
-207.436	800.000	0.087	0.258
-206.421	-158.491	0.142	-0.008
-205.406	-20.758	0.255	-0.155
-204.392	-159.739	0.238	0.013
-203.377	-17.521	0.066	-0.041
-202.363	-112.491	-0.140	0.028
-201.348	-187.493	-0.223	0.003
-200.333	33.307	-0.328	0.282
-199.319	-90.153	0.228	0.065
-198.304	800.000	0.008	0.023
-197.290	101.236	0.218	-0.250
-196.275	59.194	0.097	0.095
-195.260	-72.256	-0.070	0.026
-194.246	191.321	0.038	-0.057
-193.231	-61.663	-0.374	-0.155
-192.217	37.467	0.256	0.224
-191.202	91.255	-0.136	0.150
-190.187	-41.496	-0.052	0.026
-189.173	-200.000	0.007	0.037
-188.158	-89.866	-0.055	0.016
-187.144	-138.324	-0.401	0.044
-186.129	-51.839	-0.085	0.039
-185.114	2.248	0.040	0.028
-184.100	138.449	0.206	0.267
-183.085	241.562	0.142	0.234
-182.071	1.573	0.095	0.067
-181.056	689.781	-0.101	-0.261
-180.042	800.000	-0.050	-0.160
-179.027	-172.974	-0.239	-0.007
-178.012	176.727	0.125	0.179
-176.998	347.765	-0.118	-0.229
-175.983	-200.000	-0.081	-0.398
-174.969	42.770	0.422	-0.379
-173.954	256.821	0.145	-0.245
-172.939	-95.587	-0.044	0.012
-171.925	-101.139	0.025	0.006
-170.910	328.672	0.055	-0.104
-169.896	-20.036	-0.067	-0.041
-168.881	-38.025	0.292	-0.153
-167.866	-200.000	-0.038	-0.374
-166.852	-76.987	-0.177	-0.061
-165.837	-91.349	0.287	-0.081
-164.823	53.584	0.085	0.080
-163.808	-200.000	-0.012	0.337
-162.793	79.928	0.101	-0.107
-161.779	-91.796	0.047	-0.013
-160.764	-200.000	-0.011	-0.114
-159.750	57.241	-0.106	-0.102
-158.735	2.570	-0.131	0.093
-157.720	-142.200	-0.315	-0.031
-156.706	297.276	0.206	-0.372
-155.691	-186.271	-0.265	-0.004
-154.677	-122.319	-0.045	0.007
-153.662	146.168	-0.133	-0.176
-152.647	95.724	0.136	-0.153
-151.633	10.636	0.228	0.171
-150.618	-42.874	-0.117	0.059
-149.604	182.460	0.049	-0.072
-148.589	-154.835	0.298	0.019
-147.574	-72.191	0.153	0.056
-146.560	-200.000	-0.009	0.200
-145.545	-200.000	0.042	0.501
-144.531	114.879	-0.121	0.145
-143.516	-139.193	0.037	-0.004
-142.502	-200.000	0.016	0.123
-141.487	800.000	0.036	0.142
-140.472	-200.000	-0.070	0.414
-139.458	-200.000	-0.063	-0.299
-138.443	-11.492	0.148	-0.096
-137.429	-200.000	-0.042	-0.309
-136.414	-60.734	0.152	-0.064
-135.399	76.793	0.250	0.261
-134.385	800.000	-0.064	-0.223
-133.370	-200.000	-0.051	0.320
-132.356	-100.324	-0.228	-0.056
-131.341	-14.131	0.185	-0.118
-130.326	18.508	0.161	-0.127
-129.312	-74.840	-0.158	-0.056
-128.297	-200.000	-0.027	0.186
-127.283	367.584	0.068	0.135
-126.268	64.707	-0.223	0.222
-125.253	800.000	0.191	0.579
-124.239	111.078	-0.197	0.234
-123.224	-200.000	0.039	0.172
-122.210	-16.628	-0.164	-0.102
-121.195	-22.749	-0.308	0.183
-120.180	43.329	0.209	0.188
-119.166	-147.124	0.326	-0.027
-118.151	252.708	0.096	-0.161
-117.137	-200.000	0.023	-0.107
-116.122	24.045	0.170	0.138
-115.107	-200.000	0.017	0.208
-114.093	-1.761	-0.072	-0.050
-113.078	391.707	0.182	0.372
-112.064	-24.293	-0.191	-0.112
-111.049	-97.389	0.553	0.142
-110.034	800.000	0.074	0.298
-109.020	-32.510	0.360	0.197
-108.005	429.793	0.046	-0.099
-106.991	-146.160	-0.263	0.023
-105.976	-93.588	-0.381	0.104
-104.962	-15.886	-0.320	0.201
-103.947	-132.305	-0.154	-0.020
-102.932	62.044	0.095	-0.093
-101.918	266.822	-0.116	0.199
-100.903	-200.000	0.217	-0.001
-99.889	800.000	0.054	-0.225
-98.874	81.102	-0.141	-0.150
-97.859	-200.000	0.019	-0.198
-96.845	435.512	0.115	0.245
-95.830	101.457	0.152	0.174
-94.816	32.638	0.164	-0.140
-93.801	-200.000	0.036	0.309
-92.786	-200.000	-0.065	0.398
-91.772	379.544	-0.175	0.353
-90.757	118.867	-0.183	-0.222
-89.743	341.934	-0.080	0.154
-88.728	-117.412	0.222	-0.040
-87.713	-86.167	-0.207	0.063
-86.699	-200.000	0.004	-0.080
-85.684	143.949	0.074	0.097
-84.670	-39.729	0.054	0.028
-83.655	422.180	-0.103	-0.218
-82.640	67.387	-0.181	0.181
-81.626	-74.135	-0.201	-0.071
-80.611	-200.000	-0.032	0.393
-79.597	594.249	0.074	0.179
-78.582	800.000	0.113	0.327
-77.567	-200.000	-0.068	0.386
-76.553	-149.755	0.320	-0.025
-75.538	68.797	-0.199	0.201
-74.524	-99.439	-0.334	0.083
-73.509	-167.611	0.179	-0.007
-72.494	-108.280	0.371	-0.079
-71.480	468.129	-0.117	-0.257
-70.465	-200.000	-0.063	-0.329
-69.451	-86.318	0.168	0.051
-68.436	-200.000	-0.010	0.104
-67.422	77.521	-0.144	-0.151
-66.407	-200.000	-0.008	0.087
-65.392	501.205	0.056	0.127
-64.378	-200.000	-0.050	0.243
-63.363	-200.000	0.002	-0.148
-62.349	-60.515	0.119	-0.050
-61.334	105.050	-0.668	-0.775
-60.319	109.874	0.543	0.640
-59.305	-200.000	-0.177	-1.168
-58.290	575.403	0.440	1.055
-57.276	519.238	0.679	1.562
-56.261	-200.000	101.578	594.841
-55.246	569.758	1416.711	3384.170
-54.232	189.852	2609.142	3844.753
-53.217	110.419	2275.795	2685.937
-52.203	40.247	1895.470	1674.412
-51.188	34.125	1684.614	1441.873
-50.173	31.535	1640.919	1385.273
-49.159	49.193	1690.628	1560.360
-48.144	50.606	1706.530	1585.590
-47.130	33.832	1665.754	1423.312
-46.115	31.069	1651.698	1390.681
-45.100	30.949	1646.949	1385.730
-44.086	30.838	1644.299	1382.623
-43.071	30.839	1641.775	1380.455
-42.057	30.768	1639.594	1378.037
-41.042	30.878	1637.234	1376.815
-40.027	30.759	1635.751	1374.637
-39.013	30.765	1633.610	1372.825
-37.998	30.783	1632.290	1371.796
-36.984	30.851	1630.927	1371.096
-35.969	30.948	1629.290	1370.378
-34.954	30.957	1627.733	1369.079
-33.940	30.837	1626.187	1366.843
-32.925	30.911	1624.660	1366.049
-31.911	30.956	1622.748	1364.719
-30.896	30.933	1621.139	1363.137
-29.881	30.810	1619.657	1360.937
-28.867	31.021	1616.800	1360.029
-27.852	30.897	1616.005	1358.397
-26.838	30.895	1614.673	1357.214
-25.823	30.962	1612.833	1356.099
-24.809	30.937	1612.359	1355.464
-23.794	30.919	1610.428	1353.657
-22.779	31.062	1608.888	1353.346
-21.765	30.986	1607.722	1351.762
-20.750	31.023	1605.713	1350.285
-19.736	31.008	1604.183	1348.838
-18.721	31.050	1602.959	1348.055
-17.706	30.864	1601.979	1345.835
-16.692	30.941	1599.695	1344.417
-15.677	30.959	1598.184	1343.226
-14.663	31.001	1597.434	1342.845
-13.648	30.966	1596.030	1341.355
-12.633	30.992	1594.362	1340.090
-11.619	30.952	1593.195	1338.766
-10.604	30.986	1591.407	1337.455
-9.590	30.920	1590.374	1336.064
-8.575	31.115	1588.575	1335.895
-7.560	30.960	1588.220	1334.437
-6.546	30.939	1586.920	1333.136
-5.531	31.005	1585.524	1332.387
-4.517	30.924	1584.371	1330.782
-3.502	31.002	1583.203	1330.309
-2.487	31.022	1581.611	1329.060
-1.473	30.724	1570.399	1317.478
-0.458	27.958	1551.175	1281.922
0.556	23.787	1552.127	1251.572
1.571	21.586	1575.113	1254.244
2.586	21.033	1588.011	1260.410
3.600	18.740	1534.938	1202.141
4.615	11.492	1428.107	1070.997
5.629	5.506	1367.429	987.708
6.644	4.764	1359.738	977.410
7.659	4.639	1358.622	975.738
8.673	4.475	1357.769	974.005
9.688	4.562	1355.847	973.087
10.702	4.553	1352.501	970.542
11.717	7.147	1358.330	990.891
12.731	14.371	1370.692	1045.297
13.746	18.789	1377.541	1078.220
14.761	18.648	1375.899	1075.959
15.775	17.773	1373.633	1068.613
16.790	16.546	1371.496	1059.177
17.804	15.817	1369.131	1052.694
18.819	15.390	1367.357	1048.571
19.834	15.121	1366.316	1046.001
20.848	14.829	1365.233	1043.255
21.863	14.798	1363.572	1041.702
22.877	14.684	1362.169	1039.828
23.892	14.516	1361.938	1038.514
24.907	14.555	1360.987	1037.941
25.921	14.613	1359.393	1036.992
26.936	14.640	1358.576	1036.447
27.950	14.666	1357.730	1035.867
28.965	14.813	1356.960	1036.102
29.980	14.818	1355.838	1035.181
30.994	14.830	1355.079	1034.585
32.009	14.856	1353.724	1033.618
33.023	14.863	1352.417	1032.573
34.038	14.787	1351.282	1031.147
35.053	14.676	1349.967	1029.369
36.067	14.688	1348.896	1028.537
37.082	14.687	1347.997	1027.751
38.096	14.804	1346.868	1027.520
39.111	14.741	1345.976	1026.361
40.126	14.720	1345.018	1025.410
41.140	14.618	1344.461	1024.271
42.155	14.545	1344.004	1023.387
43.169	14.488	1343.544	1022.595
44.184	14.507	1343.436	1022.536
45.199	14.552	1342.566	1022.062
46.213	14.521	1342.480	1021.714
47.228	14.708	1341.577	1022.084
48.242	14.625	1340.409	1020.594
49.257	14.683	1338.975	1019.765
50.271	14.646	1337.515	1018.335
51.286	14.715	1336.079	1017.575
52.301	14.788	1334.191	1016.493
53.315	14.587	1333.974	1015.014
54.330	14.576	1332.321	1013.599
55.344	14.532	1331.950	1012.959
56.359	14.593	1330.467	1012.111
57.374	14.465	1329.461	1010.484
58.388	14.472	1328.784	1009.922
59.403	14.436	1328.586	1009.462
60.417	14.477	1327.509	1008.802
61.432	14.443	1326.808	1007.977
62.447	14.406	1325.674	1006.801
63.461	14.358	1324.920	1005.851
64.476	14.435	1323.297	1004.993
65.490	14.332	1322.422	1003.615
66.505	14.323	1320.878	1002.306
67.520	14.466	1319.096	1001.722
68.534	14.413	1318.658	1000.984
69.549	14.352	1318.089	1000.093
70.563	14.401	1316.552	999.133
71.578	14.329	1315.429	997.760
72.593	14.188	1315.100	996.583
73.607	14.298	1313.821	996.183
74.622	14.283	1312.885	995.295
75.636	14.369	1312.066	995.099
76.651	14.361	1311.461	994.501
77.666	14.238	1311.429	993.658
78.680	14.355	1311.043	993.974
79.695	14.404	1310.147	993.501
80.709	14.388	1309.426	992.768
81.724	14.461	1308.599	992.487
82.739	14.482	1307.784	991.910
83.753	14.577	1306.728	991.586
84.768	14.674	1306.063	991.572
85.782	14.805	1304.352	990.961
86.797	14.816	1303.332	990.164
87.812	14.708	1302.590	988.869
88.826	14.631	1301.298	987.347
89.841	14.589	1300.170	986.156
90.855	14.621	1299.496	985.743
91.870	14.746	1298.565	985.688
92.884	14.845	1297.449	985.341
93.899	14.879	1296.680	984.866
94.914	14.837	1295.835	983.892
95.928	14.785	1295.414	983.182
96.943	14.802	1294.176	982.252
97.957	14.782	1293.131	981.253
98.972	14.723	1292.273	980.173
99.987	14.728	1291.278	979.359
101.001	14.762	1289.874	978.410
102.016	14.726	1289.250	977.636
103.030	14.805	1288.387	977.355
104.045	14.773	1287.594	976.480
105.060	14.641	1286.962	975.145
106.074	14.610	1284.926	973.335
107.089	14.516	1283.299	971.467
108.103	14.463	1282.353	970.359
109.118	14.459	1280.847	969.108
110.133	14.380	1279.993	967.923
111.147	14.441	1278.689	967.203
112.162	14.421	1277.379	966.012
113.176	14.599	1276.185	966.050
114.191	14.683	1275.247	965.741
115.206	14.575	1274.637	964.573
116.220	14.613	1272.556	963.129
117.235	14.465	1272.135	961.869
118.249	14.472	1271.163	961.093
119.264	14.435	1269.718	959.699
120.279	14.522	1268.083	958.883
121.293	14.463	1267.657	958.132
122.308	14.476	1266.178	957.009
123.322	14.478	1265.364	956.317
124.337	14.394	1264.818	955.341
125.352	14.446	1263.239	954.360
126.366	14.337	1262.603	953.170
127.381	14.320	1261.427	952.100
128.395	14.422	1260.148	951.635
129.410	14.375	1259.561	950.843
130.424	14.452	1258.578	950.455
131.439	14.518	1257.642	950.038
132.454	14.528	1256.695	949.297
133.468	14.613	1255.625	948.885
134.483	14.527	1255.424	948.160
135.497	14.521	1254.130	947.066
136.512	14.585	1252.982	946.480
137.527	14.642	1251.393	945.517
138.541	14.564	1250.239	944.118
139.556	14.655	1249.252	943.805
140.570	14.689	1247.950	942.929
141.585	14.881	1246.667	942.959
142.600	14.802	1246.092	941.998
143.614	14.879	1244.823	941.391
144.629	14.891	1244.111	940.832
145.643	14.842	1242.858	939.530
146.658	14.803	1241.481	938.184
147.673	14.730	1240.430	936.898
148.687	14.676	1239.443	935.769
149.702	14.593	1237.976	934.113
150.716	14.613	1236.739	933.207
151.731	14.689	1235.672	932.746
152.746	14.715	1234.376	931.832
153.760	14.740	1233.271	931.053
154.775	14.704	1232.640	930.293
155.789	14.824	1230.979	929.622
156.804	14.850	1230.595	929.394
157.819	14.929	1229.487	928.919
158.833	14.884	1228.543	927.874
159.848	15.017	1227.849	928.004
160.862	14.991	1226.528	926.780
161.877	14.932	1225.369	925.496
162.892	14.723	1224.602	923.675
163.906	14.728	1223.554	922.835
164.921	14.730	1222.864	922.239
165.935	14.748	1221.930	921.555
166.950	14.807	1221.147	921.207
167.964	14.737	1220.668	920.378
168.979	14.771	1219.795	919.826
169.994	14.799	1219.067	919.351
171.008	14.864	1218.337	919.074
172.023	14.967	1216.793	918.394
173.037	14.986	1216.227	917.992
174.052	15.000	1215.496	917.435
175.067	15.004	1214.291	916.464
176.081	14.874	1213.488	915.066
177.096	14.752	1212.458	913.545
178.110	14.881	1211.526	913.466
179.125	14.927	1210.266	912.683
180.140	14.979	1209.099	912.006
181.154	14.935	1207.525	910.500
182.169	15.140	1206.254	910.577
183.183	15.190	1205.471	910.178
184.198	15.146	1204.399	909.046
185.213	15.120	1203.450	908.111
186.227	15.200	1202.327	907.614
187.242	15.151	1201.299	906.492
188.256	15.282	1200.303	906.370
189.271	15.143	1199.833	905.186
190.286	15.097	1198.469	903.828
191.300	14.788	1197.831	901.600
192.315	14.855	1197.234	901.433
193.329	14.828	1196.629	900.750
194.344	14.863	1195.618	900.096
195.359	15.034	1195.049	900.508
196.373	15.139	1194.510	900.590
197.388	15.109	1194.348	900.225
198.402	15.375	1193.846	901.195
199.417	15.333	1193.424	900.571
200.432	15.405	1192.357	900.073
201.446	15.431	1191.609	899.571
202.461	15.560	1190.348	899.229
203.475	15.451	1189.859	898.193
204.490	15.418	1188.420	896.852
205.504	15.267	1187.186	895.038
206.519	15.402	1185.693	894.550
207.534	15.318	1184.941	893.459
208.548	15.313	1183.531	892.287
209.563	15.356	1183.047	892.076
210.577	15.389	1182.737	891.936
211.592	15.441	1181.504	891.206
212.607	15.640	1180.452	891.385
213.621	15.569	1179.877	890.497
214.636	15.459	1178.756	888.992
215.650	15.463	1178.007	888.367
216.665	15.488	1177.155	887.778
217.680	15.561	1176.153	887.332
218.694	15.688	1175.363	887.327
219.709	15.660	1174.488	886.441
220.723	15.647	1173.996	885.922
221.738	15.601	1173.041	884.882
222.753	15.585	1172.466	884.282
223.767	15.639	1172.212	884.297
224.782	15.753	1171.137	884.007
225.796	15.789	1170.654	883.753
226.811	15.672	1170.173	882.700
227.826	15.750	1169.098	882.220
228.840	15.790	1168.351	881.785
229.855	15.814	1167.223	880.984
230.869	15.679	1167.038	880.058
231.884	15.628	1166.210	879.092
232.899	15.617	1165.584	878.483
233.913	15.630	1164.407	877.587
234.928	15.690	1163.520	877.151
235.942	15.521	1163.152	875.915
236.957	15.637	1161.830	875.449
237.972	15.627	1161.594	875.138
238.986	15.661	1160.596	874.487
240.001	15.549	1160.280	873.588
241.015	15.790	1159.149	873.910
242.030	15.731	1158.723	873.210
243.045	15.703	1158.221	872.605
244.059	15.827	1157.070	872.303
245.074	15.772	1156.048	871.170
246.088	15.813	1155.283	870.730
247.103	15.893	1154.811	870.710
248.117	15.854	1154.638	870.304
249.132	15.992	1153.524	870.098
250.147	16.262	1152.246	870.453
251.161	16.289	1151.755	870.139
252.176	16.211	1151.065	869.139
253.190	16.337	1150.660	869.407
254.205	16.396	1149.821	869.003
255.220	16.399	1149.174	868.451
256.234	16.232	1149.021	867.401
257.249	16.194	1148.249	866.547
258.263	16.268	1147.554	866.325
259.278	16.348	1147.081	866.300
260.293	16.425	1146.576	866.235
261.307	16.362	1145.753	865.216
262.322	16.432	1144.850	864.815
263.336	16.351	1144.641	864.167
264.351	16.387	1143.934	863.741
265.366	16.481	1143.035	863.465
266.380	16.441	1141.951	862.367
267.395	16.379	1141.521	861.646
268.409	16.494	1140.285	861.224
269.424	16.339	1140.533	860.544
270.439	16.522	1139.400	860.549
271.453	16.383	1138.839	859.341
272.468	16.214	1138.169	857.902
273.482	16.150	1137.509	856.999
274.497	16.432	1136.475	857.579
275.512	16.384	1135.849	856.785
276.526	16.411	1135.126	856.301
277.541	16.505	1134.405	856.158
278.555	16.509	1133.662	855.539
279.570	16.524	1133.042	855.076
280.585	16.562	1132.610	854.864
281.599	16.628	1131.176	854.037
282.614	16.674	1130.118	853.395
283.628	16.522	1129.334	851.964
284.643	16.603	1127.935	851.240
285.657	16.538	1127.533	850.533
286.672	16.537	1126.673	849.806
287.687	16.589	1125.655	849.222
288.701	16.560	1125.206	848.664
289.716	16.715	1124.513	848.844
290.730	16.681	1123.897	848.134
291.745	16.607	1123.087	847.076
292.760	16.617	1122.439	846.562
293.774	16.716	1121.684	846.413
294.789	16.683	1121.232	845.830
295.803	16.783	1120.407	845.636
296.818	16.786	1119.590	844.957
297.833	16.676	1118.604	843.590
298.847	16.675	1118.197	843.203
299.862	16.754	1117.886	843.289
300.876	16.792	1117.125	842.827
301.891	16.960	1115.913	842.677
302.906	16.906	1115.058	841.684
303.920	16.893	1115.106	841.583
304.935	17.016	1114.167	841.409
305.949	17.040	1113.426	840.896
306.964	17.009	1112.960	840.313
307.979	16.998	1112.070	839.513
308.993	16.969	1111.261	838.687
310.008	17.101	1110.429	838.636
311.022	17.039	1110.031	837.954
312.037	17.152	1108.737	837.463
313.052	16.939	1108.253	835.970
314.066	17.026	1106.637	835.106
315.081	16.896	1106.214	834.075
316.095	16.847	1105.649	833.336
317.110	16.867	1104.985	832.860
318.125	16.855	1103.783	831.818
319.139	16.893	1103.144	831.450
320.154	16.957	1102.642	831.313
321.168	17.102	1101.699	831.240
322.183	16.972	1101.157	830.120
323.197	16.969	1100.962	829.882
324.212	16.933	1100.494	829.284
325.227	17.102	1099.499	829.286
326.241	17.019	1099.275	828.636
327.256	17.022	1098.304	827.845
328.270	16.997	1097.105	826.747
329.285	16.954	1096.667	826.134
330.300	16.897	1095.801	825.129
331.314	17.020	1094.639	824.781
332.329	17.161	1093.608	824.618
333.343	17.144	1092.663	823.749
334.358	17.174	1091.725	823.111
335.373	17.163	1091.692	822.962
336.387	17.204	1090.826	822.433
337.402	17.258	1089.798	821.849
338.416	17.215	1089.606	821.423
339.431	17.183	1088.927	820.685
340.446	17.327	1088.551	821.026
341.460	17.477	1087.591	820.952
342.475	17.479	1086.540	820.093
343.489	17.535	1085.617	819.593
344.504	17.560	1084.859	819.069
345.519	17.576	1084.197	818.576
346.533	17.674	1083.223	818.240
347.548	17.725	1082.609	817.946
348.562	17.659	1081.596	816.790
349.577	17.364	1081.172	814.988
350.592	17.471	1080.426	814.866
351.606	17.439	1079.517	813.955
352.621	17.377	1078.922	813.135
353.635	17.392	1078.295	812.664
354.650	17.386	1077.507	811.969
355.665	17.454	1076.841	811.720
356.679	17.540	1076.280	811.637
357.694	17.496	1076.031	811.164
358.708	17.757	1074.575	811.237
359.723	17.626	1074.400	810.409
360.738	17.693	1073.786	810.195
361.752	17.570	1073.323	809.189
362.767	17.636	1072.325	808.679
363.781	17.719	1072.088	808.821
364.796	17.758	1071.397	808.414
365.810	17.652	1071.268	807.741
366.825	17.763	1070.793	807.837
367.840	17.878	1070.114	807.800
368.854	17.963	1069.321	807.530
369.869	17.867	1068.775	806.591
370.883	17.897	1067.497	805.702
371.898	17.794	1066.896	804.690
372.913	17.806	1066.858	804.645
373.927	17.921	1065.560	804.134
374.942	18.079	1064.872	804.288
375.956	17.891	1064.976	803.412
376.971	17.918	1064.171	802.861
377.986	17.874	1063.529	802.101
379.000	18.123	1062.755	802.614
380.015	18.177	1062.507	802.607
381.029	18.134	1061.908	801.885
382.044	18.147	1061.249	801.377
383.059	18.124	1060.001	800.255
384.073	18.103	1059.608	799.790
385.088	18.259	1058.195	799.381
386.102	18.342	1057.291	799.013
387.117	18.191	1056.623	797.734
388.132	18.045	1055.568	796.186
389.146	18.055	1055.109	795.817
390.161	17.949	1054.671	794.921
391.175	18.092	1053.589	794.701
392.190	18.063	1053.306	794.281
393.205	18.226	1052.285	794.198
394.219	18.203	1051.430	793.375
395.234	18.244	1050.524	792.814
396.248	18.148	1049.272	791.356
397.263	18.177	1048.248	790.648
398.278	18.004	1047.893	789.507
399.292	17.939	1047.123	788.561
400.307	17.948	1046.366	787.959
401.321	18.156	1045.672	788.327
402.336	18.008	1045.330	787.318
403.350	18.037	1044.516	786.770
404.365	18.287	1043.608	787.166
405.380	18.246	1042.747	786.255
406.394	18.284	1042.406	786.104
407.409	18.335	1041.454	785.550
408.423	18.317	1041.358	785.329
409.438	18.532	1040.078	785.276
410.453	18.400	1040.156	784.660
411.467	18.486	1039.169	784.243
412.482	18.480	1038.286	783.477
413.496	18.535	1037.713	783.229
414.511	18.649	1036.686	782.903
415.526	18.763	1036.584	783.280
416.540	18.630	1036.365	782.434
417.555	18.734	1035.781	782.402
418.569	18.714	1035.136	781.751
419.584	18.590	1035.004	781.020
420.599	18.609	1034.456	780.621
421.613	150.831	1401.603	1797.492
422.628	137.733	1455.067	1797.561
