DTS Sentinel unit serial number:	SN413079Multiplexer serial number:	ORYXHardware model number:	OX4-SRSoftware version number:	ORYX F/W v4.00 Oryx Data Collector v3.7.2.0data status	okinstallation	princeton_trtdifferential loss correction	single-endedforward channel	channel 2reverse channel	N/Adate	2019/09/19time	10:03:35forward acquisition time	60.00reverse acquisition time	0.00gamma	496.2192k internal	0.2345k external	0.2345temperature offset calibration	1.0004default loss term (dB/km)	0.3790temperature slope calibration	1.0000multiplexer offset coefficient	1.0000multiplexer slope coefficient	1.0000fibre end	0.00T internal ref (°C)	23.81T ext. ref 1 (°C)	0.68T ext. ref 2 (°C)	19.59length (m)	temperature (°C)	Stokes	anti-Stokes-747.200	328.305	-0.016	0.031
-746.185	251.860	-0.158	0.269
-745.171	263.522	-0.094	0.163
-744.156	800.000	-0.122	0.359
-743.142	508.304	0.259	0.601
-742.127	-75.240	-0.217	0.077
-741.112	44.474	0.212	0.194
-740.098	-200.000	-0.037	0.166
-739.083	-8.671	0.245	0.165
-738.069	-200.000	-0.092	0.591
-737.054	66.826	-0.126	0.128
-736.039	675.008	0.060	0.155
-735.025	800.000	-0.064	0.192
-734.010	800.000	-0.134	-0.462
-732.996	800.000	0.201	-0.601
-731.981	370.984	-0.097	-0.197
-730.966	-126.931	-0.356	0.052
-729.952	-200.000	0.056	-0.317
-728.937	-143.903	-0.270	-0.025
-727.923	11.618	-0.084	0.065
-726.908	800.000	-0.105	0.374
-725.894	60.601	-0.102	0.101
-724.879	-113.953	-0.191	0.037
-723.864	-5.866	-0.207	-0.142
-722.850	-146.102	0.393	-0.035
-721.835	311.037	-0.098	-0.183
-720.821	800.000	-0.034	-0.118
-719.806	800.000	0.051	0.214
-718.791	-108.576	-0.089	0.019
-717.777	-11.644	0.089	0.058
-716.762	-31.562	0.370	-0.208
-715.748	-23.474	0.206	-0.124
-714.733	-200.000	-0.002	0.164
-713.718	-23.241	0.029	-0.018
-712.704	-58.766	0.187	-0.081
-711.689	33.403	-0.118	0.103
-710.675	713.696	-0.051	0.134
-709.660	22.231	0.337	0.275
-708.645	-115.273	-0.307	-0.058
-707.631	800.000	-0.067	-0.201
-706.616	100.676	0.057	0.066
-705.602	-200.000	-0.021	0.172
-704.587	134.877	0.151	-0.196
-703.572	304.326	0.086	-0.159
-702.558	28.888	-0.318	-0.269
-701.543	179.632	0.256	-0.374
-700.529	144.501	-0.005	0.007
-699.514	-200.000	0.009	-0.055
-698.499	-179.108	-0.071	-0.002
-697.485	800.000	0.059	-0.185
-696.470	-176.993	0.273	0.007
-695.456	-200.000	-0.025	-0.118
-694.441	-200.000	-0.028	0.155
-693.426	-89.423	-0.183	-0.054
-692.412	-200.000	-0.008	-0.344
-691.397	130.456	0.078	0.100
-690.383	-160.436	0.189	0.010
-689.368	90.068	0.175	-0.196
-688.354	314.901	0.139	-0.261
-687.339	-200.000	0.059	-0.281
-686.324	-66.147	0.074	-0.030
-685.310	-200.000	-0.030	0.454
-684.295	-77.689	0.205	0.071
-683.281	-72.983	-0.240	0.088
-682.266	73.356	-0.113	-0.118
-681.251	800.000	0.047	0.186
-680.237	79.062	-0.062	-0.067
-679.222	-69.669	-0.224	0.085
-678.208	-10.887	-0.040	0.026
-677.193	-200.000	0.017	-0.404
-676.178	46.596	-0.175	-0.162
-675.164	-45.906	0.056	-0.028
-674.149	22.242	-0.208	0.169
-673.135	-103.034	-0.471	-0.111
-672.120	-113.734	0.307	0.060
-671.105	-200.000	-0.008	-0.124
-670.091	107.026	-0.083	0.098
-669.076	-5.414	-0.120	-0.082
-668.062	-18.239	0.134	-0.083
-667.047	2.438	-0.174	0.125
-666.032	-200.000	0.001	0.128
-665.018	210.900	-0.227	0.355
-664.003	800.000	-0.102	-0.299
-662.989	182.512	-0.019	-0.028
-661.974	-200.000	-0.008	0.044
-660.959	-200.000	-0.049	0.218
-659.945	38.717	0.060	0.054
-658.930	-35.189	0.038	-0.021
-657.916	208.494	-0.096	-0.150
-656.901	800.000	0.065	-0.194
-655.886	194.527	-0.200	0.302
-654.872	-73.980	-0.149	0.054
-653.857	78.647	-0.111	0.119
-652.843	-200.000	-0.001	-0.173
-651.828	3.116	-0.129	0.093
-650.814	-59.862	0.299	-0.127
-649.799	338.877	0.258	-0.501
-648.784	429.927	-0.178	-0.384
-647.770	-20.055	0.296	-0.182
-646.755	-200.000	0.021	-0.331
-645.741	-200.000	0.002	0.094
-644.726	179.403	-0.099	0.144
-643.711	558.351	-0.110	0.265
-642.697	-200.000	0.055	0.416
-641.682	-90.569	0.307	-0.088
-640.668	16.006	-0.237	-0.186
-639.653	-200.000	-0.389	0.002
-638.638	520.400	-0.027	0.064
-637.624	-65.928	-0.323	0.128
-636.609	76.214	0.140	-0.148
-635.595	82.520	0.100	0.109
-634.580	69.546	-0.105	-0.108
-633.565	-160.883	-0.115	-0.006
-632.551	800.000	0.080	-0.269
-631.536	260.147	-0.195	-0.335
-630.522	800.000	-0.067	0.237
-629.507	-65.608	0.211	0.084
-628.492	771.524	-0.143	-0.388
-627.478	32.275	-0.109	-0.094
-626.463	520.344	0.073	-0.170
-625.449	-200.000	-0.021	0.482
-624.434	-19.060	0.043	-0.026
-623.419	547.264	-0.042	0.101
-622.405	-172.798	0.327	-0.010
-621.390	-183.235	0.485	0.008
-620.376	-98.895	-0.139	-0.035
-619.361	-185.663	0.249	0.004
-618.346	345.183	0.198	-0.386
-617.332	29.447	-0.245	-0.207
-616.317	-200.000	-0.005	0.153
-615.303	-200.000	-0.066	0.382
-614.288	332.849	0.193	-0.370
-613.273	800.000	-0.034	-0.130
-612.259	-166.719	0.207	0.009
-611.244	179.635	-0.079	-0.115
-610.230	71.619	-0.177	0.183
-609.215	82.619	-0.180	0.195
-608.201	109.059	-0.147	-0.175
-607.186	-62.092	0.305	-0.127
-606.171	800.000	-0.059	-0.211
-605.157	469.408	-0.025	0.056
-604.142	-106.497	-0.060	0.013
-603.128	434.626	0.058	-0.126
-602.113	-200.000	-0.009	-0.363
-601.098	309.414	-0.177	0.329
-600.084	125.266	-0.120	0.150
-599.069	181.630	-0.070	-0.102
-598.055	-200.000	-0.015	-0.283
-597.040	800.000	0.154	0.470
-596.025	-21.527	-0.212	-0.128
-595.011	-11.861	-0.223	-0.145
-593.996	-200.000	0.016	-0.276
-592.982	-164.956	0.163	-0.007
-591.967	244.436	-0.022	0.036
-590.952	-121.788	0.268	0.044
-589.938	167.566	-0.107	0.151
-588.923	800.000	-0.049	0.212
-587.909	800.000	-0.123	0.354
-586.894	800.000	0.038	-0.144
-585.879	66.241	-0.130	0.131
-584.865	-9.805	0.040	-0.026
-583.850	379.104	-0.089	-0.181
-582.836	-140.620	0.085	0.009
-581.821	191.752	-0.120	-0.179
-580.806	-200.000	-0.034	0.368
-579.792	-200.000	0.055	-0.300
-578.777	-200.000	0.003	-0.036
-577.763	260.674	0.043	0.074
-576.748	102.355	0.063	0.073
-575.733	-78.873	0.356	-0.120
-574.719	-52.061	-0.166	-0.077
-573.704	-200.000	-0.054	-0.384
-572.690	-138.131	-0.080	0.009
-571.675	-71.731	0.247	0.092
-570.661	47.385	-0.206	-0.191
-569.646	-200.000	0.023	0.115
-568.631	-34.405	0.072	-0.039
-567.617	-114.876	-0.290	-0.055
-566.602	-200.000	-0.028	-0.270
-565.588	-163.954	-0.306	0.014
-564.573	-126.270	0.119	-0.018
-563.558	5.314	-0.107	-0.078
-562.544	144.455	0.134	-0.178
-561.529	-200.000	-0.041	0.202
-560.515	-42.930	0.114	-0.058
-559.500	630.584	-0.139	-0.349
-558.485	800.000	0.074	0.285
-557.471	800.000	0.068	0.240
-556.456	-101.601	-0.412	0.099
-555.442	800.000	0.024	-0.075
-554.427	-85.853	-0.379	-0.117
-553.412	649.581	-0.020	-0.052
-552.398	-109.017	-0.242	-0.051
-551.383	225.294	-0.080	0.128
-550.369	-200.000	0.023	-0.110
-549.354	310.081	0.111	-0.205
-548.339	127.232	0.197	0.248
-547.325	9.984	-0.332	-0.250
-546.310	659.226	-0.159	-0.407
-545.296	607.055	0.083	-0.206
-544.281	174.667	-0.081	0.117
-543.266	78.376	0.123	-0.130
-542.252	-43.145	-0.467	-0.235
-541.237	4.950	-0.283	-0.206
-540.223	-200.000	0.031	0.328
-539.208	1.277	-0.274	0.195
-538.193	85.303	-0.205	0.223
-537.179	30.227	0.083	-0.070
-536.164	-123.526	0.192	-0.030
-535.150	-143.746	0.217	-0.020
-534.135	89.176	0.151	0.167
-533.121	55.164	0.344	-0.330
-532.106	96.602	-0.183	-0.208
-531.091	23.924	0.301	-0.246
-530.077	-75.481	0.175	-0.062
-529.062	800.000	0.114	0.342
-528.048	-200.000	0.020	-0.135
-527.033	-137.624	0.287	-0.032
-526.018	800.000	-0.092	0.329
-525.004	-107.335	-0.116	0.025
-523.989	26.804	-0.137	0.113
-522.975	81.603	-0.432	0.464
-521.960	-158.601	0.306	-0.017
-520.945	-16.873	0.093	0.058
-519.931	-200.000	0.069	0.323
-518.916	-200.000	-0.004	0.072
-517.902	-27.987	-0.137	-0.079
-516.887	-200.000	0.024	-0.196
-515.872	-43.468	-0.156	-0.078
-514.858	63.972	-0.174	0.173
-513.843	98.476	-0.051	-0.058
-512.829	-59.280	0.034	-0.015
-511.814	67.899	0.249	0.253
-510.799	800.000	0.024	0.096
-509.785	-77.420	-0.008	0.003
-508.770	-68.855	0.198	-0.076
-507.756	-142.592	0.033	-0.003
-506.741	-200.000	-0.063	0.282
-505.726	-102.739	0.048	-0.011
-504.712	-200.000	0.013	0.077
-503.697	84.888	-0.439	0.477
-502.683	54.835	0.174	-0.167
-501.668	8.282	0.104	-0.078
-500.653	52.179	-0.135	-0.128
-499.639	232.650	0.085	-0.138
-498.624	-21.796	0.464	-0.280
-497.610	528.539	-0.181	-0.424
-496.595	-200.000	-0.029	-0.170
-495.581	800.000	0.075	0.235
-494.566	-13.524	0.188	0.121
-493.551	-66.210	0.333	0.131
-492.537	-105.924	0.032	-0.007
-491.522	151.205	0.080	0.108
-490.508	-63.098	-0.179	0.073
-489.493	-200.000	-0.001	0.062
-488.478	-101.280	0.509	-0.123
-487.464	60.692	-0.070	0.068
-486.449	-69.227	-0.378	-0.144
-485.435	-30.345	0.273	-0.153
-484.420	138.662	-0.032	0.041
-483.405	-200.000	0.004	-0.054
-482.391	221.093	-0.114	-0.181
-481.376	-87.940	-0.021	0.006
-480.362	58.873	-0.070	0.068
-479.347	-27.246	-0.362	0.209
-478.332	142.521	0.156	0.205
-477.318	-151.855	-0.168	0.012
-476.303	-22.961	-0.074	-0.044
-475.289	800.000	0.126	-0.405
-474.274	-200.000	0.011	0.077
-473.259	800.000	-0.060	-0.188
-472.245	-19.051	-0.080	0.049
-471.230	330.765	0.180	-0.344
-470.216	3.910	0.038	0.028
-469.201	-135.698	0.397	-0.047
-468.186	-102.284	-0.192	0.046
-467.172	218.156	0.162	-0.256
-466.157	307.548	0.110	-0.203
-465.143	-200.000	0.009	-0.103
-464.128	-200.000	-0.005	-0.108
-463.113	-62.081	-0.404	0.167
-462.099	-115.533	-0.129	0.024
-461.084	478.280	0.142	0.318
-460.070	-200.000	-0.047	-0.264
-459.055	-200.000	-0.032	-0.232
-458.040	535.933	-0.154	0.361
-457.026	-121.670	0.338	-0.055
-456.011	279.061	-0.074	0.130
-454.997	605.075	0.092	-0.227
-453.982	-200.000	0.018	-0.186
-452.968	7.846	-0.388	-0.287
-451.953	-126.664	-0.233	-0.034
-450.938	-134.034	0.297	0.036
-449.924	701.773	-0.198	0.516
-448.909	438.524	-0.139	0.299
-447.895	-133.593	0.162	0.020
-446.880	-26.212	-0.134	0.078
-445.865	-44.372	0.119	-0.059
-444.851	800.000	-0.112	0.423
-443.836	102.172	-0.023	0.027
-442.822	-200.000	-0.012	-0.232
-441.807	-121.447	-0.216	0.036
-440.792	-117.467	-0.172	-0.031
-439.778	-96.312	-0.380	0.099
-438.763	291.092	-0.111	-0.199
-437.749	62.599	0.053	-0.052
-436.734	-200.000	0.019	-0.138
-435.719	-200.000	-0.023	0.314
-434.705	258.327	-0.063	0.107
-433.690	134.225	-0.069	-0.088
-432.676	42.851	-0.085	-0.077
-431.661	16.077	0.118	0.092
-430.646	290.827	-0.100	0.180
-429.632	800.000	-0.022	-0.085
-428.617	-137.173	0.112	0.013
-427.603	-58.874	-0.081	0.034
-426.588	19.362	0.174	0.138
-425.573	-141.158	-0.152	0.015
-424.559	148.900	0.232	0.310
-423.544	-118.830	0.274	0.048
-422.530	17.297	-0.163	0.127
-421.515	-200.000	-0.028	-0.122
-420.500	-51.402	0.257	-0.119
-419.486	-40.588	0.139	-0.071
-418.471	278.248	0.029	0.051
-417.457	-77.066	-0.347	-0.120
-416.442	46.722	-0.102	0.093
-415.428	16.906	-0.185	-0.145
-414.413	60.786	0.243	-0.238
-413.398	800.000	-0.049	0.193
-412.384	71.225	0.124	0.127
-411.369	-75.396	-0.150	0.053
-410.355	449.439	-0.213	0.464
-409.340	260.370	0.079	-0.136
-408.325	427.808	-0.147	-0.313
-407.311	14.739	-0.248	-0.191
-406.296	-142.253	-0.173	-0.017
-405.282	95.114	-0.117	-0.132
-404.267	629.126	0.179	-0.446
-403.252	128.661	0.247	0.311
-402.238	800.000	0.051	0.166
-401.223	-200.000	-0.025	-0.254
-400.209	-200.000	0.011	0.073
-399.194	800.000	0.024	-0.075
-398.179	-44.717	0.146	-0.072
-397.165	800.000	-0.133	0.442
-396.150	800.000	0.051	0.221
-395.136	-200.000	0.055	0.312
-394.121	-3.740	-0.199	-0.137
-393.106	482.385	0.056	-0.125
-392.092	-68.570	0.096	-0.037
-391.077	50.286	0.136	0.127
-390.063	375.538	0.155	0.311
-389.048	257.365	0.030	0.052
-388.033	308.565	0.100	0.185
-387.019	-200.000	-0.036	0.243
-386.004	-25.847	0.109	-0.063
-384.990	132.452	-0.252	0.321
-383.975	-34.057	-0.204	-0.111
-382.960	-56.338	0.165	-0.072
-381.946	219.003	0.194	0.305
-380.931	800.000	-0.055	0.169
-379.917	-127.714	-0.214	-0.031
-378.902	653.237	-0.093	0.234
-377.888	138.310	0.063	-0.082
-376.873	223.246	0.280	0.445
-375.858	176.717	-0.132	0.190
-374.844	-1.711	-0.165	-0.114
-373.829	-108.479	0.244	-0.052
-372.815	-49.320	0.232	0.109
-371.800	-18.600	0.062	0.038
-370.785	214.556	-0.102	0.159
-369.771	58.453	0.162	0.157
-368.756	220.861	-0.144	0.227
-367.742	800.000	0.019	-0.079
-366.727	332.117	-0.029	0.054
-365.712	647.806	-0.116	0.293
-364.698	800.000	-0.083	-0.291
-363.683	183.635	0.031	-0.045
-362.669	-108.489	0.119	0.025
-361.654	178.664	0.042	0.060
-360.639	538.959	-0.098	-0.229
-359.625	97.556	0.084	-0.095
-358.610	800.000	-0.115	-0.448
-357.596	122.456	-0.253	-0.311
-356.581	-17.351	-0.154	-0.095
-355.566	-50.492	0.242	0.112
-354.552	-37.963	-0.247	-0.129
-353.537	-200.000	0.014	-0.164
-352.523	-121.663	-0.412	-0.067
-351.508	-138.943	0.317	-0.034
-350.493	-48.933	-0.133	-0.063
-349.479	489.408	-0.042	-0.095
-348.464	-200.000	-0.005	0.330
-347.450	132.077	0.092	0.117
-346.435	-173.076	0.095	0.003
-345.420	87.268	-0.051	-0.056
-344.406	-25.141	-0.194	0.113
-343.391	-18.182	0.157	0.097
-342.377	-111.969	-0.074	-0.015
-341.362	651.280	-0.019	0.049
-340.348	-48.507	0.387	0.183
-339.333	800.000	-0.020	0.073
-338.318	-45.575	0.176	0.086
-337.304	-49.270	-0.145	-0.068
-336.289	-83.608	-0.121	-0.038
-335.275	290.884	0.128	-0.229
-334.260	800.000	0.075	-0.247
-333.245	-132.564	-0.142	0.018
-332.231	-200.000	0.008	0.286
-331.216	26.407	0.094	0.078
-330.202	24.146	0.052	-0.043
-329.187	-148.903	-0.080	-0.006
-328.172	-75.885	0.467	-0.163
-327.158	-127.274	-0.191	-0.027
-326.143	40.238	0.199	0.176
-325.129	-170.088	-0.105	-0.004
-324.114	664.727	0.027	-0.070
-323.099	-34.766	0.336	0.181
-322.085	-184.426	0.161	0.003
-321.070	39.203	0.099	0.087
-320.056	152.253	-0.215	0.289
-319.041	-98.929	-0.352	0.088
-318.026	-69.580	-0.519	0.195
-317.012	690.027	0.196	-0.504
-315.997	-98.735	-0.257	-0.064
-314.983	224.362	0.119	0.190
-313.968	230.574	0.203	-0.327
-312.953	-75.960	-0.112	-0.039
-311.939	66.877	0.068	-0.068
-310.924	-127.879	0.504	-0.071
-309.910	26.166	-0.125	-0.103
-308.895	-38.524	0.263	0.137
-307.880	-200.000	-0.027	-0.218
-306.866	20.749	0.186	0.148
-305.851	-87.560	0.155	0.046
-304.837	-142.702	0.102	0.010
-303.822	-4.295	0.253	-0.172
-302.807	-200.000	-0.058	-0.449
-301.793	23.875	0.106	-0.086
-300.778	-200.000	0.021	-0.426
-299.764	-150.362	-0.252	0.019
-298.749	253.230	-0.103	-0.172
-297.735	-102.220	0.453	0.107
-296.720	31.344	0.112	0.095
-295.705	-128.887	-0.348	-0.048
-294.691	8.553	0.260	-0.192
-293.676	-12.429	0.263	0.169
-292.662	7.634	-0.322	-0.237
-291.647	-30.739	0.162	-0.090
-290.632	-66.083	0.223	0.087
-289.618	-200.000	-0.053	-0.306
-288.603	-87.143	-0.287	0.086
-287.589	463.569	0.207	-0.455
-286.574	-116.996	-0.301	0.054
-285.559	309.339	0.180	0.330
-284.545	-200.000	-0.011	-0.144
-283.530	-42.869	0.589	-0.294
-282.516	-75.024	-0.186	-0.066
-281.501	-52.204	-0.252	-0.115
-280.486	-200.000	-0.042	-0.226
-279.472	171.320	0.141	0.199
-278.457	-155.475	-0.175	-0.011
-277.443	-200.000	0.013	0.062
-276.428	7.284	0.148	-0.109
-275.413	39.873	0.151	0.133
-274.399	-124.933	0.171	-0.026
-273.384	-26.316	0.103	0.059
-272.370	-119.451	-0.199	-0.034
-271.355	-39.293	0.063	0.032
-270.340	180.424	0.102	0.147
-269.326	217.518	-0.073	-0.114
-268.311	-200.000	0.002	-0.100
-267.297	235.560	-0.161	0.261
-266.282	-35.081	-0.111	-0.059
-265.267	-30.726	-0.128	0.071
-264.253	-132.344	-0.382	-0.048
-263.238	178.428	0.261	0.374
-262.224	254.965	-0.231	0.388
-261.209	-200.000	0.036	0.166
-260.195	83.661	0.296	-0.317
-259.180	-200.000	-0.062	0.299
-258.165	167.328	-0.137	-0.191
-257.151	75.744	0.226	0.235
-256.136	-98.814	0.114	-0.028
-255.122	568.622	0.077	0.185
-254.107	649.341	-0.053	0.134
-253.092	-171.215	0.150	0.005
-252.078	718.137	0.044	0.115
-251.063	157.234	0.246	-0.334
-250.049	-200.000	-0.023	-0.572
-249.034	-181.386	0.096	0.002
-248.019	-90.888	-0.163	0.046
-247.005	800.000	-0.015	0.040
-245.990	185.598	-0.103	0.150
-244.976	-121.036	-0.234	-0.038
-243.961	800.000	0.056	0.196
-242.946	-91.831	0.245	0.068
-241.932	-142.750	0.263	-0.025
-240.917	56.310	-0.053	0.050
-239.903	800.000	-0.067	0.233
-238.888	382.984	-0.088	-0.177
-237.873	-72.236	0.143	-0.052
-236.859	-126.489	-0.153	0.022
-235.844	-200.000	0.027	-0.231
-234.830	613.622	-0.109	0.268
-233.815	800.000	0.095	-0.316
-232.800	-127.980	0.197	-0.028
-231.786	-89.724	0.102	-0.029
-230.771	-180.953	-0.387	-0.008
-229.757	41.485	-0.115	-0.102
-228.742	-106.050	0.253	-0.056
-227.727	62.912	-0.111	-0.109
-226.713	31.485	0.070	-0.059
-225.698	-200.000	-0.009	-0.152
-224.684	4.869	0.135	-0.097
-223.669	-135.750	-0.016	-0.002
-222.655	-115.798	-0.254	-0.047
-221.640	65.608	0.195	0.193
-220.625	76.007	-0.151	0.156
-219.611	102.928	0.274	-0.314
-218.596	-25.245	-0.126	0.073
-217.582	124.234	-0.087	0.107
-216.567	-94.948	-0.220	-0.058
-215.552	-32.285	-0.155	0.085
-214.538	210.153	0.062	-0.095
-213.523	8.002	-0.314	-0.231
-212.509	645.197	0.073	0.183
-211.494	-200.000	-0.005	-0.204
-210.479	269.271	0.124	-0.213
-209.465	-32.376	0.198	0.108
-208.450	-100.351	-0.216	-0.053
-207.436	414.749	0.126	0.262
-206.421	-115.823	-0.264	-0.048
-205.406	-90.220	0.090	-0.026
-204.392	441.175	-0.057	0.123
-203.377	-27.731	0.251	0.142
-202.363	-6.473	0.578	-0.386
-201.348	114.846	0.071	-0.085
-200.333	-200.000	-0.058	0.293
-199.319	260.196	-0.021	0.036
-198.304	-150.093	0.531	0.040
-197.290	-200.000	0.034	-0.182
-196.275	612.413	-0.141	-0.346
-195.260	-57.265	0.269	0.116
-194.246	-149.536	-0.173	0.013
-193.231	-83.651	0.264	-0.082
-192.217	-114.074	0.180	0.034
-191.202	-129.852	-0.321	-0.043
-190.187	235.618	-0.108	0.175
-189.173	6.678	0.277	-0.201
-188.158	-200.000	-0.033	0.321
-187.144	292.225	-0.145	0.258
-186.129	-123.930	-0.127	0.020
-185.114	800.000	-0.150	0.458
-184.100	-118.871	0.113	-0.020
-183.085	498.824	-0.085	0.191
-182.071	-42.459	-0.154	0.077
-181.056	-124.669	-0.264	-0.040
-180.042	800.000	0.125	-0.358
-179.027	-200.000	-0.006	-0.046
-178.012	-86.461	0.231	0.069
-176.998	26.091	-0.155	-0.126
-175.983	81.050	0.234	0.248
-174.969	-20.885	-0.298	0.178
-173.954	268.455	0.069	0.119
-172.939	123.815	-0.131	-0.160
-171.925	278.638	0.035	0.062
-170.910	-133.234	0.241	-0.030
-169.896	733.021	0.106	0.278
-168.881	65.348	-0.135	0.133
-167.866	-200.000	0.020	-0.105
-166.852	-188.147	-0.234	-0.003
-165.837	-200.000	-0.010	-0.049
-164.823	152.892	0.006	0.008
-163.808	135.098	0.141	0.179
-162.793	800.000	-0.038	0.155
-161.779	-200.000	-0.013	-0.058
-160.764	164.973	0.168	0.232
-159.750	17.283	-0.052	0.040
-158.735	66.292	-0.163	0.162
-157.720	-200.000	-0.004	0.260
-156.706	-113.684	-0.122	-0.023
-155.691	139.611	0.161	0.207
-154.677	192.353	-0.215	0.317
-153.662	800.000	-0.065	0.269
-152.647	181.290	-0.116	-0.167
-151.633	-200.000	-0.020	0.176
-150.618	-22.142	0.198	0.117
-149.604	800.000	0.040	-0.156
-148.589	-200.000	0.008	-0.095
-147.574	130.951	-0.110	-0.138
-146.560	2.917	-0.226	-0.161
-145.545	95.655	0.068	0.076
-144.531	11.804	-0.107	-0.080
-143.516	51.663	-0.232	-0.215
-142.502	-102.551	0.106	-0.025
-141.487	-23.125	-0.211	0.124
-140.472	483.460	0.040	0.089
-139.458	-55.126	-0.235	-0.103
-138.443	230.705	-0.061	-0.098
-137.429	-169.804	-0.415	0.015
-136.414	130.872	0.300	0.377
-135.399	-151.432	-0.205	0.015
-134.385	-200.000	0.007	-0.036
-133.370	800.000	0.061	0.195
-132.356	-150.064	0.151	0.011
-131.341	-200.000	-0.047	0.450
-130.326	422.488	0.184	0.386
-129.312	89.303	0.134	0.146
-128.297	-21.084	0.203	0.121
-127.283	-6.996	0.030	-0.020
-126.268	648.133	0.152	0.380
-125.253	91.165	0.297	0.325
-124.239	80.381	-0.075	-0.079
-123.224	-39.600	0.048	0.024
-122.210	104.425	-0.060	0.069
-121.195	-139.316	0.303	0.032
-120.180	800.000	-0.055	0.155
-119.166	-87.651	0.279	0.082
-118.151	-200.000	0.005	-0.205
-117.137	298.957	0.104	0.186
-116.122	-23.146	0.192	0.113
-115.107	-140.672	0.225	-0.023
-114.093	-157.356	0.182	0.011
-113.078	115.964	0.217	0.259
-112.064	-92.435	-0.418	-0.115
-111.049	-200.000	-0.002	-0.347
-110.034	800.000	0.141	-0.470
-109.020	-200.000	0.018	0.140
-108.005	-200.000	-0.014	0.121
-106.991	-178.673	-0.268	-0.006
-105.976	187.892	0.065	0.095
-104.962	703.501	0.056	0.145
-103.947	-200.000	0.005	-0.152
-102.932	800.000	-0.030	-0.096
-101.918	-38.018	0.068	0.035
-100.903	1.224	0.130	-0.091
-99.889	227.142	-0.084	0.133
-98.874	800.000	-0.100	-0.301
-97.859	-133.715	0.084	0.010
-96.845	188.908	0.071	-0.104
-95.830	-69.734	-0.142	0.053
-94.816	-86.623	-0.264	-0.079
-93.801	628.786	-0.095	0.235
-92.786	9.011	0.218	0.160
-91.772	58.825	-0.138	0.132
-90.757	-74.736	-0.227	0.080
-89.743	-103.751	0.447	-0.102
-88.728	393.705	-0.085	-0.173
-87.713	-200.000	0.025	0.139
-86.699	187.150	0.054	0.078
-85.684	-55.430	-0.316	0.138
-84.670	654.240	0.091	0.228
-83.655	800.000	0.090	-0.373
-82.640	552.432	0.118	0.276
-81.626	800.000	-0.051	-0.213
-80.611	6.266	0.180	-0.130
-79.597	222.200	-0.094	-0.148
-78.582	-152.944	-0.277	0.019
-77.567	148.788	-0.212	-0.279
-76.553	42.646	-0.084	-0.074
-75.538	-200.000	0.024	-0.195
-74.524	91.611	0.166	-0.182
-73.509	411.639	-0.054	-0.111
-72.494	67.060	-0.182	0.181
-71.480	-200.000	-0.067	0.495
-70.465	800.000	0.009	0.025
-69.451	-200.000	0.041	-0.197
-68.436	485.511	0.072	0.160
-67.422	-170.690	-0.133	0.004
-66.407	-150.728	0.177	0.013
-65.392	48.581	0.241	-0.220
-64.378	-138.661	0.211	0.022
-63.363	-34.177	0.181	-0.097
-62.349	-117.220	-0.226	-0.040
-61.334	98.861	-1.066	-1.199
-60.319	0.069	0.895	0.621
-59.305	800.000	-0.429	-1.201
-58.290	171.824	0.856	1.198
-57.276	800.000	0.457	1.352
-56.261	-200.000	121.501	618.755
-55.246	390.425	1566.816	3164.636
-54.232	140.169	2751.885	3534.119
-53.217	88.624	2327.610	2519.160
-52.203	32.975	1930.520	1628.224
-51.188	26.880	1721.614	1404.940
-50.173	24.550	1682.300	1355.149
-49.159	45.280	1749.085	1570.370
-48.144	43.112	1761.107	1564.307
-47.130	26.339	1713.144	1393.637
-46.115	23.896	1697.265	1361.978
-45.100	23.759	1692.208	1356.819
-44.086	23.669	1690.016	1354.322
-43.071	23.668	1687.623	1352.340
-42.057	23.745	1684.458	1350.334
-41.042	23.635	1682.803	1348.120
-40.027	23.724	1680.614	1346.992
-39.013	23.623	1679.220	1345.051
-37.998	23.644	1678.074	1344.243
-36.984	23.755	1676.283	1343.594
-35.969	23.772	1674.732	1342.427
-34.954	23.912	1672.558	1341.682
-33.940	23.808	1671.688	1340.146
-32.925	23.763	1669.579	1338.068
-31.911	23.813	1668.198	1337.287
-30.896	23.767	1666.844	1335.797
-29.881	23.800	1665.311	1334.763
-28.867	23.790	1663.334	1333.052
-27.852	23.795	1662.144	1332.081
-26.838	23.849	1660.213	1330.891
-25.823	23.828	1659.029	1329.730
-24.809	23.884	1657.829	1329.135
-23.794	23.904	1656.497	1328.160
-22.779	23.877	1654.737	1326.497
-21.765	23.795	1652.997	1324.435
-20.750	23.757	1651.153	1322.626
-19.736	23.886	1649.791	1322.442
-18.721	23.881	1648.165	1321.050
-17.706	23.889	1646.844	1319.995
-16.692	23.751	1645.546	1317.879
-15.677	23.863	1643.803	1317.261
-14.663	23.869	1642.726	1316.392
-13.648	23.833	1641.577	1315.150
-12.633	23.862	1639.881	1313.952
-11.619	23.806	1637.774	1311.798
-10.604	23.836	1636.730	1311.134
-9.590	23.903	1635.263	1310.397
-8.575	23.766	1634.140	1308.439
-7.560	23.839	1632.808	1307.861
-6.546	23.800	1631.812	1306.719
-5.531	23.929	1630.782	1306.794
-4.517	23.878	1629.231	1305.121
-3.502	23.816	1628.708	1304.200
-2.487	23.927	1626.480	1303.175
-1.473	23.750	1614.924	1292.575
-0.458	21.106	1595.496	1257.940
0.556	16.577	1598.543	1228.899
1.571	14.498	1622.441	1231.815
2.586	14.182	1635.053	1238.932
3.600	13.281	1580.590	1191.066
4.615	7.504	1471.073	1069.614
5.629	1.835	1411.026	989.144
6.644	0.761	1403.896	977.120
7.659	0.710	1402.688	975.859
8.673	0.657	1401.693	974.742
9.688	0.572	1399.928	972.876
10.702	0.325	1396.750	968.998
11.717	3.303	1400.206	990.477
12.731	10.155	1410.992	1042.300
13.746	15.487	1418.366	1082.110
14.761	17.065	1419.915	1093.370
15.775	16.639	1418.125	1089.152
16.790	15.539	1416.018	1080.368
17.804	14.898	1413.086	1073.918
18.819	14.490	1412.090	1070.450
19.834	14.200	1410.566	1067.336
20.848	13.961	1409.958	1065.251
21.863	13.709	1407.978	1062.043
22.877	13.551	1406.816	1060.062
23.892	13.443	1405.540	1058.316
24.907	13.493	1404.507	1057.766
25.921	13.489	1404.125	1057.360
26.936	13.527	1403.344	1056.919
27.950	13.585	1402.214	1056.346
28.965	13.515	1401.671	1055.399
29.980	13.628	1400.327	1055.011
30.994	13.597	1399.096	1053.791
32.009	13.760	1398.844	1054.549
33.023	13.677	1397.380	1052.822
34.038	13.709	1396.001	1051.892
35.053	13.622	1395.097	1050.566
36.067	13.693	1393.543	1049.752
37.082	13.628	1393.002	1048.842
38.096	13.594	1391.812	1047.640
39.111	13.561	1391.194	1046.875
40.126	13.543	1390.054	1045.809
41.140	13.453	1389.667	1044.856
42.155	13.518	1388.717	1044.461
43.169	13.454	1388.925	1044.117
44.184	13.560	1387.914	1043.935
45.199	13.495	1387.697	1043.269
46.213	13.558	1386.695	1042.824
47.228	13.589	1386.408	1042.711
48.242	13.681	1384.484	1041.745
49.257	13.551	1383.773	1040.303
50.271	13.493	1382.360	1038.782
51.286	13.650	1380.452	1038.245
52.301	13.617	1379.087	1036.921
53.315	13.502	1378.729	1035.839
54.330	13.541	1376.937	1034.642
55.344	13.543	1375.819	1033.725
56.359	13.503	1374.961	1032.737
57.374	13.521	1374.049	1032.075
58.388	13.487	1373.445	1031.321
59.403	13.432	1373.318	1030.791
60.417	13.530	1372.009	1030.322
61.432	13.446	1370.882	1028.868
62.447	13.451	1370.010	1028.153
63.461	13.344	1368.777	1026.469
64.476	13.351	1368.248	1026.027
65.490	13.393	1366.770	1025.086
66.505	13.355	1364.662	1023.184
67.520	13.388	1363.750	1022.611
68.534	13.355	1362.791	1021.600
69.549	13.463	1361.320	1021.067
70.563	13.451	1360.656	1020.407
71.578	13.399	1359.853	1019.397
72.593	13.335	1358.811	1018.132
73.607	13.285	1357.867	1017.027
74.622	13.286	1357.244	1016.472
75.636	13.350	1356.744	1016.404
76.651	13.392	1355.295	1015.486
77.666	13.315	1355.247	1014.888
78.680	13.488	1354.050	1014.961
79.695	13.418	1353.242	1013.835
80.709	13.296	1352.931	1012.768
81.724	13.463	1351.509	1012.632
82.739	13.442	1350.765	1011.858
83.753	13.589	1349.872	1011.997
84.768	13.561	1348.898	1011.007
85.782	13.604	1347.169	1009.886
86.797	13.594	1346.301	1009.086
87.812	13.471	1344.997	1007.267
88.826	13.555	1343.764	1006.764
89.841	13.521	1343.097	1005.972
90.855	13.589	1341.851	1005.359
91.870	13.582	1341.131	1004.692
92.884	13.700	1339.575	1004.151
93.899	13.573	1339.547	1003.271
94.914	13.636	1338.538	1002.808
95.928	13.637	1337.219	1001.737
96.943	13.712	1336.245	1001.373
97.957	13.629	1335.995	1000.597
98.972	13.655	1334.256	999.361
99.987	13.590	1334.063	998.739
101.001	13.617	1332.195	997.411
102.016	13.552	1331.525	996.435
103.030	13.676	1330.454	996.288
104.045	13.669	1329.449	995.405
105.060	13.547	1328.616	993.961
106.074	13.650	1326.698	993.056
107.089	13.530	1325.480	991.335
108.103	13.500	1324.396	990.261
109.118	13.522	1322.928	989.205
110.133	13.390	1321.947	987.595
111.147	13.519	1319.930	986.771
112.162	13.526	1319.116	986.119
113.176	13.479	1317.927	984.860
114.191	13.517	1316.749	984.122
115.206	13.552	1315.519	983.322
116.220	13.483	1314.302	981.913
117.235	13.464	1313.445	981.079
118.249	13.446	1312.487	980.167
119.264	13.641	1310.800	979.973
120.279	13.509	1309.873	978.415
121.293	13.535	1309.083	977.888
122.308	13.532	1307.701	976.754
123.322	13.497	1306.790	975.783
124.337	13.468	1305.971	974.913
125.352	13.575	1304.395	974.277
126.366	13.448	1303.522	972.792
127.381	13.563	1302.017	972.261
128.395	13.438	1301.531	971.076
129.410	13.408	1300.550	970.086
130.424	13.462	1299.444	969.487
131.439	13.588	1298.316	969.299
132.454	13.543	1297.265	968.167
133.468	13.598	1296.308	967.686
134.483	13.477	1295.332	966.170
135.497	13.511	1294.257	965.476
136.512	13.544	1292.393	964.191
137.527	13.504	1291.678	963.341
138.541	13.552	1290.365	962.557
139.556	13.558	1288.698	961.264
140.570	13.549	1288.246	960.788
141.585	13.715	1286.693	960.505
142.600	13.721	1285.402	959.496
143.614	13.727	1284.653	958.882
144.629	13.740	1283.031	957.662
145.643	13.708	1282.296	956.846
146.658	13.586	1281.436	955.414
147.673	13.730	1279.350	954.606
148.687	13.565	1278.990	953.305
149.702	13.686	1277.415	952.740
150.716	13.657	1275.842	951.317
151.731	13.565	1275.098	950.149
152.746	13.670	1273.848	949.736
153.760	13.720	1271.887	948.473
154.775	13.800	1271.271	948.389
155.789	13.825	1269.879	947.411
156.804	13.792	1269.178	946.612
157.819	13.777	1268.187	945.707
158.833	13.780	1267.666	945.248
159.848	13.928	1266.052	944.806
160.862	13.742	1265.405	943.184
161.877	13.786	1264.028	942.324
162.892	13.701	1263.159	941.108
163.906	13.828	1261.909	940.812
164.921	13.741	1261.324	939.801
165.935	13.785	1260.208	939.139
166.950	13.745	1259.974	938.652
167.964	13.859	1258.856	938.379
168.979	13.859	1258.148	937.772
169.994	13.898	1257.342	937.306
171.008	13.918	1256.453	936.672
172.023	13.931	1255.440	935.910
173.037	13.942	1254.778	935.395
174.052	14.035	1253.723	935.047
175.067	14.016	1252.869	934.219
176.081	13.991	1251.682	933.112
177.096	13.912	1251.078	932.139
178.110	14.029	1249.862	931.804
179.125	14.057	1248.479	930.846
180.140	14.037	1247.092	929.618
181.154	13.982	1245.842	928.301
182.169	14.079	1244.758	927.950
183.183	14.025	1243.702	926.781
184.198	14.106	1242.209	926.038
185.213	14.187	1241.152	925.615
186.227	14.208	1240.129	924.890
187.242	14.163	1239.536	924.112
188.256	14.195	1238.415	923.375
189.271	14.212	1236.939	922.289
190.286	14.045	1236.135	920.683
191.300	13.983	1236.060	920.197
192.315	13.990	1234.942	919.323
193.329	13.999	1234.265	918.790
194.344	14.000	1233.399	918.066
195.359	14.024	1233.554	918.238
196.373	14.200	1232.441	918.295
197.388	14.142	1232.026	917.587
198.402	14.196	1231.625	917.507
199.417	14.340	1230.834	917.625
200.432	14.280	1229.877	916.504
201.446	14.409	1228.341	915.984
202.461	14.390	1227.794	915.394
203.475	14.453	1226.775	914.900
204.490	14.396	1225.597	913.627
205.504	14.360	1224.332	912.406
206.519	14.393	1223.245	911.694
207.534	14.332	1222.084	910.416
208.548	14.324	1221.256	909.677
209.563	14.459	1220.338	909.650
210.577	14.298	1219.582	908.123
211.592	14.444	1218.661	908.157
212.607	14.517	1217.976	907.962
213.621	14.378	1216.808	906.254
214.636	14.331	1216.237	905.490
215.650	14.400	1215.013	904.873
216.665	14.450	1213.690	904.082
217.680	14.630	1212.681	904.227
218.694	14.637	1212.071	903.731
219.709	14.575	1211.519	902.903
220.723	14.530	1210.692	901.961
221.738	14.711	1209.771	902.174
222.753	14.605	1208.916	900.884
223.767	14.663	1208.477	900.792
224.782	14.646	1208.015	900.276
225.796	14.591	1207.413	899.449
226.811	14.648	1206.278	898.833
227.826	14.680	1205.781	898.552
228.840	14.667	1205.175	897.953
229.855	14.636	1204.436	897.155
230.869	14.640	1203.561	896.446
231.884	14.655	1202.402	895.586
232.899	14.680	1201.613	895.049
233.913	14.776	1200.705	894.811
234.928	14.735	1199.989	893.976
235.942	14.723	1199.257	893.289
236.957	14.680	1198.887	892.705
237.972	14.633	1197.954	891.679
238.986	14.694	1197.356	891.481
240.001	14.721	1196.278	890.745
241.015	14.748	1195.131	889.955
242.030	14.811	1194.519	889.754
243.045	14.822	1193.830	889.221
244.059	14.801	1192.920	888.357
245.074	14.867	1192.328	888.186
246.088	14.843	1191.172	887.122
247.103	14.932	1190.733	887.184
248.117	14.886	1189.991	886.310
249.132	14.994	1188.964	886.039
250.147	14.974	1188.575	885.564
251.161	15.030	1187.555	885.021
252.176	15.109	1186.686	884.716
253.190	15.148	1186.185	884.471
254.205	15.079	1185.572	883.569
255.220	15.157	1185.012	883.483
256.234	15.063	1184.555	882.572
257.249	15.142	1183.255	881.939
258.263	15.168	1183.251	881.994
259.278	15.151	1182.321	881.132
260.293	15.198	1181.939	881.021
261.307	15.167	1181.169	880.205
262.322	15.170	1180.415	879.580
263.336	15.330	1179.719	879.825
264.351	15.285	1178.832	878.849
265.366	15.372	1178.198	878.755
266.380	15.459	1177.202	878.388
267.395	15.278	1176.464	876.813
268.409	15.338	1176.188	876.842
269.424	15.200	1175.545	875.564
270.439	15.390	1174.885	875.987
271.453	15.403	1173.737	875.125
272.468	15.369	1172.808	874.175
273.482	15.314	1172.615	873.666
274.497	15.347	1171.741	873.111
275.512	15.303	1171.306	872.482
276.526	15.380	1170.198	871.977
277.541	15.424	1169.639	871.715
278.555	15.448	1168.797	871.132
279.570	15.477	1167.905	870.543
280.585	15.489	1166.831	869.727
281.599	15.528	1165.910	869.163
282.614	15.528	1164.774	868.239
283.628	15.533	1163.958	867.583
284.643	15.622	1162.744	867.061
285.657	15.519	1162.455	866.239
286.672	15.560	1161.202	865.434
287.687	15.639	1160.221	865.035
288.701	15.596	1159.972	864.554
289.716	15.690	1158.768	864.059
290.730	15.684	1158.000	863.380
291.745	15.593	1157.414	862.401
292.760	15.661	1156.777	862.198
293.774	15.815	1156.169	862.459
294.789	15.613	1155.771	861.049
295.803	15.784	1154.859	861.173
296.818	15.753	1154.105	860.372
297.833	15.750	1153.305	859.688
298.847	15.776	1152.405	859.074
299.862	15.824	1151.320	858.431
300.876	15.864	1151.121	858.411
301.891	15.793	1150.515	857.522
302.906	15.787	1149.745	856.840
303.920	15.909	1148.790	856.676
304.935	15.976	1148.154	856.467
305.949	15.930	1147.432	855.615
306.964	15.970	1146.640	855.154
307.979	15.956	1145.978	854.512
308.993	15.929	1145.353	853.833
310.008	15.972	1144.194	853.114
311.022	15.978	1143.652	852.665
312.037	16.053	1142.667	852.233
313.052	16.007	1142.086	851.494
314.066	15.989	1141.028	850.535
315.081	16.074	1139.628	849.847
316.095	15.976	1139.448	849.144
317.110	16.018	1138.646	848.682
318.125	16.081	1137.834	848.321
319.139	16.013	1137.288	847.493
320.154	16.049	1136.546	847.051
321.168	16.019	1135.973	846.394
322.183	16.044	1135.424	846.037
323.197	16.003	1134.957	845.407
324.212	16.009	1134.574	845.079
325.227	16.047	1133.731	844.566
326.241	16.088	1132.841	844.035
327.256	16.103	1131.959	843.378
328.270	16.153	1131.043	842.867
329.285	16.152	1130.100	842.090
330.300	16.123	1128.972	841.025
331.314	16.176	1127.851	840.384
332.329	16.249	1126.884	839.950
333.343	16.117	1126.778	839.142
334.358	16.141	1125.759	838.428
335.373	16.368	1124.777	838.751
336.387	16.243	1124.230	837.644
337.402	16.374	1123.339	837.556
338.416	16.214	1122.770	836.268
339.431	16.360	1121.848	836.227
340.446	16.365	1121.250	835.735
341.460	16.399	1120.652	835.380
342.475	16.466	1119.705	834.932
343.489	16.413	1118.921	834.012
344.504	16.383	1118.103	833.183
345.519	16.495	1116.796	832.683
346.533	16.524	1116.106	832.238
347.548	16.570	1115.783	832.154
348.562	16.613	1114.479	831.319
349.577	16.580	1113.744	830.534
350.592	16.567	1113.275	830.047
351.606	16.591	1112.477	829.494
352.621	16.489	1111.812	828.427
353.635	16.525	1110.828	827.798
354.650	16.415	1110.580	826.998
355.665	16.595	1109.257	826.821
356.679	16.691	1108.827	826.897
357.694	16.680	1108.161	826.271
358.708	16.632	1107.794	825.689
359.723	16.524	1107.293	824.718
360.738	16.656	1106.563	824.746
361.752	16.745	1105.615	824.398
362.767	16.653	1105.647	823.901
363.781	16.752	1104.830	823.702
364.796	16.747	1103.567	822.664
365.810	16.767	1103.380	822.549
366.825	16.770	1102.766	822.033
367.840	16.865	1101.834	821.723
368.854	16.820	1101.602	821.260
369.869	16.769	1101.095	820.565
370.883	16.857	1099.827	819.971
371.898	16.870	1099.438	819.670
372.913	16.878	1098.770	819.138
373.927	16.861	1098.303	818.636
374.942	16.943	1097.552	818.400
375.956	17.017	1096.952	818.238
376.971	16.929	1096.438	817.359
377.986	16.967	1095.975	817.122
379.000	17.083	1095.364	817.152
380.015	17.116	1094.894	816.891
381.029	16.982	1094.023	815.523
382.044	17.078	1093.326	815.394
383.059	17.146	1092.557	815.074
384.073	17.031	1092.004	814.039
385.088	17.123	1090.733	813.459
386.102	17.115	1090.138	812.906
387.117	17.075	1089.091	811.862
388.132	17.191	1088.123	811.621
389.146	17.101	1087.071	810.335
390.161	17.090	1086.570	809.838
391.175	17.048	1086.100	809.215
392.190	17.233	1085.003	809.207
393.205	17.241	1084.276	808.633
394.219	17.279	1083.533	808.185
395.234	17.283	1082.439	807.318
396.248	17.307	1081.437	806.615
397.263	17.242	1080.506	805.538
398.278	17.224	1079.788	804.850
399.292	17.166	1079.468	804.264
400.307	17.260	1078.131	803.641
401.321	17.148	1077.789	802.784
402.336	17.340	1077.174	803.165
403.350	17.304	1076.322	802.285
404.365	17.216	1076.021	801.579
405.380	17.312	1074.847	801.083
406.394	17.400	1074.322	801.036
407.409	17.396	1073.607	800.414
408.423	17.334	1072.794	799.443
409.438	17.351	1072.372	799.138
410.453	17.416	1071.516	798.735
411.467	17.462	1070.521	798.139
412.482	17.552	1070.087	798.166
413.496	17.497	1069.264	797.225
414.511	17.643	1068.621	797.358
415.526	17.617	1067.969	796.681
416.540	17.595	1067.936	796.482
417.555	17.694	1067.286	796.388
418.569	17.590	1066.582	795.309
419.584	17.654	1066.216	795.261
420.599	17.628	1065.829	794.781
421.613	107.800	1331.530	1486.968
422.628	99.648	1370.195	1487.045
