DTS Sentinel unit serial number:	SN413079Multiplexer serial number:	ORYXHardware model number:	OX4-SRSoftware version number:	ORYX F/W v4.00 Oryx Data Collector v3.7.2.0data status	okinstallation	princeton_trtdifferential loss correction	single-endedforward channel	channel 2reverse channel	N/Adate	2019/09/16time	17:51:35forward acquisition time	60.00reverse acquisition time	0.00gamma	496.2192k internal	0.2314k external	0.2314temperature offset calibration	0.9950default loss term (dB/km)	0.3790temperature slope calibration	1.0000multiplexer offset coefficient	1.0000multiplexer slope coefficient	1.0000fibre end	0.00T internal ref (°C)	37.87T ext. ref 1 (°C)	15.60T ext. ref 2 (°C)	31.70length (m)	temperature (°C)	Stokes	anti-Stokes-747.200	800.000	0.058	-0.182
-746.185	-49.767	0.160	0.077
-745.171	52.995	0.029	-0.028
-744.156	-1.984	-0.218	0.156
-743.142	540.554	0.036	-0.086
-742.127	-122.323	-0.204	0.034
-741.112	-92.035	-0.078	0.022
-740.098	182.263	0.054	0.081
-739.083	731.314	0.008	-0.023
-738.069	800.000	-0.137	0.437
-737.054	-200.000	0.102	0.609
-736.039	139.731	-0.190	-0.254
-735.025	234.918	0.182	-0.305
-734.010	149.644	-0.157	0.215
-732.996	-11.401	0.258	-0.172
-731.981	-88.599	-0.558	0.168
-730.966	229.596	-0.106	0.175
-729.952	-167.212	-0.264	0.011
-728.937	234.711	-0.169	0.282
-727.923	153.247	0.273	0.379
-726.908	-45.756	-0.299	-0.150
-725.894	240.594	-0.214	-0.361
-724.879	-116.511	0.196	-0.037
-723.864	-96.923	-0.189	-0.050
-722.850	-74.297	-0.056	0.020
-721.835	800.000	-0.206	0.584
-720.821	61.762	0.122	-0.123
-719.806	-200.000	-0.021	0.121
-718.791	-20.532	0.205	-0.128
-717.777	-96.586	-0.142	0.038
-716.762	800.000	0.024	0.100
-715.748	57.469	-0.081	0.080
-714.733	-43.779	-0.305	0.156
-713.718	-84.648	-0.114	-0.036
-712.704	-146.343	0.252	-0.022
-711.689	800.000	0.077	0.284
-710.675	-84.578	-0.121	0.038
-709.660	167.648	-0.116	-0.167
-708.645	-3.081	-0.154	0.109
-707.631	52.469	-0.066	0.063
-706.616	-13.760	-0.189	0.124
-705.602	35.219	0.096	-0.086
-704.587	-200.000	0.002	0.102
-703.572	-200.000	-0.016	-0.200
-702.558	-84.410	0.217	0.069
-701.543	-200.000	-0.031	-0.472
-700.529	44.440	0.232	-0.215
-699.514	-8.243	0.163	-0.111
-698.499	-130.488	-0.187	0.026
-697.485	-53.102	-0.238	-0.110
-696.470	63.193	-0.061	0.061
-695.456	137.788	0.030	-0.039
-694.441	191.175	0.210	-0.321
-693.426	-20.186	0.158	0.099
-692.412	-200.000	-0.005	-0.097
-691.397	43.586	0.323	-0.299
-690.383	-137.909	0.288	-0.033
-689.368	301.857	0.100	0.187
-688.354	-52.300	-0.109	-0.051
-687.339	-117.618	0.356	0.065
-686.324	-200.000	0.028	0.148
-685.310	-144.795	-0.265	-0.025
-684.295	-200.000	0.008	-0.085
-683.281	0.730	-0.115	0.083
-682.266	-155.619	-0.111	0.007
-681.251	175.961	0.147	-0.216
-680.237	647.830	0.093	-0.241
-679.222	-147.416	-0.177	-0.015
-678.208	311.164	-0.140	0.266
-677.193	-56.054	0.080	-0.036
-676.178	-67.436	-0.141	0.056
-675.164	192.649	-0.061	-0.094
-674.149	64.186	-0.081	-0.083
-673.135	-159.904	0.024	0.001
-672.120	800.000	-0.064	-0.218
-671.105	-200.000	0.004	-0.027
-670.091	293.299	-0.027	-0.049
-669.076	159.402	0.119	0.167
-668.062	591.498	0.097	0.242
-667.047	117.196	-0.124	-0.154
-666.032	-33.255	0.584	-0.327
-665.018	-200.000	0.057	-0.496
-664.003	-200.000	-0.024	-0.268
-662.989	-200.000	-0.027	0.146
-661.974	260.012	-0.076	0.133
-660.959	-121.524	-0.143	-0.024
-659.945	-85.542	0.161	0.051
-658.930	223.951	-0.036	-0.059
-657.916	-126.588	-0.088	-0.013
-656.901	-200.000	-0.025	-0.391
-655.886	50.470	0.306	0.292
-654.872	37.275	-0.044	-0.039
-653.857	17.133	-0.246	0.197
-652.843	-200.000	0.018	-0.263
-651.828	62.373	0.020	-0.021
-650.814	56.713	-0.160	0.157
-649.799	-99.138	-0.306	0.078
-648.784	87.733	-0.130	-0.145
-647.770	-41.100	0.134	0.070
-646.755	-200.000	-0.024	-0.120
-645.741	124.085	-0.129	0.164
-644.726	48.073	0.176	0.166
-643.711	5.126	0.168	0.125
-642.697	115.844	0.175	0.217
-641.682	-131.670	0.306	0.041
-640.668	61.673	-0.116	-0.117
-639.653	59.222	0.072	-0.072
-638.638	297.629	-0.133	-0.246
-637.624	-122.757	-0.197	-0.032
-636.609	-101.854	-0.241	0.059
-635.595	320.573	-0.049	-0.094
-634.580	-93.512	-0.243	-0.068
-633.565	31.182	-0.125	-0.108
-632.551	-173.166	0.245	0.008
-631.536	-3.566	-0.193	0.136
-630.522	-99.631	-0.187	-0.047
-629.507	166.378	-0.099	-0.142
-628.492	12.583	0.279	-0.217
-627.478	-99.274	0.475	0.121
-626.463	273.154	0.023	-0.042
-625.449	76.410	-0.382	0.409
-624.434	800.000	-0.043	-0.130
-623.419	-83.216	-0.238	-0.077
-622.405	-200.000	0.004	-0.292
-621.390	101.818	0.227	0.267
-620.376	109.556	0.182	0.219
-619.361	-200.000	-0.031	-0.238
-618.346	-118.517	-0.151	-0.027
-617.332	-53.272	0.042	0.020
-616.317	800.000	-0.057	-0.215
-615.303	-7.882	-0.031	-0.021
-614.288	228.619	-0.175	-0.288
-613.273	170.495	-0.124	-0.180
-612.259	-79.987	0.018	0.006
-611.244	206.948	-0.049	-0.077
-610.230	-200.000	-0.002	-0.196
-609.215	-66.328	-0.091	-0.037
-608.201	-200.000	0.003	0.050
-607.186	-200.000	-0.004	-0.105
-606.171	-7.990	-0.182	0.124
-605.157	-148.037	-0.183	-0.015
-604.142	800.000	0.094	-0.279
-603.128	800.000	0.047	-0.143
-602.113	600.441	-0.033	-0.083
-601.098	-200.000	-0.304	-0.001
-600.084	-147.319	-0.296	-0.025
-599.069	197.332	0.117	-0.181
-598.055	71.667	-0.085	0.089
-597.040	-177.218	0.222	0.006
-596.025	-95.267	0.266	-0.072
-595.011	-74.429	0.087	-0.032
-593.996	-24.633	-0.146	0.088
-592.982	32.496	0.135	0.118
-591.967	-200.000	0.014	0.159
-590.952	800.000	0.102	-0.289
-589.938	-125.273	-0.194	0.030
-588.923	50.377	-0.251	0.239
-587.909	-46.284	0.267	0.132
-586.894	-60.714	0.288	0.123
-585.879	-140.906	0.051	-0.005
-584.865	-67.573	0.322	0.127
-583.850	458.428	0.072	-0.161
-582.836	4.084	-0.090	0.066
-581.821	250.110	-0.071	-0.121
-580.806	800.000	-0.073	0.257
-579.792	27.452	-0.127	0.108
-578.777	-200.000	0.045	0.221
-577.763	-66.583	0.069	0.028
-576.748	106.136	-0.047	-0.057
-575.733	-200.000	-0.004	-0.159
-574.719	-90.625	-0.120	-0.035
-573.704	10.548	0.075	0.058
-572.690	-200.000	-0.008	-0.334
-571.675	92.468	0.146	0.166
-570.661	92.042	-0.128	-0.145
-569.646	129.154	-0.114	-0.146
-568.631	-78.839	0.256	0.088
-567.617	95.357	-0.070	0.081
-566.602	-107.576	0.284	0.063
-565.588	-43.415	-0.278	-0.141
-564.573	166.408	0.138	-0.197
-563.558	564.812	-0.045	0.110
-562.544	-12.514	0.314	0.206
-561.529	133.914	-0.112	0.146
-560.515	96.832	-0.057	0.065
-559.500	128.915	-0.082	-0.105
-558.485	-6.169	-0.086	0.059
-557.471	-128.740	-0.180	0.026
-556.456	-154.901	0.084	-0.006
-555.442	800.000	-0.015	-0.056
-554.427	800.000	-0.105	-0.359
-553.412	68.491	-0.084	-0.087
-552.398	600.360	0.119	-0.297
-551.383	-118.134	-0.233	0.042
-550.369	608.056	0.122	-0.305
-549.354	-200.000	0.019	0.250
-548.339	-98.255	-0.301	0.078
-547.325	-18.854	0.101	0.063
-546.310	-108.988	-0.321	-0.069
-545.296	-113.845	0.125	-0.024
-544.281	-200.000	0.081	0.457
-543.266	44.521	-0.088	-0.081
-542.252	-200.000	0.016	-0.170
-541.237	-32.403	0.113	-0.063
-540.223	-124.928	-0.128	0.020
-539.208	-128.324	-0.071	0.010
-538.193	0.210	-0.216	-0.155
-537.179	-18.962	-0.302	-0.189
-536.164	-118.287	0.162	0.029
-535.150	33.803	-0.110	0.096
-534.135	-31.074	0.155	-0.088
-533.121	800.000	-0.065	-0.184
-532.106	77.051	-0.197	-0.211
-531.091	-53.722	0.100	0.046
-530.077	34.524	-0.148	-0.130
-529.062	706.370	-0.024	0.063
-528.048	284.487	0.037	0.066
-527.033	-19.287	-0.111	0.070
-526.018	-181.294	-0.228	0.005
-525.004	385.912	0.150	-0.312
-523.989	0.101	0.118	0.085
-522.975	-79.345	0.183	0.062
-521.960	-200.000	-0.004	-0.285
-520.945	800.000	0.021	-0.088
-519.931	326.624	-0.129	-0.249
-518.916	-161.785	-0.336	-0.017
-517.902	-200.000	0.016	0.219
-516.887	-200.000	-0.009	-0.232
-515.872	-11.262	-0.333	-0.221
-514.858	377.417	-0.076	0.155
-513.843	-95.126	0.331	-0.090
-512.829	78.904	-0.159	-0.171
-511.814	-88.064	-0.328	0.099
-510.799	-146.405	0.193	0.017
-509.785	-148.185	-0.199	0.017
-508.770	-4.690	0.156	0.108
-507.756	33.784	0.077	-0.068
-506.741	393.290	0.124	0.260
-505.726	-200.000	0.011	-0.150
-504.712	-106.229	-0.245	-0.055
-503.697	157.218	-0.133	0.185
-502.683	-18.968	0.150	-0.094
-501.668	-200.000	0.014	0.215
-500.653	369.039	-0.043	0.087
-499.639	67.405	-0.367	-0.376
-498.624	-200.000	0.038	0.196
-497.610	404.610	-0.201	0.425
-496.595	-126.539	0.161	-0.024
-495.581	45.904	0.271	-0.252
-494.566	-95.489	-0.293	0.079
-493.551	-100.194	0.353	0.088
-492.537	-29.541	0.223	0.128
-491.522	-72.111	0.019	0.007
-490.508	-200.000	0.010	-0.123
-489.493	155.810	0.086	0.118
-488.478	40.065	-0.241	0.217
-487.464	55.244	0.145	0.141
-486.449	76.178	0.156	0.166
-485.435	-200.000	0.009	-0.338
-484.420	81.201	0.187	0.202
-483.405	179.774	-0.120	0.177
-482.391	-155.184	-0.391	-0.026
-481.376	32.620	-0.109	-0.095
-480.362	502.893	0.239	0.555
-479.347	-74.221	-0.328	-0.119
-478.332	750.977	0.078	-0.211
-477.318	61.877	-0.105	0.105
-476.303	20.393	-0.340	0.276
-475.289	-98.143	-0.168	0.043
-474.274	-86.964	0.045	0.014
-473.259	-7.501	-0.161	-0.109
-472.245	180.425	0.081	-0.119
-471.230	138.198	-0.126	0.166
-470.216	-200.000	0.013	0.399
-469.201	145.427	0.129	0.173
-468.186	-77.261	-0.051	-0.018
-467.172	-39.575	0.179	0.094
-466.157	-200.000	-0.027	0.131
-465.143	396.720	-0.122	0.255
-464.128	238.218	0.094	-0.156
-463.113	130.045	-0.018	0.023
-462.099	462.452	0.113	0.253
-461.084	271.206	-0.130	-0.229
-460.070	63.697	0.123	-0.123
-459.055	221.666	0.093	0.150
-458.040	-2.839	-0.067	0.047
-457.026	-50.307	0.211	-0.100
-456.011	-200.000	-0.000	0.065
-454.997	481.437	-0.108	0.246
-453.982	185.270	-0.147	-0.219
-452.968	-89.882	0.373	-0.109
-451.953	800.000	-0.047	-0.160
-450.938	435.491	-0.148	-0.322
-449.924	225.278	0.056	0.091
-448.909	577.747	0.051	-0.124
-447.895	-129.551	-0.141	-0.020
-446.880	258.589	-0.111	-0.192
-445.865	5.794	-0.267	0.198
-444.851	-35.824	0.228	0.123
-443.836	800.000	-0.075	-0.308
-442.822	279.669	-0.109	0.195
-441.807	-200.000	-0.027	0.511
-440.792	6.864	0.167	-0.125
-439.778	-43.527	-0.041	0.021
-438.763	-21.845	0.052	-0.032
-437.749	82.424	0.159	-0.173
-436.734	-200.000	0.007	0.056
-435.719	57.188	0.197	-0.193
-434.705	-200.000	0.040	0.396
-433.690	-128.849	0.233	-0.033
-432.676	-51.853	0.058	-0.027
-431.661	270.291	-0.094	0.165
-430.646	-197.541	0.035	-0.000
-429.632	-49.318	0.136	0.065
-428.617	-200.000	0.011	0.227
-427.603	800.000	0.108	0.326
-426.588	-200.000	-0.008	-0.250
-425.573	64.142	-0.099	-0.099
-424.559	-141.636	0.238	0.024
-423.544	-23.074	-0.160	-0.097
-422.530	-100.441	0.202	0.050
-421.515	360.426	-0.039	-0.079
-420.500	23.712	-0.257	0.212
-419.486	-200.000	0.024	-0.143
-418.471	800.000	0.030	-0.086
-417.457	-200.000	-0.091	0.413
-416.442	103.183	0.407	0.477
-415.428	386.712	-0.176	0.364
-414.413	-66.243	-0.201	0.080
-413.398	194.566	0.122	0.186
-412.384	-7.741	0.220	0.149
-411.369	-129.878	0.180	0.025
-410.355	-99.061	-0.199	-0.050
-409.340	52.670	0.153	0.146
-408.325	-80.772	0.050	-0.017
-407.311	121.790	-0.184	0.230
-406.296	353.732	0.033	0.065
-405.282	233.784	-0.126	-0.208
-404.267	-200.000	0.014	0.316
-403.252	-25.223	0.267	0.158
-402.238	135.110	0.033	0.043
-401.223	257.868	0.030	0.052
-400.209	-129.650	-0.171	0.024
-399.194	-200.000	-0.020	0.285
-398.179	-66.121	-0.217	-0.087
-397.165	-1.218	0.059	-0.042
-396.150	-124.649	-0.198	-0.031
-395.136	-200.000	0.101	-0.506
-394.121	142.812	-0.106	-0.141
-393.106	-7.077	0.267	-0.182
-392.092	800.000	-0.073	0.217
-391.077	-200.000	-0.021	0.233
-390.063	-15.240	0.149	-0.096
-389.048	331.784	-0.085	-0.165
-388.033	217.062	-0.058	0.092
-387.019	47.943	-0.087	0.082
-386.004	99.448	-0.194	0.224
-384.990	247.957	0.069	-0.117
-383.975	-115.011	0.053	-0.010
-382.960	-72.225	0.156	-0.058
-381.946	800.000	-0.022	-0.095
-380.931	-24.456	-0.177	0.105
-379.917	-200.000	-0.024	0.168
-378.902	-64.992	0.234	0.095
-377.888	-95.577	0.259	-0.069
-376.873	268.572	0.037	0.064
-375.858	-150.538	-0.187	0.014
-374.844	-200.000	-0.034	-0.263
-373.829	-181.236	0.131	-0.003
-372.815	-102.658	0.193	-0.046
-371.800	-200.000	-0.036	-0.261
-370.785	-34.420	0.343	-0.188
-369.771	-19.345	0.413	-0.256
-368.756	-90.203	0.279	-0.081
-367.742	41.067	0.143	-0.129
-366.727	-20.800	0.219	0.134
-365.712	-46.346	-0.055	0.027
-364.698	474.546	-0.146	0.329
-363.683	-200.000	-0.039	-0.308
-362.669	33.605	0.238	0.206
-361.654	160.193	0.139	-0.194
-360.639	-200.000	-0.010	0.232
-359.625	-180.381	0.282	0.006
-358.610	-200.000	0.034	0.349
-357.596	96.119	-0.242	0.276
-356.581	222.399	-0.020	0.033
-355.566	800.000	0.097	-0.323
-354.552	775.850	0.086	-0.234
-353.537	2.806	-0.134	0.097
-352.523	-188.623	0.229	0.003
-351.508	512.623	0.069	-0.161
-350.493	-200.000	0.010	-0.183
-349.479	800.000	0.057	-0.196
-348.464	252.734	-0.125	0.212
-347.450	54.910	0.397	0.382
-346.435	260.993	-0.173	0.300
-345.420	365.602	-0.143	-0.287
-344.406	252.311	0.134	0.228
-343.391	7.546	0.273	-0.204
-342.377	87.148	-0.174	0.192
-341.362	477.294	-0.054	-0.122
-340.348	-200.000	0.041	-0.256
-339.333	-155.872	0.083	0.005
-338.318	-156.537	-0.296	-0.018
-337.304	81.411	-0.383	-0.414
-336.289	-66.802	-0.145	0.057
-335.275	-37.427	0.219	-0.117
-334.260	-200.000	0.074	-0.463
-333.245	-200.000	0.031	-0.138
-332.231	240.447	-0.137	-0.229
-331.216	127.487	0.171	0.217
-330.202	-167.800	0.185	-0.007
-329.187	-148.153	0.010	0.001
-328.172	-38.038	0.017	0.009
-327.158	-181.728	-0.112	0.002
-326.143	768.777	-0.039	0.107
-325.129	800.000	0.049	0.144
-324.114	-50.937	0.123	0.057
-323.099	-122.965	0.147	-0.024
-322.085	41.590	-0.236	0.213
-321.070	728.239	0.007	-0.019
-320.056	-54.710	0.134	0.060
-319.041	28.396	-0.137	-0.116
-318.026	10.613	-0.244	0.186
-317.012	-200.000	-0.025	0.125
-315.997	-83.047	0.156	-0.050
-314.983	-58.710	-0.352	0.152
-313.968	-30.426	-0.071	-0.040
-312.953	800.000	-0.098	0.282
-311.939	-8.001	-0.169	-0.114
-310.924	800.000	-0.049	0.169
-309.910	-90.539	-0.149	0.043
-308.895	-3.842	0.169	0.117
-307.880	639.075	-0.079	-0.201
-306.866	-200.000	-0.039	0.367
-305.851	-73.194	0.306	0.112
-304.837	5.873	-0.361	-0.266
-303.822	-143.393	0.092	0.009
-302.807	176.719	-0.200	-0.290
-301.793	-16.601	0.215	-0.136
-300.778	245.221	0.154	0.258
-299.764	-44.849	0.073	-0.036
-298.749	-45.373	-0.047	0.023
-297.735	800.000	-0.106	-0.389
-296.720	272.761	0.102	-0.180
-295.705	161.627	-0.101	-0.141
-294.691	558.859	0.148	0.356
-293.676	-60.665	-0.043	0.018
-292.662	-133.656	0.233	-0.029
-291.647	-200.000	0.051	-0.230
-290.632	272.142	0.046	0.080
-289.618	-200.000	-0.029	0.182
-288.603	-107.756	0.316	0.069
-287.589	78.862	-0.264	-0.281
-286.574	380.935	0.082	0.167
-285.559	-200.000	-0.028	0.482
-284.545	-200.000	-0.006	0.241
-283.530	-200.000	0.027	-0.200
-282.516	212.422	-0.105	0.165
-281.501	-200.000	0.038	0.167
-280.486	68.873	-0.077	-0.079
-279.472	102.268	0.155	0.180
-278.457	-68.958	0.152	0.058
-277.443	239.835	0.142	0.236
-276.428	-29.122	0.136	0.077
-275.413	800.000	0.104	-0.401
-274.399	148.376	-0.204	-0.274
-273.384	315.145	-0.086	-0.162
-272.370	-44.425	-0.153	0.076
-271.355	800.000	0.062	-0.206
-270.340	138.753	-0.270	-0.353
-269.326	-102.613	0.135	0.032
-268.311	194.566	0.230	-0.347
-267.297	-131.472	0.324	0.043
-266.282	-19.830	0.122	-0.075
-265.267	-200.000	-0.015	-0.071
-264.253	-66.402	0.334	0.132
-263.238	422.796	-0.178	-0.380
-262.224	555.865	-0.113	-0.272
-261.209	-88.043	0.281	-0.084
-260.195	182.036	0.188	0.276
-259.180	99.253	0.028	-0.033
-258.165	-62.166	-0.059	-0.025
-257.151	800.000	-0.068	0.239
-256.136	800.000	-0.129	0.412
-255.122	-31.902	0.107	-0.060
-254.107	538.297	0.188	-0.444
-253.092	15.094	-0.075	-0.059
-252.078	186.912	-0.187	0.277
-251.063	385.519	0.195	-0.399
-250.049	800.000	-0.094	-0.353
-249.034	240.066	0.193	0.319
-248.019	94.747	0.244	-0.276
-247.005	-200.000	0.012	0.064
-245.990	342.403	-0.074	-0.144
-244.976	168.598	0.081	0.115
-243.961	-114.711	0.066	-0.013
-242.946	-200.000	0.017	-0.261
-241.932	-76.130	0.144	0.051
-240.917	774.691	-0.121	-0.327
-239.903	138.066	0.172	-0.224
-238.888	-129.542	-0.018	0.003
-237.873	42.295	0.185	0.167
-236.859	203.534	0.046	-0.071
-235.844	18.387	0.001	0.001
-234.830	-67.657	0.192	-0.075
-233.815	-3.864	0.154	-0.106
-232.800	-76.533	-0.271	0.095
-231.786	-140.942	-0.320	0.033
-230.771	-146.015	0.181	0.016
-229.757	78.806	-0.014	0.014
-228.742	102.058	-0.049	0.057
-227.727	-141.261	-0.075	-0.008
-226.713	-200.000	-0.038	-0.173
-225.698	69.167	-0.095	0.097
-224.684	542.994	0.175	-0.414
-223.669	-9.931	-0.280	-0.185
-222.655	-50.774	-0.220	-0.103
-221.640	647.965	-0.153	-0.388
-220.625	-142.270	0.272	0.027
-219.611	-136.017	0.166	0.019
-218.596	-200.000	-0.010	-0.205
-217.582	-66.650	-0.267	-0.105
-216.567	-90.848	-0.335	0.096
-215.552	193.068	0.200	-0.300
-214.538	-95.759	-0.297	-0.079
-213.523	-108.745	-0.417	0.089
-212.509	232.332	0.062	-0.102
-211.494	-128.410	0.473	-0.067
-210.479	18.460	-0.141	-0.112
-209.465	100.124	-0.193	0.222
-208.450	-22.779	-0.215	0.129
-207.436	800.000	-0.042	0.140
-206.421	86.454	0.119	-0.130
-205.406	-200.000	0.003	0.040
-204.392	-200.000	0.017	-0.121
-203.377	-75.089	0.103	0.037
-202.363	-104.738	0.207	-0.047
-201.348	-30.589	-0.288	0.162
-200.333	800.000	-0.128	0.467
-199.319	-200.000	0.033	-0.174
-198.304	-200.000	0.029	-0.220
-197.290	325.529	-0.130	0.247
-196.275	-96.662	-0.402	0.105
-195.260	497.650	0.173	0.396
-194.246	-18.856	-0.088	0.054
-193.231	800.000	-0.052	0.148
-192.217	75.465	0.228	0.239
-191.202	48.415	-0.122	-0.113
-190.187	30.862	-0.192	-0.163
-189.173	-74.802	-0.185	0.066
-188.158	-149.380	0.054	-0.004
-187.144	800.000	0.070	0.204
-186.129	-196.743	0.225	-0.001
-185.114	-200.000	-0.015	0.114
-184.100	73.805	-0.045	-0.047
-183.085	-66.591	0.091	-0.036
-182.071	-200.000	-0.024	0.145
-181.056	114.506	-0.180	0.217
-180.042	515.601	-0.115	0.266
-179.027	688.642	-0.138	-0.358
-178.012	-63.208	-0.455	0.186
-176.998	-200.000	0.010	-0.090
-175.983	-117.699	0.150	0.027
-174.969	330.094	0.144	0.276
-173.954	161.104	0.127	0.176
-172.939	145.726	0.182	-0.242
-171.925	293.372	0.057	0.103
-170.910	21.657	-0.173	-0.140
-169.896	-39.950	0.115	0.060
-168.881	90.676	0.259	-0.288
-167.866	-200.000	-0.001	0.155
-166.852	-72.936	0.141	0.051
-165.837	800.000	0.031	-0.089
-164.823	-200.000	0.001	0.165
-163.808	19.601	-0.333	-0.265
-162.793	149.875	-0.096	-0.129
-161.779	247.147	-0.139	-0.233
-160.764	21.085	-0.175	-0.141
-159.750	112.268	0.212	-0.254
-158.735	-200.000	0.012	0.282
-157.720	800.000	0.039	-0.163
-156.706	-124.093	0.064	0.010
-155.691	-105.909	0.020	-0.004
-154.677	-84.583	0.257	0.080
-153.662	800.000	0.165	0.574
-152.647	-200.000	-0.093	0.448
-151.633	-106.729	0.286	-0.063
-150.618	-148.587	0.210	-0.017
-149.604	641.951	0.166	-0.419
-148.589	-119.593	0.290	0.050
-147.574	-158.282	-0.242	0.014
-146.560	-86.354	-0.256	-0.078
-145.545	129.179	-0.144	-0.182
-144.531	113.546	-0.052	-0.062
-143.516	-49.790	0.131	0.062
-142.502	-200.000	0.000	0.127
-141.487	-62.800	-0.383	0.157
-140.472	91.049	0.041	0.045
-139.458	546.080	0.078	-0.184
-138.443	-200.000	0.014	0.110
-137.429	102.206	-0.066	0.077
-136.414	800.000	0.083	-0.297
-135.399	-92.424	0.293	-0.082
-134.385	-200.000	-0.194	-0.001
-133.370	90.150	0.123	0.137
-132.356	476.626	-0.255	0.571
-131.341	-11.526	0.082	0.053
-130.326	-0.313	0.284	0.200
-129.312	-200.000	0.102	-0.000
-128.297	348.671	0.069	-0.135
-127.283	49.614	0.260	0.243
-126.268	-5.839	0.181	-0.122
-125.253	-4.668	0.081	0.055
-124.239	-128.486	-0.286	0.040
-123.224	118.365	-0.011	-0.013
-122.210	-44.473	0.304	0.151
-121.195	239.433	-0.120	0.198
-120.180	-200.000	0.061	0.283
-119.166	16.810	-0.274	0.215
-118.151	-89.437	-0.220	0.064
-117.137	-149.757	-0.139	-0.011
-116.122	395.292	-0.056	-0.116
-115.107	208.490	-0.078	0.120
-114.093	346.057	0.113	0.220
-113.078	-156.007	-0.362	0.023
-112.064	-30.233	0.165	0.093
-111.049	-166.501	-0.212	-0.009
-110.034	77.808	-0.318	-0.335
-109.020	-24.633	0.360	-0.212
-108.005	-198.867	0.094	-0.001
-106.991	226.000	0.026	0.042
-105.976	34.214	0.096	0.082
-104.962	-74.597	-0.197	0.070
-103.947	-116.981	0.120	0.022
-102.932	58.836	-0.321	-0.312
-101.918	-141.478	0.300	-0.030
-100.903	-91.322	0.238	-0.067
-99.889	-77.381	0.153	0.053
-98.874	800.000	0.031	-0.121
-97.859	45.774	0.274	0.250
-96.845	-22.101	0.366	-0.220
-95.830	-108.556	0.226	-0.048
-94.816	-108.955	0.141	0.030
-93.801	2.991	0.037	0.026
-92.786	-44.076	-0.221	0.110
-91.772	800.000	0.037	0.158
-90.757	767.509	0.036	-0.098
-89.743	35.020	-0.135	-0.117
-88.728	99.423	-0.226	-0.258
-87.713	-90.271	0.421	0.121
-86.699	-123.108	0.570	0.090
-85.684	-78.748	0.116	-0.039
-84.670	-81.589	-0.251	-0.082
-83.655	-18.194	0.326	-0.201
-82.640	93.646	-0.123	-0.138
-81.626	4.274	-0.321	-0.232
-80.611	-75.361	0.293	-0.103
-79.597	-93.952	-0.079	-0.022
-78.582	343.365	-0.140	0.270
-77.567	53.715	0.080	-0.076
-76.553	-200.000	0.004	0.184
-75.538	23.242	0.240	0.195
-74.524	-22.058	0.173	0.104
-73.509	137.648	0.099	-0.128
-72.494	-93.752	0.080	-0.022
-71.480	-200.000	0.006	0.246
-70.465	234.791	0.119	-0.194
-69.451	103.518	0.093	-0.107
-68.436	-4.380	0.014	-0.010
-67.422	337.067	0.018	0.035
-66.407	117.670	0.184	0.223
-65.392	-200.000	0.021	-0.107
-64.378	188.052	0.156	0.230
-63.363	-1.621	-0.126	0.088
-62.349	258.019	0.070	0.118
-61.334	169.668	-0.724	-1.021
-60.319	17.454	0.347	0.272
-59.305	440.147	-0.384	-0.828
-58.290	113.158	0.791	0.946
-57.276	-200.000	0.400	1.823
-56.261	-200.000	87.477	507.275
-55.246	480.653	1376.968	3083.041
-54.232	150.024	2587.399	3463.646
-53.217	107.636	2324.513	2730.836
-52.203	46.919	1939.572	1779.475
-51.188	41.057	1730.244	1542.105
-50.173	38.280	1686.217	1481.796
-49.159	53.110	1730.195	1634.579
-48.144	57.048	1748.535	1682.076
-47.130	41.004	1706.912	1520.668
-46.115	37.973	1692.554	1484.790
-45.100	37.719	1687.877	1478.698
-44.086	37.815	1685.000	1476.847
-43.071	37.742	1681.878	1473.501
-42.057	37.712	1679.722	1471.325
-41.042	37.767	1677.913	1470.099
-40.027	37.759	1676.260	1468.530
-39.013	37.752	1674.294	1466.697
-37.998	37.668	1672.809	1464.705
-36.984	37.678	1671.049	1463.184
-35.969	37.864	1669.346	1463.027
-34.954	37.954	1667.659	1462.167
-33.940	37.821	1665.614	1459.323
-32.925	37.930	1663.945	1458.614
-31.911	37.931	1662.165	1457.007
-30.896	37.917	1660.354	1455.253
-29.881	37.874	1658.610	1453.346
-28.867	37.889	1657.071	1452.052
-27.852	37.824	1656.254	1450.798
-26.838	37.857	1654.631	1449.562
-25.823	37.874	1653.505	1448.647
-24.809	37.917	1651.964	1447.559
-23.794	37.939	1650.661	1446.518
-22.779	37.916	1648.377	1444.295
-21.765	37.849	1647.418	1442.898
-20.750	37.814	1645.833	1441.197
-19.736	37.971	1644.072	1440.752
-18.721	37.920	1642.976	1439.363
-17.706	37.860	1641.484	1437.551
-16.692	37.823	1640.078	1435.993
-15.677	37.878	1638.575	1435.023
-14.663	37.951	1637.360	1434.440
-13.648	37.923	1635.687	1432.716
-12.633	37.838	1634.276	1430.793
-11.619	37.900	1632.804	1429.908
-10.604	38.027	1631.078	1429.266
-9.590	37.955	1630.232	1427.940
-8.575	38.003	1628.973	1427.134
-7.560	37.918	1627.902	1425.519
-6.546	37.903	1626.512	1424.135
-5.531	37.879	1625.199	1422.750
-4.517	37.942	1623.850	1421.973
-3.502	37.757	1623.575	1420.326
-2.487	37.925	1621.748	1419.900
-1.473	37.518	1609.447	1406.132
-0.458	34.405	1588.259	1365.315
0.556	27.909	1586.890	1326.105
1.571	25.122	1609.638	1324.444
2.586	24.227	1623.403	1328.982
3.600	23.135	1575.590	1281.815
4.615	19.950	1475.623	1178.731
5.629	16.510	1415.206	1107.873
6.644	15.658	1406.950	1095.760
7.659	15.588	1405.732	1094.259
8.673	15.677	1404.092	1093.462
9.688	15.487	1402.859	1091.175
10.702	15.478	1399.623	1088.504
11.717	16.973	1401.944	1099.912
12.731	19.621	1406.461	1120.555
13.746	19.552	1404.955	1118.814
14.761	17.588	1399.990	1102.067
15.775	16.322	1396.470	1091.025
16.790	15.243	1394.200	1082.193
17.804	14.321	1391.830	1074.307
18.819	13.899	1390.136	1070.187
19.834	13.481	1388.770	1066.350
20.848	13.247	1387.593	1063.847
21.863	12.950	1386.487	1060.992
22.877	12.842	1384.717	1058.853
23.892	12.816	1383.914	1057.976
24.907	12.709	1383.194	1056.649
25.921	12.843	1382.025	1056.520
26.936	12.832	1381.224	1055.745
27.950	12.918	1379.944	1055.220
28.965	12.925	1379.387	1054.747
29.980	12.932	1378.061	1053.683
30.994	13.004	1376.573	1052.913
32.009	13.142	1375.083	1052.557
33.023	13.074	1373.843	1051.083
34.038	13.042	1372.852	1050.027
35.053	12.988	1371.693	1048.709
36.067	12.988	1370.093	1047.388
37.082	13.041	1369.023	1046.814
38.096	13.017	1367.961	1045.760
39.111	13.047	1367.284	1045.340
40.126	13.016	1366.708	1044.610
41.140	12.854	1365.663	1042.697
42.155	12.858	1364.920	1042.063
43.169	12.789	1364.962	1041.562
44.184	12.743	1364.679	1040.963
45.199	12.759	1364.229	1040.632
46.213	12.896	1363.457	1040.812
47.228	12.871	1362.704	1039.992
48.242	12.893	1361.617	1039.208
49.257	12.886	1359.872	1037.740
50.271	12.882	1358.218	1036.360
51.286	12.919	1356.789	1035.409
52.301	12.999	1355.299	1034.686
53.315	12.905	1354.849	1033.662
54.330	12.907	1353.280	1032.382
55.344	12.858	1352.190	1031.154
56.359	12.813	1351.229	1030.052
57.374	12.785	1350.078	1028.907
58.388	12.795	1349.723	1028.608
59.403	12.736	1349.556	1028.020
60.417	12.734	1348.781	1027.329
61.432	12.707	1347.526	1026.110
62.447	12.657	1346.591	1024.998
63.461	12.563	1345.747	1023.676
64.476	12.609	1344.843	1023.188
65.490	12.694	1343.384	1022.513
66.505	12.695	1341.601	1021.074
67.520	12.757	1339.838	1020.025
68.534	12.737	1339.538	1019.581
69.549	12.754	1338.345	1018.686
70.563	12.688	1337.027	1017.185
71.578	12.636	1336.227	1016.168
72.593	12.581	1335.214	1014.972
73.607	12.516	1334.866	1014.212
74.622	12.577	1333.857	1013.731
75.636	12.618	1332.763	1013.063
76.651	12.559	1332.296	1012.254
77.666	12.626	1331.853	1012.245
78.680	12.648	1331.104	1011.719
79.695	12.707	1330.383	1011.444
80.709	12.639	1329.683	1010.407
81.724	12.773	1328.700	1010.388
82.739	12.751	1327.529	1009.275
83.753	12.768	1326.806	1008.741
84.768	12.882	1325.802	1008.588
85.782	12.954	1324.683	1008.082
86.797	12.872	1323.404	1006.521
87.812	12.808	1322.066	1005.024
88.826	12.846	1320.669	1004.105
89.841	12.932	1319.776	1003.859
90.855	12.852	1319.190	1002.842
91.870	12.959	1317.955	1002.464
92.884	12.932	1317.295	1001.709
93.899	12.937	1316.762	1001.244
94.914	13.118	1315.492	1001.285
95.928	13.028	1314.511	999.909
96.943	13.012	1313.931	999.282
97.957	12.950	1312.840	997.985
98.972	12.925	1311.724	996.901
99.987	12.952	1310.654	996.161
101.001	12.949	1309.685	995.318
102.016	12.956	1308.594	994.446
103.030	12.999	1307.411	993.715
104.045	12.925	1306.575	992.549
105.060	12.915	1305.307	991.436
106.074	12.789	1304.178	989.731
107.089	12.775	1302.645	988.399
108.103	12.804	1301.271	987.445
109.118	12.783	1299.816	986.128
110.133	12.745	1298.703	984.966
111.147	12.893	1297.000	984.469
112.162	12.805	1296.223	983.271
113.176	12.826	1294.916	982.318
114.191	12.801	1294.147	981.496
115.206	12.854	1292.750	980.668
116.220	12.849	1291.188	979.367
117.235	12.805	1290.139	978.219
118.249	12.721	1289.453	977.118
119.264	12.826	1288.144	976.660
120.279	12.858	1287.348	976.162
121.293	12.812	1285.795	974.625
122.308	12.791	1285.155	973.927
123.322	12.893	1283.918	973.508
124.337	12.757	1282.922	971.862
125.352	12.731	1282.011	970.936
126.366	12.724	1281.003	970.046
127.381	12.813	1279.628	969.439
128.395	12.847	1278.416	968.639
129.410	12.811	1277.448	967.608
130.424	12.893	1276.674	967.415
131.439	12.899	1275.664	966.600
132.454	12.787	1275.219	965.522
133.468	12.870	1274.101	965.072
134.483	12.870	1273.308	964.390
135.497	13.026	1272.174	964.356
136.512	12.904	1270.563	962.337
137.527	12.950	1269.566	961.764
138.541	12.856	1268.309	960.181
139.556	12.928	1267.300	959.752
140.570	12.926	1265.872	958.570
141.585	12.939	1264.335	957.399
142.600	13.038	1263.398	957.180
143.614	13.103	1262.637	956.893
144.629	13.115	1261.015	955.652
145.643	13.043	1260.471	954.739
146.658	13.063	1259.035	953.679
147.673	12.932	1257.970	952.031
148.687	12.994	1256.093	950.886
149.702	12.983	1254.810	949.768
150.716	12.892	1253.902	948.470
151.731	12.921	1252.663	947.617
152.746	13.038	1250.981	946.930
153.760	13.004	1250.028	945.931
154.775	12.928	1249.002	944.640
155.789	13.069	1247.674	944.358
156.804	13.040	1247.053	943.636
157.819	13.088	1245.613	942.738
158.833	13.105	1245.090	942.357
159.848	13.210	1244.216	942.211
160.862	13.143	1243.059	940.868
161.877	13.028	1241.754	939.144
162.892	13.055	1240.697	938.413
163.906	12.966	1240.178	937.434
164.921	13.066	1238.524	936.665
165.935	13.053	1238.421	936.435
166.950	13.018	1237.263	935.274
167.964	13.056	1236.464	934.803
168.979	13.132	1235.796	934.645
169.994	13.097	1234.820	933.629
171.008	13.144	1234.292	933.411
172.023	13.241	1233.370	933.179
173.037	13.306	1232.606	932.887
174.052	13.207	1231.790	931.627
175.067	13.161	1230.595	930.383
176.081	13.165	1229.467	929.468
177.096	13.053	1228.762	928.226
178.110	13.144	1228.015	928.088
179.125	13.235	1226.506	927.374
180.140	13.222	1225.083	926.145
181.154	13.257	1224.241	925.625
182.169	13.200	1222.615	923.993
183.183	13.337	1221.529	923.858
184.198	13.365	1220.578	923.213
185.213	13.334	1219.461	922.111
186.227	13.273	1218.435	920.914
187.242	13.344	1217.187	920.283
188.256	13.418	1216.078	919.778
189.271	13.480	1215.147	919.334
190.286	13.368	1213.958	917.732
191.300	13.274	1213.241	916.587
192.315	13.136	1212.863	915.455
193.329	13.197	1212.245	915.245
194.344	13.167	1211.673	914.567
195.359	13.265	1210.953	914.485
196.373	13.352	1210.480	914.528
197.388	13.455	1209.836	914.529
198.402	13.462	1209.761	914.431
199.417	13.617	1208.770	914.457
200.432	13.622	1207.903	913.750
201.446	13.563	1206.943	912.616
202.461	13.699	1205.958	912.539
203.475	13.574	1205.308	911.282
204.490	13.566	1203.827	910.037
205.504	13.509	1202.440	908.591
206.519	13.609	1201.353	908.237
207.534	13.556	1200.258	907.042
208.548	13.529	1199.645	906.350
209.563	13.587	1198.364	905.618
210.577	13.656	1197.561	905.307
211.592	13.619	1196.746	904.412
212.607	13.641	1195.737	903.687
213.621	13.657	1194.930	903.087
214.636	13.714	1193.995	902.608
215.650	13.724	1193.579	902.269
216.665	13.703	1192.446	901.217
217.680	13.839	1191.696	901.312
218.694	13.790	1190.731	900.236
219.709	13.807	1189.949	899.657
220.723	13.827	1189.055	899.010
221.738	13.813	1188.268	898.261
222.753	13.819	1187.612	897.716
223.767	13.842	1186.831	897.171
224.782	13.820	1186.407	896.650
225.796	13.880	1186.045	896.621
226.811	13.872	1184.975	895.694
227.826	13.930	1184.214	895.348
228.840	13.833	1183.722	894.376
229.855	13.943	1182.582	894.026
230.869	13.877	1182.216	893.317
231.884	13.868	1181.071	892.325
232.899	13.920	1180.254	891.905
233.913	13.861	1179.769	891.142
234.928	13.893	1178.654	890.396
235.942	13.741	1178.250	889.199
236.957	13.776	1177.431	888.689
237.972	13.845	1176.674	888.405
238.986	13.932	1176.307	888.517
240.001	13.964	1175.383	887.913
241.015	13.910	1174.159	886.619
242.030	13.888	1173.442	885.880
243.045	14.042	1172.668	886.038
244.059	14.051	1171.698	885.275
245.074	14.059	1171.061	884.760
246.088	14.030	1170.584	884.169
247.103	14.140	1169.674	883.987
248.117	14.135	1169.047	883.406
249.132	14.294	1167.683	883.140
250.147	14.178	1167.632	882.408
251.161	14.387	1166.709	882.740
252.176	14.206	1166.139	881.273
253.190	14.355	1165.596	881.576
254.205	14.497	1164.682	881.557
255.220	14.467	1164.122	880.893
256.234	14.395	1163.636	880.068
257.249	14.465	1162.807	879.732
258.263	14.504	1161.824	879.119
259.278	14.472	1161.325	878.495
260.293	14.471	1160.906	878.096
261.307	14.533	1160.502	878.039
262.322	14.577	1159.763	877.632
263.336	14.506	1159.184	876.741
264.351	14.622	1158.335	876.631
265.366	14.644	1157.425	875.983
266.380	14.620	1157.416	875.770
267.395	14.636	1155.951	874.669
268.409	14.676	1155.243	874.268
269.424	14.674	1154.891	873.912
270.439	14.510	1154.566	872.727
271.453	14.616	1153.496	872.400
272.468	14.523	1152.567	871.133
273.482	14.551	1151.885	870.684
274.497	14.540	1151.559	870.306
275.512	14.669	1150.316	869.963
276.526	14.698	1149.470	869.397
277.541	14.637	1148.885	868.556
278.555	14.587	1148.835	868.186
279.570	14.583	1148.015	867.465
280.585	14.732	1146.694	867.163
281.599	14.761	1145.692	866.482
282.614	14.770	1144.723	865.718
283.628	14.894	1143.359	865.253
284.643	14.872	1142.419	864.349
285.657	14.745	1142.195	863.445
286.672	14.922	1140.960	863.352
287.687	14.905	1139.918	862.397
288.701	14.792	1139.610	861.507
289.716	14.916	1138.685	861.369
290.730	14.857	1137.827	860.342
291.745	14.769	1137.940	859.898
292.760	14.911	1137.054	859.882
293.774	14.975	1136.134	859.438
294.789	14.935	1135.868	858.958
295.803	14.933	1134.755	858.029
296.818	14.980	1134.128	857.721
297.833	14.928	1133.731	857.079
298.847	14.936	1132.767	856.313
299.862	14.982	1131.778	855.724
300.876	15.056	1131.373	855.723
301.891	15.039	1130.474	854.880
302.906	15.027	1129.976	854.365
303.920	15.135	1129.220	854.270
304.935	15.184	1128.133	853.621
305.949	15.184	1127.751	853.259
306.964	15.229	1127.186	852.980
307.979	15.241	1125.972	852.051
308.993	15.217	1125.482	851.482
310.008	15.333	1124.272	851.078
311.022	15.267	1123.730	850.261
312.037	15.353	1123.003	850.067
313.052	15.204	1122.129	848.577
314.066	15.083	1121.182	847.175
315.081	15.089	1120.345	846.500
316.095	15.192	1119.616	846.394
317.110	15.080	1119.104	845.366
318.125	15.167	1118.297	845.118
319.139	15.166	1117.541	844.471
320.154	15.169	1116.936	843.953
321.168	15.225	1115.841	843.330
322.183	15.186	1115.630	842.901
323.197	15.194	1115.193	842.537
324.212	15.290	1114.457	842.389
325.227	15.248	1113.969	841.733
326.241	15.295	1113.359	841.434
327.256	15.449	1112.306	841.337
328.270	15.355	1111.388	840.097
329.285	15.249	1110.577	838.880
330.300	15.241	1109.926	838.275
331.314	15.313	1108.422	837.421
332.329	15.333	1107.867	837.027
333.343	15.360	1107.195	836.581
334.358	15.416	1106.016	835.895
335.373	15.454	1105.492	835.615
336.387	15.417	1104.607	834.686
337.402	15.453	1103.460	833.928
338.416	15.400	1103.649	833.731
339.431	15.537	1102.438	833.420
340.446	15.598	1101.886	833.237
341.460	15.620	1101.149	832.712
342.475	15.802	1099.814	832.530
343.489	15.699	1098.864	831.230
344.504	15.692	1098.235	830.645
345.519	15.622	1097.450	829.632
346.533	15.722	1096.678	829.467
347.548	15.843	1095.776	829.306
348.562	15.790	1095.045	828.422
349.577	15.719	1094.448	827.549
350.592	15.650	1093.914	826.732
351.606	15.587	1093.098	825.732
352.621	15.682	1092.556	825.714
353.635	15.676	1091.524	824.832
354.650	15.648	1090.897	824.150
355.665	15.783	1090.084	824.124
356.679	15.684	1089.473	823.105
357.694	15.824	1088.844	823.241
358.708	15.861	1088.322	822.952
359.723	15.882	1087.510	822.370
360.738	15.839	1086.703	821.476
361.752	15.773	1086.878	821.216
362.767	16.009	1085.196	821.022
363.781	15.897	1084.984	820.240
364.796	15.878	1084.741	819.890
365.810	15.969	1084.185	819.845
366.825	16.043	1083.644	819.723
367.840	16.148	1082.865	819.571
368.854	16.175	1082.046	819.007
369.869	16.124	1081.418	818.213
370.883	16.216	1080.157	817.634
371.898	16.054	1079.953	816.621
372.913	16.202	1079.410	816.854
373.927	16.100	1078.929	815.922
374.942	16.207	1078.055	815.708
375.956	16.119	1078.104	815.246
376.971	16.100	1077.607	814.709
377.986	16.213	1076.835	814.599
379.000	16.227	1076.265	814.161
380.015	16.331	1075.455	813.981
381.029	16.315	1074.881	813.395
382.044	16.292	1074.217	812.711
383.059	16.214	1073.650	811.834
384.073	16.299	1072.167	811.048
385.088	16.443	1071.398	811.088
386.102	16.344	1070.685	809.999
387.117	16.250	1069.917	808.898
388.132	16.348	1068.780	808.437
389.146	16.313	1067.936	807.560
390.161	16.349	1067.180	807.086
391.175	16.360	1066.507	806.557
392.190	16.379	1066.146	806.304
393.205	16.534	1065.032	806.132
394.219	16.373	1064.930	805.217
395.234	16.321	1063.994	804.186
396.248	16.363	1062.766	803.389
397.263	16.287	1061.888	802.290
398.278	16.370	1060.919	801.884
399.292	16.350	1060.543	801.435
400.307	16.371	1059.432	800.623
401.321	16.306	1058.679	799.674
402.336	16.482	1057.951	799.885
403.350	16.414	1057.586	799.220
404.365	16.335	1057.006	798.334
405.380	16.465	1056.149	798.231
406.394	16.422	1055.389	797.383
407.409	16.471	1054.834	797.126
408.423	16.554	1053.791	796.658
409.438	16.702	1053.097	796.758
410.453	16.643	1052.461	795.930
411.467	16.693	1051.873	795.649
412.482	16.803	1051.255	795.628
413.496	16.683	1050.488	794.416
414.511	16.684	1050.009	793.988
415.526	16.769	1049.887	794.221
416.540	16.831	1049.161	793.892
417.555	16.850	1048.600	793.490
418.569	16.799	1047.970	792.702
419.584	16.849	1047.459	792.478
420.599	16.882	1046.837	792.091
421.613	93.477	1308.740	1415.620
422.628	85.899	1346.896	1415.736
