DTS Sentinel unit serial number:	SN413079Multiplexer serial number:	ORYXHardware model number:	OX4-SRSoftware version number:	ORYX F/W v4.00 Oryx Data Collector v3.7.2.0data status	okinstallation	princeton_trtdifferential loss correction	single-endedforward channel	channel 2reverse channel	N/Adate	2019/09/12time	10:29:11forward acquisition time	60.00reverse acquisition time	0.00gamma	496.2192k internal	0.2312k external	0.2312temperature offset calibration	1.0071default loss term (dB/km)	0.3790temperature slope calibration	1.0000multiplexer offset coefficient	1.0000multiplexer slope coefficient	1.0000fibre end	0.00T internal ref (°C)	37.05T ext. ref 1 (°C)	1.87T ext. ref 2 (°C)	34.74length (m)	temperature (°C)	Stokes	anti-Stokes-747.200	-63.150	-0.077	-0.032
-746.185	263.781	-0.077	0.135
-745.171	-20.743	-0.158	-0.098
-744.156	77.788	0.189	-0.204
-743.142	-137.729	0.280	0.032
-742.127	111.488	0.115	0.141
-741.112	-94.123	-0.131	0.036
-740.098	137.294	-0.202	0.268
-739.083	247.707	-0.186	0.319
-738.069	26.009	0.196	0.166
-737.054	800.000	0.151	-0.493
-736.039	-200.000	-0.004	0.427
-735.025	-73.249	0.408	0.151
-734.010	165.939	-0.171	-0.245
-732.996	149.173	-0.088	-0.121
-731.981	-3.677	-0.241	0.170
-730.966	-169.824	0.117	0.004
-729.952	239.635	0.146	0.247
-728.937	235.747	0.126	0.211
-727.923	-167.288	0.188	0.008
-726.908	21.433	0.050	-0.041
-725.894	28.927	-0.235	0.202
-724.879	-200.000	-0.009	-0.342
-723.864	143.102	0.194	-0.261
-722.850	754.322	-0.013	-0.035
-721.835	452.754	-0.057	-0.129
-720.821	-200.000	0.047	0.242
-719.806	800.000	-0.031	-0.098
-718.791	-200.000	0.032	-0.215
-717.777	131.849	-0.045	-0.059
-716.762	-156.905	0.282	-0.018
-715.748	-200.000	-0.043	-0.217
-714.733	800.000	0.042	-0.119
-713.718	8.541	0.266	-0.203
-712.704	-100.216	-0.295	-0.074
-711.689	344.355	0.110	0.219
-710.675	-55.269	-0.254	-0.116
-709.660	-84.489	-0.047	-0.015
-708.645	19.343	-0.145	-0.118
-707.631	-54.345	0.354	-0.163
-706.616	-147.447	0.216	0.019
-705.602	-200.000	0.042	0.405
-704.587	148.091	0.185	0.253
-703.572	292.363	-0.039	0.072
-702.558	-122.691	0.285	-0.047
-701.543	-156.878	-0.169	0.011
-700.529	0.474	-0.136	0.099
-699.514	-127.087	-0.449	0.067
-698.499	656.570	-0.063	-0.163
-697.485	145.568	-0.095	0.130
-696.470	179.377	0.144	0.214
-695.456	-94.927	-0.200	0.055
-694.441	-200.000	-0.014	0.190
-693.426	389.387	-0.163	0.343
-692.412	-95.544	-0.148	-0.040
-691.397	-171.690	0.471	0.016
-690.383	113.597	0.124	-0.153
-689.368	-200.000	0.025	-0.482
-688.354	800.000	0.032	-0.102
-687.339	800.000	0.030	-0.100
-686.324	-51.124	0.096	-0.045
-685.310	-95.048	0.183	-0.050
-684.295	28.128	0.053	-0.045
-683.281	-72.687	0.203	-0.076
-682.266	107.571	-0.160	0.193
-681.251	-24.121	0.199	0.120
-680.237	-16.590	0.237	-0.152
-679.222	142.304	-0.042	0.056
-678.208	-168.056	-0.154	0.006
-677.193	-200.000	0.031	0.316
-676.178	-200.000	-0.031	-0.387
-675.164	48.569	-0.155	-0.147
-674.149	-25.450	-0.174	0.104
-673.135	209.818	0.014	0.022
-672.120	40.476	0.019	0.017
-671.105	539.250	-0.108	0.261
-670.091	-200.000	0.024	-0.121
-669.076	104.046	-0.164	0.195
-668.062	-97.661	0.102	-0.027
-667.047	-76.357	0.418	0.149
-666.032	-71.660	-0.020	-0.008
-665.018	61.059	-0.103	-0.103
-664.003	-96.470	0.139	0.037
-662.989	109.122	-0.224	-0.271
-661.974	-200.000	-0.021	-0.437
-660.959	-200.000	0.003	-0.037
-659.945	-200.000	0.024	-0.144
-658.930	8.117	-0.227	0.172
-657.916	272.699	-0.090	0.161
-656.901	158.523	0.162	-0.227
-655.886	-200.000	0.012	-0.195
-654.872	800.000	-0.080	-0.313
-653.857	-200.000	-0.016	0.115
-652.843	800.000	0.039	0.137
-651.828	116.207	-0.238	-0.295
-650.814	366.707	-0.053	0.108
-649.799	800.000	-0.069	0.213
-648.784	47.465	0.118	0.112
-647.770	-9.456	-0.156	-0.105
-646.755	23.271	-0.056	0.046
-645.741	-200.000	0.042	-0.285
-644.726	594.797	-0.057	0.142
-643.711	-41.127	0.169	0.088
-642.697	-57.500	-0.117	-0.052
-641.682	37.433	-0.366	0.328
-640.668	-200.000	-0.033	0.193
-639.653	156.715	-0.103	-0.144
-638.638	800.000	-0.032	-0.139
-637.624	-125.142	0.419	0.065
-636.609	595.933	-0.009	-0.022
-635.595	631.137	0.136	0.348
-634.580	-132.074	0.150	0.020
-633.565	-54.944	0.467	-0.213
-632.551	800.000	0.004	-0.013
-631.536	-136.822	-0.170	0.020
-630.522	-126.305	0.209	-0.031
-629.507	-200.000	0.003	-0.092
-628.492	800.000	0.082	-0.320
-627.478	48.353	-0.224	-0.211
-626.463	-174.000	0.494	0.015
-625.449	-16.422	0.304	-0.195
-624.434	-107.081	-0.176	-0.039
-623.419	-33.335	-0.405	-0.226
-622.405	677.351	-0.052	-0.137
-621.390	693.003	-0.050	-0.132
-620.376	51.474	0.017	-0.016
-619.361	-63.894	0.346	0.143
-618.346	137.358	-0.131	0.173
-617.332	-9.590	-0.287	-0.193
-616.317	538.327	0.075	-0.181
-615.303	-74.257	-0.140	0.051
-614.288	-200.000	-0.018	-0.080
-613.273	179.961	0.280	-0.414
-612.259	67.412	0.078	0.081
-611.244	800.000	0.125	0.459
-610.230	89.321	0.263	0.296
-609.215	45.262	0.153	0.142
-608.201	34.339	-0.029	-0.025
-607.186	800.000	-0.073	-0.223
-606.171	-121.349	0.186	0.031
-605.157	-122.942	0.222	-0.036
-604.142	-200.000	-0.047	0.258
-603.128	-132.607	0.144	0.019
-602.113	-18.153	0.181	-0.114
-601.098	4.081	0.147	-0.108
-600.084	-200.000	0.050	-0.229
-599.069	153.748	-0.109	-0.151
-598.055	71.264	-0.094	0.098
-597.040	-110.148	-0.166	0.035
-596.025	64.143	-0.142	0.144
-595.011	66.049	-0.214	-0.219
-593.996	-6.893	-0.264	0.181
-592.982	-112.039	0.276	0.056
-591.967	20.273	0.176	0.143
-590.952	800.000	0.068	0.280
-589.938	-150.159	-0.361	-0.028
-588.923	-150.732	0.286	0.022
-587.909	86.678	-0.185	0.206
-586.894	177.228	0.076	-0.112
-585.879	499.508	-0.095	-0.221
-584.865	-61.845	0.016	-0.007
-583.850	29.395	-0.165	-0.141
-582.836	83.276	0.077	0.085
-581.821	95.012	0.040	0.046
-580.806	13.277	-0.184	-0.144
-579.792	-8.588	-0.090	0.061
-578.777	288.762	-0.112	-0.205
-577.763	66.460	0.258	0.264
-576.748	171.410	0.301	-0.435
-575.733	800.000	-0.025	0.083
-574.719	457.286	-0.114	-0.254
-573.704	192.933	-0.114	-0.174
-572.690	109.429	0.070	-0.084
-571.675	169.771	0.208	-0.300
-570.661	-11.779	0.072	-0.048
-569.646	269.370	0.083	-0.147
-568.631	227.574	-0.165	0.271
-567.617	-200.000	0.046	0.394
-566.602	121.895	-0.056	0.070
-565.588	-200.000	0.034	0.371
-564.573	-121.337	-0.109	0.018
-563.558	47.217	0.139	0.130
-562.544	358.746	-0.177	0.357
-561.529	64.473	0.184	0.187
-560.515	-200.000	-0.018	0.255
-559.500	-140.411	-0.096	-0.010
-558.485	-36.974	-0.155	0.084
-557.471	-200.000	0.040	-0.246
-556.456	44.147	0.119	0.110
-555.442	-138.451	-0.152	0.017
-554.427	800.000	0.074	0.251
-553.412	-141.073	-0.232	0.024
-552.398	306.652	0.045	0.085
-551.383	-200.000	0.014	0.083
-550.369	800.000	-0.041	-0.132
-549.354	3.209	-0.216	-0.158
-548.339	-200.000	-0.007	-0.057
-547.325	-200.000	-0.027	-0.120
-546.310	-110.003	-0.233	0.049
-545.296	-130.679	0.197	0.027
-544.281	-200.000	-0.024	0.279
-543.266	158.299	0.220	-0.308
-542.252	-200.000	-0.003	0.148
-541.237	-200.000	0.045	-0.357
-540.223	105.821	-0.176	-0.209
-539.208	-98.756	-0.135	0.035
-538.193	-68.228	-0.076	-0.030
-537.179	-97.245	0.402	-0.106
-536.164	-200.000	-0.000	0.021
-535.150	-80.287	0.194	0.065
-534.135	-32.596	-0.317	-0.177
-533.121	280.226	0.124	-0.223
-532.106	668.494	0.150	-0.389
-531.091	-66.600	0.427	-0.171
-530.077	-200.000	-0.000	0.050
-529.062	-175.263	-0.226	-0.006
-528.048	68.598	-0.248	0.256
-527.033	542.821	-0.145	0.348
-526.018	-140.000	-0.188	-0.020
-525.004	-84.362	-0.153	-0.049
-523.989	-200.000	0.010	-0.188
-522.975	665.403	-0.106	0.276
-521.960	800.000	0.082	-0.297
-520.945	-200.000	0.036	-0.315
-519.931	357.525	0.093	-0.187
-518.916	402.129	-0.101	-0.214
-517.902	800.000	-0.039	-0.119
-516.887	71.727	-0.023	-0.024
-515.872	176.124	-0.178	-0.259
-514.858	223.380	-0.109	-0.176
-513.843	-135.387	-0.050	-0.006
-512.829	-62.016	0.206	-0.086
-511.814	-200.000	-0.030	-0.168
-510.799	107.542	-0.039	0.047
-509.785	-89.291	-0.338	0.100
-508.770	-200.000	0.004	0.419
-507.756	66.812	-0.120	-0.123
-506.741	-110.887	0.116	-0.024
-505.726	-193.521	-0.203	0.002
-504.712	172.710	0.167	0.242
-503.697	46.638	0.037	-0.035
-502.683	800.000	-0.031	0.134
-501.668	144.788	-0.239	0.321
-500.653	234.468	0.084	0.140
-499.639	-77.414	0.049	0.017
-498.624	762.602	-0.043	-0.117
-497.610	108.981	0.229	0.275
-496.595	57.167	0.125	-0.123
-495.581	486.596	-0.044	0.100
-494.566	-109.219	0.236	0.050
-493.551	-200.000	0.081	-0.360
-492.537	30.451	0.173	-0.149
-491.522	-200.000	-0.024	0.137
-490.508	-118.215	0.145	0.026
-489.493	-119.290	-0.122	0.021
-488.478	-146.824	0.144	-0.012
-487.464	800.000	0.089	-0.251
-486.449	79.398	-0.138	-0.149
-485.435	-102.112	-0.172	0.042
-484.420	-99.174	-0.303	0.077
-483.405	315.115	0.174	0.330
-482.391	14.414	0.235	-0.184
-481.376	-23.849	0.413	0.248
-480.362	-200.000	0.002	0.111
-479.347	-152.854	0.246	-0.018
-478.332	-200.000	-0.049	-0.257
-477.318	370.151	0.128	0.261
-476.303	-47.706	-0.285	-0.139
-475.289	-96.921	-0.217	0.057
-474.274	-200.000	0.028	-0.219
-473.259	-200.000	0.008	-0.133
-472.245	226.217	0.068	0.111
-471.230	740.888	-0.047	-0.128
-470.216	-66.658	-0.529	-0.211
-469.201	-200.000	-0.009	-0.076
-468.186	-83.410	-0.166	0.053
-467.172	73.771	-0.068	-0.072
-466.157	-49.440	-0.134	0.064
-465.143	-200.000	-0.022	0.217
-464.128	-200.000	-0.058	-0.265
-463.113	-46.837	0.116	0.057
-462.099	92.353	-0.213	0.241
-461.084	151.243	-0.216	-0.295
-460.070	-112.896	0.242	-0.048
-459.055	-51.576	-0.139	0.065
-458.040	800.000	-0.023	0.082
-457.026	-200.000	-0.023	-0.362
-456.011	59.106	0.066	-0.065
-454.997	16.232	-0.169	0.134
-453.982	336.869	-0.060	0.117
-452.968	68.470	-0.056	0.058
-451.953	-58.541	0.213	0.093
-450.938	-136.655	0.231	-0.027
-449.924	-120.532	-0.298	0.051
-448.909	209.740	-0.047	-0.074
-447.895	-200.000	0.022	-0.252
-446.880	-200.000	0.097	0.445
-445.865	210.809	-0.085	-0.134
-444.851	-200.000	0.007	0.191
-443.836	39.736	0.133	0.120
-442.822	-200.000	0.024	0.297
-441.807	33.022	-0.047	0.041
-440.792	177.965	-0.232	-0.340
-439.778	306.508	0.107	0.199
-438.763	56.562	0.134	0.130
-437.749	-161.869	0.362	-0.018
-436.734	-200.000	-0.023	0.181
-435.719	-200.000	-0.006	-0.054
-434.705	-116.174	0.536	0.100
-433.690	49.195	-0.098	-0.092
-432.676	1.822	-0.155	-0.112
-431.661	-200.000	0.018	-0.158
-430.646	-17.089	0.070	-0.044
-429.632	-102.693	-0.428	0.102
-428.617	286.835	0.179	0.325
-427.603	-77.576	-0.157	-0.054
-426.588	52.848	-0.082	-0.078
-425.573	-22.705	-0.018	0.011
-424.559	371.733	0.156	0.317
-423.544	-200.000	0.019	0.160
-422.530	-146.048	0.515	-0.046
-421.515	205.918	0.112	0.175
-420.500	71.826	0.252	-0.263
-419.486	-200.000	-0.030	0.305
-418.471	-176.529	0.154	0.004
-417.457	-121.961	0.283	0.047
-416.442	21.023	-0.298	-0.242
-415.428	197.897	-0.192	-0.294
-414.413	-173.537	0.172	0.005
-413.398	93.943	-0.046	0.053
-412.384	-9.395	-0.214	-0.143
-411.369	800.000	0.013	-0.051
-410.355	-82.199	-0.233	-0.076
-409.340	-200.000	-0.022	-0.196
-408.325	21.209	0.181	0.147
-407.311	-46.212	0.269	0.133
-406.296	79.854	0.245	-0.263
-405.282	800.000	-0.071	0.249
-404.267	324.287	0.074	-0.141
-403.252	-139.369	-0.307	-0.033
-402.238	16.098	0.126	-0.099
-401.223	-200.000	0.010	0.229
-400.209	483.496	0.061	-0.138
-399.194	800.000	0.121	0.456
-398.179	-22.092	0.183	-0.111
-397.165	-91.870	0.098	0.028
-396.150	66.297	0.229	0.233
-395.136	-200.000	0.017	-0.206
-394.121	484.252	0.063	-0.143
-393.106	165.515	0.025	0.035
-392.092	-28.079	-0.193	-0.112
-391.077	357.025	-0.184	0.368
-390.063	-35.338	0.058	0.032
-389.048	635.392	-0.089	0.225
-388.033	225.473	-0.181	0.294
-387.019	59.518	0.453	0.447
-386.004	260.867	-0.172	-0.298
-384.990	163.235	0.122	0.171
-383.975	156.717	0.079	0.109
-382.960	-200.000	0.020	-0.280
-381.946	21.065	0.062	0.051
-380.931	66.554	0.120	0.123
-379.917	161.487	0.132	-0.185
-378.902	-200.000	-0.031	-0.335
-377.888	-1.085	-0.140	-0.099
-376.873	800.000	-0.066	0.195
-375.858	-21.163	-0.070	-0.043
-374.844	99.588	0.178	-0.206
-373.829	179.205	0.150	0.219
-372.815	-75.709	0.244	0.086
-371.800	-150.316	-0.260	-0.020
-370.785	800.000	-0.065	0.233
-369.771	-200.000	-0.046	-0.209
-368.756	15.861	-0.171	0.135
-367.742	536.566	-0.173	-0.411
-366.727	800.000	-0.121	-0.436
-365.712	45.344	-0.247	0.228
-364.698	-113.634	-0.182	0.036
-363.683	-200.000	0.026	-0.204
-362.669	-54.257	0.248	0.113
-361.654	35.152	-0.156	0.136
-360.639	10.549	-0.222	-0.169
-359.625	-151.082	0.176	-0.013
-358.610	-32.703	-0.153	-0.085
-357.596	-45.659	0.083	0.041
-356.581	282.088	-0.128	-0.229
-355.566	-150.972	0.159	0.012
-354.552	-73.450	0.103	-0.038
-353.537	-200.000	0.046	0.200
-352.523	329.816	-0.026	-0.049
-351.508	-129.772	0.197	0.027
-350.493	-200.000	0.000	-0.071
-349.479	800.000	-0.081	-0.259
-348.464	800.000	0.057	0.244
-347.450	28.134	-0.227	-0.192
-346.435	394.091	-0.045	0.093
-345.420	285.286	-0.151	-0.271
-344.406	-200.000	-0.005	-0.298
-343.391	117.116	0.055	0.067
-342.377	118.549	-0.047	-0.058
-341.362	-200.000	0.009	-0.356
-340.348	-57.667	-0.026	0.011
-339.333	-11.318	-0.170	0.112
-338.318	-193.166	0.305	-0.003
-337.304	-200.000	-0.027	-0.146
-336.289	-47.149	-0.244	-0.119
-335.275	-7.454	0.119	-0.080
-334.260	-41.639	0.385	0.197
-333.245	6.719	-0.345	0.256
-332.231	229.244	0.080	0.131
-331.216	-163.502	-0.438	0.021
-330.202	407.212	0.050	0.106
-329.187	800.000	0.124	-0.377
-328.172	14.737	-0.158	-0.123
-327.158	45.361	-0.194	-0.178
-326.143	800.000	0.023	0.075
-325.129	1.010	0.244	-0.175
-324.114	-143.071	-0.250	-0.024
-323.099	58.403	0.148	-0.145
-322.085	-200.000	0.022	-0.437
-321.070	158.685	0.073	0.101
-320.056	-133.078	0.475	-0.060
-319.041	-27.481	-0.270	-0.157
-318.026	-58.626	-0.106	-0.046
-317.012	-114.062	0.247	-0.048
-315.997	-200.000	-0.030	0.371
-314.983	190.130	0.044	0.066
-313.968	-12.756	0.111	-0.072
-312.953	-17.084	0.261	0.164
-311.939	0.808	0.148	0.105
-310.924	-67.837	-0.132	0.052
-309.910	-20.932	-0.226	-0.138
-308.895	-200.000	-0.038	0.222
-307.880	-58.585	0.399	0.173
-306.866	-33.530	0.203	0.112
-305.851	-41.985	-0.276	0.141
-304.837	800.000	0.055	-0.155
-303.822	-8.000	0.157	0.106
-302.807	-126.392	-0.221	0.033
-301.793	-200.000	-0.001	0.007
-300.778	-200.000	0.039	0.402
-299.764	-88.404	-0.415	0.124
-298.749	800.000	0.039	0.132
-297.735	323.755	-0.045	-0.085
-296.720	-49.553	0.341	0.162
-295.705	-135.715	-0.234	-0.028
-294.691	-200.000	0.002	-0.069
-293.676	-200.000	-0.001	0.393
-292.662	574.907	-0.022	0.053
-291.647	2.492	-0.128	-0.092
-290.632	-200.000	-0.036	-0.226
-289.618	-138.049	-0.212	0.024
-288.603	301.640	0.144	0.265
-287.589	-100.306	0.180	0.045
-286.574	62.118	0.299	-0.298
-285.559	40.388	-0.107	-0.096
-284.545	-72.756	-0.141	-0.052
-283.530	800.000	-0.054	0.163
-282.516	800.000	-0.083	0.257
-281.501	101.424	0.093	0.108
-280.486	230.264	0.081	0.132
-279.472	-200.000	-0.012	-0.077
-278.457	-55.464	0.143	-0.064
-277.443	-200.000	0.040	0.183
-276.428	-200.000	-0.034	0.213
-275.413	-40.245	-0.354	0.184
-274.399	593.874	-0.085	0.211
-273.384	234.818	-0.140	-0.230
-272.370	-141.928	0.207	0.021
-271.355	-144.793	-0.130	-0.012
-270.340	150.786	-0.192	0.260
-269.326	-37.572	0.157	0.084
-268.311	60.883	-0.110	-0.109
-267.297	302.617	-0.109	0.200
-266.282	-110.234	-0.509	0.106
-265.267	-40.229	-0.162	-0.084
-264.253	130.201	-0.037	-0.048
-263.238	800.000	-0.034	0.142
-262.224	800.000	0.040	-0.130
-261.209	800.000	-0.102	-0.291
-260.195	172.707	0.044	-0.063
-259.180	-200.000	-0.076	-0.416
-258.165	800.000	-0.060	0.209
-257.151	-200.000	-0.056	0.259
-256.136	370.704	0.113	0.227
-255.122	224.615	0.058	0.093
-254.107	315.783	-0.284	-0.533
-253.092	-200.000	0.004	0.463
-252.078	78.823	0.057	0.061
-251.063	-107.839	0.138	-0.030
-250.049	-200.000	0.022	0.110
-249.034	-73.012	0.143	-0.052
-248.019	-17.990	-0.133	-0.083
-247.005	113.228	-0.178	-0.214
-245.990	-179.204	0.019	0.000
-244.976	140.071	0.158	-0.207
-243.961	315.653	-0.102	0.191
-242.946	229.669	0.069	-0.113
-241.932	-200.000	0.046	-0.274
-240.917	55.550	0.128	-0.123
-239.903	56.057	-0.125	-0.121
-238.888	48.891	-0.215	-0.201
-237.873	26.697	0.192	-0.160
-236.859	-200.000	-0.012	0.230
-235.844	191.536	-0.199	0.298
-234.830	-79.316	0.160	0.054
-233.815	440.990	-0.084	-0.182
-232.800	800.000	-0.064	-0.190
-231.786	417.014	-0.060	-0.128
-230.771	-200.000	-0.019	0.304
-229.757	-200.000	0.071	0.410
-228.742	64.450	0.074	0.074
-227.727	-47.156	0.057	-0.028
-226.713	-53.971	-0.090	-0.041
-225.698	-200.000	-0.015	0.096
-224.684	510.979	-0.105	-0.242
-223.669	-73.294	-0.108	-0.039
-222.655	427.549	0.250	-0.536
-221.640	-200.000	-0.010	0.185
-220.625	-118.569	0.242	-0.043
-219.611	-200.000	-0.026	-0.456
-218.596	-162.044	-0.118	0.006
-217.582	-56.409	-0.146	0.064
-216.567	-78.073	-0.162	0.055
-215.552	193.158	0.215	0.323
-214.538	271.658	0.032	-0.057
-213.523	-200.000	-0.035	0.203
-212.509	44.314	-0.253	0.231
-211.494	701.123	-0.084	0.220
-210.479	72.966	-0.209	-0.217
-209.465	-172.486	0.071	-0.002
-208.450	106.537	0.096	-0.113
-207.436	-65.462	-0.297	-0.118
-206.421	-3.408	0.207	-0.143
-205.406	-200.000	-0.066	0.412
-204.392	-200.000	-0.014	0.073
-203.377	108.001	-0.244	0.289
-202.363	227.201	-0.079	0.127
-201.348	-62.925	0.133	0.054
-200.333	467.487	-0.235	-0.524
-199.319	-27.464	0.167	-0.096
-198.304	-133.589	-0.295	-0.037
-197.290	-176.402	0.126	0.003
-196.275	119.026	0.126	0.154
-195.260	-59.336	-0.348	-0.149
-194.246	-200.000	0.007	-0.099
-193.231	800.000	0.088	-0.258
-192.217	-108.425	0.425	-0.091
-191.202	149.131	0.162	0.218
-190.187	-89.818	-0.277	0.080
-189.173	-86.893	-0.272	0.082
-188.158	-4.375	-0.180	0.124
-187.144	-200.000	-0.015	-0.105
-186.129	321.920	-0.135	0.256
-185.114	34.583	-0.221	0.191
-184.100	-200.000	-0.023	-0.228
-183.085	-85.885	-0.003	0.001
-182.071	128.191	-0.063	-0.080
-181.056	-116.451	0.206	0.038
-180.042	-143.634	-0.170	0.016
-179.027	-24.664	0.378	0.223
-178.012	-70.957	0.360	-0.134
-176.998	-20.329	0.193	-0.118
-175.983	-200.000	0.008	0.128
-174.969	152.397	0.091	0.123
-173.954	-173.368	0.448	0.013
-172.939	530.254	0.127	-0.297
-171.925	-200.000	0.048	-0.386
-170.910	366.987	-0.151	0.302
-169.896	-56.634	0.061	-0.027
-168.881	800.000	-0.023	0.070
-167.866	109.754	-0.090	0.107
-166.852	-200.000	0.020	-0.291
-165.837	-3.279	0.133	-0.092
-164.823	-135.100	-0.306	-0.037
-163.808	291.327	-0.227	0.409
-162.793	-154.217	0.199	0.013
-161.779	800.000	0.044	0.157
-160.764	-200.000	0.038	0.202
-159.750	93.333	0.118	-0.133
-158.735	-163.211	0.084	0.004
-157.720	37.760	-0.060	-0.053
-156.706	293.324	-0.095	0.171
-155.691	-200.000	0.053	-0.257
-154.677	245.449	0.102	-0.170
-153.662	-200.000	0.038	0.243
-152.647	38.088	0.301	0.266
-151.633	-200.000	-0.062	-0.310
-150.618	-16.622	0.153	-0.096
-149.604	800.000	-0.044	0.163
-148.589	-44.176	-0.280	-0.139
-147.574	492.242	0.101	0.229
-146.560	-200.000	-0.002	0.434
-145.545	2.486	-0.239	0.172
-144.531	-173.310	0.276	-0.008
-143.516	-117.619	-0.381	-0.068
-142.502	117.166	0.054	0.065
-141.487	181.174	0.079	0.115
-140.472	800.000	-0.058	-0.196
-139.458	219.074	-0.138	0.219
-138.443	800.000	-0.082	0.287
-137.429	800.000	-0.033	-0.126
-136.414	-2.882	0.236	-0.164
-135.399	9.980	0.235	0.177
-134.385	312.877	0.282	0.525
-133.370	728.977	-0.020	-0.053
-132.356	-113.258	-0.089	-0.017
-131.341	74.855	-0.098	0.103
-130.326	751.938	0.076	0.203
-129.312	-200.000	-0.024	-0.141
-128.297	800.000	-0.062	0.248
-127.283	-109.565	0.228	0.048
-126.268	-45.623	-0.229	0.112
-125.253	248.474	-0.130	-0.218
-124.239	145.382	0.042	0.056
-123.224	-55.099	0.143	-0.064
-122.210	-53.832	-0.286	0.129
-121.195	-101.805	0.141	-0.034
-120.180	271.543	-0.159	0.277
-119.166	22.230	-0.071	-0.058
-118.151	-12.417	-0.114	0.074
-117.137	-200.000	0.024	0.406
-116.122	-200.000	-0.002	-0.418
-115.107	800.000	0.112	-0.406
-114.093	190.040	0.081	0.120
-113.078	-200.000	0.020	0.176
-112.064	779.500	0.049	0.132
-111.049	46.433	-0.215	0.197
-110.034	-153.380	0.259	-0.018
-109.020	-84.178	0.230	0.072
-108.005	-77.930	0.315	-0.107
-106.991	-200.000	0.011	0.324
-105.976	-200.000	-0.007	-0.036
-104.962	-29.956	0.260	0.146
-103.947	-65.297	0.207	-0.083
-102.932	-200.000	-0.028	0.167
-101.918	35.072	-0.292	-0.253
-100.903	-141.887	0.313	0.031
-99.889	-45.205	0.148	-0.073
-98.874	-200.000	-0.004	0.161
-97.859	-187.986	-0.095	-0.001
-96.845	-103.590	-0.222	0.052
-95.830	800.000	0.043	0.121
-94.816	529.546	-0.104	-0.242
-93.801	-179.395	0.151	-0.003
-92.786	63.642	-0.120	0.119
-91.772	-163.223	0.046	0.002
-90.757	-42.619	-0.214	0.108
-89.743	-200.000	0.019	0.136
-88.728	-60.842	0.200	-0.084
-87.713	-200.000	-0.028	-0.161
-86.699	-120.771	-0.173	-0.029
-85.684	40.228	-0.118	0.105
-84.670	-200.000	0.017	-0.095
-83.655	-138.325	-0.197	0.021
-82.640	-36.957	-0.171	0.091
-81.626	-1.935	-0.179	0.124
-80.611	187.310	0.052	0.077
-79.597	417.360	0.145	0.306
-78.582	137.900	0.274	0.355
-77.567	-71.167	-0.101	-0.037
-76.553	-200.000	-0.106	0.504
-75.538	800.000	0.046	0.189
-74.524	-63.729	0.449	-0.182
-73.509	800.000	-0.070	-0.302
-72.494	216.090	0.063	-0.099
-71.480	800.000	-0.054	0.190
-70.465	-200.000	0.486	-0.001
-69.451	-43.431	0.314	-0.157
-68.436	-101.394	0.236	-0.057
-67.422	109.126	-0.106	0.126
-66.407	-41.932	-0.168	0.085
-65.392	8.022	-0.153	0.114
-64.378	29.653	0.052	0.044
-63.363	-43.765	-0.235	0.117
-62.349	176.968	-0.218	0.313
-61.334	110.562	-0.720	-0.855
-60.319	141.189	0.611	0.799
-59.305	-200.000	-0.089	-1.089
-58.290	343.332	0.344	0.666
-57.276	619.019	0.652	1.619
-56.261	-200.000	87.154	498.590
-55.246	453.607	1400.198	3061.717
-54.232	145.749	2621.484	3470.398
-53.217	105.170	2347.692	2736.995
-52.203	45.822	1955.945	1786.432
-51.188	40.147	1743.095	1547.730
-50.173	37.456	1697.979	1487.065
-49.159	52.807	1741.511	1644.302
-48.144	56.282	1759.274	1687.900
-47.130	40.033	1718.754	1524.994
-46.115	37.051	1704.700	1489.602
-45.100	36.954	1699.385	1484.155
-44.086	36.876	1696.633	1481.095
-43.071	36.998	1693.461	1479.202
-42.057	36.899	1691.669	1476.825
-41.042	36.883	1689.071	1474.371
-40.027	36.926	1687.701	1473.449
-39.013	36.952	1685.068	1471.289
-37.998	36.903	1683.781	1469.731
-36.984	36.860	1682.608	1468.322
-35.969	37.031	1681.144	1468.281
-34.954	37.036	1679.683	1466.983
-33.940	36.983	1677.755	1464.842
-32.925	36.960	1676.121	1463.188
-31.911	37.028	1674.023	1461.809
-30.896	37.034	1671.891	1459.934
-29.881	37.031	1670.673	1458.792
-28.867	36.985	1669.042	1456.963
-27.852	37.104	1667.438	1456.401
-26.838	37.123	1665.869	1455.109
-25.823	37.131	1664.482	1453.903
-24.809	37.169	1663.001	1452.833
-23.794	37.130	1661.393	1451.079
-22.779	37.077	1660.680	1450.004
-21.765	37.112	1658.528	1448.334
-20.750	37.030	1657.019	1446.347
-19.736	37.057	1655.759	1445.386
-18.721	37.074	1653.991	1443.913
-17.706	37.038	1652.938	1442.668
-16.692	36.989	1651.528	1441.020
-15.677	37.100	1649.963	1440.421
-14.663	37.092	1648.807	1439.292
-13.648	37.173	1646.997	1438.258
-12.633	37.098	1645.307	1436.169
-11.619	37.120	1643.579	1434.764
-10.604	37.084	1642.219	1433.256
-9.590	36.996	1641.256	1431.705
-8.575	37.026	1640.052	1430.824
-7.560	37.143	1638.099	1429.927
-6.546	37.108	1637.366	1428.970
-5.531	37.068	1636.407	1427.782
-4.517	37.019	1635.085	1426.214
-3.502	37.094	1633.869	1425.648
-2.487	37.130	1632.208	1424.404
-1.473	37.130	1621.068	1414.628
-0.458	34.960	1601.803	1382.103
0.556	31.686	1601.792	1350.862
1.571	29.235	1626.931	1353.958
2.586	28.432	1641.764	1360.219
3.600	24.464	1584.733	1284.371
4.615	13.236	1465.289	1112.318
5.629	3.638	1394.638	996.864
6.644	2.018	1385.019	979.502
7.659	1.842	1384.421	977.869
8.673	1.801	1382.625	976.248
9.688	1.839	1380.703	975.050
10.702	1.558	1378.063	971.305
11.717	5.174	1386.404	1000.297
12.731	16.297	1407.049	1087.090
13.746	24.795	1421.131	1152.886
14.761	26.544	1422.863	1165.465
15.775	26.615	1423.329	1166.201
16.790	26.697	1422.747	1166.149
17.804	26.893	1421.462	1166.253
18.819	27.013	1421.790	1167.192
19.834	27.116	1420.788	1166.928
20.848	27.146	1420.456	1166.741
21.863	27.117	1419.202	1165.422
22.877	27.184	1418.043	1164.797
23.892	27.011	1418.119	1163.644
24.907	27.196	1416.506	1163.405
25.921	27.137	1415.517	1162.110
26.936	27.094	1414.722	1161.079
27.950	27.134	1413.787	1160.465
28.965	27.138	1412.619	1159.430
29.980	27.026	1411.493	1157.692
30.994	27.174	1409.938	1157.253
32.009	27.105	1409.124	1156.044
33.023	27.167	1407.538	1155.033
34.038	27.140	1406.857	1154.202
35.053	27.097	1405.537	1152.745
36.067	27.098	1404.866	1152.099
37.082	27.096	1403.648	1150.989
38.096	27.090	1403.356	1150.610
39.111	27.134	1402.288	1149.908
40.126	27.171	1401.548	1149.433
41.140	27.105	1401.182	1148.616
42.155	27.142	1400.272	1148.003
43.169	27.126	1400.874	1148.289
44.184	27.214	1400.095	1148.108
45.199	27.080	1400.046	1147.117
46.213	27.104	1399.500	1146.723
47.228	27.196	1398.068	1146.025
48.242	27.099	1397.442	1144.802
49.257	27.130	1395.644	1143.423
50.271	27.101	1393.990	1141.784
51.286	27.184	1392.449	1140.938
52.301	27.068	1391.877	1139.646
53.315	27.126	1390.308	1138.620
54.330	27.136	1390.062	1138.381
55.344	27.100	1388.894	1137.100
56.359	27.163	1387.507	1136.256
57.374	27.028	1387.306	1135.146
58.388	27.071	1386.520	1134.675
59.403	27.060	1385.995	1134.074
60.417	27.103	1385.357	1133.718
61.432	26.974	1384.998	1132.522
62.447	27.114	1383.687	1132.220
63.461	27.140	1382.316	1131.165
64.476	27.168	1381.367	1130.461
65.490	27.168	1380.346	1129.526
66.505	27.126	1378.694	1127.814
67.520	27.112	1377.708	1126.819
68.534	27.227	1376.153	1126.162
69.549	27.172	1375.562	1125.238
70.563	27.075	1374.483	1123.651
71.578	27.169	1373.341	1123.202
72.593	27.043	1373.259	1122.258
73.607	27.069	1372.539	1121.730
74.622	27.168	1371.468	1121.365
75.636	27.138	1370.739	1120.485
76.651	27.147	1369.889	1119.744
77.666	27.195	1369.409	1119.552
78.680	27.016	1369.357	1118.308
79.695	27.141	1367.865	1117.756
80.709	27.176	1367.055	1117.215
81.724	27.134	1366.337	1116.266
82.739	27.049	1365.622	1115.066
83.753	27.045	1364.459	1113.994
84.768	27.140	1363.286	1113.519
85.782	27.151	1362.165	1112.568
86.797	27.114	1361.058	1111.344
87.812	27.133	1360.054	1110.542
88.826	27.126	1358.796	1109.374
89.841	27.195	1357.616	1108.730
90.855	27.087	1357.233	1107.662
91.870	27.141	1356.408	1107.217
92.884	27.134	1355.352	1106.214
93.899	27.255	1354.304	1105.997
94.914	27.181	1353.865	1105.091
95.928	27.186	1353.013	1104.328
96.943	27.210	1352.449	1103.915
97.957	27.139	1351.482	1102.602
98.972	27.165	1350.720	1102.036
99.987	27.119	1349.562	1100.720
101.001	27.051	1348.833	1099.613
102.016	27.100	1347.723	1098.909
103.030	27.148	1346.678	1098.250
104.045	27.195	1345.499	1097.477
105.060	27.196	1344.761	1096.781
106.074	27.215	1343.899	1096.096
107.089	27.133	1343.143	1094.889
108.103	27.202	1342.257	1094.481
109.118	27.226	1340.608	1093.187
110.133	27.232	1339.315	1092.070
111.147	27.300	1338.359	1091.606
112.162	27.310	1337.025	1090.479
113.176	27.302	1335.973	1089.474
114.191	27.262	1335.247	1088.546
115.206	27.196	1334.264	1087.255
116.220	27.168	1333.396	1086.287
117.235	27.154	1332.831	1085.648
118.249	27.126	1331.618	1084.397
119.264	27.225	1330.441	1083.930
120.279	27.229	1329.980	1083.480
121.293	27.322	1329.425	1083.486
122.308	27.312	1328.337	1082.446
123.322	27.326	1327.724	1081.936
124.337	27.296	1326.580	1080.729
125.352	27.341	1325.969	1080.402
126.366	27.334	1324.870	1079.367
127.381	27.314	1324.187	1078.598
128.395	27.316	1323.107	1077.637
129.410	27.326	1322.332	1076.968
130.424	27.342	1321.762	1076.501
131.439	27.257	1321.328	1075.552
132.454	27.268	1319.972	1074.419
133.468	27.328	1319.490	1074.285
134.483	27.231	1319.180	1073.361
135.497	27.296	1318.304	1072.940
136.512	27.384	1317.205	1072.471
137.527	27.317	1316.197	1071.157
138.541	27.343	1314.728	1070.022
139.556	27.360	1313.067	1068.677
140.570	27.300	1312.684	1067.918
141.585	27.204	1311.942	1066.657
142.600	27.309	1310.516	1066.018
143.614	27.312	1309.669	1065.251
144.629	27.344	1308.637	1064.504
145.643	27.245	1307.401	1062.828
146.658	27.186	1306.732	1061.842
147.673	27.286	1305.584	1061.404
148.687	27.259	1304.438	1060.215
149.702	27.078	1303.591	1058.384
150.716	27.099	1302.651	1057.645
151.731	27.303	1301.142	1057.512
152.746	27.289	1300.316	1056.666
153.760	27.368	1298.774	1055.777
154.775	27.287	1298.212	1054.759
155.789	27.245	1297.418	1053.779
156.804	27.227	1296.681	1052.979
157.819	27.168	1295.770	1051.805
158.833	27.244	1294.810	1051.374
159.848	27.214	1294.753	1051.064
160.862	27.290	1293.768	1050.606
161.877	27.333	1293.037	1050.171
162.892	27.372	1291.931	1049.405
163.906	27.439	1291.160	1049.072
164.921	27.511	1290.344	1048.729
165.935	27.288	1289.732	1046.854
166.950	27.396	1289.200	1046.950
167.964	27.436	1288.196	1046.275
168.979	27.434	1287.517	1045.618
169.994	27.342	1287.241	1044.771
171.008	27.341	1286.358	1043.961
172.023	27.395	1285.633	1043.587
173.037	27.374	1284.842	1042.730
174.052	27.480	1284.031	1042.588
175.067	27.391	1283.168	1041.289
176.081	27.358	1282.917	1040.802
177.096	27.344	1281.647	1039.601
178.110	27.476	1280.508	1039.336
179.125	27.481	1279.373	1038.352
180.140	27.360	1279.090	1037.344
181.154	27.494	1277.308	1036.565
182.169	27.428	1276.550	1035.485
183.183	27.391	1275.769	1034.552
184.198	27.427	1274.322	1033.490
185.213	27.472	1273.582	1033.050
186.227	27.614	1272.282	1032.712
187.242	27.514	1271.811	1031.674
188.256	27.484	1270.981	1030.734
189.271	27.433	1270.164	1029.697
190.286	27.475	1269.345	1029.180
191.300	27.526	1268.769	1028.905
192.315	27.438	1268.460	1028.068
193.329	27.532	1267.782	1027.959
194.344	27.420	1267.508	1027.011
195.359	27.538	1267.226	1027.360
196.373	27.471	1266.423	1026.241
197.388	27.432	1266.086	1025.656
198.402	27.467	1265.753	1025.492
199.417	27.515	1265.318	1025.322
200.432	27.419	1264.654	1024.150
201.446	27.506	1264.042	1024.054
202.461	27.450	1262.840	1022.677
203.475	27.495	1262.511	1022.569
204.490	27.443	1261.557	1021.414
205.504	27.491	1260.277	1020.557
206.519	27.543	1259.392	1020.041
207.534	27.571	1258.575	1019.446
208.548	27.539	1257.467	1018.279
209.563	27.495	1256.905	1017.492
210.577	27.471	1256.074	1016.592
211.592	27.569	1255.170	1016.316
212.607	27.531	1254.740	1015.667
213.621	27.528	1253.595	1014.635
214.636	27.610	1253.103	1014.604
215.650	27.606	1252.401	1013.923
216.665	27.536	1251.049	1012.349
217.680	27.547	1250.001	1011.472
218.694	27.589	1249.197	1010.966
219.709	27.671	1248.626	1010.871
220.723	27.648	1247.980	1010.131
221.738	27.539	1247.446	1009.006
222.753	27.556	1246.587	1008.312
223.767	27.621	1245.949	1008.068
224.782	27.700	1245.572	1008.110
225.796	27.654	1244.803	1007.145
226.811	27.723	1244.079	1006.850
227.826	27.720	1243.651	1006.398
228.840	27.672	1243.075	1005.577
229.855	27.712	1242.338	1005.112
230.869	27.738	1241.588	1004.561
231.884	27.654	1240.859	1003.421
232.899	27.688	1240.064	1002.878
233.913	27.691	1239.545	1002.386
234.928	27.797	1239.240	1002.629
235.942	27.716	1238.851	1001.780
236.957	27.748	1237.617	1000.873
237.972	27.746	1237.202	1000.436
238.986	27.704	1236.574	999.610
240.001	27.771	1236.066	999.478
241.015	27.815	1234.906	998.692
242.030	27.879	1234.104	998.307
243.045	27.908	1233.358	997.769
244.059	27.893	1232.266	996.717
245.074	27.911	1231.952	996.473
246.088	27.864	1231.093	995.436
247.103	27.999	1230.405	995.524
248.117	27.819	1229.710	993.896
249.132	27.907	1228.802	993.552
250.147	27.867	1227.888	992.508
251.161	27.891	1227.484	992.225
252.176	27.992	1226.192	991.640
253.190	28.007	1225.673	991.211
254.205	27.989	1225.263	990.695
255.220	27.911	1224.782	989.795
256.234	27.879	1224.511	989.319
257.249	27.951	1223.882	989.114
258.263	27.954	1223.166	988.462
259.278	27.966	1222.431	987.843
260.293	28.060	1221.998	987.915
261.307	27.990	1221.334	986.913
262.322	27.960	1220.871	986.291
263.336	28.017	1220.115	985.898
264.351	28.009	1219.356	985.156
265.366	27.866	1219.333	984.281
266.380	28.009	1218.109	983.975
267.395	27.969	1217.688	983.332
268.409	28.054	1216.775	982.965
269.424	27.992	1216.263	982.130
270.439	28.002	1215.898	981.804
271.453	28.050	1215.065	981.303
272.468	28.055	1214.185	980.531
273.482	28.061	1213.217	979.692
274.497	27.882	1213.935	979.226
275.512	28.087	1212.838	979.351
276.526	28.118	1211.662	978.486
277.541	28.075	1211.125	977.731
278.555	28.170	1210.290	977.479
279.570	28.192	1209.513	976.884
280.585	28.281	1208.338	976.321
281.599	28.115	1207.862	974.968
282.614	28.161	1206.886	974.336
283.628	28.251	1205.973	973.992
284.643	28.231	1205.149	973.137
285.657	28.155	1204.455	972.087
286.672	28.205	1203.810	971.743
287.687	28.105	1203.389	970.788
288.701	28.191	1202.538	970.469
289.716	28.278	1201.856	970.298
290.730	28.290	1200.686	969.331
291.745	28.160	1200.495	968.402
292.760	28.294	1199.707	968.388
293.774	28.322	1199.264	968.092
294.789	28.374	1198.509	967.675
295.803	28.194	1198.031	966.252
296.818	28.288	1197.463	966.203
297.833	28.347	1196.595	965.727
298.847	28.385	1196.055	965.408
299.862	28.392	1194.755	964.310
300.876	28.251	1194.443	963.229
301.891	28.384	1193.841	963.359
302.906	28.417	1193.588	963.244
303.920	28.430	1192.826	962.612
304.935	28.422	1192.025	961.838
305.949	28.413	1191.385	961.187
306.964	28.478	1190.427	960.670
307.979	28.401	1190.190	959.992
308.993	28.399	1189.791	959.573
310.008	28.451	1188.519	958.737
311.022	28.496	1187.710	958.234
312.037	28.437	1187.155	957.392
313.052	28.504	1185.938	956.675
314.066	28.529	1185.250	956.164
315.081	28.446	1184.856	955.331
316.095	28.442	1184.102	954.618
317.110	28.535	1183.489	954.526
318.125	28.558	1182.878	954.066
319.139	28.379	1182.620	952.841
320.154	28.512	1181.767	952.760
321.168	28.448	1181.242	951.923
322.183	28.393	1180.834	951.225
323.197	28.477	1179.846	950.780
324.212	28.453	1179.540	950.323
325.227	28.540	1178.975	950.235
326.241	28.574	1178.501	949.948
327.256	28.672	1177.226	949.339
328.270	28.661	1176.126	948.316
329.285	28.533	1176.141	947.581
330.300	28.566	1174.973	946.725
331.314	28.721	1174.185	946.804
332.329	28.692	1173.230	945.802
333.343	28.700	1172.598	945.253
334.358	28.791	1172.004	945.154
335.373	28.642	1171.440	943.854
336.387	28.716	1170.463	943.360
337.402	28.713	1169.839	942.757
338.416	28.676	1169.559	942.263
339.431	28.644	1168.930	941.506
340.446	28.756	1167.881	941.152
341.460	28.842	1167.394	941.116
342.475	28.747	1166.577	939.887
343.489	28.888	1165.426	939.597
344.504	28.842	1164.477	938.514
345.519	28.893	1163.387	937.812
346.533	28.937	1162.475	937.222
347.548	28.929	1162.145	936.833
348.562	28.952	1161.346	936.220
349.577	28.805	1160.833	934.976
350.592	28.779	1159.877	933.994
351.606	28.767	1159.855	933.830
352.621	28.889	1159.007	933.682
353.635	28.817	1158.551	932.870
354.650	28.804	1157.803	932.118
355.665	28.915	1157.218	932.125
356.679	28.862	1156.433	931.144
357.694	28.901	1155.759	930.716
358.708	28.982	1154.908	930.359
359.723	28.989	1154.550	930.024
360.738	28.927	1154.004	929.190
361.752	28.913	1153.449	928.586
362.767	28.951	1153.106	928.423
363.781	28.997	1152.514	928.096
364.796	29.145	1151.846	928.223
365.810	28.986	1151.095	926.733
366.825	29.062	1150.355	926.438
367.840	29.029	1149.830	925.767
368.854	29.170	1149.151	925.846
369.869	29.146	1148.490	925.112
370.883	29.052	1148.134	924.272
371.898	29.200	1146.937	923.968
372.913	29.152	1146.448	923.252
373.927	29.142	1146.123	922.857
374.942	29.206	1145.721	922.774
375.956	29.120	1145.033	921.706
376.971	29.117	1144.827	921.446
377.986	29.099	1144.030	920.633
379.000	29.267	1143.381	920.868
380.015	29.360	1142.671	920.677
381.029	29.335	1141.848	919.810
382.044	29.188	1141.307	918.561
383.059	29.253	1140.578	918.216
384.073	29.250	1139.997	917.650
385.088	29.340	1138.881	917.118
386.102	29.284	1138.391	916.365
387.117	29.348	1137.885	916.195
388.132	29.266	1137.087	915.063
389.146	29.236	1135.991	913.954
390.161	29.293	1135.346	913.637
391.175	29.380	1134.781	913.533
392.190	29.453	1133.823	913.038
393.205	29.323	1133.299	911.894
394.219	29.341	1132.830	911.525
395.234	29.379	1132.141	911.077
396.248	29.396	1130.909	910.089
397.263	29.421	1129.870	909.294
398.278	29.454	1129.494	909.073
399.292	29.504	1129.058	908.888
400.307	29.457	1128.555	908.172
401.321	29.525	1127.635	907.686
402.336	29.450	1126.992	906.719
403.350	29.489	1126.189	906.185
404.365	29.435	1125.678	905.430
405.380	29.626	1124.717	905.513
406.394	29.537	1124.216	904.595
407.409	29.430	1123.745	903.611
408.423	29.546	1122.951	903.461
409.438	29.687	1122.006	903.306
410.453	29.632	1121.496	902.548
411.467	29.757	1120.662	902.410
412.482	29.536	1120.136	900.827
413.496	29.672	1119.220	900.673
414.511	29.692	1118.892	900.425
415.526	29.601	1118.444	899.542
416.540	29.678	1118.130	899.585
417.555	29.850	1117.155	899.557
418.569	29.606	1117.175	898.311
419.584	29.701	1116.701	898.311
420.599	29.703	1116.078	897.740
421.613	96.419	1315.644	1422.372
422.628	90.555	1344.697	1422.521
