DTS Sentinel unit serial number:	SN413079Multiplexer serial number:	ORYXHardware model number:	OX4-SRSoftware version number:	ORYX F/W v4.00 Oryx Data Collector v3.7.2.0data status	okinstallation	princeton_trtdifferential loss correction	single-endedforward channel	channel 2reverse channel	N/Adate	2019/09/19time	14:15:34forward acquisition time	60.00reverse acquisition time	0.00gamma	496.2192k internal	0.2325k external	0.2325temperature offset calibration	1.0019default loss term (dB/km)	0.3790temperature slope calibration	1.0000multiplexer offset coefficient	1.0000multiplexer slope coefficient	1.0000fibre end	0.00T internal ref (°C)	31.67T ext. ref 1 (°C)	1.06T ext. ref 2 (°C)	28.93length (m)	temperature (°C)	Stokes	anti-Stokes-747.200	-49.981	0.186	0.089
-746.185	280.410	-0.028	0.050
-745.171	362.505	-0.074	0.150
-744.156	127.711	-0.141	0.180
-743.142	32.731	0.092	0.081
-742.127	539.283	-0.133	0.319
-741.112	-49.207	0.045	-0.022
-740.098	-16.023	-0.198	-0.127
-739.083	-200.000	0.078	0.410
-738.069	101.675	-0.253	0.297
-737.054	2.665	-0.036	-0.027
-736.039	-42.375	-0.226	0.116
-735.025	203.770	-0.050	0.078
-734.010	800.000	0.081	0.329
-732.996	-18.352	-0.240	-0.152
-731.981	-22.902	-0.265	0.162
-730.966	86.258	-0.183	-0.203
-729.952	-95.323	-0.128	0.035
-728.937	231.137	-0.147	0.243
-727.923	27.373	0.192	0.163
-726.908	-69.104	0.339	-0.132
-725.894	23.620	-0.063	0.052
-724.879	-174.330	-0.309	-0.009
-723.864	281.245	-0.133	-0.240
-722.850	-200.000	0.004	0.118
-721.835	-69.623	0.159	-0.061
-720.821	34.632	-0.142	-0.125
-719.806	-82.661	-0.117	-0.038
-718.791	1.329	0.151	-0.109
-717.777	-30.489	-0.115	0.066
-716.762	17.662	0.057	-0.045
-715.748	-97.250	-0.275	0.072
-714.733	-112.628	-0.203	-0.041
-713.718	-36.868	-0.106	-0.057
-712.704	-200.000	0.028	-0.137
-711.689	207.167	0.246	0.387
-710.675	552.924	-0.087	-0.210
-709.660	129.515	-0.150	-0.193
-708.645	-73.232	-0.317	-0.117
-707.631	-22.290	0.237	-0.145
-706.616	-97.576	0.308	0.081
-705.602	-200.000	-0.065	-0.000
-704.587	800.000	0.060	-0.204
-703.572	43.465	0.128	0.118
-702.558	117.103	-0.188	0.233
-701.543	72.318	0.086	0.091
-700.529	381.540	-0.058	0.120
-699.514	800.000	0.056	0.223
-698.499	193.870	-0.106	0.162
-697.485	-115.732	-0.389	0.073
-696.470	-109.233	-0.192	0.041
-695.456	147.424	-0.080	-0.108
-694.441	800.000	-0.038	-0.114
-693.426	-57.828	-0.580	0.256
-692.412	-26.994	-0.145	-0.085
-691.397	453.647	-0.041	-0.092
-690.383	40.700	-0.126	0.115
-689.368	-117.416	0.101	0.018
-688.354	55.107	-0.165	-0.161
-687.339	-18.254	-0.168	0.106
-686.324	-25.598	-0.225	-0.134
-685.310	-200.000	-0.000	-0.146
-684.295	615.317	0.050	-0.127
-683.281	56.965	0.200	-0.197
-682.266	25.262	-0.130	-0.108
-681.251	-61.623	-0.381	0.161
-680.237	-200.000	0.074	-0.346
-679.222	92.189	-0.070	0.080
-678.208	14.057	-0.197	0.154
-677.193	87.761	0.208	-0.232
-676.178	-88.227	-0.249	0.075
-675.164	800.000	-0.047	0.146
-674.149	-49.341	-0.204	0.098
-673.135	161.443	0.170	0.239
-672.120	800.000	-0.040	-0.132
-671.105	300.457	0.134	0.249
-670.091	43.060	-0.190	-0.174
-669.076	-200.000	0.016	0.231
-668.062	-200.000	-0.008	0.171
-667.047	-200.000	0.036	0.185
-666.032	703.099	-0.026	0.070
-665.018	393.321	0.040	0.083
-664.003	-138.906	-0.163	0.018
-662.989	-96.425	-0.272	-0.072
-661.974	-123.734	-0.209	-0.033
-660.959	-200.000	-0.026	-0.270
-659.945	800.000	0.019	-0.060
-658.930	800.000	-0.026	-0.110
-657.916	795.125	0.104	-0.289
-656.901	800.000	0.121	-0.366
-655.886	313.381	-0.089	-0.169
-654.872	-48.583	-0.458	-0.221
-653.857	-22.544	-0.130	-0.079
-652.843	-200.000	0.020	0.163
-651.828	-200.000	0.011	0.123
-650.814	-133.673	0.124	-0.016
-649.799	117.710	-0.163	-0.202
-648.784	31.590	0.122	-0.106
-647.770	-41.859	-0.066	0.034
-646.755	6.944	-0.126	0.095
-645.741	46.409	0.187	-0.175
-644.726	800.000	-0.089	0.260
-643.711	-129.723	-0.202	0.028
-642.697	-137.080	0.165	-0.019
-641.682	-105.108	0.282	0.065
-640.668	-120.306	0.154	-0.026
-639.653	-5.415	-0.181	-0.125
-638.638	155.638	0.247	0.341
-637.624	-88.672	-0.113	-0.034
-636.609	-200.000	-0.006	0.125
-635.595	-62.523	-0.252	0.105
-634.580	-200.000	-0.035	0.305
-633.565	-14.580	-0.054	0.035
-632.551	-200.000	-0.016	0.158
-631.536	-200.000	-0.099	0.000
-630.522	-200.000	-0.002	-0.458
-629.507	-95.689	0.207	-0.056
-628.492	-80.730	-0.228	0.076
-627.478	-96.717	0.212	0.056
-626.463	-194.370	-0.471	0.004
-625.449	31.179	0.386	0.332
-624.434	271.567	0.154	0.273
-623.419	176.166	0.154	0.225
-622.405	83.537	-0.116	-0.127
-621.390	-169.312	0.227	-0.008
-620.376	-200.000	-0.022	-0.106
-619.361	-187.705	-0.479	-0.006
-618.346	1.332	0.270	0.195
-617.332	-200.000	-0.042	-0.267
-616.317	213.280	0.081	-0.129
-615.303	-76.586	-0.167	-0.059
-614.288	-101.998	0.150	-0.036
-613.273	-59.199	0.064	0.027
-612.259	800.000	-0.110	-0.336
-611.244	-127.509	-0.155	0.023
-610.230	176.157	-0.103	0.150
-609.215	-122.560	-0.165	-0.027
-608.201	2.585	0.194	-0.141
-607.186	473.347	0.126	-0.285
-606.171	72.949	0.119	0.125
-605.157	-50.340	-0.257	-0.122
-604.142	-200.000	-0.040	0.200
-603.128	-13.873	-0.290	0.188
-602.113	-94.838	-0.026	0.007
-601.098	800.000	-0.048	-0.143
-600.084	-91.999	-0.096	-0.027
-599.069	-77.035	0.405	-0.142
-598.055	-110.435	0.292	0.061
-597.040	16.218	0.081	0.064
-596.025	-147.776	0.175	-0.015
-595.011	-200.000	0.002	-0.212
-593.996	-171.661	0.151	0.005
-592.982	-8.680	-0.086	0.058
-591.967	-4.415	0.258	-0.179
-590.952	72.725	0.197	-0.207
-589.938	283.867	-0.091	-0.165
-588.923	11.572	-0.277	0.213
-587.909	-200.000	0.034	0.351
-586.894	-111.870	-0.134	-0.027
-585.879	67.312	0.173	0.177
-584.865	-200.000	-0.057	0.634
-583.850	-200.000	-0.027	0.246
-582.836	147.925	0.109	0.148
-581.821	-97.494	0.269	0.070
-580.806	35.292	-0.202	-0.177
-579.792	-200.000	0.060	-0.303
-578.777	-128.855	-0.067	0.009
-577.763	800.000	0.087	-0.283
-576.748	-19.754	0.207	-0.129
-575.733	-58.425	-0.140	-0.061
-574.719	-114.025	-0.192	-0.037
-573.704	126.094	-0.254	-0.321
-572.690	186.315	-0.129	0.192
-571.675	-200.000	0.014	-0.255
-570.661	285.942	0.153	-0.276
-569.646	178.509	-0.134	0.196
-568.631	-65.692	-0.054	0.022
-567.617	800.000	-0.090	-0.274
-566.602	271.505	-0.094	-0.166
-565.588	177.260	0.089	0.130
-564.573	21.868	-0.161	-0.132
-563.558	-64.159	-0.380	0.155
-562.544	-200.000	0.027	0.158
-561.529	468.759	0.065	-0.146
-560.515	-32.530	-0.392	-0.219
-559.500	667.771	0.026	-0.068
-558.485	-200.000	0.038	0.220
-557.471	-69.299	0.309	-0.119
-556.456	46.340	0.106	0.099
-555.442	-28.138	-0.113	-0.065
-554.427	61.555	-0.217	-0.216
-553.412	-200.000	-0.025	0.134
-552.398	-200.000	-0.039	-0.215
-551.383	67.554	-0.222	-0.227
-550.369	23.119	0.123	-0.101
-549.354	80.349	-0.135	-0.146
-548.339	-24.341	-0.176	-0.105
-547.325	183.513	0.173	0.256
-546.310	800.000	-0.001	-0.005
-545.296	591.950	0.030	-0.074
-544.281	-123.642	0.468	0.074
-543.266	24.597	0.309	-0.256
-542.252	-92.466	0.113	-0.032
-541.237	28.067	-0.082	-0.069
-540.223	-34.923	0.246	-0.135
-539.208	120.769	0.051	-0.064
-538.193	-73.112	-0.191	-0.070
-537.179	-98.579	0.079	0.020
-536.164	-37.860	0.228	0.121
-535.150	-200.000	0.003	-0.069
-534.135	-124.590	-0.388	0.060
-533.121	-72.349	0.188	-0.070
-532.106	-147.870	-0.365	0.030
-531.091	-4.787	-0.338	-0.233
-530.077	-76.647	-0.298	0.104
-529.062	127.901	-0.156	-0.199
-528.048	-2.249	-0.426	-0.299
-527.033	800.000	0.037	0.104
-526.018	-48.926	0.176	0.084
-525.004	-64.074	0.243	-0.099
-523.989	-68.417	-0.097	-0.037
-522.975	-83.412	-0.130	-0.042
-521.960	35.114	0.055	0.048
-520.945	190.594	-0.296	-0.445
-519.931	175.073	-0.169	-0.245
-518.916	218.476	0.085	-0.136
-517.902	-162.161	-0.097	-0.005
-516.887	74.696	0.191	-0.201
-515.872	258.017	0.058	-0.100
-514.858	-46.984	-0.100	-0.049
-513.843	-121.913	-0.140	0.023
-512.829	-48.721	-0.291	-0.140
-511.814	-20.875	0.498	0.305
-510.799	170.004	-0.161	-0.230
-509.785	-200.000	-0.017	-0.183
-508.770	-21.865	-0.288	-0.175
-507.756	-5.691	-0.161	0.110
-506.741	-200.000	0.002	0.104
-505.726	-67.677	-0.136	0.053
-504.712	416.729	0.175	-0.373
-503.697	-2.325	0.067	0.047
-502.683	297.916	0.118	-0.216
-501.668	120.841	0.142	-0.176
-500.653	60.791	-0.049	-0.048
-499.639	62.341	-0.173	0.172
-498.624	-200.000	-0.019	-0.189
-497.610	-108.603	-0.111	0.024
-496.595	-200.000	-0.041	-0.306
-495.581	133.058	0.158	-0.204
-494.566	282.269	0.150	-0.269
-493.551	440.583	0.131	-0.286
-492.537	-146.056	-0.236	-0.021
-491.522	34.307	0.216	-0.188
-490.508	-63.608	0.074	-0.030
-489.493	-134.344	0.087	0.011
-488.478	-35.455	-0.011	0.006
-487.464	-98.693	-0.264	-0.067
-486.449	46.670	-0.079	0.073
-485.435	-140.634	0.292	-0.030
-484.420	-200.000	0.135	-0.000
-483.405	-119.400	0.266	0.046
-482.391	-200.000	0.009	0.181
-481.376	88.530	-0.231	-0.256
-480.362	-2.932	-0.156	-0.109
-479.347	800.000	0.064	-0.204
-478.332	-147.058	-0.341	0.029
-477.318	-121.154	0.391	0.065
-476.303	-60.513	-0.111	0.047
-475.289	800.000	0.042	-0.151
-474.274	-119.592	-0.292	-0.050
-473.259	-48.644	0.150	0.072
-472.245	30.033	-0.199	-0.169
-471.230	-200.000	-0.019	0.128
-470.216	397.941	-0.029	0.060
-469.201	26.832	-0.245	-0.205
-468.186	-24.013	0.277	0.165
-467.172	-67.330	0.130	-0.051
-466.157	-26.667	0.112	0.066
-465.143	44.564	0.361	0.331
-464.128	722.304	-0.050	0.132
-463.113	105.747	0.114	0.135
-462.099	-73.750	0.266	-0.097
-461.084	-54.635	0.217	-0.098
-460.070	-122.788	-0.225	0.036
-459.055	-163.843	0.109	0.005
-458.040	-21.218	-0.050	-0.031
-457.026	-148.514	-0.263	-0.021
-456.011	800.000	-0.064	0.225
-454.997	-167.862	0.303	0.012
-453.982	123.400	0.206	0.258
-452.968	-50.499	0.202	0.095
-451.953	-200.000	0.038	-0.206
-450.938	-23.723	-0.109	0.065
-449.924	-200.000	-0.019	-0.168
-448.909	-200.000	0.004	0.054
-447.895	91.062	0.264	-0.295
-446.880	180.667	0.151	0.221
-445.865	757.063	-0.051	-0.137
-444.851	-200.000	-0.090	-0.405
-443.836	42.522	0.185	-0.168
-442.822	-155.466	-0.217	0.014
-441.807	-46.355	-0.059	0.029
-440.792	-181.967	0.081	0.002
-439.778	-111.676	-0.273	-0.055
-438.763	249.490	-0.219	-0.370
-437.749	-82.017	0.376	-0.123
-436.734	-86.165	-0.216	-0.066
-435.719	56.433	0.092	0.090
-434.705	-108.435	-0.403	0.087
-433.690	280.932	-0.118	-0.210
-432.676	-12.248	-0.177	-0.116
-431.661	47.295	0.147	0.137
-430.646	-113.308	0.137	0.027
-429.632	-200.000	0.019	0.100
-428.617	14.747	-0.237	0.185
-427.603	-200.000	0.017	0.087
-426.588	-49.589	-0.315	0.149
-425.573	-13.433	-0.057	-0.037
-424.559	53.716	-0.241	-0.231
-423.544	61.036	0.029	0.028
-422.530	-86.253	0.468	0.144
-421.515	310.555	-0.118	0.221
-420.500	211.874	0.091	0.144
-419.486	206.515	-0.146	-0.227
-418.471	2.840	-0.267	0.193
-417.457	-200.000	0.017	-0.184
-416.442	25.541	0.055	0.045
-415.428	-177.882	0.170	-0.004
-414.413	-72.808	-0.088	-0.032
-413.398	297.391	-0.046	-0.084
-412.384	263.692	0.136	-0.235
-411.369	-200.000	0.046	0.251
-410.355	2.642	0.181	0.131
-409.340	55.659	0.250	0.241
-408.325	-171.147	-0.118	-0.004
-407.311	-200.000	0.023	0.279
-406.296	800.000	0.053	-0.152
-405.282	33.062	0.271	0.234
-404.267	-109.250	-0.033	0.007
-403.252	800.000	0.119	0.487
-402.238	800.000	-0.047	0.185
-401.223	82.724	-0.145	-0.157
-400.209	187.440	0.104	-0.155
-399.194	-106.897	-0.318	0.070
-398.179	143.863	-0.097	0.129
-397.165	800.000	0.060	0.214
-396.150	-89.864	-0.287	-0.083
-395.136	139.354	-0.034	0.044
-394.121	-53.205	0.304	-0.139
-393.106	-200.000	-0.006	0.381
-392.092	-52.007	0.251	0.116
-391.077	-70.794	-0.033	-0.012
-390.063	103.947	0.251	-0.294
-389.048	-200.000	-0.008	-0.340
-388.033	312.043	-0.111	-0.207
-387.019	478.064	-0.052	0.118
-386.004	150.143	0.125	0.169
-384.990	-106.519	-0.025	0.005
-383.975	-22.942	-0.210	0.126
-382.960	36.940	0.319	0.281
-381.946	-20.165	0.127	0.078
-380.931	-67.419	-0.212	-0.083
-379.917	14.324	0.029	-0.022
-378.902	-34.696	0.151	-0.082
-377.888	-75.371	-0.275	0.097
-376.873	50.461	0.233	0.219
-375.858	-19.567	-0.081	-0.050
-374.844	139.705	0.173	0.227
-373.829	800.000	-0.082	-0.270
-372.815	237.162	-0.153	0.251
-371.800	102.385	-0.200	0.233
-370.785	-200.000	0.059	0.341
-369.771	-181.321	-0.323	-0.006
-368.756	-46.388	-0.397	-0.194
-367.742	-200.000	-0.039	0.193
-366.727	-200.000	0.008	-0.317
-365.712	-56.410	-0.112	-0.049
-364.698	-200.000	0.016	0.166
-363.683	-200.000	0.047	0.285
-362.669	-200.000	0.020	-0.172
-361.654	-82.594	0.332	0.107
-360.639	107.790	0.071	0.084
-359.625	800.000	0.074	0.223
-358.610	-200.000	0.038	-0.181
-357.596	-54.511	0.151	0.068
-356.581	41.734	-0.078	-0.070
-355.566	225.962	-0.165	-0.266
-354.552	49.225	-0.077	-0.072
-353.537	109.503	0.203	0.242
-352.523	514.799	0.092	0.213
-351.508	800.000	-0.077	0.226
-350.493	57.038	0.191	0.185
-349.479	-54.776	0.055	-0.025
-348.464	-96.814	0.035	-0.009
-347.450	-78.952	0.323	0.109
-346.435	-200.000	0.004	0.193
-345.420	374.285	-0.103	0.208
-344.406	-119.398	-0.334	-0.058
-343.391	109.079	-0.066	-0.079
-342.377	6.047	-0.122	0.090
-341.362	-123.638	-0.204	-0.032
-340.348	-200.000	-0.005	0.215
-339.333	301.307	-0.182	-0.334
-338.318	7.030	0.101	-0.075
-337.304	-144.882	0.319	0.029
-336.289	-117.256	-0.221	-0.040
-335.275	-76.396	0.365	-0.128
-334.260	-21.820	0.251	-0.151
-333.245	-118.846	0.353	-0.062
-332.231	-10.227	-0.336	-0.222
-331.216	299.274	0.132	-0.242
-330.202	-200.000	-0.004	0.214
-329.187	-140.666	0.195	0.020
-328.172	27.012	0.191	0.159
-327.158	45.897	-0.094	0.086
-326.143	267.702	0.080	-0.139
-325.129	50.394	0.115	-0.108
-324.114	-97.218	-0.171	-0.044
-323.099	99.773	0.096	0.111
-322.085	57.509	0.231	0.224
-321.070	11.505	-0.119	0.090
-320.056	-37.598	0.173	-0.092
-319.041	800.000	0.070	0.296
-318.026	122.277	-0.157	-0.194
-317.012	-39.439	0.052	-0.027
-315.997	-147.275	0.190	-0.016
-314.983	-200.000	0.000	-0.040
-313.968	-163.687	-0.120	0.006
-312.953	355.083	-0.088	-0.174
-311.939	-57.691	-0.218	-0.095
-310.924	-200.000	-0.001	-0.056
-309.910	229.884	-0.099	0.160
-308.895	13.760	-0.204	0.158
-307.880	247.569	0.095	0.159
-306.866	123.095	-0.191	0.237
-305.851	-84.996	0.203	-0.063
-304.837	-23.470	-0.136	0.081
-303.822	74.582	-0.199	-0.208
-302.807	29.658	-0.053	0.045
-301.793	-200.000	-0.021	0.161
-300.778	-200.000	0.014	-0.079
-299.764	1.973	-0.066	0.047
-298.749	-14.055	0.165	0.106
-297.735	-200.000	-0.010	0.159
-296.720	637.150	0.078	-0.196
-295.705	82.405	-0.090	-0.097
-294.691	800.000	0.027	-0.086
-293.676	-10.755	0.311	-0.204
-292.662	800.000	-0.033	0.094
-291.647	127.625	0.172	0.217
-290.632	99.199	0.220	-0.252
-289.618	-151.213	0.201	-0.015
-288.603	-200.000	-0.041	0.345
-287.589	226.389	0.137	0.220
-286.574	-39.556	0.137	0.071
-285.559	-143.336	-0.331	0.031
-284.545	-26.692	0.219	-0.127
-283.530	-200.000	0.062	0.294
-282.516	-50.344	-0.253	-0.119
-281.501	-92.671	-0.061	0.017
-280.486	-200.000	0.044	0.213
-279.472	-200.000	0.023	-0.117
-278.457	-200.000	-0.001	-0.044
-277.443	564.772	0.067	0.162
-276.428	191.410	0.197	-0.294
-275.413	-23.256	-0.231	-0.137
-274.399	82.300	-0.155	-0.166
-273.384	800.000	0.046	0.160
-272.370	275.114	0.151	0.265
-271.355	-200.000	-0.020	-0.238
-270.340	-200.000	-0.015	0.107
-269.326	-8.414	-0.116	-0.077
-268.311	225.525	-0.082	0.131
-267.297	-91.659	-0.154	0.043
-266.282	145.186	0.181	0.240
-265.267	9.919	-0.058	0.044
-264.253	-200.000	-0.004	0.269
-263.238	317.713	0.111	0.209
-262.224	-200.000	0.014	-0.279
-261.209	336.055	0.073	0.141
-260.195	122.781	0.223	0.277
-259.180	-58.419	-0.044	-0.019
-258.165	-115.873	-0.318	-0.059
-257.151	-200.000	0.005	-0.168
-256.136	327.334	0.152	-0.288
-255.122	-200.000	0.021	0.113
-254.107	-200.000	-0.014	0.152
-253.092	-88.878	-0.199	0.059
-252.078	-84.893	0.158	-0.049
-251.063	-126.732	-0.210	0.031
-250.049	-200.000	0.037	-0.205
-249.034	24.912	0.152	-0.125
-248.019	24.919	0.161	0.132
-247.005	57.426	-0.065	0.063
-245.990	-65.123	-0.105	-0.042
-244.976	64.404	-0.126	0.126
-243.961	-91.353	0.247	-0.070
-242.946	-46.320	0.592	0.288
-241.932	-200.000	-0.009	0.062
-240.917	-200.000	-0.017	-0.258
-239.903	666.742	0.090	-0.230
-238.888	-74.339	0.184	-0.066
-237.873	668.622	-0.061	0.156
-236.859	-152.564	0.054	0.004
-235.844	-93.194	-0.086	0.024
-234.830	707.739	-0.084	-0.219
-233.815	207.184	0.177	-0.273
-232.800	68.545	-0.128	0.130
-231.786	-10.212	-0.336	0.221
-230.771	-200.000	0.057	0.266
-229.757	800.000	-0.082	-0.293
-228.742	-71.199	0.138	-0.051
-227.727	-141.781	0.321	-0.032
-226.713	389.860	0.092	0.189
-225.698	61.726	-0.404	-0.398
-224.684	293.363	0.115	0.208
-223.669	-64.329	0.046	0.019
-222.655	-33.650	-0.059	0.032
-221.640	-38.792	0.070	0.037
-220.625	-87.924	0.092	0.027
-219.611	666.324	-0.004	-0.010
-218.596	-200.000	-0.015	-0.131
-217.582	427.623	0.095	-0.202
-216.567	546.994	-0.129	0.306
-215.552	800.000	0.043	0.161
-214.538	-79.169	0.076	0.025
-213.523	227.979	-0.042	-0.068
-212.509	-85.047	-0.095	-0.029
-211.494	-110.578	-0.396	0.081
-210.479	-100.120	0.419	-0.103
-209.465	800.000	-0.155	0.610
-208.450	50.917	-0.457	0.428
-207.436	-148.867	-0.291	-0.023
-206.421	582.302	0.089	0.216
-205.406	8.331	-0.204	0.152
-204.392	160.701	0.198	-0.274
-203.377	-162.950	0.123	-0.006
-202.363	48.204	-0.123	-0.114
-201.348	332.004	0.101	-0.193
-200.333	-108.175	-0.303	-0.065
-199.319	800.000	0.037	0.110
-198.304	34.954	0.104	0.090
-197.290	107.044	0.028	0.033
-196.275	212.468	-0.048	0.075
-195.260	800.000	0.079	0.333
-194.246	-200.000	-0.089	0.442
-193.231	-200.000	0.035	0.257
-192.217	-18.341	0.209	-0.129
-191.202	-200.000	0.044	-0.362
-190.187	800.000	0.159	-0.569
-189.173	-200.000	0.005	-0.250
-188.158	86.648	0.227	-0.247
-187.144	91.345	0.298	0.331
-186.129	-17.558	-0.318	0.197
-185.114	-128.249	-0.169	0.024
-184.100	393.690	-0.093	-0.192
-183.085	-47.589	0.200	-0.096
-182.071	-153.222	-0.211	-0.015
-181.056	-200.000	-0.002	0.109
-180.042	301.666	0.168	0.306
-179.027	45.186	-0.135	-0.123
-178.012	224.102	0.102	-0.162
-176.998	21.419	-0.069	0.056
-175.983	-200.000	-0.015	-0.222
-174.969	800.000	-0.069	-0.244
-173.954	738.204	-0.085	-0.224
-172.939	-200.000	-0.011	-0.171
-171.925	-103.908	-0.033	0.008
-170.910	-82.940	0.397	0.126
-169.896	23.484	-0.081	-0.066
-168.881	-200.000	-0.067	0.356
-167.866	-200.000	-0.002	-0.065
-166.852	681.261	-0.060	0.154
-165.837	40.904	0.157	0.140
-164.823	58.874	0.142	0.138
-163.808	-32.824	-0.180	0.099
-162.793	-200.000	0.062	-0.279
-161.779	-191.381	-0.257	-0.003
-160.764	607.634	-0.068	0.166
-159.750	-78.560	-0.082	0.028
-158.735	-200.000	0.004	0.116
-157.720	-200.000	0.003	0.252
-156.706	-28.080	0.230	0.131
-155.691	-107.333	-0.197	0.043
-154.677	-16.105	-0.331	0.208
-153.662	15.729	0.137	-0.106
-152.647	73.322	0.086	-0.089
-151.633	-148.894	-0.172	-0.014
-150.618	-78.478	0.098	0.033
-149.604	-28.977	-0.314	-0.177
-148.589	-34.352	0.270	0.146
-147.574	75.380	0.055	0.057
-146.560	-58.741	0.035	-0.015
-145.545	800.000	-0.030	-0.128
-144.531	-24.471	0.256	-0.150
-143.516	29.984	-0.305	0.257
-142.502	-150.386	-0.226	-0.017
-141.487	-78.155	0.204	0.069
-140.472	-88.840	0.422	0.123
-139.458	-76.875	0.255	0.088
-138.443	129.121	-0.083	-0.104
-137.429	213.534	0.134	-0.209
-136.414	-94.456	0.217	-0.058
-135.399	-200.000	-0.023	0.136
-134.385	119.059	0.155	-0.189
-133.370	284.492	-0.162	-0.288
-132.356	25.545	-0.228	0.187
-131.341	10.585	-0.215	0.162
-130.326	-57.190	-0.263	0.114
-129.312	6.724	-0.313	0.230
-128.297	-63.831	0.136	0.055
-127.283	-131.833	-0.338	-0.044
-126.268	-97.052	-0.522	-0.135
-125.253	800.000	0.037	-0.123
-124.239	-21.392	-0.382	0.230
-123.224	-113.825	0.019	0.004
-122.210	135.325	0.158	0.202
-121.195	-91.495	0.055	-0.015
-120.180	-24.139	-0.130	-0.077
-119.166	10.373	0.226	-0.169
-118.151	-11.281	-0.103	0.067
-117.137	121.549	-0.069	0.085
-116.122	116.648	0.144	0.174
-115.107	800.000	0.074	-0.216
-114.093	800.000	0.034	0.093
-113.078	-66.722	0.033	0.013
-112.064	-200.000	-0.019	0.123
-111.049	437.498	-0.048	-0.102
-110.034	-134.739	-0.209	0.025
-109.020	-119.481	-0.294	0.050
-108.005	-15.473	-0.256	-0.161
-106.991	71.030	0.243	0.248
-105.976	-55.030	0.083	0.037
-104.962	-123.442	0.089	-0.014
-103.947	71.647	-0.122	0.125
-102.932	-56.604	0.323	0.141
-101.918	507.610	0.128	0.292
-100.903	113.542	-0.172	0.206
-99.889	32.307	0.161	-0.137
-98.874	240.571	0.059	0.098
-97.859	357.917	-0.099	0.195
-96.845	-200.000	0.028	0.136
-95.830	-117.189	-0.016	0.003
-94.816	800.000	0.043	-0.129
-93.801	-200.000	-0.076	-0.350
-92.786	-82.142	-0.306	0.098
-91.772	235.646	0.137	0.223
-90.757	34.718	0.112	0.097
-89.743	-200.000	0.075	0.346
-88.728	-73.019	-0.286	0.103
-87.713	-200.000	0.009	0.157
-86.699	-135.055	-0.028	0.003
-85.684	108.190	0.094	0.110
-84.670	-38.436	-0.344	0.179
-83.655	29.385	-0.253	0.212
-82.640	-21.847	0.078	0.047
-81.626	25.628	-0.199	0.163
-80.611	-99.015	0.112	0.028
-79.597	59.500	0.148	-0.143
-78.582	507.850	-0.106	-0.242
-77.567	219.831	-0.191	0.300
-76.553	682.749	0.089	0.227
-75.538	800.000	-0.173	0.533
-74.524	66.182	0.180	-0.179
-73.509	453.262	0.228	0.496
-72.494	-113.389	-0.124	0.024
-71.480	800.000	-0.021	0.062
-70.465	-109.541	-0.260	-0.054
-69.451	-31.287	0.150	0.083
-68.436	-30.589	0.308	-0.172
-67.422	-139.784	0.113	0.012
-66.407	800.000	-0.089	0.296
-65.392	-64.559	0.173	0.069
-64.378	-23.413	0.177	-0.105
-63.363	78.766	0.138	-0.145
-62.349	-200.000	-0.046	-0.240
-61.334	79.232	-1.061	-1.117
-60.319	367.243	0.116	0.230
-59.305	800.000	0.174	-0.693
-58.290	800.000	0.455	1.308
-57.276	800.000	0.486	1.574
-56.261	-200.000	93.923	569.436
-55.246	513.277	1404.093	3215.545
-54.232	151.950	2620.446	3509.910
-53.217	105.096	2330.732	2701.463
-52.203	41.236	1950.442	1731.770
-51.188	34.877	1736.463	1492.296
-50.173	32.278	1691.834	1434.090
-49.159	50.163	1737.095	1610.854
-48.144	51.210	1753.600	1634.169
-47.130	34.582	1715.520	1471.789
-46.115	31.812	1701.185	1438.213
-45.100	31.679	1695.998	1432.754
-44.086	31.703	1693.330	1430.624
-43.071	31.670	1690.681	1428.080
-42.057	31.566	1688.291	1425.212
-41.042	31.693	1686.135	1424.298
-40.027	31.576	1684.491	1421.968
-39.013	31.561	1682.334	1419.974
-37.998	31.443	1681.259	1418.119
-36.984	31.591	1679.618	1417.799
-35.969	31.706	1678.143	1417.368
-34.954	31.690	1676.440	1415.750
-33.940	31.617	1674.649	1413.632
-32.925	31.697	1672.670	1412.510
-31.911	31.658	1671.355	1411.048
-30.896	31.695	1669.016	1409.298
-29.881	31.717	1668.009	1408.555
-28.867	31.643	1665.974	1406.226
-27.852	31.725	1664.521	1405.555
-26.838	31.643	1663.235	1403.798
-25.823	31.688	1661.657	1402.747
-24.809	31.763	1660.180	1402.008
-23.794	31.628	1659.003	1399.950
-22.779	31.621	1657.490	1398.569
-21.765	31.727	1655.600	1397.707
-20.750	31.642	1653.955	1395.631
-19.736	31.677	1652.649	1394.732
-18.721	31.724	1651.029	1393.661
-17.706	31.732	1649.484	1392.357
-16.692	31.720	1647.669	1390.682
-15.677	31.664	1646.376	1389.120
-14.663	31.695	1645.722	1388.740
-13.648	31.636	1644.603	1387.310
-12.633	31.659	1642.546	1385.685
-11.619	31.710	1640.508	1384.288
-10.604	31.702	1639.176	1383.055
-9.590	31.782	1637.833	1382.458
-8.575	31.754	1636.394	1380.978
-7.560	31.745	1635.095	1379.762
-6.546	31.708	1634.111	1378.604
-5.531	31.721	1633.106	1377.799
-4.517	31.808	1631.404	1376.948
-3.502	31.741	1630.536	1375.668
-2.487	31.684	1629.149	1374.024
-1.473	31.679	1618.219	1364.715
-0.458	29.287	1598.987	1331.194
0.556	24.658	1598.966	1297.111
1.571	21.760	1622.299	1294.557
2.586	20.413	1633.848	1293.624
3.600	17.993	1579.302	1232.886
4.615	10.220	1466.386	1092.352
5.629	2.663	1400.820	994.534
6.644	1.140	1392.673	978.838
7.659	1.124	1390.927	977.421
8.673	0.989	1390.173	975.938
9.688	0.977	1387.911	974.185
10.702	0.739	1385.492	970.875
11.717	4.034	1390.057	995.191
12.731	11.627	1401.879	1052.628
13.746	16.632	1408.290	1089.654
14.761	17.379	1408.814	1094.771
15.775	16.899	1406.635	1089.898
16.790	15.904	1404.134	1081.472
17.804	15.104	1402.083	1074.666
18.819	14.776	1400.617	1071.348
19.834	14.446	1398.791	1067.741
20.848	14.144	1397.614	1064.817
21.863	13.904	1396.541	1062.367
22.877	13.709	1395.362	1060.127
23.892	13.648	1394.492	1058.984
24.907	13.640	1393.438	1058.041
25.921	13.728	1392.319	1057.660
26.936	13.692	1391.514	1056.726
27.950	13.722	1390.806	1056.284
28.965	13.788	1389.484	1055.608
29.980	13.786	1388.800	1054.977
30.994	13.865	1387.453	1054.364
32.009	13.916	1386.851	1054.139
33.023	13.913	1385.332	1052.872
34.038	14.016	1384.026	1052.435
35.053	13.824	1383.234	1050.525
36.067	13.849	1382.117	1049.744
37.082	13.894	1381.485	1049.458
38.096	13.845	1380.423	1048.245
39.111	13.879	1379.601	1047.744
40.126	13.822	1378.535	1046.484
41.140	13.838	1378.102	1046.161
42.155	13.626	1377.941	1044.610
43.169	13.737	1377.416	1044.819
44.184	13.693	1377.163	1044.258
45.199	13.671	1376.975	1043.885
46.213	13.683	1376.033	1043.155
47.228	13.754	1374.803	1042.575
48.242	13.788	1374.027	1042.109
49.257	13.788	1371.949	1040.439
50.271	13.746	1371.065	1039.414
51.286	13.775	1369.625	1038.414
52.301	13.790	1368.223	1037.349
53.315	13.751	1367.028	1036.113
54.330	13.759	1365.976	1035.273
55.344	13.752	1364.706	1034.171
56.359	13.720	1364.006	1033.351
57.374	13.761	1363.343	1033.014
58.388	13.636	1362.345	1031.390
59.403	13.653	1361.955	1031.108
60.417	13.646	1361.140	1030.353
61.432	13.607	1360.155	1029.276
62.447	13.531	1359.443	1028.174
63.461	13.648	1358.201	1027.872
64.476	13.540	1357.041	1026.234
65.490	13.571	1355.795	1025.392
66.505	13.625	1354.154	1024.390
67.520	13.572	1353.078	1023.162
68.534	13.638	1351.690	1022.430
69.549	13.652	1350.814	1021.759
70.563	13.634	1349.412	1020.502
71.578	13.636	1348.159	1019.471
72.593	13.582	1347.573	1018.610
73.607	13.682	1346.024	1017.962
74.622	13.585	1345.633	1016.982
75.636	13.610	1345.108	1016.648
76.651	13.495	1344.387	1015.309
77.666	13.570	1343.531	1015.032
78.680	13.579	1343.237	1014.771
79.695	13.540	1342.244	1013.697
80.709	13.662	1341.010	1013.417
81.724	13.658	1340.613	1013.003
82.739	13.751	1339.305	1012.496
83.753	13.698	1338.496	1011.471
84.768	13.809	1337.359	1011.197
85.782	13.770	1336.293	1010.065
86.797	13.847	1334.625	1009.182
87.812	13.710	1333.520	1007.427
88.826	13.778	1332.413	1006.912
89.841	13.698	1331.336	1005.528
90.855	13.821	1330.194	1005.316
91.870	13.792	1329.231	1004.329
92.884	13.819	1328.302	1003.700
93.899	13.825	1327.780	1003.253
94.914	13.922	1326.930	1003.108
95.928	13.893	1325.659	1001.884
96.943	13.816	1324.848	1000.717
97.957	13.821	1324.036	1000.046
98.972	13.891	1323.487	999.961
99.987	13.928	1321.647	998.707
101.001	13.727	1321.065	996.970
102.016	13.893	1319.787	996.912
103.030	13.861	1318.794	995.886
104.045	13.849	1318.357	995.397
105.060	13.811	1316.767	993.879
106.074	13.773	1315.363	992.502
107.089	13.813	1314.436	991.955
108.103	13.711	1313.192	990.323
109.118	13.653	1312.432	989.314
110.133	13.726	1310.475	988.183
111.147	13.762	1309.246	987.384
112.162	13.681	1308.033	985.903
113.176	13.823	1306.279	985.334
114.191	13.695	1306.169	984.404
115.206	13.748	1304.847	983.637
116.220	13.783	1303.345	982.623
117.235	13.879	1302.132	982.189
118.249	13.817	1301.380	981.171
119.264	13.756	1299.834	979.560
120.279	13.747	1298.876	978.695
121.293	13.765	1298.047	978.090
122.308	13.834	1296.641	977.353
123.322	13.731	1295.764	975.998
124.337	13.666	1295.352	975.219
125.352	13.751	1293.539	974.269
126.366	13.730	1292.231	973.074
127.381	13.703	1291.335	972.153
128.395	13.731	1289.917	971.161
129.410	13.754	1289.103	970.598
130.424	13.674	1288.769	969.795
131.439	13.823	1287.254	969.437
132.454	13.831	1286.472	968.813
133.468	13.842	1285.247	967.866
134.483	13.789	1284.989	967.278
135.497	13.819	1283.561	966.293
136.512	13.820	1282.400	965.340
137.527	13.887	1280.841	964.466
138.541	13.853	1279.426	963.121
139.556	13.887	1278.112	962.240
140.570	13.912	1276.936	961.415
141.585	13.849	1276.264	960.462
142.600	13.953	1274.500	959.648
143.614	14.035	1273.546	959.319
144.629	13.960	1272.655	958.133
145.643	13.931	1271.657	957.129
146.658	13.866	1270.770	956.003
147.673	13.880	1268.788	954.504
148.687	13.847	1267.789	953.479
149.702	13.760	1266.651	952.041
150.716	13.782	1265.240	951.022
151.731	13.859	1263.503	950.074
152.746	13.908	1263.089	949.960
153.760	13.900	1261.338	948.515
154.775	14.019	1260.080	948.160
155.789	14.024	1258.916	947.233
156.804	14.052	1258.119	946.704
157.819	14.111	1257.099	946.193
158.833	14.022	1256.107	944.852
159.848	14.023	1255.739	944.497
160.862	14.124	1253.877	943.591
161.877	14.068	1253.243	942.708
162.892	14.014	1251.746	941.198
163.906	14.017	1250.833	940.442
164.921	13.980	1250.240	939.703
165.935	13.974	1249.630	939.130
166.950	14.108	1248.441	938.911
167.964	14.048	1248.332	938.407
168.979	14.163	1247.042	938.002
169.994	14.053	1246.838	937.146
171.008	14.145	1245.510	936.584
172.023	14.141	1244.590	935.785
173.037	14.225	1244.127	935.824
174.052	14.110	1243.011	934.259
175.067	14.112	1241.943	933.380
176.081	14.136	1241.190	932.871
177.096	14.181	1240.076	932.199
178.110	14.144	1239.227	931.275
179.125	14.205	1237.792	930.456
180.140	14.177	1236.511	929.250
181.154	14.163	1235.220	928.119
182.169	14.197	1234.127	927.411
183.183	14.249	1233.122	926.861
184.198	14.291	1232.136	926.273
185.213	14.353	1230.766	925.506
186.227	14.376	1229.545	924.633
187.242	14.390	1228.473	923.821
188.256	14.450	1227.345	923.221
189.271	14.370	1226.587	922.127
190.286	14.340	1225.815	921.299
191.300	14.233	1225.170	920.142
192.315	14.331	1224.397	920.020
193.329	14.191	1223.678	918.626
194.344	14.318	1223.068	918.791
195.359	14.402	1222.102	918.445
196.373	14.359	1221.798	917.898
197.388	14.351	1221.563	917.597
198.402	14.529	1220.997	918.072
199.417	14.324	1220.287	916.326
200.432	14.537	1218.875	916.357
201.446	14.637	1218.116	916.252
202.461	14.628	1217.031	915.306
203.475	14.607	1216.265	914.536
204.490	14.644	1214.857	913.600
205.504	14.633	1213.626	912.533
206.519	14.563	1212.935	911.547
207.534	14.553	1211.687	910.476
208.548	14.675	1210.240	909.974
209.563	14.632	1209.564	909.149
210.577	14.507	1208.844	907.848
211.592	14.579	1208.011	907.531
212.607	14.665	1207.062	907.208
213.621	14.674	1205.978	906.360
214.636	14.674	1205.174	905.676
215.650	14.649	1204.185	904.716
216.665	14.794	1203.435	904.860
217.680	14.758	1202.529	903.906
218.694	14.767	1201.455	903.066
219.709	14.760	1200.951	902.569
220.723	14.743	1200.121	901.773
221.738	14.811	1199.306	901.448
222.753	14.860	1198.420	900.965
223.767	14.722	1197.733	899.625
224.782	14.969	1197.114	900.411
225.796	14.890	1196.557	899.488
226.811	14.898	1196.095	899.106
227.826	14.847	1195.327	898.171
228.840	14.915	1194.415	897.775
229.855	14.991	1193.470	897.392
230.869	14.940	1192.343	896.193
231.884	14.864	1192.230	895.617
232.899	14.996	1190.779	895.159
233.913	14.938	1190.502	894.560
234.928	14.913	1189.755	893.782
235.942	14.914	1188.990	893.135
236.957	14.880	1188.303	892.361
237.972	14.895	1187.832	892.009
238.986	14.957	1186.761	891.453
240.001	15.044	1185.872	891.174
241.015	15.060	1184.905	890.448
242.030	15.064	1184.095	889.784
243.045	15.114	1183.085	889.210
244.059	15.157	1182.385	888.834
245.074	15.131	1181.475	887.937
246.088	15.102	1180.930	887.293
247.103	15.126	1180.152	886.756
248.117	15.079	1179.295	885.784
249.132	15.131	1178.980	885.744
250.147	15.261	1177.971	885.598
251.161	15.364	1176.636	885.056
252.176	15.280	1176.761	884.630
253.190	15.372	1176.098	884.539
254.205	15.470	1175.287	884.369
255.220	15.353	1174.804	883.308
256.234	15.430	1173.636	882.760
257.249	15.426	1173.116	882.270
258.263	15.504	1172.498	882.133
259.278	15.497	1171.807	881.498
260.293	15.466	1171.554	881.067
261.307	15.591	1170.261	880.671
262.322	15.371	1170.476	879.605
263.336	15.542	1169.507	879.692
264.351	15.504	1169.192	879.179
265.366	15.576	1168.084	878.648
266.380	15.558	1167.461	878.008
267.395	15.559	1166.426	877.156
268.409	15.410	1166.047	876.013
269.424	15.556	1165.005	875.915
270.439	15.606	1164.773	875.926
271.453	15.637	1164.127	875.522
272.468	15.645	1162.822	874.506
273.482	15.607	1161.994	873.605
274.497	15.602	1161.507	873.139
275.512	15.557	1161.094	872.518
276.526	15.561	1160.372	871.917
277.541	15.658	1159.407	871.618
278.555	15.593	1158.979	870.880
279.570	15.739	1158.066	870.873
280.585	15.841	1157.055	870.568
281.599	15.787	1156.269	869.619
282.614	15.712	1155.382	868.486
283.628	15.824	1154.193	868.095
284.643	15.818	1153.440	867.419
285.657	15.804	1152.558	866.606
286.672	15.787	1151.690	865.789
287.687	15.747	1150.797	864.836
288.701	15.855	1150.057	864.761
289.716	15.777	1149.206	863.641
290.730	15.846	1148.545	863.425
291.745	15.922	1147.518	862.965
292.760	15.953	1146.634	862.381
293.774	15.914	1146.471	861.983
294.789	15.932	1146.320	861.886
295.803	15.906	1145.141	860.789
296.818	16.026	1144.674	860.976
297.833	15.890	1143.752	859.513
298.847	15.970	1143.110	859.361
299.862	15.998	1142.090	858.663
300.876	16.047	1141.056	858.056
301.891	16.070	1140.681	857.816
302.906	16.000	1139.897	856.794
303.920	16.024	1139.381	856.453
304.935	16.143	1138.646	856.428
305.949	16.169	1137.589	855.693
306.964	16.149	1137.077	855.126
307.979	16.283	1136.007	854.927
308.993	16.198	1135.523	854.058
310.008	16.350	1134.466	853.953
311.022	16.294	1133.854	853.137
312.037	16.205	1133.178	852.103
313.052	16.274	1132.214	851.651
314.066	16.133	1131.568	850.379
315.081	16.089	1130.948	849.616
316.095	16.370	1129.842	850.123
317.110	16.191	1129.127	848.611
318.125	16.308	1128.274	848.482
319.139	16.320	1127.763	848.082
320.154	16.308	1126.842	847.257
321.168	16.214	1126.397	846.373
322.183	16.265	1125.962	846.230
323.197	16.349	1125.252	846.038
324.212	16.227	1124.290	844.630
325.227	16.204	1124.097	844.296
326.241	16.366	1123.399	844.508
327.256	16.419	1122.050	843.683
328.270	16.299	1121.547	842.630
329.285	16.338	1120.712	842.122
330.300	16.330	1119.707	841.254
331.314	16.305	1118.841	840.403
332.329	16.442	1117.284	839.840
333.343	16.464	1116.828	839.534
334.358	16.482	1116.034	838.953
335.373	16.519	1115.387	838.576
336.387	16.503	1114.420	837.694
337.402	16.380	1113.936	836.645
338.416	16.494	1113.208	836.591
339.431	16.585	1112.699	836.584
340.446	16.635	1112.013	836.243
341.460	16.661	1111.211	835.695
342.475	16.586	1110.607	834.796
343.489	16.699	1108.945	834.028
344.504	16.716	1108.414	833.641
345.519	16.804	1107.437	833.264
346.533	16.769	1106.870	832.589
347.548	16.777	1106.013	831.911
348.562	16.826	1105.079	831.378
349.577	16.698	1104.860	830.508
350.592	16.762	1103.695	829.877
351.606	16.776	1102.923	829.287
352.621	16.708	1102.431	828.513
353.635	16.718	1101.730	827.962
354.650	16.912	1101.001	828.288
355.665	16.781	1100.335	827.072
356.679	16.792	1099.467	826.402
357.694	16.905	1098.694	826.298
358.708	16.859	1098.394	825.777
359.723	16.931	1097.850	825.644
360.738	16.813	1097.241	824.541
361.752	16.956	1096.650	824.717
362.767	16.860	1096.528	824.089
363.781	16.829	1095.661	823.209
364.796	17.038	1094.591	823.348
365.810	17.146	1093.886	823.268
366.825	17.022	1093.370	822.206
367.840	17.082	1092.974	822.128
368.854	17.180	1092.378	822.080
369.869	17.134	1091.510	821.133
370.883	17.061	1090.687	820.086
371.898	17.170	1089.778	819.856
372.913	17.093	1089.324	819.074
373.927	17.115	1089.029	818.882
374.942	17.094	1088.572	818.367
375.956	17.218	1087.828	818.330
376.971	17.306	1086.949	818.020
377.986	17.334	1086.153	817.484
379.000	17.309	1086.151	817.293
380.015	17.393	1085.207	816.913
381.029	17.295	1084.596	815.911
382.044	17.372	1084.033	815.784
383.059	17.334	1083.454	815.091
384.073	17.420	1082.635	814.815
385.088	17.327	1081.760	813.640
386.102	17.444	1080.355	813.072
387.117	17.398	1079.613	812.220
388.132	17.324	1078.869	811.238
389.146	17.271	1077.937	810.208
390.161	17.317	1077.294	809.874
391.175	17.401	1076.606	809.686
392.190	17.308	1076.122	808.807
393.205	17.493	1075.232	808.947
394.219	17.436	1074.452	808.017
395.234	17.434	1073.490	807.214
396.248	17.467	1072.175	806.312
397.263	17.338	1071.255	804.937
398.278	17.491	1070.736	805.200
399.292	17.416	1070.284	804.433
400.307	17.475	1069.424	803.996
401.321	17.540	1068.704	803.686
402.336	17.621	1067.671	803.220
403.350	17.518	1067.093	802.232
404.365	17.497	1066.684	801.751
405.380	17.672	1065.572	801.668
406.394	17.531	1065.297	800.731
407.409	17.706	1064.479	800.863
408.423	17.614	1063.733	799.802
409.438	17.690	1063.223	799.702
410.453	17.768	1062.096	799.149
411.467	17.793	1061.128	798.469
412.482	17.817	1060.882	798.323
413.496	17.832	1060.029	797.681
414.511	17.854	1059.600	797.392
415.526	17.921	1059.170	797.312
416.540	18.015	1058.523	797.191
417.555	17.931	1057.768	796.163
418.569	17.729	1057.813	795.181
419.584	17.852	1057.396	795.374
420.599	17.846	1056.537	794.627
421.613	102.827	1322.160	1461.892
422.628	94.827	1360.855	1461.988
