DTS Sentinel unit serial number:	SN413079Multiplexer serial number:	ORYXHardware model number:	OX4-SRSoftware version number:	ORYX F/W v4.00 Oryx Data Collector v3.7.2.0data status	okinstallation	princeton_trtdifferential loss correction	single-endedforward channel	channel 2reverse channel	N/Adate	2019/09/18time	11:59:34forward acquisition time	60.00reverse acquisition time	0.00gamma	496.2192k internal	0.2325k external	0.2325temperature offset calibration	0.9985default loss term (dB/km)	0.3790temperature slope calibration	1.0000multiplexer offset coefficient	1.0000multiplexer slope coefficient	1.0000fibre end	0.00T internal ref (°C)	31.53T ext. ref 1 (°C)	0.49T ext. ref 2 (°C)	27.73length (m)	temperature (°C)	Stokes	anti-Stokes-747.200	454.766	-0.138	-0.308
-746.185	28.217	0.224	0.191
-745.171	638.093	0.036	-0.091
-744.156	144.400	-0.186	0.250
-743.142	599.897	0.051	0.128
-742.127	-86.254	-0.155	-0.048
-741.112	496.575	-0.116	0.269
-740.098	-176.408	-0.223	-0.006
-739.083	800.000	-0.042	-0.131
-738.069	164.661	-0.116	0.165
-737.054	-200.000	0.017	-0.331
-736.039	39.244	-0.158	-0.142
-735.025	10.602	0.106	0.081
-734.010	314.274	-0.084	-0.160
-732.996	99.917	-0.189	-0.221
-731.981	-21.547	-0.212	-0.130
-730.966	-80.524	-0.416	0.140
-729.952	-148.984	-0.258	-0.021
-728.937	172.455	-0.170	0.246
-727.923	4.350	-0.208	0.154
-726.908	-160.531	-0.272	0.015
-725.894	129.525	0.069	0.089
-724.879	-77.493	0.410	0.143
-723.864	94.630	-0.132	0.151
-722.850	-200.000	0.019	0.342
-721.835	-5.299	-0.141	-0.098
-720.821	-14.602	-0.197	-0.128
-719.806	291.722	0.055	-0.102
-718.791	800.000	-0.092	-0.349
-717.777	-54.209	-0.194	-0.089
-716.762	-148.368	-0.087	-0.007
-715.748	27.261	0.039	0.033
-714.733	-10.542	-0.117	-0.078
-713.718	-4.710	-0.190	0.132
-712.704	-153.752	-0.171	0.012
-711.689	-45.445	0.096	0.048
-710.675	521.338	-0.142	0.336
-709.660	-126.732	-0.338	-0.050
-708.645	25.752	-0.057	-0.048
-707.631	-67.044	0.169	-0.067
-706.616	-142.173	0.137	-0.014
-705.602	-200.000	0.066	-0.424
-704.587	10.316	-0.119	-0.091
-703.572	-133.917	0.384	0.048
-702.558	72.999	0.102	-0.107
-701.543	-28.111	0.076	0.044
-700.529	257.629	-0.108	-0.188
-699.514	-53.501	0.340	-0.157
-698.499	27.285	0.164	-0.139
-697.485	-200.000	-0.039	-0.423
-696.470	-50.923	-0.444	-0.210
-695.456	-200.000	0.042	-0.291
-694.441	800.000	-0.057	-0.162
-693.426	185.323	-0.272	-0.406
-692.412	281.064	-0.078	0.141
-691.397	-88.500	-0.245	0.074
-690.383	191.354	0.079	-0.119
-689.368	-64.371	-0.082	0.034
-688.354	68.782	0.240	-0.248
-687.339	96.474	-0.238	0.274
-686.324	-200.000	-0.072	-0.417
-685.310	190.448	-0.132	-0.199
-684.295	-4.544	0.220	-0.153
-683.281	116.137	-0.083	0.103
-682.266	356.264	0.148	-0.297
-681.251	-200.000	-0.049	-0.223
-680.237	800.000	0.164	-0.557
-679.222	627.706	-0.081	0.206
-678.208	-182.817	-0.207	-0.004
-677.193	27.335	0.298	-0.252
-676.178	-200.000	0.057	0.413
-675.164	-9.889	-0.090	-0.060
-674.149	471.361	0.048	0.108
-673.135	-200.000	-0.019	-0.260
-672.120	-200.000	-0.021	-0.237
-671.105	-120.746	0.166	-0.028
-670.091	42.321	-0.226	-0.206
-669.076	-120.980	-0.086	0.014
-668.062	17.818	-0.139	-0.111
-667.047	75.853	-0.173	0.184
-666.032	21.991	-0.155	-0.127
-665.018	179.076	-0.146	-0.215
-664.003	-80.228	0.194	-0.065
-662.989	156.493	0.141	-0.195
-661.974	285.284	-0.100	-0.180
-660.959	382.818	0.110	-0.226
-659.945	674.156	0.047	0.123
-658.930	253.511	-0.042	-0.073
-657.916	593.148	0.140	-0.347
-656.901	-88.766	0.184	0.055
-655.886	-200.000	0.000	0.018
-654.872	523.178	0.069	-0.163
-653.857	41.842	0.224	0.204
-652.843	16.870	-0.335	-0.267
-651.828	-56.171	0.199	0.089
-650.814	-21.177	-0.285	0.175
-649.799	-200.000	-0.037	0.181
-648.784	141.838	-0.154	0.205
-647.770	-27.027	0.311	0.182
-646.755	26.087	0.185	0.155
-645.741	27.908	-0.026	0.022
-644.726	28.503	-0.287	0.244
-643.711	-10.572	0.249	0.165
-642.697	107.734	-0.212	0.254
-641.682	800.000	-0.145	0.437
-640.668	326.849	0.126	0.243
-639.653	-67.151	-0.171	-0.068
-638.638	-200.000	-0.002	-0.012
-637.624	545.895	-0.067	0.160
-636.609	-200.000	-0.023	0.130
-635.595	-60.186	-0.293	0.125
-634.580	-165.834	-0.207	-0.009
-633.565	240.110	0.105	-0.175
-632.551	-17.413	0.082	0.052
-631.536	189.700	-0.095	0.143
-630.522	185.727	-0.111	-0.165
-629.507	28.536	-0.123	-0.104
-628.492	800.000	-0.092	-0.284
-627.478	-87.350	0.040	-0.012
-626.463	9.416	0.076	0.058
-625.449	-200.000	-0.009	0.044
-624.434	79.415	0.270	-0.291
-623.419	-200.000	0.036	-0.463
-622.405	-65.891	-0.074	0.030
-621.390	-100.468	0.052	-0.013
-620.376	103.236	0.214	-0.252
-619.361	22.670	-0.186	-0.153
-618.346	800.000	-0.039	0.144
-617.332	-65.308	0.056	0.023
-616.317	-51.662	-0.084	-0.040
-615.303	-200.000	0.045	-0.442
-614.288	-83.630	0.040	-0.013
-613.273	75.425	-0.099	-0.105
-612.259	6.289	-0.171	0.127
-611.244	-27.050	0.208	0.122
-610.230	-87.964	-0.265	-0.080
-609.215	-200.000	0.039	-0.293
-608.201	-200.000	0.002	0.063
-607.186	-90.746	-0.175	0.051
-606.171	137.037	-0.209	0.275
-605.157	-45.031	-0.154	0.077
-604.142	-200.000	0.020	-0.159
-603.128	800.000	0.026	-0.072
-602.113	204.292	-0.177	-0.275
-601.098	-120.672	0.298	-0.050
-600.084	132.004	0.088	-0.114
-599.069	129.994	0.054	0.069
-598.055	-23.414	-0.097	0.059
-597.040	-129.909	-0.124	0.017
-596.025	-184.527	0.088	0.001
-595.011	-31.954	-0.643	0.361
-593.996	-142.942	-0.296	0.029
-592.982	-125.068	0.196	0.030
-591.967	-121.945	0.127	-0.021
-590.952	370.659	-0.112	-0.228
-589.938	-30.718	0.216	0.123
-588.923	137.324	-0.072	0.095
-587.909	-122.953	0.037	0.006
-586.894	115.579	-0.104	0.127
-585.879	218.576	0.115	0.184
-584.865	2.138	-0.105	-0.076
-583.850	-200.000	-0.028	0.234
-582.836	6.623	0.259	0.193
-581.821	-200.000	-0.008	0.151
-580.806	-128.100	-0.173	-0.025
-579.792	14.155	-0.257	0.201
-578.777	9.919	0.397	-0.302
-577.763	-25.066	0.035	0.021
-576.748	-3.442	0.143	-0.100
-575.733	-200.000	0.108	-0.564
-574.719	423.708	-0.171	-0.368
-573.704	447.036	-0.052	0.115
-572.690	-9.853	-0.126	0.084
-571.675	-64.676	0.044	0.018
-570.661	-72.348	-0.190	-0.070
-569.646	21.306	-0.283	-0.230
-568.631	-200.000	-0.009	-0.190
-567.617	39.776	-0.089	0.080
-566.602	-200.000	0.018	-0.100
-565.588	-110.397	0.476	-0.099
-564.573	43.771	0.163	-0.149
-563.558	-85.945	-0.109	0.034
-562.544	75.474	0.389	0.411
-561.529	632.136	0.084	0.213
-560.515	-200.000	-0.001	-0.324
-559.500	87.486	-0.227	-0.252
-558.485	115.573	0.159	-0.194
-557.471	229.793	0.107	0.176
-556.456	13.198	-0.158	-0.122
-555.442	-158.872	0.235	-0.013
-554.427	-111.897	-0.224	0.045
-553.412	-94.741	0.196	-0.053
-552.398	132.699	0.113	0.145
-551.383	-53.142	-0.123	0.057
-550.369	-200.000	-0.002	0.029
-549.354	-200.000	-0.039	0.232
-548.339	153.950	0.227	-0.311
-547.325	800.000	0.064	-0.193
-546.310	-136.731	0.211	-0.024
-545.296	-200.000	-0.008	0.209
-544.281	-120.008	-0.270	0.046
-543.266	-43.258	-0.154	-0.078
-542.252	472.330	0.040	-0.089
-541.237	-110.223	-0.047	0.010
-540.223	-38.046	-0.106	0.056
-539.208	-21.518	-0.275	0.168
-538.193	800.000	0.061	-0.205
-537.179	544.004	0.077	-0.185
-536.164	-200.000	-0.027	0.229
-535.150	227.887	-0.075	0.122
-534.135	-110.270	0.221	-0.046
-533.121	-62.176	-0.367	-0.153
-532.106	-61.387	0.096	-0.041
-531.091	-158.424	0.268	0.016
-530.077	5.130	0.223	-0.165
-529.062	-200.000	0.173	0.001
-528.048	515.592	-0.049	-0.114
-527.033	-20.406	-0.216	0.133
-526.018	-152.524	-0.184	0.013
-525.004	-42.291	-0.319	0.163
-523.989	-123.677	-0.507	-0.080
-522.975	201.072	-0.265	-0.408
-521.960	-96.610	-0.195	-0.051
-520.945	13.318	-0.164	-0.127
-519.931	59.330	-0.160	0.157
-518.916	-76.486	-0.101	-0.036
-517.902	-12.815	0.119	-0.077
-516.887	-200.000	-0.017	0.111
-515.872	446.487	0.025	0.054
-514.858	-112.502	0.109	-0.022
-513.843	-83.172	-0.354	0.114
-512.829	269.923	-0.148	0.261
-511.814	143.220	0.252	-0.335
-510.799	54.209	0.249	-0.240
-509.785	800.000	-0.022	-0.086
-508.770	-126.126	0.184	0.028
-507.756	-200.000	-0.014	0.338
-506.741	281.706	0.013	-0.024
-505.726	-65.491	0.218	0.087
-504.712	104.851	-0.037	0.044
-503.697	800.000	-0.086	0.267
-502.683	25.428	0.166	-0.138
-501.668	23.379	0.120	0.099
-500.653	-200.000	0.023	0.374
-499.639	790.210	0.069	0.190
-498.624	-32.884	-0.157	0.087
-497.610	800.000	0.081	-0.285
-496.595	71.005	0.039	-0.040
-495.581	-200.000	0.081	-0.412
-494.566	238.494	-0.184	-0.305
-493.551	800.000	-0.030	-0.108
-492.537	-9.517	-0.171	0.114
-491.522	-200.000	-0.000	0.075
-490.508	-200.000	-0.029	0.169
-489.493	-200.000	0.004	-0.387
-488.478	85.337	-0.147	-0.161
-487.464	42.882	-0.146	0.133
-486.449	76.255	0.177	0.187
-485.435	-91.908	-0.092	-0.026
-484.420	-143.136	0.391	0.038
-483.405	-200.000	-0.002	0.204
-482.391	800.000	0.072	0.241
-481.376	-200.000	0.001	-0.019
-480.362	105.579	-0.212	0.250
-479.347	168.773	0.162	0.231
-478.332	95.934	0.077	0.087
-477.318	308.275	0.087	0.162
-476.303	275.476	0.134	-0.238
-475.289	72.457	0.201	0.210
-474.274	-48.973	-0.223	0.106
-473.259	-200.000	0.030	-0.360
-472.245	-160.024	0.386	0.021
-471.230	-24.462	-0.253	-0.150
-470.216	104.979	0.047	-0.055
-469.201	-200.000	-0.034	-0.208
-468.186	107.456	-0.108	-0.128
-467.172	164.701	-0.077	0.109
-466.157	-174.086	0.435	0.013
-465.143	-200.000	-0.021	0.277
-464.128	-73.254	0.107	-0.039
-463.113	-200.000	-0.032	0.158
-462.099	-200.000	0.078	0.355
-461.084	165.301	0.028	-0.040
-460.070	800.000	0.050	-0.184
-459.055	-107.384	0.218	-0.048
-458.040	-71.087	-0.254	0.095
-457.026	18.129	0.053	-0.042
-456.011	133.969	-0.275	-0.355
-454.997	460.621	-0.088	-0.195
-453.982	-154.434	-0.119	0.008
-452.968	800.000	-0.129	-0.477
-451.953	-138.771	-0.074	-0.008
-450.938	138.987	0.054	-0.071
-449.924	63.160	0.079	0.079
-448.909	-200.000	0.053	-0.242
-447.895	278.057	-0.148	0.263
-446.880	-59.694	-0.385	0.164
-445.865	-200.000	0.035	0.529
-444.851	-74.252	-0.130	0.047
-443.836	800.000	-0.060	0.168
-442.822	412.755	-0.214	0.455
-441.807	-112.973	0.133	-0.026
-440.792	0.452	-0.184	-0.131
-439.778	516.071	-0.107	0.248
-438.763	-200.000	-0.055	0.275
-437.749	-200.000	-0.048	0.214
-436.734	-200.000	-0.005	0.268
-435.719	476.711	0.076	0.172
-434.705	-75.418	0.295	0.105
-433.690	-200.000	0.044	0.332
-432.676	-200.000	-0.003	-0.044
-431.661	40.027	0.146	-0.131
-430.646	-140.865	-0.432	0.044
-429.632	524.768	0.121	-0.284
-428.617	-200.000	-0.018	0.395
-427.603	-200.000	0.044	0.327
-426.588	-92.602	0.325	-0.091
-425.573	-200.000	-0.062	-0.325
-424.559	-171.711	-0.243	0.008
-423.544	-38.163	-0.363	-0.192
-422.530	800.000	-0.062	0.221
-421.515	298.850	0.056	-0.103
-420.500	106.429	0.216	-0.255
-419.486	-25.444	-0.186	-0.110
-418.471	-200.000	0.046	-0.218
-417.457	-36.078	-0.202	-0.108
-416.442	30.737	-0.420	-0.358
-415.428	-200.000	-0.003	0.199
-414.413	56.971	0.069	0.067
-413.398	-200.000	-0.021	0.126
-412.384	3.149	-0.141	0.102
-411.369	-9.488	0.275	-0.183
-410.355	59.473	-0.132	-0.129
-409.340	800.000	0.047	-0.141
-408.325	-200.000	0.234	0.000
-407.311	529.396	0.088	-0.208
-406.296	-200.000	0.044	-0.296
-405.282	-88.218	0.065	-0.019
-404.267	-200.000	-0.089	0.404
-403.252	-103.493	0.339	0.079
-402.238	-200.000	-0.025	0.235
-401.223	-158.917	0.285	0.016
-400.209	42.474	-0.177	0.160
-399.194	106.594	-0.250	-0.295
-398.179	-200.000	0.027	-0.153
-397.165	96.557	0.150	-0.171
-396.150	42.374	-0.171	0.155
-395.136	-182.674	-0.120	0.002
-394.121	9.247	0.244	-0.183
-393.106	-200.000	-0.026	-0.232
-392.092	-44.564	0.048	-0.024
-391.077	120.972	-0.170	-0.210
-390.063	800.000	-0.076	0.221
-389.048	77.567	-0.104	-0.110
-388.033	-41.018	0.400	0.205
-387.019	189.263	-0.154	0.229
-386.004	-200.000	-0.048	0.319
-384.990	800.000	0.059	-0.253
-383.975	356.751	-0.051	-0.102
-382.960	4.082	0.127	-0.092
-381.946	800.000	-0.018	-0.072
-380.931	-29.140	0.352	-0.201
-379.917	-53.185	0.328	0.150
-378.902	-200.000	-0.023	0.134
-377.888	-98.706	-0.060	-0.015
-376.873	62.999	-0.091	-0.091
-375.858	-200.000	-0.031	0.265
-374.844	81.809	0.136	-0.146
-373.829	-153.463	-0.121	-0.008
-372.815	-17.199	0.256	0.161
-371.800	585.864	-0.152	0.373
-370.785	561.121	-0.117	-0.282
-369.771	-28.692	0.336	0.192
-368.756	-69.077	0.142	0.054
-367.742	-97.298	0.170	-0.044
-366.727	538.427	0.113	0.267
-365.712	232.068	0.130	0.213
-364.698	547.020	0.055	-0.132
-363.683	270.560	-0.083	-0.145
-362.669	-160.017	0.188	0.010
-361.654	14.520	0.322	-0.250
-360.639	42.223	0.120	0.108
-359.625	-47.300	-0.166	-0.080
-358.610	600.328	-0.057	-0.140
-357.596	204.391	-0.075	-0.115
-356.581	800.000	0.108	-0.378
-355.566	-200.000	-0.045	0.229
-354.552	61.603	0.076	-0.075
-353.537	-200.000	0.010	-0.179
-352.523	96.377	0.074	0.085
-351.508	-95.885	0.199	-0.053
-350.493	-200.000	0.001	-0.144
-349.479	91.894	0.151	-0.169
-348.464	154.480	-0.176	-0.240
-347.450	33.956	-0.136	-0.117
-346.435	82.865	0.128	-0.139
-345.420	-103.178	-0.370	0.087
-344.406	-20.521	0.481	0.294
-343.391	55.210	0.174	0.167
-342.377	800.000	0.035	0.115
-341.362	59.141	0.149	0.146
-340.348	-164.005	-0.290	-0.013
-339.333	-87.176	0.137	-0.041
-338.318	-139.983	0.419	0.044
-337.304	-21.732	0.122	-0.074
-336.289	99.109	0.105	-0.121
-335.275	138.083	0.105	0.137
-334.260	-81.193	-0.536	-0.176
-333.245	800.000	0.116	0.376
-332.231	92.920	-0.068	-0.076
-331.216	21.229	0.073	0.059
-330.202	48.578	0.095	-0.089
-329.187	132.920	-0.143	0.183
-328.172	-52.810	-0.341	-0.156
-327.158	-200.000	-0.012	-0.061
-326.143	223.429	0.140	0.225
-325.129	148.773	-0.214	0.287
-324.114	-25.437	-0.209	0.123
-323.099	-200.000	0.006	0.078
-322.085	272.010	0.081	-0.141
-321.070	-200.000	-0.007	-0.101
-320.056	-200.000	0.008	-0.120
-319.041	-200.000	-0.010	-0.294
-318.026	-124.679	-0.180	-0.028
-317.012	-76.518	0.064	0.022
-315.997	-70.611	-0.245	0.092
-314.983	173.870	-0.070	0.100
-313.968	-200.000	0.003	0.042
-312.953	52.526	-0.181	-0.171
-311.939	138.152	0.105	0.136
-310.924	-200.000	0.020	-0.268
-309.910	-200.000	-0.012	-0.102
-308.895	139.392	-0.285	-0.372
-307.880	800.000	-0.041	0.127
-306.866	-5.213	0.134	-0.091
-305.851	800.000	0.028	0.117
-304.837	-128.506	-0.200	0.028
-303.822	501.870	-0.040	0.091
-302.807	66.388	0.156	-0.158
-301.793	-200.000	0.086	-0.684
-300.778	438.371	0.063	0.136
-299.764	-88.764	-0.285	0.084
-298.749	215.913	-0.113	-0.179
-297.735	-200.000	0.000	0.321
-296.720	71.609	0.225	0.232
-295.705	236.277	0.038	-0.062
-294.691	-200.000	-0.079	-0.447
-293.676	169.353	0.041	0.058
-292.662	800.000	-0.101	0.329
-291.647	14.833	0.095	0.073
-290.632	182.555	0.147	0.214
-289.618	-62.864	-0.271	-0.111
-288.603	800.000	0.043	-0.124
-287.589	399.354	0.161	0.334
-286.574	73.324	0.181	-0.188
-285.559	90.346	0.165	-0.183
-284.545	800.000	0.059	0.183
-283.530	800.000	-0.076	-0.304
-282.516	-70.841	0.059	-0.022
-281.501	-200.000	0.005	-0.118
-280.486	-157.439	-0.547	0.033
-279.472	193.634	0.186	-0.279
-278.457	54.286	-0.270	-0.258
-277.443	217.432	0.051	-0.081
-276.428	-200.000	0.067	-0.361
-275.413	-200.000	-0.023	-0.166
-274.399	343.129	0.087	0.168
-273.384	-67.723	0.309	0.120
-272.370	800.000	0.118	-0.461
-271.355	365.368	0.132	0.263
-270.340	62.379	0.040	-0.040
-269.326	-30.170	0.161	-0.091
-268.311	-123.285	0.227	0.036
-267.297	-130.102	-0.247	-0.033
-266.282	-200.000	0.019	0.204
-265.267	165.403	-0.252	0.352
-264.253	800.000	0.069	-0.216
-263.238	486.238	-0.079	-0.179
-262.224	182.500	0.116	0.169
-261.209	492.843	-0.065	0.148
-260.195	-200.000	-0.015	0.241
-259.180	107.757	0.268	0.316
-258.165	46.207	-0.070	-0.065
-257.151	-150.129	0.115	-0.009
-256.136	-200.000	-0.087	-0.377
-255.122	-136.208	0.111	0.013
-254.107	450.876	0.123	0.270
-253.092	-200.000	0.043	0.300
-252.078	-55.611	-0.417	-0.185
-251.063	-200.000	0.021	-0.119
-250.049	427.798	-0.098	-0.209
-249.034	800.000	-0.031	-0.120
-248.019	-53.200	0.290	-0.131
-247.005	-152.381	0.372	0.027
-245.990	800.000	-0.111	0.324
-244.976	-150.192	-0.145	0.011
-243.961	800.000	0.074	0.273
-242.946	-200.000	0.008	0.078
-241.932	-36.299	-0.047	-0.025
-240.917	800.000	0.066	-0.206
-239.903	58.089	0.129	-0.125
-238.888	800.000	-0.034	0.132
-237.873	-200.000	0.007	0.080
-236.859	229.479	0.119	-0.191
-235.844	56.757	0.120	-0.116
-234.830	-37.798	-0.395	-0.208
-233.815	-171.890	0.275	0.009
-232.800	401.493	-0.075	0.156
-231.786	541.889	-0.072	0.169
-230.771	-112.331	0.473	0.094
-229.757	-56.974	-0.462	0.202
-228.742	-200.000	0.052	-0.237
-227.727	-200.000	0.028	0.261
-226.713	-200.000	-0.000	-0.209
-225.698	-120.925	-0.201	-0.033
-224.684	127.053	0.168	0.211
-223.669	141.680	0.244	-0.320
-222.655	22.891	0.239	0.194
-221.640	28.168	-0.124	-0.103
-220.625	-200.000	-0.017	0.191
-219.611	800.000	0.057	0.241
-218.596	-200.000	-0.066	-0.472
-217.582	-103.964	0.195	-0.045
-216.567	201.261	-0.237	0.361
-215.552	-4.858	-0.084	0.057
-214.538	67.614	-0.123	0.124
-213.523	-24.595	-0.285	0.168
-212.509	96.728	0.075	0.085
-211.494	-200.000	-0.013	0.185
-210.479	800.000	-0.098	-0.356
-209.465	-82.491	-0.186	0.060
-208.450	459.348	0.124	-0.273
-207.436	-139.966	0.214	-0.022
-206.421	-200.000	0.007	0.035
-205.406	-110.023	0.264	-0.055
-204.392	244.279	-0.086	0.143
-203.377	116.790	0.011	-0.014
-202.363	212.566	-0.057	-0.089
-201.348	39.558	0.196	0.174
-200.333	-200.000	-0.005	-0.054
-199.319	-200.000	0.004	0.165
-198.304	129.930	0.184	-0.233
-197.290	359.983	0.062	0.122
-196.275	-200.000	0.006	-0.056
-195.260	800.000	-0.032	0.107
-194.246	-73.117	-0.215	0.078
-193.231	-156.908	0.483	-0.029
-192.217	-200.000	-0.073	-0.000
-191.202	-177.645	0.004	0.000
-190.187	-200.000	-0.051	0.419
-189.173	-83.018	0.151	-0.048
-188.158	800.000	0.096	0.414
-187.144	-56.489	0.211	0.093
-186.129	-62.496	-0.089	-0.037
-185.114	43.386	0.228	-0.206
-184.100	228.894	0.180	-0.289
-183.085	-96.859	-0.124	-0.032
-182.071	-73.105	-0.147	-0.053
-181.056	89.187	-0.053	-0.059
-180.042	-79.909	0.152	-0.050
-179.027	640.647	0.159	-0.399
-178.012	-94.142	-0.181	-0.049
-176.998	-114.500	-0.321	-0.061
-175.983	-48.326	0.312	-0.148
-174.969	-43.639	-0.122	-0.061
-173.954	-82.572	0.155	-0.050
-172.939	-98.415	0.219	0.055
-171.925	-127.140	0.184	-0.027
-170.910	520.137	-0.101	0.234
-169.896	-108.005	0.149	0.032
-168.881	-200.000	-0.024	-0.103
-167.866	123.150	-0.285	-0.353
-166.852	-80.601	-0.300	-0.099
-165.837	43.992	-0.169	0.152
-164.823	83.811	0.098	0.105
-163.808	-200.000	-0.041	0.222
-162.793	363.367	-0.103	0.203
-161.779	30.087	-0.035	-0.030
-160.764	800.000	0.074	-0.241
-159.750	-200.000	-0.012	-0.154
-158.735	800.000	0.058	0.174
-157.720	124.330	-0.052	-0.065
-156.706	-74.741	0.365	-0.129
-155.691	-200.000	-0.014	0.458
-154.677	-169.468	-0.318	-0.011
-153.662	-141.588	-0.320	-0.032
-152.647	-200.000	-0.010	0.195
-151.633	56.031	-0.158	0.151
-150.618	352.153	-0.067	-0.130
-149.604	-200.000	-0.042	0.227
-148.589	-200.000	0.021	-0.140
-147.574	-64.621	-0.262	0.105
-146.560	-99.362	0.244	-0.061
-145.545	-150.339	0.366	-0.028
-144.531	-15.962	0.137	0.086
-143.516	-51.001	-0.225	0.104
-142.502	115.818	-0.149	0.180
-141.487	188.854	0.068	0.100
-140.472	-172.022	-0.082	0.003
-139.458	-85.905	0.187	-0.057
-138.443	8.888	-0.110	0.082
-137.429	-200.000	-0.002	-0.176
-136.414	36.749	0.195	0.170
-135.399	169.491	0.205	-0.289
-134.385	-4.778	0.223	-0.152
-133.370	-94.755	0.132	0.035
-132.356	-17.089	0.467	-0.290
-131.341	-53.999	0.284	0.128
-130.326	-12.942	0.319	-0.204
-129.312	246.031	0.117	0.195
-128.297	-200.000	-0.047	-0.235
-127.283	-153.986	-0.307	0.021
-126.268	-0.013	0.249	-0.175
-125.253	82.784	-0.187	0.201
-124.239	471.218	-0.037	-0.082
-123.224	-82.200	0.183	-0.059
-122.210	332.635	0.136	0.259
-121.195	167.023	0.067	-0.094
-120.180	160.537	-0.121	0.166
-119.166	67.694	-0.208	-0.209
-118.151	-105.764	-0.264	0.059
-117.137	-77.979	0.337	0.114
-116.122	-26.072	0.313	-0.181
-115.107	-109.611	0.255	-0.053
-114.093	90.977	-0.284	-0.313
-113.078	-160.114	0.385	0.021
-112.064	-200.000	-0.048	0.331
-111.049	800.000	0.114	-0.353
-110.034	-15.426	0.126	-0.079
-109.020	-21.024	-0.320	0.193
-108.005	-156.986	0.129	-0.008
-106.991	-102.026	0.159	0.038
-105.976	-30.216	-0.054	0.030
-104.962	-82.943	-0.286	-0.091
-103.947	-100.693	0.313	-0.076
-102.932	194.461	-0.076	0.114
-101.918	9.279	0.325	0.242
-100.903	-200.000	-0.042	0.250
-99.889	198.751	-0.077	0.116
-98.874	226.758	0.187	0.299
-97.859	800.000	0.086	0.284
-96.845	-200.000	0.006	-0.312
-95.830	800.000	-0.049	0.198
-94.816	-200.000	-0.051	0.228
-93.801	332.937	-0.075	-0.142
-92.786	-121.110	-0.317	0.052
-91.772	-200.000	-0.014	-0.117
-90.757	61.324	-0.306	-0.299
-89.743	22.130	-0.021	-0.017
-88.728	-200.000	0.018	0.230
-87.713	-115.747	-0.352	-0.065
-86.699	-200.000	-0.003	-0.040
-85.684	233.295	-0.060	0.098
-84.670	-62.629	-0.253	0.103
-83.655	800.000	0.066	-0.227
-82.640	267.465	-0.123	-0.211
-81.626	53.045	-0.192	-0.180
-80.611	-52.234	0.115	-0.052
-79.597	-38.768	0.226	-0.117
-78.582	-200.000	-0.044	-0.217
-77.567	76.893	0.131	0.136
-76.553	317.552	-0.127	0.235
-75.538	0.814	-0.138	0.097
-74.524	-56.570	0.537	0.234
-73.509	559.299	-0.113	-0.267
-72.494	-134.528	-0.152	-0.018
-71.480	-200.000	-0.013	0.136
-70.465	274.430	-0.215	0.374
-69.451	212.099	0.076	-0.118
-68.436	63.159	-0.050	0.049
-67.422	-116.053	0.565	0.103
-66.407	156.624	0.107	-0.145
-65.392	-81.736	0.214	0.069
-64.378	370.373	-0.090	-0.180
-63.363	4.114	0.100	-0.072
-62.349	560.478	-0.085	0.201
-61.334	38.287	-0.743	-0.650
-60.319	202.621	0.458	0.695
-59.305	800.000	-0.287	-0.996
-58.290	304.001	0.568	1.035
-57.276	563.422	0.710	1.689
-56.261	-200.000	94.140	561.620
-55.246	512.418	1403.238	3210.523
-54.232	153.417	2611.751	3511.410
-53.217	103.702	2325.437	2681.561
-52.203	40.913	1945.057	1723.733
-51.188	34.759	1731.892	1487.055
-50.173	32.165	1687.619	1429.279
-49.159	49.533	1732.903	1601.735
-48.144	50.781	1749.787	1626.885
-47.130	34.465	1711.388	1466.960
-46.115	31.748	1697.231	1434.003
-45.100	31.512	1692.032	1427.748
-44.086	31.445	1689.732	1425.245
-43.071	31.459	1686.583	1422.637
-42.057	31.343	1685.151	1420.492
-41.042	31.435	1682.547	1418.939
-40.027	31.380	1680.697	1416.906
-39.013	31.417	1678.830	1415.552
-37.998	31.265	1677.688	1413.383
-36.984	31.455	1675.858	1413.225
-35.969	31.571	1674.132	1412.590
-34.954	31.557	1673.023	1411.488
-33.940	31.580	1670.741	1409.685
-32.925	31.511	1669.184	1407.792
-31.911	31.493	1667.968	1406.574
-30.896	31.568	1665.819	1405.270
-29.881	31.518	1663.899	1403.221
-28.867	31.491	1662.128	1401.472
-27.852	31.526	1660.402	1400.224
-26.838	31.412	1659.669	1398.691
-25.823	31.555	1657.234	1397.656
-24.809	31.601	1656.177	1397.054
-23.794	31.476	1655.202	1395.241
-22.779	31.549	1653.739	1394.499
-21.765	31.579	1651.367	1392.662
-20.750	31.548	1649.987	1391.212
-19.736	31.599	1648.835	1390.564
-18.721	31.553	1647.139	1388.738
-17.706	31.604	1645.444	1387.635
-16.692	31.591	1643.911	1386.193
-15.677	31.555	1642.859	1384.981
-14.663	31.589	1642.090	1384.532
-13.648	31.617	1640.340	1383.202
-12.633	31.656	1638.511	1381.898
-11.619	31.462	1637.605	1379.647
-10.604	31.577	1635.283	1378.485
-9.590	31.539	1634.257	1377.284
-8.575	31.600	1632.588	1376.271
-7.560	31.558	1631.644	1375.115
-6.546	31.583	1630.717	1374.459
-5.531	31.551	1629.360	1373.028
-4.517	31.550	1628.174	1371.968
-3.502	31.554	1627.138	1371.063
-2.487	31.636	1625.318	1370.079
-1.473	31.427	1614.066	1359.022
-0.458	28.998	1594.032	1324.633
0.556	23.742	1595.048	1291.362
1.571	21.118	1618.994	1291.244
2.586	20.326	1631.717	1295.362
3.600	18.207	1577.826	1237.164
4.615	10.272	1464.710	1094.895
5.629	2.278	1397.737	992.976
6.644	0.515	1389.594	975.716
7.659	0.515	1387.791	974.362
8.673	0.487	1386.728	973.349
9.688	0.443	1385.125	971.853
10.702	0.193	1382.030	967.992
11.717	3.809	1388.327	995.636
12.731	12.034	1401.834	1058.541
13.746	16.947	1407.372	1094.412
14.761	17.164	1406.464	1095.005
15.775	16.352	1403.851	1087.649
16.790	15.329	1401.789	1079.372
17.804	14.580	1399.267	1072.521
18.819	14.262	1397.725	1069.202
19.834	13.869	1396.243	1065.455
20.848	13.682	1395.141	1063.321
21.863	13.382	1394.154	1060.548
22.877	13.265	1392.606	1058.530
23.892	13.120	1392.044	1057.079
24.907	13.081	1391.025	1055.964
25.921	13.255	1389.689	1055.969
26.936	13.181	1389.129	1054.975
27.950	13.336	1387.816	1054.872
28.965	13.254	1387.160	1053.759
29.980	13.378	1385.975	1053.554
30.994	13.504	1384.685	1053.282
32.009	13.511	1384.187	1052.859
33.023	13.476	1382.779	1051.471
34.038	13.331	1382.005	1049.870
35.053	13.423	1380.654	1049.335
36.067	13.350	1379.778	1048.109
37.082	13.402	1378.554	1047.421
38.096	13.473	1377.475	1046.952
39.111	13.421	1376.659	1045.911
40.126	13.294	1376.122	1044.608
41.140	13.338	1375.333	1044.195
42.155	13.264	1374.817	1043.243
43.169	13.176	1374.856	1042.624
44.184	13.110	1374.628	1041.947
45.199	13.154	1374.164	1041.780
46.213	13.169	1373.644	1041.385
47.228	13.301	1372.570	1041.315
48.242	13.279	1370.969	1039.864
49.257	13.276	1369.771	1038.849
50.271	13.332	1367.897	1037.689
51.286	13.256	1367.051	1036.477
52.301	13.318	1365.541	1035.628
53.315	13.272	1364.738	1034.638
54.330	13.325	1363.579	1034.000
55.344	13.224	1361.935	1032.030
56.359	13.202	1361.070	1031.147
57.374	13.185	1360.144	1030.251
58.388	13.135	1359.671	1029.487
59.403	13.251	1359.037	1029.642
60.417	13.242	1358.043	1028.736
61.432	13.160	1357.186	1027.491
62.447	13.057	1356.401	1026.164
63.461	13.083	1354.829	1025.044
64.476	13.152	1353.803	1024.603
65.490	13.211	1352.598	1023.967
66.505	13.245	1350.911	1022.811
67.520	13.283	1349.710	1022.045
68.534	13.230	1348.636	1020.815
69.549	13.202	1347.662	1019.817
70.563	13.244	1346.435	1019.057
71.578	13.031	1345.820	1017.189
72.593	13.036	1345.035	1016.532
73.607	13.129	1343.673	1015.986
74.622	13.105	1342.813	1015.099
75.636	13.020	1342.543	1014.281
76.651	13.043	1341.453	1013.509
77.666	13.052	1340.779	1012.969
78.680	13.209	1339.811	1013.111
79.695	13.057	1339.419	1011.790
80.709	13.109	1338.579	1011.385
81.724	13.008	1338.095	1010.314
82.739	13.160	1336.691	1010.091
83.753	13.217	1336.169	1009.955
84.768	13.312	1334.551	1009.226
85.782	13.311	1333.554	1008.373
86.797	13.370	1332.187	1007.611
87.812	13.267	1330.737	1005.797
88.826	13.195	1329.877	1004.620
89.841	13.259	1328.724	1004.050
90.855	13.280	1327.936	1003.496
91.870	13.245	1327.555	1002.906
92.884	13.337	1326.254	1002.393
93.899	13.340	1325.555	1001.793
94.914	13.319	1324.829	1001.029
95.928	13.513	1323.601	1001.188
96.943	13.390	1322.663	999.643
97.957	13.288	1321.891	998.357
98.972	13.370	1320.537	997.740
99.987	13.357	1319.431	996.734
101.001	13.343	1318.572	995.917
102.016	13.371	1317.728	995.358
103.030	13.408	1316.907	994.872
104.045	13.280	1315.889	993.245
105.060	13.232	1314.843	992.079
106.074	13.350	1313.189	991.455
107.089	13.264	1311.975	989.932
108.103	13.225	1310.719	988.664
109.118	13.189	1309.418	987.379
110.133	13.207	1308.347	986.591
111.147	13.139	1307.237	985.262
112.162	13.169	1305.193	983.813
113.176	13.217	1304.695	983.640
114.191	13.265	1303.660	983.056
115.206	13.390	1301.882	982.368
116.220	13.352	1300.955	981.362
117.235	13.343	1299.600	980.197
118.249	13.377	1298.589	979.550
119.264	13.369	1297.606	978.673
120.279	13.244	1296.381	976.922
121.293	13.213	1295.680	976.128
122.308	13.183	1295.267	975.551
123.322	13.193	1293.429	974.141
124.337	13.200	1292.728	973.565
125.352	13.215	1291.810	972.880
126.366	13.235	1290.035	971.571
127.381	13.206	1289.310	970.768
128.395	13.209	1288.057	969.758
129.410	13.237	1287.092	969.111
130.424	13.217	1286.698	968.608
131.439	13.321	1285.386	968.148
132.454	13.328	1284.478	967.418
133.468	13.343	1283.350	966.573
134.483	13.254	1282.917	965.638
135.497	13.355	1281.781	965.285
136.512	13.350	1279.747	963.643
137.527	13.302	1278.884	962.624
138.541	13.359	1277.644	961.939
139.556	13.401	1275.713	960.646
140.570	13.395	1275.059	960.034
141.585	13.401	1273.505	958.810
142.600	13.411	1272.466	958.003
143.614	13.385	1272.094	957.487
144.629	13.399	1270.628	956.378
145.643	13.450	1269.309	955.598
146.658	13.468	1268.036	954.661
147.673	13.404	1266.911	953.361
148.687	13.428	1265.432	952.302
149.702	13.335	1264.038	950.630
150.716	13.430	1262.998	950.313
151.731	13.463	1261.870	949.566
152.746	13.453	1260.729	948.569
153.760	13.418	1259.380	947.267
154.775	13.488	1258.170	946.674
155.789	13.482	1257.095	945.750
156.804	13.462	1256.347	944.985
157.819	13.536	1255.179	944.446
158.833	13.591	1254.106	943.870
159.848	13.587	1253.103	943.006
160.862	13.674	1251.846	942.476
161.877	13.559	1250.769	940.926
162.892	13.521	1249.718	939.837
163.906	13.545	1249.006	939.355
164.921	13.444	1248.291	938.160
165.935	13.524	1247.131	937.657
166.950	13.602	1246.352	937.433
167.964	13.502	1246.119	936.608
168.979	13.584	1244.983	936.133
169.994	13.511	1244.349	935.163
171.008	13.678	1243.182	935.144
172.023	13.737	1241.906	934.436
173.037	13.608	1241.605	933.399
174.052	13.653	1240.685	932.876
175.067	13.639	1239.459	931.793
176.081	13.656	1238.434	931.039
177.096	13.653	1237.573	930.289
178.110	13.654	1236.605	929.488
179.125	13.712	1235.433	928.847
180.140	13.671	1234.071	927.514
181.154	13.677	1233.298	926.885
182.169	13.761	1231.391	925.835
183.183	13.798	1230.490	925.286
184.198	13.863	1229.105	924.523
185.213	13.798	1228.268	923.449
186.227	13.909	1226.958	922.998
187.242	13.836	1226.694	922.314
188.256	13.886	1225.185	921.375
189.271	13.830	1224.275	920.299
190.286	13.933	1223.247	920.017
191.300	13.722	1222.335	918.082
192.315	13.714	1221.934	917.651
193.329	13.710	1221.110	916.929
194.344	13.859	1219.882	916.753
195.359	13.825	1219.756	916.387
196.373	13.920	1219.317	916.502
197.388	14.053	1218.443	916.498
198.402	13.951	1218.164	915.643
199.417	14.126	1217.554	916.068
200.432	14.059	1216.725	914.995
201.446	14.066	1215.952	914.367
202.461	13.982	1215.201	913.265
203.475	14.083	1214.007	912.839
204.490	14.055	1212.495	911.468
205.504	13.997	1211.388	910.239
206.519	14.074	1209.972	909.513
207.534	14.125	1209.021	908.996
208.548	14.031	1208.276	907.843
209.563	14.049	1207.303	907.132
210.577	14.085	1206.351	906.528
211.592	14.103	1205.332	905.782
212.607	14.248	1204.469	905.845
213.621	14.227	1203.809	905.151
214.636	14.221	1203.104	904.508
215.650	14.212	1202.149	903.661
216.665	14.335	1200.664	903.134
217.680	14.291	1200.114	902.400
218.694	14.223	1199.441	901.449
219.709	14.314	1198.449	901.116
220.723	14.200	1197.662	899.826
221.738	14.376	1196.874	900.105
222.753	14.294	1196.025	898.944
223.767	14.426	1195.373	899.090
224.782	14.396	1194.713	898.353
225.796	14.418	1194.107	897.933
226.811	14.400	1193.304	897.156
227.826	14.432	1192.570	896.693
228.840	14.476	1192.196	896.568
229.855	14.446	1191.268	895.631
230.869	14.444	1189.798	894.435
231.884	14.356	1189.436	893.613
232.899	14.340	1188.836	893.000
233.913	14.464	1187.707	892.733
234.928	14.422	1187.215	892.064
235.942	14.401	1186.291	891.177
236.957	14.461	1185.060	890.491
237.972	14.413	1184.746	889.923
238.986	14.428	1184.122	889.454
240.001	14.484	1183.401	889.130
241.015	14.408	1182.956	888.315
242.030	14.516	1181.772	887.920
243.045	14.589	1180.977	887.633
244.059	14.624	1179.978	886.989
245.074	14.621	1179.237	886.338
246.088	14.468	1178.538	884.923
247.103	14.549	1177.864	884.769
248.117	14.671	1176.923	884.632
249.132	14.691	1176.247	884.150
250.147	14.715	1175.741	883.817
251.161	14.785	1174.656	883.296
252.176	14.840	1173.933	882.962
253.190	14.787	1173.100	881.979
254.205	14.865	1172.496	881.859
255.220	14.978	1172.309	882.234
256.234	14.981	1171.425	881.508
257.249	14.841	1170.730	880.173
258.263	14.913	1169.992	879.914
259.278	14.996	1169.417	879.842
260.293	15.039	1168.722	879.466
261.307	14.980	1168.860	879.182
262.322	15.149	1167.637	879.070
263.336	14.959	1167.388	877.809
264.351	15.098	1166.325	877.664
265.366	15.054	1165.978	877.091
266.380	15.042	1165.103	876.295
267.395	15.076	1164.034	875.590
268.409	15.145	1163.342	875.355
269.424	14.962	1163.247	874.246
270.439	15.083	1162.228	874.035
271.453	15.162	1161.159	873.569
272.468	15.140	1160.453	872.845
273.482	15.156	1159.943	872.465
274.497	15.092	1159.272	871.551
275.512	15.139	1158.722	871.303
276.526	15.052	1158.057	870.275
277.541	15.101	1157.047	869.693
278.555	15.147	1156.199	869.218
279.570	15.125	1155.847	868.765
280.585	15.282	1154.810	868.722
281.599	15.309	1153.684	867.937
282.614	15.180	1153.008	866.684
283.628	15.225	1151.716	865.868
284.643	15.215	1150.832	865.075
285.657	15.242	1149.745	864.322
286.672	15.196	1149.130	863.546
287.687	15.309	1147.956	863.168
288.701	15.422	1146.829	862.828
289.716	15.328	1146.197	861.792
290.730	15.374	1145.673	861.555
291.745	15.244	1145.479	860.666
292.760	15.333	1144.760	860.506
293.774	15.380	1144.341	860.358
294.789	15.455	1143.478	860.014
295.803	15.570	1142.247	859.601
296.818	15.350	1142.015	858.228
297.833	15.508	1141.086	858.262
298.847	15.532	1140.069	857.542
299.862	15.457	1139.664	856.776
300.876	15.522	1138.740	856.340
301.891	15.581	1137.942	855.963
302.906	15.612	1136.877	855.246
303.920	15.643	1136.407	854.973
304.935	15.579	1136.200	854.417
305.949	15.714	1135.341	854.383
306.964	15.713	1134.784	853.880
307.979	15.683	1133.818	852.928
308.993	15.651	1133.098	852.146
310.008	15.761	1132.449	852.141
311.022	15.767	1131.444	851.341
312.037	15.790	1130.923	850.990
313.052	15.584	1129.912	849.114
314.066	15.675	1129.176	848.943
315.081	15.757	1128.021	848.415
316.095	15.694	1127.073	847.308
317.110	15.676	1126.931	847.033
318.125	15.708	1126.311	846.657
319.139	15.798	1125.137	846.153
320.154	15.768	1124.023	845.087
321.168	15.747	1123.837	844.768
322.183	15.835	1123.267	844.706
323.197	15.820	1122.881	844.268
324.212	15.728	1121.982	843.052
325.227	15.840	1121.599	843.253
326.241	15.790	1120.943	842.436
327.256	15.860	1119.825	841.872
328.270	15.825	1119.258	841.192
329.285	15.865	1117.930	840.323
330.300	15.926	1117.109	839.934
331.314	15.865	1115.900	838.645
332.329	15.856	1115.025	837.870
333.343	15.845	1114.284	837.183
334.358	15.853	1113.790	836.777
335.373	15.968	1112.729	836.481
336.387	16.058	1111.952	836.265
337.402	15.988	1111.340	835.388
338.416	16.051	1110.877	835.276
339.431	16.121	1110.583	835.330
340.446	16.213	1109.439	834.847
341.460	16.196	1108.836	834.238
342.475	16.157	1107.820	833.208
343.489	16.117	1107.074	832.375
344.504	16.232	1105.745	831.868
345.519	16.218	1105.136	831.269
346.533	16.281	1104.386	830.941
347.548	16.371	1103.758	830.839
348.562	16.253	1103.404	829.916
349.577	16.284	1102.197	829.089
350.592	16.220	1101.504	828.177
351.606	16.277	1100.230	827.429
352.621	16.259	1099.915	827.027
353.635	16.205	1099.591	826.446
354.650	16.246	1098.492	825.751
355.665	16.250	1098.273	825.533
356.679	16.233	1097.456	824.763
357.694	16.253	1097.201	824.592
358.708	16.259	1096.395	823.942
359.723	16.365	1095.528	823.735
360.738	16.441	1094.815	823.499
361.752	16.420	1094.337	822.963
362.767	16.400	1093.941	822.494
363.781	16.366	1092.977	821.530
364.796	16.341	1092.853	821.243
365.810	16.353	1092.055	820.630
366.825	16.545	1091.123	820.787
367.840	16.622	1090.609	820.701
368.854	16.572	1090.157	820.048
369.869	16.582	1089.145	819.264
370.883	16.613	1088.551	818.893
371.898	16.590	1087.768	818.124
372.913	16.593	1087.132	817.583
373.927	16.670	1086.476	817.392
374.942	16.696	1086.269	817.287
375.956	16.640	1085.339	816.246
376.971	16.737	1084.627	816.105
377.986	16.779	1083.863	815.661
379.000	16.793	1083.370	815.288
380.015	16.748	1083.074	814.775
381.029	16.796	1082.191	814.270
382.044	16.876	1081.705	814.214
383.059	16.807	1081.163	813.402
384.073	16.891	1079.739	812.661
385.088	16.881	1079.131	812.085
386.102	16.880	1078.390	811.452
387.117	16.905	1077.242	810.634
388.132	16.850	1076.344	809.624
389.146	16.690	1076.032	808.556
390.161	16.846	1075.209	808.610
391.175	16.908	1074.515	808.312
392.190	16.788	1074.299	807.505
393.205	16.949	1073.074	807.282
394.219	16.945	1072.494	806.753
395.234	16.892	1071.346	805.567
396.248	16.902	1070.064	804.577
397.263	16.975	1069.424	804.372
398.278	16.915	1068.529	803.345
399.292	16.833	1068.455	802.831
400.307	16.930	1067.495	802.495
401.321	17.042	1066.801	802.432
402.336	16.928	1066.342	801.476
403.350	17.035	1065.218	801.066
404.365	17.007	1064.622	800.414
405.380	17.047	1063.955	800.030
406.394	17.088	1063.401	799.737
407.409	17.098	1062.183	798.796
408.423	17.234	1061.528	798.875
409.438	17.181	1061.247	798.344
410.453	17.155	1060.726	797.758
411.467	17.311	1059.729	797.669
412.482	17.296	1059.275	797.186
413.496	17.133	1058.517	795.781
414.511	17.274	1057.685	795.748
415.526	17.291	1057.331	795.490
416.540	17.369	1057.268	795.738
417.555	17.241	1056.635	794.591
418.569	17.291	1055.952	794.241
419.584	17.435	1055.250	794.314
420.599	17.367	1054.647	793.475
421.613	102.203	1322.245	1463.382
422.628	94.181	1361.212	1463.507
