DTS Sentinel unit serial number:	SN413079Multiplexer serial number:	ORYXHardware model number:	OX4-SRSoftware version number:	ORYX F/W v4.00 Oryx Data Collector v3.7.2.0data status	okinstallation	princeton_trtdifferential loss correction	single-endedforward channel	channel 2reverse channel	N/Adate	2019/09/10time	16:13:11forward acquisition time	60.00reverse acquisition time	0.00gamma	496.2192k internal	0.2308k external	0.2308temperature offset calibration	0.9932default loss term (dB/km)	0.3790temperature slope calibration	1.0000multiplexer offset coefficient	1.0000multiplexer slope coefficient	1.0000fibre end	0.00T internal ref (°C)	38.28T ext. ref 1 (°C)	-0.29T ext. ref 2 (°C)	31.20length (m)	temperature (°C)	Stokes	anti-Stokes-747.200	-200.000	0.002	-0.054
-746.185	800.000	0.049	0.182
-745.171	-200.000	0.001	0.306
-744.156	800.000	0.045	0.132
-743.142	-200.000	0.054	-0.283
-742.127	27.692	0.195	0.167
-741.112	800.000	-0.140	0.432
-740.098	-40.666	-0.335	0.177
-739.083	800.000	0.059	0.263
-738.069	-38.329	0.403	0.217
-737.054	5.634	0.223	-0.167
-736.039	-119.192	-0.198	-0.035
-735.025	-76.415	0.286	-0.102
-734.010	52.258	-0.122	-0.119
-732.996	95.021	0.108	0.125
-731.981	41.448	0.115	0.106
-730.966	-30.892	0.174	-0.100
-729.952	9.063	-0.123	-0.095
-728.937	-125.222	-0.324	-0.050
-727.923	-88.903	-0.222	0.067
-726.908	257.385	-0.063	-0.111
-725.894	105.470	-0.249	-0.299
-724.879	-29.601	0.296	0.172
-723.864	137.008	0.137	-0.182
-722.850	-107.185	0.232	0.052
-721.835	800.000	-0.048	0.195
-720.821	-54.704	0.486	-0.223
-719.806	81.735	-0.245	-0.270
-718.791	-101.148	-0.238	-0.059
-717.777	-136.838	-0.269	0.031
-716.762	800.000	-0.046	0.169
-715.748	89.484	-0.149	-0.169
-714.733	800.000	-0.042	-0.155
-713.718	273.697	0.171	0.308
-712.704	-160.673	-0.166	-0.009
-711.689	111.786	-0.170	-0.209
-710.675	800.000	-0.018	-0.068
-709.660	119.584	-0.019	0.024
-708.645	-35.859	0.146	-0.080
-707.631	40.914	-0.160	-0.147
-706.616	288.200	-0.051	-0.094
-705.602	455.796	-0.050	-0.113
-704.587	293.899	-0.146	-0.271
-703.572	62.999	0.095	0.097
-702.558	-61.278	0.373	0.159
-701.543	734.911	0.069	0.187
-700.529	41.155	-0.182	-0.167
-699.514	-200.000	0.004	-0.182
-698.499	112.960	-0.109	0.134
-697.485	-46.311	0.289	0.144
-696.470	-59.346	-0.208	-0.091
-695.456	127.824	0.437	-0.563
-694.441	-174.723	-0.223	-0.006
-693.426	642.495	-0.059	-0.152
-692.412	800.000	-0.078	0.237
-691.397	-200.000	-0.060	-0.382
-690.383	-106.775	-0.244	0.055
-689.368	-143.150	-0.073	0.007
-688.354	-148.630	-0.410	-0.034
-687.339	-77.418	-0.325	-0.114
-686.324	-200.000	0.076	-0.451
-685.310	-200.000	0.017	0.530
-684.295	-200.000	-0.020	-0.281
-683.281	-200.000	0.008	0.189
-682.266	11.967	0.213	0.166
-681.251	-169.110	0.188	-0.007
-680.237	-200.000	0.019	-0.166
-679.222	-133.118	-0.390	0.050
-678.208	184.058	-0.174	0.261
-677.193	-200.000	-0.024	0.428
-676.178	82.814	-0.136	0.150
-675.164	2.964	-0.234	-0.173
-674.149	-200.000	0.044	0.366
-673.135	-200.000	0.071	0.521
-672.120	150.096	-0.023	0.032
-671.105	-200.000	-0.003	-0.086
-670.091	800.000	0.019	0.067
-669.076	-200.000	-0.005	-0.042
-668.062	-86.829	-0.201	-0.062
-667.047	40.843	-0.103	0.094
-666.032	69.525	-0.153	-0.160
-665.018	-43.956	-0.139	0.071
-664.003	800.000	0.052	-0.156
-662.989	47.099	-0.224	0.211
-661.974	198.669	-0.251	0.389
-660.959	311.692	-0.117	0.223
-659.945	800.000	0.042	-0.152
-658.930	-92.701	-0.144	-0.041
-657.916	99.185	0.117	-0.136
-656.901	800.000	0.029	-0.128
-655.886	-200.000	0.030	0.227
-654.872	118.516	-0.141	0.177
-653.857	-200.000	-0.033	0.171
-652.843	132.680	-0.176	0.230
-651.828	82.643	0.111	0.122
-650.814	-52.407	-0.163	-0.076
-649.799	48.579	-0.242	-0.230
-648.784	-56.846	0.382	-0.171
-647.770	114.351	-0.114	0.141
-646.755	-148.484	-0.333	-0.028
-645.741	-200.000	0.053	-0.270
-644.726	-21.730	-0.151	-0.093
-643.711	126.914	-0.081	0.104
-642.697	-123.962	-0.388	0.062
-641.682	800.000	0.033	0.135
-640.668	146.253	-0.098	0.133
-639.653	52.700	0.135	-0.131
-638.638	-200.000	0.014	0.204
-637.624	423.782	-0.066	-0.144
-636.609	800.000	-0.019	-0.068
-635.595	-165.726	0.155	0.007
-634.580	800.000	0.035	-0.106
-633.565	48.322	0.089	-0.085
-632.551	-200.000	0.007	-0.099
-631.536	800.000	0.045	0.148
-630.522	134.523	0.204	-0.268
-629.507	11.726	0.093	-0.072
-628.492	-141.732	-0.213	-0.022
-627.478	-107.910	0.113	-0.025
-626.463	189.808	-0.138	-0.209
-625.449	97.063	-0.128	-0.149
-624.434	-8.318	0.032	-0.022
-623.419	-139.243	0.362	-0.039
-622.405	131.033	-0.093	0.121
-621.390	-154.171	0.316	0.022
-620.376	-149.163	0.183	-0.015
-619.361	-105.682	-0.251	0.058
-618.346	-200.000	-0.003	0.316
-617.332	800.000	0.025	0.091
-616.317	-62.037	0.412	-0.174
-615.303	-58.307	-0.179	-0.079
-614.288	170.169	-0.192	0.277
-613.273	-105.401	0.320	0.074
-612.259	342.632	-0.072	-0.142
-611.244	-49.981	0.063	-0.030
-610.230	-70.497	0.269	0.103
-609.215	-42.340	0.314	-0.162
-608.201	581.013	-0.064	0.159
-607.186	-132.327	0.174	-0.023
-606.171	113.811	0.116	0.143
-605.157	29.818	-0.089	0.077
-604.142	-33.165	-0.115	0.065
-603.128	-100.158	-0.137	0.035
-602.113	87.332	0.156	0.174
-601.098	277.543	0.082	-0.148
-600.084	763.219	-0.047	0.129
-599.069	625.699	-0.134	0.341
-598.055	58.051	-0.197	0.195
-597.040	52.769	-0.101	-0.097
-596.025	-23.237	-0.217	-0.132
-595.011	-188.297	-0.148	0.002
-593.996	-117.477	-0.083	-0.015
-592.982	-81.496	0.185	-0.062
-591.967	-112.409	0.455	0.092
-590.952	621.384	0.191	-0.486
-589.938	-200.000	-0.053	-0.239
-588.923	800.000	0.078	-0.228
-587.909	800.000	-0.090	-0.389
-586.894	28.812	-0.157	0.134
-585.879	-200.000	0.006	-0.066
-584.865	292.835	0.041	0.076
-583.850	-200.000	0.034	0.209
-582.836	-200.000	0.016	0.236
-581.821	-54.563	-0.193	0.088
-580.806	-184.467	0.268	0.004
-579.792	103.768	0.023	0.027
-578.777	800.000	-0.019	0.073
-577.763	185.875	-0.064	0.096
-576.748	-124.866	0.222	-0.035
-575.733	-75.280	0.106	-0.038
-574.719	-49.908	-0.167	0.080
-573.704	-53.009	0.258	0.120
-572.690	262.533	0.080	0.140
-571.675	800.000	-0.018	0.074
-570.661	24.913	0.083	0.070
-569.646	-200.000	0.007	0.062
-568.631	133.039	0.075	0.097
-567.617	110.934	0.268	-0.326
-566.602	16.771	-0.112	-0.089
-565.588	800.000	-0.051	-0.203
-564.573	-114.359	-0.102	0.020
-563.558	-19.975	0.196	-0.122
-562.544	-17.942	0.132	-0.083
-561.529	-200.000	-0.159	0.000
-560.515	38.791	-0.251	0.227
-559.500	-200.000	0.028	0.414
-558.485	0.607	-0.321	0.231
-557.471	-76.941	-0.210	0.074
-556.456	-200.000	0.040	-0.354
-555.442	-18.840	0.131	0.083
-554.427	11.478	-0.129	-0.100
-553.412	-142.880	0.097	-0.009
-552.398	71.937	0.150	-0.158
-551.383	-19.966	0.164	-0.102
-550.369	57.172	-0.282	-0.277
-549.354	226.525	-0.269	-0.441
-548.339	-200.000	0.042	-0.217
-547.325	83.747	0.048	0.053
-546.310	63.732	-0.202	-0.204
-545.296	800.000	-0.078	0.294
-544.281	-77.992	0.407	-0.141
-543.266	-200.000	-0.028	-0.194
-542.252	-117.437	-0.229	-0.042
-541.237	27.468	-0.154	-0.130
-540.223	36.134	0.274	-0.244
-539.208	28.873	0.264	-0.226
-538.193	252.782	0.112	0.192
-537.179	-200.000	-0.044	0.445
-536.164	800.000	-0.083	-0.237
-535.150	-146.441	-0.082	-0.007
-534.135	-127.108	-0.289	0.043
-533.121	-64.743	-0.331	-0.135
-532.106	121.056	0.164	-0.206
-531.091	-64.917	-0.162	-0.066
-530.077	-109.525	-0.142	0.030
-529.062	-107.256	0.150	0.033
-528.048	2.200	0.247	0.180
-527.033	800.000	-0.019	0.064
-526.018	-200.000	-0.005	0.285
-525.004	-200.000	-0.054	0.363
-523.989	-200.000	0.033	-0.204
-522.975	654.353	-0.094	0.243
-521.960	212.632	-0.065	-0.104
-520.945	-18.970	-0.092	0.058
-519.931	-38.636	-0.146	0.078
-518.916	11.986	-0.497	-0.385
-517.902	-79.110	-0.117	0.040
-516.887	-74.881	-0.194	-0.070
-515.872	702.144	-0.191	-0.508
-514.858	-35.340	-0.211	-0.116
-513.843	-15.815	-0.234	-0.150
-512.829	800.000	-0.073	0.285
-511.814	-66.890	0.096	0.038
-510.799	16.446	-0.216	-0.172
-509.785	299.702	0.073	0.136
-508.770	-200.000	0.001	0.130
-507.756	585.033	0.057	-0.142
-506.741	277.298	-0.179	-0.320
-505.726	171.018	-0.083	0.120
-504.712	-70.707	0.313	-0.119
-503.697	-140.917	-0.238	-0.025
-502.683	-109.314	-0.154	-0.033
-501.668	800.000	-0.023	0.089
-500.653	-124.164	0.189	-0.030
-499.639	588.554	-0.124	0.306
-498.624	56.382	-0.043	0.042
-497.610	-48.757	0.420	-0.203
-496.595	245.089	0.119	-0.201
-495.581	-200.000	0.016	0.077
-494.566	-50.886	0.077	-0.036
-493.551	249.733	0.055	0.094
-492.537	9.796	0.230	-0.175
-491.522	150.272	0.158	-0.215
-490.508	98.142	-0.118	0.137
-489.493	-63.461	-0.178	0.074
-488.478	-50.598	0.194	-0.092
-487.464	44.074	0.323	0.298
-486.449	-200.000	0.000	-0.130
-485.435	37.041	-0.104	0.092
-484.420	-200.000	0.005	0.035
-483.405	-139.326	-0.097	0.010
-482.391	36.277	0.218	-0.193
-481.376	474.228	-0.093	-0.211
-480.362	-189.848	0.284	-0.003
-479.347	242.180	-0.062	0.104
-478.332	-23.739	0.222	0.134
-477.318	430.019	0.074	-0.162
-476.303	234.586	0.082	0.136
-475.289	-200.000	0.064	0.459
-474.274	87.162	0.063	0.070
-473.259	-116.899	0.134	0.025
-472.245	57.202	-0.107	-0.105
-471.230	-148.546	-0.316	-0.026
-470.216	-200.000	0.019	0.227
-469.201	-104.213	-0.229	-0.053
-468.186	-67.082	-0.315	-0.125
-467.172	-100.635	-0.153	0.038
-466.157	-200.000	0.002	0.147
-465.143	800.000	0.046	-0.165
-464.128	-133.057	-0.034	0.004
-463.113	800.000	-0.055	0.174
-462.099	-116.621	-0.155	-0.029
-461.084	-200.000	-0.015	-0.235
-460.070	800.000	-0.110	0.312
-459.055	218.202	-0.065	-0.105
-458.040	35.604	-0.131	0.116
-457.026	205.183	-0.207	-0.323
-456.011	63.546	-0.142	-0.143
-454.997	800.000	-0.136	-0.474
-453.982	145.678	-0.205	-0.276
-452.968	143.826	0.125	-0.167
-451.953	109.444	-0.163	-0.197
-450.938	800.000	-0.043	0.164
-449.924	52.122	0.098	-0.094
-448.909	-134.104	-0.328	0.041
-447.895	-23.300	0.177	0.107
-446.880	-75.764	-0.107	0.038
-445.865	96.735	-0.083	-0.095
-444.851	-200.000	0.067	0.333
-443.836	-18.168	-0.127	-0.080
-442.822	-7.200	-0.377	0.257
-441.807	-61.395	0.335	-0.142
-440.792	800.000	0.101	-0.369
-439.778	-193.287	0.036	0.000
-438.763	-174.516	0.300	-0.009
-437.749	800.000	-0.003	0.010
-436.734	-200.000	0.015	0.200
-435.719	-39.953	-0.336	-0.176
-434.705	-76.597	0.149	-0.053
-433.690	147.122	0.137	0.185
-432.676	416.346	0.037	-0.079
-431.661	-148.938	0.155	-0.013
-430.646	212.167	0.142	0.225
-429.632	-33.335	-0.162	0.090
-428.617	-138.571	0.152	-0.017
-427.603	-200.000	0.024	-0.110
-426.588	-15.474	-0.184	-0.118
-425.573	60.184	0.260	0.259
-424.559	-152.186	-0.179	0.013
-423.544	-77.529	0.150	-0.052
-422.530	-200.000	0.153	0.765
-421.515	800.000	-0.087	0.267
-420.500	-13.730	0.022	0.014
-419.486	404.839	0.143	-0.303
-418.471	22.548	0.280	-0.230
-417.457	-43.566	-0.079	0.040
-416.442	13.318	0.137	0.107
-415.428	-200.000	-0.022	-0.179
-414.413	800.000	0.028	-0.077
-413.398	-26.556	-0.107	-0.063
-412.384	25.557	0.145	0.121
-411.369	-97.954	-0.323	0.084
-410.355	-23.289	-0.076	-0.046
-409.340	-0.066	0.100	-0.071
-408.325	625.354	-0.084	-0.212
-407.311	-200.000	-0.024	-0.119
-406.296	-115.190	-0.154	-0.029
-405.282	800.000	0.055	0.192
-404.267	98.117	0.033	-0.038
-403.252	480.472	0.069	0.158
-402.238	-23.976	-0.124	-0.074
-401.223	-29.200	0.142	0.082
-400.209	-81.543	0.163	0.054
-399.194	-200.000	0.007	0.153
-398.179	-58.192	0.252	-0.110
-397.165	143.425	0.146	-0.196
-396.150	-200.000	-0.013	0.140
-395.136	-130.200	-0.038	-0.005
-394.121	-200.000	0.026	-0.183
-393.106	-57.332	-0.355	0.156
-392.092	-81.832	-0.244	-0.080
-391.077	431.240	-0.011	0.023
-390.063	-200.000	-0.037	-0.216
-389.048	222.815	0.047	0.076
-388.033	-14.532	0.283	-0.183
-387.019	78.614	0.186	-0.200
-386.004	461.114	0.155	0.347
-384.990	553.796	0.132	0.318
-383.975	-98.310	-0.135	0.035
-382.960	152.457	0.275	-0.376
-381.946	-92.391	-0.354	0.100
-380.931	-56.747	-0.087	-0.039
-379.917	800.000	0.035	-0.104
-378.902	15.912	0.171	-0.135
-377.888	731.797	0.104	0.279
-376.873	800.000	-0.019	-0.059
-375.858	145.534	0.134	-0.181
-374.844	31.648	0.345	0.298
-373.829	29.419	0.271	0.231
-372.815	-29.118	-0.293	0.168
-371.800	373.603	0.118	-0.241
-370.785	236.088	-0.173	0.286
-369.771	10.140	-0.066	-0.050
-368.756	-200.000	0.044	0.463
-367.742	-73.260	-0.171	0.063
-366.727	-156.093	-0.230	0.015
-365.712	168.686	0.060	0.085
-364.698	127.239	-0.338	0.429
-363.683	-200.000	-0.015	-0.127
-362.669	164.063	0.096	-0.136
-361.654	55.146	-0.122	0.118
-360.639	-200.000	0.004	0.166
-359.625	-85.396	-0.164	0.051
-358.610	-200.000	0.027	-0.251
-357.596	-7.039	-0.109	0.074
-356.581	306.435	-0.186	-0.347
-355.566	49.102	0.049	-0.046
-354.552	-200.000	-0.031	-0.304
-353.537	333.915	-0.299	0.579
-352.523	240.466	-0.087	-0.144
-351.508	-200.000	0.044	-0.298
-350.493	239.645	0.055	0.091
-349.479	478.695	-0.056	0.126
-348.464	-105.575	0.194	-0.044
-347.450	9.724	-0.077	-0.058
-346.435	2.021	-0.095	-0.069
-345.420	-117.422	-0.210	-0.038
-344.406	-136.551	0.351	0.041
-343.391	-46.528	-0.400	0.196
-342.377	72.369	-0.144	0.150
-341.362	51.302	-0.031	0.029
-340.348	363.909	-0.030	0.060
-339.333	-131.697	-0.399	0.052
-338.318	-149.306	-0.048	-0.004
-337.304	47.385	-0.176	0.164
-336.289	-125.574	-0.324	0.049
-335.275	-96.526	-0.239	-0.063
-334.260	-167.291	-0.150	-0.006
-333.245	-4.687	-0.220	-0.152
-332.231	-200.000	0.014	-0.187
-331.216	-200.000	0.052	0.461
-330.202	-5.783	-0.053	0.036
-329.187	234.737	0.147	0.243
-328.172	-22.404	-0.234	-0.142
-327.158	-78.110	-0.153	-0.053
-326.143	-200.000	-0.009	0.128
-325.129	-72.256	0.241	-0.089
-324.114	-124.441	0.197	0.031
-323.099	-110.771	-0.205	0.042
-322.085	-200.000	-0.004	0.144
-321.070	-64.665	0.103	0.042
-320.056	-31.414	-0.297	-0.167
-319.041	667.594	-0.055	0.141
-318.026	-62.400	0.114	-0.047
-317.012	-107.569	0.195	-0.043
-315.997	-200.000	-0.018	-0.174
-314.983	224.765	0.100	-0.162
-313.968	800.000	0.090	-0.373
-312.953	129.204	-0.080	-0.102
-311.939	-67.197	-0.099	-0.039
-310.924	-200.000	0.027	-0.191
-309.910	9.588	-0.069	0.052
-308.895	-140.012	0.209	-0.022
-307.880	-100.037	-0.219	0.055
-306.866	-54.628	0.311	-0.141
-305.851	72.324	0.209	-0.218
-304.837	-75.343	0.131	-0.047
-303.822	-200.000	0.029	0.194
-302.807	45.369	0.170	-0.157
-301.793	-200.000	0.001	-0.025
-300.778	-200.000	-0.019	0.127
-299.764	-162.040	-0.171	0.009
-298.749	474.016	-0.155	0.349
-297.735	133.582	-0.111	0.143
-296.720	-15.596	-0.134	0.085
-295.705	392.107	0.087	0.181
-294.691	-35.760	0.097	-0.052
-293.676	-200.000	0.043	-0.275
-292.662	-200.000	-0.047	0.237
-291.647	-181.042	0.132	-0.003
-290.632	-200.000	0.017	0.181
-289.618	43.753	-0.291	-0.266
-288.603	201.783	0.117	0.180
-287.589	7.199	-0.148	-0.110
-286.574	511.442	-0.061	0.143
-285.559	157.710	-0.163	-0.226
-284.545	-116.125	-0.387	-0.072
-283.530	-200.000	-0.011	0.059
-282.516	45.935	0.137	-0.127
-281.501	12.677	0.139	0.108
-280.486	-77.008	-0.264	0.092
-279.472	-200.000	0.029	-0.284
-278.457	-112.663	0.254	-0.050
-277.443	-58.974	-0.138	-0.059
-276.428	477.702	-0.012	-0.027
-275.413	-70.821	0.051	0.019
-274.399	-146.809	0.130	-0.011
-273.384	-200.000	0.006	0.224
-272.370	238.490	-0.209	0.346
-271.355	-200.000	-0.013	-0.126
-270.340	-200.000	0.020	0.156
-269.326	-71.259	-0.271	-0.102
-268.311	166.510	-0.310	-0.438
-267.297	-54.775	-0.317	0.143
-266.282	47.096	-0.208	0.193
-265.267	-65.173	0.093	-0.037
-264.253	219.414	-0.180	-0.287
-263.238	-200.000	-0.043	0.278
-262.224	179.738	-0.100	0.146
-261.209	800.000	0.035	0.108
-260.195	-49.597	-0.232	0.110
-259.180	0.903	0.294	-0.210
-258.165	4.606	-0.041	0.030
-257.151	800.000	0.065	0.192
-256.136	-200.000	-0.010	0.072
-255.122	712.624	-0.062	-0.163
-254.107	-80.191	0.076	-0.025
-253.092	22.882	0.228	-0.187
-252.078	113.417	-0.182	-0.220
-251.063	800.000	-0.010	-0.037
-250.049	12.811	0.230	-0.177
-249.034	-200.000	-0.009	-0.130
-248.019	50.240	0.132	-0.124
-247.005	-13.104	-0.141	-0.092
-245.990	541.235	-0.079	-0.187
-244.976	28.409	0.243	0.205
-243.961	136.834	0.063	-0.082
-242.946	-200.000	0.020	0.255
-241.932	54.580	0.247	0.238
-240.917	-200.000	-0.004	0.186
-239.903	107.397	0.362	0.429
-238.888	295.611	-0.058	0.106
-237.873	-132.795	-0.218	-0.028
-236.859	-200.000	0.012	0.093
-235.844	143.181	0.029	0.038
-234.830	455.254	0.041	-0.090
-233.815	-123.397	-0.059	-0.009
-232.800	31.727	0.057	-0.049
-231.786	-62.291	-0.298	-0.124
-230.771	-200.000	0.084	0.603
-229.757	-6.248	-0.120	0.082
-228.742	-116.656	0.270	0.050
-227.727	-18.938	0.132	0.082
-226.713	-104.368	0.336	-0.078
-225.698	134.967	0.139	-0.180
-224.684	-159.966	0.193	-0.011
-223.669	-128.236	0.254	-0.036
-222.655	-183.464	0.231	-0.004
-221.640	-127.144	0.313	0.046
-220.625	306.373	0.128	-0.238
-219.611	-200.000	0.022	-0.337
-218.596	-38.714	0.096	-0.050
-217.582	47.814	0.185	-0.172
-216.567	225.716	-0.041	0.065
-215.552	30.929	0.245	0.209
-214.538	-61.677	-0.050	-0.021
-213.523	73.167	-0.168	0.175
-212.509	800.000	-0.050	0.152
-211.494	107.867	0.233	0.277
-210.479	63.816	0.150	0.151
-209.465	-50.338	0.089	0.042
-208.450	568.875	0.085	0.206
-207.436	-177.907	0.098	0.002
-206.421	-200.000	-0.040	0.201
-205.406	511.572	0.122	0.282
-204.392	-75.535	-0.145	0.051
-203.377	-156.750	-0.170	-0.010
-202.363	10.928	-0.070	0.053
-201.348	-47.112	0.074	0.036
-200.333	-23.300	0.340	-0.204
-199.319	272.787	0.098	-0.172
-198.304	-2.648	0.152	-0.106
-197.290	-59.168	0.067	-0.029
-196.275	192.723	0.240	0.360
-195.260	307.145	-0.177	-0.328
-194.246	116.540	0.060	0.073
-193.231	72.333	0.177	0.184
-192.217	-109.343	0.239	0.050
-191.202	-106.943	0.109	-0.024
-190.187	-200.000	0.015	0.247
-189.173	-200.000	0.002	0.178
-188.158	337.946	-0.093	0.179
-187.144	5.442	-0.090	0.066
-186.129	-134.582	0.146	-0.018
-185.114	438.601	-0.065	-0.142
-184.100	41.307	-0.117	-0.105
-183.085	373.219	0.268	-0.542
-182.071	48.302	0.222	-0.207
-181.056	39.423	0.237	0.211
-180.042	67.220	-0.174	-0.176
-179.027	103.962	0.131	-0.153
-178.012	11.832	-0.042	0.032
-176.998	-176.140	0.067	0.002
-175.983	-145.636	-0.219	0.019
-174.969	-32.962	-0.096	0.053
-173.954	-26.819	0.313	0.182
-172.939	800.000	-0.072	0.271
-171.925	800.000	0.034	-0.121
-170.910	800.000	0.098	0.298
-169.896	70.100	0.154	-0.158
-168.881	-57.864	0.091	0.040
-167.866	-200.000	0.012	-0.127
-166.852	800.000	-0.077	-0.229
-165.837	-131.915	-0.447	-0.058
-164.823	800.000	-0.141	-0.547
-163.808	-200.000	0.049	-0.286
-162.793	620.966	-0.082	0.205
-161.779	-71.835	-0.185	0.069
-160.764	-38.487	0.081	-0.042
-159.750	-9.937	0.154	0.102
-158.735	34.624	0.193	-0.168
-157.720	217.257	0.189	-0.299
-156.706	69.115	-0.160	-0.164
-155.691	800.000	-0.017	-0.066
-154.677	-200.000	-0.107	0.535
-153.662	-12.521	0.174	0.113
-152.647	436.777	0.074	0.161
-151.633	672.475	0.037	0.096
-150.618	-44.216	0.096	-0.048
-149.604	82.532	0.184	0.199
-148.589	702.571	-0.137	0.358
-147.574	0.178	0.037	0.026
-146.560	-158.576	0.257	-0.015
-145.545	208.064	-0.231	-0.358
-144.531	800.000	0.033	-0.093
-143.516	46.563	0.213	0.196
-142.502	-186.963	-0.154	-0.002
-141.487	-50.268	-0.157	-0.074
-140.472	506.246	-0.071	0.165
-139.458	-138.421	-0.274	-0.030
-138.443	-108.777	0.409	0.087
-137.429	-200.000	-0.007	-0.464
-136.414	42.617	0.226	-0.204
-135.399	25.567	-0.178	0.147
-134.385	-118.134	-0.313	-0.056
-133.370	254.040	0.265	-0.450
-132.356	105.402	-0.108	-0.126
-131.341	-112.914	0.318	0.063
-130.326	5.289	-0.442	0.323
-129.312	-81.357	0.234	0.076
-128.297	-200.000	0.006	0.065
-127.283	23.431	-0.023	0.019
-126.268	-153.668	-0.379	0.026
-125.253	210.634	0.178	0.277
-124.239	19.180	0.352	0.280
-123.224	314.725	-0.193	-0.360
-122.210	-46.089	0.321	0.157
-121.195	277.709	-0.157	0.277
-120.180	-147.245	0.179	0.015
-119.166	-200.000	-0.014	0.170
-118.151	71.367	-0.121	-0.125
-117.137	-148.333	0.191	0.016
-116.122	-77.792	-0.035	-0.012
-115.107	245.266	-0.087	-0.145
-114.093	-200.000	-0.085	0.425
-113.078	800.000	0.045	0.137
-112.064	-150.269	0.314	-0.024
-111.049	37.907	0.061	0.054
-110.034	80.466	0.294	0.314
-109.020	-200.000	-0.008	-0.200
-108.005	-200.000	0.019	0.193
-106.991	-33.301	0.313	-0.172
-105.976	-74.358	0.392	-0.140
-104.962	-166.439	0.228	-0.009
-103.947	-46.030	-0.294	0.144
-102.932	70.453	0.092	0.094
-101.918	12.226	-0.112	0.086
-100.903	800.000	0.017	0.059
-99.889	-200.000	0.043	0.192
-98.874	240.811	0.058	0.097
-97.859	800.000	-0.024	-0.079
-96.845	718.586	-0.011	-0.028
-95.830	-74.938	0.061	-0.022
-94.816	170.956	0.259	-0.369
-93.801	214.705	-0.027	0.043
-92.786	62.708	0.340	0.337
-91.772	186.321	-0.032	-0.047
-90.757	-200.000	-0.018	0.164
-89.743	-200.000	-0.023	0.149
-88.728	-86.837	-0.219	-0.066
-87.713	375.014	0.247	0.500
-86.699	-106.384	-0.386	-0.086
-85.684	-75.783	-0.079	-0.028
-84.670	298.384	-0.095	-0.173
-83.655	-200.000	-0.043	0.249
-82.640	-83.160	0.269	-0.086
-81.626	-77.714	-0.432	-0.148
-80.611	-109.909	-0.229	0.048
-79.597	46.410	0.041	-0.038
-78.582	-44.533	-0.072	-0.036
-77.567	-100.681	0.182	-0.044
-76.553	95.550	-0.251	0.284
-75.538	658.455	-0.009	0.023
-74.524	117.561	0.061	-0.075
-73.509	800.000	-0.133	-0.475
-72.494	526.769	-0.121	-0.281
-71.480	53.189	0.197	-0.187
-70.465	-12.133	0.064	-0.041
-69.451	563.200	-0.104	-0.249
-68.436	63.857	0.115	-0.114
-67.422	94.908	0.025	-0.028
-66.407	178.531	0.089	0.129
-65.392	-136.453	-0.229	-0.026
-64.378	380.534	-0.108	-0.220
-63.363	182.329	-0.038	0.055
-62.349	415.757	0.110	0.232
-61.334	11.654	-0.763	-0.579
-60.319	-200.000	0.017	0.448
-59.305	-200.000	0.132	-0.827
-58.290	645.452	0.427	1.079
-57.276	468.771	0.699	1.553
-56.261	-200.000	82.644	502.113
-55.246	565.073	1380.478	3311.623
-54.232	178.152	2646.259	3821.249
-53.217	115.649	2396.788	2900.146
-52.203	47.537	1999.315	1844.706
-51.188	41.381	1780.237	1593.507
-50.173	38.750	1733.380	1530.994
-49.159	53.535	1771.583	1681.489
-48.144	57.407	1789.595	1729.007
-47.130	41.237	1752.553	1567.343
-46.115	38.305	1738.614	1531.883
-45.100	38.174	1733.706	1526.475
-44.086	38.221	1730.972	1524.372
-43.071	38.077	1728.860	1521.336
-42.057	38.146	1725.978	1519.270
-41.042	38.133	1723.588	1517.008
-40.027	38.101	1721.924	1515.235
-39.013	38.135	1719.480	1513.286
-37.998	38.152	1717.948	1512.014
-36.984	38.160	1716.462	1510.705
-35.969	38.302	1714.930	1510.392
-34.954	38.425	1712.902	1509.497
-33.940	38.355	1711.126	1507.333
-32.925	38.334	1709.167	1505.387
-31.911	38.301	1707.661	1503.747
-30.896	38.275	1705.830	1501.871
-29.881	38.289	1704.144	1500.435
-28.867	38.272	1702.683	1498.964
-27.852	38.251	1701.196	1497.428
-26.838	38.304	1699.588	1496.362
-25.823	38.317	1698.149	1495.137
-24.809	38.332	1696.465	1493.706
-23.794	38.275	1695.228	1492.123
-22.779	38.320	1693.624	1490.998
-21.765	38.224	1692.252	1489.001
-20.750	38.329	1690.061	1487.807
-19.736	38.307	1689.123	1486.761
-18.721	38.362	1687.438	1485.636
-17.706	38.331	1685.686	1483.797
-16.692	38.281	1684.251	1482.097
-15.677	38.297	1682.788	1480.874
-14.663	38.318	1681.145	1479.527
-13.648	38.306	1679.564	1477.984
-12.633	38.344	1677.991	1476.832
-11.619	38.213	1676.777	1474.712
-10.604	38.247	1674.639	1473.032
-9.590	38.223	1674.153	1472.363
-8.575	38.331	1672.350	1471.530
-7.560	38.312	1670.822	1469.990
-6.546	38.331	1669.482	1468.895
-5.531	38.258	1668.781	1467.666
-4.517	38.259	1667.349	1466.359
-3.502	38.201	1666.384	1465.017
-2.487	38.350	1664.698	1464.590
-1.473	38.165	1653.148	1452.998
-0.458	35.537	1632.572	1415.519
0.556	28.879	1631.297	1376.643
1.571	26.147	1655.981	1376.549
2.586	25.816	1670.924	1386.299
3.600	24.227	1620.530	1332.501
4.615	14.650	1501.718	1168.006
5.629	3.152	1423.730	1030.592
6.644	-0.114	1411.941	1000.245
7.659	-0.251	1410.390	998.148
8.673	-0.421	1408.689	995.727
9.688	-0.373	1406.854	994.657
10.702	-0.627	1404.720	991.383
11.717	3.755	1413.744	1026.825
12.731	13.392	1432.166	1104.727
13.746	16.188	1434.757	1125.304
14.761	13.455	1428.686	1102.270
15.775	13.054	1426.414	1097.752
16.790	12.938	1426.161	1096.688
17.804	12.890	1425.992	1096.142
18.819	13.122	1425.642	1097.317
19.834	13.117	1424.768	1096.515
20.848	13.071	1423.290	1094.978
21.863	13.157	1422.409	1094.771
22.877	12.993	1422.050	1093.315
23.892	13.059	1421.248	1093.038
24.907	13.124	1420.058	1092.453
25.921	13.057	1418.999	1091.102
26.936	13.099	1418.205	1090.667
27.950	13.144	1416.804	1089.791
28.965	13.041	1415.801	1088.244
29.980	13.086	1413.932	1087.011
30.994	13.061	1412.340	1085.522
32.009	13.070	1411.076	1084.515
33.023	13.063	1409.766	1083.366
34.038	13.035	1408.458	1082.085
35.053	13.094	1406.839	1081.128
36.067	13.049	1406.259	1080.296
37.082	13.062	1404.716	1079.101
38.096	13.071	1403.032	1077.765
39.111	13.149	1402.314	1077.629
40.126	13.119	1401.758	1076.910
41.140	13.070	1400.803	1075.760
42.155	12.994	1400.765	1075.143
43.169	13.103	1400.352	1075.441
44.184	13.081	1400.270	1075.139
45.199	13.110	1399.475	1074.621
46.213	13.085	1399.127	1074.101
47.228	13.016	1397.904	1072.614
48.242	13.198	1396.354	1072.512
49.257	13.050	1395.197	1070.568
50.271	13.156	1393.246	1069.667
51.286	13.180	1391.691	1068.530
52.301	13.126	1390.209	1066.951
53.315	13.038	1389.764	1065.944
54.330	13.079	1388.850	1065.414
55.344	13.054	1387.069	1063.794
56.359	13.129	1385.798	1063.207
57.374	13.195	1385.070	1062.980
58.388	13.131	1384.248	1061.841
59.403	13.084	1383.767	1061.076
60.417	13.152	1382.751	1060.644
61.432	13.106	1381.748	1059.482
62.447	13.124	1380.424	1058.491
63.461	13.225	1379.177	1058.085
64.476	13.078	1378.400	1056.458
65.490	13.192	1376.863	1055.915
66.505	13.115	1374.912	1053.833
67.520	13.145	1373.183	1052.607
68.534	13.237	1371.861	1052.082
69.549	13.199	1371.037	1051.116
70.563	13.203	1370.053	1050.297
71.578	13.181	1368.429	1048.817
72.593	13.187	1367.629	1048.149
73.607	13.156	1367.096	1047.449
74.622	13.215	1366.131	1046.995
75.636	13.213	1365.245	1046.209
76.651	13.157	1364.473	1045.174
77.666	13.093	1363.685	1044.068
78.680	13.176	1362.850	1043.866
79.695	13.199	1361.729	1043.059
80.709	13.162	1360.631	1041.892
81.724	13.183	1359.410	1040.997
82.739	13.148	1358.234	1039.783
83.753	13.145	1357.525	1039.132
84.768	13.179	1356.049	1038.121
85.782	13.205	1354.367	1036.907
86.797	13.221	1353.151	1035.985
87.812	13.192	1351.688	1034.589
88.826	13.207	1350.636	1033.786
89.841	13.181	1349.243	1032.469
90.855	13.209	1348.386	1031.894
91.870	13.182	1347.101	1030.651
92.884	13.201	1345.906	1029.763
93.899	13.219	1344.824	1028.958
94.914	13.169	1343.658	1027.660
95.928	13.339	1342.318	1027.603
96.943	13.223	1341.963	1026.522
97.957	13.216	1340.737	1025.446
98.972	13.256	1339.207	1024.437
99.987	13.176	1338.595	1023.382
101.001	13.250	1337.087	1022.593
102.016	13.258	1335.852	1021.613
103.030	13.233	1334.401	1020.256
104.045	13.227	1333.272	1019.264
105.060	13.373	1331.227	1018.510
106.074	13.333	1329.988	1017.227
107.089	13.275	1329.139	1016.128
108.103	13.387	1327.467	1015.452
109.118	13.349	1326.038	1014.036
110.133	13.295	1324.922	1012.762
111.147	13.409	1322.898	1011.822
112.162	13.353	1321.773	1010.530
113.176	13.196	1320.744	1008.694
114.191	13.257	1319.248	1007.835
115.206	13.343	1317.721	1007.100
116.220	13.317	1316.312	1005.778
117.235	13.233	1315.284	1004.392
118.249	13.307	1314.064	1003.825
119.264	13.342	1313.061	1003.178
120.279	13.307	1311.729	1001.864
121.293	13.394	1310.387	1001.274
122.308	13.477	1308.351	1000.132
123.322	13.418	1307.139	998.759
124.337	13.367	1306.090	997.560
125.352	13.430	1304.724	996.808
126.366	13.283	1303.665	995.027
127.381	13.345	1302.672	994.558
128.395	13.440	1301.186	993.903
129.410	13.400	1300.209	992.829
130.424	13.337	1299.200	991.595
131.439	13.371	1297.673	990.546
132.454	13.410	1296.342	989.671
133.468	13.434	1295.059	988.748
134.483	13.446	1294.578	988.365
135.497	13.459	1293.774	987.745
136.512	13.444	1292.347	986.478
137.527	13.337	1290.628	984.438
138.541	13.404	1288.795	983.356
139.556	13.480	1287.151	982.466
140.570	13.292	1286.241	980.566
141.585	13.331	1284.812	979.619
142.600	13.314	1282.995	978.051
143.614	13.202	1282.896	977.226
144.629	13.325	1280.880	976.331
145.643	13.409	1279.317	975.548
146.658	13.320	1278.714	974.476
147.673	13.329	1276.973	973.118
148.687	13.338	1275.945	972.297
149.702	13.307	1274.728	971.105
150.716	13.277	1273.015	969.534
151.731	13.233	1271.886	968.331
152.746	13.251	1271.079	967.736
153.760	13.342	1269.134	966.705
154.775	13.281	1267.891	965.317
155.789	13.364	1266.724	964.825
156.804	13.330	1265.605	963.689
157.819	13.368	1264.346	962.868
158.833	13.307	1263.424	961.725
159.848	13.283	1262.658	960.918
160.862	13.375	1261.292	960.329
161.877	13.326	1260.129	959.073
162.892	13.385	1259.132	958.570
163.906	13.413	1258.155	957.906
164.921	13.430	1257.322	957.284
165.935	13.275	1256.858	955.952
166.950	13.307	1255.823	955.261
167.964	13.360	1255.197	955.009
168.979	13.284	1254.935	954.285
169.994	13.430	1253.396	953.874
171.008	13.341	1253.181	953.110
172.023	13.370	1252.142	952.406
173.037	13.386	1251.223	951.712
174.052	13.462	1250.047	951.170
175.067	13.358	1249.328	949.941
176.081	13.337	1248.293	948.952
177.096	13.362	1247.451	948.371
178.110	13.479	1245.939	947.809
179.125	13.403	1245.384	946.867
180.140	13.468	1244.056	946.142
181.154	13.457	1242.858	945.087
182.169	13.460	1240.980	943.589
183.183	13.476	1240.454	943.198
184.198	13.390	1239.256	941.714
185.213	13.468	1237.855	941.008
186.227	13.419	1237.178	940.132
187.242	13.466	1236.264	939.622
188.256	13.471	1235.180	938.744
189.271	13.483	1234.098	937.906
190.286	13.465	1233.195	937.035
191.300	13.464	1232.446	936.378
192.315	13.457	1232.133	936.016
193.329	13.483	1231.160	935.342
194.344	13.556	1230.449	935.133
195.359	13.489	1230.235	934.510
196.373	13.520	1229.474	934.023
197.388	13.480	1228.958	933.320
198.402	13.443	1228.612	932.769
199.417	13.553	1227.927	932.783
200.432	13.522	1227.190	931.971
201.446	13.502	1226.099	930.946
202.461	13.424	1225.329	929.843
203.475	13.360	1224.309	928.625
204.490	13.481	1222.619	927.940
205.504	13.481	1221.965	927.358
206.519	13.538	1220.650	926.599
207.534	13.468	1219.673	925.383
208.548	13.396	1219.207	924.548
209.563	13.456	1218.069	923.937
210.577	13.403	1217.520	923.145
211.592	13.408	1216.403	922.244
212.607	13.499	1215.210	921.760
213.621	13.544	1214.049	921.051
214.636	13.575	1213.283	920.563
215.650	13.454	1212.542	919.248
216.665	13.492	1211.699	918.738
217.680	13.535	1210.599	918.057
218.694	13.555	1209.743	917.437
219.709	13.494	1209.185	916.598
220.723	13.543	1208.377	916.173
221.738	13.542	1207.636	915.526
222.753	13.430	1207.445	914.681
223.767	13.560	1206.244	914.407
224.782	13.471	1205.489	913.263
225.796	13.500	1204.962	912.941
226.811	13.539	1204.392	912.648
227.826	13.503	1203.435	911.641
228.840	13.521	1202.853	911.219
229.855	13.605	1201.718	910.741
230.869	13.488	1201.307	909.708
231.884	13.567	1200.588	909.515
232.899	13.546	1199.980	908.856
233.913	13.581	1199.070	908.281
234.928	13.552	1198.303	907.462
235.942	13.610	1197.577	907.149
236.957	13.583	1196.894	906.401
237.972	13.634	1195.766	905.747
238.986	13.577	1195.557	905.194
240.001	13.496	1194.674	904.008
241.015	13.520	1193.644	903.275
242.030	13.609	1193.023	903.212
243.045	13.607	1192.058	902.393
244.059	13.623	1191.213	901.759
245.074	13.649	1190.369	901.184
246.088	13.607	1189.649	900.330
247.103	13.540	1189.005	899.395
248.117	13.679	1187.802	899.164
249.132	13.620	1187.132	898.255
250.147	13.568	1186.758	897.613
251.161	13.684	1185.670	897.334
252.176	13.538	1184.871	895.864
253.190	13.658	1184.364	896.048
254.205	13.640	1183.695	895.367
255.220	13.594	1183.142	894.621
256.234	13.616	1182.586	894.240
257.249	13.630	1181.736	893.592
258.263	13.731	1180.958	893.471
259.278	13.709	1180.228	892.722
260.293	13.629	1180.029	892.058
261.307	13.627	1179.006	891.195
262.322	13.652	1178.538	890.901
263.336	13.608	1177.997	890.172
264.351	13.653	1177.764	890.162
265.366	13.536	1176.751	888.691
266.380	13.653	1175.511	888.303
267.395	13.535	1175.103	887.285
268.409	13.675	1174.269	887.323
269.424	13.618	1173.947	886.696
270.439	13.652	1173.339	886.343
271.453	13.583	1172.558	885.302
272.468	13.593	1171.239	884.284
273.482	13.614	1170.647	883.869
274.497	13.656	1170.161	883.651
275.512	13.650	1169.266	882.860
276.526	13.502	1169.192	881.941
277.541	13.484	1168.361	881.142
278.555	13.651	1167.319	881.165
279.570	13.628	1166.541	880.376
280.585	13.689	1165.664	879.962
281.599	13.583	1164.447	878.401
282.614	13.681	1163.630	878.225
283.628	13.680	1162.640	877.394
284.643	13.680	1161.514	876.470
285.657	13.665	1161.211	876.084
286.672	13.581	1159.841	874.529
287.687	13.711	1158.881	874.411
288.701	13.727	1157.770	873.582
289.716	13.714	1157.219	873.022
290.730	13.690	1156.691	872.420
291.745	13.762	1155.816	872.058
292.760	13.686	1155.472	871.322
293.774	13.710	1154.914	870.950
294.789	13.793	1153.699	870.395
295.803	13.602	1153.550	869.204
296.818	13.719	1152.444	868.907
297.833	13.708	1152.036	868.465
298.847	13.680	1151.062	867.506
299.862	13.765	1150.211	867.234
300.876	13.773	1149.533	866.685
301.891	13.623	1149.323	865.669
302.906	13.524	1148.440	864.411
303.920	13.697	1147.519	864.544
304.935	13.596	1147.182	863.685
305.949	13.747	1146.186	863.644
306.964	13.574	1145.582	862.214
307.979	13.696	1144.598	862.031
308.993	13.710	1143.823	861.442
310.008	13.732	1142.889	860.775
311.022	13.712	1142.100	860.003
312.037	13.692	1141.402	859.298
313.052	13.703	1140.644	858.710
314.066	13.677	1139.658	857.755
315.081	13.659	1139.025	857.109
316.095	13.706	1138.032	856.531
317.110	13.622	1137.682	855.757
318.125	13.759	1136.815	855.736
319.139	13.717	1135.734	854.628
320.154	13.771	1134.786	854.118
321.168	13.686	1134.586	853.456
322.183	13.688	1134.136	853.051
323.197	13.653	1133.305	852.170
324.212	13.663	1132.831	851.789
325.227	13.611	1132.384	851.110
326.241	13.699	1131.342	850.704
327.256	13.629	1130.672	849.769
328.270	13.641	1129.783	849.083
329.285	13.739	1128.666	848.670
330.300	13.724	1127.655	847.760
331.314	13.761	1126.689	847.147
332.329	13.679	1125.763	845.961
333.343	13.661	1124.982	845.203
334.358	13.759	1124.040	844.924
335.373	13.708	1123.484	844.172
336.387	13.566	1122.540	842.662
337.402	13.697	1121.928	842.795
338.416	13.663	1121.188	841.991
339.431	13.638	1120.265	841.100
340.446	13.708	1119.409	840.737
341.460	13.750	1118.533	840.214
342.475	13.621	1118.032	839.111
343.489	13.582	1117.390	838.361
344.504	13.694	1115.865	837.706
345.519	13.565	1115.332	836.579
346.533	13.645	1114.016	835.923
347.548	13.663	1113.353	835.440
348.562	13.605	1112.737	834.615
349.577	13.661	1112.411	834.579
350.592	13.725	1111.149	833.877
351.606	13.572	1111.014	832.935
352.621	13.650	1109.901	832.418
353.635	13.718	1109.181	832.147
354.650	13.639	1108.695	831.310
355.665	13.626	1108.139	830.755
356.679	13.581	1107.295	829.823
357.694	13.614	1106.602	829.397
358.708	13.659	1105.812	828.954
359.723	13.664	1105.276	828.503
360.738	13.593	1104.718	827.658
361.752	13.649	1103.905	827.258
362.767	13.706	1103.417	827.104
363.781	13.635	1102.915	826.296
364.796	13.661	1102.185	825.808
365.810	13.686	1101.616	825.432
366.825	13.602	1100.993	824.478
367.840	13.515	1100.315	823.465
368.854	13.667	1099.462	823.506
369.869	13.658	1098.566	822.716
370.883	13.604	1097.955	821.921
371.898	13.691	1096.977	821.545
372.913	13.621	1096.626	820.861
373.927	13.572	1096.187	820.221
374.942	13.603	1095.243	819.592
375.956	13.694	1094.689	819.555
376.971	13.588	1094.222	818.611
377.986	13.580	1093.514	817.971
379.000	13.658	1092.706	817.678
380.015	13.682	1092.015	817.208
381.029	13.604	1091.551	816.400
382.044	13.556	1090.753	815.497
383.059	13.564	1090.123	814.991
384.073	13.584	1089.235	814.353
385.088	13.621	1088.070	813.594
386.102	13.528	1087.132	812.362
387.117	13.619	1086.244	812.075
388.132	13.575	1085.564	811.281
389.146	13.483	1084.805	810.187
390.161	13.613	1083.886	810.067
391.175	13.511	1083.217	809.000
392.190	13.685	1082.282	809.076
393.205	13.650	1081.507	808.254
394.219	13.515	1080.757	806.964
395.234	13.533	1079.620	806.133
396.248	13.494	1078.589	805.104
397.263	13.503	1077.369	804.163
398.278	13.545	1076.516	803.657
399.292	13.618	1076.117	803.644
400.307	13.527	1075.533	802.694
401.321	13.608	1074.915	802.558
402.336	13.605	1074.116	801.875
403.350	13.545	1073.558	801.095
404.365	13.556	1072.767	800.490
405.380	13.575	1071.764	799.759
406.394	13.536	1071.152	799.046
407.409	13.481	1070.303	798.075
408.423	13.567	1069.310	797.682
409.438	13.523	1068.635	796.895
410.453	13.483	1067.915	796.096
411.467	13.468	1066.846	795.156
412.482	13.498	1066.513	794.980
413.496	13.482	1065.507	794.083
414.511	13.475	1065.187	793.739
415.526	13.529	1064.385	793.331
416.540	13.482	1063.906	792.679
417.555	13.591	1063.066	792.504
418.569	13.493	1062.616	791.629
419.584	13.466	1061.989	790.964
420.599	13.405	1061.583	790.299
421.613	143.704	1386.651	1773.545
422.628	132.317	1434.008	1773.659
