DTS Sentinel unit serial number:	SN413079Multiplexer serial number:	ORYXHardware model number:	OX4-SRSoftware version number:	ORYX F/W v4.00 Oryx Data Collector v3.7.2.0data status	okinstallation	princeton_trtdifferential loss correction	single-endedforward channel	channel 2reverse channel	N/Adate	2019/09/10time	22:33:10forward acquisition time	60.00reverse acquisition time	0.00gamma	496.2192k internal	0.2329k external	0.2329temperature offset calibration	0.9942default loss term (dB/km)	0.3790temperature slope calibration	1.0000multiplexer offset coefficient	1.0000multiplexer slope coefficient	1.0000fibre end	0.00T internal ref (°C)	30.31T ext. ref 1 (°C)	-0.32T ext. ref 2 (°C)	23.79length (m)	temperature (°C)	Stokes	anti-Stokes-747.200	260.768	0.062	0.108
-746.185	213.192	-0.048	0.077
-745.171	-52.199	0.337	0.157
-744.156	-111.060	-0.055	-0.011
-743.142	103.871	-0.076	0.090
-742.127	650.143	0.015	0.038
-741.112	244.840	0.154	0.261
-740.098	190.516	-0.184	0.278
-739.083	650.165	0.042	-0.107
-738.069	800.000	0.033	-0.115
-737.054	-200.000	0.008	-0.134
-736.039	800.000	-0.061	-0.261
-735.025	-125.725	0.100	0.015
-734.010	262.462	-0.216	-0.378
-732.996	178.627	0.114	-0.168
-731.981	46.303	-0.272	0.254
-730.966	-200.000	-0.042	0.257
-729.952	-155.795	-0.302	-0.019
-728.937	-92.324	0.180	-0.051
-727.923	-200.000	0.042	-0.395
-726.908	66.052	-0.093	-0.095
-725.894	-88.910	-0.397	-0.118
-724.879	-171.651	-0.228	-0.008
-723.864	-200.000	0.023	-0.244
-722.850	18.868	-0.120	-0.097
-721.835	-200.000	0.022	-0.107
-720.821	-103.396	0.220	0.052
-719.806	-22.870	0.233	-0.142
-718.791	-87.438	-0.332	0.101
-717.777	13.560	0.261	0.204
-716.762	-200.000	-0.014	-0.141
-715.748	-101.022	0.092	-0.023
-714.733	800.000	0.094	-0.337
-713.718	-64.905	-0.111	-0.045
-712.704	20.210	-0.258	-0.209
-711.689	800.000	-0.014	0.048
-710.675	368.769	-0.035	0.072
-709.660	703.365	0.233	-0.618
-708.645	4.758	-0.033	-0.025
-707.631	21.244	0.283	-0.231
-706.616	187.958	0.098	-0.147
-705.602	396.069	0.032	0.068
-704.587	800.000	-0.080	-0.261
-703.572	509.322	-0.014	0.032
-702.558	-200.000	0.057	-0.270
-701.543	-200.000	0.022	-0.150
-700.529	-136.521	0.154	-0.018
-699.514	800.000	-0.092	-0.263
-698.499	298.545	-0.079	-0.146
-697.485	58.269	-0.204	0.201
-696.470	-200.000	0.036	-0.246
-695.456	-200.000	0.032	0.173
-694.441	-151.411	-0.210	0.016
-693.426	-134.213	-0.230	-0.028
-692.412	92.056	0.081	0.091
-691.397	142.866	-0.029	0.038
-690.383	-200.000	0.006	0.249
-689.368	-93.706	-0.047	-0.013
-688.354	-200.000	0.010	0.110
-687.339	204.711	0.084	-0.131
-686.324	86.135	-0.189	-0.209
-685.310	522.399	-0.087	0.205
-684.295	-47.052	0.207	-0.102
-683.281	-80.924	-0.178	-0.059
-682.266	489.986	0.140	-0.323
-681.251	-31.233	0.330	-0.187
-680.237	207.779	-0.185	0.290
-679.222	800.000	0.036	0.126
-678.208	-200.000	-0.004	-0.094
-677.193	-12.949	-0.193	-0.126
-676.178	-66.992	-0.484	0.192
-675.164	-43.890	0.223	-0.113
-674.149	-200.000	-0.038	-0.189
-673.135	-200.000	-0.035	0.173
-672.120	800.000	0.126	-0.413
-671.105	-200.000	0.062	-0.314
-670.091	-30.743	0.048	-0.027
-669.076	800.000	0.111	-0.341
-668.062	-138.320	-0.133	-0.015
-667.047	-200.000	0.071	-0.357
-666.032	171.444	0.037	-0.053
-665.018	-200.000	0.009	-0.082
-664.003	-24.336	-0.468	0.280
-662.989	18.650	-0.212	0.171
-661.974	103.421	-0.050	-0.058
-660.959	-133.884	0.320	0.040
-659.945	-200.000	-0.048	0.503
-658.930	-200.000	0.006	-0.459
-657.916	-200.000	-0.023	-0.126
-656.901	-35.434	-0.142	0.078
-655.886	104.730	-0.060	0.071
-654.872	-77.823	-0.116	0.040
-653.857	-81.913	0.125	-0.041
-652.843	25.631	-0.190	0.159
-651.828	308.684	0.141	-0.265
-650.814	236.833	0.066	-0.110
-649.799	-57.451	0.192	-0.085
-648.784	-200.000	0.050	0.241
-647.770	-24.432	0.093	-0.056
-646.755	58.417	-0.187	0.184
-645.741	420.705	-0.131	0.281
-644.726	-200.000	-0.034	-0.259
-643.711	321.146	-0.068	-0.129
-642.697	-200.000	0.057	-0.314
-641.682	-200.000	-0.008	-0.194
-640.668	291.448	-0.075	-0.137
-639.653	2.358	-0.190	-0.138
-638.638	265.473	-0.167	0.292
-637.624	800.000	0.082	0.239
-636.609	-38.897	-0.160	-0.085
-635.595	100.870	0.176	0.205
-634.580	-119.885	-0.251	0.043
-633.565	128.954	-0.155	0.198
-632.551	-16.252	-0.120	-0.076
-631.536	-200.000	0.027	0.319
-630.522	109.831	0.026	0.031
-629.507	595.898	0.096	-0.239
-628.492	222.353	0.041	0.066
-627.478	-200.000	-0.001	-0.125
-626.463	47.772	0.060	-0.057
-625.449	800.000	-0.075	-0.288
-624.434	-123.763	0.197	-0.031
-623.419	378.812	-0.096	-0.197
-622.405	800.000	-0.017	-0.052
-621.390	-66.357	-0.080	-0.032
-620.376	-81.343	0.307	-0.101
-619.361	-50.004	0.179	-0.085
-618.346	254.684	0.188	0.323
-617.332	-72.660	-0.245	-0.091
-616.317	191.747	-0.040	-0.061
-615.303	69.854	-0.073	-0.075
-614.288	-17.913	0.092	-0.058
-613.273	233.658	0.137	-0.225
-612.259	-200.000	-0.051	-0.287
-611.244	78.809	0.109	-0.117
-610.230	-143.609	-0.249	0.024
-609.215	-62.063	0.092	-0.038
-608.201	-48.135	-0.141	0.068
-607.186	800.000	-0.037	0.134
-606.171	56.545	-0.230	-0.225
-605.157	-200.000	-0.003	-0.106
-604.142	119.262	0.188	0.233
-603.128	184.418	-0.219	-0.324
-602.113	-165.869	-0.041	0.002
-601.098	800.000	0.020	0.081
-600.084	-42.918	0.034	-0.017
-599.069	800.000	0.194	0.582
-598.055	800.000	-0.033	0.131
-597.040	800.000	-0.114	-0.362
-596.025	-40.206	-0.178	-0.093
-595.011	-200.000	0.079	0.368
-593.996	112.766	0.087	0.106
-592.982	407.504	-0.068	-0.145
-591.967	-6.418	-0.100	0.068
-590.952	229.122	-0.133	0.216
-589.938	-15.843	-0.151	0.096
-588.923	-58.706	-0.366	0.159
-587.909	257.422	-0.115	-0.199
-586.894	-200.000	0.132	-0.000
-585.879	-139.957	-0.203	0.022
-584.865	34.784	0.276	0.242
-583.850	-4.225	-0.112	0.078
-582.836	-36.579	0.269	-0.145
-581.821	-108.182	-0.442	-0.096
-580.806	-66.091	0.321	0.128
-579.792	66.022	0.331	0.336
-578.777	-67.568	0.051	0.020
-577.763	-94.075	-0.467	0.128
-576.748	800.000	-0.048	0.186
-575.733	-8.522	0.124	-0.083
-574.719	800.000	-0.075	0.213
-573.704	-200.000	-0.004	0.074
-572.690	-39.007	-0.111	0.059
-571.675	530.923	0.047	-0.112
-570.661	77.837	0.126	-0.134
-569.646	800.000	0.026	-0.078
-568.631	123.592	-0.153	-0.192
-567.617	156.229	-0.122	0.168
-566.602	117.473	0.147	-0.181
-565.588	-122.660	-0.288	-0.047
-564.573	-96.443	-0.184	-0.049
-563.558	-200.000	-0.004	-0.054
-562.544	71.611	0.056	0.058
-561.529	-42.098	-0.315	-0.161
-560.515	614.893	-0.033	0.082
-559.500	408.302	0.163	-0.345
-558.485	55.507	-0.151	-0.146
-557.471	800.000	0.082	-0.319
-556.456	44.662	0.163	-0.150
-555.442	8.213	-0.229	-0.172
-554.427	137.077	-0.142	-0.186
-553.412	800.000	-0.083	-0.338
-552.398	32.744	-0.302	-0.262
-551.383	2.474	-0.274	-0.198
-550.369	-200.000	-0.041	-0.249
-549.354	-135.574	0.175	-0.021
-548.339	-79.518	-0.100	-0.034
-547.325	-120.589	0.385	0.065
-546.310	-200.000	0.050	-0.385
-545.296	120.016	0.100	0.124
-544.281	217.900	-0.055	0.088
-543.266	-200.000	-0.040	0.243
-542.252	205.082	-0.168	0.261
-541.237	5.917	0.109	-0.081
-540.223	-200.000	0.059	-0.419
-539.208	-115.554	0.242	-0.045
-538.193	-169.910	-0.448	-0.016
-537.179	800.000	-0.091	0.384
-536.164	-61.930	0.235	-0.098
-535.150	28.515	-0.092	0.077
-534.135	89.575	0.112	0.125
-533.121	15.689	-0.273	0.214
-532.106	800.000	-0.075	-0.241
-531.091	-24.483	0.008	0.005
-530.077	-57.160	-0.140	-0.062
-529.062	800.000	-0.083	0.279
-528.048	-75.676	0.347	-0.123
-527.033	39.265	-0.028	-0.025
-526.018	63.995	0.167	0.168
-525.004	-200.000	-0.008	0.110
-523.989	-46.225	0.089	0.044
-522.975	-111.227	-0.503	-0.103
-521.960	38.032	-0.041	-0.036
-520.945	-84.423	-0.205	-0.065
-519.931	-200.000	0.028	0.179
-518.916	31.642	0.251	0.215
-517.902	742.846	-0.135	0.362
-516.887	-200.000	-0.034	-0.275
-515.872	32.273	-0.063	0.054
-514.858	10.056	-0.242	0.183
-513.843	-54.551	0.573	0.259
-512.829	-4.473	-0.035	0.024
-511.814	-200.000	0.003	0.198
-510.799	800.000	0.132	0.534
-509.785	-43.849	-0.162	0.081
-508.770	-189.991	-0.304	0.003
-507.756	6.265	-0.111	-0.082
-506.741	454.984	0.068	-0.150
-505.726	800.000	0.053	0.225
-504.712	-101.786	-0.096	0.023
-503.697	-89.212	0.261	-0.077
-502.683	107.518	-0.051	-0.060
-501.668	-43.927	-0.197	-0.099
-500.653	-200.000	-0.041	-0.210
-499.639	-200.000	0.002	0.554
-498.624	-59.661	-0.336	-0.144
-497.610	26.680	-0.188	-0.157
-496.595	-68.899	-0.157	0.061
-495.581	-56.173	0.183	-0.081
-494.566	8.343	0.056	0.042
-493.551	-107.088	-0.240	-0.053
-492.537	474.431	0.085	-0.191
-491.522	-200.000	0.003	-0.077
-490.508	800.000	0.067	0.212
-489.493	-152.233	-0.157	-0.011
-488.478	-178.764	-0.280	-0.006
-487.464	384.330	-0.033	0.069
-486.449	-43.870	0.261	0.131
-485.435	-200.000	0.028	-0.138
-484.420	115.863	0.172	-0.210
-483.405	-108.593	-0.246	0.053
-482.391	-200.000	0.066	0.343
-481.376	-154.956	-0.265	-0.017
-480.362	356.129	0.032	-0.064
-479.347	98.680	0.038	0.044
-478.332	153.669	-0.110	0.150
-477.318	-118.328	-0.320	-0.057
-476.303	-37.855	0.195	-0.103
-475.289	161.348	-0.145	-0.202
-474.274	-200.000	0.031	0.187
-473.259	-30.890	-0.186	0.105
-472.245	491.706	-0.086	-0.196
-471.230	-127.426	0.139	0.020
-470.216	229.608	-0.017	-0.027
-469.201	32.308	0.176	-0.151
-468.186	-45.266	-0.305	-0.151
-467.172	-81.390	0.258	0.085
-466.157	-76.255	0.225	-0.079
-465.143	257.830	0.038	-0.065
-464.128	137.250	0.128	-0.167
-463.113	4.024	0.138	-0.100
-462.099	-200.000	0.016	0.240
-461.084	-61.405	0.193	0.081
-460.070	558.227	-0.102	-0.245
-459.055	720.406	-0.148	0.393
-458.040	800.000	-0.081	-0.346
-457.026	-200.000	-0.004	-0.124
-456.011	-42.842	-0.102	-0.052
-454.997	800.000	0.085	-0.329
-453.982	130.540	-0.233	-0.297
-452.968	293.020	0.091	-0.166
-451.953	-78.235	0.232	-0.079
-450.938	183.533	0.140	-0.205
-449.924	-200.000	0.019	-0.168
-448.909	153.838	-0.026	0.035
-447.895	366.509	0.106	0.212
-446.880	105.416	-0.120	-0.141
-445.865	-95.784	0.112	-0.030
-444.851	800.000	0.074	-0.294
-443.836	800.000	0.075	-0.257
-442.822	194.294	0.166	0.251
-441.807	24.897	0.132	0.109
-440.792	-91.238	-0.110	-0.031
-439.778	50.219	-0.140	0.132
-438.763	191.961	-0.041	0.062
-437.749	-49.563	-0.363	0.172
-436.734	-200.000	-0.008	0.076
-435.719	-200.000	-0.000	-0.398
-434.705	-61.883	0.223	-0.093
-433.690	235.036	0.172	0.282
-432.676	39.005	-0.206	0.183
-431.661	-122.806	0.195	-0.031
-430.646	-123.252	0.446	-0.071
-429.632	-200.000	-0.008	-0.231
-428.617	125.731	-0.072	0.091
-427.603	-31.666	-0.140	-0.078
-426.588	16.026	0.340	0.266
-425.573	800.000	-0.054	-0.167
-424.559	-200.000	-0.049	-0.440
-423.544	-88.470	0.182	-0.054
-422.530	297.769	0.035	-0.065
-421.515	478.832	-0.034	0.077
-420.500	216.259	0.039	0.061
-419.486	118.317	-0.151	-0.185
-418.471	-162.933	-0.120	-0.006
-417.457	-71.062	-0.402	0.150
-416.442	546.983	-0.073	-0.175
-415.428	-200.000	0.075	-0.387
-414.413	800.000	-0.029	-0.087
-413.398	-200.000	0.041	0.200
-412.384	-98.033	0.160	-0.041
-411.369	800.000	-0.066	-0.209
-410.355	75.758	0.220	-0.232
-409.340	-200.000	0.008	0.279
-408.325	-132.538	-0.282	0.036
-407.311	255.922	-0.085	0.145
-406.296	-200.000	0.007	0.221
-405.282	47.437	-0.179	-0.165
-404.267	184.966	-0.072	-0.106
-403.252	-200.000	0.034	-0.287
-402.238	-78.654	-0.268	-0.091
-401.223	-56.899	0.462	-0.203
-400.209	-200.000	-0.018	0.251
-399.194	-5.710	0.125	0.085
-398.179	-76.671	-0.174	0.060
-397.165	298.867	-0.042	-0.077
-396.150	-200.000	0.009	0.433
-395.136	-18.936	0.144	-0.089
-394.121	-190.427	0.094	0.001
-393.106	117.567	-0.113	-0.138
-392.092	-40.549	-0.117	-0.060
-391.077	-91.949	0.275	0.077
-390.063	250.236	0.055	0.092
-389.048	302.377	-0.146	-0.268
-388.033	45.586	0.169	0.155
-387.019	34.635	-0.136	0.118
-386.004	72.638	0.053	-0.055
-384.990	-93.705	0.297	-0.081
-383.975	-105.976	0.432	0.097
-382.960	-200.000	0.008	0.091
-381.946	95.458	-0.241	0.273
-380.931	-200.000	-0.018	0.185
-379.917	-104.799	0.497	-0.113
-378.902	44.776	-0.281	-0.256
-377.888	-23.447	-0.133	-0.079
-376.873	800.000	0.084	0.258
-375.858	-29.822	-0.160	-0.091
-374.844	-28.359	0.194	0.111
-373.829	-49.683	-0.330	0.156
-372.815	378.228	-0.153	0.311
-371.800	-170.819	-0.143	0.005
-370.785	-44.644	0.333	-0.165
-369.771	-33.572	0.157	0.086
-368.756	-58.887	-0.313	-0.135
-367.742	68.487	-0.249	-0.254
-366.727	-16.672	-0.206	-0.129
-365.712	208.435	0.037	-0.058
-364.698	-60.138	0.357	0.151
-363.683	-200.000	0.024	-0.117
-362.669	-27.833	-0.257	-0.148
-361.654	159.038	-0.145	0.200
-360.639	800.000	0.096	-0.393
-359.625	44.020	0.161	0.146
-358.610	-6.465	0.289	0.195
-357.596	-139.560	0.056	0.006
-356.581	-200.000	-0.006	0.312
-355.566	-170.886	0.272	-0.009
-354.552	-200.000	-0.015	0.291
-353.537	-81.184	0.076	0.025
-352.523	45.161	0.137	0.125
-351.508	-200.000	0.015	-0.149
-350.493	26.424	0.123	0.102
-349.479	-24.280	0.058	0.034
-348.464	157.729	-0.043	-0.058
-347.450	-54.101	0.217	0.098
-346.435	-35.080	-0.325	0.176
-345.420	-59.570	-0.282	0.120
-344.406	800.000	0.026	-0.097
-343.391	-200.000	-0.018	0.389
-342.377	196.512	-0.061	-0.093
-341.362	-73.175	-0.370	-0.134
-340.348	741.225	-0.111	-0.295
-339.333	800.000	-0.150	-0.499
-338.318	96.655	0.122	0.138
-337.304	-155.341	0.152	-0.010
-336.289	113.931	0.301	0.363
-335.275	800.000	0.083	-0.292
-334.260	-51.906	-0.353	0.163
-333.245	489.346	-0.181	0.409
-332.231	455.395	-0.141	-0.311
-331.216	-11.249	-0.180	-0.118
-330.202	-200.000	0.022	-0.265
-329.187	-136.746	0.145	0.017
-328.172	496.381	-0.087	0.198
-327.158	-102.768	0.118	0.028
-326.143	23.277	0.103	0.084
-325.129	800.000	0.013	0.051
-324.114	-40.499	-0.259	-0.133
-323.099	7.592	-0.168	-0.124
-322.085	51.180	-0.106	-0.099
-321.070	-113.582	0.118	-0.023
-320.056	-65.675	-0.205	-0.081
-319.041	150.033	-0.205	0.276
-318.026	-145.329	0.512	0.046
-317.012	800.000	0.045	-0.139
-315.997	-113.252	0.208	0.040
-314.983	-112.565	0.050	-0.010
-313.968	125.390	0.139	-0.173
-312.953	79.012	0.014	0.015
-311.939	540.588	0.098	0.232
-310.924	1.776	0.286	-0.204
-309.910	147.476	0.142	0.190
-308.895	-200.000	0.010	-0.094
-307.880	-200.000	-0.025	-0.131
-306.866	25.339	0.154	0.127
-305.851	-200.000	-0.013	0.160
-304.837	-200.000	0.028	0.351
-303.822	-77.219	0.118	-0.041
-302.807	-95.368	0.222	0.059
-301.793	-77.563	0.127	-0.043
-300.778	101.948	0.039	0.045
-299.764	800.000	0.054	-0.220
-298.749	800.000	0.041	-0.117
-297.735	-123.992	0.354	-0.055
-296.720	-83.814	-0.042	-0.013
-295.705	-18.655	0.189	-0.117
-294.691	-103.769	-0.114	0.026
-293.676	-177.788	0.317	-0.008
-292.662	-158.592	-0.263	-0.015
-291.647	2.206	-0.248	-0.178
-290.632	758.622	-0.044	0.118
-289.618	-21.633	0.198	0.119
-288.603	-200.000	-0.002	0.041
-287.589	-69.752	-0.192	-0.073
-286.574	800.000	0.055	-0.192
-285.559	157.121	-0.069	0.095
-284.545	-23.935	-0.275	0.163
-283.530	-93.054	0.323	-0.089
-282.516	96.275	0.190	-0.215
-281.501	-18.911	0.304	-0.187
-280.486	3.175	0.088	0.064
-279.472	800.000	0.121	0.337
-278.457	800.000	-0.087	0.374
-277.443	480.684	-0.060	-0.134
-276.428	-45.889	0.096	0.047
-275.413	39.873	-0.042	0.037
-274.399	81.474	-0.157	-0.168
-273.384	645.612	-0.081	0.205
-272.370	406.682	0.363	-0.757
-271.355	198.488	0.091	0.138
-270.340	-200.000	-0.004	0.361
-269.326	562.995	0.036	0.086
-268.311	69.620	0.210	-0.214
-267.297	72.444	-0.030	-0.031
-266.282	87.869	0.096	0.105
-265.267	-129.417	-0.104	0.014
-264.253	218.035	-0.142	-0.225
-263.238	-188.991	-0.249	0.003
-262.224	-200.000	-0.048	0.207
-261.209	132.819	-0.020	-0.026
-260.195	-60.941	0.443	-0.185
-259.180	-120.511	0.322	0.054
-258.165	-93.111	-0.113	0.031
-257.151	259.870	-0.231	-0.395
-256.136	93.889	0.062	-0.069
-255.122	-109.604	-0.219	-0.046
-254.107	18.069	0.069	0.054
-253.092	800.000	0.021	-0.073
-252.078	-59.589	0.038	-0.016
-251.063	-57.246	-0.192	0.083
-250.049	-172.527	0.061	0.002
-249.034	-86.379	-0.218	-0.066
-248.019	187.696	0.193	-0.284
-247.005	-49.586	0.145	-0.068
-245.990	119.186	-0.170	0.208
-244.976	100.461	0.203	0.233
-243.961	-117.586	-0.137	-0.024
-242.946	66.991	-0.249	0.250
-241.932	-93.005	-0.184	0.051
-240.917	-17.468	0.114	0.071
-239.903	-83.516	0.102	0.032
-238.888	-128.395	0.295	0.041
-237.873	31.127	-0.112	0.095
-236.859	-200.000	0.003	-0.185
-235.844	-67.512	-0.360	-0.140
-234.830	446.901	-0.040	-0.087
-233.815	57.244	-0.186	0.179
-232.800	106.309	-0.088	-0.103
-231.786	168.480	0.085	-0.120
-230.771	-39.972	0.207	0.107
-229.757	-131.993	0.155	-0.020
-228.742	-200.000	-0.017	0.232
-227.727	800.000	0.088	0.313
-226.713	417.190	0.091	-0.191
-225.698	-128.794	-0.383	-0.053
-224.684	-7.141	0.101	-0.068
-223.669	-200.000	-0.039	0.332
-222.655	-133.738	0.142	-0.018
-221.640	-102.302	-0.285	-0.067
-220.625	-50.457	-0.190	-0.088
-219.611	51.070	0.069	-0.065
-218.596	-61.758	0.219	0.091
-217.582	-70.888	-0.286	0.106
-216.567	-53.390	0.332	-0.150
-215.552	202.965	0.063	-0.097
-214.538	-32.646	-0.236	0.129
-213.523	164.993	-0.093	-0.129
-212.509	-107.459	0.209	0.045
-211.494	34.767	-0.051	-0.044
-210.479	80.262	0.058	-0.061
-209.465	-200.000	-0.012	0.143
-208.450	-27.408	0.167	-0.096
-207.436	26.409	0.114	-0.094
-206.421	-7.293	-0.160	0.107
-205.406	-18.520	-0.187	-0.115
-204.392	251.331	0.314	0.526
-203.377	800.000	0.066	0.275
-202.363	705.174	-0.076	-0.199
-201.348	-129.958	0.117	0.016
-200.333	127.558	0.143	0.179
-199.319	-123.693	0.479	0.075
-198.304	-193.708	-0.142	0.001
-197.290	-16.537	-0.259	0.162
-196.275	248.842	-0.215	0.359
-195.260	124.498	0.190	-0.236
-194.246	442.418	0.105	0.227
-193.231	50.269	0.368	-0.343
-192.217	566.742	0.050	-0.119
-191.202	326.915	-0.081	0.153
-190.187	102.905	0.219	-0.253
-189.173	-188.392	0.274	0.003
-188.158	-24.677	-0.099	0.058
-187.144	-200.000	-0.041	-0.316
-186.129	-200.000	-0.067	0.332
-185.114	271.937	0.036	-0.063
-184.100	61.707	0.404	-0.397
-183.085	800.000	0.035	-0.126
-182.071	-200.000	-0.033	-0.201
-181.056	800.000	-0.096	0.328
-180.042	-11.787	-0.090	0.058
-179.027	272.307	-0.041	0.072
-178.012	-200.000	-0.066	0.469
-176.998	30.998	0.162	0.137
-175.983	404.050	-0.065	-0.134
-174.969	661.003	-0.064	-0.163
-173.954	208.391	0.098	0.151
-172.939	36.351	-0.190	0.165
-171.925	-33.190	0.177	-0.097
-170.910	-75.412	0.184	-0.065
-169.896	-200.000	-0.005	0.027
-168.881	33.742	-0.156	-0.133
-167.866	-101.119	0.125	-0.030
-166.852	322.444	-0.145	0.272
-165.837	-186.051	0.195	-0.003
-164.823	-57.131	-0.117	-0.051
-163.808	-200.000	-0.016	0.364
-162.793	800.000	-0.098	0.344
-161.779	800.000	0.056	-0.229
-160.764	-200.000	-0.029	-0.165
-159.750	-52.520	-0.109	0.049
-158.735	800.000	-0.026	0.109
-157.720	26.698	-0.120	-0.099
-156.706	29.862	0.030	0.025
-155.691	-200.000	0.001	-0.012
-154.677	-106.712	0.009	-0.002
-153.662	800.000	0.179	0.578
-152.647	800.000	0.086	0.263
-151.633	611.899	0.082	0.201
-150.618	-152.766	-0.060	-0.004
-149.604	-156.289	-0.072	0.004
-148.589	-144.998	0.119	-0.011
-147.574	-73.784	0.170	0.061
-146.560	201.057	-0.234	-0.354
-145.545	-111.336	-0.117	0.024
-144.531	800.000	0.039	-0.114
-143.516	268.815	-0.065	0.112
-142.502	29.882	0.088	-0.074
-141.487	87.542	0.173	0.189
-140.472	-200.000	0.004	0.186
-139.458	800.000	-0.098	0.265
-138.443	-200.000	-0.056	0.367
-137.429	46.853	0.180	0.164
-136.414	-73.292	0.217	0.078
-135.399	-168.737	0.076	-0.003
-134.385	-47.327	0.125	-0.060
-133.370	-160.644	-0.232	-0.012
-132.356	-122.995	0.192	-0.030
-131.341	-13.312	0.298	-0.190
-130.326	-200.000	-0.009	0.071
-129.312	121.739	-0.109	-0.134
-128.297	-200.000	-0.066	-0.569
-127.283	-132.140	0.105	0.013
-126.268	332.967	0.229	-0.435
-125.253	8.617	0.130	-0.096
-124.239	-106.960	0.386	-0.084
-123.224	-2.944	0.437	-0.300
-122.210	-54.613	0.147	-0.065
-121.195	205.979	-0.086	0.132
-120.180	251.570	-0.102	0.171
-119.166	-82.748	-0.316	-0.100
-118.151	-200.000	0.006	0.038
-117.137	284.662	-0.106	-0.187
-116.122	-200.000	-0.001	0.021
-115.107	-200.000	-0.010	0.129
-114.093	800.000	-0.023	-0.092
-113.078	800.000	-0.026	0.076
-112.064	-31.112	0.161	0.089
-111.049	-128.509	0.067	0.009
-110.034	-160.509	0.141	-0.007
-109.020	-149.363	-0.360	0.028
-108.005	-157.067	-0.226	-0.014
-106.991	-200.000	0.012	0.201
-105.976	73.923	0.298	0.307
-104.962	69.860	0.033	0.033
-103.947	-77.100	0.056	-0.019
-102.932	211.585	-0.054	-0.083
-101.918	256.797	-0.049	0.083
-100.903	101.710	-0.137	-0.157
-99.889	-200.000	-0.011	0.204
-98.874	-18.812	-0.281	-0.172
-97.859	173.272	0.036	0.051
-96.845	-200.000	-0.012	0.081
-95.830	11.923	0.216	0.163
-94.816	16.578	0.148	0.115
-93.801	-200.000	-0.001	0.061
-92.786	-23.532	-0.407	0.240
-91.772	219.632	0.164	0.258
-90.757	-35.731	-0.116	-0.062
-89.743	-200.000	-0.038	-0.496
-88.728	668.955	0.129	-0.327
-87.713	-119.717	0.124	0.021
-86.699	800.000	-0.011	0.032
-85.684	-200.000	-0.002	-0.021
-84.670	800.000	-0.055	-0.191
-83.655	-102.227	0.232	-0.055
-82.640	-16.229	-0.142	0.089
-81.626	-106.194	-0.018	-0.004
-80.611	-13.245	0.213	0.136
-79.597	-97.343	0.159	0.041
-78.582	-200.000	0.012	-0.139
-77.567	57.190	-0.134	-0.128
-76.553	-200.000	0.002	0.080
-75.538	-148.511	0.203	0.016
-74.524	526.401	-0.024	0.056
-73.509	-200.000	-0.032	-0.332
-72.494	159.496	0.221	-0.302
-71.480	-200.000	-0.030	-0.164
-70.465	31.742	0.147	-0.124
-69.451	800.000	-0.048	0.134
-68.436	-61.143	0.213	-0.088
-67.422	-168.062	-0.400	-0.015
-66.407	321.024	-0.065	0.122
-65.392	-164.149	0.461	0.021
-64.378	-110.233	-0.103	0.021
-63.363	800.000	0.040	0.119
-62.349	81.905	0.071	-0.076
-61.334	35.438	-0.811	-0.698
-60.319	56.988	0.991	0.947
-59.305	800.000	-0.276	-1.028
-58.290	159.814	0.759	1.036
-57.276	451.083	0.651	1.409
-56.261	-200.000	103.219	613.103
-55.246	523.819	1468.871	3385.155
-54.232	180.784	2671.682	3846.084
-53.217	107.223	2285.021	2662.527
-52.203	39.504	1895.344	1664.790
-51.188	33.483	1682.949	1432.821
-50.173	30.884	1639.815	1376.861
-49.159	49.688	1691.960	1562.261
-48.144	50.265	1707.623	1580.991
-47.130	33.134	1666.055	1415.595
-46.115	30.448	1651.867	1383.516
-45.100	30.318	1646.292	1377.820
-44.086	30.231	1643.772	1375.016
-43.071	30.128	1641.863	1372.604
-42.057	30.145	1639.657	1370.826
-41.042	30.237	1636.949	1369.188
-40.027	30.263	1635.383	1368.014
-39.013	30.280	1633.251	1366.305
-37.998	30.163	1632.095	1364.423
-36.984	30.231	1631.086	1364.020
-35.969	30.341	1628.961	1363.004
-34.954	30.354	1627.250	1361.608
-33.940	30.368	1625.522	1360.215
-32.925	30.320	1624.097	1358.614
-31.911	30.357	1622.049	1357.120
-30.896	30.304	1620.439	1355.327
-29.881	30.299	1618.959	1354.002
-28.867	30.326	1616.912	1352.431
-27.852	30.307	1615.642	1351.178
-26.838	30.374	1613.941	1350.193
-25.823	30.304	1612.743	1348.622
-24.809	30.388	1611.442	1348.094
-23.794	30.346	1609.804	1346.367
-22.779	30.345	1608.427	1345.152
-21.765	30.282	1607.008	1343.455
-20.750	30.306	1605.122	1341.997
-19.736	30.277	1604.232	1340.991
-18.721	30.251	1602.833	1339.586
-17.706	30.307	1600.932	1338.347
-16.692	30.277	1599.375	1336.776
-15.677	30.273	1598.465	1335.935
-14.663	30.313	1597.272	1335.170
-13.648	30.337	1595.375	1333.700
-12.633	30.339	1593.757	1332.314
-11.619	30.335	1592.653	1331.308
-10.604	30.248	1591.206	1329.420
-9.590	30.353	1589.664	1328.829
-8.575	30.387	1588.590	1328.126
-7.560	30.382	1587.598	1327.205
-6.546	30.401	1586.142	1326.075
-5.531	30.382	1585.375	1325.245
-4.517	30.299	1584.351	1323.744
-3.502	30.258	1583.498	1322.687
-2.487	30.437	1581.381	1322.141
-1.473	30.109	1569.204	1309.587
-0.458	27.127	1549.857	1272.541
0.556	21.257	1550.806	1241.093
1.571	19.009	1575.228	1244.281
2.586	18.651	1589.060	1252.488
3.600	16.965	1536.631	1199.146
4.615	9.103	1427.147	1061.796
5.629	1.291	1362.924	964.434
6.644	-0.171	1354.353	949.048
7.659	-0.358	1353.126	946.926
8.673	-0.319	1352.314	946.518
9.688	-0.422	1350.623	944.601
10.702	-0.549	1347.378	941.452
11.717	2.533	1353.370	964.990
12.731	11.614	1371.209	1035.383
13.746	18.796	1383.241	1090.117
14.761	20.360	1385.250	1101.536
15.775	20.630	1384.669	1102.690
16.790	20.677	1384.127	1102.460
17.804	20.793	1383.562	1102.646
18.819	20.942	1383.572	1103.502
19.834	21.093	1382.563	1103.549
20.848	21.107	1381.869	1102.989
21.863	21.104	1381.041	1102.213
22.877	21.161	1380.037	1101.671
23.892	21.086	1379.596	1100.749
24.907	21.040	1378.475	1099.467
25.921	21.186	1377.652	1099.631
26.936	21.144	1376.832	1098.620
27.950	21.102	1375.551	1097.234
28.965	21.080	1374.278	1095.982
29.980	21.081	1373.022	1094.891
30.994	21.114	1372.066	1094.237
32.009	21.172	1370.530	1093.283
33.023	21.135	1369.685	1092.280
34.038	21.138	1368.433	1091.204
35.053	21.042	1367.647	1089.878
36.067	21.023	1366.733	1088.933
37.082	21.109	1365.592	1088.464
38.096	21.106	1364.210	1087.247
39.111	21.072	1363.858	1086.665
40.126	21.027	1363.460	1085.969
41.140	21.017	1362.691	1085.197
42.155	21.014	1361.963	1084.501
43.169	21.169	1362.246	1085.595
44.184	21.192	1361.372	1084.947
45.199	21.073	1361.676	1084.352
46.213	21.094	1360.919	1083.787
47.228	21.050	1359.778	1082.505
48.242	21.183	1358.654	1082.343
49.257	21.058	1357.212	1080.321
50.271	21.093	1355.616	1079.171
51.286	21.157	1354.643	1078.696
52.301	20.989	1353.779	1076.878
53.315	21.142	1352.312	1076.558
54.330	21.110	1351.690	1075.772
55.344	21.081	1350.687	1074.702
56.359	21.148	1349.296	1073.908
57.374	21.092	1348.546	1072.874
58.388	21.037	1347.746	1071.805
59.403	21.088	1347.636	1071.935
60.417	21.013	1347.175	1071.010
61.432	21.096	1346.156	1070.619
62.447	21.109	1345.087	1069.753
63.461	21.055	1344.352	1068.739
64.476	21.081	1343.451	1068.093
65.490	21.110	1342.008	1067.027
66.505	21.113	1340.633	1065.856
67.520	21.151	1339.543	1065.127
68.534	21.121	1338.034	1063.653
69.549	21.121	1336.899	1062.654
70.563	21.101	1336.258	1061.929
71.578	21.080	1335.545	1061.140
72.593	21.139	1334.432	1060.521
73.607	21.148	1333.710	1059.905
74.622	21.117	1333.254	1059.266
75.636	21.194	1331.847	1058.522
76.651	21.168	1331.535	1058.023
77.666	21.109	1330.769	1056.959
78.680	21.066	1330.625	1056.492
79.695	21.043	1329.944	1055.720
80.709	21.187	1328.570	1055.402
81.724	21.158	1328.237	1054.874
82.739	21.189	1327.046	1054.020
83.753	21.186	1325.728	1052.859
84.768	21.216	1324.917	1052.303
85.782	21.208	1323.740	1051.229
86.797	21.148	1322.677	1049.932
87.812	21.222	1321.370	1049.244
88.826	21.093	1320.706	1047.849
89.841	21.216	1318.992	1047.134
90.855	21.227	1318.041	1046.355
91.870	21.163	1317.576	1045.509
92.884	21.212	1316.440	1044.809
93.899	21.138	1316.003	1043.924
94.914	21.214	1314.977	1043.472
95.928	21.165	1314.612	1042.798
96.943	21.189	1313.762	1042.177
97.957	21.210	1312.842	1041.479
98.972	21.290	1311.689	1040.949
99.987	21.102	1311.074	1039.252
101.001	21.178	1310.028	1038.780
102.016	21.130	1309.048	1037.623
103.030	21.106	1308.153	1036.683
104.045	21.198	1307.050	1036.264
105.060	21.236	1306.006	1035.572
106.074	21.198	1304.920	1034.389
107.089	21.333	1303.858	1034.254
108.103	21.218	1303.061	1032.850
109.118	21.237	1301.729	1031.817
110.133	21.233	1300.723	1030.903
111.147	21.213	1299.663	1029.854
112.162	21.260	1298.379	1029.022
113.176	21.300	1297.375	1028.371
114.191	21.142	1296.522	1026.677
115.206	21.315	1295.218	1026.568
116.220	21.357	1293.912	1025.690
117.235	21.192	1293.448	1024.267
118.249	21.225	1292.106	1023.303
119.264	21.249	1291.048	1022.514
120.279	21.272	1290.115	1021.821
121.293	21.310	1289.423	1021.407
122.308	21.274	1288.732	1020.557
123.322	21.295	1287.670	1019.746
124.337	21.247	1286.775	1018.670
125.352	21.280	1285.620	1017.858
126.366	21.277	1285.024	1017.276
127.381	21.223	1284.116	1016.155
128.395	21.305	1282.651	1015.383
129.410	21.441	1281.537	1015.199
130.424	21.283	1281.616	1014.252
131.439	21.318	1280.138	1013.201
132.454	21.333	1279.251	1012.494
133.468	21.272	1278.921	1011.789
134.483	21.276	1278.240	1011.184
135.497	21.358	1277.401	1010.904
136.512	21.327	1276.177	1009.671
137.527	21.243	1275.723	1008.734
138.541	21.308	1273.760	1007.466
139.556	21.278	1272.402	1006.134
140.570	21.193	1271.382	1004.747
141.585	21.317	1270.036	1004.309
142.600	21.156	1269.565	1002.924
143.614	21.410	1268.058	1003.098
144.629	21.228	1267.699	1001.682
145.643	21.236	1266.485	1000.679
146.658	21.344	1265.130	1000.138
147.673	21.291	1263.978	998.839
148.687	21.269	1263.161	997.979
149.702	21.188	1262.310	996.752
150.716	21.244	1260.980	995.936
151.731	21.284	1260.207	995.464
152.746	21.247	1259.068	994.264
153.760	21.370	1257.612	993.731
154.775	21.262	1257.331	992.806
155.789	21.351	1256.064	992.220
156.804	21.343	1254.713	991.019
157.819	21.170	1254.538	989.813
158.833	21.415	1252.870	989.800
159.848	21.270	1252.682	988.743
160.862	21.426	1251.429	988.546
161.877	21.440	1250.534	987.831
162.892	21.382	1250.005	986.998
163.906	21.482	1249.584	987.141
164.921	21.393	1248.857	985.978
165.935	21.380	1248.231	985.325
166.950	21.325	1247.631	984.452
167.964	21.412	1246.368	983.858
168.979	21.395	1246.201	983.543
169.994	21.422	1245.570	983.114
171.008	21.437	1244.823	982.520
172.023	21.436	1243.725	981.559
173.037	21.374	1243.294	980.786
174.052	21.433	1242.128	980.112
175.067	21.511	1241.289	979.799
176.081	21.406	1241.059	978.942
177.096	21.380	1240.235	978.058
178.110	21.400	1239.132	977.215
179.125	21.440	1237.797	976.301
180.140	21.604	1236.575	976.165
181.154	21.552	1235.623	975.037
182.169	21.390	1235.062	973.605
183.183	21.426	1234.031	972.905
184.198	21.475	1232.663	972.012
185.213	21.474	1231.806	971.248
186.227	21.601	1230.684	970.983
187.242	21.530	1230.245	970.153
188.256	21.545	1229.217	969.342
189.271	21.490	1228.385	968.297
190.286	21.525	1227.839	967.975
191.300	21.502	1227.400	967.415
192.315	21.507	1226.792	966.878
193.329	21.521	1226.676	966.775
194.344	21.632	1225.512	966.388
195.359	21.471	1225.270	965.221
196.373	21.416	1225.078	964.682
197.388	21.494	1224.679	964.713
198.402	21.405	1224.329	963.860
199.417	21.426	1223.792	963.466
200.432	21.569	1222.869	963.446
201.446	21.663	1221.982	963.177
202.461	21.504	1221.828	962.095
203.475	21.597	1220.493	961.468
204.490	21.480	1219.914	960.286
205.504	21.505	1218.824	959.482
206.519	21.679	1217.898	959.619
207.534	21.565	1217.021	958.222
208.548	21.569	1216.107	957.438
209.563	21.525	1215.554	956.674
210.577	21.673	1214.626	956.667
211.592	21.700	1213.136	955.557
212.607	21.704	1212.583	955.060
213.621	21.600	1212.113	954.042
214.636	21.642	1211.554	953.745
215.650	21.646	1210.380	952.758
216.665	21.639	1209.180	951.687
217.680	21.598	1208.623	950.942
218.694	21.753	1207.709	950.980
219.709	21.606	1207.305	949.781
220.723	21.760	1206.150	949.623
221.738	21.595	1206.093	948.600
222.753	21.568	1204.957	947.478
223.767	21.660	1204.515	947.542
224.782	21.795	1203.603	947.475
225.796	21.785	1203.683	947.399
226.811	21.715	1202.541	946.038
227.826	21.704	1202.536	945.890
228.840	21.792	1201.475	945.448
229.855	21.744	1200.983	944.717
230.869	21.749	1200.472	944.256
231.884	21.789	1199.784	943.847
232.899	21.693	1199.128	942.735
233.913	21.711	1198.453	942.218
234.928	21.847	1197.385	942.023
235.942	21.851	1197.069	941.713
236.957	21.768	1196.476	940.715
237.972	21.789	1195.979	940.358
238.986	21.798	1195.089	939.623
240.001	21.852	1194.863	939.649
241.015	21.940	1193.578	939.027
242.030	21.948	1193.061	938.582
243.045	21.987	1191.895	937.788
244.059	21.905	1191.628	937.054
245.074	21.908	1190.879	936.404
246.088	21.981	1190.056	936.061
247.103	21.924	1189.246	935.037
248.117	21.862	1188.514	934.048
249.132	21.942	1187.586	933.664
250.147	22.037	1186.701	933.388
251.161	21.945	1186.269	932.478
252.176	21.879	1185.430	931.386
253.190	22.056	1184.422	931.449
254.205	21.933	1184.684	930.921
255.220	21.922	1184.019	930.257
256.234	22.040	1183.104	930.082
257.249	22.049	1182.211	929.347
258.263	22.020	1181.861	928.835
259.278	22.082	1181.376	928.697
260.293	21.887	1181.313	927.534
261.307	22.047	1180.290	927.493
262.322	22.032	1179.551	926.756
263.336	22.091	1178.855	926.436
264.351	21.980	1178.325	925.354
265.366	22.101	1177.797	925.493
266.380	22.136	1177.249	925.163
267.395	22.090	1176.255	924.060
268.409	22.027	1175.787	923.277
269.424	22.040	1175.153	922.769
270.439	22.047	1175.266	922.812
271.453	22.142	1174.305	922.473
272.468	22.063	1173.356	921.230
273.482	22.061	1172.501	920.467
274.497	22.139	1172.287	920.626
275.512	22.145	1171.838	920.227
276.526	22.126	1170.698	919.149
277.541	22.147	1170.199	918.789
278.555	22.069	1169.757	917.950
279.570	22.258	1168.562	917.916
280.585	22.049	1168.088	916.374
281.599	22.129	1167.231	916.037
282.614	22.261	1165.942	915.634
283.628	22.221	1165.378	914.901
284.643	22.203	1164.755	914.236
285.657	22.195	1163.809	913.372
286.672	22.039	1163.219	912.018
287.687	22.215	1162.109	911.979
288.701	22.207	1161.707	911.540
289.716	22.253	1160.724	910.926
290.730	22.283	1160.413	910.757
291.745	22.344	1159.355	910.163
292.760	22.350	1158.900	909.760
293.774	22.281	1158.302	908.850
294.789	22.318	1157.856	908.611
295.803	22.488	1157.022	908.755
296.818	22.316	1156.205	907.142
297.833	22.299	1156.044	906.850
298.847	22.333	1155.145	906.242
299.862	22.412	1154.028	905.691
300.876	22.434	1153.633	905.412
301.891	22.569	1153.067	905.582
302.906	22.408	1152.855	904.508
303.920	22.536	1151.634	904.128
304.935	22.486	1151.522	903.705
305.949	22.422	1150.762	902.698
306.964	22.379	1149.900	901.723
307.979	22.466	1148.916	901.317
308.993	22.511	1148.523	901.157
310.008	22.553	1147.726	900.669
311.022	22.468	1147.304	899.821
312.037	22.408	1146.530	898.829
313.052	22.435	1145.753	898.278
314.066	22.561	1144.569	897.914
315.081	22.536	1144.012	897.271
316.095	22.458	1143.722	896.567
317.110	22.629	1142.335	896.266
318.125	22.632	1142.047	895.976
319.139	22.489	1141.512	894.751
320.154	22.520	1141.198	894.585
321.168	22.539	1140.355	893.940
322.183	22.655	1139.793	894.012
323.197	22.437	1139.318	892.451
324.212	22.554	1138.918	892.654
325.227	22.594	1138.221	892.228
326.241	22.659	1137.665	892.044
327.256	22.597	1136.848	891.014
328.270	22.615	1136.267	890.568
329.285	22.784	1134.813	890.203
330.300	22.737	1134.401	889.566
331.314	22.702	1133.401	888.523
332.329	22.639	1132.688	887.570
333.343	22.774	1131.953	887.594
334.358	22.653	1131.373	886.455
335.373	22.722	1130.906	886.356
336.387	22.742	1130.226	885.844
337.402	22.775	1129.335	885.232
338.416	22.747	1128.779	884.577
339.431	22.775	1128.161	884.158
340.446	22.743	1127.540	883.430
341.460	22.711	1127.041	882.801
342.475	22.850	1125.993	882.596
343.489	22.802	1125.379	881.797
344.504	22.843	1123.995	880.840
345.519	22.848	1123.375	880.303
346.533	22.806	1122.744	879.522
347.548	22.830	1122.057	879.026
348.562	22.857	1121.349	878.523
349.577	22.925	1120.486	878.112
350.592	22.793	1119.861	876.884
351.606	22.728	1119.481	876.190
352.621	22.819	1118.672	875.931
353.635	22.926	1117.901	875.779
354.650	22.965	1117.418	875.515
355.665	22.846	1116.852	874.408
356.679	22.998	1116.344	874.683
357.694	22.945	1115.906	873.998
358.708	23.054	1114.776	873.575
359.723	22.974	1113.932	872.445
360.738	22.859	1113.815	871.706
361.752	22.978	1113.097	871.657
362.767	23.047	1112.780	871.670
363.781	23.038	1112.079	870.998
364.796	23.104	1111.652	870.911
365.810	23.070	1111.109	870.243
366.825	23.080	1110.387	869.648
367.840	23.135	1110.211	869.707
368.854	23.116	1109.069	868.638
369.869	23.073	1108.368	867.801
370.883	23.195	1107.530	867.667
371.898	23.180	1107.138	867.209
372.913	23.181	1106.197	866.402
373.927	23.257	1105.911	866.473
374.942	23.184	1105.544	865.752
375.956	23.103	1105.285	865.078
376.971	23.207	1104.227	864.678
377.986	23.331	1103.451	864.598
379.000	23.243	1103.649	864.249
380.015	23.285	1102.740	863.664
381.029	23.239	1102.253	862.983
382.044	23.083	1101.878	861.852
383.059	23.231	1100.812	861.663
384.073	23.264	1099.830	860.980
385.088	23.252	1099.319	860.445
386.102	23.397	1097.957	860.004
387.117	23.345	1097.269	859.140
388.132	23.236	1096.586	858.002
389.146	23.345	1095.886	857.906
390.161	23.325	1095.367	857.326
391.175	23.271	1095.005	856.707
392.190	23.299	1094.246	856.170
393.205	23.414	1092.899	855.595
394.219	23.405	1092.323	855.026
395.234	23.456	1091.516	854.565
396.248	23.488	1090.492	853.843
397.263	23.553	1089.674	853.440
398.278	23.519	1089.117	852.762
399.292	23.493	1088.676	852.218
400.307	23.460	1088.153	851.573
401.321	23.486	1087.352	850.996
402.336	23.382	1087.077	850.205
403.350	23.418	1086.265	849.672
404.365	23.565	1085.635	849.806
405.380	23.535	1084.928	849.035
406.394	23.504	1084.444	848.432
407.409	23.569	1083.528	847.950
408.423	23.585	1082.754	847.347
409.438	23.570	1081.921	846.550
410.453	23.619	1081.522	846.396
411.467	23.678	1080.181	845.553
412.482	23.517	1080.168	844.700
413.496	23.691	1079.264	844.744
414.511	23.570	1078.974	843.868
415.526	23.604	1078.374	843.485
416.540	23.605	1077.708	842.893
417.555	23.588	1077.239	842.376
418.569	23.616	1076.956	842.210
419.584	23.700	1076.504	842.181
420.599	23.665	1076.527	841.957
421.613	149.029	1400.560	1799.401
422.628	137.498	1447.732	1799.462
