DTS Sentinel unit serial number:	SN413079Multiplexer serial number:	ORYXHardware model number:	OX4-SRSoftware version number:	ORYX F/W v4.00 Oryx Data Collector v3.7.2.0data status	okinstallation	princeton_trtdifferential loss correction	single-endedforward channel	channel 2reverse channel	N/Adate	2019/09/13time	03:31:34forward acquisition time	60.00reverse acquisition time	0.00gamma	496.2192k internal	0.2334k external	0.2334temperature offset calibration	1.0191default loss term (dB/km)	0.3790temperature slope calibration	1.0000multiplexer offset coefficient	1.0000multiplexer slope coefficient	1.0000fibre end	0.00T internal ref (°C)	27.30T ext. ref 1 (°C)	4.08T ext. ref 2 (°C)	21.77length (m)	temperature (°C)	Stokes	anti-Stokes-747.200	-148.901	0.130	-0.011
-746.185	30.468	-0.327	-0.281
-745.171	-33.012	-0.191	0.106
-744.156	141.788	0.228	0.304
-743.142	516.621	-0.119	-0.280
-742.127	-70.882	-0.181	-0.069
-741.112	-164.395	-0.163	0.008
-740.098	-113.209	-0.083	-0.017
-739.083	412.314	0.050	-0.107
-738.069	-45.588	0.461	0.229
-737.054	33.026	0.179	-0.156
-736.039	800.000	0.001	-0.003
-735.025	-9.407	0.089	-0.060
-734.010	-200.000	-0.037	-0.347
-732.996	460.440	0.046	-0.104
-731.981	-98.687	-0.031	0.008
-730.966	-163.224	-0.039	0.002
-729.952	800.000	-0.014	0.048
-728.937	-88.484	-0.363	-0.109
-727.923	663.556	0.062	-0.162
-726.908	-68.856	0.517	-0.201
-725.894	-61.992	-0.271	-0.114
-724.879	276.468	-0.067	-0.119
-723.864	9.374	-0.300	-0.228
-722.850	-200.000	0.015	-0.114
-721.835	31.718	-0.124	0.107
-720.821	486.897	-0.067	-0.153
-719.806	115.832	0.079	-0.097
-718.791	-200.000	-0.033	-0.243
-717.777	-200.000	0.010	-0.486
-716.762	1.879	-0.056	0.041
-715.748	277.451	-0.089	0.159
-714.733	434.804	-0.040	0.088
-713.718	238.376	-0.282	0.471
-712.704	514.560	-0.107	0.252
-711.689	-200.000	0.026	-0.126
-710.675	-83.150	-0.300	-0.097
-709.660	-200.000	-0.003	-0.017
-708.645	800.000	0.058	0.171
-707.631	473.300	0.144	0.326
-706.616	-94.017	-0.118	-0.032
-705.602	-200.000	-0.035	-0.229
-704.587	94.269	-0.126	-0.144
-703.572	526.633	-0.197	-0.467
-702.558	-85.563	0.089	-0.028
-701.543	2.454	0.009	-0.007
-700.529	-200.000	-0.008	-0.196
-699.514	800.000	0.049	0.146
-698.499	557.988	-0.046	-0.110
-697.485	-27.428	0.204	0.119
-696.470	-73.735	0.227	-0.083
-695.456	800.000	0.051	-0.143
-694.441	-33.249	-0.221	-0.123
-693.426	800.000	0.006	0.021
-692.412	91.660	0.083	0.093
-691.397	800.000	0.118	-0.427
-690.383	390.918	0.060	0.124
-689.368	800.000	-0.023	0.078
-688.354	-25.470	-0.480	-0.285
-687.339	-129.556	0.184	-0.026
-686.324	-114.541	-0.165	0.032
-685.310	-35.257	0.227	0.124
-684.295	-80.319	-0.387	0.130
-683.281	31.377	0.218	0.188
-682.266	-200.000	0.023	-0.272
-681.251	-6.743	0.248	0.169
-680.237	103.137	-0.263	-0.309
-679.222	800.000	0.107	-0.439
-678.208	800.000	-0.077	0.296
-677.193	800.000	-0.045	-0.161
-676.178	-91.247	-0.143	0.041
-675.164	498.153	-0.091	-0.210
-674.149	62.302	0.068	0.068
-673.135	165.780	0.263	-0.372
-672.120	-88.025	-0.292	-0.088
-671.105	-200.000	-0.011	-0.308
-670.091	433.042	-0.150	0.327
-669.076	-200.000	0.025	-0.132
-668.062	236.907	-0.235	-0.391
-667.047	107.362	-0.152	0.181
-666.032	140.925	0.154	-0.204
-665.018	82.251	0.098	0.106
-664.003	52.029	-0.117	0.112
-662.989	93.255	-0.256	-0.290
-661.974	-131.580	-0.130	0.017
-660.959	-200.000	-0.012	0.118
-659.945	310.768	0.028	0.052
-658.930	800.000	0.029	-0.083
-657.916	-129.604	0.128	0.018
-656.901	-33.268	0.295	-0.164
-655.886	180.563	0.140	-0.206
-654.872	-168.174	0.188	-0.007
-653.857	-28.598	0.248	0.143
-652.843	357.411	-0.057	-0.115
-651.828	25.196	-0.233	-0.194
-650.814	-143.666	-0.179	0.017
-649.799	-134.231	-0.255	-0.031
-648.784	-200.000	0.023	-0.140
-647.770	226.464	0.079	-0.129
-646.755	141.937	-0.229	0.304
-645.741	88.270	-0.057	-0.063
-644.726	54.908	0.395	-0.382
-643.711	410.726	0.072	0.153
-642.697	134.076	0.275	-0.357
-641.682	-172.966	-0.252	0.008
-640.668	-38.199	0.189	-0.100
-639.653	201.020	-0.173	-0.267
-638.638	257.684	0.164	0.282
-637.624	-200.000	0.023	-0.139
-636.609	-39.448	-0.228	0.119
-635.595	130.142	-0.149	0.191
-634.580	800.000	-0.100	-0.351
-633.565	-59.463	0.107	0.046
-632.551	-200.000	-0.014	0.094
-631.536	267.740	0.252	0.442
-630.522	-72.556	0.203	-0.075
-629.507	2.292	-0.142	-0.103
-628.492	-30.751	0.439	-0.249
-627.478	-44.551	-0.057	-0.028
-626.463	-91.782	0.287	-0.082
-625.449	-95.466	0.205	-0.055
-624.434	-200.000	0.022	-0.215
-623.419	-97.844	-0.169	-0.044
-622.405	-81.058	0.290	-0.096
-621.390	115.473	-0.134	0.164
-620.376	-133.349	-0.192	-0.024
-619.361	476.474	-0.194	-0.439
-618.346	202.693	-0.014	0.022
-617.332	-26.244	-0.224	0.131
-616.317	101.631	0.057	-0.067
-615.303	-200.000	-0.084	-0.378
-614.288	50.378	0.163	-0.154
-613.273	164.152	0.138	0.194
-612.259	800.000	0.076	-0.295
-611.244	89.955	0.146	-0.163
-610.230	435.727	-0.182	-0.395
-609.215	201.928	0.230	-0.355
-608.201	-60.804	-0.212	-0.090
-607.186	62.387	0.409	0.408
-606.171	195.624	0.076	0.115
-605.157	92.393	-0.215	-0.242
-604.142	-156.294	0.218	-0.014
-603.128	-159.715	-0.179	0.010
-602.113	-39.149	-0.318	0.167
-601.098	-180.556	-0.096	-0.002
-600.084	-200.000	-0.023	0.117
-599.069	376.063	-0.066	0.134
-598.055	-200.000	0.026	-0.404
-597.040	-144.339	0.291	0.027
-596.025	140.513	-0.129	-0.170
-595.011	20.950	0.265	0.215
-593.996	-200.000	0.034	0.234
-592.982	39.726	-0.210	0.189
-591.967	-27.512	-0.191	0.111
-590.952	-35.172	-0.173	-0.094
-589.938	-28.719	-0.131	0.076
-588.923	273.445	0.098	-0.174
-587.909	124.765	-0.213	0.268
-586.894	-145.458	-0.087	0.008
-585.879	-17.597	0.275	0.173
-584.865	-200.000	-0.023	-0.216
-583.850	-200.000	-0.018	-0.224
-582.836	-129.368	0.125	0.017
-581.821	-195.882	-0.160	0.001
-580.806	-82.020	0.106	-0.035
-579.792	-149.315	-0.130	0.010
-578.777	-71.723	0.209	-0.078
-577.763	-200.000	0.026	-0.157
-576.748	-200.000	-0.000	-0.158
-575.733	142.320	-0.234	-0.310
-574.719	-5.732	-0.121	0.083
-573.704	14.638	0.229	0.179
-572.690	155.083	0.165	0.226
-571.675	800.000	0.079	0.240
-570.661	800.000	-0.029	0.118
-569.646	143.620	-0.062	0.083
-568.631	33.369	-0.101	-0.088
-567.617	132.219	0.120	0.155
-566.602	-129.554	-0.178	0.025
-565.588	-91.040	0.236	0.068
-564.573	-88.692	-0.092	0.027
-563.558	-29.739	0.113	0.064
-562.544	-200.000	0.024	-0.148
-561.529	-200.000	-0.031	0.182
-560.515	-171.693	0.205	-0.007
-559.500	-74.138	0.114	0.041
-558.485	255.386	0.165	-0.283
-557.471	-152.259	0.110	-0.008
-556.456	-190.145	-0.179	-0.002
-555.442	468.709	0.010	0.022
-554.427	-200.000	-0.000	-0.215
-553.412	32.704	-0.129	-0.111
-552.398	800.000	-0.007	0.025
-551.383	246.984	-0.163	-0.275
-550.369	-200.000	0.002	-0.144
-549.354	-95.112	-0.155	0.042
-548.339	127.990	-0.141	-0.179
-547.325	158.244	-0.094	0.131
-546.310	-82.209	-0.442	0.143
-545.296	93.082	-0.196	0.221
-544.281	-68.043	0.334	0.130
-543.266	64.826	0.251	-0.253
-542.252	-200.000	-0.058	-0.283
-541.237	-29.697	0.085	-0.048
-540.223	480.551	0.088	0.200
-539.208	-11.298	0.118	-0.077
-538.193	182.763	-0.203	-0.299
-537.179	3.175	0.380	0.275
-536.164	-130.347	-0.125	-0.017
-535.150	47.609	-0.037	-0.034
-534.135	-29.848	0.187	0.106
-533.121	-7.993	-0.069	-0.046
-532.106	705.121	0.161	0.422
-531.091	408.641	-0.052	-0.109
-530.077	359.840	0.079	0.158
-529.062	-55.083	0.079	-0.035
-528.048	-60.482	0.339	-0.143
-527.033	-83.523	-0.308	-0.098
-526.018	-200.000	0.033	0.151
-525.004	139.234	-0.069	-0.091
-523.989	-148.407	-0.291	0.024
-522.975	-46.958	0.094	-0.046
-521.960	-102.808	-0.135	-0.032
-520.945	-133.495	0.205	0.026
-519.931	-71.157	0.175	0.065
-518.916	-43.773	0.179	-0.090
-517.902	-93.034	-0.147	0.041
-516.887	-200.000	0.031	0.171
-515.872	-200.000	0.005	-0.168
-514.858	789.681	0.134	-0.366
-513.843	-200.000	0.001	-0.080
-512.829	102.315	-0.351	0.409
-511.814	-200.000	-0.016	-0.195
-510.799	-143.665	-0.223	-0.021
-509.785	-200.000	0.106	0.000
-508.770	689.649	-0.078	0.204
-507.756	-22.385	0.224	0.135
-506.741	-148.851	0.122	-0.010
-505.726	800.000	-0.051	-0.144
-504.712	-115.583	-0.269	-0.050
-503.697	-200.000	-0.011	0.184
-502.683	191.832	-0.063	0.094
-501.668	99.247	-0.212	0.244
-500.653	-72.418	-0.124	-0.046
-499.639	9.790	0.082	-0.062
-498.624	-81.347	-0.034	0.011
-497.610	-189.000	-0.104	-0.001
-496.595	-16.749	0.120	0.076
-495.581	800.000	0.079	0.303
-494.566	-54.825	-0.258	0.116
-493.551	-200.000	0.043	-0.237
-492.537	800.000	-0.032	-0.114
-491.522	-93.581	-0.158	-0.044
-490.508	338.392	0.085	0.165
-489.493	200.525	0.152	-0.233
-488.478	-43.724	-0.146	0.073
-487.464	423.293	-0.053	-0.113
-486.449	263.017	0.083	-0.144
-485.435	177.060	0.040	0.058
-484.420	-192.709	0.070	-0.001
-483.405	-160.952	0.375	-0.020
-482.391	34.079	-0.168	0.146
-481.376	-200.000	-0.006	-0.449
-480.362	-103.453	-0.302	-0.071
-479.347	71.626	-0.243	-0.251
-478.332	-200.000	-0.025	-0.144
-477.318	-87.035	0.175	0.053
-476.303	755.577	0.112	-0.303
-475.289	84.304	0.084	0.091
-474.274	613.858	0.076	0.188
-473.259	580.732	0.075	0.183
-472.245	800.000	-0.054	0.167
-471.230	-200.000	0.031	-0.333
-470.216	-127.902	-0.071	-0.010
-469.201	-63.679	-0.079	-0.032
-468.186	800.000	-0.049	-0.156
-467.172	98.832	-0.068	0.078
-466.157	-75.266	0.254	-0.090
-465.143	35.922	0.148	0.129
-464.128	-100.561	-0.608	-0.149
-463.113	-200.000	0.023	0.269
-462.099	16.567	0.171	-0.134
-461.084	100.100	-0.257	-0.297
-460.070	57.235	0.230	0.223
-459.055	800.000	-0.027	0.100
-458.040	92.004	0.217	0.243
-457.026	588.556	0.064	0.157
-456.011	-128.007	-0.120	-0.017
-454.997	170.611	-0.227	-0.323
-453.982	-47.146	-0.174	0.084
-452.968	98.603	0.229	0.262
-451.953	217.939	-0.066	-0.105
-450.938	-18.980	0.267	-0.165
-449.924	-128.939	-0.374	0.052
-448.909	-46.791	-0.115	0.056
-447.895	20.576	0.086	0.069
-446.880	-200.000	-0.030	-0.154
-445.865	-108.820	-0.073	0.016
-444.851	-69.363	-0.206	0.079
-443.836	-69.602	0.248	0.094
-442.822	-108.216	0.317	0.068
-441.807	800.000	-0.040	-0.134
-440.792	800.000	0.075	0.321
-439.778	-200.000	0.063	0.580
-438.763	40.528	0.100	0.089
-437.749	-132.127	-0.551	-0.071
-436.734	452.585	-0.140	-0.307
-435.719	50.086	0.106	0.099
-434.705	390.210	0.044	-0.091
-433.690	361.675	-0.115	-0.229
-432.676	36.952	0.226	0.199
-431.661	-17.427	-0.281	0.175
-430.646	292.885	0.064	0.116
-429.632	48.542	-0.093	0.087
-428.617	-146.286	-0.129	0.011
-427.603	-200.000	0.029	-0.304
-426.588	246.329	-0.088	-0.148
-425.573	-167.205	0.104	-0.004
-424.559	749.912	-0.116	0.310
-423.544	309.523	0.070	0.130
-422.530	20.336	0.331	-0.265
-421.515	13.332	-0.009	-0.007
-420.500	261.162	-0.221	-0.379
-419.486	-25.490	0.313	0.183
-418.471	-11.754	0.128	-0.084
-417.457	16.793	0.117	-0.092
-416.442	-69.137	0.096	0.037
-415.428	-78.309	-0.098	-0.033
-414.413	193.373	0.316	0.474
-413.398	194.801	0.043	0.064
-412.384	-200.000	-0.033	0.184
-411.369	14.992	0.169	0.131
-410.355	-29.488	0.199	-0.113
-409.340	-132.300	0.035	-0.004
-408.325	-57.393	-0.124	0.054
-407.311	-137.185	0.187	-0.021
-406.296	303.326	0.063	-0.116
-405.282	-158.032	-0.151	-0.009
-404.267	63.861	0.092	-0.092
-403.252	71.427	0.316	-0.326
-402.238	800.000	-0.008	0.030
-401.223	800.000	0.069	-0.208
-400.209	-200.000	0.013	-0.124
-399.194	405.757	0.109	0.229
-398.179	7.315	-0.186	-0.138
-397.165	127.014	0.328	0.413
-396.150	-21.600	-0.356	-0.215
-395.136	-200.000	-0.004	0.126
-394.121	-44.316	0.060	-0.030
-393.106	-94.359	-0.278	-0.075
-392.092	-7.727	-0.221	-0.148
-391.077	10.097	-0.357	-0.269
-390.063	111.150	-0.115	0.137
-389.048	-26.717	-0.108	-0.062
-388.033	-200.000	0.054	0.255
-387.019	289.126	-0.092	-0.165
-386.004	-36.477	-0.213	0.114
-384.990	261.256	0.075	-0.129
-383.975	59.626	-0.114	-0.111
-382.960	-25.084	-0.072	0.042
-381.946	-56.689	-0.028	0.012
-380.931	-18.570	-0.295	0.183
-379.917	-74.550	-0.147	0.053
-378.902	-60.170	-0.241	-0.102
-377.888	-200.000	0.031	-0.226
-376.873	217.865	-0.183	-0.289
-375.858	49.824	0.123	0.115
-374.844	46.803	0.333	0.307
-373.829	-21.087	0.216	0.131
-372.815	-134.264	0.242	0.029
-371.800	-200.000	-0.003	-0.064
-370.785	-200.000	-0.043	0.258
-369.771	-135.899	0.519	-0.061
-368.756	161.147	0.171	-0.237
-367.742	-105.240	0.159	0.036
-366.727	-103.513	-0.166	0.039
-365.712	8.660	-0.122	0.091
-364.698	-200.000	0.017	0.095
-363.683	66.891	0.160	-0.161
-362.669	-85.970	-0.266	-0.081
-361.654	-200.000	0.045	0.297
-360.639	154.671	0.087	-0.119
-359.625	-200.000	-0.019	0.100
-358.610	800.000	0.138	-0.398
-357.596	193.727	-0.140	0.209
-356.581	-139.358	0.326	0.035
-355.566	-98.662	0.380	0.096
-354.552	-122.804	0.089	0.014
-353.537	800.000	0.034	-0.093
-352.523	198.574	-0.058	0.088
-351.508	152.718	0.179	0.242
-350.493	-168.820	-0.200	-0.007
-349.479	5.742	-0.150	0.110
-348.464	-70.630	-0.319	-0.119
-347.450	-200.000	-0.019	0.270
-346.435	401.066	-0.122	0.254
-345.420	-200.000	0.015	-0.286
-344.406	340.131	0.148	-0.286
-343.391	-200.000	-0.023	-0.132
-342.377	-184.794	0.219	-0.003
-341.362	37.771	-0.478	0.420
-340.348	-0.861	-0.162	0.114
-339.333	427.352	-0.038	-0.080
-338.318	254.527	-0.126	-0.213
-337.304	50.891	-0.228	-0.213
-336.289	31.981	0.034	0.029
-335.275	69.264	-0.085	0.086
-334.260	-26.293	-0.355	-0.206
-333.245	800.000	-0.023	-0.076
-332.231	-19.847	0.213	0.130
-331.216	-200.000	-0.030	0.133
-330.202	44.292	-0.414	0.376
-329.187	90.724	0.213	0.236
-328.172	-24.305	0.303	-0.179
-327.158	-112.465	0.230	0.045
-326.143	49.723	-0.245	0.228
-325.129	35.831	-0.085	0.074
-324.114	443.607	0.158	-0.342
-323.099	-151.935	-0.116	0.008
-322.085	-113.528	-0.186	-0.036
-321.070	-139.493	0.073	-0.008
-320.056	-137.069	-0.321	-0.036
-319.041	90.701	-0.157	-0.174
-318.026	247.176	-0.044	0.074
-317.012	-89.657	0.289	-0.084
-315.997	136.786	0.238	0.307
-314.983	-63.242	-0.260	-0.106
-313.968	-10.938	0.098	0.064
-312.953	-52.900	-0.204	0.093
-311.939	-108.413	0.263	0.056
-310.924	398.548	-0.080	-0.166
-309.910	275.980	0.193	-0.339
-308.895	-189.104	-0.231	-0.003
-307.880	10.790	-0.026	0.020
-306.866	-163.531	0.084	0.004
-305.851	37.018	0.137	-0.120
-304.837	800.000	-0.019	-0.073
-303.822	-63.182	-0.299	-0.122
-302.807	121.047	-0.167	-0.206
-301.793	488.396	-0.137	0.309
-300.778	568.627	-0.029	-0.070
-299.764	800.000	0.025	0.073
-298.749	-53.955	0.181	-0.082
-297.735	-200.000	-0.003	0.074
-296.720	-129.267	-0.265	0.036
-295.705	-5.358	-0.100	-0.068
-294.691	160.734	-0.218	-0.301
-293.676	-73.256	0.138	-0.050
-292.662	-88.331	0.362	0.107
-291.647	50.441	-0.144	-0.134
-290.632	464.070	0.091	-0.202
-289.618	-48.169	-0.207	-0.099
-288.603	-46.809	-0.150	0.073
-287.589	-29.575	0.188	-0.106
-286.574	191.959	0.111	-0.165
-285.559	-200.000	0.021	-0.129
-284.545	-68.660	0.379	-0.145
-283.530	25.064	-0.153	0.126
-282.516	-48.871	0.092	0.044
-281.501	482.045	0.029	-0.064
-280.486	81.741	-0.069	-0.074
-279.472	-41.206	0.067	-0.034
-278.457	-124.121	-0.471	-0.073
-277.443	-57.691	0.245	-0.106
-276.428	-135.462	-0.042	0.005
-275.413	800.000	-0.072	0.203
-274.399	598.711	0.182	-0.444
-273.384	66.410	-0.147	-0.148
-272.370	190.476	0.065	-0.097
-271.355	58.719	-0.135	0.131
-270.340	12.413	-0.104	0.079
-269.326	312.418	-0.093	-0.173
-268.311	-92.379	-0.330	-0.092
-267.297	-168.693	-0.411	0.015
-266.282	235.573	0.103	0.168
-265.267	58.165	0.083	0.080
-264.253	90.798	0.150	-0.166
-263.238	-160.495	-0.110	-0.006
-262.224	-200.000	0.046	0.477
-261.209	46.151	-0.380	0.348
-260.195	800.000	-0.058	0.178
-259.180	-183.698	-0.135	-0.002
-258.165	103.418	0.147	0.170
-257.151	-10.780	0.153	0.100
-256.136	800.000	0.011	0.033
-255.122	-58.447	0.278	-0.119
-254.107	-102.938	0.081	0.019
-253.092	-200.000	0.044	0.332
-252.078	800.000	0.103	-0.352
-251.063	-140.985	0.175	0.018
-250.049	-200.000	0.016	-0.311
-249.034	-27.686	0.114	-0.065
-248.019	800.000	0.080	-0.253
-247.005	-91.290	0.205	0.058
-245.990	-26.439	0.019	0.011
-244.976	200.726	0.105	0.160
-243.961	-200.000	-0.006	0.312
-242.946	-30.986	0.262	-0.146
-241.932	158.461	-0.125	-0.170
-240.917	22.921	0.122	0.098
-239.903	357.797	0.126	-0.248
-238.888	-200.000	0.002	0.338
-237.873	-163.184	0.177	-0.008
-236.859	237.022	0.168	-0.275
-235.844	13.966	0.178	0.137
-234.830	175.690	0.256	0.366
-233.815	122.624	-0.219	0.270
-232.800	180.279	-0.204	0.295
-231.786	-200.000	-0.028	0.337
-230.771	-127.981	0.266	0.038
-229.757	-43.781	-0.121	0.060
-228.742	435.750	-0.075	0.161
-227.727	-200.000	0.003	0.190
-226.713	673.507	0.029	0.074
-225.698	18.737	0.154	-0.122
-224.684	-152.393	-0.393	0.028
-223.669	-39.284	-0.301	-0.156
-222.655	-200.000	0.052	0.284
-221.640	-200.000	-0.029	0.288
-220.625	-200.000	-0.092	0.397
-219.611	107.624	-0.102	0.119
-218.596	-0.081	-0.237	-0.166
-217.582	-200.000	0.000	0.233
-216.567	30.537	0.107	-0.090
-215.552	-200.000	0.005	0.098
-214.538	-162.086	-0.046	-0.002
-213.523	89.567	0.044	-0.048
-212.509	-6.812	0.168	-0.112
-211.494	-200.000	-0.018	0.109
-210.479	138.778	-0.209	0.270
-209.465	800.000	0.119	0.338
-208.450	135.315	0.280	-0.359
-207.436	470.912	0.030	0.067
-206.421	800.000	-0.046	0.189
-205.406	-120.716	-0.091	-0.015
-204.392	800.000	-0.015	-0.045
-203.377	800.000	-0.059	0.191
-202.363	-38.808	-0.161	0.083
-201.348	149.370	0.235	-0.313
-200.333	257.855	-0.155	-0.263
-199.319	308.264	-0.072	-0.133
-198.304	215.067	0.154	0.241
-197.290	-78.197	0.346	-0.117
-196.275	-191.309	0.173	0.002
-195.260	-123.746	-0.236	-0.037
-194.246	-124.852	-0.326	-0.049
-193.231	800.000	0.039	-0.134
-192.217	-10.617	-0.149	-0.097
-191.202	-200.000	0.039	0.250
-190.187	-200.000	-0.013	-0.147
-189.173	222.416	-0.178	0.283
-188.158	-106.969	0.211	0.046
-187.144	-200.000	0.024	-0.259
-186.129	-176.324	-0.270	0.007
-185.114	67.194	0.169	-0.170
-184.100	4.314	-0.134	-0.096
-183.085	-36.892	-0.131	0.069
-182.071	-200.000	0.021	-0.206
-181.056	15.688	0.114	0.088
-180.042	-98.039	0.321	0.081
-179.027	-200.000	-0.005	-0.030
-178.012	-161.343	0.174	0.009
-176.998	78.623	-0.253	0.266
-175.983	-68.850	0.347	0.132
-174.969	90.882	-0.090	-0.099
-173.954	239.480	0.076	-0.124
-172.939	-19.144	-0.099	-0.060
-171.925	800.000	0.044	-0.125
-170.910	-200.000	0.079	0.563
-169.896	-114.353	-0.108	0.020
-168.881	146.659	-0.182	-0.240
-167.866	138.340	0.261	0.336
-166.852	130.935	0.093	-0.118
-165.837	101.614	0.181	-0.208
-164.823	-20.895	-0.267	-0.161
-163.808	-200.000	-0.032	-0.343
-162.793	-164.156	0.220	-0.010
-161.779	-27.670	0.068	0.039
-160.764	375.366	-0.074	0.149
-159.750	-87.122	-0.098	-0.029
-158.735	288.963	-0.283	0.504
-157.720	-200.000	0.028	0.158
-156.706	59.763	0.044	-0.042
-155.691	43.775	0.105	0.095
-154.677	361.737	-0.053	-0.104
-153.662	566.671	-0.077	0.183
-152.647	-9.641	0.425	0.278
-151.633	135.608	0.164	-0.210
-150.618	-101.190	0.282	-0.068
-149.604	-51.676	0.142	0.065
-148.589	-200.000	-0.012	-0.188
-147.574	41.705	-0.081	-0.072
-146.560	-117.975	0.093	0.016
-145.545	577.553	0.069	0.166
-144.531	-91.622	0.208	0.058
-143.516	-200.000	-0.023	0.152
-142.502	-78.669	0.060	0.020
-141.487	-200.000	-0.003	-0.110
-140.472	184.746	0.069	0.101
-139.458	-4.519	0.121	-0.082
-138.443	-140.460	-0.516	-0.053
-137.429	-200.000	0.016	0.398
-136.414	-200.000	0.259	0.000
-135.399	-50.314	-0.139	-0.065
-134.385	-43.008	-0.029	-0.014
-133.370	-200.000	-0.025	0.255
-132.356	97.171	-0.128	0.145
-131.341	24.834	0.349	0.284
-130.326	-102.000	0.480	0.114
-129.312	-51.360	0.079	-0.036
-128.297	-119.382	0.116	0.020
-127.283	166.148	-0.135	-0.187
-126.268	182.846	0.151	0.218
-125.253	-135.119	0.304	0.036
-124.239	176.937	0.104	0.148
-123.224	-200.000	0.002	0.254
-122.210	-38.639	-0.137	-0.071
-121.195	14.550	-0.131	-0.101
-120.180	-200.000	-0.082	-0.368
-119.166	-200.000	-0.017	0.103
-118.151	-19.122	-0.096	0.059
-117.137	141.997	-0.118	-0.153
-116.122	-200.000	0.002	-0.134
-115.107	-94.082	-0.255	0.068
-114.093	-77.361	-0.070	-0.024
-113.078	-54.198	-0.180	0.080
-112.064	-147.499	0.200	-0.017
-111.049	10.259	-0.412	-0.307
-110.034	-58.495	-0.026	0.011
-109.020	447.913	0.052	0.113
-108.005	17.057	-0.086	-0.067
-106.991	-58.467	0.197	-0.084
-105.976	40.829	0.282	-0.249
-104.962	156.374	0.042	0.056
-103.947	-89.594	0.297	0.086
-102.932	-28.574	0.215	-0.121
-101.918	626.863	0.056	-0.137
-100.903	212.769	-0.130	-0.201
-99.889	-90.205	0.237	0.068
-98.874	112.970	0.282	0.335
-97.859	104.147	-0.177	0.204
-96.845	-105.007	0.250	-0.056
-95.830	-86.671	-0.431	-0.129
-94.816	528.029	-0.052	0.119
-93.801	102.668	-0.221	-0.254
-92.786	-118.597	-0.192	-0.033
-91.772	491.812	0.075	0.168
-90.757	-122.117	0.170	-0.027
-89.743	495.315	0.143	0.321
-88.728	-87.456	0.315	0.094
-87.713	-200.000	-0.012	0.483
-86.699	62.050	-0.082	0.080
-85.684	-84.500	-0.225	-0.069
-84.670	-107.786	-0.195	-0.042
-83.655	283.309	-0.084	0.148
-82.640	133.267	-0.125	-0.159
-81.626	-11.651	-0.101	0.065
-80.611	-94.534	-0.178	0.047
-79.597	-4.228	-0.377	-0.256
-78.582	35.147	0.301	-0.258
-77.567	-200.000	-0.015	0.070
-76.553	45.852	-0.103	-0.093
-75.538	-200.000	-0.040	0.212
-74.524	800.000	0.054	-0.159
-73.509	-118.536	-0.324	0.056
-72.494	-90.337	-0.055	-0.016
-71.480	-12.879	-0.103	-0.066
-70.465	-134.033	-0.131	0.016
-69.451	92.147	-0.017	-0.019
-68.436	222.936	0.076	0.120
-67.422	-4.106	-0.127	0.086
-66.407	401.569	0.083	0.170
-65.392	299.838	0.043	-0.077
-64.378	-192.744	0.376	0.003
-63.363	-87.082	-0.303	-0.090
-62.349	72.941	0.079	-0.081
-61.334	159.212	-0.911	-1.240
-60.319	68.151	0.668	0.669
-59.305	287.388	-0.619	-1.095
-58.290	437.516	0.577	1.231
-57.276	521.924	0.606	1.391
-56.261	-200.000	115.261	666.870
-55.246	545.628	1526.197	3568.965
-54.232	176.614	2702.841	3844.028
-53.217	103.545	2290.368	2629.727
-52.203	36.630	1895.882	1637.654
-51.188	30.460	1685.468	1409.214
-50.173	27.994	1643.070	1355.449
-49.159	50.409	1699.531	1571.502
-48.144	48.897	1713.099	1572.616
-47.130	30.052	1671.181	1393.980
-46.115	27.426	1656.333	1361.924
-45.100	27.213	1652.388	1357.035
-44.086	27.272	1648.800	1354.476
-43.071	27.219	1646.291	1351.970
-42.057	27.212	1643.640	1349.685
-41.042	27.149	1642.155	1347.946
-40.027	27.214	1640.184	1346.755
-39.013	27.170	1638.412	1344.920
-37.998	27.106	1636.630	1342.930
-36.984	27.220	1634.824	1342.240
-35.969	27.304	1633.596	1341.795
-34.954	27.299	1632.077	1340.455
-33.940	27.239	1630.187	1338.413
-32.925	27.195	1628.605	1336.733
-31.911	27.305	1626.869	1336.067
-30.896	27.297	1624.533	1334.039
-29.881	27.282	1623.047	1332.654
-28.867	27.281	1621.575	1331.381
-27.852	27.265	1619.941	1329.876
-26.838	27.251	1618.612	1328.628
-25.823	27.282	1616.943	1327.427
-24.809	27.368	1615.624	1326.919
-23.794	27.344	1614.669	1325.911
-22.779	27.320	1613.230	1324.498
-21.765	27.289	1611.212	1322.569
-20.750	27.284	1609.698	1321.234
-19.736	27.370	1608.503	1320.828
-18.721	27.274	1607.579	1319.319
-17.706	27.426	1605.243	1318.451
-16.692	27.275	1604.273	1316.504
-15.677	27.300	1602.862	1315.475
-14.663	27.399	1601.274	1314.835
-13.648	27.370	1599.914	1313.462
-12.633	27.337	1598.649	1312.134
-11.619	27.393	1596.876	1311.029
-10.604	27.333	1595.636	1309.526
-9.590	27.350	1594.450	1308.625
-8.575	27.362	1593.240	1307.661
-7.560	27.405	1591.315	1306.342
-6.546	27.293	1590.740	1305.010
-5.531	27.342	1589.357	1304.176
-4.517	27.358	1588.401	1303.453
-3.502	27.365	1587.526	1302.733
-2.487	27.453	1585.422	1301.585
-1.473	27.069	1573.517	1289.039
-0.458	24.192	1554.604	1253.292
0.556	22.490	1555.646	1220.652
1.571	19.980	1579.005	1221.197
2.586	19.386	1590.809	1225.992
3.600	17.467	1538.029	1172.015
4.615	10.922	1431.907	1048.957
5.629	5.084	1372.717	969.321
6.644	4.054	1364.946	957.388
7.659	4.087	1363.558	956.531
8.673	4.077	1363.310	956.212
9.688	4.101	1361.114	954.734
10.702	4.086	1357.737	952.189
11.717	6.837	1363.724	973.266
12.731	14.543	1377.259	1030.621
13.746	21.208	1388.171	1080.069
14.761	22.994	1390.607	1092.918
15.775	22.482	1388.862	1088.292
16.790	21.668	1385.825	1080.791
17.804	20.860	1384.140	1074.399
18.819	20.619	1383.039	1071.965
19.834	20.537	1382.426	1070.889
20.848	20.539	1381.270	1069.915
21.863	20.435	1380.043	1068.228
22.877	20.367	1378.626	1066.621
23.892	20.306	1377.763	1065.482
24.907	20.217	1376.908	1064.181
25.921	20.212	1376.038	1063.383
26.936	20.150	1375.435	1062.446
27.950	20.225	1374.195	1061.854
28.965	20.215	1373.601	1061.235
29.980	20.414	1372.652	1061.627
30.994	20.567	1371.670	1061.709
32.009	20.697	1370.621	1061.595
33.023	20.546	1369.459	1059.684
34.038	20.517	1367.759	1058.098
35.053	20.351	1366.766	1056.226
36.067	20.278	1365.875	1054.996
37.082	20.223	1365.248	1054.089
38.096	20.465	1363.978	1054.479
39.111	20.466	1363.176	1053.772
40.126	20.393	1362.148	1052.445
41.140	20.062	1360.963	1049.432
42.155	19.830	1360.274	1047.399
43.169	19.832	1360.061	1047.158
44.184	19.842	1360.039	1047.107
45.199	19.875	1359.750	1046.990
46.213	20.187	1359.780	1048.809
47.228	20.351	1359.050	1049.149
48.242	20.371	1357.334	1047.851
49.257	20.233	1356.173	1046.026
50.271	20.243	1354.577	1044.765
51.286	20.325	1353.392	1044.254
52.301	20.297	1351.905	1042.844
53.315	20.180	1350.795	1041.193
54.330	19.956	1349.979	1039.125
55.344	19.915	1348.721	1037.820
56.359	19.989	1347.562	1037.278
57.374	19.921	1346.630	1036.062
58.388	19.760	1346.111	1034.608
59.403	19.701	1345.602	1033.776
60.417	19.775	1344.440	1033.235
61.432	19.664	1343.793	1031.982
62.447	19.588	1342.698	1030.594
63.461	19.467	1341.775	1029.072
64.476	19.522	1340.557	1028.377
65.490	19.596	1338.925	1027.477
66.505	19.591	1337.362	1026.153
67.520	19.519	1336.620	1025.065
68.534	19.501	1335.998	1024.391
69.549	19.508	1334.469	1023.169
70.563	19.391	1333.596	1021.718
71.578	19.276	1332.631	1020.210
72.593	19.272	1331.071	1018.899
73.607	19.225	1330.501	1018.096
74.622	19.310	1329.815	1017.983
75.636	19.345	1329.440	1017.813
76.651	19.295	1328.968	1017.065
77.666	19.426	1328.152	1017.121
78.680	19.472	1328.636	1017.673
79.695	19.669	1326.788	1017.330
80.709	19.709	1326.435	1017.202
81.724	19.812	1326.016	1017.399
82.739	19.985	1325.266	1017.749
83.753	20.197	1324.672	1018.450
84.768	20.407	1324.027	1019.092
85.782	20.512	1322.677	1018.584
86.797	20.645	1321.340	1018.240
87.812	20.348	1320.414	1015.697
88.826	20.302	1319.381	1014.547
89.841	20.429	1318.294	1014.362
90.855	20.467	1317.168	1013.629
91.870	20.529	1316.587	1013.451
92.884	20.621	1316.188	1013.594
93.899	20.532	1315.585	1012.516
94.914	20.667	1314.460	1012.351
95.928	20.600	1313.524	1011.150
96.943	20.543	1312.824	1010.189
97.957	20.487	1311.878	1009.047
98.972	20.486	1310.854	1008.167
99.987	20.518	1309.770	1007.428
101.001	20.429	1308.611	1005.932
102.016	20.422	1307.858	1005.224
103.030	20.419	1306.742	1004.256
104.045	20.303	1306.350	1003.198
105.060	20.206	1304.642	1001.236
106.074	19.873	1303.155	998.086
107.089	19.655	1301.017	995.108
108.103	19.545	1299.952	993.572
109.118	19.490	1298.774	992.267
110.133	19.605	1297.016	991.493
111.147	19.561	1296.615	990.846
112.162	19.782	1294.972	990.769
113.176	19.783	1293.886	989.859
114.191	19.815	1293.168	989.404
115.206	19.773	1291.908	988.116
116.220	19.613	1290.793	986.259
117.235	19.698	1289.273	985.494
118.249	19.574	1288.619	984.201
119.264	19.561	1287.241	982.991
120.279	19.468	1286.124	981.521
121.293	19.404	1285.090	980.282
122.308	19.257	1283.982	978.514
123.322	19.136	1283.582	977.437
124.337	19.155	1282.340	976.512
125.352	19.226	1280.942	975.764
126.366	19.217	1279.480	974.513
127.381	19.219	1278.531	973.715
128.395	19.175	1277.646	972.702
129.410	19.267	1276.570	972.318
130.424	19.350	1276.191	972.413
131.439	19.509	1275.508	972.701
132.454	19.583	1274.547	972.297
133.468	19.611	1273.790	971.792
134.483	19.673	1273.569	971.889
135.497	19.810	1272.243	971.561
136.512	19.778	1270.861	970.240
137.527	19.790	1269.988	969.553
138.541	19.803	1268.702	968.560
139.556	19.870	1267.577	967.989
140.570	20.034	1266.409	967.928
141.585	20.146	1265.494	967.769
142.600	20.184	1264.899	967.440
143.614	20.374	1263.944	967.683
144.629	20.463	1262.714	967.152
145.643	20.373	1261.739	965.819
146.658	20.181	1260.450	963.681
147.673	19.999	1259.161	961.598
148.687	19.869	1257.833	959.779
149.702	19.766	1256.220	957.893
150.716	19.560	1255.176	955.871
151.731	19.704	1253.698	955.456
152.746	19.756	1252.671	954.878
153.760	19.912	1251.527	954.778
154.775	19.943	1250.916	954.399
155.789	20.046	1249.976	954.166
156.804	19.956	1249.445	953.179
157.819	20.218	1248.243	953.619
158.833	20.256	1247.446	953.133
159.848	20.506	1246.781	953.914
160.862	20.349	1246.117	952.461
161.877	20.002	1244.506	949.244
162.892	19.739	1242.768	946.394
163.906	19.749	1242.099	945.854
164.921	19.770	1240.942	945.006
165.935	19.862	1240.108	944.791
166.950	19.938	1239.800	944.884
167.964	19.947	1239.000	944.243
168.979	19.855	1238.194	943.046
169.994	19.820	1237.286	942.076
171.008	19.915	1236.702	942.068
172.023	20.042	1236.239	942.325
173.037	20.366	1235.567	943.490
174.052	20.186	1234.586	941.678
175.067	19.932	1233.280	939.218
176.081	19.750	1232.173	937.305
177.096	19.749	1231.148	936.441
178.110	19.711	1229.960	935.247
179.125	19.905	1228.972	935.460
180.140	20.064	1228.065	935.547
181.154	20.136	1227.323	935.287
182.169	20.229	1226.579	935.142
183.183	20.208	1225.295	933.966
184.198	20.263	1224.198	933.340
185.213	20.301	1223.239	932.734
186.227	20.348	1221.988	931.949
187.242	20.557	1221.253	932.428
188.256	20.454	1220.690	931.361
189.271	20.589	1219.835	931.350
190.286	20.355	1218.182	928.752
191.300	19.919	1216.625	925.154
192.315	19.743	1216.142	923.767
193.329	19.869	1215.514	923.877
194.344	19.923	1215.112	923.781
195.359	19.962	1214.581	923.501
196.373	20.038	1213.952	923.349
197.388	20.139	1213.820	923.704
198.402	20.362	1213.827	924.818
199.417	20.665	1213.408	926.026
200.432	20.741	1213.297	926.268
201.446	20.897	1212.426	926.349
202.461	20.926	1211.817	925.953
203.475	20.901	1210.840	924.995
204.490	20.575	1208.718	921.563
205.504	20.395	1207.347	919.486
206.519	20.409	1206.083	918.512
207.534	20.162	1205.507	916.688
208.548	20.238	1204.400	916.166
209.563	20.312	1204.007	916.179
210.577	20.269	1203.144	915.210
211.592	20.405	1202.079	915.039
212.607	20.674	1201.706	916.087
213.621	20.595	1200.944	915.014
214.636	20.476	1199.542	913.237
215.650	20.471	1199.156	912.837
216.665	20.789	1197.756	913.359
217.680	21.005	1197.375	914.119
218.694	20.963	1196.331	913.024
219.709	20.824	1195.731	911.756
220.723	20.968	1194.717	911.655
221.738	20.752	1194.171	910.028
222.753	20.663	1193.781	909.185
223.767	20.774	1192.634	908.809
224.782	20.892	1192.861	909.519
225.796	21.087	1192.216	909.965
226.811	21.008	1191.076	908.600
227.826	20.756	1190.320	906.631
228.840	20.638	1189.182	905.071
229.855	20.721	1188.125	904.618
230.869	20.667	1187.431	903.727
231.884	20.576	1186.737	902.648
232.899	20.447	1185.713	901.122
233.913	20.341	1184.816	899.811
234.928	20.263	1184.208	898.865
235.942	20.243	1183.377	898.053
236.957	20.341	1182.626	897.910
237.972	20.169	1182.246	896.650
238.986	20.269	1181.323	896.387
240.001	20.277	1181.112	896.189
241.015	20.382	1179.919	895.749
242.030	20.614	1178.813	896.022
243.045	20.588	1178.552	895.612
244.059	20.653	1177.687	895.212
245.074	20.805	1176.869	895.292
246.088	20.778	1176.558	894.838
247.103	21.044	1175.613	895.406
248.117	21.088	1175.248	895.274
249.132	21.195	1174.806	895.406
250.147	21.542	1174.174	896.622
251.161	21.654	1173.945	896.944
252.176	21.609	1173.655	896.413
253.190	21.739	1172.599	896.188
254.205	21.856	1172.117	896.338
255.220	21.786	1171.975	895.796
256.234	21.829	1171.037	895.218
257.249	21.802	1170.317	894.448
258.263	21.764	1169.170	893.301
259.278	21.736	1168.546	892.604
260.293	21.830	1168.510	892.973
261.307	21.904	1167.838	892.759
262.322	21.944	1167.074	892.301
263.336	21.913	1166.255	891.438
264.351	21.953	1166.213	891.528
265.366	21.946	1165.573	890.927
266.380	21.881	1164.823	889.941
267.395	21.820	1163.414	888.481
268.409	21.664	1162.547	886.949
269.424	21.671	1162.075	886.547
270.439	21.629	1161.324	885.681
271.453	21.441	1160.733	884.203
272.468	21.423	1159.346	882.975
273.482	21.442	1158.345	882.231
274.497	21.291	1158.320	881.374
275.512	21.432	1157.386	881.293
276.526	21.362	1156.943	880.525
277.541	21.477	1155.595	880.000
278.555	21.408	1155.682	879.640
279.570	21.855	1154.662	881.035
280.585	21.895	1154.177	880.787
281.599	21.771	1153.109	879.274
282.614	21.671	1151.900	877.772
283.628	21.631	1150.775	876.636
284.643	21.549	1149.895	875.476
285.657	21.501	1149.081	874.544
286.672	21.566	1148.487	874.337
287.687	21.618	1147.464	873.739
288.701	21.545	1146.576	872.624
289.716	21.619	1145.554	872.137
290.730	21.508	1145.024	871.102
291.745	21.657	1144.448	871.330
292.760	21.687	1144.189	871.204
293.774	21.825	1143.744	871.476
294.789	21.914	1143.575	871.712
295.803	21.840	1142.444	870.403
296.818	21.641	1141.399	868.544
297.833	21.607	1140.643	867.722
298.847	21.676	1139.565	867.166
299.862	21.701	1138.783	866.617
300.876	21.572	1138.507	865.697
301.891	21.849	1137.653	866.340
302.906	21.952	1137.431	866.602
303.920	21.995	1137.134	866.510
304.935	22.255	1136.290	867.070
305.949	22.356	1136.014	867.280
306.964	22.278	1135.018	866.062
307.979	22.097	1133.790	864.159
308.993	22.084	1133.392	863.714
310.008	22.229	1132.654	863.788
311.022	22.232	1131.881	863.137
312.037	22.088	1131.163	861.804
313.052	21.880	1130.156	859.942
314.066	21.782	1128.742	858.311
315.081	21.516	1127.502	855.990
316.095	21.513	1127.044	855.552
317.110	21.587	1126.155	855.161
318.125	21.640	1125.318	854.710
319.139	21.507	1124.953	853.710
320.154	21.554	1123.933	853.088
321.168	21.508	1123.482	852.446
322.183	21.687	1123.007	852.882
323.197	21.629	1122.647	852.252
324.212	21.893	1121.696	852.736
325.227	21.825	1121.287	852.022
326.241	21.838	1120.578	851.468
327.256	21.821	1119.665	850.618
328.270	21.752	1118.597	849.399
329.285	21.774	1117.670	848.727
330.300	21.722	1116.637	847.613
331.314	21.775	1115.601	847.010
332.329	21.723	1115.087	846.291
333.343	21.676	1114.848	845.808
334.358	21.958	1113.549	846.108
335.373	21.954	1113.455	845.941
336.387	21.990	1112.877	845.604
337.402	22.181	1111.366	845.300
338.416	22.225	1111.406	845.465
339.431	22.184	1111.167	845.011
340.446	22.438	1110.098	845.345
341.460	22.600	1109.540	845.622
342.475	22.700	1108.841	845.492
343.489	22.725	1108.038	844.927
344.504	22.746	1106.989	844.152
345.519	22.848	1106.423	844.134
346.533	22.929	1105.646	843.854
347.548	22.810	1105.367	842.994
348.562	22.798	1104.241	842.004
349.577	22.499	1102.953	839.522
350.592	22.297	1101.662	837.504
351.606	22.145	1101.276	836.414
352.621	22.086	1100.387	835.386
353.635	21.967	1099.746	834.257
354.650	22.025	1098.950	833.857
355.665	22.168	1097.965	833.712
356.679	22.259	1098.049	834.137
357.694	22.404	1097.254	834.145
358.708	22.513	1096.789	834.233
359.723	22.549	1095.764	833.548
360.738	22.384	1095.892	832.794
361.752	22.480	1094.996	832.490
362.767	22.481	1094.394	831.967
363.781	22.347	1093.917	830.899
364.796	22.593	1093.472	831.648
365.810	22.855	1093.052	832.490
366.825	22.952	1092.735	832.631
367.840	23.105	1092.343	832.978
368.854	23.204	1091.678	832.862
369.869	23.250	1090.844	832.373
370.883	22.950	1089.566	829.911
371.898	22.850	1088.843	828.818
372.913	22.759	1088.588	828.122
373.927	22.844	1088.538	828.413
374.942	23.019	1087.661	828.493
375.956	23.075	1087.189	828.323
376.971	22.927	1086.297	826.875
377.986	23.005	1085.930	826.887
379.000	23.180	1085.556	827.346
380.015	23.250	1084.847	827.062
381.029	23.281	1084.531	826.892
382.044	23.203	1083.714	825.832
383.059	23.339	1082.719	825.633
384.073	23.277	1081.699	824.494
385.088	23.269	1081.193	824.002
386.102	23.172	1080.244	822.751
387.117	22.933	1078.875	820.525
388.132	22.752	1077.884	818.863
389.146	22.778	1077.061	818.284
390.161	22.810	1076.168	817.681
391.175	22.678	1075.582	816.551
392.190	22.879	1075.150	817.082
393.205	23.130	1074.659	817.797
394.219	23.140	1073.659	817.008
395.234	22.953	1072.621	815.285
396.248	22.766	1071.593	813.570
397.263	22.927	1070.297	813.255
398.278	22.660	1070.146	811.841
399.292	22.506	1069.125	810.287
400.307	22.608	1067.849	809.715
401.321	22.441	1067.759	808.807
402.336	22.500	1066.817	808.294
403.350	22.637	1065.856	808.122
404.365	22.631	1065.964	808.104
405.380	22.833	1065.137	808.331
406.394	22.968	1064.023	808.033
407.409	23.071	1063.737	808.212
408.423	23.199	1063.371	808.450
409.438	23.426	1062.534	808.776
410.453	23.455	1062.379	808.720
411.467	23.433	1061.595	807.950
412.482	23.460	1061.152	807.663
413.496	23.551	1060.537	807.541
414.511	23.653	1059.763	807.341
415.526	23.845	1059.528	807.967
416.540	23.771	1059.131	807.254
417.555	23.810	1058.543	806.913
418.569	23.722	1057.775	805.857
419.584	23.619	1057.095	804.798
420.599	23.664	1056.601	804.557
421.613	157.584	1403.840	1797.484
422.628	144.795	1454.397	1797.557
