DTS Sentinel unit serial number:	SN413079Multiplexer serial number:	ORYXHardware model number:	OX4-SRSoftware version number:	ORYX F/W v4.00 Oryx Data Collector v3.7.2.0data status	okinstallation	princeton_trtdifferential loss correction	single-endedforward channel	channel 2reverse channel	N/Adate	2019/09/18time	13:51:35forward acquisition time	60.00reverse acquisition time	0.00gamma	496.2192k internal	0.2319k external	0.2319temperature offset calibration	0.9998default loss term (dB/km)	0.3790temperature slope calibration	1.0000multiplexer offset coefficient	1.0000multiplexer slope coefficient	1.0000fibre end	0.00T internal ref (°C)	34.53T ext. ref 1 (°C)	0.65T ext. ref 2 (°C)	29.93length (m)	temperature (°C)	Stokes	anti-Stokes-747.200	-37.735	-0.075	0.040
-746.185	216.179	0.309	0.497
-745.171	573.331	-0.221	0.545
-744.156	800.000	0.034	-0.108
-743.142	-35.401	0.085	-0.047
-742.127	129.559	-0.203	0.263
-741.112	709.854	-0.181	-0.484
-740.098	46.098	0.066	0.062
-739.083	-200.000	0.000	0.458
-738.069	-47.567	-0.068	0.034
-737.054	-200.000	-0.420	-0.001
-736.039	-111.025	0.266	0.055
-735.025	800.000	0.065	0.195
-734.010	21.538	-0.267	-0.219
-732.996	-76.972	0.218	0.077
-731.981	-200.000	0.013	0.128
-730.966	-85.771	0.171	-0.054
-729.952	800.000	-0.098	0.383
-728.937	199.460	-0.217	-0.337
-727.923	800.000	-0.032	-0.092
-726.908	235.585	-0.047	0.079
-725.894	36.673	-0.110	-0.098
-724.879	31.801	-0.343	-0.298
-723.864	-129.511	-0.142	-0.020
-722.850	344.573	0.060	0.119
-721.835	-14.170	0.118	-0.077
-720.821	800.000	-0.008	-0.030
-719.806	55.749	0.179	-0.175
-718.791	-46.670	-0.271	0.134
-717.777	-45.924	0.207	-0.103
-716.762	800.000	-0.091	-0.265
-715.748	59.735	-0.136	-0.136
-714.733	-74.361	0.154	-0.056
-713.718	305.072	0.058	-0.109
-712.704	425.463	-0.142	-0.310
-711.689	786.600	0.123	-0.340
-710.675	6.244	-0.171	-0.128
-709.660	-73.353	-0.281	-0.104
-708.645	-162.228	0.180	0.009
-707.631	-31.226	-0.054	-0.031
-706.616	-200.000	0.055	-0.249
-705.602	-118.501	-0.233	0.042
-704.587	15.924	0.053	0.042
-703.572	-200.000	0.010	0.076
-702.558	-117.897	-0.142	-0.026
-701.543	-184.903	0.649	-0.010
-700.529	131.392	0.167	0.217
-699.514	-200.000	-0.012	0.421
-698.499	-19.895	0.276	-0.172
-697.485	-131.436	-0.147	-0.020
-696.470	-74.625	0.088	0.032
-695.456	-17.478	-0.307	0.195
-694.441	10.710	-0.065	-0.050
-693.426	800.000	-0.024	-0.100
-692.412	311.634	-0.088	-0.167
-691.397	173.204	0.118	0.172
-690.383	-16.695	0.073	0.047
-689.368	563.300	0.182	-0.445
-688.354	-200.000	-0.022	0.157
-687.339	-200.000	0.006	-0.038
-686.324	-94.031	0.253	-0.070
-685.310	-71.748	0.320	0.120
-684.295	800.000	-0.081	-0.331
-683.281	-7.285	-0.194	-0.133
-682.266	800.000	0.083	-0.277
-681.251	470.336	0.149	-0.337
-680.237	22.432	0.127	0.105
-679.222	230.830	-0.062	0.103
-678.208	424.458	-0.105	0.227
-677.193	525.699	-0.085	0.202
-676.178	80.170	-0.202	0.219
-675.164	475.455	-0.065	0.149
-674.149	68.818	0.041	0.042
-673.135	-200.000	0.033	0.235
-672.120	-18.310	-0.114	0.072
-671.105	-200.000	0.063	0.354
-670.091	178.302	-0.067	-0.099
-669.076	-122.258	0.240	-0.040
-668.062	-38.927	-0.107	0.057
-667.047	-143.500	0.164	0.016
-666.032	376.746	-0.074	-0.153
-665.018	110.754	0.133	-0.161
-664.003	-7.413	0.315	0.215
-662.989	41.225	-0.095	-0.087
-661.974	-160.218	-0.409	0.022
-660.959	-37.985	-0.139	0.075
-659.945	800.000	0.066	0.286
-658.930	4.788	-0.280	-0.208
-657.916	-200.000	-0.020	-0.203
-656.901	-176.334	0.203	-0.005
-655.886	-114.731	-0.206	-0.040
-654.872	-6.567	0.036	-0.025
-653.857	-133.764	-0.012	-0.001
-652.843	-16.150	-0.169	-0.108
-651.828	-200.000	0.029	0.360
-650.814	-100.711	-0.197	-0.049
-649.799	-69.433	-0.264	0.102
-648.784	205.368	-0.093	0.145
-647.770	145.664	0.049	0.066
-646.755	-102.805	0.207	0.050
-645.741	-10.583	0.201	0.134
-644.726	-105.044	0.307	0.071
-643.711	-200.000	-0.038	-0.286
-642.697	-58.675	-0.291	-0.127
-641.682	66.402	-0.120	-0.123
-640.668	43.643	-0.149	0.137
-639.653	327.680	0.142	-0.274
-638.638	-36.232	-0.185	-0.100
-637.624	121.868	-0.084	-0.106
-636.609	-71.824	0.157	0.059
-635.595	778.508	0.039	-0.107
-634.580	589.386	0.019	0.047
-633.565	-99.140	0.279	-0.071
-632.551	-99.744	-0.319	-0.080
-631.536	-45.396	0.132	0.066
-630.522	-162.043	-0.214	0.011
-629.507	-8.611	0.166	0.112
-628.492	800.000	-0.080	-0.294
-627.478	347.680	-0.132	-0.262
-626.463	-112.077	0.251	0.051
-625.449	38.599	-0.185	-0.166
-624.434	246.043	0.073	-0.124
-623.419	-200.000	0.007	-0.170
-622.405	-91.575	0.071	0.021
-621.390	-3.929	0.240	0.168
-620.376	-200.000	0.013	0.107
-619.361	-200.000	0.043	-0.235
-618.346	-58.120	0.210	-0.092
-617.332	-64.063	-0.086	-0.035
-616.317	32.174	0.265	0.230
-615.303	374.696	-0.122	0.250
-614.288	122.756	-0.203	0.256
-613.273	-200.000	0.006	0.140
-612.259	-200.000	0.022	0.217
-611.244	-67.007	-0.164	0.065
-610.230	89.586	0.080	-0.090
-609.215	61.767	-0.274	0.274
-608.201	-200.000	-0.013	0.260
-607.186	237.536	-0.073	-0.122
-606.171	-144.744	0.061	0.006
-605.157	413.967	0.026	-0.056
-604.142	565.193	0.114	-0.279
-603.128	318.660	0.148	0.282
-602.113	-138.173	0.316	-0.035
-601.098	-171.290	0.223	-0.008
-600.084	-21.054	0.196	0.120
-599.069	-93.947	-0.279	-0.077
-598.055	-8.475	0.205	-0.138
-597.040	38.871	-0.149	-0.134
-596.025	-200.000	-0.009	-0.098
-595.011	-200.000	-0.062	-0.283
-593.996	-150.698	0.124	0.010
-592.982	43.050	0.066	-0.061
-591.967	-68.126	-0.270	-0.106
-590.952	800.000	-0.056	-0.189
-589.938	-106.950	0.091	-0.020
-588.923	274.444	-0.227	0.405
-587.909	-200.000	0.007	-0.145
-586.894	55.449	-0.285	-0.277
-585.879	-200.000	-0.022	-0.247
-584.865	-200.000	0.015	0.267
-583.850	800.000	0.129	-0.406
-582.836	-99.459	0.522	-0.132
-581.821	800.000	0.049	-0.204
-580.806	-200.000	-0.007	-0.151
-579.792	-128.083	0.103	-0.015
-578.777	-193.422	-0.047	-0.000
-577.763	32.819	0.262	-0.228
-576.748	-133.337	-0.377	-0.048
-575.733	90.758	0.140	0.157
-574.719	-25.043	0.214	-0.128
-573.704	800.000	-0.114	0.379
-572.690	156.641	0.282	-0.392
-571.675	-200.000	-0.027	-0.182
-570.661	800.000	0.028	0.079
-569.646	50.585	-0.137	-0.130
-568.631	274.545	0.116	0.206
-567.617	-200.000	-0.006	-0.202
-566.602	520.789	0.136	0.321
-565.588	-129.760	-0.135	0.019
-564.573	43.814	-0.061	-0.056
-563.558	-92.994	0.281	0.079
-562.544	-200.000	-0.025	0.210
-561.529	-20.511	0.103	0.064
-560.515	-57.496	-0.218	0.096
-559.500	-53.909	0.177	0.081
-558.485	621.454	0.036	0.091
-557.471	-156.820	-0.286	-0.018
-556.456	327.537	0.107	-0.206
-555.442	109.001	-0.270	0.325
-554.427	197.636	0.136	-0.208
-553.412	-200.000	-0.043	0.402
-552.398	-14.183	-0.132	0.085
-551.383	73.074	0.107	0.112
-550.369	15.758	-0.079	0.063
-549.354	-65.711	-0.268	0.108
-548.339	6.291	-0.157	0.117
-547.325	21.893	-0.197	0.161
-546.310	22.607	-0.159	0.131
-545.296	21.662	0.190	-0.155
-544.281	246.410	-0.093	0.158
-543.266	176.191	0.221	0.322
-542.252	36.096	0.220	0.194
-541.237	-69.931	0.409	-0.156
-540.223	96.744	-0.198	-0.227
-539.208	-200.000	0.007	0.514
-538.193	-77.328	-0.199	0.069
-537.179	-120.399	-0.370	-0.063
-536.164	134.864	-0.096	0.126
-535.150	-3.958	-0.142	-0.099
-534.135	287.603	-0.117	-0.212
-533.121	-1.911	0.291	-0.205
-532.106	734.948	-0.046	0.123
-531.091	87.590	-0.237	0.263
-530.077	619.309	0.058	0.145
-529.062	-169.832	0.083	0.003
-528.048	-177.685	0.127	-0.003
-527.033	-200.000	0.002	0.245
-526.018	440.179	-0.187	0.411
-525.004	-21.653	0.081	0.050
-523.989	259.235	-0.115	0.200
-522.975	-162.804	0.155	0.008
-521.960	25.067	0.107	-0.089
-520.945	800.000	0.135	-0.523
-519.931	-151.482	-0.285	-0.021
-518.916	54.300	0.164	0.159
-517.902	-46.132	-0.416	-0.205
-516.887	578.866	0.149	-0.367
-515.872	800.000	-0.187	-0.533
-514.858	264.923	0.073	-0.127
-513.843	800.000	-0.094	-0.283
-512.829	-13.097	0.262	0.171
-511.814	-47.034	0.118	0.058
-510.799	-103.129	0.328	0.078
-509.785	24.148	0.149	-0.123
-508.770	-200.000	-0.040	-0.479
-507.756	-126.814	-0.343	0.051
-506.741	147.227	-0.133	0.180
-505.726	288.245	-0.129	-0.234
-504.712	37.456	-0.256	0.228
-503.697	-148.379	-0.253	0.021
-502.683	-170.853	-0.156	0.005
-501.668	12.441	0.217	-0.167
-500.653	-91.960	0.116	-0.033
-499.639	-141.653	-0.210	-0.021
-498.624	228.817	-0.046	0.075
-497.610	-200.000	-0.007	-0.317
-496.595	352.334	0.030	0.060
-495.581	-65.838	0.130	0.052
-494.566	-200.000	0.012	0.144
-493.551	-113.521	-0.179	-0.035
-492.537	-16.242	-0.135	-0.086
-491.522	545.611	-0.099	0.237
-490.508	345.694	-0.036	0.071
-489.493	-134.831	-0.226	-0.027
-488.478	-200.000	0.013	-0.117
-487.464	17.790	-0.298	-0.237
-486.449	-200.000	0.035	0.322
-485.435	-119.850	-0.230	0.040
-484.420	-72.671	0.262	-0.097
-483.405	-8.141	-0.256	0.173
-482.391	2.735	0.136	-0.099
-481.376	1.068	0.232	0.167
-480.362	-69.421	-0.121	0.046
-479.347	-200.000	-0.006	0.197
-478.332	-52.206	-0.273	-0.127
-477.318	592.805	-0.039	-0.096
-476.303	-200.000	0.002	0.067
-475.289	35.171	0.147	-0.129
-474.274	-183.070	0.325	-0.006
-473.259	70.040	-0.026	0.027
-472.245	153.011	0.143	-0.196
-471.230	-148.232	-0.232	0.019
-470.216	424.403	-0.175	0.377
-469.201	-128.083	-0.143	0.021
-468.186	790.765	0.042	-0.116
-467.172	107.342	0.254	0.302
-466.157	-21.036	-0.137	-0.084
-465.143	-175.328	0.161	-0.004
-464.128	-25.892	0.251	0.148
-463.113	364.624	-0.112	0.226
-462.099	-45.116	0.392	0.195
-461.084	312.977	0.066	-0.124
-460.070	-129.324	-0.293	-0.041
-459.055	168.347	0.108	-0.154
-458.040	-200.000	-0.003	0.102
-457.026	-2.772	-0.099	-0.069
-456.011	-200.000	-0.038	-0.266
-454.997	-60.352	-0.117	-0.050
-453.982	-153.532	-0.316	0.022
-452.968	-94.127	0.253	-0.069
-451.953	218.128	0.055	0.089
-450.938	-61.291	-0.311	0.131
-449.924	-38.856	-0.141	-0.074
-448.909	-67.313	-0.196	0.077
-447.895	198.958	0.158	-0.242
-446.880	-26.137	0.052	-0.031
-445.865	92.718	0.242	-0.273
-444.851	476.950	-0.064	0.144
-443.836	140.100	0.112	0.147
-442.822	163.064	-0.114	0.160
-441.807	23.048	-0.262	-0.215
-440.792	161.288	-0.121	0.169
-439.778	-41.383	0.164	0.085
-438.763	-13.630	0.301	0.195
-437.749	-138.278	0.274	0.030
-436.734	146.494	0.114	0.154
-435.719	-49.692	-0.157	0.075
-434.705	68.273	-0.145	-0.149
-433.690	-120.599	0.277	-0.047
-432.676	-63.969	0.133	-0.054
-431.661	3.454	0.160	0.116
-430.646	-72.664	-0.285	0.105
-429.632	-87.201	0.138	0.042
-428.617	-117.578	0.046	0.008
-427.603	-26.883	-0.281	0.164
-426.588	-28.741	0.304	0.175
-425.573	-139.649	-0.269	-0.029
-424.559	279.822	-0.144	-0.257
-423.544	17.104	0.259	-0.205
-422.530	18.151	0.087	-0.069
-421.515	-117.337	0.091	0.017
-420.500	-200.000	-0.013	0.225
-419.486	-78.185	-0.351	-0.120
-418.471	800.000	0.081	0.228
-417.457	665.484	0.098	-0.254
-416.442	-3.036	0.317	-0.221
-415.428	800.000	-0.063	0.264
-414.413	29.923	-0.174	-0.148
-413.398	493.132	-0.111	0.254
-412.384	138.884	0.164	0.215
-411.369	402.364	-0.173	-0.363
-410.355	800.000	-0.029	-0.111
-409.340	72.671	-0.069	-0.072
-408.325	197.472	-0.077	-0.117
-407.311	158.811	0.048	-0.067
-406.296	-44.676	0.246	-0.123
-405.282	-135.866	0.151	-0.018
-404.267	-3.365	-0.203	0.141
-403.252	-83.104	0.202	0.065
-402.238	1.337	-0.136	0.097
-401.223	215.244	0.116	0.184
-400.209	445.635	-0.032	-0.070
-399.194	164.699	-0.158	-0.222
-398.179	-75.199	-0.155	-0.055
-397.165	-200.000	-0.026	-0.211
-396.150	28.690	-0.093	-0.078
-395.136	85.907	-0.069	0.076
-394.121	-117.428	-0.284	0.051
-393.106	-82.465	0.158	-0.051
-392.092	-200.000	-0.010	0.045
-391.077	215.143	-0.088	-0.139
-390.063	-200.000	0.015	-0.086
-389.048	-121.470	-0.105	-0.017
-388.033	388.598	0.108	0.223
-387.019	800.000	-0.066	0.220
-386.004	30.635	0.096	0.082
-384.990	-111.415	0.252	-0.051
-383.975	534.956	-0.067	-0.157
-382.960	-19.757	-0.134	-0.083
-381.946	72.151	-0.227	0.236
-380.931	-200.000	-0.033	0.181
-379.917	0.205	0.213	0.151
-378.902	-133.227	-0.302	0.038
-377.888	31.196	-0.178	0.153
-376.873	-200.000	-0.009	-0.142
-375.858	50.791	-0.057	0.053
-374.844	-91.238	-0.518	-0.148
-373.829	-200.000	0.024	0.162
-372.815	-123.481	0.394	0.063
-371.800	29.253	-0.241	0.204
-370.785	301.682	0.077	-0.141
-369.771	10.440	0.220	-0.167
-368.756	359.550	0.052	-0.104
-367.742	-77.225	-0.182	0.063
-366.727	800.000	-0.074	-0.284
-365.712	73.937	0.158	-0.165
-364.698	-200.000	0.003	-0.076
-363.683	14.237	0.196	0.153
-362.669	-100.736	0.362	0.089
-361.654	400.067	0.163	0.341
-360.639	800.000	0.043	0.184
-359.625	-200.000	0.022	0.356
-358.610	7.679	-0.307	0.229
-357.596	-97.909	0.106	0.027
-356.581	-44.140	-0.351	-0.175
-355.566	-5.547	-0.101	-0.069
-354.552	705.933	0.106	0.278
-353.537	-131.602	0.157	-0.021
-352.523	-101.321	-0.215	-0.052
-351.508	600.110	0.049	0.121
-350.493	209.316	-0.047	0.073
-349.479	-33.531	0.146	0.081
-348.464	-56.845	-0.127	-0.056
-347.450	-200.000	0.005	0.075
-346.435	-147.986	0.090	0.007
-345.420	-52.414	0.074	0.034
-344.406	60.859	0.174	0.172
-343.391	-117.989	0.313	0.056
-342.377	-35.898	0.150	0.081
-341.362	-9.618	0.082	-0.054
-340.348	-200.000	0.014	0.239
-339.333	800.000	0.056	-0.196
-338.318	100.776	-0.097	-0.112
-337.304	-200.000	0.029	-0.274
-336.289	-18.229	-0.484	-0.301
-335.275	-72.977	-0.266	-0.097
-334.260	325.112	-0.107	0.203
-333.245	-200.000	0.020	0.265
-332.231	-200.000	-0.008	0.281
-331.216	397.237	-0.123	-0.256
-330.202	-118.897	0.245	0.043
-329.187	-200.000	-0.036	-0.258
-328.172	107.570	0.095	0.112
-327.158	-200.000	0.023	0.480
-326.143	378.166	0.112	-0.228
-325.129	573.439	0.126	-0.306
-324.114	800.000	-0.081	-0.286
-323.099	-173.670	-0.104	-0.003
-322.085	800.000	-0.138	-0.441
-321.070	-200.000	0.003	0.018
-320.056	-200.000	-0.061	-0.296
-319.041	800.000	0.007	0.023
-318.026	800.000	-0.060	-0.179
-317.012	14.462	0.368	-0.285
-315.997	-200.000	-0.025	-0.391
-314.983	-39.871	0.206	0.107
-313.968	606.679	0.125	0.311
-312.953	13.671	-0.233	0.180
-311.939	-111.606	-0.149	-0.030
-310.924	-200.000	-0.210	-0.000
-309.910	-93.455	-0.228	0.063
-308.895	165.092	0.130	-0.183
-307.880	7.409	-0.325	0.242
-306.866	-128.245	-0.281	0.040
-305.851	-114.817	-0.286	-0.054
-304.837	-0.931	0.203	0.143
-303.822	310.888	-0.095	0.177
-302.807	789.586	0.078	-0.212
-301.793	-111.989	-0.093	0.019
-300.778	762.228	-0.114	-0.308
-299.764	-88.698	-0.206	-0.061
-298.749	21.055	0.244	-0.197
-297.735	59.163	-0.319	0.312
-296.720	189.415	0.029	0.043
-295.705	-74.492	0.182	0.065
-294.691	1.462	-0.272	-0.195
-293.676	800.000	0.010	0.041
-292.662	800.000	0.041	-0.152
-291.647	800.000	0.055	-0.163
-290.632	455.849	0.039	0.087
-289.618	-58.410	0.235	0.101
-288.603	5.824	-0.199	-0.147
-287.589	-200.000	-0.038	-0.165
-286.574	-200.000	-0.035	0.201
-285.559	800.000	0.060	-0.172
-284.545	-200.000	0.029	-0.412
-283.530	100.651	0.093	-0.107
-282.516	-75.351	-0.181	0.064
-281.501	-30.061	0.042	0.024
-280.486	-112.663	0.188	-0.037
-279.472	-180.264	0.251	0.005
-278.457	-193.592	0.083	-0.001
-277.443	737.384	-0.110	0.293
-276.428	530.365	0.111	0.261
-275.413	53.478	-0.098	0.093
-274.399	197.453	-0.212	-0.322
-273.384	-52.488	-0.175	0.080
-272.370	-60.681	-0.053	0.022
-271.355	484.101	0.061	0.138
-270.340	-55.612	0.063	0.028
-269.326	800.000	-0.038	0.137
-268.311	-27.228	-0.168	-0.097
-267.297	-13.602	-0.195	-0.126
-266.282	-53.313	0.171	0.078
-265.267	73.482	-0.119	0.124
-264.253	239.536	0.124	0.205
-263.238	203.856	-0.243	0.373
-262.224	613.700	0.015	0.037
-261.209	-15.425	-0.149	0.094
-260.195	800.000	0.044	0.144
-259.180	16.349	0.170	-0.133
-258.165	-200.000	0.006	-0.044
-257.151	-200.000	0.027	0.153
-256.136	147.925	0.053	-0.071
-255.122	-200.000	0.010	0.071
-254.107	-80.832	0.079	-0.026
-253.092	-180.192	0.127	-0.003
-252.078	106.110	0.110	-0.129
-251.063	-37.281	-0.157	-0.083
-250.049	42.974	0.279	-0.252
-249.034	800.000	0.098	-0.275
-248.019	800.000	-0.047	-0.130
-247.005	-22.069	-0.353	0.213
-245.990	-200.000	0.073	0.343
-244.976	66.160	-0.179	-0.180
-243.961	-123.268	0.438	0.070
-242.946	-19.166	-0.318	-0.196
-241.932	134.218	0.245	-0.315
-240.917	-83.342	0.190	0.060
-239.903	800.000	0.080	0.299
-238.888	-200.000	0.018	-0.094
-237.873	-63.831	0.198	-0.080
-236.859	-200.000	-0.086	-0.474
-235.844	14.472	0.307	-0.238
-234.830	47.075	0.166	-0.153
-233.815	-123.866	-0.186	0.029
-232.800	459.131	-0.092	-0.203
-231.786	-200.000	-0.021	0.463
-230.771	-65.217	-0.036	-0.014
-229.757	690.500	0.088	-0.228
-228.742	-70.915	0.540	0.202
-227.727	800.000	0.058	-0.230
-226.713	-145.155	-0.262	-0.024
-225.698	-200.000	0.016	0.457
-224.684	158.460	0.154	0.211
-223.669	-200.000	-0.004	0.051
-222.655	-71.329	0.148	-0.055
-221.640	479.053	0.065	-0.146
-220.625	565.445	-0.083	0.199
-219.611	-83.256	0.127	0.041
-218.596	261.328	-0.125	-0.214
-217.582	800.000	0.049	-0.167
-216.567	237.420	0.089	-0.147
-215.552	-49.649	0.273	-0.129
-214.538	364.785	0.060	-0.119
-213.523	-200.000	-0.071	0.349
-212.509	800.000	0.083	0.295
-211.494	6.681	0.246	0.181
-210.479	-200.000	0.094	-0.449
-209.465	-97.573	-0.227	0.058
-208.450	-200.000	0.023	0.247
-207.436	-200.000	0.033	0.203
-206.421	-48.968	0.296	-0.140
-205.406	-126.934	0.453	-0.066
-204.392	-200.000	-0.001	0.355
-203.377	800.000	0.020	-0.085
-202.363	-200.000	0.044	0.316
-201.348	3.827	-0.214	0.155
-200.333	155.433	0.364	-0.496
-199.319	119.987	-0.256	-0.314
-198.304	-38.139	-0.208	0.109
-197.290	800.000	0.060	0.197
-196.275	-74.277	0.400	0.143
-195.260	800.000	-0.118	-0.348
-194.246	96.421	0.206	-0.233
-193.231	355.624	-0.094	0.185
-192.217	360.501	-0.107	0.211
-191.202	-151.473	-0.129	-0.009
-190.187	282.806	-0.119	-0.211
-189.173	-19.270	0.513	-0.315
-188.158	-200.000	-0.002	-0.315
-187.144	800.000	-0.122	0.355
-186.129	-193.953	0.177	-0.001
-185.114	130.749	0.070	-0.089
-184.100	-10.856	-0.280	-0.183
-183.085	728.145	0.067	-0.176
-182.071	-184.075	-0.224	-0.004
-181.056	-73.881	0.128	0.046
-180.042	-47.599	-0.224	0.108
-179.027	255.132	-0.102	-0.172
-178.012	-200.000	0.018	-0.317
-176.998	-101.793	0.079	0.019
-175.983	-200.000	0.085	0.401
-174.969	92.963	-0.108	0.121
-173.954	90.071	0.294	0.326
-172.939	350.311	0.149	0.292
-171.925	19.063	-0.128	0.102
-170.910	-190.298	-0.133	-0.001
-169.896	74.544	0.036	0.037
-168.881	-200.000	0.015	0.149
-167.866	601.279	0.120	0.294
-166.852	-116.883	0.320	-0.058
-165.837	8.527	0.324	0.241
-164.823	77.486	-0.134	-0.141
-163.808	-17.550	-0.135	-0.084
-162.793	800.000	-0.031	-0.103
-161.779	11.706	-0.126	0.095
-160.764	-200.000	-0.029	-0.158
-159.750	-200.000	-0.014	0.138
-158.735	-65.683	0.186	0.074
-157.720	-43.336	-0.237	0.118
-156.706	-52.170	0.072	0.033
-155.691	83.529	-0.141	0.152
-154.677	410.166	0.046	-0.097
-153.662	21.134	-0.301	-0.241
-152.647	-105.320	-0.086	0.019
-151.633	130.757	-0.187	-0.237
-150.618	-21.951	0.347	0.209
-149.604	800.000	0.060	-0.184
-148.589	-57.757	0.079	-0.034
-147.574	800.000	0.070	-0.247
-146.560	55.721	0.221	0.212
-145.545	-36.861	0.121	-0.064
-144.531	1.127	-0.138	0.098
-143.516	21.124	0.281	0.225
-142.502	-200.000	0.009	0.157
-141.487	-27.225	-0.191	0.110
-140.472	-200.000	-0.009	-0.060
-139.458	800.000	0.098	-0.302
-138.443	463.905	0.092	0.202
-137.429	-145.944	-0.488	-0.043
-136.414	800.000	-0.072	-0.268
-135.399	233.312	0.125	0.204
-134.385	-43.463	0.132	0.066
-133.370	-6.957	0.318	0.214
-132.356	-44.818	-0.109	-0.054
-131.341	-52.436	0.080	0.036
-130.326	270.593	0.187	0.326
-129.312	-47.306	-0.225	0.108
-128.297	17.109	0.206	0.161
-127.283	240.763	0.027	0.044
-126.268	200.128	-0.114	0.173
-125.253	-200.000	0.025	-0.152
-124.239	18.467	-0.136	-0.108
-123.224	-200.000	0.011	-0.155
-122.210	-200.000	0.014	-0.286
-121.195	-4.935	0.351	0.239
-120.180	77.633	-0.178	-0.187
-119.166	-121.494	-0.224	0.037
-118.151	245.639	-0.172	0.287
-117.137	-183.994	0.241	-0.004
-116.122	-159.615	0.327	0.018
-115.107	-99.406	-0.161	0.040
-114.093	69.868	-0.177	-0.180
-113.078	121.231	0.140	-0.172
-112.064	-57.068	-0.112	0.049
-111.049	536.839	-0.036	0.085
-110.034	800.000	-0.085	0.353
-109.020	-200.000	0.067	0.380
-108.005	800.000	-0.113	-0.319
-106.991	-200.000	0.005	-0.237
-105.976	-23.064	0.231	-0.137
-104.962	800.000	-0.039	0.159
-103.947	57.103	-0.087	0.084
-102.932	-25.671	0.212	-0.123
-101.918	103.856	0.181	0.210
-100.903	201.639	-0.162	-0.246
-99.889	-152.786	-0.137	-0.010
-98.874	440.494	0.043	-0.092
-97.859	-83.141	0.177	-0.056
-96.845	-155.588	0.194	-0.012
-95.830	-179.463	0.386	0.008
-94.816	800.000	-0.064	0.193
-93.801	100.899	-0.145	-0.166
-92.786	631.491	-0.150	0.374
-91.772	126.403	-0.080	0.099
-90.757	-157.990	0.471	0.027
-89.743	-200.000	0.019	0.118
-88.728	184.949	-0.032	0.046
-87.713	-200.000	0.014	0.215
-86.699	94.660	-0.104	-0.116
-85.684	334.778	-0.207	-0.396
-84.670	62.959	-0.041	-0.040
-83.655	-49.318	0.101	0.047
-82.640	-156.670	0.343	-0.021
-81.626	763.459	-0.081	-0.216
-80.611	-200.000	-0.007	0.298
-79.597	78.760	-0.080	-0.084
-78.582	32.452	0.145	0.124
-77.567	800.000	-0.100	0.366
-76.553	543.324	-0.170	0.400
-75.538	701.552	-0.080	-0.208
-74.524	-200.000	0.004	0.075
-73.509	383.251	0.037	-0.074
-72.494	-200.000	0.049	-0.240
-71.480	-200.000	-0.004	-0.144
-70.465	-2.631	-0.259	0.178
-69.451	281.562	0.042	-0.074
-68.436	-162.383	-0.148	-0.007
-67.422	-160.750	0.446	-0.023
-66.407	-120.613	0.328	0.055
-65.392	-79.269	0.162	-0.054
-64.378	-179.809	-0.293	-0.006
-63.363	-89.645	0.141	0.041
-62.349	-200.000	-0.001	0.336
-61.334	13.083	-1.024	-0.781
-60.319	-21.997	0.355	0.213
-59.305	395.417	-0.467	-0.960
-58.290	172.773	0.780	1.107
-57.276	508.003	0.727	1.663
-56.261	-200.000	95.922	547.120
-55.246	507.613	1419.410	3243.494
-54.232	145.212	2652.715	3495.268
-53.217	104.547	2351.332	2726.630
-52.203	43.829	1956.846	1764.237
-51.188	37.712	1742.303	1523.099
-50.173	34.981	1697.243	1462.806
-49.159	50.543	1743.977	1624.018
-48.144	53.216	1761.871	1661.346
-47.130	37.387	1718.922	1499.916
-46.115	34.633	1703.758	1465.518
-45.100	34.449	1698.752	1459.744
-44.086	34.407	1696.408	1457.352
-43.071	34.386	1693.169	1454.355
-42.057	34.377	1690.648	1452.061
-41.042	34.430	1688.912	1450.911
-40.027	34.421	1686.808	1448.984
-39.013	34.431	1684.701	1447.191
-37.998	34.340	1683.245	1445.192
-36.984	34.352	1681.809	1443.994
-35.969	34.454	1680.007	1443.157
-34.954	34.572	1678.584	1442.771
-33.940	34.576	1676.128	1440.634
-32.925	34.496	1674.656	1438.708
-31.911	34.538	1673.024	1437.565
-30.896	34.520	1670.774	1435.441
-29.881	34.500	1669.284	1433.951
-28.867	34.545	1667.978	1433.109
-27.852	34.505	1666.065	1431.113
-26.838	34.546	1664.451	1429.972
-25.823	34.608	1663.629	1429.679
-24.809	34.480	1662.197	1427.431
-23.794	34.558	1660.414	1426.426
-22.779	34.534	1659.145	1425.102
-21.765	34.594	1657.142	1423.769
-20.750	34.563	1655.827	1422.352
-19.736	34.584	1654.296	1421.137
-18.721	34.631	1652.646	1420.012
-17.706	34.634	1650.871	1418.456
-16.692	34.528	1649.266	1416.231
-15.677	34.487	1648.193	1414.953
-14.663	34.594	1646.334	1414.092
-13.648	34.513	1645.460	1412.682
-12.633	34.572	1643.617	1411.486
-11.619	34.606	1642.503	1410.724
-10.604	34.552	1640.485	1408.533
-9.590	34.585	1638.965	1407.413
-8.575	34.659	1637.511	1406.660
-7.560	34.544	1636.649	1405.015
-6.546	34.578	1635.491	1404.212
-5.531	34.536	1634.527	1403.019
-4.517	34.574	1632.984	1401.918
-3.502	34.593	1631.632	1400.846
-2.487	34.681	1630.525	1400.487
-1.473	34.431	1618.956	1388.675
-0.458	31.505	1598.075	1349.630
0.556	26.014	1597.519	1311.705
1.571	23.046	1620.493	1308.517
2.586	21.979	1632.790	1310.372
3.600	19.626	1579.674	1250.620
4.615	11.155	1465.246	1102.799
5.629	2.643	1396.365	995.757
6.644	0.813	1387.471	977.508
7.659	0.638	1385.630	974.992
8.673	0.585	1385.014	974.130
9.688	0.574	1382.671	972.329
10.702	0.500	1380.170	970.006
11.717	4.138	1386.454	997.793
12.731	12.741	1400.405	1063.500
13.746	17.545	1406.254	1098.925
14.761	17.496	1404.239	1096.936
15.775	16.596	1402.195	1089.447
16.790	15.693	1399.175	1081.203
17.804	14.814	1397.104	1073.860
18.819	14.554	1395.315	1070.721
19.834	14.203	1394.084	1067.428
20.848	13.843	1392.939	1064.153
21.863	13.605	1391.610	1061.519
22.877	13.405	1390.593	1059.364
23.892	13.417	1389.262	1058.337
24.907	13.328	1388.801	1057.320
25.921	13.330	1388.059	1056.675
26.936	13.479	1386.777	1056.560
27.950	13.437	1386.377	1055.891
28.965	13.459	1385.432	1055.221
29.980	13.595	1384.166	1055.029
30.994	13.521	1383.550	1053.993
32.009	13.663	1382.093	1053.691
33.023	13.624	1381.315	1052.761
34.038	13.610	1379.711	1051.356
35.053	13.566	1378.200	1049.834
36.067	13.571	1377.384	1049.149
37.082	13.551	1376.347	1048.142
38.096	13.615	1375.216	1047.590
39.111	13.604	1374.959	1047.235
40.126	13.470	1374.166	1045.687
41.140	13.509	1373.004	1044.961
42.155	13.433	1372.311	1043.857
43.169	13.373	1372.427	1043.478
44.184	13.348	1372.276	1043.113
45.199	13.391	1371.612	1042.783
46.213	13.484	1370.764	1042.632
47.228	13.504	1369.959	1042.058
48.242	13.531	1368.963	1041.377
49.257	13.551	1367.387	1040.208
50.271	13.549	1366.049	1039.086
51.286	13.604	1364.778	1038.371
52.301	13.526	1363.387	1036.735
53.315	13.459	1362.411	1035.482
54.330	13.506	1361.256	1034.806
55.344	13.382	1360.270	1033.190
56.359	13.467	1358.989	1032.656
57.374	13.426	1358.163	1031.680
58.388	13.424	1357.070	1030.746
59.403	13.331	1357.127	1030.121
60.417	13.407	1356.201	1029.799
61.432	13.384	1355.043	1028.687
62.447	13.328	1354.094	1027.529
63.461	13.274	1353.229	1026.443
64.476	13.239	1352.151	1025.322
65.490	13.369	1350.543	1024.817
66.505	13.276	1349.347	1023.242
67.520	13.239	1347.865	1021.801
68.534	13.418	1346.813	1022.019
69.549	13.342	1345.826	1020.708
70.563	13.387	1344.580	1019.948
71.578	13.225	1343.780	1018.253
72.593	13.319	1342.594	1017.846
73.607	13.221	1341.573	1016.380
74.622	13.280	1340.837	1016.094
75.636	13.298	1339.996	1015.473
76.651	13.320	1339.511	1015.154
77.666	13.303	1339.326	1014.817
78.680	13.315	1338.542	1014.209
79.695	13.315	1337.362	1013.222
80.709	13.293	1336.630	1012.448
81.724	13.353	1336.024	1012.263
82.739	13.412	1335.306	1011.990
83.753	13.534	1333.686	1011.417
84.768	13.385	1333.004	1009.903
85.782	13.531	1331.881	1009.854
86.797	13.505	1330.369	1008.462
87.812	13.474	1329.080	1007.204
88.826	13.438	1328.090	1006.144
89.841	13.438	1327.258	1005.427
90.855	13.568	1325.826	1005.039
91.870	13.475	1325.241	1003.947
92.884	13.553	1324.239	1003.568
93.899	13.630	1323.622	1003.479
94.914	13.763	1322.311	1003.199
95.928	13.617	1321.467	1001.591
96.943	13.620	1320.323	1000.652
97.957	13.540	1319.717	999.619
98.972	13.613	1318.555	999.092
99.987	13.635	1317.389	998.253
101.001	13.514	1316.735	996.942
102.016	13.480	1316.214	996.255
103.030	13.619	1314.570	995.760
104.045	13.532	1313.937	994.667
105.060	13.531	1312.996	993.862
106.074	13.522	1311.365	992.487
107.089	13.402	1310.104	990.724
108.103	13.450	1308.477	989.695
109.118	13.403	1307.394	988.505
110.133	13.447	1305.993	987.620
111.147	13.482	1304.725	986.783
112.162	13.411	1303.555	985.387
113.176	13.428	1302.669	984.731
114.191	13.521	1301.476	984.299
115.206	13.499	1300.502	983.344
116.220	13.485	1298.855	981.929
117.235	13.434	1298.181	981.029
118.249	13.366	1297.679	980.161
119.264	13.392	1296.319	979.199
120.279	13.458	1295.511	978.890
121.293	13.392	1294.139	977.380
122.308	13.501	1292.790	976.920
123.322	13.388	1291.867	975.467
124.337	13.359	1291.027	974.578
125.352	13.325	1290.078	973.573
126.366	13.423	1288.748	973.058
127.381	13.374	1287.667	971.870
128.395	13.533	1286.221	971.627
129.410	13.475	1285.665	970.778
130.424	13.538	1285.208	970.717
131.439	13.426	1284.276	969.272
132.454	13.531	1282.939	968.794
133.468	13.527	1281.680	967.730
134.483	13.553	1281.340	967.540
135.497	13.498	1280.383	966.414
136.512	13.482	1279.211	965.346
137.527	13.463	1277.768	964.060
138.541	13.552	1276.023	963.181
139.556	13.588	1274.369	962.056
140.570	13.549	1273.833	961.340
141.585	13.549	1272.470	960.224
142.600	13.549	1271.231	959.203
143.614	13.740	1270.415	959.611
144.629	13.727	1268.766	958.203
145.643	13.632	1267.824	956.857
146.658	13.600	1266.964	955.943
147.673	13.651	1265.375	954.949
148.687	13.537	1264.487	953.538
149.702	13.671	1262.585	952.791
150.716	13.702	1261.706	952.225
151.731	13.582	1260.296	950.384
152.746	13.684	1259.022	949.927
153.760	13.659	1257.697	948.699
154.775	13.691	1256.847	948.154
155.789	13.703	1255.570	947.180
156.804	13.628	1255.001	946.236
157.819	13.771	1253.659	945.958
158.833	13.707	1252.625	944.725
159.848	13.808	1251.834	944.624
160.862	13.908	1250.356	943.994
161.877	13.786	1249.587	942.637
162.892	13.712	1248.884	941.598
163.906	13.703	1247.745	940.610
164.921	13.729	1246.696	939.882
165.935	13.675	1246.356	939.234
166.950	13.771	1245.244	938.860
167.964	13.809	1244.217	938.215
168.979	13.601	1244.411	937.100
169.994	13.781	1243.110	937.059
171.008	13.787	1242.202	936.321
172.023	13.796	1241.376	935.668
173.037	13.864	1240.597	935.379
174.052	13.878	1239.627	934.645
175.067	13.893	1237.943	933.376
176.081	13.790	1237.816	932.619
177.096	13.756	1236.847	931.618
178.110	13.872	1235.474	931.151
179.125	13.854	1234.111	929.939
180.140	13.891	1233.107	929.310
181.154	13.892	1231.800	928.249
182.169	13.967	1230.609	927.686
183.183	13.944	1229.278	926.474
184.198	13.998	1228.128	925.824
185.213	14.084	1226.892	925.289
186.227	14.064	1225.510	924.056
187.242	14.065	1224.972	923.575
188.256	14.067	1224.014	922.780
189.271	14.081	1222.849	921.897
190.286	14.050	1221.695	920.776
191.300	13.944	1220.717	919.373
192.315	13.901	1220.193	918.654
193.329	13.882	1219.555	917.992
194.344	14.007	1218.821	918.044
195.359	14.004	1218.093	917.401
196.373	14.150	1217.755	917.868
197.388	14.152	1217.421	917.549
198.402	14.121	1217.100	917.055
199.417	14.293	1215.985	917.082
200.432	14.282	1214.813	916.056
201.446	14.343	1214.148	915.805
202.461	14.385	1213.178	915.227
203.475	14.395	1212.436	914.637
204.490	14.350	1211.321	913.471
205.504	14.265	1210.319	912.167
206.519	14.230	1208.984	910.890
207.534	14.306	1207.842	910.366
208.548	14.324	1206.742	909.552
209.563	14.265	1205.825	908.457
210.577	14.207	1205.453	907.784
211.592	14.397	1203.983	907.633
212.607	14.421	1203.307	907.170
213.621	14.376	1202.736	906.415
214.636	14.464	1201.561	905.926
215.650	14.392	1201.130	905.131
216.665	14.363	1199.984	904.030
217.680	14.535	1199.065	904.193
218.694	14.466	1198.450	903.272
219.709	14.542	1197.283	902.726
220.723	14.521	1196.363	901.838
221.738	14.510	1195.647	901.157
222.753	14.453	1195.104	900.361
223.767	14.628	1194.102	900.472
224.782	14.582	1193.879	899.975
225.796	14.697	1193.029	899.877
226.811	14.631	1192.352	898.931
227.826	14.698	1191.439	898.521
228.840	14.666	1190.866	897.837
229.855	14.645	1190.306	897.223
230.869	14.502	1189.730	895.942
231.884	14.593	1188.637	895.531
232.899	14.530	1187.864	894.529
233.913	14.549	1186.828	893.770
234.928	14.580	1186.142	893.344
235.942	14.634	1185.048	892.728
236.957	14.578	1184.728	892.107
237.972	14.687	1183.925	892.005
238.986	14.612	1183.699	891.359
240.001	14.612	1182.837	890.630
241.015	14.680	1181.831	890.153
242.030	14.712	1180.719	889.410
243.045	14.689	1180.106	888.750
244.059	14.703	1179.665	888.413
245.074	14.715	1178.865	887.794
246.088	14.840	1177.950	887.687
247.103	14.755	1177.200	886.592
248.117	14.903	1176.140	886.502
249.132	14.929	1175.680	886.215
250.147	14.935	1174.647	885.390
251.161	15.107	1173.643	885.463
252.176	14.948	1173.276	884.267
253.190	14.984	1172.554	883.835
254.205	15.039	1172.063	883.680
255.220	15.170	1171.260	883.684
256.234	15.072	1170.522	882.532
257.249	15.139	1169.924	882.361
258.263	15.107	1169.106	881.497
259.278	15.181	1168.659	881.471
260.293	15.239	1167.975	881.182
261.307	15.238	1167.484	880.725
262.322	15.286	1166.566	880.209
263.336	15.297	1165.954	879.726
264.351	15.299	1165.475	879.295
265.366	15.246	1165.140	878.688
266.380	15.312	1164.535	878.500
267.395	15.382	1163.095	877.704
268.409	15.263	1162.624	876.649
269.424	15.155	1162.503	875.912
270.439	15.340	1161.886	876.339
271.453	15.267	1160.854	875.101
272.468	15.246	1159.635	873.994
273.482	15.240	1159.493	873.782
274.497	15.294	1158.727	873.406
275.512	15.233	1158.032	872.486
276.526	15.311	1157.239	872.221
277.541	15.321	1156.118	871.349
278.555	15.272	1155.528	870.570
279.570	15.363	1155.191	870.713
280.585	15.445	1154.264	870.364
281.599	15.520	1152.996	869.720
282.614	15.520	1152.136	868.992
283.628	15.379	1151.148	867.442
284.643	15.497	1149.905	867.040
285.657	15.561	1148.966	866.586
286.672	15.502	1148.643	865.957
287.687	15.588	1147.562	865.510
288.701	15.470	1147.175	864.532
289.716	15.560	1146.455	864.379
290.730	15.599	1145.306	863.635
291.745	15.681	1144.444	863.332
292.760	15.754	1143.458	862.887
293.774	15.759	1142.972	862.468
294.789	15.614	1142.979	861.652
295.803	15.701	1141.920	861.225
296.818	15.688	1141.459	860.735
297.833	15.617	1140.498	859.572
298.847	15.646	1139.717	859.052
299.862	15.777	1139.177	859.239
300.876	15.718	1138.504	858.353
301.891	15.795	1137.379	857.825
302.906	15.780	1136.874	857.288
303.920	15.845	1135.973	856.863
304.935	15.804	1135.409	856.156
305.949	15.878	1135.103	856.227
306.964	15.913	1134.457	855.841
307.979	15.852	1133.505	854.736
308.993	15.904	1132.708	854.326
310.008	15.955	1131.860	853.865
311.022	16.026	1131.104	853.580
312.037	15.942	1130.388	852.538
313.052	15.951	1129.224	851.634
314.066	15.966	1128.308	850.941
315.081	15.928	1127.730	850.237
316.095	15.965	1126.842	849.679
317.110	15.899	1126.323	848.879
318.125	15.969	1125.281	848.373
319.139	15.944	1124.480	847.567
320.154	16.003	1123.924	847.372
321.168	15.972	1123.351	846.706
322.183	16.055	1122.613	846.493
323.197	15.998	1121.770	845.500
324.212	16.033	1121.529	845.419
325.227	16.079	1120.827	845.045
326.241	16.041	1120.474	844.511
327.256	16.017	1119.578	843.641
328.270	16.028	1118.305	842.665
329.285	16.166	1117.456	842.638
330.300	16.042	1116.739	841.405
331.314	16.042	1115.559	840.440
332.329	16.127	1114.782	840.205
333.343	16.122	1113.738	839.316
334.358	16.119	1113.052	838.710
335.373	16.130	1112.576	838.332
336.387	16.188	1111.347	837.623
337.402	16.268	1110.649	837.418
338.416	16.272	1109.887	836.791
339.431	16.235	1109.401	836.165
340.446	16.392	1108.599	836.262
341.460	16.297	1108.040	835.301
342.475	16.441	1107.146	835.263
343.489	16.427	1106.048	834.293
344.504	16.346	1105.354	833.294
345.519	16.381	1104.562	832.794
346.533	16.416	1103.733	832.268
347.548	16.432	1102.678	831.481
348.562	16.468	1102.136	831.176
349.577	16.455	1101.868	830.836
350.592	16.463	1100.703	829.921
351.606	16.394	1099.997	828.976
352.621	16.467	1099.364	828.785
353.635	16.514	1098.342	828.170
354.650	16.449	1097.574	827.201
355.665	16.462	1097.449	827.098
356.679	16.533	1096.657	826.776
357.694	16.444	1096.544	826.179
358.708	16.562	1095.561	825.942
359.723	16.556	1095.055	825.459
360.738	16.553	1094.343	824.837
361.752	16.638	1093.668	824.666
362.767	16.553	1093.080	823.739
363.781	16.603	1092.379	823.379
364.796	16.701	1091.683	823.261
365.810	16.777	1090.814	822.900
366.825	16.676	1090.435	822.051
367.840	16.818	1090.315	822.577
368.854	16.831	1089.608	822.032
369.869	16.706	1088.715	820.682
370.883	16.840	1087.733	820.519
371.898	16.768	1086.989	819.536
372.913	16.778	1086.503	819.143
373.927	16.824	1085.869	818.816
374.942	16.850	1085.289	818.433
375.956	16.863	1084.903	818.132
376.971	16.933	1084.119	817.804
377.986	16.949	1083.397	817.263
379.000	16.967	1082.786	816.821
380.015	17.005	1082.655	816.833
381.029	17.099	1081.720	816.505
382.044	17.057	1080.898	815.612
383.059	17.127	1080.250	815.387
384.073	17.153	1079.313	814.730
385.088	17.097	1078.541	813.809
386.102	17.037	1077.858	812.932
387.117	17.126	1076.545	812.294
388.132	17.100	1075.352	811.201
389.146	17.197	1074.582	811.012
390.161	17.009	1074.653	810.093
391.175	16.987	1073.718	809.211
392.190	17.115	1073.018	809.226
393.205	17.132	1072.390	808.759
394.219	16.992	1071.905	807.654
395.234	17.135	1070.456	807.172
396.248	17.189	1069.337	806.516
397.263	17.075	1068.602	805.348
398.278	17.121	1068.076	805.098
399.292	17.077	1067.158	804.128
400.307	17.210	1066.468	804.164
401.321	17.133	1065.832	803.251
402.336	17.081	1065.186	802.448
403.350	17.214	1064.379	802.395
404.365	17.153	1063.695	801.522
405.380	17.176	1063.333	801.287
406.394	17.207	1062.572	800.787
407.409	17.432	1061.024	800.608
408.423	17.399	1060.658	800.105
409.438	17.340	1060.209	799.420
410.453	17.426	1059.256	799.032
411.467	17.444	1058.288	798.317
412.482	17.487	1058.095	798.301
413.496	17.413	1057.402	797.363
414.511	17.379	1056.767	796.653
415.526	17.625	1056.020	797.171
416.540	17.584	1055.963	796.865
417.555	17.447	1055.498	795.803
418.569	17.564	1054.876	795.810
419.584	17.604	1054.287	795.483
420.599	17.647	1053.466	794.992
421.613	100.096	1315.588	1447.201
422.628	92.279	1353.776	1447.326
