DTS Sentinel unit serial number:	SN413079Multiplexer serial number:	ORYXHardware model number:	OX4-SRSoftware version number:	ORYX F/W v4.00 Oryx Data Collector v3.7.2.0data status	okinstallation	princeton_trtdifferential loss correction	single-endedforward channel	channel 2reverse channel	N/Adate	2019/09/16time	08:31:34forward acquisition time	60.00reverse acquisition time	0.00gamma	496.2192k internal	0.2327k external	0.2327temperature offset calibration	0.9979default loss term (dB/km)	0.3790temperature slope calibration	1.0000multiplexer offset coefficient	1.0000multiplexer slope coefficient	1.0000fibre end	0.00T internal ref (°C)	29.31T ext. ref 1 (°C)	11.92T ext. ref 2 (°C)	25.90length (m)	temperature (°C)	Stokes	anti-Stokes-747.200	143.686	-0.041	-0.055
-746.185	-41.535	0.084	0.044
-745.171	-77.619	0.177	-0.062
-744.156	800.000	-0.074	0.277
-743.142	-92.644	0.138	-0.039
-742.127	94.839	-0.208	0.238
-741.112	-5.476	-0.180	-0.125
-740.098	36.288	-0.131	0.116
-739.083	-56.617	0.413	-0.184
-738.069	800.000	0.092	0.349
-737.054	-200.000	0.017	-0.155
-736.039	-7.363	-0.425	-0.290
-735.025	800.000	-0.083	0.287
-734.010	-97.462	-0.155	0.041
-732.996	-13.829	0.144	-0.094
-731.981	345.182	-0.061	0.120
-730.966	800.000	0.122	0.470
-729.952	-142.902	0.288	-0.028
-728.937	52.483	-0.135	0.130
-727.923	249.305	-0.167	0.285
-726.908	167.063	-0.277	0.397
-725.894	-133.338	0.267	0.034
-724.879	800.000	-0.130	-0.375
-723.864	800.000	-0.031	-0.103
-722.850	-57.659	0.270	0.119
-721.835	-79.978	-0.163	-0.055
-720.821	49.416	-0.028	-0.026
-719.806	-124.553	-0.065	0.010
-718.791	-117.238	0.056	0.010
-717.777	-200.000	-0.042	0.295
-716.762	-200.000	0.048	-0.328
-715.748	62.744	0.210	0.212
-714.733	19.732	0.171	-0.139
-713.718	89.913	-0.248	-0.279
-712.704	-200.000	-0.023	0.490
-711.689	-44.085	-0.258	0.130
-710.675	493.173	-0.070	-0.161
-709.660	-19.358	0.115	-0.072
-708.645	77.504	0.267	-0.286
-707.631	800.000	0.053	0.159
-706.616	-139.980	-0.408	0.043
-705.602	546.490	0.084	0.203
-704.587	34.522	-0.313	-0.275
-703.572	-200.000	-0.078	-0.416
-702.558	-85.095	0.305	-0.096
-701.543	-44.849	-0.208	-0.104
-700.529	192.186	-0.111	-0.168
-699.514	-200.000	0.120	-0.538
-698.499	800.000	-0.124	-0.348
-697.485	-200.000	-0.003	0.044
-696.470	-200.000	-0.006	0.168
-695.456	183.560	0.128	0.190
-694.441	58.159	-0.061	0.060
-693.426	800.000	-0.048	0.154
-692.412	-17.044	0.308	0.196
-691.397	-85.444	0.279	0.087
-690.383	-133.825	-0.198	-0.025
-689.368	-183.985	-0.219	0.004
-688.354	800.000	-0.035	0.127
-687.339	-158.331	0.456	-0.027
-686.324	-34.980	0.121	0.066
-685.310	-68.797	-0.241	-0.094
-684.295	-38.124	-0.344	0.183
-683.281	363.830	0.018	-0.036
-682.266	110.437	-0.177	0.214
-681.251	120.093	0.188	0.235
-680.237	304.645	-0.130	-0.243
-679.222	800.000	0.065	-0.234
-678.208	275.186	-0.114	-0.203
-677.193	-200.000	-0.062	-0.418
-676.178	-96.602	0.200	0.053
-675.164	-24.113	0.273	0.164
-674.149	796.743	-0.081	-0.224
-673.135	103.526	0.171	-0.202
-672.120	-200.000	0.004	0.123
-671.105	-60.778	0.276	-0.118
-670.091	-144.663	-0.287	-0.027
-669.076	-72.373	-0.173	-0.064
-668.062	-91.219	-0.235	-0.068
-667.047	-106.756	-0.177	0.039
-666.032	-14.517	-0.197	-0.127
-665.018	32.057	-0.120	0.104
-664.003	-112.601	-0.566	-0.113
-662.989	-200.000	-0.012	0.112
-661.974	247.541	-0.109	0.186
-660.959	159.308	-0.256	-0.357
-659.945	-76.889	-0.232	0.081
-658.930	61.894	0.046	-0.046
-657.916	-200.000	0.008	0.037
-656.901	-75.656	-0.138	0.049
-655.886	-56.613	-0.295	-0.131
-654.872	30.473	-0.171	-0.147
-653.857	-200.000	0.034	-0.176
-652.843	-193.328	0.171	-0.001
-651.828	-18.690	0.198	0.124
-650.814	-200.000	-0.012	0.315
-649.799	-200.000	-0.030	-0.166
-648.784	68.125	0.091	-0.094
-647.770	-19.824	-0.159	0.099
-646.755	-0.238	-0.062	0.045
-645.741	-134.154	-0.392	0.049
-644.726	290.771	0.073	0.133
-643.711	75.739	-0.212	-0.224
-642.697	460.668	0.069	-0.155
-641.682	-121.425	0.280	0.047
-640.668	43.037	-0.120	-0.110
-639.653	-145.289	-0.354	-0.032
-638.638	-200.000	-0.001	-0.340
-637.624	101.137	0.174	-0.204
-636.609	-0.843	0.113	-0.081
-635.595	253.907	-0.058	0.100
-634.580	46.883	-0.171	-0.160
-633.565	-120.058	0.416	0.072
-632.551	-200.000	-0.040	-0.285
-631.536	-71.555	-0.108	-0.040
-630.522	147.148	0.194	-0.262
-629.507	8.654	-0.294	-0.222
-628.492	641.323	-0.086	-0.220
-627.478	139.087	0.234	-0.309
-626.463	-1.697	-0.331	-0.234
-625.449	-200.000	0.005	0.174
-624.434	350.489	0.127	0.252
-623.419	-127.451	0.173	0.025
-622.405	39.125	0.089	0.080
-621.390	-86.199	-0.024	-0.007
-620.376	-189.146	-0.073	0.001
-619.361	-51.825	0.123	0.057
-618.346	-200.000	0.011	0.102
-617.332	-58.501	-0.379	0.165
-616.317	-75.492	0.118	-0.042
-615.303	466.972	0.102	0.229
-614.288	69.446	0.225	-0.232
-613.273	-8.340	-0.055	-0.037
-612.259	-1.727	0.047	-0.033
-611.244	112.781	0.103	-0.125
-610.230	-128.263	-0.222	0.032
-609.215	-200.000	0.050	-0.393
-608.201	-200.000	-0.027	0.149
-607.186	-200.000	-0.043	-0.235
-606.171	-129.088	0.467	0.066
-605.157	9.869	0.162	0.123
-604.142	96.554	-0.164	-0.189
-603.128	-110.194	0.346	0.072
-602.113	-0.259	-0.087	-0.062
-601.098	800.000	-0.021	-0.061
-600.084	-199.198	-0.252	-0.001
-599.069	-200.000	-0.048	-0.213
-598.055	118.328	-0.236	0.291
-597.040	-200.000	-0.002	-0.019
-596.025	-147.016	-0.076	-0.007
-595.011	134.266	0.058	-0.076
-593.996	-96.977	0.205	0.054
-592.982	-194.684	-0.235	0.002
-591.967	-29.414	-0.025	0.014
-590.952	-145.383	0.216	-0.020
-589.938	108.059	0.181	0.217
-588.923	122.538	-0.345	0.432
-587.909	-6.541	-0.226	0.155
-586.894	173.904	0.136	0.196
-585.879	61.290	-0.278	-0.277
-584.865	800.000	-0.069	-0.207
-583.850	51.661	-0.277	0.264
-582.836	3.305	-0.148	-0.108
-581.821	-76.036	0.063	-0.022
-580.806	-82.564	0.228	-0.074
-579.792	-108.599	0.203	0.044
-578.777	502.096	-0.094	0.217
-577.763	800.000	0.037	-0.140
-576.748	55.906	0.094	-0.092
-575.733	-200.000	0.020	0.127
-574.719	-134.048	0.229	0.028
-573.704	118.054	-0.089	-0.110
-572.690	800.000	-0.047	0.157
-571.675	559.806	0.066	-0.159
-570.661	125.984	-0.120	0.152
-569.646	73.823	0.052	-0.054
-568.631	800.000	-0.097	0.416
-567.617	-37.809	-0.097	-0.052
-566.602	-200.000	0.001	-0.210
-565.588	-200.000	0.003	-0.158
-564.573	-144.706	0.200	-0.018
-563.558	-200.000	-0.022	0.161
-562.544	-200.000	-0.067	0.387
-561.529	2.168	0.332	-0.240
-560.515	42.717	-0.260	0.237
-559.500	-102.596	-0.131	0.031
-558.485	-72.611	0.244	-0.090
-557.471	-200.000	-0.000	-0.060
-556.456	-33.272	-0.316	0.175
-555.442	16.252	-0.147	-0.116
-554.427	-77.011	0.333	0.116
-553.412	-145.027	0.117	-0.011
-552.398	136.857	0.046	0.060
-551.383	-173.850	-0.150	0.004
-550.369	-42.067	0.230	-0.118
-549.354	-125.231	-0.269	0.041
-548.339	-98.669	0.314	0.080
-547.325	-200.000	-0.035	-0.390
-546.310	126.965	-0.131	0.166
-545.296	-200.000	-0.012	0.156
-544.281	-3.176	0.111	-0.077
-543.266	800.000	0.111	0.351
-542.252	-57.219	0.178	-0.079
-541.237	-200.000	0.011	-0.111
-540.223	-33.431	-0.084	0.046
-539.208	8.197	-0.152	-0.114
-538.193	800.000	-0.074	0.309
-537.179	156.880	0.118	-0.163
-536.164	-59.383	0.049	-0.021
-535.150	-200.000	-0.047	0.243
-534.135	-159.732	0.273	-0.015
-533.121	-104.579	-0.161	0.037
-532.106	-40.542	0.385	0.200
-531.091	-200.000	-0.012	-0.254
-530.077	-160.123	-0.206	-0.011
-529.062	45.844	-0.195	0.181
-528.048	-200.000	-0.011	-0.133
-527.033	39.672	0.235	-0.210
-526.018	16.341	-0.329	0.259
-525.004	180.872	-0.100	0.147
-523.989	-78.600	0.204	0.070
-522.975	-138.992	-0.312	0.034
-521.960	-200.000	0.027	-0.181
-520.945	146.545	0.167	0.224
-519.931	30.483	-0.143	0.122
-518.916	-126.067	-0.071	0.011
-517.902	-200.000	0.002	-0.156
-516.887	-200.000	-0.008	0.082
-515.872	-200.000	0.004	-0.051
-514.858	-112.034	0.525	-0.106
-513.843	416.067	0.100	-0.213
-512.829	563.598	0.026	0.062
-511.814	-119.867	0.152	0.026
-510.799	-44.848	0.284	-0.141
-509.785	49.284	-0.058	0.055
-508.770	-200.000	0.006	0.116
-507.756	43.824	0.141	-0.129
-506.741	-72.929	-0.381	-0.140
-505.726	800.000	-0.083	-0.289
-504.712	-200.000	0.006	0.036
-503.697	277.664	-0.117	-0.208
-502.683	39.195	-0.184	-0.164
-501.668	-163.338	-0.260	0.012
-500.653	220.410	0.133	0.213
-499.639	-72.366	-0.105	-0.039
-498.624	-16.813	-0.119	0.075
-497.610	-200.000	-0.047	0.233
-496.595	-80.813	-0.380	-0.126
-495.581	-1.405	0.226	-0.159
-494.566	359.527	-0.072	0.145
-493.551	-66.540	0.200	0.079
-492.537	-200.000	0.009	0.257
-491.522	207.325	0.105	0.163
-490.508	800.000	-0.042	-0.132
-489.493	-19.818	0.189	0.117
-488.478	202.368	-0.030	-0.046
-487.464	-152.658	-0.376	0.027
-486.449	-128.879	0.314	-0.044
-485.435	140.843	-0.095	-0.125
-484.420	800.000	0.079	0.279
-483.405	-138.497	-0.105	0.011
-482.391	474.348	-0.061	-0.138
-481.376	421.395	0.068	-0.145
-480.362	-190.530	0.067	0.001
-479.347	-200.000	0.003	0.190
-478.332	416.255	0.231	0.493
-477.318	-200.000	-0.194	0.001
-476.303	-43.533	-0.259	0.130
-475.289	19.836	-0.191	-0.153
-474.274	-138.859	-0.120	-0.013
-473.259	-130.736	0.148	0.020
-472.245	800.000	0.090	0.328
-471.230	348.419	-0.041	0.081
-470.216	-200.000	-0.017	-0.081
-469.201	227.896	0.033	-0.054
-468.186	-109.798	-0.185	0.039
-467.172	800.000	-0.069	-0.203
-466.157	72.224	0.143	-0.149
-465.143	-200.000	0.013	0.070
-464.128	-102.781	0.219	-0.052
-463.113	180.536	-0.093	0.136
-462.099	157.490	-0.053	-0.073
-461.084	-200.000	-0.017	-0.103
-460.070	85.851	0.285	-0.312
-459.055	209.189	-0.218	-0.341
-458.040	-98.386	0.337	0.086
-457.026	-200.000	0.012	0.274
-456.011	-79.904	-0.205	-0.069
-454.997	800.000	0.054	-0.169
-453.982	-73.078	-0.080	-0.029
-452.968	-118.068	-0.411	0.073
-451.953	-158.623	0.103	0.006
-450.938	100.143	0.223	0.257
-449.924	40.126	-0.124	0.112
-448.909	-200.000	-0.443	0.001
-447.895	26.551	0.151	-0.126
-446.880	-9.878	-0.262	0.174
-445.865	-200.000	0.025	-0.127
-444.851	-110.329	-0.324	-0.067
-443.836	113.825	0.172	-0.208
-442.822	-138.892	0.247	-0.027
-441.807	-200.000	-0.023	0.315
-440.792	343.256	-0.034	-0.066
-439.778	800.000	0.036	-0.123
-438.763	800.000	-0.053	0.148
-437.749	-200.000	-0.002	-0.267
-436.734	-113.751	0.316	-0.061
-435.719	491.415	-0.120	-0.273
-434.705	-38.856	0.206	-0.108
-433.690	-61.528	0.118	0.049
-432.676	-59.054	-0.296	0.127
-431.661	-95.647	-0.124	0.033
-430.646	-200.000	-0.028	-0.187
-429.632	-200.000	-0.016	0.253
-428.617	-26.703	0.182	0.106
-427.603	-200.000	0.083	0.420
-426.588	114.952	-0.132	-0.160
-425.573	-135.159	-0.321	0.038
-424.559	-112.532	-0.081	-0.016
-423.544	236.957	-0.014	-0.023
-422.530	-161.616	-0.327	-0.017
-421.515	180.459	0.084	0.123
-420.500	8.552	-0.048	0.036
-419.486	-91.218	-0.229	-0.065
-418.471	-78.610	0.261	0.089
-417.457	103.755	-0.242	0.283
-416.442	109.536	-0.076	0.091
-415.428	-200.000	-0.037	0.165
-414.413	-154.852	0.078	0.005
-413.398	53.094	-0.029	0.028
-412.384	-73.219	0.195	-0.071
-411.369	-200.000	-0.037	-0.376
-410.355	800.000	0.033	-0.093
-409.340	598.698	0.207	0.510
-408.325	180.416	-0.085	-0.124
-407.311	102.541	-0.166	-0.193
-406.296	258.386	0.113	0.194
-405.282	-153.097	0.227	-0.016
-404.267	-200.000	0.016	-0.110
-403.252	-4.844	0.295	-0.202
-402.238	-200.000	0.059	0.265
-401.223	18.390	0.205	-0.163
-400.209	-125.404	-0.046	0.007
-399.194	49.975	-0.145	0.136
-398.179	800.000	-0.095	0.335
-397.165	43.950	0.058	0.053
-396.150	-100.021	-0.324	-0.080
-395.136	78.079	-0.257	0.273
-394.121	376.745	0.088	-0.178
-393.106	-85.199	-0.149	0.046
-392.092	-95.032	0.066	0.018
-391.077	-18.159	-0.182	0.113
-390.063	520.615	0.069	-0.161
-389.048	293.749	-0.100	-0.182
-388.033	259.703	0.162	-0.278
-387.019	473.207	0.055	0.124
-386.004	308.087	0.108	-0.201
-384.990	-200.000	0.067	-0.297
-383.975	-12.684	0.152	0.098
-382.960	800.000	0.051	-0.186
-381.946	-9.939	0.114	-0.076
-380.931	-21.806	0.133	-0.080
-379.917	800.000	-0.012	-0.041
-378.902	800.000	-0.089	0.247
-377.888	-42.280	-0.124	0.063
-376.873	-130.623	-0.082	-0.011
-375.858	-134.051	0.194	0.024
-374.844	582.391	0.080	0.194
-373.829	626.332	-0.110	0.275
-372.815	7.295	0.064	-0.048
-371.800	-145.517	-0.227	-0.020
-370.785	-139.001	-0.197	-0.021
-369.771	-139.094	0.253	-0.027
-368.756	57.820	-0.118	0.115
-367.742	694.919	-0.090	-0.236
-366.727	22.536	-0.338	0.274
-365.712	-64.671	-0.096	-0.039
-364.698	-35.105	-0.227	0.123
-363.683	-116.280	0.049	0.009
-362.669	800.000	-0.053	-0.184
-361.654	800.000	0.124	-0.419
-360.639	-139.487	-0.113	-0.012
-359.625	800.000	-0.087	0.373
-358.610	127.755	0.101	0.128
-357.596	-127.200	0.177	0.026
-356.581	31.215	-0.151	0.129
-355.566	217.711	0.108	-0.171
-354.552	-200.000	0.009	-0.055
-353.537	190.307	-0.092	0.137
-352.523	-9.063	-0.118	-0.078
-351.508	188.521	0.138	-0.205
-350.493	-86.955	-0.142	-0.043
-349.479	240.430	-0.095	-0.157
-348.464	-200.000	0.041	-0.185
-347.450	-16.578	-0.327	0.206
-346.435	-92.230	-0.070	-0.020
-345.420	-119.941	0.316	-0.054
-344.406	-200.000	0.010	-0.275
-343.391	18.406	-0.161	-0.128
-342.377	-51.111	-0.226	0.105
-341.362	-200.000	0.004	-0.054
-340.348	800.000	-0.111	0.394
-339.333	515.153	-0.140	0.325
-338.318	-47.965	-0.102	0.049
-337.304	-78.625	0.075	0.025
-336.289	128.588	0.164	-0.207
-335.275	269.834	-0.054	-0.095
-334.260	-112.436	0.417	-0.083
-333.245	-107.595	0.369	0.080
-332.231	-67.110	0.149	0.058
-331.216	73.311	-0.267	-0.277
-330.202	-119.207	-0.206	-0.036
-329.187	467.547	0.003	0.007
-328.172	-113.656	-0.106	0.020
-327.158	690.502	-0.013	-0.033
-326.143	-164.747	-0.043	-0.002
-325.129	-200.000	-0.034	-0.156
-324.114	-200.000	0.003	-0.303
-323.099	-196.954	0.195	0.001
-322.085	-200.000	-0.013	0.196
-321.070	242.752	0.089	-0.148
-320.056	40.995	0.093	-0.083
-319.041	-200.000	-0.067	-0.328
-318.026	-200.000	0.015	0.152
-317.012	-64.444	-0.244	0.098
-315.997	800.000	0.056	0.168
-314.983	-56.137	-0.257	-0.114
-313.968	313.647	-0.143	0.267
-312.953	-200.000	0.041	-0.238
-311.939	258.337	0.172	0.294
-310.924	-200.000	0.017	0.108
-309.910	122.701	-0.285	0.353
-308.895	-83.020	-0.269	0.086
-307.880	651.911	-0.105	0.268
-306.866	-151.426	0.120	-0.009
-305.851	-200.000	0.013	-0.210
-304.837	-59.229	0.070	-0.030
-303.822	31.462	-0.079	-0.067
-302.807	-200.000	0.027	-0.190
-301.793	93.765	-0.302	-0.339
-300.778	-24.757	-0.244	0.144
-299.764	-72.516	-0.460	-0.168
-298.749	-175.626	0.152	0.004
-297.735	-19.811	0.056	-0.035
-296.720	201.775	-0.216	-0.329
-295.705	-111.058	-0.020	0.004
-294.691	44.546	0.235	0.214
-293.676	-78.948	-0.052	-0.018
-292.662	583.818	-0.132	0.321
-291.647	36.833	0.218	0.191
-290.632	570.558	-0.056	-0.134
-289.618	-104.803	0.068	0.016
-288.603	-113.710	0.182	0.035
-287.589	-48.152	0.332	-0.159
-286.574	800.000	-0.034	0.143
-285.559	184.005	0.055	0.080
-284.545	-200.000	-0.037	0.266
-283.530	-153.871	-0.164	-0.011
-282.516	-200.000	0.028	-0.176
-281.501	-23.104	0.085	-0.051
-280.486	32.023	0.065	-0.055
-279.472	-31.865	-0.261	-0.145
-278.457	143.549	-0.156	-0.205
-277.443	-69.925	-0.072	0.027
-276.428	800.000	0.031	-0.096
-275.413	76.331	-0.066	0.069
-274.399	500.150	-0.017	-0.039
-273.384	800.000	0.106	-0.420
-272.370	37.066	0.083	0.072
-271.355	-172.896	-0.276	-0.008
-270.340	-108.485	0.198	0.042
-269.326	-200.000	-0.019	0.195
-268.311	91.664	-0.178	-0.198
-267.297	73.985	-0.132	-0.137
-266.282	-109.471	0.399	0.083
-265.267	26.764	0.050	-0.041
-264.253	-101.345	-0.284	-0.069
-263.238	-200.000	0.100	-0.462
-262.224	665.940	0.075	0.192
-261.209	230.368	0.180	0.290
-260.195	800.000	0.087	0.338
-259.180	-200.000	0.033	0.476
-258.165	-47.712	0.116	-0.056
-257.151	-89.096	0.280	0.082
-256.136	247.490	-0.059	-0.098
-255.122	-200.000	0.025	-0.292
-254.107	-200.000	-0.058	-0.464
-253.092	-200.000	0.007	0.042
-252.078	688.205	-0.022	-0.057
-251.063	157.141	-0.055	-0.075
-250.049	-200.000	-0.019	0.150
-249.034	-56.756	0.378	0.165
-248.019	514.611	-0.142	0.327
-247.005	-154.331	0.085	-0.006
-245.990	-140.325	-0.065	0.007
-244.976	-109.607	0.253	0.053
-243.961	95.099	0.277	0.312
-242.946	-200.000	-0.012	-0.260
-241.932	82.202	0.350	-0.375
-240.917	-200.000	-0.000	-0.307
-239.903	32.351	-0.272	-0.232
-238.888	-160.419	0.126	-0.007
-237.873	-25.071	0.358	-0.210
-236.859	-54.224	0.177	0.079
-235.844	-80.033	0.232	-0.077
-234.830	445.833	-0.066	-0.144
-233.815	397.653	0.181	0.374
-232.800	126.050	-0.184	-0.230
-231.786	667.655	0.115	-0.294
-230.771	1.185	0.069	-0.049
-229.757	80.441	0.134	0.142
-228.742	345.106	-0.178	0.344
-227.727	-100.340	-0.176	-0.043
-226.713	-200.000	-0.176	0.001
-225.698	-200.000	0.027	0.130
-224.684	-71.857	-0.104	-0.038
-223.669	65.482	0.176	0.176
-222.655	-84.928	0.477	-0.148
-221.640	-9.630	-0.150	-0.099
-220.625	-135.282	0.228	-0.027
-219.611	65.604	-0.151	0.151
-218.596	36.752	0.058	-0.050
-217.582	-83.657	-0.293	-0.092
-216.567	-200.000	0.061	-0.431
-215.552	-200.000	-0.051	-0.319
-214.538	-11.977	0.188	-0.122
-213.523	-200.000	0.003	-0.098
-212.509	-151.013	-0.323	-0.024
-211.494	-3.530	0.167	0.115
-210.479	491.066	0.171	0.386
-209.465	-69.642	-0.540	-0.204
-208.450	-199.894	0.033	-0.000
-207.436	350.977	-0.061	-0.118
-206.421	-200.000	0.026	0.175
-205.406	402.311	-0.107	-0.222
-204.392	-200.000	0.030	0.239
-203.377	800.000	-0.057	-0.190
-202.363	402.874	0.159	0.331
-201.348	-135.226	0.380	0.045
-200.333	-41.118	-0.230	0.117
-199.319	375.540	-0.095	0.192
-198.304	591.490	0.063	0.155
-197.290	55.814	-0.034	0.032
-196.275	-200.000	0.026	-0.239
-195.260	125.853	-0.158	-0.197
-194.246	624.322	0.184	0.457
-193.231	-156.149	0.118	-0.007
-192.217	-50.607	0.137	-0.063
-191.202	218.489	-0.150	0.237
-190.187	372.574	0.086	-0.173
-189.173	269.962	0.135	0.234
-188.158	-100.273	0.039	-0.010
-187.144	800.000	0.030	-0.115
-186.129	800.000	-0.063	0.202
-185.114	-133.340	0.138	-0.017
-184.100	-75.824	-0.218	0.076
-183.085	-122.578	-0.385	-0.062
-182.071	-34.571	0.181	-0.098
-181.056	69.845	-0.116	0.118
-180.042	-146.670	0.222	0.019
-179.027	16.782	0.147	0.114
-178.012	800.000	0.095	-0.343
-176.998	800.000	0.099	-0.293
-175.983	274.422	0.064	0.112
-174.969	403.724	0.152	0.314
-173.954	-64.137	0.110	-0.044
-172.939	-39.454	0.010	-0.005
-171.925	-53.755	0.123	0.055
-170.910	98.166	0.102	0.116
-169.896	159.297	0.090	0.123
-168.881	460.545	0.110	0.243
-167.866	800.000	-0.043	0.179
-166.852	-165.004	0.275	0.012
-165.837	29.651	0.286	0.240
-164.823	575.584	-0.134	0.322
-163.808	-200.000	0.050	-0.308
-162.793	27.207	0.451	0.373
-161.779	537.261	0.061	-0.143
-160.764	-85.852	-0.167	0.051
-159.750	131.261	0.016	-0.020
-158.735	44.303	-0.142	0.129
-157.720	-20.618	-0.121	-0.073
-156.706	-52.398	-0.085	-0.039
-155.691	-62.330	0.026	0.011
-154.677	161.617	-0.089	0.122
-153.662	95.669	0.235	-0.264
-152.647	231.376	-0.058	0.094
-151.633	-200.000	0.027	0.183
-150.618	-95.808	0.235	0.062
-149.604	68.196	0.141	0.142
-148.589	1.293	-0.346	-0.245
-147.574	304.932	0.084	-0.155
-146.560	-200.000	-0.014	0.166
-145.545	267.119	-0.157	-0.271
-144.531	800.000	0.057	0.190
-143.516	-77.394	0.085	0.029
-142.502	567.366	0.055	-0.131
-141.487	-134.205	-0.156	0.019
-140.472	34.439	-0.094	-0.081
-139.458	291.275	0.134	0.241
-138.443	144.000	-0.070	0.092
-137.429	32.996	0.051	0.044
-136.414	-200.000	-0.002	-0.280
-135.399	-98.589	-0.197	-0.050
-134.385	-78.428	0.207	-0.070
-133.370	-1.467	-0.107	-0.074
-132.356	-200.000	-0.027	-0.491
-131.341	291.313	-0.189	0.339
-130.326	-92.612	0.174	0.048
-129.312	-200.000	-0.049	0.253
-128.297	-200.000	-0.007	-0.146
-127.283	37.673	0.181	0.158
-126.268	-112.407	-0.109	0.021
-125.253	126.194	0.095	0.119
-124.239	-35.341	0.157	0.084
-123.224	-117.436	0.313	0.056
-122.210	-37.421	0.018	-0.010
-121.195	577.610	-0.148	-0.357
-120.180	-147.328	-0.116	-0.010
-119.166	-200.000	-0.002	0.284
-118.151	16.805	-0.094	-0.073
-117.137	-122.303	0.079	-0.013
-116.122	117.248	-0.245	-0.297
-115.107	-8.514	0.135	0.089
-114.093	94.477	0.269	0.300
-113.078	-123.119	0.415	-0.065
-112.064	237.902	-0.103	-0.168
-111.049	255.112	-0.151	0.255
-110.034	-17.643	0.030	0.019
-109.020	124.254	-0.131	0.162
-108.005	800.000	0.155	-0.455
-106.991	-1.729	0.277	0.192
-105.976	-149.591	0.261	0.020
-104.962	800.000	-0.031	-0.087
-103.947	-88.974	0.302	0.088
-102.932	80.730	-0.103	0.109
-101.918	-61.941	-0.094	-0.038
-100.903	-13.350	0.187	-0.120
-99.889	-60.548	0.075	-0.031
-98.874	83.521	-0.078	-0.084
-97.859	45.105	0.101	0.092
-96.845	8.814	0.202	0.150
-95.830	-88.220	-0.344	0.101
-94.816	-112.684	0.206	-0.040
-93.801	217.904	0.063	0.099
-92.786	-108.291	0.246	-0.052
-91.772	206.639	-0.094	-0.144
-90.757	800.000	-0.079	0.286
-89.743	83.226	0.222	0.238
-88.728	-169.708	0.176	-0.006
-87.713	-133.471	0.109	-0.013
-86.699	125.458	0.215	0.266
-85.684	84.563	-0.117	0.125
-84.670	800.000	0.047	-0.188
-83.655	80.907	0.254	0.270
-82.640	546.896	0.031	0.072
-81.626	-200.000	-0.020	0.093
-80.611	50.884	-0.187	-0.174
-79.597	142.700	0.293	-0.382
-78.582	800.000	-0.065	-0.258
-77.567	-200.000	0.016	0.232
-76.553	137.497	-0.251	0.322
-75.538	-98.915	0.173	-0.043
-74.524	157.381	-0.058	-0.079
-73.509	276.702	0.084	-0.146
-72.494	-13.458	-0.047	0.030
-71.480	-178.263	0.293	-0.007
-70.465	126.670	0.196	-0.243
-69.451	263.319	0.054	0.092
-68.436	-162.539	-0.218	-0.011
-67.422	43.522	-0.193	0.173
-66.407	-200.000	-0.004	-0.387
-65.392	-127.439	0.057	0.008
-64.378	69.311	0.050	-0.050
-63.363	-114.576	0.299	-0.056
-62.349	23.355	-0.268	0.216
-61.334	10.566	-1.232	-0.922
-60.319	800.000	0.131	0.509
-59.305	-200.000	-0.253	-1.337
-58.290	197.792	0.633	0.949
-57.276	800.000	0.401	1.174
-56.261	-200.000	105.716	573.790
-55.246	444.944	1469.899	3166.947
-54.232	145.849	2674.269	3518.149
-53.217	99.676	2305.132	2618.727
-52.203	38.333	1914.992	1673.816
-51.188	32.415	1702.423	1442.750
-50.173	29.879	1658.624	1386.601
-49.159	48.602	1711.127	1573.445
-48.144	48.638	1726.921	1588.179
-47.130	32.104	1684.729	1425.164
-46.115	29.394	1670.716	1392.827
-45.100	29.265	1666.049	1387.912
-44.086	29.154	1663.043	1384.519
-43.071	29.203	1659.799	1382.129
-42.057	29.157	1657.603	1379.904
-41.042	29.123	1655.974	1378.237
-40.027	29.194	1653.765	1376.874
-39.013	29.131	1651.902	1374.796
-37.998	29.189	1650.423	1373.947
-36.984	29.261	1649.044	1373.280
-35.969	29.349	1647.574	1372.657
-34.954	29.330	1646.044	1371.188
-33.940	29.325	1644.274	1369.619
-32.925	29.311	1642.638	1368.094
-31.911	29.330	1640.708	1366.574
-30.896	29.323	1639.086	1365.119
-29.881	29.336	1637.468	1363.812
-28.867	29.246	1635.590	1361.529
-27.852	29.285	1634.467	1360.827
-26.838	29.334	1632.468	1359.473
-25.823	29.397	1631.356	1358.954
-24.809	29.412	1630.378	1358.202
-23.794	29.291	1629.216	1356.289
-22.779	29.316	1627.365	1354.875
-21.765	29.291	1625.511	1353.091
-20.750	29.280	1624.057	1351.749
-19.736	29.338	1622.586	1350.898
-18.721	29.431	1620.962	1350.173
-17.706	29.292	1619.716	1348.065
-16.692	29.317	1618.025	1346.787
-15.677	29.359	1616.331	1345.626
-14.663	29.332	1615.335	1344.547
-13.648	29.386	1613.857	1343.661
-12.633	29.309	1612.704	1342.083
-11.619	29.324	1611.125	1340.830
-10.604	29.308	1609.776	1339.534
-9.590	29.289	1608.539	1338.315
-8.575	29.310	1607.140	1337.253
-7.560	29.402	1605.597	1336.577
-6.546	29.413	1604.454	1335.657
-5.531	29.308	1603.895	1334.376
-4.517	29.275	1602.707	1333.096
-3.502	29.329	1601.421	1332.365
-2.487	29.519	1599.013	1331.680
-1.473	29.340	1587.989	1321.166
-0.458	27.017	1570.135	1289.776
0.556	22.290	1572.167	1262.278
1.571	20.273	1597.029	1267.404
2.586	20.051	1609.738	1275.744
3.600	19.105	1560.030	1229.488
4.615	15.819	1459.693	1128.312
5.629	12.677	1402.429	1063.681
6.644	11.962	1395.451	1053.699
7.659	11.958	1394.102	1052.562
8.673	11.838	1392.921	1050.805
9.688	11.912	1390.802	1049.589
10.702	11.856	1388.054	1047.065
11.717	13.295	1390.369	1057.932
12.731	16.462	1395.665	1082.176
13.746	18.115	1397.507	1094.092
14.761	17.715	1395.230	1089.659
15.775	16.668	1392.829	1081.002
16.790	15.643	1389.972	1072.154
17.804	14.907	1387.610	1065.553
18.819	14.339	1386.318	1060.848
19.834	14.102	1384.679	1057.989
20.848	13.762	1383.584	1054.898
21.863	13.501	1382.803	1052.550
22.877	13.416	1381.087	1050.611
23.892	13.395	1379.781	1049.392
24.907	13.340	1379.622	1048.833
25.921	13.378	1378.662	1048.250
26.936	13.394	1377.462	1047.346
27.950	13.363	1376.693	1046.468
28.965	13.560	1375.221	1046.505
29.980	13.593	1374.132	1045.793
30.994	13.598	1372.780	1044.702
32.009	13.496	1372.135	1043.472
33.023	13.625	1370.762	1043.154
34.038	13.654	1368.878	1041.805
35.053	13.504	1368.231	1040.282
36.067	13.520	1366.807	1039.209
37.082	13.606	1365.542	1038.690
38.096	13.632	1364.497	1037.966
39.111	13.624	1364.004	1037.451
40.126	13.511	1363.144	1035.998
41.140	13.376	1362.447	1034.531
42.155	13.364	1361.397	1033.571
43.169	13.389	1361.177	1033.463
44.184	13.316	1361.473	1033.146
45.199	13.388	1360.659	1032.884
46.213	13.349	1360.313	1032.285
47.228	13.532	1359.099	1032.416
48.242	13.476	1357.847	1031.023
49.257	13.409	1356.131	1029.211
50.271	13.545	1354.594	1028.799
51.286	13.559	1353.458	1027.930
52.301	13.497	1352.213	1026.512
53.315	13.460	1351.163	1025.397
54.330	13.443	1349.854	1024.207
55.344	13.426	1348.704	1023.140
56.359	13.345	1348.087	1022.076
57.374	13.344	1347.554	1021.581
58.388	13.222	1346.747	1020.121
59.403	13.256	1345.962	1019.647
60.417	13.267	1345.532	1019.300
61.432	13.234	1344.512	1018.235
62.447	13.184	1343.901	1017.375
63.461	13.193	1342.313	1016.134
64.476	13.305	1340.991	1015.735
65.490	13.296	1338.944	1014.037
66.505	13.255	1337.879	1012.891
67.520	13.280	1337.099	1012.365
68.534	13.220	1336.238	1011.254
69.549	13.326	1335.197	1011.023
70.563	13.326	1333.796	1009.872
71.578	13.235	1332.974	1008.605
72.593	13.274	1331.655	1007.760
73.607	13.111	1331.057	1006.221
74.622	13.122	1330.585	1005.843
75.636	13.167	1329.544	1005.240
76.651	13.151	1328.957	1004.613
77.666	13.196	1328.313	1004.313
78.680	13.194	1328.313	1004.210
79.695	13.155	1327.092	1002.957
80.709	13.316	1325.717	1002.809
81.724	13.384	1325.314	1002.828
82.739	13.265	1324.955	1001.748
83.753	13.455	1323.930	1002.032
84.768	13.503	1322.690	1001.293
85.782	13.591	1321.396	1000.762
86.797	13.523	1320.474	999.565
87.812	13.499	1319.157	998.334
88.826	13.421	1318.060	996.942
89.841	13.584	1316.722	996.826
90.855	13.577	1315.848	996.034
91.870	13.520	1314.874	994.863
92.884	13.583	1313.977	994.476
93.899	13.538	1313.720	993.923
94.914	13.575	1312.561	993.180
95.928	13.644	1311.787	992.922
96.943	13.554	1310.945	991.653
97.957	13.547	1309.565	990.480
98.972	13.450	1309.077	989.447
99.987	13.585	1307.822	989.214
101.001	13.487	1307.257	988.117
102.016	13.458	1305.768	986.731
103.030	13.488	1304.602	985.938
104.045	13.487	1304.063	985.440
105.060	13.498	1303.051	984.651
106.074	13.476	1300.950	982.848
107.089	13.303	1300.098	981.091
108.103	13.261	1298.914	979.862
109.118	13.256	1297.546	978.714
110.133	13.363	1295.977	978.079
111.147	13.313	1294.682	976.718
112.162	13.375	1293.773	976.310
113.176	13.375	1292.833	975.513
114.191	13.458	1291.553	974.953
115.206	13.445	1290.186	973.755
116.220	13.429	1288.697	972.453
117.235	13.364	1288.234	971.639
118.249	13.369	1286.725	970.441
119.264	13.337	1285.789	969.462
120.279	13.340	1284.177	968.180
121.293	13.356	1283.801	967.901
122.308	13.283	1282.622	966.500
123.322	13.242	1282.001	965.711
124.337	13.297	1280.627	964.911
125.352	13.342	1279.490	964.231
126.366	13.303	1278.387	963.083
127.381	13.329	1276.990	962.101
128.395	13.292	1276.308	961.287
129.410	13.354	1275.134	960.678
130.424	13.298	1274.597	959.860
131.439	13.374	1273.336	959.266
132.454	13.400	1272.505	958.710
133.468	13.423	1271.368	957.897
134.483	13.419	1270.604	957.215
135.497	13.425	1269.562	956.382
136.512	13.462	1268.354	955.598
137.527	13.469	1267.152	954.651
138.541	13.478	1265.661	953.493
139.556	13.433	1264.505	952.282
140.570	13.437	1263.609	951.545
141.585	13.607	1262.290	951.445
142.600	13.555	1260.980	950.070
143.614	13.607	1260.028	949.572
144.629	13.692	1258.828	949.071
145.643	13.609	1258.104	947.963
146.658	13.526	1256.533	946.219
147.673	13.582	1254.914	945.237
148.687	13.530	1254.013	944.179
149.702	13.463	1252.562	942.624
150.716	13.466	1251.223	941.548
151.731	13.484	1250.237	940.823
152.746	13.527	1249.192	940.198
153.760	13.605	1248.466	940.014
154.775	13.585	1247.290	938.930
155.789	13.720	1245.777	938.472
156.804	13.642	1244.851	937.249
157.819	13.651	1243.844	936.464
158.833	13.662	1243.136	935.907
159.848	13.704	1242.107	935.287
160.862	13.713	1241.059	934.462
161.877	13.665	1239.812	933.175
162.892	13.538	1238.723	931.559
163.906	13.717	1237.470	931.537
164.921	13.660	1236.904	930.712
165.935	13.655	1235.955	929.887
166.950	13.749	1235.240	929.793
167.964	13.708	1234.444	928.880
168.979	13.775	1233.453	928.425
169.994	13.766	1232.877	927.861
171.008	13.798	1231.900	927.222
172.023	13.767	1231.166	926.418
173.037	13.813	1230.618	926.178
174.052	13.713	1229.883	924.986
175.067	13.645	1228.753	923.672
176.081	13.754	1227.279	923.092
177.096	13.663	1226.599	921.993
178.110	13.761	1225.561	921.675
179.125	13.803	1223.820	920.518
180.140	13.826	1222.747	919.755
181.154	13.851	1221.808	919.106
182.169	13.876	1220.439	918.131
183.183	13.907	1219.381	917.427
184.198	13.894	1218.469	916.586
185.213	13.981	1216.882	915.792
186.227	14.023	1216.001	915.283
187.242	13.964	1215.224	914.288
188.256	13.999	1214.229	913.652
189.271	14.045	1213.627	913.373
190.286	13.934	1212.335	911.708
191.300	13.805	1211.610	910.374
192.315	13.748	1210.976	909.508
193.329	13.657	1210.257	908.388
194.344	13.866	1209.087	908.571
195.359	13.870	1208.963	908.419
196.373	13.994	1208.344	908.552
197.388	14.075	1208.023	908.672
198.402	14.008	1207.650	907.948
199.417	14.203	1206.683	908.206
200.432	14.223	1205.597	907.416
201.446	14.210	1205.135	906.915
202.461	14.346	1204.010	906.733
203.475	14.198	1203.283	905.295
204.490	14.207	1202.025	904.321
205.504	14.235	1200.736	903.421
206.519	14.148	1199.467	901.914
207.534	14.278	1197.908	901.368
208.548	14.251	1196.911	900.392
209.563	14.190	1196.810	899.908
210.577	14.173	1195.400	898.674
211.592	14.280	1194.664	898.617
212.607	14.272	1194.004	898.002
213.621	14.329	1193.264	897.670
214.636	14.384	1192.109	897.021
215.650	14.367	1191.285	896.227
216.665	14.320	1190.379	895.216
217.680	14.477	1189.398	895.241
218.694	14.459	1188.772	894.593
219.709	14.455	1188.096	893.983
220.723	14.361	1187.430	892.901
221.738	14.495	1186.743	893.021
222.753	14.529	1185.080	891.874
223.767	14.511	1184.919	891.578
224.782	14.566	1184.551	891.514
225.796	14.504	1183.754	890.506
226.811	14.598	1183.060	890.405
227.826	14.639	1181.716	889.534
228.840	14.494	1181.460	888.491
229.855	14.576	1180.592	888.197
230.869	14.546	1179.983	887.502
231.884	14.515	1179.077	886.573
232.899	14.545	1178.314	886.085
233.913	14.540	1177.700	885.517
234.928	14.496	1177.069	884.730
235.942	14.453	1176.157	883.738
236.957	14.401	1175.469	882.868
237.972	14.578	1174.643	883.107
238.986	14.472	1174.356	882.251
240.001	14.562	1173.034	881.653
241.015	14.663	1172.154	881.448
242.030	14.698	1171.248	880.873
243.045	14.641	1170.808	880.162
244.059	14.577	1169.869	879.043
245.074	14.707	1169.292	879.215
246.088	14.790	1168.313	878.842
247.103	14.808	1167.288	878.087
248.117	15.008	1166.463	878.439
249.132	14.966	1165.846	877.672
250.147	14.939	1165.190	876.961
251.161	14.949	1165.076	876.851
252.176	15.047	1163.952	876.439
253.190	14.987	1163.994	876.082
254.205	14.991	1163.171	875.403
255.220	15.009	1162.255	874.730
256.234	15.154	1161.605	874.923
257.249	15.043	1160.954	873.773
258.263	15.189	1160.312	873.974
259.278	15.111	1159.965	873.228
260.293	15.079	1159.211	872.420
261.307	15.240	1158.398	872.569
262.322	15.222	1157.728	871.894
263.336	15.256	1156.908	871.374
264.351	15.230	1156.740	871.036
265.366	15.273	1155.937	870.578
266.380	15.351	1154.718	869.989
267.395	15.380	1153.741	869.324
268.409	15.233	1153.350	868.191
269.424	15.252	1152.730	867.748
270.439	15.277	1152.211	867.407
271.453	15.261	1151.254	866.528
272.468	15.136	1150.832	865.490
273.482	15.117	1150.369	864.963
274.497	15.256	1149.590	865.022
275.512	15.245	1148.709	864.223
276.526	15.326	1147.932	863.979
277.541	15.398	1146.645	863.307
278.555	15.250	1146.441	862.316
279.570	15.354	1145.783	862.279
280.585	15.423	1144.952	861.930
281.599	15.418	1144.012	861.121
282.614	15.418	1142.664	860.029
283.628	15.355	1142.033	859.158
284.643	15.487	1140.975	858.959
285.657	15.416	1140.039	857.816
286.672	15.440	1139.142	857.185
287.687	15.476	1138.398	856.735
288.701	15.386	1137.582	855.589
289.716	15.493	1136.827	855.491
290.730	15.637	1135.690	855.292
291.745	15.487	1135.536	854.336
292.760	15.548	1134.851	854.055
293.774	15.610	1134.340	853.910
294.789	15.762	1133.529	853.994
295.803	15.679	1132.936	853.051
296.818	15.679	1132.180	852.408
297.833	15.525	1131.743	851.223
298.847	15.639	1130.734	850.967
299.862	15.709	1129.804	850.544
300.876	15.668	1129.261	849.854
301.891	15.737	1128.765	849.755
302.906	15.733	1128.146	849.192
303.920	15.729	1127.719	848.774
304.935	15.841	1126.934	848.674
305.949	15.907	1125.808	848.081
306.964	15.837	1125.246	847.232
307.979	15.819	1124.440	846.460
308.993	15.825	1123.792	845.926
310.008	16.002	1122.794	845.989
311.022	15.906	1122.225	845.003
312.037	15.804	1121.388	843.786
313.052	15.906	1120.396	843.476
314.066	15.928	1119.772	843.044
315.081	15.910	1118.487	841.912
316.095	15.962	1117.685	841.491
317.110	15.848	1117.118	840.422
318.125	16.074	1116.061	840.679
319.139	15.856	1116.280	839.681
320.154	15.905	1115.277	839.099
321.168	15.847	1114.490	838.144
322.183	15.783	1114.184	837.521
323.197	15.817	1113.648	837.211
324.212	15.814	1113.222	836.804
325.227	15.910	1112.486	836.655
326.241	15.921	1111.722	836.058
327.256	16.006	1110.512	835.499
328.270	15.947	1109.684	834.508
329.285	15.984	1108.811	833.959
330.300	16.004	1108.220	833.539
331.314	15.957	1106.944	832.277
332.329	15.859	1106.601	831.458
333.343	15.995	1105.624	831.324
334.358	16.032	1104.502	830.589
335.373	15.951	1103.868	829.640
336.387	16.087	1103.106	829.662
337.402	16.124	1102.071	828.993
338.416	16.184	1101.418	828.725
339.431	16.129	1101.022	828.083
340.446	16.232	1100.581	828.181
341.460	16.414	1099.564	828.235
342.475	16.256	1099.197	827.112
343.489	16.344	1097.718	826.356
344.504	16.419	1097.083	826.173
345.519	16.412	1096.052	825.290
346.533	16.429	1095.254	824.699
347.548	16.537	1094.629	824.682
348.562	16.380	1094.106	823.446
349.577	16.402	1093.104	822.731
350.592	16.384	1092.395	822.033
351.606	16.348	1091.509	821.121
352.621	16.441	1090.818	820.981
353.635	16.348	1090.295	820.064
354.650	16.313	1089.767	819.423
355.665	16.394	1088.628	818.884
356.679	16.525	1087.963	818.949
357.694	16.457	1087.995	818.568
358.708	16.445	1087.240	817.873
359.723	16.442	1086.639	817.331
360.738	16.490	1086.012	817.020
361.752	16.453	1085.528	816.405
362.767	16.609	1084.514	816.323
363.781	16.483	1083.927	815.203
364.796	16.564	1083.777	815.408
365.810	16.609	1083.119	815.057
366.825	16.762	1081.971	814.855
367.840	16.674	1082.252	814.573
368.854	16.733	1081.371	814.120
369.869	16.771	1080.386	813.490
370.883	16.675	1079.847	812.551
371.898	16.649	1079.196	811.863
372.913	16.667	1078.122	811.073
373.927	16.721	1077.975	811.150
374.942	16.823	1077.403	811.131
375.956	16.769	1076.786	810.341
376.971	16.943	1075.851	810.393
377.986	16.940	1075.153	809.783
379.000	16.955	1074.918	809.608
380.015	16.882	1074.110	808.579
381.029	17.007	1073.383	808.555
382.044	16.986	1072.889	808.009
383.059	16.917	1072.234	807.118
384.073	16.984	1071.248	806.625
385.088	17.083	1070.292	806.304
386.102	17.058	1069.768	805.715
387.117	17.118	1068.821	805.216
388.132	17.026	1067.840	803.970
389.146	16.871	1067.328	802.781
390.161	17.047	1066.234	802.717
391.175	17.044	1065.365	801.981
392.190	17.109	1064.581	801.624
393.205	17.099	1064.289	801.287
394.219	17.131	1063.412	800.705
395.234	17.096	1062.316	799.647
396.248	16.948	1061.586	798.331
397.263	16.975	1060.650	797.682
398.278	16.971	1060.229	797.275
399.292	16.941	1059.298	796.363
400.307	17.022	1058.328	795.945
401.321	17.096	1057.795	795.819
402.336	17.079	1057.182	795.211
403.350	17.033	1056.647	794.519
404.365	17.095	1055.731	794.054
405.380	17.109	1054.773	793.326
406.394	17.240	1054.049	793.323
407.409	17.210	1053.571	792.753
408.423	17.261	1052.834	792.367
409.438	17.301	1052.190	791.999
410.453	17.337	1051.501	791.577
411.467	17.296	1051.000	790.941
412.482	17.492	1050.366	791.303
413.496	17.479	1049.522	790.538
414.511	17.461	1048.917	789.926
415.526	17.529	1048.452	789.825
416.540	17.532	1047.713	789.211
417.555	17.642	1047.010	789.120
418.569	17.538	1046.740	788.367
419.584	17.599	1046.264	788.219
420.599	17.608	1045.780	787.824
421.613	103.449	1322.792	1470.236
422.628	95.102	1363.107	1470.334
