DTS Sentinel unit serial number:	SN413079Multiplexer serial number:	ORYXHardware model number:	OX4-SRSoftware version number:	ORYX F/W v4.00 Oryx Data Collector v3.7.2.0data status	okinstallation	princeton_trtdifferential loss correction	single-endedforward channel	channel 2reverse channel	N/Adate	2019/09/15time	12:39:34forward acquisition time	60.00reverse acquisition time	0.00gamma	496.2192k internal	0.2311k external	0.2311temperature offset calibration	1.0009default loss term (dB/km)	0.3790temperature slope calibration	1.0000multiplexer offset coefficient	1.0000multiplexer slope coefficient	1.0000fibre end	0.00T internal ref (°C)	35.53T ext. ref 1 (°C)	5.05T ext. ref 2 (°C)	33.54length (m)	temperature (°C)	Stokes	anti-Stokes-747.200	-200.000	0.052	0.368
-746.185	345.139	0.102	0.204
-745.171	-82.583	0.059	0.019
-744.156	-62.257	0.103	-0.043
-743.142	-103.696	0.368	-0.088
-742.127	-200.000	0.007	0.343
-741.112	253.710	0.274	-0.475
-740.098	-126.497	0.272	-0.041
-739.083	-171.978	0.356	0.012
-738.069	435.658	-0.240	0.529
-737.054	292.041	-0.117	0.216
-736.039	-74.087	0.098	-0.036
-735.025	-200.000	-0.040	0.264
-734.010	59.425	-0.050	0.050
-732.996	97.362	-0.056	-0.065
-731.981	21.385	-0.109	-0.090
-730.966	416.386	0.083	0.179
-729.952	-164.931	-0.206	0.009
-728.937	201.377	0.040	0.062
-727.923	263.870	-0.092	0.162
-726.908	27.178	-0.182	-0.155
-725.894	30.471	-0.087	0.075
-724.879	20.981	0.133	-0.109
-723.864	-62.004	-0.052	0.022
-722.850	-99.569	-0.114	-0.029
-721.835	352.832	0.089	-0.180
-720.821	-200.000	0.002	0.296
-719.806	458.169	0.101	-0.228
-718.791	-140.207	0.329	-0.035
-717.777	-19.925	0.100	0.062
-716.762	800.000	-0.071	0.290
-715.748	800.000	0.055	0.203
-714.733	127.793	-0.155	0.200
-713.718	663.672	-0.071	-0.186
-712.704	171.010	-0.079	0.115
-711.689	604.910	-0.098	0.249
-710.675	-48.783	0.203	-0.099
-709.660	800.000	0.053	0.153
-708.645	608.414	0.014	-0.035
-707.631	-148.902	-0.384	-0.031
-706.616	-44.138	-0.112	-0.057
-705.602	-200.000	0.008	-0.111
-704.587	-1.581	-0.212	-0.152
-703.572	22.862	-0.086	-0.072
-702.558	23.100	-0.048	-0.040
-701.543	291.218	0.136	-0.251
-700.529	-200.000	0.027	-0.435
-699.514	-56.398	0.048	0.022
-698.499	31.135	0.240	-0.209
-697.485	-200.000	0.076	-0.340
-696.470	-200.000	0.020	0.103
-695.456	521.344	0.058	0.138
-694.441	-15.381	0.232	0.150
-693.426	800.000	-0.115	0.464
-692.412	321.614	-0.046	0.089
-691.397	-85.866	-0.137	-0.043
-690.383	-68.592	-0.085	-0.033
-689.368	-139.746	0.153	-0.016
-688.354	-70.586	-0.214	-0.082
-687.339	-200.000	-0.043	0.259
-686.324	251.261	-0.120	0.206
-685.310	74.721	-0.172	-0.183
-684.295	-13.756	-0.117	0.076
-683.281	-107.649	-0.290	-0.064
-682.266	-146.260	-0.161	0.014
-681.251	-54.314	-0.119	0.055
-680.237	122.196	0.188	-0.238
-679.222	-200.000	-0.002	-0.117
-678.208	124.069	0.084	0.107
-677.193	21.601	-0.184	0.151
-676.178	-96.591	0.088	0.023
-675.164	43.153	-0.220	-0.203
-674.149	-200.000	-0.007	0.210
-673.135	-168.806	-0.222	-0.008
-672.120	-19.046	-0.168	-0.106
-671.105	-19.864	-0.138	-0.086
-670.091	-37.238	-0.225	-0.122
-669.076	-74.867	-0.164	-0.059
-668.062	-123.214	0.098	0.016
-667.047	-107.190	-0.143	-0.032
-666.032	-57.248	-0.130	-0.058
-665.018	507.554	0.034	-0.081
-664.003	529.464	-0.047	0.111
-662.989	-126.087	-0.225	-0.034
-661.974	-200.000	0.007	-0.085
-660.959	-18.790	0.124	0.078
-659.945	-200.000	-0.005	0.025
-658.930	-36.664	0.165	0.090
-657.916	-0.170	-0.181	0.130
-656.901	-58.104	-0.221	-0.097
-655.886	-167.513	-0.197	-0.008
-654.872	31.047	0.158	0.137
-653.857	-200.000	-0.010	-0.176
-652.843	401.424	-0.101	-0.215
-651.828	126.971	-0.105	0.135
-650.814	-7.508	-0.041	0.028
-649.799	-200.000	0.047	-0.323
-648.784	84.482	-0.255	0.282
-647.770	-139.777	-0.325	0.035
-646.755	-92.863	-0.046	0.013
-645.741	58.958	0.357	0.355
-644.726	-74.757	0.098	-0.036
-643.711	-130.213	0.281	0.039
-642.697	78.927	0.077	0.083
-641.682	-200.000	0.034	-0.153
-640.668	114.397	-0.281	-0.345
-639.653	-118.909	0.094	-0.017
-638.638	-36.247	0.209	0.114
-637.624	-85.077	-0.032	0.010
-636.609	-200.000	-0.011	-0.454
-635.595	-200.000	-0.001	0.211
-634.580	137.907	-0.099	0.131
-633.565	800.000	-0.112	-0.328
-632.551	-94.714	0.257	-0.070
-631.536	111.147	-0.076	-0.093
-630.522	-200.000	0.013	0.144
-629.507	800.000	-0.042	0.156
-628.492	-61.799	-0.250	0.106
-627.478	-68.565	-0.101	0.040
-626.463	144.562	0.242	-0.326
-625.449	800.000	-0.077	-0.224
-624.434	-32.871	0.053	-0.030
-623.419	-48.061	0.297	-0.145
-622.405	364.258	-0.122	-0.247
-621.390	-200.000	-0.016	0.173
-620.376	-74.331	0.146	-0.053
-619.361	-51.167	-0.102	-0.048
-618.346	161.033	-0.153	-0.215
-617.332	358.476	0.102	0.205
-616.317	-200.000	0.012	0.134
-615.303	-131.057	-0.238	-0.032
-614.288	321.734	0.101	-0.193
-613.273	-64.299	-0.202	-0.083
-612.259	-175.681	-0.337	0.009
-611.244	5.916	0.039	-0.029
-610.230	8.164	0.244	-0.185
-609.215	-200.000	0.004	0.062
-608.201	800.000	-0.033	-0.147
-607.186	-142.387	-0.102	0.010
-606.171	-200.000	-0.008	-0.176
-605.157	147.683	-0.200	-0.272
-604.142	-46.074	0.100	0.050
-603.128	-200.000	0.040	-0.251
-602.113	390.498	-0.107	0.225
-601.098	-200.000	-0.011	-0.053
-600.084	1.740	-0.237	-0.172
-599.069	-200.000	-0.037	0.170
-598.055	32.106	-0.215	0.187
-597.040	369.975	-0.082	0.167
-596.025	800.000	0.103	0.323
-595.011	-200.000	0.011	0.091
-593.996	122.566	-0.038	0.048
-592.982	-200.000	0.001	0.100
-591.967	-200.000	0.024	0.106
-590.952	-200.000	0.037	-0.169
-589.938	-152.687	0.289	-0.021
-588.923	149.474	0.169	0.231
-587.909	-153.211	-0.196	-0.014
-586.894	-143.726	0.056	0.005
-585.879	-200.000	0.030	-0.203
-584.865	427.371	-0.049	-0.106
-583.850	-117.504	0.173	-0.032
-582.836	-103.436	-0.065	-0.016
-581.821	-32.085	0.212	-0.119
-580.806	800.000	0.064	0.211
-579.792	-108.123	-0.152	-0.033
-578.777	-10.628	0.199	-0.133
-577.763	-200.000	0.264	-0.001
-576.748	798.017	-0.078	-0.217
-575.733	-165.404	0.172	-0.008
-574.719	16.004	0.080	0.064
-573.704	-200.000	0.066	0.318
-572.690	112.751	-0.106	0.129
-571.675	-11.240	0.293	0.195
-570.661	-200.000	-0.006	-0.063
-569.646	-138.829	-0.316	0.035
-568.631	-101.280	0.310	0.076
-567.617	-30.653	-0.048	0.027
-566.602	27.345	-0.208	0.176
-565.588	800.000	0.044	-0.187
-564.573	-119.353	-0.355	-0.062
-563.558	-144.511	0.202	-0.019
-562.544	86.172	0.068	-0.075
-561.529	800.000	-0.046	0.147
-560.515	742.968	-0.119	0.321
-559.500	631.579	-0.088	-0.224
-558.485	20.487	-0.293	-0.239
-557.471	669.138	0.049	-0.128
-556.456	185.965	0.049	-0.073
-555.442	71.638	-0.098	0.103
-554.427	647.539	0.192	0.494
-553.412	-59.849	-0.299	-0.129
-552.398	800.000	0.102	-0.323
-551.383	-11.689	-0.318	-0.210
-550.369	209.087	-0.103	-0.162
-549.354	8.888	0.162	-0.123
-548.339	198.398	0.083	-0.128
-547.325	-81.163	-0.258	0.086
-546.310	-81.906	-0.104	-0.034
-545.296	-200.000	0.062	-0.311
-544.281	-181.764	-0.109	0.002
-543.266	-0.111	-0.079	0.056
-542.252	-200.000	-0.018	-0.112
-541.237	-16.125	0.189	0.121
-540.223	263.151	0.166	0.290
-539.208	224.157	-0.114	0.185
-538.193	154.153	-0.257	-0.355
-537.179	-60.095	-0.127	-0.055
-536.164	342.250	0.051	-0.101
-535.150	-200.000	0.005	0.044
-534.135	800.000	0.021	0.080
-533.121	-111.451	-0.059	-0.012
-532.106	694.224	0.012	-0.033
-531.091	-200.000	-0.011	-0.443
-530.077	348.380	0.070	0.139
-529.062	-146.194	0.286	0.025
-528.048	112.661	0.154	0.188
-527.033	137.010	-0.058	-0.076
-526.018	-118.653	-0.342	0.061
-525.004	800.000	0.031	-0.096
-523.989	655.636	0.111	0.287
-522.975	229.722	-0.025	0.042
-521.960	-97.550	0.441	0.115
-520.945	307.049	-0.182	-0.341
-519.931	-65.541	-0.153	-0.062
-518.916	14.586	-0.235	0.185
-517.902	-0.629	0.243	0.174
-516.887	-131.153	-0.306	0.041
-515.872	105.480	0.121	0.143
-514.858	-193.723	0.124	-0.001
-513.843	388.900	0.096	-0.199
-512.829	708.821	0.057	0.152
-511.814	800.000	0.010	0.040
-510.799	-200.000	0.060	0.394
-509.785	-148.561	-0.402	-0.033
-508.770	-200.000	0.005	-0.332
-507.756	-200.000	-0.017	-0.134
-506.741	96.840	0.140	0.161
-505.726	-116.866	-0.221	-0.041
-504.712	-88.227	-0.096	-0.029
-503.697	124.589	-0.139	0.176
-502.683	-200.000	-0.003	0.046
-501.668	-18.954	-0.057	-0.036
-500.653	800.000	-0.031	0.096
-499.639	800.000	0.055	0.210
-498.624	66.200	0.207	-0.212
-497.610	31.191	-0.164	0.142
-496.595	-200.000	0.016	0.080
-495.581	800.000	-0.089	0.286
-494.566	-200.000	0.022	-0.213
-493.551	767.566	0.069	-0.188
-492.537	3.257	-0.096	-0.070
-491.522	168.671	0.170	0.243
-490.508	66.722	-0.170	0.173
-489.493	-200.000	-0.007	0.085
-488.478	246.068	0.298	0.505
-487.464	-200.000	-0.020	0.262
-486.449	114.301	-0.102	-0.125
-485.435	230.175	0.119	-0.196
-484.420	22.939	-0.137	0.113
-483.405	-41.972	-0.369	0.190
-482.391	485.323	0.020	-0.047
-481.376	-6.006	0.234	0.161
-480.362	-60.931	-0.121	0.052
-479.347	-77.714	-0.294	0.102
-478.332	800.000	0.073	0.314
-477.318	40.430	-0.150	-0.136
-476.303	-200.000	-0.019	0.164
-475.289	121.909	0.069	-0.086
-474.274	800.000	0.068	0.228
-473.259	-96.642	-0.052	0.014
-472.245	800.000	0.091	-0.263
-471.230	437.923	-0.096	0.209
-470.216	124.821	-0.178	-0.225
-469.201	367.431	-0.112	-0.227
-468.186	-89.502	-0.158	0.047
-467.172	122.322	-0.119	0.150
-466.157	-200.000	0.036	-0.381
-465.143	219.555	0.136	0.219
-464.128	-81.282	0.136	-0.045
-463.113	-68.385	-0.149	0.058
-462.099	-154.629	0.180	-0.012
-461.084	800.000	-0.088	-0.366
-460.070	-159.577	-0.059	-0.003
-459.055	518.088	-0.114	-0.267
-458.040	-25.594	0.373	0.221
-457.026	112.566	-0.083	0.100
-456.011	36.504	-0.121	0.107
-454.997	54.372	0.139	0.135
-453.982	-200.000	0.020	-0.123
-452.968	95.703	-0.047	-0.054
-451.953	451.445	0.061	-0.136
-450.938	-51.410	0.113	-0.053
-449.924	419.474	-0.057	-0.122
-448.909	-200.000	-0.038	-0.383
-447.895	-200.000	-0.002	-0.372
-446.880	-146.699	0.036	-0.003
-445.865	-99.067	0.304	0.077
-444.851	517.647	-0.070	-0.165
-443.836	48.777	0.227	0.214
-442.822	-156.880	0.200	0.012
-441.807	800.000	0.100	-0.326
-440.792	-175.938	-0.051	0.001
-439.778	263.414	-0.142	-0.248
-438.763	156.448	0.102	0.142
-437.749	36.470	-0.101	-0.090
-436.734	-200.000	0.017	0.303
-435.719	-179.658	0.169	0.004
-434.705	162.189	-0.220	-0.309
-433.690	26.583	0.115	0.096
-432.676	-154.108	0.179	0.012
-431.661	-30.255	-0.266	0.152
-430.646	800.000	0.032	-0.120
-429.632	-39.621	-0.145	-0.076
-428.617	-54.470	-0.094	-0.043
-427.603	-200.000	0.015	0.250
-426.588	54.579	0.068	0.066
-425.573	-167.743	-0.150	-0.006
-424.559	416.304	0.113	-0.242
-423.544	-200.000	-0.005	-0.303
-422.530	-104.974	0.172	0.039
-421.515	-200.000	0.021	-0.261
-420.500	-200.000	0.406	0.000
-419.486	-200.000	0.013	-0.143
-418.471	-122.889	-0.225	0.036
-417.457	-78.378	0.040	0.014
-416.442	-61.280	-0.137	0.058
-415.428	-106.124	-0.173	0.039
-414.413	800.000	-0.102	-0.329
-413.398	-26.250	0.195	0.115
-412.384	-72.618	0.155	-0.057
-411.369	354.407	0.074	0.147
-410.355	380.492	-0.134	0.275
-409.340	238.992	0.222	0.369
-408.325	-77.076	-0.157	-0.055
-407.311	-200.000	-0.048	-0.415
-406.296	-174.824	0.222	0.006
-405.282	214.360	0.117	0.186
-404.267	-200.000	-0.021	0.113
-403.252	318.793	-0.136	0.259
-402.238	-28.038	0.094	-0.055
-401.223	517.679	0.067	-0.158
-400.209	-170.275	0.264	-0.009
-399.194	-30.529	0.131	0.074
-398.179	800.000	-0.060	0.188
-397.165	-144.717	0.074	-0.007
-396.150	44.008	0.211	-0.193
-395.136	-79.352	0.090	0.031
-394.121	-37.748	0.076	-0.041
-393.106	-97.123	-0.147	0.038
-392.092	-200.000	0.028	-0.179
-391.077	-200.000	-0.030	0.174
-390.063	95.922	0.124	0.141
-389.048	105.351	0.124	-0.147
-388.033	125.601	0.158	-0.199
-387.019	-141.189	-0.161	-0.016
-386.004	-200.000	-0.010	-0.146
-384.990	-104.429	0.197	0.046
-383.975	76.226	0.105	-0.111
-382.960	645.656	0.090	-0.231
-381.946	92.429	-0.101	-0.114
-380.931	-110.001	-0.212	0.044
-379.917	800.000	-0.070	-0.285
-378.902	107.882	0.145	-0.173
-377.888	-195.180	0.232	-0.002
-376.873	142.906	0.449	-0.597
-375.858	184.424	0.034	-0.051
-374.844	41.802	-0.253	-0.230
-373.829	-200.000	-0.020	-0.093
-372.815	-127.884	0.353	0.051
-371.800	-200.000	-0.026	-0.323
-370.785	-97.756	-0.328	0.085
-369.771	-132.764	-0.124	0.016
-368.756	-200.000	-0.019	0.128
-367.742	-61.116	-0.166	0.070
-366.727	218.625	0.211	0.337
-365.712	-8.351	0.100	0.067
-364.698	-22.114	-0.068	-0.041
-363.683	19.176	-0.261	0.209
-362.669	427.929	-0.079	-0.170
-361.654	-75.491	-0.291	-0.104
-360.639	800.000	-0.109	0.385
-359.625	-3.491	0.157	0.109
-358.610	-200.000	-0.060	0.390
-357.596	-200.000	0.031	0.359
-356.581	-136.236	-0.409	0.048
-355.566	50.345	0.184	0.174
-354.552	-200.000	0.024	-0.150
-353.537	1.348	-0.241	-0.173
-352.523	9.271	0.217	-0.164
-351.508	-200.000	-0.020	0.229
-350.493	-200.000	-0.012	0.077
-349.479	249.587	0.152	-0.258
-348.464	-200.000	-0.011	-0.258
-347.450	-118.795	-0.375	0.066
-346.435	-2.030	-0.068	0.048
-345.420	-27.023	0.170	-0.099
-344.406	-23.692	-0.209	-0.125
-343.391	-36.935	-0.052	-0.028
-342.377	536.466	-0.035	0.083
-341.362	-92.921	0.229	0.064
-340.348	132.214	-0.117	0.150
-339.333	33.484	-0.055	0.048
-338.318	-200.000	-0.029	0.398
-337.304	188.566	-0.087	-0.131
-336.289	800.000	-0.018	-0.060
-335.275	84.619	0.141	-0.155
-334.260	470.049	-0.044	-0.100
-333.245	-34.642	-0.160	-0.087
-332.231	-200.000	-0.008	-0.163
-331.216	-161.012	0.073	-0.004
-330.202	547.255	-0.139	0.332
-329.187	-200.000	0.036	-0.193
-328.172	724.206	-0.052	0.139
-327.158	-47.979	-0.127	0.061
-326.143	406.826	0.094	0.199
-325.129	-124.075	0.242	0.038
-324.114	-107.272	-0.151	0.033
-323.099	21.771	-0.212	0.173
-322.085	-13.229	-0.193	0.125
-321.070	-136.355	-0.236	0.027
-320.056	-138.173	-0.103	0.011
-319.041	198.353	0.060	-0.091
-318.026	39.554	-0.138	0.124
-317.012	183.081	0.026	-0.039
-315.997	25.182	-0.218	0.181
-314.983	20.564	-0.264	0.213
-313.968	161.515	-0.091	0.127
-312.953	-58.189	-0.222	0.096
-311.939	-200.000	-0.034	-0.209
-310.924	-200.000	-0.022	-0.216
-309.910	-100.600	-0.076	-0.019
-308.895	-32.289	0.136	0.076
-307.880	-100.905	-0.087	-0.021
-306.866	290.409	-0.046	-0.083
-305.851	72.967	0.119	-0.124
-304.837	-32.362	-0.023	0.013
-303.822	-200.000	0.203	-0.001
-302.807	-76.495	0.427	0.150
-301.793	-68.856	0.275	-0.106
-300.778	261.472	0.056	0.097
-299.764	-200.000	-0.042	0.219
-298.749	113.694	0.090	0.109
-297.735	-37.847	-0.072	-0.038
-296.720	70.443	0.006	-0.006
-295.705	568.510	-0.080	-0.193
-294.691	-21.629	0.274	-0.167
-293.676	121.389	0.148	0.184
-292.662	150.455	0.348	0.472
-291.647	-26.957	-0.134	0.078
-290.632	732.856	0.115	-0.308
-289.618	-61.874	-0.059	0.025
-288.603	-4.753	0.190	0.131
-287.589	800.000	-0.066	0.272
-286.574	449.533	-0.076	0.168
-285.559	-193.373	0.190	-0.002
-284.545	284.662	0.188	0.337
-283.530	-105.199	-0.067	-0.015
-282.516	13.338	-0.235	0.182
-281.501	-71.814	0.257	-0.096
-280.486	800.000	0.034	-0.124
-279.472	-51.411	-0.306	-0.143
-278.457	-200.000	0.001	0.011
-277.443	-122.968	-0.165	0.027
-276.428	-200.000	-0.007	-0.058
-275.413	26.346	-0.078	0.065
-274.399	3.179	-0.165	0.119
-273.384	-200.000	-0.012	-0.101
-272.370	-62.300	0.425	-0.176
-271.355	19.769	0.094	0.075
-270.340	91.064	0.023	0.026
-269.326	114.142	-0.142	0.172
-268.311	-200.000	-0.003	-0.058
-267.297	18.604	0.136	0.108
-266.282	-200.000	0.084	0.512
-265.267	-27.286	0.273	-0.159
-264.253	71.755	-0.145	0.150
-263.238	-39.557	-0.095	0.050
-262.224	-154.155	0.207	0.014
-261.209	-148.301	0.121	0.010
-260.195	725.552	0.072	0.190
-259.180	76.303	0.194	0.204
-258.165	-115.267	-0.334	-0.063
-257.151	43.312	-0.121	-0.110
-256.136	285.733	-0.108	-0.194
-255.122	-29.960	0.135	-0.077
-254.107	98.251	-0.212	-0.243
-253.092	-70.187	-0.235	-0.089
-252.078	75.573	-0.116	-0.122
-251.063	434.773	0.099	-0.214
-250.049	177.091	-0.080	0.116
-249.034	-200.000	-0.020	-0.171
-248.019	-73.679	0.150	-0.055
-247.005	-90.924	-0.204	0.058
-245.990	42.450	-0.222	-0.201
-244.976	800.000	0.052	-0.168
-243.961	-142.455	-0.086	-0.008
-242.946	800.000	0.054	-0.191
-241.932	-152.208	-0.166	-0.012
-240.917	-200.000	-0.190	0.001
-239.903	775.279	-0.113	-0.308
-238.888	-180.785	-0.470	-0.010
-237.873	800.000	-0.054	0.177
-236.859	409.198	0.067	0.142
-235.844	194.112	-0.235	0.354
-234.830	-200.000	0.031	0.152
-233.815	-200.000	-0.061	0.280
-232.800	-200.000	0.007	-0.034
-231.786	60.254	-0.123	0.121
-230.771	800.000	0.102	-0.428
-229.757	-119.190	0.302	-0.052
-228.742	-10.107	0.109	0.072
-227.727	-141.746	-0.345	0.034
-226.713	-57.030	0.170	-0.075
-225.698	-85.480	0.061	0.019
-224.684	-200.000	-0.003	0.039
-223.669	-200.000	0.056	-0.255
-222.655	-7.184	0.416	-0.280
-221.640	-200.000	-0.018	-0.152
-220.625	25.350	0.050	-0.042
-219.611	800.000	0.040	-0.131
-218.596	-200.000	-0.019	-0.201
-217.582	-200.000	0.366	0.002
-216.567	-109.652	-0.279	-0.058
-215.552	227.881	-0.078	-0.126
-214.538	-14.390	0.341	-0.218
-213.523	-124.175	0.424	-0.066
-212.509	-47.081	-0.062	-0.030
-211.494	111.940	-0.247	0.297
-210.479	642.596	0.073	0.184
-209.465	-200.000	0.008	-0.259
-208.450	-200.000	0.006	0.048
-207.436	-42.936	-0.134	-0.068
-206.421	176.063	-0.165	0.238
-205.406	318.758	0.134	-0.252
-204.392	-24.352	0.296	-0.176
-203.377	-200.000	0.038	-0.198
-202.363	160.498	0.140	0.194
-201.348	-200.000	0.034	-0.392
-200.333	-150.215	-0.317	-0.024
-199.319	317.423	-0.060	-0.113
-198.304	-200.000	-0.053	0.357
-197.290	-154.181	0.121	-0.008
-196.275	2.515	-0.179	0.129
-195.260	47.955	0.093	-0.086
-194.246	114.554	-0.168	0.203
-193.231	-183.125	-0.255	0.004
-192.217	330.706	0.086	-0.165
-191.202	-56.468	0.005	-0.002
-190.187	-85.253	0.420	-0.130
-189.173	-200.000	-0.018	0.138
-188.158	-95.180	-0.035	-0.009
-187.144	-79.040	0.101	-0.034
-186.129	-41.474	0.209	-0.107
-185.114	-200.000	0.021	-0.179
-184.100	125.030	0.228	0.285
-183.085	43.089	0.208	-0.188
-182.071	-55.551	-0.123	-0.055
-181.056	-79.224	0.128	-0.043
-180.042	-200.000	0.021	-0.193
-179.027	-200.000	0.076	0.401
-178.012	-78.069	0.415	0.142
-176.998	-200.000	0.006	0.120
-175.983	-200.000	-0.018	0.126
-174.969	276.917	-0.014	-0.024
-173.954	20.591	-0.347	0.278
-172.939	76.902	-0.134	0.142
-171.925	145.148	-0.272	0.361
-170.910	-164.304	0.091	-0.004
-169.896	0.861	-0.224	-0.159
-168.881	502.910	0.067	0.154
-167.866	52.415	0.115	-0.109
-166.852	372.116	0.102	-0.206
-165.837	16.965	-0.116	0.091
-164.823	512.417	-0.097	0.225
-163.808	-2.421	0.213	0.148
-162.793	-28.420	0.132	0.076
-161.779	161.628	0.101	0.140
-160.764	-138.745	0.127	-0.014
-159.750	519.635	0.061	0.141
-158.735	399.968	0.101	-0.211
-157.720	57.386	0.137	-0.133
-156.706	-71.425	-0.101	0.038
-155.691	-200.000	-0.007	0.247
-154.677	50.450	-0.161	0.151
-153.662	-138.431	0.121	0.013
-152.647	697.088	0.020	0.052
-151.633	-200.000	0.006	0.210
-150.618	-105.292	0.187	0.042
-149.604	24.188	-0.248	-0.203
-148.589	-15.326	0.217	-0.137
-147.574	-200.000	-0.012	-0.108
-146.560	216.337	0.175	0.276
-145.545	44.934	0.256	0.234
-144.531	53.048	-0.330	0.313
-143.516	-76.332	-0.215	0.075
-142.502	-39.591	-0.137	-0.071
-141.487	354.800	0.090	0.177
-140.472	-116.060	0.474	-0.087
-139.458	-168.844	0.154	0.006
-138.443	-200.000	0.014	0.570
-137.429	30.085	0.302	0.255
-136.414	-116.288	-0.135	-0.025
-135.399	-44.131	-0.214	0.106
-134.385	154.796	0.045	-0.061
-133.370	-200.000	0.008	-0.300
-132.356	20.885	0.014	0.011
-131.341	-73.239	-0.361	0.131
-130.326	-111.195	0.333	-0.068
-129.312	8.238	-0.121	0.090
-128.297	-200.000	0.053	-0.293
-127.283	106.216	-0.076	-0.089
-126.268	-200.000	-0.070	-0.317
-125.253	41.636	0.105	0.094
-124.239	16.146	-0.222	0.173
-123.224	-200.000	0.008	0.158
-122.210	146.869	-0.183	-0.244
-121.195	-185.018	-0.084	0.001
-120.180	-200.000	0.019	0.405
-119.166	77.451	0.294	-0.310
-118.151	-200.000	-0.013	0.136
-117.137	279.749	0.170	-0.300
-116.122	800.000	0.092	-0.328
-115.107	-92.405	0.269	-0.075
-114.093	-56.014	-0.322	-0.142
-113.078	116.752	-0.137	-0.166
-112.064	-200.000	0.015	0.513
-111.049	-109.805	-0.313	0.065
-110.034	371.523	0.047	0.093
-109.020	400.265	0.106	0.220
-108.005	490.492	-0.108	-0.246
-106.991	-200.000	-0.012	0.134
-105.976	432.007	-0.098	-0.211
-104.962	-200.000	0.047	0.278
-103.947	300.939	-0.075	-0.137
-102.932	110.144	0.089	0.106
-101.918	317.242	0.177	0.331
-100.903	79.905	0.016	0.017
-99.889	53.895	-0.073	0.070
-98.874	167.395	-0.099	0.140
-97.859	-91.700	0.477	0.134
-96.845	-38.455	-0.435	0.228
-95.830	-109.924	-0.339	-0.070
-94.816	459.277	0.112	0.246
-93.801	39.960	0.303	0.270
-92.786	316.844	0.117	0.218
-91.772	-75.569	0.227	-0.080
-90.757	71.986	0.055	-0.057
-89.743	-200.000	-0.023	0.304
-88.728	-56.206	-0.116	0.051
-87.713	84.664	0.186	-0.201
-86.699	-200.000	0.013	-0.209
-85.684	140.942	0.456	-0.596
-84.670	800.000	0.025	0.091
-83.655	-99.086	0.406	-0.102
-82.640	-40.514	-0.085	-0.044
-81.626	-11.808	0.400	-0.260
-80.611	142.521	0.179	0.235
-79.597	27.785	0.170	-0.142
-78.582	615.757	-0.087	-0.217
-77.567	-6.154	-0.131	-0.089
-76.553	800.000	0.086	0.251
-75.538	159.048	0.086	-0.119
-74.524	-46.885	0.419	-0.203
-73.509	474.287	0.141	0.314
-72.494	112.998	-0.097	0.116
-71.480	-109.683	0.315	-0.066
-70.465	-200.000	-0.036	-0.174
-69.451	800.000	0.032	-0.099
-68.436	-158.965	-0.111	-0.006
-67.422	46.960	0.177	0.163
-66.407	-100.620	0.143	0.035
-65.392	-71.186	0.272	0.101
-64.378	105.583	-0.176	-0.205
-63.363	800.000	0.042	-0.122
-62.349	-69.387	0.178	-0.067
-61.334	32.183	-0.917	-0.782
-60.319	242.667	0.237	0.392
-59.305	-200.000	0.122	-0.831
-58.290	349.276	0.494	0.965
-57.276	632.620	0.646	1.618
-56.261	-200.000	90.736	523.932
-55.246	555.396	1397.764	3324.815
-54.232	185.865	2610.756	3834.318
-53.217	113.413	2328.792	2792.803
-52.203	44.745	1936.425	1759.827
-51.188	38.721	1721.917	1518.343
-50.173	35.970	1676.942	1457.840
-49.159	51.669	1722.650	1618.322
-48.144	55.171	1740.599	1661.986
-47.130	38.523	1698.745	1496.159
-46.115	35.602	1683.914	1460.868
-45.100	35.452	1678.968	1455.378
-44.086	35.338	1676.517	1452.335
-43.071	35.356	1673.454	1449.759
-42.057	35.324	1671.302	1447.596
-41.042	35.369	1669.092	1445.966
-40.027	35.374	1667.564	1444.625
-39.013	35.323	1665.940	1442.777
-37.998	35.329	1663.888	1440.988
-36.984	35.445	1662.778	1440.835
-35.969	35.598	1661.172	1440.533
-34.954	35.607	1659.994	1439.521
-33.940	35.505	1657.795	1436.800
-32.925	35.552	1655.785	1435.352
-31.911	35.510	1654.413	1433.793
-30.896	35.500	1652.771	1432.231
-29.881	35.490	1651.104	1430.661
-28.867	35.496	1649.295	1429.080
-27.852	35.540	1647.972	1428.206
-26.838	35.546	1646.163	1426.626
-25.823	35.605	1645.309	1426.263
-24.809	35.543	1643.853	1424.488
-23.794	35.487	1642.566	1422.899
-22.779	35.544	1640.824	1421.755
-21.765	35.661	1638.793	1420.804
-20.750	35.630	1637.104	1419.058
-19.736	35.610	1635.496	1417.458
-18.721	35.647	1634.308	1416.646
-17.706	35.632	1632.712	1415.096
-16.692	35.498	1631.336	1412.863
-15.677	35.534	1629.947	1411.862
-14.663	35.537	1628.819	1410.858
-13.648	35.551	1627.426	1409.693
-12.633	35.549	1625.510	1407.962
-11.619	35.579	1624.150	1406.948
-10.604	35.548	1622.580	1405.309
-9.590	35.531	1621.818	1404.466
-8.575	35.579	1619.807	1403.018
-7.560	35.537	1618.713	1401.712
-6.546	35.476	1617.522	1400.180
-5.531	35.592	1616.568	1400.144
-4.517	35.469	1615.632	1398.382
-3.502	35.531	1614.449	1397.751
-2.487	35.648	1613.065	1397.353
-1.473	35.660	1602.546	1388.268
-0.458	33.748	1583.963	1358.450
0.556	29.425	1584.704	1328.797
1.571	26.797	1608.671	1329.533
2.586	25.949	1621.342	1333.615
3.600	22.803	1567.396	1266.596
4.615	13.941	1455.142	1116.474
5.629	6.406	1389.403	1017.423
6.644	5.188	1380.445	1002.947
7.659	5.005	1378.957	1000.606
8.673	4.975	1377.649	999.377
9.688	5.033	1375.958	998.431
10.702	4.894	1373.078	995.369
11.717	8.245	1379.955	1021.749
12.731	16.052	1394.698	1082.915
13.746	19.671	1400.157	1110.357
14.761	18.532	1396.332	1099.922
15.775	17.417	1393.042	1090.095
16.790	16.241	1390.721	1080.658
17.804	15.447	1388.179	1073.512
18.819	15.030	1387.280	1070.057
19.834	14.794	1385.370	1066.982
20.848	14.541	1384.109	1064.302
21.863	14.237	1383.083	1061.479
22.877	14.098	1381.999	1059.669
23.892	14.140	1380.420	1058.631
24.907	14.131	1380.302	1058.391
25.921	14.141	1379.360	1057.636
26.936	14.113	1378.386	1056.616
27.950	14.207	1377.444	1056.399
28.965	14.298	1376.070	1055.828
29.980	14.249	1375.299	1054.832
30.994	14.343	1374.490	1054.711
32.009	14.451	1372.935	1054.111
33.023	14.423	1371.837	1052.997
34.038	14.435	1370.350	1051.841
35.053	14.344	1368.928	1050.080
36.067	14.324	1368.064	1049.197
37.082	14.242	1367.353	1048.043
38.096	14.369	1366.003	1047.718
39.111	14.366	1365.000	1046.835
40.126	14.314	1364.030	1045.673
41.140	14.224	1363.437	1044.562
42.155	14.113	1362.696	1043.207
43.169	14.054	1362.378	1042.496
44.184	14.069	1362.381	1042.502
45.199	14.090	1361.647	1041.979
46.213	14.185	1360.942	1041.943
47.228	14.230	1360.023	1041.431
48.242	14.239	1359.074	1040.668
49.257	14.307	1357.410	1039.722
50.271	14.220	1355.857	1037.898
51.286	14.185	1354.902	1036.861
52.301	14.262	1353.179	1035.929
53.315	14.173	1352.477	1034.744
54.330	14.094	1351.459	1033.383
55.344	14.114	1349.728	1032.095
56.359	14.167	1348.931	1031.720
57.374	14.083	1347.983	1030.384
58.388	14.015	1347.411	1029.434
59.403	14.007	1347.006	1028.987
60.417	14.025	1346.346	1028.504
61.432	14.006	1345.130	1027.366
62.447	14.035	1343.958	1026.559
63.461	13.921	1343.165	1025.154
64.476	13.922	1341.941	1024.139
65.490	13.866	1341.125	1023.078
66.505	13.954	1339.293	1022.130
67.520	13.899	1338.216	1020.880
68.534	14.002	1336.820	1020.362
69.549	13.995	1336.053	1019.642
70.563	13.986	1334.876	1018.595
71.578	13.808	1334.206	1016.903
72.593	13.784	1333.200	1015.899
73.607	13.798	1332.824	1015.612
74.622	13.834	1331.510	1014.738
75.636	13.844	1330.812	1014.180
76.651	13.905	1329.975	1013.824
77.666	13.840	1329.832	1013.228
78.680	13.877	1328.804	1012.580
79.695	13.911	1328.210	1012.247
80.709	13.944	1327.591	1011.885
81.724	14.017	1326.638	1011.515
82.739	14.078	1325.977	1011.292
83.753	14.227	1324.632	1011.082
84.768	14.276	1323.818	1010.669
85.782	14.316	1322.732	1009.994
86.797	14.280	1321.157	1008.481
87.812	14.200	1320.118	1007.115
88.826	14.172	1318.986	1005.996
89.841	14.232	1317.942	1005.473
90.855	14.313	1317.013	1005.162
91.870	14.265	1316.336	1004.269
92.884	14.304	1315.112	1003.483
93.899	14.297	1314.319	1002.747
94.914	14.410	1313.343	1002.588
95.928	14.369	1312.947	1001.955
96.943	14.318	1311.956	1000.801
97.957	14.248	1311.135	999.669
98.972	14.379	1309.750	999.309
99.987	14.404	1308.868	998.696
101.001	14.278	1308.045	997.225
102.016	14.437	1306.499	996.907
103.030	14.318	1305.919	995.664
104.045	14.283	1305.161	994.794
105.060	14.228	1303.828	993.361
106.074	14.172	1302.105	991.625
107.089	13.970	1301.374	989.780
108.103	13.996	1299.978	988.782
109.118	14.006	1299.045	988.047
110.133	14.079	1297.105	986.915
111.147	14.134	1295.758	986.129
112.162	14.043	1294.807	984.777
113.176	14.080	1293.613	984.002
114.191	14.204	1292.689	983.950
115.206	14.073	1291.517	982.194
116.220	13.998	1290.618	980.979
117.235	14.083	1289.296	980.393
118.249	14.220	1288.324	980.373
119.264	14.037	1287.074	978.256
120.279	14.031	1286.113	977.404
121.293	14.004	1285.101	976.393
122.308	14.049	1283.955	975.696
123.322	13.929	1282.831	974.051
124.337	13.834	1282.260	972.975
125.352	13.975	1280.775	972.592
126.366	14.041	1279.404	971.846
127.381	13.936	1278.684	970.600
128.395	14.079	1277.304	970.299
129.410	14.100	1276.618	969.817
130.424	14.165	1275.804	969.492
131.439	14.068	1275.146	968.340
132.454	14.129	1274.006	967.746
133.468	14.151	1273.048	967.061
134.483	14.167	1272.582	966.711
135.497	14.173	1271.434	965.792
136.512	14.215	1269.902	964.785
137.527	14.176	1268.818	963.651
138.541	14.278	1267.495	963.150
139.556	14.236	1265.836	961.560
140.570	14.153	1265.433	960.691
141.585	14.310	1263.755	960.236
142.600	14.377	1262.539	959.612
143.614	14.410	1261.652	959.043
144.629	14.469	1260.270	958.247
145.643	14.418	1259.409	957.215
146.658	14.242	1258.301	955.279
147.673	14.230	1256.843	954.021
148.687	14.068	1255.894	952.285
149.702	14.282	1253.825	951.860
150.716	14.165	1252.711	950.262
151.731	14.159	1251.608	949.306
152.746	14.290	1250.038	948.774
153.760	14.222	1249.142	947.622
154.775	14.320	1247.668	946.983
155.789	14.324	1246.878	946.320
156.804	14.346	1245.868	945.593
157.819	14.391	1244.660	944.848
158.833	14.327	1244.340	944.159
159.848	14.424	1243.128	943.709
160.862	14.383	1242.303	942.766
161.877	14.377	1241.146	941.771
162.892	14.254	1239.811	939.980
163.906	14.281	1238.802	939.282
164.921	14.228	1237.777	938.120
165.935	14.360	1237.129	938.292
166.950	14.352	1236.344	937.569
167.964	14.364	1235.716	937.078
168.979	14.363	1234.565	936.118
169.994	14.262	1234.497	935.415
171.008	14.328	1233.277	934.776
172.023	14.407	1232.498	934.550
173.037	14.490	1231.578	934.234
174.052	14.458	1230.989	933.525
175.067	14.446	1229.550	932.284
176.081	14.345	1228.969	931.195
177.096	14.289	1228.125	930.158
178.110	14.401	1226.758	929.666
179.125	14.425	1225.311	928.622
180.140	14.484	1224.489	928.248
181.154	14.447	1223.393	927.128
182.169	14.561	1221.911	926.558
183.183	14.610	1220.932	926.006
184.198	14.546	1220.050	924.897
185.213	14.561	1218.866	923.999
186.227	14.586	1217.703	923.177
187.242	14.617	1216.747	922.541
188.256	14.759	1215.671	922.425
189.271	14.632	1214.861	921.030
190.286	14.647	1213.746	920.185
191.300	14.433	1212.720	918.151
192.315	14.326	1212.319	917.176
193.329	14.337	1211.368	916.436
194.344	14.502	1210.634	916.704
195.359	14.483	1210.026	916.058
196.373	14.573	1209.374	915.980
197.388	14.727	1209.068	916.513
198.402	14.766	1208.761	916.409
199.417	14.831	1208.141	916.219
200.432	14.919	1207.454	916.096
201.446	14.932	1206.219	915.148
202.461	14.999	1205.155	914.629
203.475	14.940	1204.302	913.578
204.490	14.913	1202.834	912.238
205.504	14.904	1201.734	911.269
206.519	14.900	1200.243	910.039
207.534	14.901	1199.128	909.117
208.548	14.803	1198.189	907.793
209.563	14.833	1197.727	907.524
210.577	14.946	1196.748	907.319
211.592	14.947	1195.734	906.475
212.607	15.039	1194.754	906.150
213.621	15.052	1193.929	905.514
214.636	14.854	1193.461	904.004
215.650	14.998	1192.218	903.764
216.665	15.048	1191.470	903.383
217.680	15.062	1190.235	902.446
218.694	15.150	1189.381	902.194
219.709	15.094	1189.042	901.555
220.723	15.142	1188.024	900.957
221.738	15.142	1187.458	900.451
222.753	15.169	1186.328	899.661
223.767	15.174	1186.025	899.377
224.782	15.241	1185.155	898.998
225.796	15.160	1184.893	898.284
226.811	15.260	1183.794	897.908
227.826	15.196	1183.781	897.474
228.840	15.127	1182.783	896.268
229.855	15.230	1181.613	895.854
230.869	15.137	1180.749	894.625
231.884	15.182	1180.157	894.337
232.899	15.107	1179.106	893.057
233.913	15.075	1178.330	892.220
234.928	15.015	1178.291	891.796
235.942	15.070	1177.083	891.095
236.957	15.151	1176.351	890.892
237.972	15.037	1175.923	889.883
238.986	15.108	1175.012	889.491
240.001	15.068	1174.585	888.879
241.015	15.093	1173.526	888.130
242.030	15.198	1172.643	887.941
243.045	15.216	1171.767	887.292
244.059	15.200	1170.853	886.436
245.074	15.322	1170.225	886.531
246.088	15.280	1169.482	885.666
247.103	15.371	1168.664	885.450
248.117	15.448	1167.959	885.243
249.132	15.503	1167.456	885.073
250.147	15.527	1166.956	884.740
251.161	15.596	1166.073	884.354
252.176	15.678	1165.059	883.943
253.190	15.641	1164.706	883.399
254.205	15.702	1164.151	883.221
255.220	15.781	1163.415	883.002
256.234	15.744	1163.178	882.547
257.249	15.780	1161.921	881.703
258.263	15.778	1161.417	881.233
259.278	15.804	1160.907	880.904
260.293	15.786	1160.670	880.550
261.307	15.790	1159.656	879.725
262.322	15.983	1158.876	880.067
263.336	15.993	1158.226	879.546
264.351	15.925	1157.931	878.888
265.366	15.894	1157.238	878.125
266.380	15.916	1156.275	877.429
267.395	15.908	1155.269	876.546
268.409	15.817	1154.822	875.655
269.424	15.840	1154.294	875.300
270.439	15.941	1153.309	875.000
271.453	15.851	1153.017	874.230
272.468	15.899	1151.827	873.500
273.482	15.842	1150.941	872.456
274.497	15.883	1150.266	872.081
275.512	15.735	1150.170	871.164
276.526	15.836	1149.207	870.881
277.541	15.903	1147.977	870.219
278.555	15.928	1147.555	869.950
279.570	16.003	1146.739	869.643
280.585	16.104	1145.921	869.466
281.599	16.038	1145.093	868.420
282.614	16.073	1143.878	867.601
283.628	15.983	1142.874	866.300
284.643	15.986	1141.699	865.347
285.657	15.998	1141.262	865.001
286.672	16.003	1140.424	864.316
287.687	16.171	1139.389	864.318
288.701	16.086	1138.730	863.304
289.716	16.069	1137.926	862.534
290.730	16.114	1137.176	862.116
291.745	16.140	1136.673	861.793
292.760	16.170	1136.015	861.370
293.774	16.263	1135.321	861.241
294.789	16.292	1134.692	860.839
295.803	16.343	1133.933	860.442
296.818	16.143	1133.713	859.181
297.833	16.176	1132.666	858.480
298.847	16.236	1131.841	858.086
299.862	16.367	1130.688	857.799
300.876	16.201	1130.433	856.689
301.891	16.227	1129.813	856.276
302.906	16.444	1128.870	856.583
303.920	16.599	1127.832	856.507
304.935	16.540	1127.714	856.043
305.949	16.414	1127.355	855.056
306.964	16.465	1126.609	854.673
307.979	16.499	1125.898	854.231
308.993	16.392	1125.098	853.007
310.008	16.492	1123.877	852.510
311.022	16.551	1123.086	852.130
312.037	16.464	1122.461	851.144
313.052	16.435	1121.665	850.318
314.066	16.512	1120.314	849.607
315.081	16.360	1119.843	848.408
316.095	16.348	1119.214	847.798
317.110	16.453	1118.053	847.372
318.125	16.431	1117.454	846.734
319.139	16.423	1116.856	846.164
320.154	16.333	1116.362	845.264
321.168	16.391	1115.589	844.893
322.183	16.429	1114.744	844.370
323.197	16.454	1114.286	844.074
324.212	16.502	1113.215	843.426
325.227	16.470	1113.367	843.306
326.241	16.479	1112.529	842.640
327.256	16.633	1111.600	842.629
328.270	16.428	1111.101	841.159
329.285	16.509	1110.036	840.680
330.300	16.496	1108.786	839.595
331.314	16.604	1107.884	839.371
332.329	16.532	1107.040	838.301
333.343	16.503	1106.368	837.575
334.358	16.761	1104.876	837.646
335.373	16.796	1104.596	837.537
336.387	16.688	1103.946	836.435
337.402	16.833	1103.067	836.409
338.416	16.771	1102.583	835.662
339.431	16.818	1102.248	835.569
340.446	16.808	1101.530	834.898
341.460	16.905	1100.783	834.735
342.475	16.964	1099.746	834.165
343.489	16.974	1098.858	833.467
344.504	16.987	1098.102	832.884
345.519	17.045	1097.235	832.440
346.533	17.027	1096.534	831.745
347.548	17.140	1095.588	831.509
348.562	17.209	1094.689	831.087
349.577	17.044	1094.096	829.755
350.592	16.944	1093.304	828.596
351.606	16.838	1092.294	827.241
352.621	16.863	1091.734	826.863
353.635	16.908	1090.979	826.439
354.650	16.945	1090.193	825.950
355.665	17.006	1089.212	825.429
356.679	16.931	1089.286	825.048
357.694	17.109	1088.245	825.052
358.708	17.111	1087.433	824.374
359.723	17.086	1087.010	823.860
360.738	17.055	1086.446	823.205
361.752	17.037	1086.167	822.836
362.767	17.087	1085.280	822.332
363.781	17.172	1084.670	822.210
364.796	17.223	1084.116	821.964
365.810	17.219	1083.890	821.702
366.825	17.366	1083.021	821.680
367.840	17.372	1082.788	821.458
368.854	17.436	1081.730	820.893
369.869	17.388	1081.115	820.119
370.883	17.331	1080.229	819.101
371.898	17.340	1079.332	818.393
372.913	17.343	1078.922	818.026
373.927	17.347	1078.785	817.867
374.942	17.364	1078.122	817.371
375.956	17.350	1077.511	816.773
376.971	17.493	1076.374	816.524
377.986	17.423	1076.212	815.990
379.000	17.536	1075.668	816.051
380.015	17.583	1075.187	815.839
381.029	17.605	1074.482	815.333
382.044	17.548	1074.059	814.671
383.059	17.659	1073.046	814.361
384.073	17.601	1072.644	813.704
385.088	17.529	1071.442	812.375
386.102	17.622	1070.610	812.118
387.117	17.554	1069.825	811.129
388.132	17.629	1068.148	810.142
389.146	17.652	1067.797	809.914
390.161	17.633	1066.957	809.113
391.175	17.643	1066.103	808.442
392.190	17.579	1065.860	807.879
393.205	17.848	1064.834	808.309
394.219	17.722	1064.029	807.026
395.234	17.723	1062.996	806.178
396.248	17.611	1062.085	804.887
397.263	17.508	1061.457	803.855
398.278	17.531	1060.982	803.529
399.292	17.505	1060.249	802.781
400.307	17.501	1059.394	802.044
401.321	17.620	1058.568	801.909
402.336	17.475	1058.081	800.787
403.350	17.619	1057.060	800.619
404.365	17.661	1056.737	800.503
405.380	17.721	1056.111	800.238
406.394	17.640	1055.153	799.060
407.409	17.726	1054.629	798.995
408.423	17.854	1053.756	798.862
409.438	17.850	1053.188	798.345
410.453	17.916	1052.380	797.969
411.467	17.940	1051.791	797.565
412.482	17.895	1051.195	796.834
413.496	18.012	1050.373	796.684
414.511	18.077	1049.705	796.409
415.526	18.193	1049.293	796.565
416.540	18.132	1049.262	796.188
417.555	18.102	1048.842	795.659
418.569	18.143	1047.909	795.074
419.584	18.125	1047.140	794.334
420.599	18.122	1047.099	794.219
421.613	146.251	1400.112	1786.951
422.628	133.893	1451.535	1787.057
