DTS Sentinel unit serial number:	SN413079Multiplexer serial number:	ORYXHardware model number:	OX4-SRSoftware version number:	ORYX F/W v4.00 Oryx Data Collector v3.7.2.0data status	okinstallation	princeton_trtdifferential loss correction	single-endedforward channel	channel 2reverse channel	N/Adate	2019/09/17time	15:19:35forward acquisition time	60.00reverse acquisition time	0.00gamma	496.2192k internal	0.2306k external	0.2306temperature offset calibration	0.9984default loss term (dB/km)	0.3790temperature slope calibration	1.0000multiplexer offset coefficient	1.0000multiplexer slope coefficient	1.0000fibre end	0.00T internal ref (°C)	37.92T ext. ref 1 (°C)	0.38T ext. ref 2 (°C)	35.01length (m)	temperature (°C)	Stokes	anti-Stokes-747.200	27.487	-0.172	0.147
-746.185	85.604	0.094	-0.106
-745.171	400.557	-0.082	-0.175
-744.156	-92.475	-0.106	-0.030
-743.142	94.803	-0.214	0.248
-742.127	-68.961	-0.078	-0.031
-741.112	-200.000	0.003	-0.321
-740.098	-200.000	-0.002	0.131
-739.083	112.433	0.368	0.452
-738.069	315.019	0.199	0.381
-737.054	-57.235	-0.349	0.156
-736.039	-65.340	0.152	0.062
-735.025	800.000	0.191	0.551
-734.010	800.000	0.086	-0.336
-732.996	152.825	-0.271	-0.377
-731.981	61.871	-0.198	-0.200
-730.966	289.317	-0.086	-0.158
-729.952	64.894	0.185	-0.190
-728.937	-113.813	-0.194	-0.038
-727.923	78.132	0.141	0.153
-726.908	75.238	-0.022	0.024
-725.894	-119.421	-0.264	0.047
-724.879	-56.109	-0.281	-0.127
-723.864	-200.000	0.040	-0.282
-722.850	800.000	0.076	-0.264
-721.835	82.613	-0.089	0.098
-720.821	262.412	-0.144	-0.254
-719.806	622.930	-0.089	-0.229
-718.791	-137.251	-0.212	-0.024
-717.777	-104.478	-0.235	0.055
-716.762	-51.416	-0.212	0.101
-715.748	-200.000	0.014	-0.086
-714.733	20.941	-0.161	-0.132
-713.718	409.556	-0.103	-0.223
-712.704	-124.426	-0.058	0.009
-711.689	-158.324	-0.044	-0.003
-710.675	-200.000	-0.044	-0.241
-709.660	-127.117	-0.104	-0.016
-708.645	-41.320	-0.235	-0.123
-707.631	-87.324	-0.119	0.037
-706.616	-120.557	0.355	0.061
-705.602	176.244	0.044	-0.065
-704.587	-1.837	0.314	0.224
-703.572	35.818	-0.103	0.092
-702.558	-13.189	-0.160	-0.106
-701.543	-145.761	-0.221	-0.020
-700.529	151.430	-0.126	0.174
-699.514	800.000	0.039	-0.165
-698.499	180.797	-0.121	0.180
-697.485	150.866	-0.184	-0.255
-696.470	-47.337	-0.460	-0.227
-695.456	136.706	0.325	-0.431
-694.441	3.672	-0.175	-0.129
-693.426	-110.748	-0.078	-0.016
-692.412	44.427	-0.056	-0.052
-691.397	328.036	-0.092	-0.180
-690.383	-66.492	-0.073	-0.029
-689.368	-108.362	0.263	0.058
-688.354	-7.472	-0.211	-0.145
-687.339	45.779	-0.064	-0.060
-686.324	-104.940	-0.125	-0.029
-685.310	-76.167	0.013	-0.005
-684.295	85.088	-0.090	-0.100
-683.281	441.353	-0.150	-0.332
-682.266	15.279	-0.278	0.221
-681.251	90.624	-0.049	-0.056
-680.237	303.834	-0.127	-0.238
-679.222	-133.518	0.172	0.022
-678.208	-200.000	0.096	-0.546
-677.193	-7.345	0.274	-0.188
-676.178	543.442	0.059	-0.144
-675.164	255.343	-0.017	-0.030
-674.149	220.823	-0.103	-0.168
-673.135	156.108	-0.052	0.072
-672.120	101.097	-0.099	0.116
-671.105	53.212	-0.082	-0.080
-670.091	75.750	0.152	0.163
-669.076	30.260	-0.088	-0.076
-668.062	-119.424	-0.130	-0.023
-667.047	260.209	0.136	0.238
-666.032	0.000	-0.182	-0.131
-665.018	-37.303	0.058	0.032
-664.003	-30.127	0.175	0.101
-662.989	2.028	0.050	0.036
-661.974	536.579	0.063	0.152
-660.959	160.269	-0.115	0.163
-659.945	-72.334	-0.161	-0.061
-658.930	-116.854	-0.045	-0.008
-657.916	-200.000	0.029	0.486
-656.901	17.699	0.057	0.046
-655.886	-83.949	0.165	-0.053
-654.872	800.000	-0.088	-0.283
-653.857	-200.000	-0.003	-0.184
-652.843	373.098	-0.104	0.214
-651.828	248.112	0.081	-0.138
-650.814	0.806	-0.303	0.220
-649.799	90.362	-0.163	-0.185
-648.784	-154.670	-0.154	-0.010
-647.770	-111.814	0.118	-0.024
-646.755	75.895	-0.082	-0.088
-645.741	301.597	0.102	-0.191
-644.726	-200.000	0.021	-0.116
-643.711	61.588	0.046	0.046
-642.697	-16.605	-0.130	-0.083
-641.682	-200.000	-0.018	-0.500
-640.668	-91.973	-0.088	-0.025
-639.653	-103.945	-0.260	0.061
-638.638	-155.428	-0.168	0.011
-637.624	-200.000	-0.285	-0.001
-636.609	650.382	0.017	-0.045
-635.595	-116.822	-0.133	-0.025
-634.580	-69.988	0.048	0.019
-633.565	-200.000	-0.033	-0.173
-632.551	-135.228	-0.069	0.008
-631.536	246.062	-0.157	-0.268
-630.522	-128.154	0.173	-0.025
-629.507	437.102	-0.170	0.375
-628.492	-200.000	-0.022	-0.121
-627.478	-12.108	0.021	-0.014
-626.463	13.576	-0.089	-0.070
-625.449	-200.000	-0.030	-0.323
-624.434	39.099	0.239	-0.216
-623.419	125.612	-0.187	0.239
-622.405	-109.234	0.306	-0.066
-621.390	800.000	-0.061	0.237
-620.376	-37.950	0.348	0.187
-619.361	51.982	0.185	-0.179
-618.346	-200.000	-0.015	-0.201
-617.332	243.338	-0.010	0.017
-616.317	233.993	-0.227	0.379
-615.303	88.115	0.121	0.136
-614.288	-200.000	0.004	-0.051
-613.273	353.804	0.107	0.214
-612.259	21.345	-0.179	-0.148
-611.244	57.236	-0.186	-0.183
-610.230	-132.004	-0.414	-0.055
-609.215	579.844	-0.037	0.093
-608.201	-117.033	-0.313	-0.058
-607.186	-200.000	-0.049	-0.311
-606.171	-67.700	0.152	0.060
-605.157	113.151	0.081	0.100
-604.142	-147.677	0.275	0.023
-603.128	-200.000	-0.020	-0.276
-602.113	-200.000	-0.019	0.244
-601.098	-61.668	-0.189	0.080
-600.084	-38.626	-0.272	0.145
-599.069	406.652	0.124	0.266
-598.055	-163.596	-0.086	-0.004
-597.040	313.923	-0.025	-0.047
-596.025	-90.371	-0.165	-0.049
-595.011	142.261	-0.056	-0.075
-593.996	600.033	-0.022	0.056
-592.982	-195.581	-0.465	0.003
-591.967	-55.950	0.024	0.011
-590.952	-46.744	-0.115	-0.057
-589.938	-92.911	0.122	0.035
-588.923	13.947	0.069	0.054
-587.909	431.029	-0.203	0.445
-586.894	800.000	-0.084	0.298
-585.879	114.417	0.124	0.152
-584.865	76.997	-0.118	0.127
-583.850	-101.925	0.134	-0.033
-582.836	-128.852	0.079	-0.011
-581.821	800.000	0.091	-0.272
-580.806	63.374	-0.264	-0.267
-579.792	-200.000	0.036	0.185
-578.777	226.624	-0.109	0.179
-577.763	-200.000	-0.023	-0.152
-576.748	216.436	0.123	-0.197
-575.733	54.046	0.050	0.048
-574.719	-149.079	0.091	-0.007
-573.704	-200.000	0.012	0.086
-572.690	-36.182	-0.079	-0.043
-571.675	686.776	0.114	0.302
-570.661	706.193	-0.058	0.155
-569.646	-39.194	-0.060	-0.032
-568.631	800.000	-0.121	-0.454
-567.617	19.633	-0.364	0.296
-566.602	800.000	0.100	-0.290
-565.588	-69.266	-0.043	-0.017
-564.573	-200.000	0.016	0.341
-563.558	-55.494	-0.210	0.095
-562.544	-115.290	0.232	0.044
-561.529	-112.407	0.222	0.045
-560.515	800.000	-0.060	-0.197
-559.500	800.000	0.016	0.056
-558.485	57.410	0.081	0.079
-557.471	-184.602	-0.307	-0.005
-556.456	-130.284	-0.221	0.030
-555.442	-123.156	0.152	-0.025
-554.427	56.874	0.114	0.112
-553.412	-200.000	0.008	0.180
-552.398	44.588	-0.098	-0.091
-551.383	-26.367	0.188	0.111
-550.369	14.796	-0.291	-0.230
-549.354	-35.917	0.181	-0.099
-548.339	800.000	0.012	-0.047
-547.325	126.906	0.167	0.213
-546.310	-200.000	0.002	0.215
-545.296	664.521	-0.074	0.193
-544.281	-200.000	0.006	0.117
-543.266	-50.164	-0.220	0.105
-542.252	334.359	0.126	0.246
-541.237	249.667	-0.031	-0.054
-540.223	74.000	0.076	-0.081
-539.208	-200.000	-0.025	-0.129
-538.193	-79.919	0.222	0.075
-537.179	-200.000	0.046	-0.210
-536.164	-26.884	0.192	0.113
-535.150	169.165	0.178	0.257
-534.135	800.000	0.065	-0.212
-533.121	-155.679	0.103	-0.007
-532.106	361.674	0.082	-0.165
-531.091	759.230	-0.051	-0.139
-530.077	-22.911	0.201	-0.123
-529.062	159.441	-0.068	0.096
-528.048	-50.821	-0.167	-0.079
-527.033	681.068	-0.079	0.208
-526.018	6.234	-0.184	0.137
-525.004	-106.084	0.616	-0.140
-523.989	85.066	0.093	-0.103
-522.975	-13.285	-0.387	-0.253
-521.960	-15.533	0.075	-0.048
-520.945	2.442	-0.074	0.054
-519.931	-28.769	-0.223	-0.129
-518.916	800.000	0.008	-0.027
-517.902	132.971	-0.134	-0.175
-516.887	-200.000	-0.025	0.143
-515.872	200.796	0.236	-0.366
-514.858	-200.000	0.009	-0.119
-513.843	800.000	0.056	0.183
-512.829	-200.000	0.019	-0.220
-511.814	468.104	-0.091	-0.207
-510.799	-134.038	-0.060	0.007
-509.785	-108.435	-0.165	0.036
-508.770	-200.000	-0.029	0.168
-507.756	800.000	0.021	-0.065
-506.741	653.839	-0.078	-0.201
-505.726	800.000	0.056	0.224
-504.712	-116.974	-0.460	-0.085
-503.697	-115.526	0.100	0.019
-502.683	-200.000	-0.036	-0.189
-501.668	800.000	0.032	-0.138
-500.653	363.595	0.075	0.153
-499.639	800.000	0.065	0.202
-498.624	800.000	0.052	-0.150
-497.610	55.488	-0.142	-0.138
-496.595	800.000	-0.088	0.360
-495.581	-125.113	0.287	-0.044
-494.566	366.265	0.129	-0.261
-493.551	-200.000	0.011	-0.374
-492.537	-38.646	-0.117	0.062
-491.522	33.181	0.247	0.216
-490.508	-12.678	-0.208	-0.137
-489.493	-200.000	-0.047	-0.212
-488.478	77.016	0.185	-0.198
-487.464	-200.000	-0.045	-0.247
-486.449	238.226	-0.148	-0.247
-485.435	-4.304	0.152	0.106
-484.420	65.795	-0.082	-0.084
-483.405	148.977	0.125	0.170
-482.391	76.716	-0.194	-0.208
-481.376	-200.000	-0.025	-0.176
-480.362	585.282	0.053	0.131
-479.347	216.084	-0.045	-0.072
-478.332	150.776	-0.254	-0.347
-477.318	-145.748	-0.313	-0.028
-476.303	107.330	-0.023	0.028
-475.289	265.615	0.015	-0.027
-474.274	-191.480	0.186	-0.002
-473.259	22.745	-0.149	0.123
-472.245	-200.000	-0.034	-0.208
-471.230	665.530	0.038	0.100
-470.216	-94.401	-0.135	0.037
-469.201	-92.536	0.498	-0.141
-468.186	151.720	0.095	-0.131
-467.172	-200.000	0.000	0.070
-466.157	800.000	-0.025	0.090
-465.143	299.289	-0.210	-0.390
-464.128	-195.413	-0.173	-0.001
-463.113	183.819	-0.061	-0.091
-462.099	595.002	0.186	0.463
-461.084	-8.658	-0.113	-0.076
-460.070	703.855	0.094	-0.250
-459.055	-8.417	0.099	-0.067
-458.040	-200.000	0.004	0.069
-457.026	93.836	0.190	0.217
-456.011	-27.889	-0.080	0.047
-454.997	-122.240	0.311	-0.051
-453.982	-54.452	0.074	0.034
-452.968	194.348	0.208	-0.317
-451.953	-200.000	0.024	-0.116
-450.938	-26.458	0.047	-0.027
-449.924	-21.833	0.046	0.028
-448.909	-88.899	0.197	0.059
-447.895	-200.000	0.028	0.214
-446.880	800.000	0.069	-0.293
-445.865	-68.197	-0.096	0.038
-444.851	800.000	-0.051	0.164
-443.836	-200.000	0.013	-0.078
-442.822	-69.085	0.118	-0.046
-441.807	-109.891	-0.332	-0.070
-440.792	-28.157	-0.347	-0.202
-439.778	-28.264	0.044	-0.026
-438.763	-55.543	-0.035	0.016
-437.749	800.000	-0.053	-0.176
-436.734	-169.414	-0.291	0.011
-435.719	187.737	0.155	-0.233
-434.705	-200.000	0.007	-0.072
-433.690	148.255	-0.040	0.054
-432.676	-107.940	0.146	-0.032
-431.661	-62.787	-0.382	-0.159
-430.646	91.641	0.050	-0.056
-429.632	72.376	0.132	-0.138
-428.617	-200.000	-0.009	0.323
-427.603	-116.145	0.228	-0.043
-426.588	-200.000	0.047	-0.404
-425.573	-200.000	0.016	0.107
-424.559	-171.763	0.145	0.005
-423.544	101.073	0.158	-0.185
-422.530	-145.668	-0.165	-0.015
-421.515	-200.000	-0.010	-0.293
-420.500	-110.867	-0.126	-0.026
-419.486	-31.084	-0.155	0.088
-418.471	65.329	0.210	0.213
-417.457	-27.329	0.210	0.123
-416.442	0.123	0.236	-0.169
-415.428	-73.599	0.477	-0.175
-414.413	-45.625	0.374	0.186
-413.398	-43.896	-0.159	-0.080
-412.384	42.691	0.119	0.109
-411.369	606.279	0.054	-0.134
-410.355	-62.018	-0.169	0.071
-409.340	800.000	-0.083	0.272
-408.325	-200.000	-0.028	0.383
-407.311	-33.696	0.157	-0.087
-406.296	800.000	0.013	0.038
-405.282	247.766	-0.075	0.127
-404.267	-200.000	-0.023	-0.159
-403.252	110.171	0.147	-0.177
-402.238	347.258	-0.070	-0.138
-401.223	725.084	-0.105	0.282
-400.209	-151.018	-0.122	0.009
-399.194	-53.657	0.185	-0.085
-398.179	20.320	0.114	-0.092
-397.165	-200.000	0.025	0.166
-396.150	177.466	0.130	0.190
-395.136	-84.665	-0.115	-0.036
-394.121	-200.000	0.012	0.253
-393.106	644.645	-0.103	0.264
-392.092	220.789	-0.092	-0.148
-391.077	116.805	0.212	0.261
-390.063	23.055	-0.218	-0.180
-389.048	-152.563	0.283	-0.020
-388.033	391.654	0.111	0.232
-387.019	-16.884	0.019	-0.012
-386.004	-200.000	-0.036	0.165
-384.990	800.000	-0.024	-0.098
-383.975	201.756	-0.087	0.135
-382.960	146.897	0.146	0.196
-381.946	-34.352	-0.137	0.076
-380.931	-39.970	0.146	-0.076
-379.917	800.000	-0.050	0.215
-378.902	19.309	0.212	0.171
-377.888	-77.522	0.133	0.046
-376.873	-152.915	-0.344	0.024
-375.858	-131.403	0.199	-0.026
-374.844	227.272	-0.055	0.089
-373.829	-158.581	0.221	0.013
-372.815	43.849	-0.252	-0.231
-371.800	121.716	0.095	0.119
-370.785	455.249	0.224	-0.498
-369.771	666.338	-0.093	-0.240
-368.756	334.050	-0.096	-0.187
-367.742	-200.000	0.028	-0.210
-366.727	161.938	0.308	0.433
-365.712	77.310	0.202	0.215
-364.698	120.650	-0.148	0.185
-363.683	-200.000	-0.000	0.242
-362.669	-37.886	0.106	-0.056
-361.654	-107.503	0.451	0.099
-360.639	800.000	0.016	0.054
-359.625	-129.213	0.359	0.050
-358.610	-96.461	-0.378	-0.100
-357.596	90.458	-0.087	-0.098
-356.581	295.922	0.137	-0.252
-355.566	800.000	0.064	-0.219
-354.552	-97.649	0.206	-0.054
-353.537	-200.000	-0.014	0.110
-352.523	327.672	-0.047	-0.091
-351.508	11.026	0.196	0.150
-350.493	-136.376	-0.126	-0.015
-349.479	91.519	0.126	-0.141
-348.464	28.677	0.091	-0.077
-347.450	721.574	-0.088	-0.233
-346.435	-174.156	-0.365	-0.011
-345.420	-103.279	0.167	-0.039
-344.406	409.559	-0.034	-0.073
-343.391	-200.000	-0.035	0.246
-342.377	-97.456	-0.228	0.059
-341.362	-122.667	0.424	0.069
-340.348	703.580	0.090	0.238
-339.333	-200.000	-0.016	0.166
-338.318	800.000	-0.066	-0.225
-337.304	-111.119	-0.091	-0.019
-336.289	-36.362	0.146	-0.079
-335.275	563.543	-0.041	-0.098
-334.260	184.844	-0.108	-0.160
-333.245	14.915	0.061	-0.048
-332.231	82.637	-0.145	-0.158
-331.216	-67.641	0.411	-0.161
-330.202	-157.180	0.399	0.024
-329.187	186.277	0.124	-0.185
-328.172	482.954	-0.005	0.012
-327.158	-200.000	-0.022	0.213
-326.143	-102.208	-0.067	0.016
-325.129	-127.581	0.169	-0.024
-324.114	46.094	-0.390	-0.361
-323.099	115.731	-0.067	-0.082
-322.085	-200.000	0.026	0.129
-321.070	230.617	-0.040	0.066
-320.056	-84.792	-0.086	0.027
-319.041	-99.798	-0.343	0.086
-318.026	50.903	-0.279	-0.264
-317.012	-82.454	-0.082	0.027
-315.997	86.773	-0.139	-0.153
-314.983	-108.153	0.289	-0.063
-313.968	-83.227	0.211	-0.068
-312.953	-48.586	-0.022	-0.011
-311.939	-200.000	0.015	0.135
-310.924	47.138	-0.192	-0.179
-309.910	-15.876	0.044	-0.028
-308.895	-200.000	-0.017	0.092
-307.880	-200.000	0.013	0.094
-306.866	208.231	0.108	0.168
-305.851	28.637	0.128	0.108
-304.837	-31.396	-0.182	0.103
-303.822	-98.633	-0.192	-0.049
-302.807	17.403	0.034	0.027
-301.793	-112.792	-0.401	0.080
-300.778	-97.134	0.049	-0.013
-299.764	-82.326	-0.124	-0.040
-298.749	60.098	0.110	-0.108
-297.735	-200.000	0.010	0.096
-296.720	32.297	-0.072	-0.062
-295.705	-35.335	-0.186	0.101
-294.691	-79.321	0.228	-0.077
-293.676	212.796	-0.111	-0.175
-292.662	-138.336	-0.119	0.013
-291.647	-62.405	0.038	0.016
-290.632	800.000	0.075	0.232
-289.618	-9.936	0.235	-0.156
-288.603	7.695	-0.058	-0.043
-287.589	-47.838	0.251	0.122
-286.574	-200.000	-0.021	0.404
-285.559	91.562	-0.224	-0.251
-284.545	-41.798	0.110	0.056
-283.530	-200.000	0.006	0.058
-282.516	173.102	-0.121	0.174
-281.501	-137.299	-0.377	-0.043
-280.486	-200.000	0.024	-0.267
-279.472	-200.000	0.004	-0.066
-278.457	-70.192	-0.239	0.091
-277.443	85.259	-0.102	0.112
-276.428	-125.828	-0.039	-0.006
-275.413	-66.812	0.120	0.048
-274.399	623.306	0.074	-0.185
-273.384	232.253	-0.103	-0.168
-272.370	-0.171	0.143	0.102
-271.355	160.475	-0.039	0.054
-270.340	95.164	-0.096	-0.109
-269.326	-200.000	0.014	0.149
-268.311	-200.000	-0.037	-0.164
-267.297	284.624	0.065	-0.117
-266.282	800.000	-0.044	0.167
-265.267	585.702	-0.049	0.121
-264.253	125.858	0.205	0.258
-263.238	69.521	-0.069	0.071
-262.224	-50.561	0.325	0.153
-261.209	-200.000	0.001	0.163
-260.195	-66.904	-0.110	-0.043
-259.180	222.857	-0.175	0.282
-258.165	408.843	-0.132	0.279
-257.151	-200.000	0.051	0.258
-256.136	223.162	0.134	0.215
-255.122	-151.661	0.120	0.009
-254.107	366.071	-0.065	0.131
-253.092	278.385	-0.088	0.156
-252.078	-200.000	0.006	-0.170
-251.063	-29.904	0.299	0.170
-250.049	163.934	-0.123	-0.173
-249.034	-47.287	-0.147	-0.071
-248.019	190.707	-0.034	0.052
-247.005	363.927	0.021	0.043
-245.990	463.203	-0.122	0.272
-244.976	-110.357	-0.214	0.044
-243.961	520.039	-0.193	0.451
-242.946	-148.896	0.114	-0.009
-241.932	-200.000	-0.010	-0.111
-240.917	-127.528	0.091	-0.013
-239.903	83.767	-0.130	-0.142
-238.888	19.300	0.267	0.214
-237.873	136.695	0.227	-0.295
-236.859	-5.168	0.204	0.140
-235.844	-6.521	-0.203	-0.138
-234.830	244.356	0.069	-0.115
-233.815	334.236	-0.095	0.184
-232.800	239.262	0.099	-0.165
-231.786	-54.629	-0.224	-0.101
-230.771	-19.135	0.166	-0.103
-229.757	424.386	-0.078	0.168
-228.742	-200.000	0.006	0.272
-227.727	-17.501	-0.122	0.077
-226.713	39.875	0.151	0.135
-225.698	-200.000	-0.036	0.181
-224.684	8.621	-0.106	-0.079
-223.669	-145.997	0.025	0.002
-222.655	713.798	-0.074	-0.195
-221.640	800.000	-0.052	-0.173
-220.625	-66.658	0.388	0.153
-219.611	-150.022	-0.352	0.027
-218.596	-49.649	0.314	-0.149
-217.582	-165.739	-0.180	0.008
-216.567	-200.000	-0.028	-0.177
-215.552	0.721	-0.245	0.175
-214.538	-200.000	0.019	-0.185
-213.523	-200.000	-0.013	-0.091
-212.509	59.885	-0.102	0.100
-211.494	253.321	0.030	-0.051
-210.479	-60.652	0.116	0.049
-209.465	-200.000	-0.006	-0.076
-208.450	-156.506	0.124	-0.008
-207.436	-200.000	-0.009	-0.334
-206.421	-200.000	0.008	-0.165
-205.406	-116.181	0.343	0.063
-204.392	-125.018	0.024	0.004
-203.377	800.000	0.085	0.240
-202.363	-200.000	-0.051	-0.369
-201.348	-200.000	0.008	-0.369
-200.333	-200.000	-0.002	-0.101
-199.319	800.000	-0.107	0.374
-198.304	4.348	0.280	-0.205
-197.290	800.000	-0.043	0.166
-196.275	-200.000	-0.025	0.135
-195.260	112.980	-0.198	-0.240
-194.246	302.397	0.325	0.598
-193.231	511.175	0.100	0.232
-192.217	-87.168	0.189	0.057
-191.202	-41.640	0.192	0.098
-190.187	800.000	0.048	0.142
-189.173	-169.051	-0.312	-0.012
-188.158	253.970	0.115	-0.195
-187.144	65.310	0.145	0.146
-186.129	-200.000	-0.034	0.235
-185.114	-130.169	-0.057	-0.008
-184.100	-77.357	0.199	-0.069
-183.085	-53.597	0.267	-0.121
-182.071	800.000	0.141	0.394
-181.056	-100.824	0.087	0.021
-180.042	119.127	0.134	-0.165
-179.027	-26.677	-0.407	0.237
-178.012	-79.815	-0.088	0.029
-176.998	-104.290	-0.201	0.046
-175.983	49.353	-0.236	0.221
-174.969	-12.889	-0.046	0.030
-173.954	-200.000	-0.017	0.182
-172.939	800.000	-0.097	-0.374
-171.925	-57.093	0.167	-0.073
-170.910	-69.390	0.170	-0.065
-169.896	-200.000	-0.027	0.174
-168.881	-200.000	0.025	0.244
-167.866	800.000	-0.032	-0.126
-166.852	-147.525	-0.324	0.027
-165.837	227.694	0.023	-0.037
-164.823	800.000	-0.121	0.438
-163.808	316.905	0.094	0.176
-162.793	-24.358	0.278	0.165
-161.779	430.211	-0.131	-0.282
-160.764	15.199	0.192	-0.150
-159.750	-200.000	0.003	-0.031
-158.735	-96.973	-0.288	-0.075
-157.720	-46.348	-0.128	0.063
-156.706	78.537	0.120	-0.127
-155.691	68.577	0.140	0.143
-154.677	-200.000	-0.020	-0.139
-153.662	-116.070	-0.257	-0.047
-152.647	688.309	-0.132	0.343
-151.633	-137.598	0.150	0.017
-150.618	-200.000	0.034	0.238
-149.604	415.808	-0.148	-0.314
-148.589	-69.987	-0.137	0.052
-147.574	800.000	0.036	0.104
-146.560	34.639	0.257	0.223
-145.545	-44.148	0.005	0.003
-144.531	-108.941	-0.189	-0.040
-143.516	-200.000	0.020	-0.200
-142.502	406.452	-0.134	0.281
-141.487	-56.454	0.392	0.173
-140.472	-67.809	-0.176	-0.068
-139.458	38.578	-0.156	-0.138
-138.443	187.675	-0.160	-0.237
-137.429	460.402	0.095	0.210
-136.414	-130.975	-0.198	0.026
-135.399	-33.382	-0.285	-0.157
-134.385	-13.989	-0.278	0.178
-133.370	-132.157	-0.201	0.026
-132.356	800.000	-0.106	0.339
-131.341	243.769	0.110	0.183
-130.326	-200.000	-0.039	-0.205
-129.312	-200.000	0.032	-0.218
-128.297	465.609	0.143	0.318
-127.283	800.000	0.042	0.177
-126.268	800.000	0.019	-0.052
-125.253	-60.619	0.281	-0.118
-124.239	147.511	0.062	0.083
-123.224	-48.290	-0.203	-0.097
-122.210	-30.290	-0.036	0.020
-121.195	64.731	0.092	-0.092
-120.180	800.000	0.035	0.136
-119.166	-134.813	0.340	-0.041
-118.151	800.000	0.067	0.201
-117.137	-200.000	-0.003	0.149
-116.122	278.183	-0.107	0.189
-115.107	709.397	-0.043	0.113
-114.093	-6.674	-0.070	0.047
-113.078	-59.667	0.036	-0.015
-112.064	280.441	-0.058	0.104
-111.049	461.163	-0.133	0.294
-110.034	800.000	0.061	-0.173
-109.020	-200.000	-0.024	-0.292
-108.005	-183.835	0.370	-0.006
-106.991	-39.810	0.253	0.131
-105.976	182.007	0.148	-0.217
-104.962	205.917	-0.173	-0.267
-103.947	-200.000	0.003	0.085
-102.932	240.796	-0.128	-0.212
-101.918	-102.198	0.166	-0.039
-100.903	-147.204	0.129	-0.011
-99.889	567.046	0.158	-0.381
-98.874	474.238	0.024	0.054
-97.859	370.836	-0.171	-0.345
-96.845	63.996	0.234	-0.233
-95.830	173.403	-0.176	-0.251
-94.816	800.000	0.048	-0.177
-93.801	-134.698	0.203	-0.024
-92.786	333.499	-0.114	0.219
-91.772	-41.681	0.053	0.027
-90.757	746.310	-0.020	0.052
-89.743	344.783	0.066	0.129
-88.728	-200.000	0.024	0.148
-87.713	-34.353	-0.237	0.129
-86.699	-74.900	0.259	0.092
-85.684	-200.000	0.030	0.287
-84.670	-200.000	-0.057	0.446
-83.655	-117.132	0.008	0.001
-82.640	-180.494	-0.230	-0.005
-81.626	206.127	-0.272	0.419
-80.611	215.049	0.024	0.038
-79.597	12.303	-0.296	-0.226
-78.582	-136.183	-0.156	-0.018
-77.567	-194.432	-0.133	0.001
-76.553	-200.000	0.021	0.254
-75.538	-200.000	0.012	-0.075
-74.524	-176.947	0.355	-0.009
-73.509	64.702	-0.114	0.114
-72.494	-200.000	-0.023	0.191
-71.480	10.222	0.253	0.191
-70.465	-13.263	-0.376	-0.242
-69.451	-200.000	-0.009	-0.272
-68.436	-46.698	0.056	0.027
-67.422	-200.000	0.024	0.265
-66.407	280.672	-0.034	0.060
-65.392	-29.985	0.035	-0.020
-64.378	-44.130	-0.420	0.209
-63.363	-150.626	-0.194	-0.015
-62.349	168.149	-0.234	0.330
-61.334	50.765	-0.861	-0.807
-60.319	12.058	0.348	0.265
-59.305	-200.000	-0.058	-0.578
-58.290	27.337	0.586	0.488
-57.276	307.916	0.751	1.387
-56.261	-200.000	83.389	503.502
-55.246	457.863	1388.799	3056.498
-54.232	143.157	2625.864	3459.263
-53.217	103.852	2378.217	2766.785
-52.203	46.536	1985.212	1824.016
-51.188	41.037	1770.368	1582.959
-50.173	38.293	1724.599	1520.664
-49.159	52.850	1764.791	1670.782
-48.144	56.457	1784.157	1717.417
-47.130	40.956	1744.352	1558.814
-46.115	37.964	1729.671	1522.327
-45.100	37.771	1725.036	1516.682
-44.086	37.826	1722.121	1514.491
-43.071	37.700	1719.984	1511.574
-42.057	37.707	1717.507	1509.391
-41.042	37.750	1714.901	1507.367
-40.027	37.803	1713.012	1506.057
-39.013	37.780	1710.870	1503.938
-37.998	37.772	1709.509	1502.624
-36.984	37.806	1707.510	1501.067
-35.969	37.913	1706.656	1501.080
-34.954	38.046	1704.562	1500.202
-33.940	38.002	1702.732	1498.194
-32.925	37.954	1701.620	1496.784
-31.911	37.931	1699.976	1495.105
-30.896	37.859	1698.208	1492.942
-29.881	37.860	1696.558	1491.437
-28.867	37.972	1694.573	1490.489
-27.852	37.951	1693.309	1489.162
-26.838	37.945	1691.872	1487.789
-25.823	37.897	1690.187	1485.884
-24.809	37.963	1688.400	1484.754
-23.794	37.933	1687.315	1483.512
-22.779	37.927	1685.477	1481.790
-21.765	37.925	1684.235	1480.630
-20.750	37.890	1681.919	1478.270
-19.736	37.845	1681.315	1477.334
-18.721	37.993	1679.488	1476.790
-17.706	38.024	1677.538	1475.255
-16.692	38.022	1676.049	1473.872
-15.677	37.979	1675.301	1472.832
-14.663	37.934	1673.795	1471.112
-13.648	37.926	1672.321	1469.693
-12.633	37.957	1670.587	1468.349
-11.619	37.924	1669.389	1466.983
-10.604	37.932	1667.240	1465.098
-9.590	37.870	1666.282	1463.732
-8.575	37.975	1664.682	1463.054
-7.560	37.904	1663.305	1461.258
-6.546	37.986	1662.151	1460.803
-5.531	37.996	1660.739	1459.574
-4.517	37.875	1660.158	1458.103
-3.502	37.827	1658.791	1456.487
-2.487	38.001	1657.509	1456.602
-1.473	38.017	1646.297	1446.809
-0.458	35.809	1626.540	1413.189
0.556	30.332	1625.000	1375.817
1.571	27.008	1648.913	1370.895
2.586	25.984	1662.504	1374.272
3.600	23.279	1607.762	1308.941
4.615	13.076	1488.170	1141.290
5.629	2.866	1413.718	1016.756
6.644	0.627	1403.655	994.697
7.659	0.306	1402.986	992.022
8.673	0.317	1401.651	991.066
9.688	0.270	1399.507	989.152
10.702	0.104	1397.228	986.367
11.717	4.218	1403.968	1018.093
12.731	13.692	1419.890	1092.212
13.746	18.483	1425.582	1128.107
14.761	17.457	1422.670	1118.957
15.775	16.383	1419.698	1109.470
16.790	15.376	1417.127	1100.761
17.804	14.606	1414.110	1093.278
18.819	14.208	1412.992	1089.711
19.834	13.901	1412.017	1086.851
20.848	13.660	1410.458	1083.979
21.863	13.374	1408.821	1080.759
22.877	13.141	1408.138	1078.616
23.892	13.147	1406.602	1077.383
24.907	13.164	1406.269	1077.142
25.921	13.091	1405.152	1075.716
26.936	13.216	1404.179	1075.694
27.950	13.236	1403.115	1074.914
28.965	13.332	1402.383	1074.877
29.980	13.445	1400.978	1074.439
30.994	13.335	1400.816	1073.512
32.009	13.478	1399.952	1073.679
33.023	13.402	1398.516	1071.989
34.038	13.467	1397.132	1071.255
35.053	13.375	1396.060	1069.745
36.067	13.368	1394.693	1068.557
37.082	13.411	1393.842	1068.089
38.096	13.417	1392.839	1067.262
39.111	13.367	1392.816	1066.827
40.126	13.290	1391.551	1065.267
41.140	13.211	1390.781	1064.074
42.155	13.242	1390.173	1063.717
43.169	13.093	1390.723	1063.086
44.184	13.105	1390.212	1062.679
45.199	13.195	1389.390	1062.534
46.213	13.212	1388.894	1062.172
47.228	13.249	1387.621	1061.339
48.242	13.354	1386.885	1061.358
49.257	13.294	1385.292	1059.661
50.271	13.274	1383.687	1058.209
51.286	13.306	1382.334	1057.288
52.301	13.428	1380.654	1056.684
53.315	13.369	1379.595	1055.407
54.330	13.207	1379.158	1053.946
55.344	13.242	1377.647	1052.920
56.359	13.272	1376.114	1051.843
57.374	13.190	1375.605	1050.845
58.388	13.196	1374.629	1050.044
59.403	13.107	1374.303	1049.132
60.417	13.183	1373.638	1049.015
61.432	13.057	1372.730	1047.431
62.447	13.147	1371.271	1046.795
63.461	13.094	1370.262	1045.594
64.476	13.095	1369.157	1044.670
65.490	13.128	1367.924	1043.843
66.505	13.082	1366.517	1042.386
67.520	13.189	1364.982	1041.797
68.534	13.106	1364.093	1040.505
69.549	13.191	1363.321	1040.360
70.563	13.217	1361.517	1039.056
71.578	13.074	1360.807	1037.523
72.593	13.136	1359.938	1037.159
73.607	13.020	1359.073	1035.675
74.622	13.100	1357.736	1035.065
75.636	13.125	1357.281	1034.783
76.651	13.056	1356.640	1033.776
77.666	13.055	1356.142	1033.293
78.680	13.096	1355.556	1033.013
79.695	13.128	1354.568	1032.371
80.709	13.116	1353.752	1031.582
81.724	13.090	1352.970	1030.732
82.739	13.208	1352.165	1030.762
83.753	13.183	1350.819	1029.494
84.768	13.349	1349.591	1029.498
85.782	13.238	1348.936	1028.214
86.797	13.261	1347.607	1027.252
87.812	13.335	1345.894	1026.317
88.826	13.305	1344.745	1025.166
89.841	13.356	1344.200	1024.976
90.855	13.333	1342.875	1023.733
91.870	13.212	1342.409	1022.536
92.884	13.371	1341.094	1022.425
93.899	13.349	1340.864	1022.024
94.914	13.461	1339.746	1021.777
95.928	13.357	1338.844	1020.357
96.943	13.281	1338.095	1019.222
97.957	13.353	1337.183	1018.884
98.972	13.339	1336.202	1017.958
99.987	13.333	1335.145	1017.030
101.001	13.537	1333.624	1017.033
102.016	13.407	1332.929	1015.611
103.030	13.463	1332.335	1015.417
104.045	13.292	1331.321	1013.506
105.060	13.340	1330.031	1012.724
106.074	13.207	1329.186	1011.177
107.089	13.258	1327.309	1009.975
108.103	13.211	1326.187	1008.742
109.118	13.217	1324.860	1007.680
110.133	13.251	1323.577	1006.827
111.147	13.233	1322.212	1005.589
112.162	13.223	1320.998	1004.513
113.176	13.316	1320.214	1004.393
114.191	13.331	1319.051	1003.512
115.206	13.262	1318.374	1002.487
116.220	13.222	1316.442	1000.692
117.235	13.273	1315.518	1000.205
118.249	13.249	1314.505	999.200
119.264	13.297	1313.318	998.505
120.279	13.223	1312.126	997.063
121.293	13.223	1310.995	996.112
122.308	13.148	1310.207	994.973
123.322	13.206	1309.429	994.645
124.337	13.215	1307.830	993.398
125.352	13.235	1306.776	992.627
126.366	13.208	1305.664	991.536
127.381	13.318	1304.248	991.028
128.395	13.225	1303.144	989.545
129.410	13.300	1302.519	989.431
130.424	13.323	1301.847	988.972
131.439	13.270	1300.901	987.852
132.454	13.414	1299.909	987.871
133.468	13.325	1299.217	986.723
134.483	13.347	1298.073	985.898
135.497	13.392	1297.271	985.471
136.512	13.402	1296.114	984.563
137.527	13.351	1294.782	983.165
138.541	13.432	1292.904	982.134
139.556	13.278	1292.272	980.651
140.570	13.373	1290.679	979.915
141.585	13.344	1289.505	978.770
142.600	13.451	1288.109	978.257
143.614	13.400	1287.207	977.182
144.629	13.506	1286.454	977.148
145.643	13.460	1285.006	975.689
146.658	13.410	1283.567	974.220
147.673	13.443	1282.360	973.409
148.687	13.293	1281.421	971.732
149.702	13.396	1279.482	970.777
150.716	13.422	1277.858	969.610
151.731	13.330	1277.078	968.398
152.746	13.455	1275.828	968.095
153.760	13.442	1274.489	966.913
154.775	13.404	1273.679	965.994
155.789	13.409	1272.797	965.269
156.804	13.500	1271.500	964.731
157.819	13.445	1270.558	963.610
158.833	13.486	1269.514	962.973
159.848	13.671	1268.415	963.125
160.862	13.456	1267.949	961.439
161.877	13.524	1266.562	960.698
162.892	13.442	1265.531	959.355
163.906	13.494	1264.603	958.866
164.921	13.583	1263.342	958.344
165.935	13.422	1262.653	956.804
166.950	13.499	1261.849	956.554
167.964	13.551	1260.962	956.096
168.979	13.608	1260.266	955.815
169.994	13.602	1259.361	955.010
171.008	13.574	1258.843	954.371
172.023	13.593	1257.917	953.691
173.037	13.666	1257.174	953.465
174.052	13.655	1255.983	952.415
175.067	13.584	1255.019	951.193
176.081	13.588	1254.161	950.478
177.096	13.602	1253.411	949.908
178.110	13.574	1251.956	948.562
179.125	13.541	1250.843	947.446
180.140	13.552	1249.437	946.360
181.154	13.715	1248.036	946.145
182.169	13.634	1247.227	944.986
183.183	13.688	1246.240	944.462
184.198	13.754	1244.764	943.631
185.213	13.701	1243.946	942.631
186.227	13.833	1242.745	942.385
187.242	13.869	1241.290	941.403
188.256	13.908	1240.356	940.831
189.271	13.969	1239.490	940.438
190.286	13.768	1238.278	938.299
191.300	13.779	1237.515	937.700
192.315	13.627	1237.175	936.499
193.329	13.662	1236.373	936.010
194.344	13.777	1235.902	936.215
195.359	13.717	1235.409	935.423
196.373	13.867	1234.506	935.503
197.388	13.886	1234.332	935.393
198.402	14.013	1233.520	935.409
199.417	14.046	1232.608	934.822
200.432	14.077	1231.979	934.436
201.446	14.043	1231.356	933.691
202.461	14.144	1230.179	933.280
203.475	14.198	1228.783	932.440
204.490	14.065	1227.831	930.895
205.504	14.113	1226.386	929.980
206.519	14.006	1225.309	928.489
207.534	14.028	1224.054	927.575
208.548	14.047	1223.266	927.005
209.563	14.111	1222.532	926.723
210.577	13.953	1222.066	925.404
211.592	13.982	1220.744	924.482
212.607	14.085	1220.478	924.774
213.621	14.084	1219.210	923.725
214.636	14.252	1217.876	923.565
215.650	14.203	1216.926	922.489
216.665	14.169	1216.356	921.789
217.680	14.162	1215.515	921.032
218.694	14.416	1214.257	921.404
219.709	14.259	1213.834	920.132
220.723	14.219	1213.049	919.236
221.738	14.289	1212.184	918.884
222.753	14.257	1211.580	918.168
223.767	14.227	1210.756	917.294
224.782	14.341	1210.487	917.640
225.796	14.327	1209.548	916.768
226.811	14.383	1208.756	916.396
227.826	14.373	1208.476	916.046
228.840	14.280	1207.289	914.554
229.855	14.449	1206.669	914.936
230.869	14.351	1206.071	913.863
231.884	14.348	1204.978	912.936
232.899	14.386	1203.789	912.161
233.913	14.373	1203.550	911.831
234.928	14.390	1202.294	910.893
235.942	14.293	1201.782	909.894
236.957	14.377	1200.701	909.454
237.972	14.350	1200.210	908.854
238.986	14.447	1199.596	908.834
240.001	14.426	1198.621	907.900
241.015	14.462	1197.888	907.464
242.030	14.457	1197.175	906.816
243.045	14.575	1196.179	906.622
244.059	14.539	1195.335	905.708
245.074	14.506	1194.795	905.039
246.088	14.635	1193.789	904.894
247.103	14.539	1192.983	903.685
248.117	14.664	1192.579	903.976
249.132	14.673	1191.571	903.176
250.147	14.755	1190.983	903.099
251.161	14.829	1189.893	902.589
252.176	14.862	1189.405	902.317
253.190	14.805	1188.580	901.303
254.205	15.011	1188.114	901.982
255.220	14.895	1187.652	900.926
256.234	14.813	1187.327	900.159
257.249	14.820	1186.370	899.389
258.263	14.892	1185.971	899.395
259.278	14.825	1185.133	898.322
260.293	14.995	1184.125	898.392
261.307	14.962	1183.765	897.862
262.322	14.999	1183.032	897.422
263.336	15.072	1182.389	897.251
264.351	15.014	1181.794	896.405
265.366	15.044	1181.345	896.146
266.380	15.045	1180.843	895.692
267.395	15.040	1179.829	894.816
268.409	15.071	1178.506	893.901
269.424	15.030	1178.315	893.457
270.439	15.079	1177.774	893.231
271.453	15.087	1176.932	892.554
272.468	15.155	1175.349	891.636
273.482	15.067	1175.056	890.869
274.497	14.990	1174.754	890.151
275.512	14.983	1174.007	889.469
276.526	15.155	1173.250	889.727
277.541	15.055	1172.005	888.178
278.555	15.058	1171.306	887.582
279.570	15.153	1170.988	887.768
280.585	15.219	1170.177	887.425
281.599	15.173	1169.324	886.456
282.614	15.195	1168.622	885.964
283.628	15.193	1167.247	884.830
284.643	15.227	1166.356	884.254
285.657	15.228	1165.425	883.474
286.672	15.214	1164.532	882.647
287.687	15.274	1163.248	881.913
288.701	15.254	1162.573	881.219
289.716	15.292	1161.942	880.858
290.730	15.305	1161.285	880.350
291.745	15.364	1160.550	880.028
292.760	15.365	1159.614	879.246
293.774	15.471	1158.916	879.195
294.789	15.480	1158.605	878.926
295.803	15.534	1158.079	878.731
296.818	15.475	1157.181	877.663
297.833	15.544	1156.490	877.421
298.847	15.408	1155.633	875.985
299.862	15.435	1154.738	875.371
300.876	15.415	1154.327	874.875
301.891	15.401	1153.602	874.176
302.906	15.495	1152.853	874.021
303.920	15.566	1152.179	873.803
304.935	15.639	1151.580	873.648
305.949	15.648	1150.396	872.721
306.964	15.773	1149.687	872.757
307.979	15.646	1149.170	871.626
308.993	15.569	1148.806	870.875
310.008	15.676	1147.678	870.497
311.022	15.843	1146.454	870.354
312.037	15.815	1145.824	869.655
313.052	15.682	1145.059	868.308
314.066	15.744	1144.215	867.914
315.081	15.590	1143.395	866.423
316.095	15.721	1142.400	866.267
317.110	15.709	1142.017	865.836
318.125	15.758	1141.034	865.268
319.139	15.786	1140.169	864.675
320.154	15.731	1139.645	863.921
321.168	15.669	1139.428	863.359
322.183	15.711	1138.344	862.681
323.197	15.740	1138.114	862.575
324.212	15.733	1137.592	862.068
325.227	15.780	1136.701	861.557
326.241	15.850	1136.163	861.436
327.256	15.880	1134.736	860.429
328.270	15.809	1134.064	859.480
329.285	15.722	1133.162	858.279
330.300	15.793	1132.338	857.940
331.314	15.699	1131.560	856.793
332.329	15.840	1130.471	856.614
333.343	15.886	1129.292	855.874
334.358	15.894	1128.969	855.596
335.373	16.012	1127.900	855.312
336.387	15.951	1127.405	854.549
337.402	16.019	1126.390	854.047
338.416	16.019	1125.292	853.139
339.431	16.035	1125.280	853.136
340.446	15.989	1124.469	852.215
341.460	16.128	1123.341	851.985
342.475	16.061	1122.589	851.002
343.489	16.183	1121.673	850.848
344.504	16.176	1120.556	849.892
345.519	16.203	1119.727	849.323
346.533	16.164	1119.025	848.516
347.548	16.228	1118.706	848.521
348.562	16.331	1117.320	847.915
349.577	16.189	1117.015	846.894
350.592	16.157	1115.913	845.823
351.606	16.209	1115.208	845.474
352.621	16.169	1114.487	844.653
353.635	16.185	1114.152	844.405
354.650	16.225	1112.986	843.647
355.665	16.228	1112.308	843.073
356.679	16.217	1111.765	842.531
357.694	16.262	1110.786	841.938
358.708	16.332	1110.323	841.861
359.723	16.267	1109.581	840.901
360.738	16.372	1109.119	841.001
361.752	16.299	1108.647	840.205
362.767	16.390	1107.828	839.961
363.781	16.474	1107.128	839.774
364.796	16.392	1106.739	838.996
365.810	16.507	1105.752	838.747
366.825	16.506	1105.412	838.411
367.840	16.470	1105.089	837.909
368.854	16.566	1104.037	837.516
369.869	16.562	1103.447	836.973
370.883	16.627	1102.352	836.389
371.898	16.551	1101.826	835.542
372.913	16.620	1101.286	835.396
373.927	16.638	1100.938	835.149
374.942	16.651	1100.394	834.729
375.956	16.709	1099.723	834.429
376.971	16.697	1098.804	833.598
377.986	16.677	1098.793	833.420
379.000	16.676	1097.871	832.642
380.015	16.710	1097.611	832.536
381.029	16.850	1096.569	832.359
382.044	16.652	1095.978	830.868
383.059	16.644	1095.495	830.388
384.073	16.789	1094.579	830.333
385.088	16.816	1093.503	829.575
386.102	16.984	1092.317	829.422
387.117	16.733	1091.689	827.645
388.132	16.783	1090.865	827.190
389.146	16.785	1089.932	826.418
390.161	16.804	1089.099	825.808
391.175	16.752	1088.215	824.812
392.190	16.893	1087.522	824.901
393.205	16.845	1087.336	824.451
394.219	16.806	1086.193	823.323
395.234	16.869	1085.366	822.927
396.248	16.811	1084.504	821.920
397.263	16.937	1083.041	821.349
398.278	16.810	1082.564	820.300
399.292	16.769	1082.085	819.667
400.307	16.782	1081.244	819.018
401.321	16.839	1080.495	818.657
402.336	16.915	1079.450	818.158
403.350	16.866	1079.232	817.682
404.365	16.819	1079.291	817.427
405.380	16.991	1077.925	817.150
406.394	17.030	1077.083	816.628
407.409	17.004	1076.204	815.766
408.423	17.037	1075.472	815.297
409.438	17.179	1074.703	815.325
410.453	17.207	1073.951	814.816
411.467	17.332	1072.826	814.490
412.482	17.235	1072.148	813.438
413.496	17.245	1071.819	813.164
414.511	17.216	1071.513	812.719
415.526	17.309	1070.906	812.631
416.540	17.273	1070.567	812.133
417.555	17.323	1069.802	811.718
418.569	17.199	1069.361	810.721
419.584	17.314	1068.947	810.881
420.599	17.319	1068.126	810.210
421.613	92.649	1308.824	1411.255
422.628	85.699	1343.906	1411.381
