DTS Sentinel unit serial number:	SN413079Multiplexer serial number:	ORYXHardware model number:	OX4-SRSoftware version number:	ORYX F/W v4.00 Oryx Data Collector v3.7.2.0data status	okinstallation	princeton_trtdifferential loss correction	single-endedforward channel	channel 2reverse channel	N/Adate	2019/09/19time	02:55:35forward acquisition time	60.00reverse acquisition time	0.00gamma	496.2192k internal	0.2353k external	0.2353temperature offset calibration	1.0012default loss term (dB/km)	0.3790temperature slope calibration	1.0000multiplexer offset coefficient	1.0000multiplexer slope coefficient	1.0000fibre end	0.00T internal ref (°C)	20.87T ext. ref 1 (°C)	0.66T ext. ref 2 (°C)	14.66length (m)	temperature (°C)	Stokes	anti-Stokes-747.200	-158.075	-0.356	-0.021
-746.185	40.254	-0.388	-0.348
-745.171	140.430	0.217	0.286
-744.156	-200.000	-0.059	0.270
-743.142	-163.165	0.440	0.021
-742.127	-104.670	-0.309	-0.071
-741.112	420.358	0.060	-0.127
-740.098	15.477	0.180	0.141
-739.083	-200.000	-0.005	-0.034
-738.069	-59.984	-0.038	-0.016
-737.054	-200.000	0.003	-0.070
-736.039	-96.523	-0.233	-0.061
-735.025	-200.000	0.035	0.352
-734.010	312.497	-0.109	0.203
-732.996	-14.214	-0.201	-0.129
-731.981	800.000	0.061	0.183
-730.966	72.576	0.209	0.218
-729.952	611.622	-0.039	-0.098
-728.937	101.592	-0.067	0.078
-727.923	-143.408	0.332	-0.032
-726.908	-200.000	-0.030	-0.388
-725.894	-55.686	-0.306	-0.136
-724.879	-200.000	-0.064	0.308
-723.864	48.434	0.243	0.227
-722.850	161.805	0.026	-0.037
-721.835	-81.348	-0.072	0.024
-720.821	-200.000	-0.001	0.041
-719.806	-88.437	-0.209	-0.062
-718.791	-200.000	0.108	0.000
-717.777	-158.937	-0.238	0.013
-716.762	-77.357	0.095	-0.033
-715.748	-12.382	-0.106	-0.069
-714.733	-125.776	0.182	-0.027
-713.718	42.082	-0.147	-0.133
-712.704	729.838	0.155	-0.411
-711.689	-6.955	-0.137	-0.093
-710.675	-100.906	-0.274	-0.067
-709.660	-83.900	0.175	0.056
-708.645	-200.000	-0.030	-0.289
-707.631	138.920	0.128	0.168
-706.616	-7.083	0.233	0.158
-705.602	480.625	-0.121	0.273
-704.587	-111.247	0.166	0.034
-703.572	-188.683	0.073	-0.001
-702.558	-98.077	0.357	-0.092
-701.543	800.000	-0.045	0.132
-700.529	800.000	0.026	0.079
-699.514	4.544	0.120	-0.088
-698.499	-200.000	-0.009	0.044
-697.485	242.882	0.217	0.361
-696.470	-114.979	0.343	0.065
-695.456	-160.579	0.167	0.009
-694.441	-200.000	0.020	0.198
-693.426	-200.000	-0.025	0.126
-692.412	-200.000	0.030	0.157
-691.397	-200.000	-0.003	0.040
-690.383	-130.060	0.309	0.042
-689.368	-200.000	-0.004	-0.034
-688.354	60.634	-0.064	0.063
-687.339	-140.767	0.141	0.015
-686.324	273.587	-0.181	-0.319
-685.310	-40.265	-0.084	0.043
-684.295	-93.148	0.318	0.088
-683.281	-200.000	-0.032	0.362
-682.266	40.024	0.049	0.044
-681.251	17.341	-0.257	-0.203
-680.237	248.736	0.062	0.104
-679.222	-182.417	0.202	-0.004
-678.208	-200.000	0.003	0.308
-677.193	423.832	-0.082	-0.174
-676.178	-116.313	-0.126	-0.023
-675.164	-116.708	0.106	0.019
-674.149	-120.754	0.119	-0.020
-673.135	86.475	-0.106	0.116
-672.120	-200.000	-0.096	0.433
-671.105	99.735	-0.020	-0.023
-670.091	491.940	-0.081	-0.185
-669.076	16.303	0.107	-0.084
-668.062	-103.900	-0.190	-0.044
-667.047	-200.000	0.039	0.253
-666.032	80.988	0.050	0.054
-665.018	187.760	0.147	0.219
-664.003	-104.205	0.102	-0.024
-662.989	-200.000	0.029	-0.220
-661.974	-56.317	-0.279	-0.123
-660.959	-200.000	0.003	-0.266
-659.945	800.000	-0.080	0.338
-658.930	86.529	-0.156	-0.171
-657.916	254.915	0.164	0.279
-656.901	-84.017	-0.287	-0.091
-655.886	511.158	-0.078	0.179
-654.872	-200.000	0.060	0.298
-653.857	-200.000	0.015	-0.136
-652.843	151.400	0.162	0.219
-651.828	24.666	0.216	-0.178
-650.814	-12.088	0.204	-0.133
-649.799	34.820	0.235	-0.204
-648.784	244.795	-0.072	0.121
-647.770	222.818	-0.105	-0.167
-646.755	690.934	0.095	-0.247
-645.741	-116.652	-0.178	0.033
-644.726	-44.023	-0.235	0.117
-643.711	-55.558	0.332	-0.148
-642.697	-93.474	0.097	0.027
-641.682	68.211	0.225	0.228
-640.668	684.894	-0.157	0.406
-639.653	-127.315	0.109	0.016
-638.638	800.000	-0.062	0.201
-637.624	-135.424	-0.201	-0.024
-636.609	-52.174	0.157	-0.073
-635.595	-34.919	0.319	0.173
-634.580	-68.482	-0.240	-0.092
-633.565	800.000	0.010	-0.036
-632.551	-174.823	0.323	0.009
-631.536	-42.879	-0.074	-0.037
-630.522	289.332	0.026	-0.046
-629.507	-108.128	-0.167	-0.036
-628.492	107.551	-0.128	0.152
-627.478	-200.000	0.019	0.119
-626.463	51.423	0.106	0.100
-625.449	-200.000	-0.066	0.317
-624.434	-23.510	-0.083	-0.049
-623.419	-91.478	-0.287	-0.081
-622.405	-200.000	0.020	-0.106
-621.390	119.088	-0.095	0.116
-620.376	560.050	0.131	0.314
-619.361	-17.085	-0.231	0.145
-618.346	557.966	0.063	0.150
-617.332	-200.000	0.105	0.492
-616.317	-200.000	0.032	-0.208
-615.303	-32.276	-0.293	0.162
-614.288	-200.000	-0.001	0.037
-613.273	-179.408	-0.243	-0.005
-612.259	-41.308	-0.166	-0.085
-611.244	14.770	0.241	0.187
-610.230	-6.815	-0.292	0.197
-609.215	-200.000	0.044	0.244
-608.201	282.747	0.244	0.434
-607.186	-200.000	-0.009	0.143
-606.171	-27.366	0.319	0.184
-605.157	36.985	-0.291	-0.255
-604.142	-189.955	-0.306	-0.003
-603.128	31.757	0.068	0.058
-602.113	295.530	0.124	-0.224
-601.098	328.341	-0.116	-0.220
-600.084	-128.657	-0.425	0.060
-599.069	-5.904	0.224	-0.152
-598.055	717.612	0.213	-0.561
-597.040	-53.826	0.121	-0.055
-596.025	-84.686	0.310	0.097
-595.011	-102.227	-0.237	-0.056
-593.996	-200.000	-0.239	0.000
-592.982	800.000	0.065	0.272
-591.967	-77.016	-0.483	-0.167
-590.952	-66.370	-0.341	0.134
-589.938	-200.000	-0.030	0.306
-588.923	-178.595	0.196	0.004
-587.909	-184.716	0.215	-0.003
-586.894	428.753	0.133	-0.285
-585.879	30.466	-0.226	0.191
-584.865	101.636	0.186	-0.214
-583.850	-200.000	-0.047	0.382
-582.836	207.112	-0.222	-0.344
-581.821	-32.442	-0.110	-0.061
-580.806	6.124	0.083	-0.061
-579.792	-140.667	0.349	-0.036
-578.777	497.515	0.099	-0.225
-577.763	-171.571	-0.136	-0.004
-576.748	-107.413	0.246	-0.053
-575.733	-80.805	0.079	0.026
-574.719	800.000	0.075	0.268
-573.704	249.607	-0.156	-0.263
-572.690	800.000	0.099	-0.331
-571.675	-103.303	0.121	0.028
-570.661	-50.373	-0.358	-0.168
-569.646	48.059	0.153	-0.142
-568.631	-115.694	0.305	0.057
-567.617	800.000	-0.125	-0.393
-566.602	239.611	-0.174	-0.286
-565.588	263.056	0.031	0.054
-564.573	79.620	-0.176	-0.187
-563.558	-156.062	0.402	0.025
-562.544	141.695	0.076	0.100
-561.529	26.800	0.131	0.109
-560.515	-200.000	0.008	-0.103
-559.500	149.171	-0.094	0.126
-558.485	-89.734	-0.030	0.009
-557.471	800.000	-0.067	-0.271
-556.456	-2.048	0.064	-0.044
-555.442	195.765	0.149	0.225
-554.427	-13.398	0.164	-0.105
-553.412	59.620	0.087	0.085
-552.398	-117.736	-0.238	-0.042
-551.383	-200.000	0.044	-0.236
-550.369	-57.389	-0.317	-0.138
-549.354	-137.268	-0.211	0.024
-548.339	-155.048	0.140	0.009
-547.325	-69.539	-0.213	-0.081
-546.310	3.786	0.207	0.150
-545.296	105.427	-0.142	-0.166
-544.281	800.000	-0.123	-0.387
-543.266	222.440	-0.203	-0.323
-542.252	259.106	0.169	0.288
-541.237	203.365	0.050	0.077
-540.223	208.756	-0.232	-0.360
-539.208	182.016	0.219	-0.319
-538.193	104.758	-0.152	0.177
-537.179	-28.922	0.051	0.029
-536.164	155.106	0.186	-0.253
-535.150	-94.206	0.133	-0.036
-534.135	-170.414	-0.663	-0.023
-533.121	-200.000	-0.017	0.089
-532.106	-200.000	-0.017	0.100
-531.091	7.776	-0.221	-0.164
-530.077	-153.543	-0.225	-0.015
-529.062	-42.173	-0.120	0.061
-528.048	-166.453	0.194	0.008
-527.033	-108.507	0.270	-0.057
-526.018	84.229	-0.116	0.125
-525.004	727.979	-0.073	-0.192
-523.989	37.287	-0.104	0.091
-522.975	693.847	0.036	0.094
-521.960	20.045	-0.204	-0.163
-520.945	-48.989	-0.209	0.099
-519.931	-42.122	0.093	-0.047
-518.916	-200.000	0.050	-0.300
-517.902	392.655	-0.185	0.380
-516.887	135.986	0.217	-0.280
-515.872	649.061	-0.097	-0.246
-514.858	215.823	-0.132	0.208
-513.843	168.035	-0.205	0.288
-512.829	92.971	0.115	-0.128
-511.814	-54.887	-0.205	-0.091
-510.799	112.556	0.267	-0.319
-509.785	76.333	-0.137	0.143
-508.770	800.000	-0.045	-0.153
-507.756	-89.893	-0.316	-0.091
-506.741	364.665	-0.176	0.350
-505.726	152.406	-0.051	-0.069
-504.712	-25.330	0.320	0.187
-503.697	-200.000	-0.038	0.282
-502.683	800.000	-0.008	-0.023
-501.668	-200.000	0.008	-0.286
-500.653	-49.970	0.173	0.081
-499.639	-174.137	-0.071	-0.002
-498.624	-110.766	-0.045	0.009
-497.610	-166.866	-0.136	0.006
-496.595	189.432	0.125	-0.184
-495.581	242.324	-0.063	-0.104
-494.566	-13.287	-0.238	-0.152
-493.551	-79.418	-0.231	-0.077
-492.537	116.752	-0.153	-0.186
-491.522	328.859	0.052	0.098
-490.508	-97.567	-0.155	-0.040
-489.493	800.000	0.063	-0.202
-488.478	53.971	0.209	0.198
-487.464	176.574	0.092	-0.133
-486.449	-90.491	-0.196	-0.056
-485.435	-200.000	-0.027	0.426
-484.420	-49.860	0.110	-0.052
-483.405	-200.000	0.004	-0.020
-482.391	183.812	0.165	-0.241
-481.376	-163.140	-0.037	-0.002
-480.362	-200.000	0.026	0.213
-479.347	-200.000	0.022	-0.121
-478.332	223.292	0.170	0.271
-477.318	-80.201	-0.205	0.068
-476.303	800.000	-0.030	0.104
-475.289	800.000	-0.033	-0.126
-474.274	28.871	-0.049	0.041
-473.259	22.160	0.107	-0.086
-472.245	22.565	-0.182	-0.147
-471.230	495.200	-0.044	0.099
-470.216	178.847	0.132	-0.190
-469.201	57.344	-0.166	-0.160
-468.186	-10.837	0.334	-0.218
-467.172	255.626	0.115	-0.195
-466.157	-103.127	0.156	-0.036
-465.143	382.118	0.141	0.285
-464.128	-98.104	0.382	0.097
-463.113	128.435	-0.174	-0.218
-462.099	-200.000	0.019	-0.253
-461.084	-106.615	0.319	-0.070
-460.070	0.275	0.119	0.084
-459.055	800.000	-0.038	-0.108
-458.040	-200.000	0.025	-0.186
-457.026	78.873	0.134	0.141
-456.011	-200.000	0.001	-0.173
-454.997	121.046	0.205	0.252
-453.982	-110.993	0.331	0.067
-452.968	-200.000	0.051	-0.275
-451.953	800.000	0.023	0.091
-450.938	595.508	-0.071	-0.174
-449.924	152.064	-0.174	-0.234
-448.909	182.653	0.052	-0.076
-447.895	251.398	-0.081	0.136
-446.880	92.897	-0.099	-0.110
-445.865	-112.672	0.099	0.019
-444.851	427.657	-0.257	0.546
-443.836	180.944	-0.248	0.359
-442.822	200.201	0.053	0.081
-441.807	-200.000	0.046	0.314
-440.792	-200.000	-0.033	-0.302
-439.778	-23.709	0.123	-0.073
-438.763	-200.000	-0.005	0.364
-437.749	455.816	-0.094	-0.205
-436.734	-17.156	0.248	-0.154
-435.719	-200.000	-0.005	-0.268
-434.705	-41.039	-0.051	0.026
-433.690	-17.518	0.195	0.121
-432.676	800.000	0.065	-0.216
-431.661	765.368	-0.091	-0.244
-430.646	250.035	0.084	-0.140
-429.632	-160.063	0.277	-0.015
-428.617	-121.595	-0.412	0.067
-427.603	-78.160	0.232	0.079
-426.588	189.069	0.244	0.360
-425.573	625.366	-0.055	-0.138
-424.559	-70.315	-0.244	-0.091
-423.544	82.846	0.202	0.217
-422.530	-200.000	-0.005	0.306
-421.515	-200.000	0.002	0.013
-420.500	-200.000	0.000	-0.131
-419.486	76.696	-0.201	0.209
-418.471	-180.000	-0.214	0.004
-417.457	-71.978	0.077	0.028
-416.442	-72.033	-0.127	0.046
-415.428	8.948	0.046	0.034
-414.413	-200.000	-0.003	-0.171
-413.398	144.180	0.012	0.016
-412.384	-200.000	0.053	-0.272
-411.369	-130.064	0.207	0.028
-410.355	-8.814	-0.082	-0.054
-409.340	317.322	0.122	-0.227
-408.325	-84.732	0.159	-0.049
-407.311	-159.599	-0.367	-0.020
-406.296	-27.241	-0.061	-0.035
-405.282	-145.977	-0.310	0.027
-404.267	376.155	0.049	-0.099
-403.252	104.084	-0.085	0.098
-402.238	137.127	0.260	0.334
-401.223	800.000	-0.039	0.117
-400.209	47.461	-0.163	-0.150
-399.194	38.450	-0.140	0.122
-398.179	-134.179	0.291	-0.035
-397.165	-56.427	0.143	0.062
-396.150	-52.359	-0.244	0.111
-395.136	-86.516	0.403	0.122
-394.121	-200.000	-0.018	0.123
-393.106	-200.000	-0.043	0.318
-392.092	-74.554	0.166	0.059
-391.077	-8.007	0.055	0.036
-390.063	-41.603	-0.140	0.071
-389.048	-135.900	0.150	0.017
-388.033	800.000	0.057	0.225
-387.019	114.258	-0.052	0.062
-386.004	-140.257	0.120	0.012
-384.990	800.000	0.020	0.057
-383.975	-176.908	0.240	0.006
-382.960	-35.653	0.101	-0.054
-381.946	-200.000	0.012	-0.178
-380.931	730.545	0.059	-0.154
-379.917	-200.000	-0.028	0.138
-378.902	220.895	-0.132	0.208
-377.888	68.358	0.170	-0.171
-376.873	-41.137	-0.263	0.133
-375.858	-70.578	0.283	-0.105
-374.844	-200.000	0.022	-0.103
-373.829	691.208	-0.051	-0.131
-372.815	-200.000	-0.057	0.263
-371.800	-40.699	-0.266	0.136
-370.785	-200.000	0.012	0.335
-369.771	-200.000	0.021	0.093
-368.756	-200.000	0.036	0.160
-367.742	800.000	-0.049	0.208
-366.727	-132.342	-0.386	-0.049
-365.712	-14.699	0.238	0.150
-364.698	-93.947	-0.063	0.017
-363.683	-200.000	0.050	0.396
-362.669	74.662	0.032	-0.033
-361.654	-155.533	0.172	0.011
-360.639	-200.000	0.005	-0.042
-359.625	-120.219	-0.119	-0.020
-358.610	-47.332	-0.304	0.145
-357.596	-176.500	-0.157	-0.004
-356.581	800.000	0.050	0.186
-355.566	107.949	-0.056	0.065
-354.552	-72.826	-0.294	0.106
-353.537	1.725	-0.200	-0.141
-352.523	-31.740	0.149	0.082
-351.508	157.555	0.117	0.159
-350.493	-45.467	-0.282	0.137
-349.479	408.070	-0.079	0.164
-348.464	800.000	0.061	-0.247
-347.450	-74.591	-0.130	-0.046
-346.435	57.971	-0.107	0.103
-345.420	-55.652	0.150	0.066
-344.406	-68.536	-0.140	0.053
-343.391	109.232	0.114	-0.134
-342.377	-92.141	-0.276	-0.077
-341.362	-148.941	-0.125	-0.010
-340.348	106.831	0.070	0.082
-339.333	204.060	-0.090	-0.137
-338.318	-200.000	0.015	0.255
-337.304	-42.437	0.156	-0.078
-336.289	39.991	-0.080	-0.071
-335.275	371.413	0.065	0.130
-334.260	-34.073	-0.077	0.041
-333.245	-200.000	-0.058	0.302
-332.231	-139.701	-0.162	0.017
-331.216	65.782	0.074	-0.073
-330.202	130.174	-0.102	0.128
-329.187	69.286	-0.128	0.129
-328.172	-200.000	-0.003	-0.098
-327.158	-60.364	0.091	0.038
-326.143	-200.000	-0.000	-0.073
-325.129	800.000	0.069	0.243
-324.114	90.540	-0.222	0.244
-323.099	100.900	0.138	0.157
-322.085	-20.756	-0.046	0.028
-321.070	94.767	0.168	0.187
-320.056	12.572	-0.065	0.049
-319.041	-186.484	-0.087	0.001
-318.026	81.115	-0.192	-0.203
-317.012	-120.949	-0.218	-0.036
-315.997	-3.317	-0.212	-0.145
-314.983	-200.000	-0.039	-0.340
-313.968	-80.614	0.226	-0.074
-312.953	37.990	0.329	-0.287
-311.939	46.639	0.125	-0.114
-310.924	-200.000	0.063	-0.273
-309.910	-74.671	-0.270	0.095
-308.895	800.000	0.010	-0.028
-307.880	96.185	0.107	-0.120
-306.866	-200.000	-0.026	0.225
-305.851	-4.488	0.044	-0.030
-304.837	-200.000	0.027	-0.132
-303.822	800.000	-0.077	0.250
-302.807	-82.919	0.369	0.117
-301.793	-200.000	-0.041	-0.415
-300.778	263.645	0.166	0.283
-299.764	-104.787	-0.124	-0.028
-298.749	289.257	-0.178	-0.316
-297.735	176.488	-0.117	0.167
-296.720	-7.856	0.291	0.192
-295.705	-200.000	-0.049	0.227
-294.691	-200.000	0.041	-0.249
-293.676	-113.830	0.040	-0.008
-292.662	-86.390	0.100	0.030
-291.647	-146.334	-0.083	0.007
-290.632	-123.397	0.097	-0.015
-289.618	286.647	-0.061	-0.108
-288.603	-142.561	0.160	-0.015
-287.589	371.871	0.098	-0.195
-286.574	292.390	0.091	-0.163
-285.559	800.000	0.037	0.110
-284.545	-26.315	-0.270	-0.155
-283.530	28.312	0.300	0.249
-282.516	-68.243	0.089	-0.034
-281.501	54.437	-0.037	-0.035
-280.486	-30.692	-0.163	-0.090
-279.472	718.243	-0.039	0.101
-278.457	6.550	-0.093	0.068
-277.443	-85.912	-0.318	0.096
-276.428	-17.814	0.167	0.102
-275.413	-101.758	-0.303	0.072
-274.399	38.272	-0.086	-0.075
-273.384	119.530	0.085	-0.104
-272.370	-180.371	0.144	-0.003
-271.355	800.000	-0.158	-0.459
-270.340	39.683	-0.227	0.199
-269.326	-123.553	0.456	0.071
-268.311	-200.000	-0.015	0.171
-267.297	27.733	0.019	0.015
-266.282	255.079	-0.048	0.080
-265.267	164.335	0.268	-0.370
-264.253	47.632	0.143	-0.130
-263.238	800.000	0.053	0.148
-262.224	-129.370	-0.088	0.012
-261.209	309.198	0.117	0.213
-260.195	563.267	-0.006	0.014
-259.180	-200.000	0.045	-0.258
-258.165	-200.000	-0.021	-0.153
-257.151	-59.733	-0.124	0.052
-256.136	165.054	-0.174	0.240
-255.122	645.307	-0.012	0.030
-254.107	144.843	0.203	-0.266
-253.092	-175.531	-0.184	0.005
-252.078	-200.000	-0.064	-0.340
-251.063	-92.161	0.424	0.117
-250.049	734.072	0.040	-0.106
-249.034	185.918	0.083	-0.120
-248.019	553.445	0.152	0.358
-247.005	73.113	0.141	0.144
-245.990	800.000	-0.020	0.063
-244.976	28.524	0.054	0.045
-243.961	-2.413	0.172	0.118
-242.946	442.945	0.075	0.161
-241.932	2.757	0.208	-0.148
-240.917	-63.076	-0.121	0.049
-239.903	-8.893	0.155	0.101
-238.888	-129.786	0.178	-0.024
-237.873	-200.000	0.003	-0.122
-236.859	540.369	-0.169	-0.392
-235.844	38.915	-0.038	0.033
-234.830	800.000	0.019	0.057
-233.815	-124.348	0.152	-0.023
-232.800	290.038	-0.095	-0.168
-231.786	47.285	-0.156	-0.142
-230.771	-200.000	-0.068	-0.408
-229.757	787.371	-0.077	-0.208
-228.742	-79.922	0.266	0.087
-227.727	654.181	0.098	-0.247
-226.713	1.307	-0.171	-0.120
-225.698	-200.000	0.004	-0.139
-224.684	-200.000	0.045	0.342
-223.669	-125.671	0.306	0.045
-222.655	440.031	-0.129	-0.275
-221.640	6.831	-0.323	0.235
-220.625	149.808	0.136	-0.181
-219.611	212.015	0.028	-0.043
-218.596	76.729	0.140	-0.145
-217.582	219.780	-0.115	0.181
-216.567	-6.527	-0.052	0.035
-215.552	-200.000	-0.018	-0.167
-214.538	-109.203	-0.069	-0.014
-213.523	800.000	0.069	0.199
-212.509	37.456	0.239	-0.207
-211.494	124.226	-0.301	0.369
-210.479	-162.840	-0.408	-0.019
-209.465	-125.332	0.219	0.033
-208.450	-146.051	0.266	0.023
-207.436	41.789	0.198	0.175
-206.421	507.894	-0.009	0.021
-205.406	592.214	-0.049	0.119
-204.392	566.857	0.035	0.083
-203.377	-94.548	0.224	-0.060
-202.363	-177.741	-0.057	-0.001
-201.348	-19.570	0.309	-0.187
-200.333	490.824	-0.145	0.323
-199.319	213.687	0.135	0.208
-198.304	106.547	-0.123	-0.143
-197.290	-116.010	-0.077	0.014
-196.275	103.698	0.345	-0.395
-195.260	-107.966	0.058	0.012
-194.246	-90.225	-0.133	0.038
-193.231	351.281	0.076	0.146
-192.217	-172.313	0.195	-0.006
-191.202	349.756	0.112	0.217
-190.187	-54.913	-0.177	-0.078
-189.173	73.021	0.176	-0.180
-188.158	107.548	0.167	0.194
-187.144	101.739	0.134	-0.152
-186.129	555.433	0.121	-0.284
-185.114	-172.210	-0.117	-0.004
-184.100	800.000	0.090	0.311
-183.085	94.256	0.136	0.151
-182.071	-67.365	-0.250	-0.096
-181.056	800.000	-0.023	-0.072
-180.042	-81.273	-0.107	-0.034
-179.027	-83.979	-0.427	0.132
-178.012	262.534	0.039	0.067
-176.998	-126.990	0.320	-0.046
-175.983	471.537	-0.114	0.251
-174.969	13.802	0.262	-0.198
-173.954	178.784	-0.072	-0.103
-172.939	135.774	-0.250	0.317
-171.925	-200.000	-0.003	-0.050
-170.910	181.194	-0.233	-0.334
-169.896	-26.581	-0.187	0.107
-168.881	-104.249	-0.319	0.072
-167.866	-12.004	0.097	0.062
-166.852	-72.152	0.235	0.085
-165.837	231.304	-0.078	0.124
-164.823	-114.774	-0.193	-0.036
-163.808	-200.000	-0.033	-0.140
-162.793	-200.000	-0.005	0.121
-161.779	-64.221	0.152	-0.060
-160.764	98.249	-0.227	-0.255
-159.750	800.000	0.017	-0.067
-158.735	1.307	0.131	-0.092
-157.720	96.246	0.055	-0.061
-156.706	16.356	0.273	0.210
-155.691	14.557	0.202	0.154
-154.677	137.341	-0.158	-0.201
-153.662	-120.454	-0.084	-0.014
-152.647	-40.968	0.181	0.091
-151.633	12.488	0.130	-0.098
-150.618	474.673	0.135	-0.297
-149.604	-200.000	0.010	0.133
-148.589	274.432	0.231	0.399
-147.574	-65.000	-0.184	-0.073
-146.560	799.239	-0.081	0.217
-145.545	-180.991	-0.454	0.009
-144.531	-45.703	-0.132	0.064
-143.516	56.347	0.168	-0.159
-142.502	-157.314	0.255	0.015
-141.487	800.000	0.046	0.130
-140.472	-85.536	0.102	0.031
-139.458	-42.732	-0.188	0.093
-138.443	-37.804	0.057	0.030
-137.429	167.012	-0.156	-0.216
-136.414	-139.424	0.177	-0.019
-135.399	-23.790	-0.180	0.105
-134.385	176.288	-0.163	-0.230
-133.370	549.901	-0.084	0.197
-132.356	800.000	0.078	-0.212
-131.341	-21.523	-0.233	0.138
-130.326	-200.000	-0.001	0.402
-129.312	800.000	-0.111	-0.308
-128.297	-200.000	-0.106	-0.000
-127.283	575.386	-0.062	-0.147
-126.268	221.689	-0.156	0.244
-125.253	-141.327	0.200	-0.020
-124.239	-127.573	0.360	-0.051
-123.224	100.389	-0.163	-0.184
-122.210	22.843	-0.164	0.131
-121.195	-64.185	-0.290	0.115
-120.180	257.127	-0.069	0.115
-119.166	6.634	-0.270	-0.196
-118.151	-98.953	0.249	0.061
-117.137	-108.093	0.162	-0.034
-116.122	475.001	-0.175	-0.384
-115.107	-157.397	-0.276	-0.016
-114.093	-200.000	-0.016	-0.273
-113.078	-61.219	-0.094	0.039
-112.064	-200.000	0.009	-0.147
-111.049	-153.557	0.364	-0.024
-110.034	-184.678	0.012	0.000
-109.020	134.357	0.305	0.385
-108.005	10.843	-0.266	-0.198
-106.991	-106.484	0.080	0.017
-105.976	639.131	0.032	0.080
-104.962	250.263	-0.079	-0.131
-103.947	-67.045	0.178	-0.068
-102.932	-97.546	0.223	0.056
-101.918	670.229	-0.134	0.337
-100.903	-200.000	0.018	-0.162
-99.889	-89.237	-0.383	0.110
-98.874	-34.476	0.166	-0.089
-97.859	96.944	0.213	0.238
-96.845	-160.818	-0.208	0.011
-95.830	-200.000	-0.231	0.001
-94.816	-200.000	0.003	0.161
-93.801	336.901	0.216	0.408
-92.786	-160.855	0.194	-0.010
-91.772	-143.893	0.361	0.033
-90.757	-200.000	0.047	0.259
-89.743	93.201	0.184	0.202
-88.728	-11.948	-0.148	-0.094
-87.713	-99.030	0.278	-0.068
-86.699	-200.000	-0.029	0.132
-85.684	-116.834	0.130	0.023
-84.670	735.146	-0.050	-0.129
-83.655	41.081	-0.104	-0.091
-82.640	-63.824	0.332	-0.132
-81.626	-80.353	0.216	-0.070
-80.611	589.464	-0.127	0.304
-79.597	-101.571	-0.163	-0.039
-78.582	-200.000	-0.012	-0.257
-77.567	606.171	-0.080	-0.193
-76.553	-139.660	0.219	0.023
-75.538	800.000	0.022	-0.063
-74.524	-84.589	0.047	-0.014
-73.509	29.083	0.441	0.363
-72.494	-200.000	-0.022	0.375
-71.480	800.000	0.108	-0.382
-70.465	800.000	-0.033	0.092
-69.451	-66.303	-0.171	0.066
-68.436	-200.000	0.007	-0.106
-67.422	627.260	-0.076	0.186
-66.407	23.367	0.105	0.084
-65.392	275.322	-0.069	0.120
-64.378	-136.508	0.083	0.009
-63.363	615.257	0.147	-0.359
-62.349	-200.000	0.006	-0.119
-61.334	47.442	-1.305	-1.181
-60.319	336.922	0.502	0.946
-59.305	800.000	-0.374	-1.258
-58.290	438.469	0.691	1.464
-57.276	800.000	0.504	1.453
-56.261	-200.000	136.099	684.056
-55.246	341.729	1678.772	3185.168
-54.232	134.042	2814.702	3538.279
-53.217	82.492	2313.089	2436.803
-52.203	29.670	1911.145	1578.359
-51.188	23.825	1706.852	1364.848
-50.173	21.919	1669.331	1320.463
-49.159	43.996	1742.569	1549.517
-48.144	40.964	1751.290	1533.872
-47.130	23.406	1702.483	1357.928
-46.115	20.952	1686.841	1326.743
-45.100	20.760	1682.030	1321.445
-44.086	20.679	1679.507	1318.799
-43.071	20.696	1676.747	1316.712
-42.057	20.759	1674.563	1315.422
-41.042	20.850	1672.624	1314.528
-40.027	20.736	1671.201	1312.502
-39.013	20.737	1669.023	1310.747
-37.998	20.747	1667.766	1309.780
-36.984	20.789	1666.579	1309.110
-35.969	20.818	1664.797	1307.877
-34.954	20.864	1663.259	1306.965
-33.940	20.814	1661.751	1305.350
-32.925	20.911	1659.896	1304.572
-31.911	20.746	1658.406	1302.114
-30.896	20.797	1656.518	1300.956
-29.881	20.868	1655.054	1300.285
-28.867	20.891	1652.965	1298.765
-27.852	20.915	1652.035	1298.166
-26.838	20.892	1650.457	1296.697
-25.823	20.827	1649.272	1295.232
-24.809	20.931	1648.315	1295.206
-23.794	20.922	1646.366	1293.555
-22.779	20.866	1645.514	1292.421
-21.765	20.948	1643.105	1291.079
-20.750	20.832	1641.917	1289.239
-19.736	20.975	1640.472	1289.109
-18.721	20.944	1639.552	1288.105
-17.706	20.943	1637.586	1286.505
-16.692	20.890	1636.683	1285.353
-15.677	20.900	1635.210	1284.221
-14.663	20.974	1633.839	1283.633
-13.648	20.880	1632.639	1281.953
-12.633	20.927	1630.615	1280.656
-11.619	20.960	1629.010	1279.584
-10.604	20.890	1627.495	1277.833
-9.590	20.886	1626.577	1277.032
-8.575	20.909	1625.176	1276.050
-7.560	20.893	1623.995	1274.952
-6.546	20.960	1622.714	1274.391
-5.531	20.942	1621.567	1273.305
-4.517	20.840	1620.943	1272.019
-3.502	20.886	1619.700	1271.332
-2.487	20.948	1617.458	1269.974
-1.473	20.480	1605.729	1257.324
-0.458	17.477	1586.546	1220.753
0.556	12.997	1588.846	1190.620
1.571	10.842	1613.324	1193.052
2.586	10.650	1625.450	1200.493
3.600	10.128	1570.512	1156.083
4.615	5.834	1465.175	1049.762
5.629	1.368	1408.362	980.191
6.644	0.717	1401.764	971.330
7.659	0.659	1400.674	970.116
8.673	0.714	1399.540	969.596
9.688	0.559	1397.397	967.035
10.702	0.422	1394.277	963.913
11.717	2.747	1396.671	980.356
12.731	8.821	1405.747	1025.609
13.746	14.839	1414.758	1070.754
14.761	16.980	1418.095	1086.922
15.775	16.567	1416.479	1082.939
16.790	15.764	1413.141	1075.163
17.804	14.765	1411.591	1067.505
18.819	14.399	1410.081	1063.932
19.834	14.224	1408.777	1061.741
20.848	14.026	1407.432	1059.368
21.863	13.769	1406.111	1056.649
22.877	13.658	1404.365	1054.535
23.892	13.497	1404.264	1053.339
24.907	13.447	1403.470	1052.333
25.921	13.566	1401.812	1051.755
26.936	13.657	1401.241	1051.813
27.950	13.646	1400.393	1051.009
28.965	13.600	1399.819	1050.198
29.980	13.771	1398.211	1049.977
30.994	13.753	1397.555	1049.277
32.009	13.796	1396.291	1048.507
33.023	13.861	1394.463	1047.455
34.038	13.749	1393.811	1046.168
35.053	13.757	1392.657	1045.256
36.067	13.675	1391.834	1044.028
37.082	13.748	1390.530	1043.416
38.096	13.840	1389.365	1043.033
39.111	13.724	1388.941	1041.890
40.126	13.635	1388.034	1040.562
41.140	13.681	1386.971	1039.962
42.155	13.529	1387.105	1039.011
43.169	13.609	1386.842	1039.227
44.184	13.541	1386.532	1038.480
45.199	13.611	1385.871	1038.327
46.213	13.584	1385.377	1037.697
47.228	13.628	1384.036	1036.876
48.242	13.649	1383.320	1036.378
49.257	13.718	1381.386	1035.271
50.271	13.724	1379.924	1034.118
51.286	13.735	1378.327	1032.898
52.301	13.721	1377.497	1032.098
53.315	13.677	1376.436	1030.938
54.330	13.661	1375.396	1029.971
55.344	13.572	1374.072	1028.332
56.359	13.571	1373.119	1027.524
57.374	13.601	1372.210	1026.940
58.388	13.587	1371.525	1026.247
59.403	13.610	1370.389	1025.450
60.417	13.574	1370.199	1024.993
61.432	13.594	1368.609	1023.841
62.447	13.458	1368.199	1022.599
63.461	13.397	1367.413	1021.546
64.476	13.479	1365.755	1020.720
65.490	13.465	1365.159	1020.102
66.505	13.468	1363.076	1018.472
67.520	13.506	1361.607	1017.517
68.534	13.575	1360.596	1017.098
69.549	13.543	1359.843	1016.248
70.563	13.457	1358.776	1014.833
71.578	13.612	1357.186	1014.502
72.593	13.466	1356.608	1013.086
73.607	13.334	1356.266	1011.935
74.622	13.532	1354.931	1012.062
75.636	13.401	1354.252	1010.666
76.651	13.416	1353.784	1010.314
77.666	13.366	1353.256	1009.527
78.680	13.444	1352.733	1009.523
79.695	13.495	1351.430	1008.776
80.709	13.493	1350.882	1008.261
81.724	13.525	1349.935	1007.661
82.739	13.626	1348.950	1007.453
83.753	13.642	1348.087	1006.814
84.768	13.603	1346.754	1005.496
85.782	13.659	1345.689	1004.947
86.797	13.715	1344.196	1004.085
87.812	13.542	1342.968	1002.035
88.826	13.624	1342.020	1001.732
89.841	13.586	1340.896	1000.576
90.855	13.669	1339.857	1000.210
91.870	13.681	1339.164	999.680
92.884	13.656	1338.167	998.692
93.899	13.705	1337.666	998.529
94.914	13.745	1336.682	997.942
95.928	13.782	1335.382	997.107
96.943	13.730	1334.734	996.222
97.957	13.786	1333.831	995.796
98.972	13.742	1332.621	994.545
99.987	13.672	1331.702	993.352
101.001	13.714	1330.533	992.644
102.016	13.818	1329.589	992.469
103.030	13.794	1328.709	991.586
104.045	13.694	1328.120	990.461
105.060	13.746	1327.074	989.904
106.074	13.701	1325.706	988.528
107.089	13.594	1324.012	986.538
108.103	13.610	1322.632	985.516
109.118	13.626	1321.389	984.599
110.133	13.604	1319.944	983.306
111.147	13.703	1318.349	982.613
112.162	13.508	1317.565	980.791
113.176	13.699	1316.063	980.717
114.191	13.750	1314.840	980.018
115.206	13.638	1313.958	978.610
116.220	13.731	1312.695	978.132
117.235	13.585	1312.146	976.778
118.249	13.621	1310.950	976.015
119.264	13.704	1309.258	975.156
120.279	13.601	1308.522	973.913
121.293	13.555	1307.369	972.701
122.308	13.550	1306.436	971.889
123.322	13.605	1305.060	971.106
124.337	13.674	1303.688	970.401
125.352	13.579	1303.394	969.542
126.366	13.617	1301.842	968.523
127.381	13.689	1300.370	967.761
128.395	13.638	1299.840	966.984
129.410	13.730	1298.749	966.622
130.424	13.637	1298.344	965.693
131.439	13.745	1296.686	965.007
132.454	13.577	1296.096	963.504
133.468	13.704	1294.546	963.002
134.483	13.692	1293.748	962.252
135.497	13.699	1292.904	961.581
136.512	13.612	1292.059	960.367
137.527	13.654	1290.299	959.215
138.541	13.621	1288.896	957.894
139.556	13.592	1288.049	957.014
140.570	13.757	1286.556	956.771
141.585	13.761	1285.273	955.757
142.600	13.848	1284.116	955.311
143.614	13.839	1283.305	954.570
144.629	13.836	1282.413	953.806
145.643	13.842	1281.419	953.021
146.658	13.906	1279.634	951.972
147.673	13.885	1278.199	950.701
148.687	13.729	1277.560	949.250
149.702	13.789	1276.283	948.560
150.716	13.762	1275.090	947.437
151.731	13.795	1273.962	946.702
152.746	13.860	1272.585	945.962
153.760	13.940	1271.482	945.515
154.775	13.832	1270.634	944.187
155.789	13.931	1269.185	943.593
156.804	13.963	1267.811	942.665
157.819	13.996	1267.104	942.243
158.833	13.967	1266.539	941.578
159.848	13.986	1265.296	940.673
160.862	13.998	1264.340	939.950
161.877	13.907	1263.385	938.641
162.892	13.912	1262.095	937.629
163.906	13.974	1261.201	937.230
164.921	13.964	1260.117	936.288
165.935	13.927	1259.244	935.346
166.950	13.961	1258.934	935.228
167.964	13.989	1257.618	934.321
168.979	14.039	1257.140	934.166
169.994	13.980	1256.270	933.106
171.008	14.130	1255.195	933.064
172.023	14.072	1254.642	932.246
173.037	14.142	1253.471	931.687
174.052	14.083	1252.585	930.614
175.067	14.062	1251.661	929.729
176.081	14.086	1250.861	929.185
177.096	14.049	1249.826	928.131
178.110	14.043	1248.486	927.017
179.125	14.143	1247.013	926.398
180.140	14.181	1245.791	925.620
181.154	14.208	1244.709	924.884
182.169	14.307	1243.279	924.290
183.183	14.201	1242.882	923.328
184.198	14.196	1240.969	921.799
185.213	14.308	1240.352	921.878
186.227	14.297	1239.107	920.808
187.242	14.319	1238.116	920.110
188.256	14.319	1236.990	919.193
189.271	14.302	1236.268	918.481
190.286	14.315	1234.941	917.485
191.300	14.178	1234.164	916.073
192.315	14.182	1233.461	915.495
193.329	14.307	1232.675	915.513
194.344	14.178	1232.568	914.647
195.359	14.371	1231.918	915.145
196.373	14.223	1231.643	914.043
197.388	14.329	1230.979	914.051
198.402	14.416	1230.262	913.915
199.417	14.376	1229.705	913.206
200.432	14.432	1228.948	912.867
201.446	14.452	1228.015	912.203
202.461	14.581	1227.094	912.145
203.475	14.545	1225.825	910.921
204.490	14.467	1224.903	909.731
205.504	14.503	1223.895	909.099
206.519	14.490	1222.289	907.754
207.534	14.525	1221.119	906.994
208.548	14.677	1219.701	906.689
209.563	14.459	1219.524	905.290
210.577	14.545	1218.494	904.911
211.592	14.658	1217.334	904.584
212.607	14.637	1216.615	903.858
213.621	14.616	1215.355	902.729
214.636	14.676	1214.638	902.441
215.650	14.738	1213.780	902.054
216.665	14.713	1212.676	901.024
217.680	14.766	1212.241	900.903
218.694	14.692	1211.377	899.782
219.709	14.691	1210.863	899.319
220.723	14.832	1209.540	899.014
221.738	14.742	1208.911	897.982
222.753	14.775	1208.203	897.555
223.767	14.705	1207.476	896.557
224.782	14.896	1206.465	896.752
225.796	14.919	1205.856	896.347
226.811	14.841	1205.322	895.449
227.826	14.876	1204.331	894.821
228.840	14.880	1203.649	894.257
229.855	14.884	1202.729	893.517
230.869	14.959	1201.684	893.062
231.884	14.917	1201.122	892.340
232.899	14.859	1200.615	891.574
233.913	14.850	1200.101	891.068
234.928	14.985	1198.804	890.743
235.942	14.792	1198.667	889.536
236.957	14.787	1197.981	888.920
237.972	14.789	1197.072	888.182
238.986	14.920	1195.772	887.830
240.001	14.886	1195.447	887.332
241.015	14.846	1194.391	886.259
242.030	14.987	1193.762	886.458
243.045	14.910	1192.906	885.339
244.059	14.958	1192.162	884.963
245.074	14.983	1191.361	884.419
246.088	15.053	1190.372	883.978
247.103	15.093	1189.904	883.760
248.117	15.121	1188.935	883.111
249.132	15.119	1187.875	882.236
250.147	15.167	1187.580	882.193
251.161	15.152	1186.630	881.331
252.176	15.277	1186.021	881.455
253.190	15.248	1185.195	880.611
254.205	15.368	1184.537	880.676
255.220	15.340	1184.083	880.113
256.234	15.329	1183.473	879.525
257.249	15.402	1182.550	879.142
258.263	15.348	1182.022	878.387
259.278	15.381	1181.247	877.909
260.293	15.472	1180.633	877.848
261.307	15.477	1180.381	877.610
262.322	15.390	1179.731	876.596
263.336	15.415	1179.061	876.148
264.351	15.415	1178.670	875.785
265.366	15.482	1177.688	875.327
266.380	15.572	1176.556	874.874
267.395	15.629	1175.895	874.603
268.409	15.480	1175.335	873.336
269.424	15.565	1174.681	873.215
270.439	15.542	1174.125	872.602
271.453	15.449	1173.467	871.552
272.468	15.498	1172.544	871.043
273.482	15.522	1171.676	870.445
274.497	15.481	1171.296	869.875
275.512	15.567	1170.440	869.611
276.526	15.666	1169.202	869.122
277.541	15.688	1168.852	868.898
278.555	15.644	1167.800	867.814
279.570	15.647	1167.342	867.413
280.585	15.684	1166.534	866.926
281.599	15.733	1165.201	866.111
282.614	15.836	1164.369	865.944
283.628	15.652	1163.485	864.267
284.643	15.667	1162.653	863.645
285.657	15.805	1161.796	863.642
286.672	15.667	1160.896	862.192
287.687	15.757	1159.642	861.644
288.701	15.821	1159.115	861.504
289.716	15.775	1158.348	860.620
290.730	15.808	1157.719	860.245
291.745	15.793	1157.107	859.639
292.760	15.787	1156.292	858.927
293.774	15.951	1155.557	859.144
294.789	15.859	1155.277	858.387
295.803	15.877	1154.700	857.974
296.818	15.932	1153.447	857.247
297.833	15.952	1152.867	856.845
298.847	15.941	1152.007	856.074
299.862	16.068	1151.007	855.898
300.876	16.033	1150.765	855.464
301.891	16.026	1149.927	854.733
302.906	16.129	1148.858	854.384
303.920	16.049	1148.517	853.647
304.935	16.142	1147.745	853.472
305.949	16.139	1146.983	852.815
306.964	16.040	1146.382	851.792
307.979	16.148	1145.641	851.710
308.993	16.181	1145.046	851.360
310.008	16.159	1144.340	850.647
311.022	16.231	1143.108	850.019
312.037	16.166	1142.673	849.291
313.052	16.138	1141.282	848.045
314.066	16.253	1140.284	847.806
315.081	16.165	1139.518	846.718
316.095	16.095	1138.963	845.882
317.110	16.200	1138.150	845.725
318.125	16.165	1137.659	845.110
319.139	16.300	1136.726	845.018
320.154	16.334	1136.170	844.704
321.168	16.198	1135.991	843.812
322.183	16.208	1135.324	843.294
323.197	16.251	1134.407	842.755
324.212	16.275	1133.801	842.348
325.227	16.325	1133.172	842.053
326.241	16.255	1132.711	841.288
327.256	16.334	1131.257	840.528
328.270	16.378	1130.351	840.001
329.285	16.343	1129.651	839.229
330.300	16.352	1128.438	838.302
331.314	16.302	1128.164	837.777
332.329	16.318	1127.277	837.123
333.343	16.468	1126.024	836.860
334.358	16.459	1125.121	836.069
335.373	16.386	1124.816	835.406
336.387	16.441	1123.658	834.747
337.402	16.354	1123.328	833.998
338.416	16.411	1122.570	833.641
339.431	16.459	1121.698	833.156
340.446	16.550	1120.622	832.734
341.460	16.660	1120.089	832.803
342.475	16.631	1119.332	832.023
343.489	16.593	1118.756	831.335
344.504	16.624	1117.614	830.566
345.519	16.631	1116.977	830.055
346.533	16.702	1115.855	829.496
347.548	16.774	1115.283	829.349
348.562	16.717	1114.532	828.436
349.577	16.691	1113.445	827.429
350.592	16.679	1112.697	826.743
351.606	16.710	1111.763	826.127
352.621	16.622	1111.608	825.506
353.635	16.635	1110.659	824.792
354.650	16.695	1110.379	824.803
355.665	16.685	1109.128	823.755
356.679	16.861	1108.501	824.071
357.694	16.732	1108.298	823.220
358.708	16.772	1107.276	822.585
359.723	16.835	1106.750	822.423
360.738	16.877	1106.300	822.220
361.752	16.734	1105.816	821.093
362.767	16.859	1105.037	821.051
363.781	16.887	1104.546	820.751
364.796	16.927	1103.681	820.226
365.810	16.965	1103.026	819.852
366.825	17.086	1102.172	819.725
367.840	17.002	1102.129	819.218
368.854	17.063	1101.291	818.817
369.869	17.040	1100.702	818.195
370.883	17.110	1099.351	817.455
371.898	17.138	1098.537	816.911
372.913	17.032	1098.798	816.526
373.927	17.079	1097.870	815.991
374.942	17.136	1097.356	815.810
375.956	17.114	1096.768	815.191
376.971	17.127	1096.466	814.959
377.986	17.147	1096.014	814.648
379.000	17.312	1095.279	814.819
380.015	17.288	1094.729	814.221
381.029	17.275	1093.916	813.483
382.044	17.306	1092.678	812.642
383.059	17.316	1092.086	812.177
384.073	17.399	1091.272	811.894
385.088	17.343	1090.179	810.743
386.102	17.267	1089.386	809.718
387.117	17.316	1088.592	809.290
388.132	17.362	1087.563	808.672
389.146	17.257	1087.232	807.854
390.161	17.425	1086.069	807.715
391.175	17.271	1085.535	806.520
392.190	17.476	1085.195	807.167
393.205	17.468	1083.952	806.134
394.219	17.406	1083.383	805.344
395.234	17.459	1082.392	804.788
396.248	17.469	1081.263	803.924
397.263	17.425	1079.940	802.660
398.278	17.481	1079.676	802.659
399.292	17.513	1078.694	802.010
400.307	17.587	1078.023	801.786
401.321	17.409	1077.433	800.438
402.336	17.474	1076.798	800.201
403.350	17.491	1076.356	799.884
404.365	17.563	1075.524	799.533
405.380	17.590	1074.881	799.108
406.394	17.577	1074.249	798.510
407.409	17.645	1073.239	798.006
408.423	17.706	1072.143	797.406
409.438	17.731	1071.963	797.320
410.453	17.717	1071.187	796.606
411.467	17.696	1070.115	795.641
412.482	17.659	1069.851	795.201
413.496	17.722	1068.989	794.784
414.511	17.680	1068.601	794.230
415.526	17.882	1067.843	794.534
416.540	17.919	1067.385	794.297
417.555	17.933	1066.913	793.941
418.569	17.855	1066.510	793.207
419.584	17.842	1066.176	792.825
420.599	17.935	1065.561	792.732
421.613	109.714	1332.942	1492.091
422.628	101.441	1371.840	1492.169
