DTS Sentinel unit serial number:	SN413079Multiplexer serial number:	ORYXHardware model number:	OX4-SRSoftware version number:	ORYX F/W v4.00 Oryx Data Collector v3.7.2.0data status	okinstallation	princeton_trtdifferential loss correction	single-endedforward channel	channel 2reverse channel	N/Adate	2019/09/11time	18:09:11forward acquisition time	60.00reverse acquisition time	0.00gamma	496.2192k internal	0.2285k external	0.2285temperature offset calibration	1.0025default loss term (dB/km)	0.3790temperature slope calibration	1.0000multiplexer offset coefficient	1.0000multiplexer slope coefficient	1.0000fibre end	0.00T internal ref (°C)	44.00T ext. ref 1 (°C)	1.15T ext. ref 2 (°C)	38.81length (m)	temperature (°C)	Stokes	anti-Stokes-747.200	-46.728	-0.256	0.129
-746.185	34.514	-0.253	0.227
-745.171	372.949	-0.108	-0.225
-744.156	-200.000	-0.246	0.001
-743.142	462.472	0.112	0.256
-742.127	349.540	-0.131	0.265
-741.112	655.036	-0.083	-0.219
-740.098	-91.720	-0.157	-0.046
-739.083	-113.203	0.082	0.017
-738.069	392.406	-0.183	0.391
-737.054	-141.721	0.166	0.017
-736.039	-88.114	0.058	0.018
-735.025	-121.073	0.266	-0.046
-734.010	165.365	0.124	-0.179
-732.996	-200.000	-0.018	0.165
-731.981	306.885	-0.141	-0.270
-730.966	800.000	-0.031	0.123
-729.952	-136.254	-0.350	0.042
-728.937	-92.812	0.381	0.109
-727.923	44.113	0.099	0.093
-726.908	-152.124	-0.037	-0.003
-725.894	-163.543	-0.171	0.008
-724.879	246.293	-0.109	0.189
-723.864	-115.197	-0.273	0.053
-722.850	-200.000	0.030	-0.354
-721.835	-95.131	0.086	-0.024
-720.821	683.001	0.005	-0.012
-719.806	19.495	-0.131	0.108
-718.791	184.779	-0.276	0.419
-717.777	-51.685	-0.236	-0.113
-716.762	419.455	0.119	-0.262
-715.748	-67.347	0.097	-0.039
-714.733	-200.000	0.046	-0.288
-713.718	6.815	0.227	-0.173
-712.704	-105.535	-0.124	0.029
-711.689	247.420	0.141	0.244
-710.675	51.716	0.177	-0.172
-709.660	-128.778	-0.391	0.057
-708.645	-107.330	0.331	-0.074
-707.631	-31.630	-0.189	-0.109
-706.616	415.337	-0.108	0.237
-705.602	800.000	-0.077	0.235
-704.587	581.865	0.124	-0.313
-703.572	-121.590	-0.032	-0.005
-702.558	-200.000	-0.019	0.091
-701.543	-200.000	-0.006	-0.114
-700.529	-200.000	-0.006	0.277
-699.514	97.611	0.137	-0.161
-698.499	-42.145	0.172	0.090
-697.485	-200.000	-0.003	-0.178
-696.470	64.956	-0.249	-0.257
-695.456	237.776	0.129	0.219
-694.441	-200.000	0.021	-0.118
-693.426	194.326	0.179	-0.278
-692.412	47.712	-0.183	0.175
-691.397	800.000	-0.057	0.245
-690.383	-110.910	0.149	-0.031
-689.368	-111.499	-0.155	-0.032
-688.354	-92.660	0.167	-0.048
-687.339	-96.064	0.192	0.052
-686.324	111.450	-0.176	0.217
-685.310	800.000	-0.014	0.041
-684.295	251.463	0.132	-0.231
-683.281	223.217	0.102	0.168
-682.266	-200.000	-0.018	-0.103
-681.251	800.000	0.042	-0.137
-680.237	-36.576	0.036	0.020
-679.222	14.409	0.135	-0.108
-678.208	-84.071	-0.270	0.088
-677.193	-4.880	0.094	0.066
-676.178	109.841	-0.171	0.210
-675.164	-166.629	0.174	0.007
-674.149	221.540	0.090	-0.148
-673.135	42.764	0.115	-0.107
-672.120	200.636	0.123	-0.193
-671.105	-73.100	-0.196	0.073
-670.091	209.391	-0.099	0.158
-669.076	-200.000	-0.042	0.396
-668.062	4.977	-0.058	-0.044
-667.047	-149.124	-0.125	-0.010
-666.032	15.391	0.164	-0.132
-665.018	4.649	-0.235	-0.177
-664.003	187.256	-0.212	0.323
-662.989	-0.237	0.263	0.192
-661.974	342.832	0.176	0.353
-660.959	-158.368	-0.085	-0.005
-659.945	-200.000	-0.008	0.038
-658.930	-9.315	0.247	0.169
-657.916	-9.485	0.264	-0.180
-656.901	60.712	0.134	-0.136
-655.886	2.023	0.142	0.105
-654.872	1.795	0.039	-0.029
-653.857	476.433	-0.023	-0.054
-652.843	-33.488	-0.279	0.158
-651.828	-200.000	-0.016	0.308
-650.814	42.096	-0.262	-0.243
-649.799	14.100	-0.154	-0.123
-648.784	345.477	0.147	-0.295
-647.770	-31.791	-0.304	-0.174
-646.755	179.900	-0.133	-0.200
-645.741	-200.000	-0.030	0.404
-644.726	175.236	0.213	0.316
-643.711	-67.818	-0.237	0.095
-642.697	800.000	0.043	0.154
-641.682	-200.000	0.008	-0.047
-640.668	268.011	-0.056	-0.101
-639.653	-200.000	0.010	0.078
-638.638	800.000	0.032	0.113
-637.624	486.102	0.076	0.176
-636.609	800.000	-0.078	0.274
-635.595	-48.885	0.122	0.060
-634.580	-190.553	-0.151	-0.002
-633.565	-200.000	-0.020	0.108
-632.551	119.461	-0.194	-0.246
-631.536	800.000	-0.073	0.218
-630.522	58.576	0.315	0.317
-629.507	111.826	0.246	-0.304
-628.492	-16.299	-0.297	0.193
-627.478	76.766	0.097	0.106
-626.463	-183.710	0.274	-0.005
-625.449	169.697	0.101	0.148
-624.434	800.000	0.034	-0.097
-623.419	-65.784	-0.242	-0.099
-622.405	-76.745	-0.090	-0.032
-621.390	-136.211	-0.374	-0.045
-620.376	8.982	0.099	0.076
-619.361	-133.569	0.094	0.012
-618.346	-130.468	0.190	0.026
-617.332	336.162	0.090	0.178
-616.317	-84.270	0.151	-0.049
-615.303	-50.973	0.278	0.134
-614.288	-172.661	0.311	-0.010
-613.273	15.171	-0.062	0.050
-612.259	-104.364	-0.136	-0.032
-611.244	12.625	0.275	-0.217
-610.230	427.116	0.106	0.234
-609.215	473.117	0.036	0.083
-608.201	-99.342	0.162	0.042
-607.186	-109.856	-0.193	-0.041
-606.171	-73.462	-0.294	0.110
-605.157	597.348	0.090	-0.227
-604.142	169.437	-0.097	0.141
-603.128	-200.000	-0.009	0.097
-602.113	208.301	0.188	0.300
-601.098	-200.000	0.004	0.029
-600.084	22.273	-0.114	0.095
-599.069	-140.091	0.241	-0.026
-598.055	-118.537	0.225	-0.041
-597.040	-83.664	-0.136	0.044
-596.025	83.382	-0.212	0.236
-595.011	136.541	0.107	0.143
-593.996	-51.179	0.167	-0.080
-592.982	-86.687	-0.110	-0.034
-591.967	-42.562	-0.367	-0.191
-590.952	-200.000	-0.025	0.112
-589.938	-200.000	0.034	0.454
-588.923	31.347	-0.240	0.210
-587.909	-200.000	0.003	-0.091
-586.894	45.411	-0.178	0.168
-585.879	355.816	0.064	-0.131
-584.865	-12.046	0.093	0.062
-583.850	571.307	0.024	-0.058
-582.836	358.389	-0.170	0.346
-581.821	-159.143	-0.232	0.013
-580.806	358.854	-0.143	-0.292
-579.792	64.082	0.268	0.275
-578.777	-140.781	-0.352	0.037
-577.763	-200.000	-0.038	0.209
-576.748	-7.524	0.104	0.072
-575.733	-72.912	0.189	0.071
-574.719	686.912	0.050	-0.134
-573.704	-200.000	0.015	-0.294
-572.690	596.514	-0.038	0.096
-571.675	800.000	0.096	0.326
-570.661	231.488	0.067	0.112
-569.646	-123.475	0.075	-0.012
-568.631	-16.165	0.262	-0.170
-567.617	206.378	0.036	0.056
-566.602	-127.522	-0.434	-0.064
-565.588	-134.724	-0.237	-0.029
-564.573	80.676	-0.028	-0.031
-563.558	-200.000	-0.004	0.053
-562.544	75.705	0.149	0.161
-561.529	12.319	0.191	0.150
-560.515	-38.514	-0.277	-0.149
-559.500	-10.364	-0.230	-0.155
-558.485	-200.000	-0.040	0.177
-557.471	-64.758	0.079	-0.033
-556.456	454.365	0.147	0.332
-555.442	776.933	-0.094	0.261
-554.427	762.928	-0.092	-0.254
-553.412	-69.655	0.197	-0.077
-552.398	-200.000	-0.003	-0.065
-551.383	-144.110	0.163	0.016
-550.369	40.054	-0.138	-0.127
-549.354	340.155	-0.066	-0.131
-548.339	-1.813	-0.014	-0.010
-547.325	131.185	-0.023	-0.030
-546.310	-200.000	0.036	-0.205
-545.296	800.000	0.005	-0.019
-544.281	30.551	-0.146	-0.127
-543.266	706.264	-0.118	0.318
-542.252	220.475	0.047	-0.077
-541.237	-58.096	0.372	0.165
-540.223	-137.505	-0.327	0.038
-539.208	-200.000	-0.011	-0.122
-538.193	-105.869	-0.135	0.031
-537.179	-200.000	-0.001	-0.086
-536.164	800.000	-0.077	-0.232
-535.150	800.000	-0.062	0.175
-534.135	-13.513	0.131	0.086
-533.121	-124.348	-0.577	-0.092
-532.106	51.849	0.291	-0.282
-531.091	-200.000	0.250	-0.001
-530.077	184.855	0.053	0.080
-529.062	68.074	-0.067	0.070
-528.048	-200.000	-0.004	-0.062
-527.033	-62.997	0.073	0.031
-526.018	439.626	0.102	-0.227
-525.004	-7.587	-0.463	0.319
-523.989	-200.000	-0.023	0.201
-522.975	3.717	0.229	-0.170
-521.960	-109.297	-0.397	0.086
-520.945	-102.650	0.289	-0.070
-519.931	542.689	-0.108	-0.262
-518.916	800.000	-0.039	-0.142
-517.902	-66.369	0.085	-0.035
-516.887	112.012	-0.213	0.262
-515.872	150.118	-0.312	0.431
-514.858	-103.984	-0.143	-0.034
-513.843	-31.250	0.294	-0.169
-512.829	417.071	0.108	-0.235
-511.814	-200.000	-0.008	-0.389
-510.799	-144.284	0.394	0.037
-509.785	-94.409	0.161	-0.045
-508.770	-105.444	0.162	0.038
-507.756	-105.200	0.275	-0.064
-506.741	547.209	0.064	-0.157
-505.726	-13.454	0.117	-0.077
-504.712	800.000	-0.030	0.097
-503.697	800.000	0.086	0.339
-502.683	-200.000	-0.043	-0.197
-501.668	-98.759	-0.143	-0.037
-500.653	103.073	-0.166	0.198
-499.639	413.212	0.128	-0.276
-498.624	-200.000	0.006	-0.109
-497.610	-19.380	-0.313	0.197
-496.595	-105.602	0.175	0.040
-495.581	5.866	0.072	-0.054
-494.566	-200.000	-0.044	-0.424
-493.551	-76.417	0.159	-0.057
-492.537	800.000	-0.042	-0.141
-491.522	170.199	-0.054	-0.079
-490.508	-73.931	0.050	0.019
-489.493	291.803	-0.108	0.200
-488.478	-12.698	-0.265	0.176
-487.464	-200.000	-0.006	0.107
-486.449	326.441	-0.152	-0.295
-485.435	249.461	-0.099	-0.171
-484.420	3.610	-0.215	0.159
-483.405	-178.760	0.439	-0.010
-482.391	-17.184	-0.257	0.165
-481.376	800.000	0.100	0.371
-480.362	21.717	-0.310	0.256
-479.347	800.000	0.071	0.303
-478.332	40.609	0.139	-0.128
-477.318	-200.000	-0.035	-0.175
-476.303	193.185	0.251	-0.386
-475.289	-200.000	-0.039	-0.233
-474.274	107.767	-0.111	-0.135
-473.259	-200.000	-0.089	0.439
-472.245	-76.821	0.197	0.070
-471.230	-62.494	0.106	0.045
-470.216	-54.690	0.461	0.212
-469.201	-200.000	-0.006	-0.118
-468.186	-5.710	0.312	0.217
-467.172	171.005	0.090	0.131
-466.157	-117.209	-0.298	-0.055
-465.143	-200.000	0.009	0.061
-464.128	-140.614	-0.320	-0.034
-463.113	-128.958	-0.269	-0.038
-462.099	326.417	0.032	0.061
-461.084	-74.087	0.516	0.190
-460.070	51.755	0.136	-0.131
-459.055	125.074	-0.217	-0.278
-458.040	-193.013	-0.150	-0.001
-457.026	86.332	0.120	-0.134
-456.011	-71.087	0.141	-0.054
-454.997	36.048	-0.128	-0.114
-453.982	199.674	-0.232	-0.361
-452.968	-158.629	-0.324	0.019
-451.953	-128.635	0.240	0.034
-450.938	-22.733	-0.173	0.106
-449.924	-200.000	0.025	-0.368
-448.909	25.869	-0.106	-0.089
-447.895	41.538	0.246	-0.226
-446.880	55.646	-0.183	0.180
-445.865	45.881	-0.179	0.168
-444.851	-200.000	-0.019	-0.300
-443.836	40.118	-0.164	0.150
-442.822	51.980	0.081	-0.078
-441.807	148.841	0.124	0.170
-440.792	297.282	-0.205	-0.382
-439.778	-13.512	-0.222	0.146
-438.763	76.492	-0.239	0.257
-437.749	-48.837	0.116	-0.056
-436.734	800.000	-0.132	-0.401
-435.719	-200.000	0.119	-0.586
-434.705	189.361	0.077	0.117
-433.690	800.000	-0.063	-0.196
-432.676	222.191	0.100	-0.163
-431.661	-200.000	0.018	-0.248
-430.646	-89.568	-0.340	0.101
-429.632	-85.474	-0.154	0.049
-428.617	-200.000	-0.004	0.052
-427.603	-111.675	-0.170	0.035
-426.588	-80.267	-0.201	-0.068
-425.573	-200.000	-0.028	-0.278
-424.559	-200.000	-0.023	-0.252
-423.544	58.601	0.137	-0.137
-422.530	140.033	-0.206	0.276
-421.515	-78.871	-0.179	-0.062
-420.500	165.512	0.106	0.152
-419.486	648.422	0.034	0.088
-418.471	-95.059	0.270	0.074
-417.457	66.838	-0.206	-0.212
-416.442	-61.792	-0.195	-0.083
-415.428	-119.175	0.057	0.010
-414.413	-200.000	0.013	-0.094
-413.398	-200.000	0.164	0.000
-412.384	299.268	-0.090	-0.167
-411.369	270.164	0.130	0.231
-410.355	-129.043	0.366	-0.052
-409.340	187.808	0.066	0.101
-408.325	118.707	0.097	-0.121
-407.311	83.993	0.070	-0.077
-406.296	800.000	-0.030	-0.122
-405.282	74.044	-0.113	0.120
-404.267	162.518	-0.089	0.127
-403.252	800.000	-0.008	-0.024
-402.238	-97.523	-0.150	0.040
-401.223	728.345	0.037	-0.100
-400.209	285.461	0.046	0.083
-399.194	108.010	0.130	0.157
-398.179	133.023	-0.127	-0.166
-397.165	-200.000	-0.035	0.171
-396.150	-185.345	0.489	0.008
-395.136	-14.108	-0.245	-0.160
-394.121	117.474	-0.145	0.181
-393.106	-72.254	0.084	-0.032
-392.092	-18.812	0.103	-0.065
-391.077	-101.924	-0.107	0.026
-390.063	476.812	-0.076	0.175
-389.048	45.184	0.240	0.224
-388.033	-149.415	-0.385	-0.031
-387.019	800.000	-0.051	0.184
-386.004	-9.077	-0.131	0.089
-384.990	-13.089	-0.344	-0.226
-383.975	800.000	0.032	0.125
-382.960	-29.865	-0.213	0.123
-381.946	444.204	0.109	-0.243
-380.931	-106.658	-0.250	-0.056
-379.917	-200.000	-0.041	-0.181
-378.902	-116.995	-0.291	0.054
-377.888	-200.000	0.010	0.063
-376.873	44.665	-0.081	0.076
-375.858	-200.000	0.000	-0.239
-374.844	15.186	-0.240	-0.190
-373.829	330.618	0.047	-0.092
-372.815	-153.578	-0.112	0.008
-371.800	-200.000	-0.012	0.080
-370.785	142.226	-0.067	-0.090
-369.771	-61.799	0.273	0.116
-368.756	800.000	0.055	0.154
-367.742	-92.883	0.105	0.030
-366.727	-1.556	-0.177	0.126
-365.712	-107.877	0.221	0.049
-364.698	800.000	0.080	0.226
-363.683	84.508	0.107	-0.118
-362.669	-156.708	0.097	0.006
-361.654	140.154	0.280	0.373
-360.639	451.513	-0.087	-0.195
-359.625	-200.000	-0.004	0.298
-358.610	-69.990	0.207	0.080
-357.596	235.784	-0.077	0.129
-356.581	61.268	0.362	-0.364
-355.566	-200.000	-0.015	-0.244
-354.552	-93.401	-0.190	0.053
-353.537	9.813	0.067	0.051
-352.523	-200.000	0.002	0.073
-351.508	330.952	0.226	-0.440
-350.493	80.332	0.160	-0.174
-349.479	122.790	0.180	-0.227
-348.464	-158.963	-0.068	-0.004
-347.450	-200.000	0.012	-0.139
-346.435	800.000	0.096	0.397
-345.420	-145.554	0.153	-0.014
-344.406	706.251	0.110	0.293
-343.391	306.999	-0.052	0.098
-342.377	1.455	-0.119	0.087
-341.362	-86.767	-0.066	-0.020
-340.348	-62.685	0.239	-0.100
-339.333	181.191	-0.262	0.389
-338.318	-82.142	-0.215	-0.071
-337.304	-48.226	0.193	0.094
-336.289	-200.000	0.000	0.350
-335.275	117.390	0.188	0.233
-334.260	-68.404	0.090	0.035
-333.245	-80.644	-0.336	-0.113
-332.231	800.000	0.046	0.157
-331.216	-40.700	-0.257	0.134
-330.202	99.071	0.228	-0.266
-329.187	-116.184	0.250	-0.047
-328.172	290.557	0.093	0.170
-327.158	-73.295	-0.149	-0.055
-326.143	-200.000	-0.008	-0.162
-325.129	49.641	0.228	0.217
-324.114	86.441	-0.247	-0.275
-323.099	-200.000	-0.043	0.254
-322.085	353.335	-0.094	-0.188
-321.070	47.791	0.155	0.146
-320.056	-200.000	0.030	-0.233
-319.041	89.495	0.208	-0.234
-318.026	-56.156	-0.184	-0.083
-317.012	575.162	0.142	0.349
-315.997	70.134	0.314	-0.328
-314.983	-56.595	0.251	0.112
-313.968	90.940	0.034	0.039
-312.953	181.115	-0.074	-0.110
-311.939	13.886	0.315	0.247
-310.924	0.815	-0.095	-0.068
-309.910	-149.425	-0.069	-0.006
-308.895	48.670	0.090	0.085
-307.880	-66.310	0.103	0.041
-306.866	-86.499	0.071	0.022
-305.851	800.000	0.018	-0.068
-304.837	-49.941	-0.327	0.157
-303.822	12.302	0.223	-0.173
-302.807	18.340	-0.232	0.187
-301.793	15.227	-0.267	0.211
-300.778	584.010	-0.116	0.288
-299.764	-200.000	-0.023	-0.126
-298.749	-118.291	0.340	0.061
-297.735	800.000	-0.123	-0.398
-296.720	-97.023	0.161	0.043
-295.705	131.390	0.102	-0.132
-294.691	-200.000	-0.034	-0.540
-293.676	488.080	0.100	-0.230
-292.662	800.000	-0.029	-0.122
-291.647	-86.076	-0.055	-0.017
-290.632	800.000	-0.084	0.262
-289.618	-53.254	0.415	-0.192
-288.603	47.168	-0.126	0.118
-287.589	-179.627	0.245	-0.005
-286.574	80.298	-0.132	0.144
-285.559	-29.169	-0.244	-0.141
-284.545	32.185	0.152	-0.132
-283.530	800.000	-0.074	-0.224
-282.516	-126.437	0.119	0.018
-281.501	282.671	0.091	0.165
-280.486	150.246	0.165	-0.226
-279.472	5.173	-0.245	0.182
-278.457	-42.506	0.216	-0.111
-277.443	123.941	-0.249	-0.315
-276.428	240.197	-0.093	0.157
-275.413	488.731	0.082	-0.189
-274.399	-200.000	-0.034	0.252
-273.384	132.764	0.148	0.193
-272.370	-164.717	0.135	0.006
-271.355	-57.890	0.207	-0.091
-270.340	231.970	0.150	-0.247
-269.326	-117.318	0.215	0.039
-268.311	113.892	0.146	-0.178
-267.297	-170.682	-0.140	0.005
-266.282	46.636	-0.096	-0.089
-265.267	-200.000	-0.016	-0.141
-264.253	-80.710	-0.283	-0.095
-263.238	-156.758	-0.298	0.019
-262.224	-176.341	-0.094	-0.002
-261.209	800.000	0.016	0.059
-260.195	-200.000	0.015	-0.211
-259.180	364.985	0.069	0.141
-258.165	800.000	-0.043	-0.181
-257.151	110.949	-0.111	0.135
-256.136	-200.000	-0.040	-0.261
-255.122	-200.000	-0.049	0.319
-254.107	115.417	0.150	-0.185
-253.092	2.621	0.170	0.124
-252.078	636.494	0.103	-0.263
-251.063	-90.768	0.056	-0.016
-250.049	-200.000	0.005	0.242
-249.034	-200.000	-0.015	-0.355
-248.019	-65.083	-0.110	0.045
-247.005	-131.292	-0.224	0.030
-245.990	800.000	-0.069	-0.202
-244.976	-180.789	0.088	-0.002
-243.961	-135.330	-0.140	-0.017
-242.946	-65.105	0.094	0.038
-241.932	-106.305	0.260	-0.059
-240.917	423.656	-0.075	0.163
-239.903	800.000	0.013	-0.043
-238.888	176.538	0.192	0.281
-237.873	-43.577	0.200	-0.102
-236.859	240.248	0.085	-0.143
-235.844	-5.691	0.150	-0.103
-234.830	-200.000	0.029	0.235
-233.815	312.928	-0.013	-0.025
-232.800	51.936	0.101	0.097
-231.786	-121.043	0.548	0.093
-230.771	800.000	0.119	0.377
-229.757	490.180	0.076	-0.174
-228.742	-36.174	-0.110	0.060
-227.727	63.883	-0.055	0.056
-226.713	238.820	-0.090	0.151
-225.698	202.934	-0.140	0.218
-224.684	-200.000	0.021	0.209
-223.669	-71.800	0.228	-0.086
-222.655	321.789	0.108	-0.207
-221.640	-86.650	-0.075	-0.023
-220.625	334.799	-0.218	-0.425
-219.611	-110.122	0.155	-0.032
-218.596	-115.292	0.316	-0.060
-217.582	-7.910	-0.127	0.086
-216.567	-41.968	0.109	0.056
-215.552	-200.000	-0.021	-0.112
-214.538	-129.964	0.108	-0.015
-213.523	-38.763	-0.205	-0.109
-212.509	113.472	-0.270	0.329
-211.494	478.712	-0.177	-0.403
-210.479	-105.745	0.295	0.067
-209.465	800.000	0.046	-0.182
-208.450	-3.869	0.024	0.017
-207.436	-200.000	0.011	-0.145
-206.421	3.394	0.348	0.255
-205.406	-200.000	0.019	0.305
-204.392	-200.000	0.001	0.056
-203.377	198.559	0.107	-0.165
-202.363	-6.143	-0.276	-0.190
-201.348	388.058	0.173	0.359
-200.333	95.392	-0.151	-0.173
-199.319	393.837	0.156	0.326
-198.304	17.342	-0.084	0.067
-197.290	117.109	-0.061	0.076
-196.275	-125.250	-0.227	0.035
-195.260	800.000	-0.020	-0.060
-194.246	800.000	0.027	0.080
-193.231	328.468	0.291	0.562
-192.217	800.000	0.086	-0.249
-191.202	-200.000	0.033	-0.266
-190.187	-86.431	-0.569	-0.176
-189.173	-200.000	-0.010	0.335
-188.158	589.949	0.043	-0.105
-187.144	800.000	-0.029	-0.091
-186.129	-102.714	0.568	-0.136
-185.114	-45.771	0.116	-0.058
-184.100	-136.964	0.359	-0.041
-183.085	588.341	-0.093	-0.230
-182.071	135.093	0.163	-0.213
-181.056	146.100	-0.054	-0.073
-180.042	800.000	0.045	0.159
-179.027	-40.807	0.126	0.065
-178.012	230.041	-0.100	-0.165
-176.998	-143.365	-0.164	0.016
-175.983	-74.742	-0.153	0.055
-174.969	-25.742	0.336	-0.199
-173.954	-114.617	-0.151	-0.029
-172.939	-200.000	0.009	0.044
-171.925	-200.000	-0.009	0.150
-170.910	184.579	-0.190	-0.283
-169.896	22.052	-0.052	0.042
-168.881	494.224	-0.137	0.315
-167.866	-75.035	-0.212	-0.076
-166.852	112.478	-0.293	0.356
-165.837	800.000	-0.076	0.218
-164.823	261.579	0.215	-0.374
-163.808	56.803	-0.145	0.141
-162.793	297.004	-0.139	0.256
-161.779	-169.250	-0.133	-0.005
-160.764	-77.859	0.192	-0.066
-159.750	-200.000	0.047	-0.243
-158.735	-90.396	0.110	-0.032
-157.720	366.173	-0.163	-0.331
-156.706	-108.647	0.066	0.014
-155.691	183.162	0.075	0.111
-154.677	-126.582	-0.606	-0.090
-153.662	-135.548	-0.129	0.015
-152.647	110.479	-0.167	0.201
-151.633	-137.317	-0.271	0.031
-150.618	-200.000	0.037	0.274
-149.604	90.127	-0.159	-0.179
-148.589	-128.084	-0.317	0.045
-147.574	41.025	0.130	0.118
-146.560	-200.000	0.003	-0.203
-145.545	-200.000	-0.111	0.000
-144.531	-71.331	-0.329	0.124
-143.516	254.720	0.066	-0.113
-142.502	-200.000	0.030	-0.499
-141.487	-140.470	0.340	-0.036
-140.472	38.380	0.159	-0.142
-139.458	631.812	0.044	0.112
-138.443	-200.000	0.039	0.259
-137.429	-92.594	0.198	0.056
-136.414	350.924	0.086	0.170
-135.399	-126.461	0.390	-0.058
-134.385	-92.729	0.120	0.034
-133.370	-76.402	-0.227	0.080
-132.356	-200.000	-0.217	0.001
-131.341	39.046	0.169	0.152
-130.326	-192.475	-0.164	0.002
-129.312	86.493	0.172	0.190
-128.297	-178.214	0.197	0.005
-127.283	319.058	0.058	-0.111
-126.268	800.000	-0.063	-0.250
-125.253	107.281	-0.288	-0.343
-124.239	695.879	0.024	-0.064
-123.224	83.923	0.145	-0.159
-122.210	-132.881	-0.179	-0.023
-121.195	-200.000	-0.004	0.050
-120.180	-8.644	0.194	0.130
-119.166	-200.000	0.014	0.334
-118.151	800.000	-0.023	-0.089
-117.137	-80.230	-0.249	0.084
-116.122	-40.996	0.233	0.121
-115.107	300.933	-0.087	0.162
-114.093	800.000	0.044	0.137
-113.078	-110.806	0.282	0.058
-112.064	-142.368	-0.081	-0.008
-111.049	-51.651	0.259	0.121
-110.034	-101.960	-0.161	-0.039
-109.020	-106.472	-0.111	0.025
-108.005	800.000	-0.053	0.221
-106.991	213.144	-0.139	0.220
-105.976	-93.039	0.126	0.035
-104.962	-44.664	0.255	0.128
-103.947	214.251	0.141	0.224
-102.932	-39.566	0.099	0.052
-101.918	221.837	0.116	-0.186
-100.903	46.025	-0.249	-0.230
-99.889	-20.361	0.120	0.074
-98.874	-80.311	0.120	-0.040
-97.859	-200.000	0.001	0.335
-96.845	-200.000	0.009	-0.107
-95.830	-4.502	0.370	-0.256
-94.816	64.700	-0.306	0.309
-93.801	-200.000	0.014	0.107
-92.786	800.000	0.048	0.161
-91.772	-130.797	0.207	-0.028
-90.757	-77.874	0.066	0.023
-89.743	-113.151	-0.098	-0.019
-88.728	55.287	-0.212	0.206
-87.713	-73.741	0.208	0.076
-86.699	800.000	-0.021	-0.063
-85.684	-200.000	-0.012	0.088
-84.670	-69.366	-0.355	-0.136
-83.655	134.084	0.184	0.238
-82.640	235.298	0.060	0.100
-81.626	37.683	-0.111	-0.099
-80.611	15.535	0.206	-0.162
-79.597	-79.881	0.234	0.079
-78.582	747.350	-0.089	-0.239
-77.567	157.223	-0.106	0.146
-76.553	78.582	0.162	0.173
-75.538	149.311	-0.193	0.261
-74.524	-105.703	-0.177	-0.040
-73.509	558.801	0.048	0.116
-72.494	-200.000	-0.001	0.181
-71.480	-101.959	-0.203	0.049
-70.465	66.928	0.240	-0.244
-69.451	161.367	-0.264	-0.370
-68.436	198.309	0.068	0.104
-67.422	13.481	-0.046	0.036
-66.407	-200.000	-0.024	-0.129
-65.392	363.512	0.087	0.175
-64.378	419.307	0.128	0.274
-63.363	-145.711	-0.097	0.009
-62.349	-127.536	-0.322	-0.047
-61.334	69.976	-0.848	-0.874
-60.319	-41.791	0.354	0.181
-59.305	-200.000	-0.055	-0.473
-58.290	352.676	0.278	0.552
-57.276	-200.000	0.270	1.644
-56.261	-200.000	71.224	525.439
-55.246	602.231	1269.171	3153.170
-54.232	145.888	2495.945	3344.597
-53.217	114.834	2341.426	2853.708
-52.203	53.921	1960.318	1882.750
-51.188	47.632	1748.186	1629.742
-50.173	44.553	1701.354	1562.420
-49.159	58.009	1731.652	1694.367
-48.144	64.863	1750.661	1765.743
-47.130	47.436	1715.132	1597.162
-46.115	43.972	1701.718	1558.037
-45.100	43.903	1696.914	1553.047
-44.086	43.909	1694.340	1550.676
-43.071	43.851	1691.636	1547.698
-42.057	43.809	1689.953	1545.782
-41.042	43.776	1687.551	1543.270
-40.027	43.910	1685.467	1542.322
-39.013	43.915	1683.339	1540.348
-37.998	43.913	1681.214	1538.333
-36.984	43.911	1679.943	1537.094
-35.969	44.000	1678.910	1536.756
-34.954	43.996	1677.491	1535.371
-33.940	44.046	1675.375	1533.747
-32.925	44.068	1672.998	1531.676
-31.911	44.083	1671.577	1530.433
-30.896	43.990	1669.603	1527.861
-29.881	43.969	1667.859	1526.043
-28.867	43.950	1666.246	1524.366
-27.852	43.973	1665.079	1523.413
-26.838	43.992	1663.831	1522.354
-25.823	43.952	1662.455	1520.734
-24.809	43.924	1661.105	1519.226
-23.794	43.999	1658.970	1517.779
-22.779	43.926	1658.255	1516.514
-21.765	44.028	1655.939	1515.101
-20.750	43.958	1654.030	1512.770
-19.736	43.995	1653.109	1512.146
-18.721	44.073	1650.854	1510.599
-17.706	44.032	1649.260	1508.778
-16.692	44.138	1647.558	1507.953
-15.677	43.960	1646.747	1505.823
-14.663	44.018	1645.455	1505.018
-13.648	44.011	1644.181	1503.740
-12.633	44.097	1642.306	1502.600
-11.619	44.080	1640.644	1500.891
-10.604	44.098	1639.622	1500.032
-9.590	44.059	1638.084	1498.276
-8.575	44.009	1636.781	1496.659
-7.560	44.011	1635.569	1495.506
-6.546	44.072	1634.186	1494.629
-5.531	44.027	1633.461	1493.574
-4.517	44.079	1632.193	1492.743
-3.502	44.019	1630.818	1490.981
-2.487	44.079	1628.891	1489.605
-1.473	43.968	1617.932	1478.709
-0.458	41.343	1597.522	1441.054
0.556	36.242	1594.669	1400.118
1.571	32.925	1616.905	1395.059
2.586	31.881	1631.445	1399.688
3.600	27.953	1577.750	1325.081
4.615	15.347	1457.122	1138.644
5.629	3.677	1380.146	1002.973
6.644	1.337	1369.953	980.379
7.659	1.147	1368.055	977.712
8.673	1.070	1366.683	976.149
9.688	1.046	1365.358	974.959
10.702	0.805	1362.999	971.638
11.717	4.587	1370.891	1001.579
12.731	15.625	1392.067	1088.843
13.746	23.639	1405.775	1151.679
14.761	24.896	1406.270	1160.137
15.775	25.054	1405.556	1160.469
16.790	25.072	1405.405	1160.360
17.804	25.145	1404.607	1160.071
18.819	25.358	1404.413	1161.183
19.834	25.440	1403.315	1160.705
20.848	25.336	1403.058	1159.715
21.863	25.372	1402.047	1159.011
22.877	25.317	1401.335	1157.964
23.892	25.402	1400.312	1157.565
24.907	25.381	1399.196	1156.404
25.921	25.316	1398.951	1155.682
26.936	25.393	1397.757	1155.089
27.950	25.378	1396.340	1153.719
28.965	25.393	1394.997	1152.601
29.980	25.398	1393.365	1151.184
30.994	25.402	1392.255	1150.188
32.009	25.428	1391.350	1149.504
33.023	25.268	1390.663	1147.818
34.038	25.331	1389.575	1147.218
35.053	25.423	1387.825	1146.257
36.067	25.377	1387.131	1145.289
37.082	25.372	1386.114	1144.316
38.096	25.391	1385.373	1143.727
39.111	25.323	1384.778	1142.702
40.126	25.262	1384.598	1142.065
41.140	25.403	1383.357	1141.833
42.155	25.301	1382.705	1140.550
43.169	25.320	1383.019	1140.826
44.184	25.271	1383.033	1140.428
45.199	25.354	1382.302	1140.251
46.213	25.453	1381.213	1139.880
47.228	25.374	1380.959	1139.064
48.242	25.323	1380.018	1137.867
49.257	25.323	1378.224	1136.286
50.271	25.319	1376.478	1134.723
51.286	25.317	1375.607	1133.889
52.301	25.282	1374.227	1132.430
53.315	25.305	1373.395	1131.792
54.330	25.247	1372.663	1130.723
55.344	25.314	1370.984	1129.661
56.359	25.399	1370.071	1129.340
57.374	25.345	1369.205	1128.191
58.388	25.432	1368.272	1127.867
59.403	25.407	1368.569	1127.853
60.417	25.359	1367.705	1126.745
61.432	25.442	1366.548	1126.210
62.447	25.439	1366.107	1125.730
63.461	25.297	1365.164	1123.962
64.476	25.379	1363.596	1123.085
65.490	25.340	1362.789	1122.076
66.505	25.390	1361.227	1121.003
67.520	25.416	1359.876	1119.953
68.534	25.375	1359.042	1118.911
69.549	25.453	1357.718	1118.209
70.563	25.422	1357.040	1117.359
71.578	25.450	1355.904	1116.497
72.593	25.388	1355.213	1115.448
73.607	25.349	1354.680	1114.668
74.622	25.396	1353.706	1114.058
75.636	25.353	1353.218	1113.288
76.651	25.347	1352.838	1112.844
77.666	25.291	1351.891	1111.616
78.680	25.481	1351.465	1112.345
79.695	25.381	1350.216	1110.599
80.709	25.343	1349.867	1109.978
81.724	25.336	1349.124	1109.229
82.739	25.360	1348.028	1108.378
83.753	25.438	1347.051	1107.957
84.768	25.268	1346.090	1106.023
85.782	25.288	1345.090	1105.223
86.797	25.400	1343.438	1104.459
87.812	25.477	1342.428	1104.003
88.826	25.395	1341.508	1102.647
89.841	25.391	1340.476	1101.674
90.855	25.368	1339.535	1100.661
91.870	25.426	1338.715	1100.248
92.884	25.446	1337.482	1099.258
93.899	25.490	1336.959	1099.001
94.914	25.391	1336.329	1097.781
95.928	25.498	1335.331	1097.517
96.943	25.480	1334.506	1096.631
97.957	25.526	1333.842	1096.270
98.972	25.428	1332.964	1094.856
99.987	25.376	1332.067	1093.706
101.001	25.396	1331.376	1093.159
102.016	25.368	1330.421	1092.108
103.030	25.394	1329.628	1091.522
104.045	25.380	1328.750	1090.620
105.060	25.465	1327.610	1090.099
106.074	25.421	1326.956	1089.202
107.089	25.447	1325.849	1088.355
108.103	25.504	1324.393	1087.408
109.118	25.498	1323.352	1086.417
110.133	25.535	1322.223	1085.623
111.147	25.494	1321.228	1084.460
112.162	25.508	1320.173	1083.579
113.176	25.534	1319.283	1082.914
114.191	25.578	1318.315	1082.289
115.206	25.617	1317.097	1081.426
116.220	25.525	1315.821	1079.727
117.235	25.463	1315.301	1078.835
118.249	25.516	1313.935	1077.940
119.264	25.438	1313.010	1076.616
120.279	25.599	1312.502	1077.069
121.293	25.545	1311.831	1076.098
122.308	25.526	1311.449	1075.577
123.322	25.576	1310.245	1074.793
124.337	25.649	1309.046	1074.147
125.352	25.647	1308.428	1073.538
126.366	25.568	1307.685	1072.359
127.381	25.596	1306.553	1071.501
128.395	25.714	1305.417	1071.178
129.410	25.646	1305.094	1070.415
130.424	25.608	1304.333	1069.469
131.439	25.562	1303.470	1068.397
132.454	25.507	1303.019	1067.604
133.468	25.653	1302.001	1067.543
134.483	25.627	1301.588	1066.952
135.497	25.558	1300.975	1065.952
136.512	25.578	1299.969	1065.148
137.527	25.518	1298.775	1063.721
138.541	25.592	1297.634	1063.131
139.556	25.608	1295.857	1061.675
140.570	25.597	1295.437	1061.171
141.585	25.552	1294.685	1060.199
142.600	25.556	1293.384	1059.063
143.614	25.657	1292.266	1058.643
144.629	25.528	1291.569	1057.223
145.643	25.390	1290.810	1055.695
146.658	25.473	1289.443	1054.973
147.673	25.583	1287.897	1054.256
148.687	25.592	1287.321	1053.748
149.702	25.562	1285.906	1052.322
150.716	25.552	1284.720	1051.196
151.731	25.489	1283.986	1050.136
152.746	25.547	1282.712	1049.341
153.760	25.569	1282.018	1048.808
154.775	25.536	1280.977	1047.672
155.789	25.550	1280.049	1046.900
156.804	25.609	1279.006	1046.300
157.819	25.466	1278.349	1044.840
158.833	25.553	1277.566	1044.612
159.848	25.650	1276.640	1044.326
160.862	25.614	1276.018	1043.514
161.877	25.625	1275.146	1042.774
162.892	25.747	1274.067	1042.502
163.906	25.551	1273.756	1041.020
164.921	25.603	1273.213	1040.787
165.935	25.653	1272.062	1040.044
166.950	25.626	1271.696	1039.495
167.964	25.601	1271.235	1038.885
168.979	25.602	1270.199	1037.950
169.994	25.613	1269.979	1037.742
171.008	25.710	1268.806	1037.253
172.023	25.716	1268.239	1036.729
173.037	25.652	1267.440	1035.616
174.052	25.705	1266.933	1035.414
175.067	25.700	1266.072	1034.592
176.081	25.710	1264.956	1033.646
177.096	25.651	1264.415	1032.774
178.110	25.711	1263.058	1031.917
179.125	25.702	1262.370	1031.210
180.140	25.592	1261.503	1029.781
181.154	25.664	1260.374	1029.182
182.169	25.731	1258.964	1028.322
183.183	25.632	1258.284	1027.111
184.198	25.660	1257.503	1026.542
185.213	25.665	1256.534	1025.686
186.227	25.727	1255.328	1024.964
187.242	25.718	1254.565	1024.201
188.256	25.752	1253.356	1023.316
189.271	25.743	1253.028	1022.908
190.286	25.782	1252.305	1022.449
191.300	25.743	1251.780	1021.706
192.315	25.701	1251.371	1021.044
193.329	25.638	1251.296	1020.540
194.344	25.829	1250.421	1020.816
195.359	25.820	1249.936	1020.277
196.373	25.613	1249.499	1018.661
197.388	25.663	1248.740	1018.231
198.402	25.757	1248.505	1018.485
199.417	25.701	1248.210	1017.834
200.432	25.736	1247.332	1017.226
201.446	25.742	1246.650	1016.615
202.461	25.744	1246.155	1016.131
203.475	25.779	1245.225	1015.483
204.490	25.740	1244.153	1014.297
205.504	25.772	1242.860	1013.337
206.519	25.796	1242.427	1013.027
207.534	25.747	1241.369	1011.798
208.548	25.818	1240.531	1011.423
209.563	25.749	1240.078	1010.578
210.577	25.787	1238.890	1009.735
211.592	25.790	1238.438	1009.291
212.607	25.869	1237.490	1008.877
213.621	25.952	1236.372	1008.336
214.636	25.825	1235.734	1007.021
215.650	25.885	1234.810	1006.511
216.665	25.746	1234.337	1005.261
217.680	25.757	1233.243	1004.344
218.694	25.961	1231.702	1004.135
219.709	25.856	1231.610	1003.387
220.723	25.892	1231.159	1003.127
221.738	25.768	1230.497	1001.811
222.753	25.785	1229.359	1000.890
223.767	25.831	1228.790	1000.596
224.782	25.995	1228.188	1000.927
225.796	26.016	1227.809	1000.646
226.811	25.991	1227.116	999.853
227.826	25.946	1226.752	999.221
228.840	25.929	1226.097	998.502
229.855	26.006	1225.052	997.991
230.869	25.966	1224.822	997.495
231.884	25.941	1223.886	996.505
232.899	25.973	1223.423	996.214
233.913	26.037	1222.725	995.912
234.928	26.006	1222.358	995.353
235.942	26.002	1221.487	994.537
236.957	26.032	1220.855	994.097
237.972	25.970	1220.459	993.346
238.986	25.980	1219.604	992.616
240.001	26.048	1218.922	992.346
241.015	26.087	1218.380	992.034
242.030	26.033	1217.598	991.010
243.045	26.178	1216.151	990.542
244.059	26.142	1215.369	989.621
245.074	26.142	1214.540	988.855
246.088	26.171	1214.128	988.592
247.103	26.098	1213.503	987.595
248.117	26.172	1212.392	987.010
249.132	26.041	1212.383	986.198
250.147	26.273	1211.084	986.325
251.161	26.273	1210.463	985.727
252.176	26.184	1210.068	984.837
253.190	26.057	1209.657	983.724
254.205	26.233	1208.680	983.797
255.220	26.219	1207.903	983.004
256.234	26.153	1207.696	982.388
257.249	26.346	1206.551	982.421
258.263	26.298	1206.175	981.767
259.278	26.356	1205.717	981.620
260.293	26.348	1205.131	981.014
261.307	26.247	1204.497	979.863
262.322	26.250	1203.766	979.199
263.336	26.325	1203.040	978.924
264.351	26.314	1202.613	978.435
265.366	26.325	1202.287	978.143
266.380	26.251	1201.552	977.054
267.395	26.190	1201.135	976.298
268.409	26.171	1200.372	975.493
269.424	26.329	1199.404	975.471
270.439	26.193	1199.400	974.645
271.453	26.302	1198.221	974.192
272.468	26.277	1197.685	973.535
273.482	26.261	1196.796	972.637
274.497	26.304	1197.064	973.002
275.512	26.222	1196.520	972.035
276.526	26.242	1195.562	971.278
277.541	26.341	1194.717	971.033
278.555	26.246	1194.266	970.073
279.570	26.336	1193.307	969.690
280.585	26.399	1192.321	969.142
281.599	26.368	1191.561	968.274
282.614	26.491	1190.627	968.087
283.628	26.428	1189.472	966.726
284.643	26.473	1188.904	966.415
285.657	26.376	1188.192	965.233
286.672	26.407	1187.299	964.592
287.687	26.471	1186.508	964.203
288.701	26.440	1186.102	963.624
289.716	26.516	1185.083	963.113
290.730	26.484	1184.691	962.541
291.745	26.503	1183.644	961.706
292.760	26.489	1183.123	961.124
293.774	26.658	1182.680	961.572
294.789	26.532	1182.554	960.717
295.803	26.448	1181.698	959.492
296.818	26.573	1180.639	959.211
297.833	26.534	1180.033	958.428
298.847	26.627	1179.325	958.258
299.862	26.568	1178.520	957.210
300.876	26.570	1178.078	956.773
301.891	26.699	1177.086	956.564
302.906	26.645	1176.964	956.098
303.920	26.686	1176.120	955.541
304.935	26.674	1175.311	954.738
305.949	26.655	1174.592	953.969
306.964	26.714	1174.032	953.739
307.979	26.820	1173.583	953.849
308.993	26.682	1173.183	952.715
310.008	26.729	1171.982	951.899
311.022	26.759	1171.321	951.439
312.037	26.757	1170.031	950.292
313.052	26.760	1169.761	950.007
314.066	26.651	1168.948	948.690
315.081	26.808	1167.882	948.561
316.095	26.657	1167.795	947.617
317.110	26.796	1167.040	947.649
318.125	26.741	1166.255	946.639
319.139	26.802	1165.643	946.377
320.154	26.779	1165.046	945.689
321.168	26.733	1164.894	945.241
322.183	26.704	1164.253	944.491
323.197	26.823	1163.516	944.426
324.212	26.812	1162.855	943.749
325.227	26.762	1162.581	943.185
326.241	26.831	1162.086	943.054
327.256	26.873	1161.088	942.380
328.270	27.018	1159.951	942.128
329.285	26.808	1159.714	940.765
330.300	26.907	1158.450	940.169
331.314	26.740	1157.989	938.845
332.329	26.861	1156.977	938.566
333.343	26.876	1156.512	938.186
334.358	26.965	1155.409	937.665
335.373	26.969	1155.214	937.443
336.387	26.896	1154.371	936.300
337.402	26.895	1153.762	935.718
338.416	27.037	1152.728	935.532
339.431	27.052	1152.094	935.009
340.446	27.059	1151.633	934.591
341.460	27.021	1151.444	934.157
342.475	26.886	1150.352	932.498
343.489	27.081	1149.347	932.599
344.504	27.153	1148.268	932.011
345.519	27.023	1147.740	930.834
346.533	27.092	1146.942	930.457
347.548	27.188	1146.109	930.188
348.562	27.193	1145.374	929.536
349.577	27.104	1144.663	928.425
350.592	26.964	1143.986	927.079
351.606	27.009	1143.499	926.831
352.621	27.133	1142.846	926.851
353.635	27.065	1142.201	925.898
354.650	27.205	1141.709	926.131
355.665	27.198	1140.925	925.380
356.679	27.185	1140.447	924.844
357.694	27.220	1139.872	924.475
358.708	27.321	1138.899	924.117
359.723	27.012	1138.469	922.114
360.738	27.145	1137.619	922.021
361.752	27.218	1137.448	922.168
362.767	27.195	1136.817	921.459
363.781	27.304	1136.181	921.415
364.796	27.406	1135.465	921.268
365.810	27.365	1134.954	920.564
366.825	27.392	1134.136	919.955
367.840	27.386	1134.066	919.790
368.854	27.428	1133.111	919.143
369.869	27.315	1132.596	918.074
370.883	27.349	1131.810	917.527
371.898	27.419	1130.940	917.094
372.913	27.353	1130.662	916.458
373.927	27.392	1130.106	916.123
374.942	27.342	1129.806	915.543
375.956	27.387	1128.960	915.006
376.971	27.325	1128.721	914.420
377.986	27.386	1128.086	914.127
379.000	27.564	1127.034	914.088
380.015	27.468	1126.896	913.413
381.029	27.546	1125.710	912.764
382.044	27.561	1125.006	912.188
383.059	27.489	1124.799	911.579
384.073	27.505	1124.210	911.098
385.088	27.432	1123.567	910.131
386.102	27.606	1122.258	909.860
387.117	27.547	1121.551	908.910
388.132	27.405	1121.087	907.748
389.146	27.466	1120.020	907.107
390.161	27.644	1119.384	907.398
391.175	27.603	1118.907	906.730
392.190	27.612	1118.034	905.982
393.205	27.651	1117.141	905.374
394.219	27.684	1116.585	905.006
395.234	27.690	1116.097	904.564
396.248	27.601	1114.866	903.045
397.263	27.703	1114.096	902.843
398.278	27.631	1113.900	902.250
399.292	27.729	1112.959	901.893
400.307	27.703	1112.401	901.229
401.321	27.720	1111.667	900.643
402.336	27.736	1110.982	900.083
403.350	27.703	1110.549	899.494
404.365	27.652	1110.269	898.936
405.380	27.665	1109.554	898.337
406.394	27.564	1108.695	897.069
407.409	27.816	1107.986	897.654
408.423	27.929	1106.836	897.199
409.438	27.935	1106.220	896.650
410.453	27.802	1105.811	895.587
411.467	27.901	1104.588	895.000
412.482	27.841	1104.121	894.251
413.496	27.829	1103.680	893.752
414.511	27.829	1102.820	892.978
415.526	27.845	1102.618	892.813
416.540	28.037	1102.104	893.255
417.555	27.988	1101.374	892.348
418.569	27.940	1100.915	891.664
419.584	27.919	1100.851	891.430
420.599	27.947	1100.155	890.924
421.613	75.794	1277.284	1296.509
422.628	70.992	1303.126	1296.637
