DTS Sentinel unit serial number:	SN413079Multiplexer serial number:	ORYXHardware model number:	OX4-SRSoftware version number:	ORYX F/W v4.00 Oryx Data Collector v3.7.2.0data status	okinstallation	princeton_trtdifferential loss correction	single-endedforward channel	channel 2reverse channel	N/Adate	2019/09/12time	06:05:11forward acquisition time	60.00reverse acquisition time	0.00gamma	496.2192k internal	0.2325k external	0.2325temperature offset calibration	1.0062default loss term (dB/km)	0.3790temperature slope calibration	1.0000multiplexer offset coefficient	1.0000multiplexer slope coefficient	1.0000fibre end	0.00T internal ref (°C)	32.12T ext. ref 1 (°C)	1.59T ext. ref 2 (°C)	27.38length (m)	temperature (°C)	Stokes	anti-Stokes-747.200	-9.103	0.111	0.075
-746.185	-200.000	-0.136	0.000
-745.171	800.000	0.048	0.172
-744.156	-24.115	0.354	0.213
-743.142	800.000	0.044	-0.183
-742.127	101.888	0.207	-0.243
-741.112	185.348	0.020	-0.030
-740.098	159.029	-0.149	-0.210
-739.083	153.893	0.080	0.110
-738.069	-43.232	-0.005	-0.003
-737.054	792.085	-0.104	-0.287
-736.039	188.594	-0.138	0.208
-735.025	-200.000	0.015	-0.101
-734.010	-71.720	-0.085	0.032
-732.996	-12.902	-0.303	0.199
-731.981	-24.100	-0.285	0.172
-730.966	146.603	-0.318	-0.431
-729.952	800.000	-0.094	0.278
-728.937	-78.358	-0.187	0.065
-727.923	121.187	0.298	-0.375
-726.908	800.000	0.045	-0.154
-725.894	-125.053	-0.161	0.025
-724.879	-151.756	-0.165	0.012
-723.864	-47.842	0.060	-0.029
-722.850	-150.480	0.199	0.015
-721.835	144.878	0.153	0.207
-720.821	103.707	-0.094	-0.111
-719.806	-168.744	-0.485	0.018
-718.791	576.406	-0.019	0.046
-717.777	-84.246	0.178	-0.057
-716.762	-62.601	-0.066	-0.028
-715.748	172.074	-0.140	0.202
-714.733	-123.244	-0.272	-0.044
-713.718	53.537	0.179	-0.173
-712.704	-51.503	-0.226	-0.106
-711.689	-38.798	0.095	0.050
-710.675	800.000	0.030	-0.086
-709.660	120.048	-0.141	0.176
-708.645	-162.417	-0.106	0.005
-707.631	-158.567	-0.402	-0.023
-706.616	235.875	-0.072	-0.120
-705.602	-123.948	-0.431	-0.068
-704.587	-55.516	-0.301	0.136
-703.572	19.003	0.360	-0.291
-702.558	-68.605	-0.231	-0.090
-701.543	35.685	0.244	0.216
-700.529	800.000	-0.079	-0.283
-699.514	-200.000	-0.013	0.332
-698.499	76.221	-0.039	-0.042
-697.485	102.294	0.082	-0.097
-696.470	-200.000	-0.001	-0.151
-695.456	136.046	0.213	0.280
-694.441	-88.473	-0.149	0.045
-693.426	-87.857	-0.318	-0.096
-692.412	318.016	0.044	-0.084
-691.397	-65.858	0.264	0.106
-690.383	223.458	-0.054	0.087
-689.368	43.145	0.188	-0.173
-688.354	-200.000	0.003	0.211
-687.339	-166.396	0.286	-0.012
-686.324	124.335	-0.184	-0.233
-685.310	306.858	-0.058	-0.108
-684.295	109.105	-0.074	0.090
-683.281	-94.770	0.285	0.078
-682.266	-180.204	0.424	0.009
-681.251	-92.505	-0.168	0.047
-680.237	646.839	-0.161	-0.413
-679.222	-200.000	0.017	-0.120
-678.208	129.248	-0.044	-0.057
-677.193	-73.202	-0.077	-0.028
-676.178	800.000	-0.028	0.114
-675.164	83.266	0.208	-0.227
-674.149	-200.000	-0.024	-0.128
-673.135	618.382	-0.083	-0.209
-672.120	-200.000	-0.013	0.254
-671.105	-127.457	0.058	0.009
-670.091	-15.982	-0.080	-0.051
-669.076	-200.000	0.016	-0.084
-668.062	-0.098	-0.070	0.050
-667.047	-41.789	-0.166	0.086
-666.032	264.684	-0.223	0.391
-665.018	5.055	0.346	0.257
-664.003	-22.781	0.221	-0.134
-662.989	595.064	0.111	-0.277
-661.974	-10.762	0.146	0.097
-660.959	-200.000	0.021	0.095
-659.945	367.367	-0.055	-0.112
-658.930	58.636	-0.077	0.076
-657.916	376.433	-0.150	0.308
-656.901	-77.526	-0.417	-0.145
-655.886	-200.000	-0.160	0.001
-654.872	-111.638	-0.267	-0.054
-653.857	-9.119	0.004	0.003
-652.843	-139.386	0.211	0.023
-651.828	202.500	0.048	0.074
-650.814	-200.000	-0.000	-0.077
-649.799	-50.670	0.290	-0.137
-648.784	-35.312	-0.178	0.097
-647.770	-200.000	-0.011	0.093
-646.755	126.267	-0.179	0.228
-645.741	112.734	-0.199	-0.242
-644.726	-143.038	0.283	0.028
-643.711	-200.000	0.006	0.282
-642.697	-200.000	-0.023	-0.222
-641.682	-116.859	-0.063	0.012
-640.668	-38.106	0.215	-0.115
-639.653	678.906	-0.181	-0.472
-638.638	-200.000	0.029	-0.261
-637.624	800.000	0.002	0.007
-636.609	-200.000	0.078	0.405
-635.595	-200.000	0.061	-0.271
-634.580	359.475	-0.098	-0.197
-633.565	-52.200	-0.015	-0.007
-632.551	34.103	-0.088	0.077
-631.536	-45.049	-0.171	-0.086
-630.522	-27.786	0.086	-0.050
-629.507	-200.000	-0.011	-0.361
-628.492	-200.000	-0.046	0.223
-627.478	32.796	0.153	-0.133
-626.463	110.837	-0.200	0.242
-625.449	-115.971	0.514	0.096
-624.434	-200.000	0.016	0.440
-623.419	-161.367	0.082	0.004
-622.405	-123.807	-0.136	-0.022
-621.390	525.054	-0.112	0.265
-620.376	-89.435	0.142	0.042
-619.361	-97.118	-0.091	-0.024
-618.346	-134.934	0.171	0.021
-617.332	-192.973	0.059	0.001
-616.317	-0.365	-0.255	-0.182
-615.303	-148.683	0.282	-0.023
-614.288	74.946	0.112	-0.118
-613.273	800.000	0.030	0.103
-612.259	27.869	-0.109	0.093
-611.244	-83.169	0.233	0.075
-610.230	-0.524	0.099	-0.071
-609.215	-200.000	-0.007	-0.244
-608.201	0.008	0.160	0.114
-607.186	100.115	0.133	-0.155
-606.171	149.809	-0.148	-0.202
-605.157	-132.952	-0.169	-0.022
-604.142	-106.009	-0.347	-0.078
-603.128	496.631	-0.078	0.180
-602.113	-45.833	-0.097	0.048
-601.098	185.575	-0.197	0.294
-600.084	-145.537	0.188	-0.017
-599.069	-73.910	-0.130	-0.047
-598.055	100.853	-0.105	0.122
-597.040	800.000	0.039	-0.126
-596.025	40.901	0.218	-0.197
-595.011	133.467	-0.169	-0.219
-593.996	-28.366	0.403	0.233
-592.982	353.618	-0.186	-0.371
-591.967	800.000	0.089	-0.249
-590.952	376.649	-0.125	-0.256
-589.938	108.745	-0.062	0.074
-588.923	0.289	-0.032	-0.023
-587.909	10.851	-0.431	-0.330
-586.894	298.869	-0.056	-0.104
-585.879	-200.000	-0.004	0.184
-584.865	393.138	-0.189	0.395
-583.850	-30.546	-0.250	-0.142
-582.836	154.580	0.111	0.153
-581.821	-200.000	-0.030	0.245
-580.806	-48.863	-0.228	0.109
-579.792	-183.823	0.117	-0.002
-578.777	562.950	0.069	-0.167
-577.763	294.170	-0.191	-0.351
-576.748	-200.000	0.050	0.251
-575.733	-21.430	-0.262	-0.161
-574.719	800.000	-0.033	-0.102
-573.704	-200.000	0.012	-0.228
-572.690	-26.788	0.282	-0.165
-571.675	-200.000	-0.032	0.313
-570.661	-52.318	0.189	0.088
-569.646	-69.738	-0.245	-0.094
-568.631	-76.280	-0.243	-0.086
-567.617	-200.000	0.046	-0.221
-566.602	800.000	-0.031	0.105
-565.588	7.984	0.185	0.139
-564.573	-200.000	-0.013	0.250
-563.558	-12.590	-0.367	0.240
-562.544	-200.000	0.042	0.251
-561.529	45.815	-0.231	0.214
-560.515	-30.125	-0.086	0.049
-559.500	37.079	-0.452	-0.401
-558.485	161.224	-0.075	-0.104
-557.471	33.958	0.327	0.286
-556.456	-200.000	-0.066	-0.478
-555.442	-98.139	0.142	-0.037
-554.427	-134.253	0.176	0.022
-553.412	800.000	0.070	0.304
-552.398	-122.738	-0.323	-0.052
-551.383	346.413	-0.086	0.170
-550.369	-54.585	0.147	0.067
-549.354	-150.006	0.242	-0.019
-548.339	244.848	0.077	-0.130
-547.325	54.714	0.186	-0.180
-546.310	-56.934	-0.210	0.093
-545.296	-200.000	-0.020	-0.197
-544.281	-143.575	0.250	0.024
-543.266	-68.693	-0.075	0.029
-542.252	106.425	0.177	-0.210
-541.237	-198.805	0.124	0.001
-540.223	-200.000	0.016	-0.211
-539.208	206.438	-0.236	0.368
-538.193	-148.669	-0.334	0.027
-537.179	800.000	-0.038	-0.131
-536.164	727.548	0.030	0.079
-535.150	13.760	0.185	-0.144
-534.135	-109.218	-0.213	-0.045
-533.121	-109.009	0.254	0.054
-532.106	-108.375	0.382	-0.082
-531.091	-29.232	-0.204	0.117
-530.077	800.000	-0.048	-0.198
-529.062	64.104	0.100	0.100
-528.048	27.902	0.246	0.208
-527.033	98.948	0.204	-0.236
-526.018	-200.000	-0.022	0.187
-525.004	76.260	0.263	0.279
-523.989	138.981	-0.387	0.509
-522.975	-70.949	-0.200	0.075
-521.960	166.744	-0.246	0.349
-520.945	-136.254	0.482	0.056
-519.931	-16.762	-0.346	-0.219
-518.916	800.000	0.066	0.191
-517.902	-38.893	0.206	0.109
-516.887	-43.044	0.232	-0.118
-515.872	-39.908	-0.195	0.102
-514.858	-118.828	-0.536	-0.094
-513.843	-123.418	0.097	-0.015
-512.829	-200.000	0.004	-0.292
-511.814	39.199	0.086	-0.077
-510.799	41.229	-0.286	0.259
-509.785	74.312	0.236	0.248
-508.770	573.102	-0.111	-0.270
-507.756	-125.549	-0.372	-0.057
-506.741	-119.981	-0.287	0.049
-505.726	-146.780	0.345	0.030
-504.712	-54.719	-0.287	-0.130
-503.697	631.197	-0.056	-0.143
-502.683	-123.013	-0.333	-0.054
-501.668	800.000	-0.023	-0.092
-500.653	-200.000	0.012	-0.182
-499.639	63.876	0.260	-0.262
-498.624	-47.048	-0.222	-0.108
-497.610	-180.934	-0.380	0.008
-496.595	800.000	0.032	0.100
-495.581	21.916	-0.261	0.213
-494.566	-137.841	-0.474	0.053
-493.551	107.675	-0.118	-0.140
-492.537	-200.000	0.071	0.370
-491.522	-200.000	0.029	0.321
-490.508	-200.000	-0.040	0.203
-489.493	-200.000	-0.041	-0.363
-488.478	454.167	0.039	0.086
-487.464	253.707	-0.087	-0.148
-486.449	725.598	-0.030	-0.079
-485.435	-53.153	-0.311	0.143
-484.420	130.306	-0.098	-0.126
-483.405	-21.261	0.246	-0.150
-482.391	606.485	0.092	-0.228
-481.376	372.409	0.098	0.199
-480.362	518.732	-0.089	0.209
-479.347	800.000	-0.098	0.282
-478.332	614.648	0.048	-0.120
-477.318	434.431	0.113	-0.246
-476.303	86.920	0.125	0.138
-475.289	168.790	-0.075	-0.106
-474.274	-51.023	-0.289	-0.136
-473.259	12.330	-0.193	0.148
-472.245	-121.602	0.208	0.034
-471.230	-119.182	-0.387	0.067
-470.216	0.854	0.115	0.082
-469.201	-200.000	-0.001	-0.193
-468.186	236.861	0.139	0.230
-467.172	297.902	0.120	-0.220
-466.157	-200.000	-0.012	-0.409
-465.143	-23.979	-0.086	-0.052
-464.128	130.193	-0.065	0.084
-463.113	74.950	0.313	0.329
-462.099	-84.012	0.277	-0.088
-461.084	-200.000	-0.018	0.200
-460.070	-200.000	-0.058	-0.266
-459.055	-134.516	-0.179	0.022
-458.040	-90.343	0.302	-0.088
-457.026	-141.557	0.347	0.035
-456.011	-145.042	-0.036	-0.003
-454.997	29.998	0.160	-0.136
-453.982	450.501	0.032	-0.070
-452.968	-113.636	-0.144	0.028
-451.953	445.273	0.143	0.314
-450.938	61.379	-0.063	-0.063
-449.924	314.728	-0.139	-0.261
-448.909	148.327	-0.219	-0.295
-447.895	-200.000	-0.020	-0.117
-446.880	116.385	-0.221	0.270
-445.865	-13.921	0.145	0.094
-444.851	-200.000	-0.007	-0.053
-443.836	124.386	-0.217	0.272
-442.822	-37.170	-0.161	0.086
-441.807	-10.902	-0.282	0.186
-440.792	43.964	0.122	0.111
-439.778	800.000	-0.065	-0.276
-438.763	-53.820	-0.212	-0.096
-437.749	83.113	0.143	-0.156
-436.734	-200.000	0.007	0.128
-435.719	-66.997	0.454	-0.179
-434.705	261.203	0.235	0.406
-433.690	-200.000	0.003	-0.146
-432.676	7.386	-0.074	-0.055
-431.661	44.649	-0.415	0.381
-430.646	321.600	0.074	0.140
-429.632	-81.123	-0.375	0.124
-428.617	70.526	0.136	-0.140
-427.603	53.657	0.040	-0.038
-426.588	-187.613	0.016	-0.000
-425.573	381.827	-0.109	0.222
-424.559	-94.487	0.220	-0.060
-423.544	36.502	0.050	0.044
-422.530	-139.834	-0.146	0.015
-421.515	-59.407	-0.083	-0.036
-420.500	800.000	0.087	0.330
-419.486	249.881	-0.127	-0.215
-418.471	24.771	0.137	-0.113
-417.457	-143.403	-0.159	-0.015
-416.442	24.357	0.129	-0.106
-415.428	-86.431	0.273	0.083
-414.413	61.996	-0.292	-0.290
-413.398	-14.277	0.164	-0.106
-412.384	73.040	0.207	-0.215
-411.369	438.070	0.075	-0.163
-410.355	-37.154	0.354	0.189
-409.340	181.249	-0.181	0.265
-408.325	311.473	0.074	0.137
-407.311	-129.155	0.144	0.020
-406.296	-15.947	0.226	0.143
-405.282	800.000	-0.075	0.309
-404.267	75.300	0.045	-0.047
-403.252	-200.000	0.032	-0.199
-402.238	655.797	-0.046	0.118
-401.223	800.000	0.132	0.519
-400.209	-132.171	0.330	-0.043
-399.194	-103.605	0.233	0.055
-398.179	793.372	0.107	0.293
-397.165	54.234	0.204	0.195
-396.150	800.000	0.166	0.529
-395.136	58.154	-0.105	0.102
-394.121	25.781	-0.246	-0.204
-393.106	-185.369	-0.006	0.000
-392.092	-191.450	-0.257	-0.003
-391.077	-14.647	-0.167	0.107
-390.063	582.234	0.086	-0.210
-389.048	95.723	-0.214	-0.243
-388.033	-98.353	0.220	0.056
-387.019	-147.153	0.086	-0.007
-386.004	800.000	0.060	0.191
-384.990	-17.036	0.186	0.117
-383.975	-82.943	-0.297	0.095
-382.960	-200.000	0.034	0.244
-381.946	690.769	-0.129	-0.337
-380.931	17.399	0.094	0.074
-379.917	27.423	0.015	-0.013
-378.902	34.419	-0.070	0.061
-377.888	800.000	-0.037	0.132
-376.873	-200.000	-0.001	0.278
-375.858	299.598	0.123	0.225
-374.844	34.924	0.166	0.144
-373.829	11.275	0.266	-0.203
-372.815	165.910	0.138	-0.195
-371.800	800.000	-0.077	0.281
-370.785	-150.767	-0.217	0.016
-369.771	-103.879	0.333	-0.077
-368.756	-200.000	-0.016	0.252
-367.742	16.206	-0.114	0.090
-366.727	139.856	-0.168	-0.221
-365.712	121.326	0.187	-0.231
-364.698	388.526	0.080	-0.164
-363.683	-139.919	0.119	-0.013
-362.669	-33.685	0.271	0.149
-361.654	-13.285	-0.094	-0.061
-360.639	227.029	-0.074	0.120
-359.625	-59.336	0.167	-0.071
-358.610	-8.559	-0.191	-0.127
-357.596	-200.000	-0.000	0.073
-356.581	-169.297	-0.092	0.003
-355.566	800.000	-0.105	0.330
-354.552	800.000	-0.115	0.343
-353.537	-31.413	0.227	-0.127
-352.523	-43.270	-0.296	-0.149
-351.508	413.666	-0.054	-0.114
-350.493	252.453	0.187	0.317
-349.479	-200.000	-0.057	0.336
-348.464	-68.980	-0.358	-0.137
-347.450	-96.435	0.306	-0.080
-346.435	-70.937	0.295	-0.110
-345.420	-165.852	-0.325	-0.014
-344.406	80.037	0.164	-0.175
-343.391	-116.491	0.165	-0.030
-342.377	800.000	-0.069	0.191
-341.362	800.000	-0.057	-0.229
-340.348	66.469	0.309	-0.312
-339.333	-200.000	0.019	0.095
-338.318	-100.644	0.058	-0.014
-337.304	202.009	0.265	-0.407
-336.289	503.918	0.062	-0.142
-335.275	60.613	0.135	0.133
-334.260	-200.000	0.041	0.262
-333.245	800.000	0.009	-0.033
-332.231	-200.000	0.042	-0.191
-331.216	114.158	-0.179	0.217
-330.202	98.875	0.177	0.203
-329.187	-118.420	0.108	0.019
-328.172	800.000	-0.030	0.113
-327.158	570.469	-0.127	0.306
-326.143	-166.999	0.112	0.005
-325.129	462.863	-0.048	-0.107
-324.114	800.000	0.011	-0.036
-323.099	-107.105	0.202	-0.044
-322.085	118.754	0.243	-0.298
-321.070	37.726	-0.149	0.132
-320.056	800.000	0.069	-0.291
-319.041	-200.000	-0.025	0.129
-318.026	-94.363	0.151	0.041
-317.012	224.625	-0.176	-0.283
-315.997	-69.204	-0.105	-0.040
-314.983	-106.585	0.221	-0.049
-313.968	-96.450	-0.247	0.065
-312.953	99.138	0.277	-0.318
-311.939	-200.000	0.001	0.157
-310.924	-39.161	-0.208	0.108
-309.910	520.426	-0.028	0.066
-308.895	-200.000	0.038	0.215
-307.880	141.306	-0.162	-0.213
-306.866	800.000	-0.005	0.014
-305.851	316.845	-0.103	-0.192
-304.837	-136.299	0.183	0.021
-303.822	800.000	-0.078	0.339
-302.807	-157.780	-0.210	0.012
-301.793	273.688	0.105	-0.185
-300.778	313.066	-0.113	-0.210
-299.764	613.397	-0.064	0.160
-298.749	800.000	-0.025	-0.074
-297.735	-200.000	0.025	-0.157
-296.720	-128.644	0.230	0.032
-295.705	373.649	-0.048	0.097
-294.691	-200.000	0.048	0.327
-293.676	-140.753	0.332	-0.034
-292.662	800.000	0.046	0.177
-291.647	-32.035	0.224	-0.124
-290.632	3.778	-0.261	0.189
-289.618	-200.000	-0.008	-0.243
-288.603	17.533	-0.144	-0.114
-287.589	-42.225	0.143	-0.072
-286.574	1.273	0.132	0.094
-285.559	-200.000	-0.009	-0.059
-284.545	724.435	-0.058	-0.153
-283.530	-17.183	0.227	0.142
-282.516	-200.000	-0.011	-0.090
-281.501	350.917	-0.168	0.330
-280.486	-62.309	0.263	0.109
-279.472	-71.489	0.174	0.065
-278.457	-200.000	0.035	-0.201
-277.443	-200.000	0.002	0.088
-276.428	-200.000	0.026	0.329
-275.413	-95.309	-0.452	0.121
-274.399	-200.000	-0.026	0.301
-273.384	429.361	0.133	0.285
-272.370	-164.343	-0.309	-0.014
-271.355	147.227	-0.147	-0.195
-270.340	-200.000	-0.009	0.309
-269.326	-82.806	0.207	0.066
-268.311	-200.000	-0.045	-0.350
-267.297	125.563	-0.162	-0.203
-266.282	-159.004	0.126	0.007
-265.267	218.813	0.189	-0.300
-264.253	-125.999	-0.458	-0.068
-263.238	23.264	-0.074	-0.060
-262.224	162.571	0.039	0.054
-261.209	-104.059	0.216	-0.050
-260.195	-70.810	0.358	-0.134
-259.180	153.734	0.121	-0.165
-258.165	-39.799	0.224	-0.116
-257.151	122.688	-0.096	-0.119
-256.136	-99.858	0.244	0.060
-255.122	558.420	-0.113	-0.271
-254.107	698.549	-0.048	0.125
-253.092	225.867	0.096	-0.154
-252.078	151.918	0.205	0.276
-251.063	20.091	-0.199	-0.159
-250.049	-60.302	0.058	-0.024
-249.034	800.000	-0.152	-0.584
-248.019	431.197	-0.079	-0.169
-247.005	-200.000	0.014	-0.084
-245.990	-200.000	-0.003	-0.259
-244.976	-79.650	-0.010	-0.003
-243.961	245.240	0.039	-0.065
-242.946	208.649	-0.134	0.208
-241.932	-200.000	-0.144	0.000
-240.917	-125.088	0.226	-0.034
-239.903	-200.000	0.019	-0.312
-238.888	143.468	0.082	0.108
-237.873	76.975	0.077	0.081
-236.859	-200.000	-0.003	-0.110
-235.844	168.758	-0.008	-0.011
-234.830	-28.974	0.350	0.199
-233.815	150.160	-0.113	-0.152
-232.800	-127.439	-0.137	0.020
-231.786	-97.874	-0.160	-0.041
-230.771	419.160	0.235	0.497
-229.757	-15.041	-0.257	0.163
-228.742	-177.201	-0.171	-0.004
-227.727	-148.775	-0.358	0.029
-226.713	-200.000	0.006	-0.035
-225.698	62.831	0.080	-0.079
-224.684	-200.000	0.003	0.089
-223.669	50.104	0.097	-0.091
-222.655	569.818	0.041	0.099
-221.640	84.766	0.147	-0.159
-220.625	-200.000	0.111	-0.657
-219.611	-131.167	-0.164	-0.022
-218.596	-200.000	-0.011	-0.138
-217.582	-34.303	0.295	0.160
-216.567	-4.234	0.209	0.143
-215.552	180.374	0.107	-0.155
-214.538	-91.200	0.083	-0.023
-213.523	-1.434	-0.133	-0.092
-212.509	53.056	-0.095	-0.090
-211.494	29.117	0.311	0.261
-210.479	-38.441	-0.264	0.138
-209.465	-70.416	-0.135	0.051
-208.450	-200.000	-0.365	-0.000
-207.436	-112.283	-0.248	0.049
-206.421	-123.431	0.072	-0.011
-205.406	-144.959	-0.106	-0.010
-204.392	105.219	-0.146	-0.170
-203.377	-200.000	0.024	-0.137
-202.363	800.000	-0.133	-0.501
-201.348	-65.128	-0.253	-0.101
-200.333	40.142	-0.264	-0.234
-199.319	-57.402	0.190	0.082
-198.304	15.263	-0.146	0.113
-197.290	217.088	-0.092	-0.144
-196.275	-77.595	0.217	-0.074
-195.260	247.257	-0.066	-0.110
-194.246	188.749	0.107	-0.157
-193.231	-45.227	-0.080	-0.039
-192.217	-70.610	0.384	0.144
-191.202	30.655	0.175	-0.148
-190.187	-99.890	-0.170	-0.042
-189.173	-157.861	-0.098	0.006
-188.158	32.388	0.258	-0.220
-187.144	440.336	-0.027	0.058
-186.129	112.120	-0.053	0.063
-185.114	-84.901	-0.274	0.085
-184.100	800.000	0.066	0.227
-183.085	140.346	0.287	-0.373
-182.071	48.394	0.250	0.231
-181.056	800.000	0.055	-0.175
-180.042	-200.000	-0.023	0.369
-179.027	-200.000	0.040	-0.235
-178.012	47.937	0.102	-0.094
-176.998	4.996	-0.173	-0.126
-175.983	-77.288	0.347	-0.119
-174.969	112.929	-0.187	0.223
-173.954	103.685	-0.223	-0.259
-172.939	124.134	-0.170	0.211
-171.925	-162.415	0.299	0.015
-170.910	314.307	-0.182	0.338
-169.896	1.310	-0.075	0.053
-168.881	94.086	-0.202	-0.226
-167.866	-82.293	0.113	-0.036
-166.852	-75.037	0.204	-0.072
-165.837	800.000	0.065	0.242
-164.823	77.013	-0.197	0.206
-163.808	-58.069	0.066	0.028
-162.793	137.403	-0.092	-0.119
-161.779	91.793	-0.097	0.107
-160.764	44.527	0.233	-0.211
-159.750	-86.792	-0.213	-0.064
-158.735	-44.737	0.134	0.066
-157.720	78.995	-0.094	0.100
-156.706	2.978	0.170	0.122
-155.691	-3.212	0.249	-0.171
-154.677	-200.000	0.052	0.351
-153.662	131.457	-0.185	0.234
-152.647	-59.919	0.086	0.036
-151.633	-102.769	0.163	-0.038
-150.618	258.105	0.151	0.256
-149.604	800.000	-0.096	-0.338
-148.589	-79.616	-0.408	-0.136
-147.574	64.506	-0.173	0.172
-146.560	-27.561	-0.151	0.087
-145.545	327.302	-0.092	-0.173
-144.531	28.477	-0.177	0.147
-143.516	466.908	-0.078	-0.171
-142.502	-135.620	0.366	0.043
-141.487	337.722	-0.047	0.090
-140.472	370.431	0.104	0.208
-139.458	-129.069	0.256	0.035
-138.443	-200.000	0.010	-0.440
-137.429	90.860	0.056	0.062
-136.414	800.000	-0.076	0.263
-135.399	14.673	0.150	-0.116
-134.385	-71.450	-0.353	-0.130
-133.370	-200.000	-0.013	-0.080
-132.356	-107.921	0.283	-0.061
-131.341	34.774	0.262	0.226
-130.326	456.940	0.241	0.527
-129.312	6.524	0.251	-0.184
-128.297	-109.929	0.220	0.045
-127.283	-104.551	0.100	0.023
-126.268	-85.240	0.214	0.066
-125.253	800.000	0.036	-0.124
-124.239	82.193	0.221	0.236
-123.224	763.339	-0.074	0.199
-122.210	-200.000	-0.029	0.149
-121.195	117.693	-0.218	0.264
-120.180	628.741	-0.211	0.524
-119.166	-200.000	0.003	0.166
-118.151	-76.116	0.024	-0.009
-117.137	71.952	0.032	-0.033
-116.122	-162.594	0.430	0.021
-115.107	-200.000	-0.041	0.281
-114.093	-95.540	-0.121	0.032
-113.078	-200.000	0.017	-0.093
-112.064	205.067	-0.056	0.086
-111.049	57.907	-0.144	0.139
-110.034	61.314	-0.058	-0.057
-109.020	79.269	-0.149	-0.157
-108.005	-33.760	-0.094	-0.051
-106.991	-45.372	0.131	0.064
-105.976	104.502	-0.108	0.125
-104.962	167.195	0.321	-0.449
-103.947	-123.933	0.404	-0.063
-102.932	-200.000	0.034	0.207
-101.918	800.000	0.056	-0.190
-100.903	-19.429	0.167	0.102
-99.889	243.117	0.188	0.311
-98.874	-91.950	-0.168	-0.047
-97.859	-184.733	0.062	0.001
-96.845	-135.411	0.188	0.022
-95.830	-137.160	0.327	0.037
-94.816	-15.198	-0.106	-0.067
-93.801	-117.988	-0.188	0.033
-92.786	187.701	-0.144	0.211
-91.772	35.745	0.068	-0.059
-90.757	-113.507	0.109	-0.021
-89.743	800.000	0.161	-0.482
-88.728	166.871	0.029	-0.040
-87.713	-120.298	-0.179	0.030
-86.699	-84.911	-0.265	-0.082
-85.684	800.000	0.043	-0.153
-84.670	62.982	-0.168	0.165
-83.655	800.000	0.061	-0.246
-82.640	92.750	0.103	0.114
-81.626	-172.595	0.060	0.002
-80.611	122.236	-0.112	-0.138
-79.597	-118.095	-0.104	-0.018
-78.582	-90.292	-0.103	0.029
-77.567	359.103	-0.142	0.280
-76.553	176.654	0.054	-0.077
-75.538	-167.810	-0.166	-0.006
-74.524	-200.000	0.000	-0.011
-73.509	-200.000	-0.006	-0.061
-72.494	-134.376	0.243	0.029
-71.480	-180.361	0.249	-0.005
-70.465	-92.586	0.384	-0.106
-69.451	-168.802	0.395	0.015
-68.436	-114.794	-0.359	0.067
-67.422	-53.902	0.226	0.101
-66.407	87.685	-0.252	0.275
-65.392	-47.202	0.371	-0.178
-64.378	800.000	0.086	0.292
-63.363	626.516	-0.002	-0.006
-62.349	-147.113	-0.356	0.030
-61.334	41.448	-0.947	-0.843
-60.319	-200.000	0.137	0.625
-59.305	-200.000	-0.213	-1.290
-58.290	183.670	0.842	1.223
-57.276	463.726	0.672	1.476
-56.261	-200.000	95.668	592.059
-55.246	569.719	1369.324	3271.552
-54.232	160.872	2556.800	3508.144
-53.217	106.784	2270.346	2647.084
-52.203	41.564	1896.353	1686.673
-51.188	35.360	1686.312	1452.988
-50.173	32.703	1641.951	1395.074
-49.159	50.102	1688.542	1565.516
-48.144	51.753	1704.664	1592.774
-47.130	35.053	1665.464	1432.496
-46.115	32.185	1651.627	1399.215
-45.100	32.095	1646.267	1393.952
-44.086	32.127	1643.047	1391.408
-43.071	32.022	1640.767	1388.645
-42.057	32.020	1638.516	1386.671
-41.042	32.011	1636.809	1385.106
-40.027	32.005	1635.042	1383.514
-39.013	32.046	1632.785	1381.847
-37.998	31.962	1631.485	1380.076
-36.984	32.072	1629.572	1379.211
-35.969	32.176	1628.383	1378.913
-34.954	32.216	1626.347	1377.426
-33.940	32.114	1624.898	1375.398
-32.925	32.041	1623.587	1373.699
-31.911	32.087	1621.827	1372.491
-30.896	32.065	1619.695	1370.472
-29.881	32.068	1618.218	1369.189
-28.867	32.126	1616.298	1367.932
-27.852	32.126	1614.715	1366.539
-26.838	32.138	1613.203	1365.297
-25.823	32.159	1611.778	1364.190
-24.809	32.092	1610.905	1362.906
-23.794	32.111	1609.435	1361.743
-22.779	32.147	1607.970	1360.715
-21.765	32.127	1606.246	1359.057
-20.750	32.211	1604.544	1358.168
-19.736	32.201	1603.276	1356.970
-18.721	32.149	1602.325	1355.737
-17.706	32.182	1600.448	1354.333
-16.692	32.107	1598.997	1352.509
-15.677	32.133	1597.939	1351.752
-14.663	32.212	1596.282	1350.859
-13.648	32.148	1594.749	1349.050
-12.633	32.137	1593.444	1347.814
-11.619	32.174	1591.792	1346.632
-10.604	32.185	1590.163	1345.279
-9.590	32.145	1589.036	1343.986
-8.575	32.166	1587.684	1342.936
-7.560	32.203	1586.344	1342.017
-6.546	32.158	1585.661	1341.061
-5.531	32.119	1584.365	1339.633
-4.517	32.119	1582.785	1338.243
-3.502	32.138	1582.210	1337.841
-2.487	32.232	1580.157	1336.722
-1.473	32.040	1568.889	1325.779
-0.458	29.309	1550.350	1290.969
0.556	25.786	1550.885	1260.734
1.571	23.598	1574.361	1264.138
2.586	23.274	1587.805	1272.489
3.600	20.278	1533.577	1208.096
4.615	10.917	1422.348	1059.648
5.629	2.961	1357.241	961.426
6.644	1.729	1349.336	948.071
7.659	1.591	1347.774	946.034
8.673	1.555	1346.452	944.794
9.688	1.465	1344.630	942.878
10.702	1.282	1341.923	939.764
11.717	4.750	1348.156	965.589
12.731	14.807	1367.594	1042.445
13.746	23.417	1382.197	1107.533
14.761	25.783	1385.692	1125.035
15.775	26.254	1385.617	1127.812
16.790	26.241	1385.520	1127.556
17.804	26.385	1384.316	1127.373
18.819	26.610	1384.164	1128.552
19.834	26.694	1383.370	1128.327
20.848	26.718	1383.103	1128.161
21.863	26.654	1381.896	1126.678
22.877	26.719	1381.008	1126.255
23.892	26.822	1380.695	1126.542
24.907	26.837	1379.142	1125.268
25.921	26.781	1378.516	1124.308
26.936	26.714	1377.639	1123.078
27.950	26.741	1376.880	1122.527
28.965	26.762	1375.158	1121.157
29.980	26.745	1374.018	1120.024
30.994	26.727	1372.528	1118.598
32.009	26.762	1371.911	1118.211
33.023	26.772	1370.537	1117.057
34.038	26.708	1369.783	1115.950
35.053	26.730	1368.716	1115.117
36.067	26.797	1367.381	1114.340
37.082	26.732	1366.646	1113.245
38.096	26.613	1365.897	1111.806
39.111	26.776	1365.007	1111.979
40.126	26.689	1364.486	1110.922
41.140	26.776	1363.703	1110.720
42.155	26.743	1363.373	1110.152
43.169	26.648	1363.704	1109.745
44.184	26.613	1363.510	1109.275
45.199	26.699	1363.019	1109.303
46.213	26.732	1362.370	1108.875
47.228	26.727	1360.791	1107.465
48.242	26.783	1359.615	1106.752
49.257	26.796	1358.441	1105.772
50.271	26.703	1357.244	1104.136
51.286	26.644	1356.100	1102.747
52.301	26.687	1355.013	1102.029
53.315	26.650	1354.331	1101.154
54.330	26.686	1353.296	1100.434
55.344	26.685	1352.134	1099.383
56.359	26.728	1351.077	1098.688
57.374	26.715	1350.502	1098.043
58.388	26.657	1349.681	1096.926
59.403	26.678	1349.292	1096.644
60.417	26.588	1348.739	1095.551
61.432	26.696	1348.422	1095.847
62.447	26.692	1346.979	1094.556
63.461	26.746	1345.280	1093.406
64.476	26.675	1345.176	1092.793
65.490	26.749	1343.492	1091.772
66.505	26.680	1342.243	1090.250
67.520	26.709	1340.984	1089.304
68.534	26.737	1340.035	1088.606
69.549	26.722	1339.139	1087.693
70.563	26.818	1338.027	1087.268
71.578	26.815	1336.965	1086.291
72.593	26.704	1336.506	1085.153
73.607	26.776	1335.909	1085.005
74.622	26.761	1335.207	1084.248
75.636	26.693	1334.973	1083.559
76.651	26.702	1333.879	1082.629
77.666	26.618	1333.287	1081.552
78.680	26.769	1332.853	1082.001
79.695	26.784	1332.119	1081.400
80.709	26.777	1331.086	1080.427
81.724	26.730	1330.276	1079.389
82.739	26.823	1329.050	1078.853
83.753	26.764	1328.676	1078.104
84.768	26.627	1327.363	1076.129
85.782	26.791	1326.402	1076.229
86.797	26.799	1325.271	1075.262
87.812	26.871	1323.689	1074.311
88.826	26.847	1322.856	1073.401
89.841	26.889	1321.604	1072.536
90.855	26.808	1320.922	1071.407
91.870	26.751	1320.336	1070.504
92.884	26.746	1319.667	1069.835
93.899	26.830	1318.765	1069.506
94.914	26.795	1317.765	1068.395
95.928	26.859	1317.148	1068.175
96.943	26.764	1316.479	1066.981
97.957	26.844	1315.914	1066.899
98.972	26.777	1314.875	1065.567
99.987	26.795	1313.750	1064.669
101.001	26.778	1313.041	1063.897
102.016	26.779	1312.350	1063.248
103.030	26.770	1311.223	1062.192
104.045	26.816	1310.202	1061.540
105.060	26.885	1309.170	1061.010
106.074	26.958	1308.615	1060.897
107.089	26.717	1307.671	1058.630
108.103	26.864	1306.611	1058.532
109.118	26.819	1305.533	1057.303
110.133	26.831	1304.018	1056.054
111.147	26.845	1303.103	1055.299
112.162	26.770	1302.458	1054.250
113.176	26.890	1301.363	1053.969
114.191	26.876	1300.530	1053.121
115.206	26.881	1299.230	1051.999
116.220	26.819	1298.419	1050.890
117.235	26.813	1297.598	1050.100
118.249	26.831	1296.795	1049.463
119.264	26.863	1296.029	1048.935
120.279	26.929	1295.087	1048.459
121.293	26.908	1294.243	1047.563
122.308	26.834	1293.970	1046.820
123.322	26.999	1292.519	1046.505
124.337	26.935	1291.791	1045.459
125.352	26.941	1290.984	1044.742
126.366	26.873	1290.002	1043.465
127.381	26.913	1288.910	1042.721
128.395	27.045	1288.193	1042.807
129.410	26.758	1287.585	1040.576
130.424	27.058	1286.387	1041.232
131.439	26.881	1285.982	1039.797
132.454	26.873	1285.394	1039.189
133.468	26.927	1284.396	1038.594
134.483	26.874	1284.058	1037.927
135.497	26.932	1283.342	1037.588
136.512	26.795	1282.350	1035.912
137.527	26.844	1281.174	1035.152
138.541	26.995	1279.953	1034.936
139.556	26.875	1278.667	1033.118
140.570	26.955	1277.961	1032.915
141.585	26.966	1276.719	1031.882
142.600	26.953	1275.683	1030.879
143.614	26.892	1275.058	1029.933
144.629	26.846	1274.020	1028.742
145.643	26.791	1272.661	1027.247
146.658	26.772	1271.886	1026.423
147.673	26.928	1270.644	1026.211
148.687	26.871	1269.881	1025.180
149.702	26.727	1268.918	1023.497
150.716	26.844	1267.159	1022.652
151.731	26.923	1266.588	1022.546
152.746	26.902	1265.840	1021.729
153.760	26.947	1264.643	1020.927
154.775	26.893	1264.084	1020.084
155.789	26.918	1262.727	1019.040
156.804	26.903	1262.311	1018.529
157.819	26.890	1260.971	1017.285
158.833	27.014	1260.224	1017.283
159.848	26.997	1259.541	1016.546
160.862	26.975	1259.238	1016.092
161.877	26.924	1258.499	1015.122
162.892	26.967	1257.748	1014.665
163.906	27.052	1256.932	1014.390
164.921	26.985	1256.155	1013.301
165.935	27.032	1255.415	1012.877
166.950	27.040	1254.571	1012.149
167.964	27.007	1254.027	1011.436
168.979	27.081	1253.414	1011.265
169.994	27.063	1253.086	1010.813
171.008	27.021	1252.329	1009.879
172.023	27.031	1251.451	1009.134
173.037	27.018	1250.750	1008.409
174.052	26.945	1250.159	1007.436
175.067	27.045	1249.063	1007.019
176.081	27.057	1248.322	1006.402
177.096	26.899	1247.920	1005.110
178.110	27.127	1246.524	1005.161
179.125	27.200	1245.296	1004.481
180.140	27.163	1244.492	1003.540
181.154	27.078	1243.529	1002.207
182.169	27.040	1242.466	1001.051
183.183	27.020	1242.019	1000.496
184.198	26.973	1240.784	999.150
185.213	27.133	1239.756	999.116
186.227	27.220	1238.687	998.643
187.242	27.102	1237.999	997.354
188.256	26.997	1237.703	996.450
189.271	27.112	1236.560	996.072
190.286	27.156	1235.530	995.393
191.300	27.178	1234.869	994.896
192.315	27.134	1234.415	994.201
193.329	27.073	1234.524	993.864
194.344	27.088	1234.067	993.490
195.359	27.171	1233.150	993.121
196.373	27.128	1232.733	992.464
197.388	27.070	1232.508	991.876
198.402	27.041	1232.307	991.468
199.417	27.167	1231.256	991.224
200.432	27.071	1231.254	990.610
201.446	27.111	1230.388	990.045
202.461	27.131	1229.406	989.276
203.475	27.168	1228.948	989.021
204.490	27.145	1227.887	987.953
205.504	27.218	1226.958	987.515
206.519	27.224	1226.025	986.706
207.534	27.287	1225.003	986.139
208.548	27.149	1224.451	984.861
209.563	27.300	1223.155	984.548
210.577	27.207	1223.115	983.928
211.592	27.192	1222.086	982.929
212.607	27.210	1221.332	982.333
213.621	27.231	1220.594	981.769
214.636	27.261	1219.765	981.175
215.650	27.327	1218.956	980.792
216.665	27.172	1218.004	979.103
217.680	27.218	1217.119	978.555
218.694	27.387	1215.746	978.273
219.709	27.243	1215.424	977.154
220.723	27.244	1214.763	976.541
221.738	27.284	1214.206	976.224
222.753	27.296	1213.020	975.243
223.767	27.310	1212.833	975.084
224.782	27.277	1212.722	974.729
225.796	27.299	1211.877	974.086
226.811	27.337	1211.412	973.827
227.826	27.326	1210.752	973.152
228.840	27.356	1210.237	972.813
229.855	27.419	1209.318	972.326
230.869	27.356	1208.873	971.543
231.884	27.378	1208.129	970.976
232.899	27.387	1207.309	970.281
233.913	27.339	1206.747	969.490
234.928	27.476	1206.281	969.759
235.942	27.557	1205.735	969.664
236.957	27.446	1204.811	968.243
237.972	27.443	1203.901	967.412
238.986	27.468	1203.374	967.037
240.001	27.404	1203.188	966.459
241.015	27.510	1201.964	965.955
242.030	27.536	1201.600	965.714
243.045	27.496	1200.788	964.765
244.059	27.550	1200.001	964.329
245.074	27.574	1198.994	963.566
246.088	27.575	1198.536	963.113
247.103	27.576	1197.363	962.094
248.117	27.551	1196.759	961.392
249.132	27.566	1196.044	960.811
250.147	27.598	1195.191	960.207
251.161	27.620	1194.563	959.737
252.176	27.638	1193.779	959.114
253.190	27.618	1193.468	958.676
254.205	27.623	1192.566	957.893
255.220	27.609	1192.227	957.459
256.234	27.628	1191.491	956.883
257.249	27.590	1190.794	956.043
258.263	27.667	1189.998	955.721
259.278	27.589	1190.107	955.316
260.293	27.668	1189.461	955.124
261.307	27.648	1189.328	954.831
262.322	27.622	1188.063	953.596
263.336	27.583	1187.926	953.193
264.351	27.610	1186.958	952.476
265.366	27.650	1186.447	952.191
266.380	27.659	1185.828	951.657
267.395	27.619	1185.107	950.783
268.409	27.633	1184.486	950.274
269.424	27.663	1183.897	949.874
270.439	27.610	1183.505	949.201
271.453	27.730	1182.707	949.101
272.468	27.614	1181.751	947.647
273.482	27.566	1181.219	946.885
274.497	27.721	1180.825	947.291
275.512	27.690	1180.199	946.547
276.526	27.737	1179.546	946.183
277.541	27.738	1178.998	945.665
278.555	27.806	1178.024	945.153
279.570	27.772	1177.410	944.401
280.585	27.983	1176.174	944.414
281.599	27.829	1175.785	943.223
282.614	27.923	1175.091	943.068
283.628	27.812	1174.427	941.878
284.643	27.777	1173.296	940.707
285.657	27.817	1172.439	940.142
286.672	27.905	1171.427	939.700
287.687	27.766	1170.771	938.375
288.701	27.794	1170.484	938.207
289.716	27.927	1169.727	938.199
290.730	27.880	1169.029	937.318
291.745	27.916	1168.373	936.896
292.760	27.956	1167.794	936.552
293.774	27.875	1167.386	935.724
294.789	28.048	1166.564	935.872
295.803	27.880	1166.515	934.887
296.818	27.988	1165.324	934.400
297.833	28.128	1164.437	934.323
298.847	28.068	1163.807	933.430
299.862	27.999	1163.342	932.624
300.876	28.055	1162.579	932.213
301.891	28.053	1162.115	931.751
302.906	28.113	1161.471	931.456
303.920	28.159	1160.684	930.974
304.935	28.056	1160.207	929.986
305.949	28.048	1159.487	929.287
306.964	28.127	1159.126	929.319
307.979	28.097	1158.651	928.702
308.993	28.076	1157.885	927.896
310.008	28.153	1157.009	927.506
311.022	28.022	1156.431	926.295
312.037	28.151	1155.378	926.025
313.052	28.121	1154.712	925.256
314.066	28.220	1153.371	924.601
315.081	28.219	1152.606	923.899
316.095	28.168	1152.494	923.471
317.110	28.178	1152.001	923.044
318.125	28.120	1151.555	922.311
319.139	28.078	1150.465	921.146
320.154	28.230	1149.626	921.160
321.168	28.198	1149.655	920.940
322.183	28.236	1149.165	920.655
323.197	28.170	1148.308	919.557
324.212	28.210	1147.757	919.235
325.227	28.252	1147.412	919.086
326.241	28.198	1146.990	918.397
327.256	28.270	1146.083	917.949
328.270	28.153	1145.641	916.927
329.285	28.249	1144.296	916.252
330.300	28.142	1143.880	915.303
331.314	28.361	1142.468	915.188
332.329	28.266	1142.028	914.280
333.343	28.400	1141.147	914.159
334.358	28.437	1140.648	913.866
335.373	28.440	1139.936	913.230
336.387	28.423	1139.421	912.652
337.402	28.414	1138.885	912.096
338.416	28.429	1138.554	911.825
339.431	28.431	1137.475	910.888
340.446	28.451	1136.695	910.283
341.460	28.447	1136.171	909.763
342.475	28.362	1135.396	908.643
343.489	28.399	1134.625	908.126
344.504	28.369	1133.790	907.228
345.519	28.466	1132.746	906.795
346.533	28.445	1132.298	906.253
347.548	28.525	1131.361	905.814
348.562	28.561	1130.610	905.311
349.577	28.646	1129.705	904.926
350.592	28.467	1129.338	903.670
351.606	28.463	1128.536	902.928
352.621	28.483	1128.221	902.696
353.635	28.569	1127.599	902.539
354.650	28.506	1126.979	901.653
355.665	28.487	1126.202	900.858
356.679	28.614	1125.581	900.907
357.694	28.692	1125.008	900.751
358.708	28.608	1124.387	899.761
359.723	28.629	1123.816	899.328
360.738	28.498	1123.431	898.302
361.752	28.576	1122.676	897.999
362.767	28.528	1122.427	897.486
363.781	28.597	1121.777	897.222
364.796	28.766	1120.876	897.251
365.810	28.653	1120.305	896.162
366.825	28.728	1119.966	896.176
367.840	28.915	1118.852	896.119
368.854	28.800	1118.494	895.192
369.869	28.757	1118.087	894.577
370.883	28.765	1117.365	893.957
371.898	28.819	1116.362	893.341
372.913	28.763	1115.846	892.576
373.927	28.781	1115.690	892.460
374.942	28.857	1114.754	891.999
375.956	28.828	1114.341	891.449
376.971	28.911	1113.605	891.185
377.986	28.894	1113.073	890.597
379.000	28.876	1112.660	890.101
380.015	29.023	1111.946	890.162
381.029	28.866	1111.730	889.152
382.044	28.840	1110.911	888.294
383.059	28.992	1110.072	888.277
384.073	28.845	1109.611	887.118
385.088	28.951	1108.750	886.865
386.102	28.943	1108.195	886.305
387.117	28.935	1107.014	885.243
388.132	28.867	1106.368	884.318
389.146	28.982	1105.603	884.180
390.161	28.908	1105.379	883.569
391.175	29.022	1104.239	883.128
392.190	28.986	1104.038	882.715
393.205	29.012	1103.223	882.112
394.219	28.968	1102.440	881.197
395.234	29.204	1101.573	881.556
396.248	29.085	1100.530	880.073
397.263	29.105	1100.106	879.749
398.278	29.075	1099.649	879.166
399.292	29.145	1098.953	878.867
400.307	29.105	1098.262	878.045
401.321	29.165	1097.897	877.957
402.336	29.143	1096.943	877.012
403.350	29.173	1096.458	876.694
404.365	29.212	1095.836	876.305
405.380	29.300	1094.827	875.834
406.394	29.270	1094.343	875.231
407.409	29.205	1093.680	874.311
408.423	29.283	1093.122	874.158
409.438	29.195	1092.708	873.333
410.453	29.362	1091.796	873.321
411.467	29.403	1091.044	872.832
412.482	29.299	1090.246	871.625
413.496	29.333	1089.823	871.374
414.511	29.269	1089.175	870.475
415.526	29.288	1088.681	870.090
416.540	29.444	1088.159	870.335
417.555	29.370	1087.548	869.421
418.569	29.408	1086.972	869.060
419.584	29.423	1086.808	868.925
420.599	29.400	1086.253	868.296
421.613	103.605	1322.510	1460.121
422.628	96.451	1356.903	1460.257
