DTS Sentinel unit serial number:	SN413079Multiplexer serial number:	ORYXHardware model number:	OX4-SRSoftware version number:	ORYX F/W v4.00 Oryx Data Collector v3.7.2.0data status	okinstallation	princeton_trtdifferential loss correction	single-endedforward channel	channel 2reverse channel	N/Adate	2019/09/13time	18:19:35forward acquisition time	60.00reverse acquisition time	0.00gamma	496.2192k internal	0.2319k external	0.2319temperature offset calibration	1.0200default loss term (dB/km)	0.3790temperature slope calibration	1.0000multiplexer offset coefficient	1.0000multiplexer slope coefficient	1.0000fibre end	0.00T internal ref (°C)	33.97T ext. ref 1 (°C)	4.39T ext. ref 2 (°C)	26.86length (m)	temperature (°C)	Stokes	anti-Stokes-747.200	221.434	-0.130	-0.211
-746.185	800.000	0.135	0.412
-745.171	48.952	0.226	-0.215
-744.156	647.130	0.082	0.213
-743.142	356.586	-0.117	-0.236
-742.127	-10.355	-0.498	0.334
-741.112	117.685	-0.158	0.197
-740.098	-200.000	0.030	0.457
-739.083	13.768	0.158	0.125
-738.069	-200.000	0.050	0.430
-737.054	-200.000	-0.050	0.596
-736.039	-136.944	-0.416	0.048
-735.025	-73.826	0.178	-0.066
-734.010	-200.000	0.038	0.320
-732.996	-200.000	-0.029	-0.262
-731.981	183.304	-0.062	0.093
-730.966	-5.337	-0.091	-0.063
-729.952	-9.645	-0.162	-0.109
-728.937	43.335	-0.244	0.226
-727.923	-200.000	-0.018	-0.183
-726.908	-98.044	0.205	-0.053
-725.894	291.367	0.064	-0.118
-724.879	-200.000	-0.018	0.086
-723.864	750.764	-0.090	-0.246
-722.850	-200.000	0.031	0.164
-721.835	-5.964	0.110	-0.076
-720.821	-175.412	0.317	0.009
-719.806	665.984	0.079	0.207
-718.791	-158.725	-0.359	0.021
-717.777	348.288	-0.114	-0.228
-716.762	2.335	-0.099	-0.072
-715.748	124.606	-0.175	-0.222
-714.733	-101.885	-0.328	0.080
-713.718	212.521	-0.090	-0.143
-712.704	800.000	0.014	-0.042
-711.689	800.000	0.097	0.392
-710.675	249.473	0.106	0.182
-709.660	-200.000	0.007	-0.079
-708.645	154.737	-0.067	0.093
-707.631	198.160	-0.081	0.126
-706.616	800.000	-0.097	-0.288
-705.602	525.223	-0.204	-0.485
-704.587	-200.000	0.020	-0.092
-703.572	12.926	0.197	0.154
-702.558	-83.791	0.120	-0.039
-701.543	800.000	0.035	0.100
-700.529	-105.615	0.074	0.017
-699.514	800.000	-0.050	-0.155
-698.499	-170.688	-0.353	0.012
-697.485	-164.007	-0.125	-0.006
-696.470	351.258	-0.055	-0.110
-695.456	-200.000	-0.209	0.001
-694.441	-111.887	0.071	-0.015
-693.426	800.000	-0.037	0.106
-692.412	800.000	-0.098	0.354
-691.397	52.078	-0.097	-0.094
-690.383	-70.250	-0.153	-0.059
-689.368	-35.007	0.367	-0.202
-688.354	-111.472	0.067	-0.014
-687.339	-80.639	0.465	0.156
-686.324	800.000	-0.034	0.147
-685.310	536.535	-0.121	0.290
-684.295	800.000	-0.056	-0.226
-683.281	566.383	0.024	-0.060
-682.266	-200.000	0.067	-0.296
-681.251	-200.000	-0.009	-0.082
-680.237	-116.976	-0.212	0.039
-679.222	-168.153	-0.093	-0.004
-678.208	664.189	-0.054	-0.140
-677.193	-92.419	0.423	-0.120
-676.178	133.607	0.157	0.205
-675.164	87.005	-0.053	0.059
-674.149	-200.000	-0.055	-0.275
-673.135	-21.031	0.131	0.081
-672.120	800.000	-0.115	-0.333
-671.105	-157.073	-0.201	0.012
-670.091	-165.573	0.287	-0.013
-669.076	-123.968	-0.158	0.025
-668.062	224.143	0.144	-0.235
-667.047	202.332	0.154	-0.239
-666.032	352.560	-0.196	-0.393
-665.018	-64.793	0.378	-0.154
-664.003	800.000	-0.038	-0.117
-662.989	120.208	0.127	0.159
-661.974	-200.000	-0.009	-0.298
-660.959	133.640	0.200	0.261
-659.945	-200.000	-0.060	0.479
-658.930	-63.370	0.054	0.022
-657.916	257.989	-0.083	0.144
-656.901	693.574	-0.149	0.393
-655.886	-61.635	-0.166	0.070
-654.872	48.262	-0.228	-0.215
-653.857	-200.000	-0.010	0.047
-652.843	800.000	-0.005	-0.014
-651.828	800.000	0.020	0.074
-650.814	-103.808	-0.115	-0.027
-649.799	-16.696	0.326	0.208
-648.784	167.839	-0.068	0.098
-647.770	110.518	-0.164	0.198
-646.755	-200.000	0.009	-0.337
-645.741	-200.000	-0.003	-0.189
-644.726	-200.000	0.010	0.228
-643.711	426.236	-0.133	-0.288
-642.697	-77.837	-0.278	-0.097
-641.682	94.738	0.283	-0.325
-640.668	-111.422	-0.260	-0.053
-639.653	-85.961	0.412	-0.128
-638.638	-7.841	0.140	0.095
-637.624	12.630	0.216	-0.168
-636.609	1.067	-0.082	0.059
-635.595	-42.043	0.141	0.073
-634.580	800.000	0.043	0.139
-633.565	73.039	-0.175	-0.184
-632.551	-174.548	-0.126	0.004
-631.536	-94.832	0.072	0.020
-630.522	175.902	0.103	-0.150
-629.507	161.600	0.117	0.165
-628.492	-200.000	-0.017	0.091
-627.478	-58.000	-0.158	0.069
-626.463	236.642	0.091	-0.152
-625.449	800.000	0.107	-0.333
-624.434	-63.810	-0.134	0.055
-623.419	145.524	0.129	0.174
-622.405	-46.728	0.208	0.103
-621.390	105.494	0.142	-0.169
-620.376	13.882	0.268	0.209
-619.361	800.000	0.028	-0.083
-618.346	-43.037	-0.300	-0.153
-617.332	788.557	-0.021	-0.058
-616.317	-200.000	-0.039	-0.260
-615.303	-54.859	0.203	0.092
-614.288	312.871	-0.045	0.085
-613.273	-105.555	0.196	-0.045
-612.259	-81.239	-0.306	0.102
-611.244	-159.462	-0.050	0.003
-610.230	-59.260	0.376	0.163
-609.215	-200.000	-0.015	0.297
-608.201	23.987	-0.031	-0.026
-607.186	-179.335	0.186	-0.004
-606.171	-200.000	-0.014	-0.513
-605.157	-160.625	-0.180	-0.010
-604.142	800.000	0.093	-0.315
-603.128	-95.936	-0.071	0.019
-602.113	-200.000	-0.005	0.145
-601.098	39.084	-0.155	-0.139
-600.084	-25.959	-0.278	-0.165
-599.069	-9.603	0.126	-0.085
-598.055	-8.528	-0.151	0.102
-597.040	-36.507	-0.246	-0.133
-596.025	222.557	0.131	-0.212
-595.011	-107.353	-0.145	0.032
-593.996	-65.318	-0.265	0.107
-592.982	15.945	-0.193	0.153
-591.967	-78.537	-0.111	-0.038
-590.952	56.990	0.114	0.112
-589.938	-115.663	0.103	-0.019
-588.923	141.849	-0.064	0.086
-587.909	-37.922	-0.370	-0.198
-586.894	105.748	-0.243	-0.289
-585.879	-200.000	-0.022	-0.337
-584.865	55.501	-0.116	-0.113
-583.850	-200.000	0.005	0.150
-582.836	39.164	0.207	0.186
-581.821	-119.353	-0.387	-0.068
-580.806	73.569	-0.102	0.107
-579.792	14.256	-0.121	-0.095
-578.777	-45.017	-0.285	-0.142
-577.763	-166.740	0.141	0.006
-576.748	-48.648	-0.317	0.153
-575.733	-182.608	0.221	0.004
-574.719	-28.297	0.282	0.163
-573.704	93.160	-0.123	0.140
-572.690	-200.000	-0.038	-0.382
-571.675	-121.471	-0.094	0.016
-570.661	-200.000	0.019	0.136
-569.646	188.680	-0.106	0.160
-568.631	800.000	-0.035	0.117
-567.617	165.430	0.195	-0.277
-566.602	259.597	0.136	0.235
-565.588	233.451	0.054	0.089
-564.573	35.797	0.234	-0.207
-563.558	-113.565	0.096	0.019
-562.544	-109.590	0.248	0.053
-561.529	416.412	-0.152	-0.325
-560.515	60.013	-0.252	-0.251
-559.500	-186.967	0.178	-0.002
-558.485	-99.863	-0.408	0.103
-557.471	-200.000	-0.042	0.414
-556.456	549.561	-0.190	0.457
-555.442	52.355	0.134	-0.128
-554.427	-75.535	0.107	-0.038
-553.412	402.521	0.111	-0.234
-552.398	310.953	0.191	0.359
-551.383	800.000	-0.044	0.190
-550.369	-126.697	0.351	-0.052
-549.354	-139.576	0.174	-0.019
-548.339	-100.542	-0.282	0.070
-547.325	-69.355	-0.088	0.034
-546.310	800.000	-0.062	0.232
-545.296	-104.385	-0.148	0.034
-544.281	-103.432	0.141	0.033
-543.266	87.572	0.102	-0.113
-542.252	259.166	-0.106	0.183
-541.237	86.069	0.184	-0.204
-540.223	151.785	-0.117	-0.160
-539.208	-75.000	-0.486	0.175
-538.193	800.000	-0.096	-0.289
-537.179	425.157	0.088	-0.189
-536.164	-200.000	0.019	0.140
-535.150	269.444	0.071	0.125
-534.135	-200.000	0.037	0.243
-533.121	241.420	0.015	-0.025
-532.106	261.938	0.085	0.148
-531.091	12.176	0.295	-0.228
-530.077	544.876	0.069	-0.166
-529.062	243.569	-0.152	-0.256
-528.048	-107.952	0.142	0.031
-527.033	-15.615	0.169	-0.108
-526.018	254.113	0.234	0.402
-525.004	108.600	0.083	0.100
-523.989	217.938	-0.154	-0.247
-522.975	-10.248	0.080	0.053
-521.960	-75.423	-0.249	0.089
-520.945	280.124	0.110	0.198
-519.931	332.231	-0.073	-0.141
-518.916	17.924	-0.227	0.182
-517.902	-200.000	-0.011	-0.589
-516.887	-95.783	0.042	-0.011
-515.872	-200.000	-0.035	0.408
-514.858	-100.166	-0.072	-0.018
-513.843	-67.130	0.255	-0.101
-512.829	36.479	0.226	-0.200
-511.814	-200.000	-0.007	-0.213
-510.799	-200.000	0.014	-0.138
-509.785	-108.241	-0.162	-0.035
-508.770	358.164	0.057	0.114
-507.756	173.261	0.083	-0.119
-506.741	590.660	0.046	-0.113
-505.726	624.135	0.061	0.155
-504.712	-21.845	0.295	-0.180
-503.697	-30.035	0.201	0.115
-502.683	148.852	0.154	-0.209
-501.668	-200.000	0.024	-0.299
-500.653	132.009	-0.257	0.332
-499.639	-35.703	-0.124	-0.067
-498.624	-200.000	0.041	0.239
-497.610	-30.771	-0.232	-0.131
-496.595	416.819	0.034	0.072
-495.581	76.278	-0.276	0.292
-494.566	-160.984	-0.365	0.019
-493.551	-200.000	-0.016	-0.270
-492.537	-41.166	0.190	0.098
-491.522	-125.799	0.249	-0.038
-490.508	496.849	0.105	0.241
-489.493	-1.975	0.052	-0.037
-488.478	231.399	0.073	-0.120
-487.464	800.000	-0.035	0.126
-486.449	56.037	-0.324	0.315
-485.435	-186.816	0.234	0.003
-484.420	-200.000	0.004	0.122
-483.405	191.651	0.138	0.208
-482.391	-124.880	0.019	0.003
-481.376	-96.936	-0.181	0.048
-480.362	-52.996	0.309	-0.142
-479.347	-28.477	-0.237	-0.137
-478.332	-124.022	-0.147	-0.023
-477.318	-38.287	-0.204	0.108
-476.303	-65.224	-0.369	0.149
-475.289	33.373	0.061	0.053
-474.274	-155.937	-0.379	0.024
-473.259	578.215	-0.115	0.282
-472.245	325.807	0.145	0.277
-471.230	29.025	0.161	-0.136
-470.216	-71.936	-0.227	0.085
-469.201	215.776	0.228	0.363
-468.186	-167.066	-0.231	0.009
-467.172	-92.120	-0.193	0.054
-466.157	-147.888	-0.257	0.021
-465.143	551.056	0.064	-0.155
-464.128	300.204	-0.057	0.106
-463.113	-200.000	0.015	0.353
-462.099	-72.595	0.228	0.084
-461.084	313.279	0.081	-0.152
-460.070	100.124	-0.146	-0.170
-459.055	260.391	0.083	0.144
-458.040	2.779	-0.106	0.077
-457.026	37.119	-0.127	0.112
-456.011	630.508	-0.058	-0.147
-454.997	382.601	0.019	-0.040
-453.982	800.000	-0.068	0.289
-452.968	294.161	-0.080	0.145
-451.953	-15.747	-0.276	-0.176
-450.938	52.237	-0.111	-0.106
-449.924	39.071	0.115	-0.103
-448.909	9.151	0.325	-0.245
-447.895	-121.866	0.133	-0.022
-446.880	43.209	-0.160	0.146
-445.865	-200.000	0.031	-0.252
-444.851	107.696	-0.099	-0.118
-443.836	-200.000	-0.002	0.098
-442.822	57.365	-0.217	-0.212
-441.807	-49.365	-0.111	-0.053
-440.792	565.355	-0.054	0.131
-439.778	-25.088	0.157	-0.093
-438.763	-97.370	0.147	0.038
-437.749	136.504	-0.069	-0.090
-436.734	-22.174	0.376	-0.228
-435.719	363.082	0.048	0.096
-434.705	87.412	0.066	0.072
-433.690	-82.882	-0.165	0.053
-432.676	-48.297	0.046	0.022
-431.661	-99.948	-0.168	-0.042
-430.646	35.531	-0.224	0.196
-429.632	-7.886	-0.081	-0.055
-428.617	176.234	-0.084	0.122
-427.603	800.000	0.056	0.183
-426.588	-200.000	0.003	0.047
-425.573	-200.000	0.011	-0.210
-424.559	-16.845	0.129	-0.082
-423.544	-3.645	-0.259	0.180
-422.530	-98.127	0.103	-0.027
-421.515	-61.555	0.132	0.056
-420.500	-67.158	0.078	-0.031
-419.486	-72.120	0.059	-0.022
-418.471	-68.108	-0.209	0.081
-417.457	-200.000	-0.047	-0.269
-416.442	-122.267	-0.140	0.023
-415.428	-50.646	0.216	0.101
-414.413	91.014	-0.257	0.288
-413.398	-41.950	-0.106	-0.054
-412.384	-40.721	0.394	-0.204
-411.369	310.016	-0.145	0.272
-410.355	-26.467	-0.193	-0.113
-409.340	501.291	-0.108	-0.249
-408.325	-129.246	0.296	0.041
-407.311	-200.000	0.007	-0.081
-406.296	387.126	-0.233	-0.481
-405.282	298.154	-0.151	-0.277
-404.267	-84.931	-0.238	0.075
-403.252	341.227	-0.115	-0.225
-402.238	-112.730	-0.238	-0.047
-401.223	-200.000	-0.016	-0.363
-400.209	20.013	0.161	-0.129
-399.194	201.092	0.184	0.283
-398.179	85.576	-0.054	0.060
-397.165	93.896	0.058	0.065
-396.150	800.000	-0.051	0.194
-395.136	800.000	0.031	0.110
-394.121	-200.000	-0.011	0.113
-393.106	-200.000	0.019	0.172
-392.092	-200.000	0.007	0.117
-391.077	-104.961	0.133	0.030
-390.063	800.000	0.056	-0.169
-389.048	170.992	-0.173	-0.248
-388.033	-76.579	-0.294	-0.103
-387.019	502.348	0.141	-0.326
-386.004	-29.080	0.147	0.084
-384.990	153.004	-0.135	-0.185
-383.975	-4.747	-0.274	0.189
-382.960	1.173	0.192	-0.138
-381.946	-131.627	-0.180	0.024
-380.931	75.955	0.109	-0.115
-379.917	14.937	-0.291	-0.228
-378.902	21.355	0.325	-0.263
-377.888	-55.762	0.151	0.067
-376.873	-200.000	-0.031	0.159
-375.858	243.421	-0.094	-0.158
-374.844	800.000	0.076	-0.248
-373.829	-87.318	0.129	0.039
-372.815	365.008	0.108	0.216
-371.800	800.000	0.094	-0.334
-370.785	-85.772	-0.188	-0.058
-369.771	800.000	0.048	-0.145
-368.756	-89.406	0.375	0.110
-367.742	2.788	-0.200	0.145
-366.727	-25.803	-0.363	-0.213
-365.712	407.888	0.045	0.094
-364.698	-200.000	-0.015	-0.155
-363.683	-12.399	-0.069	-0.045
-362.669	-200.000	0.034	-0.381
-361.654	-8.947	0.120	-0.080
-360.639	289.669	-0.120	0.217
-359.625	72.308	-0.198	-0.206
-358.610	-200.000	-0.001	0.108
-357.596	79.910	-0.101	-0.108
-356.581	800.000	-0.065	0.266
-355.566	-94.008	-0.179	0.049
-354.552	154.641	0.196	0.269
-353.537	-200.000	-0.046	-0.241
-352.523	-200.000	0.053	-0.314
-351.508	737.950	0.113	0.302
-350.493	-7.736	0.126	0.085
-349.479	36.910	-0.114	-0.101
-348.464	204.947	0.189	-0.292
-347.450	251.708	0.133	-0.226
-346.435	684.596	0.053	0.139
-345.420	-141.490	0.253	-0.026
-344.406	457.500	0.049	0.109
-343.391	287.713	-0.112	0.203
-342.377	289.675	0.246	-0.445
-341.362	-20.034	-0.285	0.175
-340.348	-128.939	-0.174	-0.024
-339.333	259.867	-0.174	-0.299
-338.318	-50.566	0.147	0.069
-337.304	396.262	0.033	0.068
-336.289	-106.312	-0.517	-0.115
-335.275	-69.206	0.143	0.055
-334.260	800.000	-0.115	0.464
-333.245	68.644	0.088	-0.090
-332.231	224.147	0.103	0.166
-331.216	800.000	0.065	-0.202
-330.202	-86.110	-0.204	-0.063
-329.187	34.334	-0.064	-0.056
-328.172	-48.857	-0.245	0.117
-327.158	-36.798	-0.269	0.144
-326.143	-200.000	-0.013	0.272
-325.129	58.470	0.217	0.212
-324.114	-200.000	0.038	-0.315
-323.099	300.753	-0.169	-0.311
-322.085	262.699	-0.012	0.021
-321.070	22.647	0.234	0.191
-320.056	-200.000	0.007	0.147
-319.041	-121.999	0.149	-0.024
-318.026	-41.311	0.101	0.052
-317.012	-114.575	0.276	0.053
-315.997	230.993	-0.124	-0.202
-314.983	-56.961	0.169	-0.074
-313.968	800.000	-0.074	-0.233
-312.953	-88.758	0.295	0.087
-311.939	800.000	-0.066	-0.241
-310.924	736.024	0.065	-0.173
-309.910	679.990	-0.069	-0.179
-308.895	155.075	-0.092	0.126
-307.880	133.284	0.169	-0.217
-306.866	-89.420	-0.233	0.068
-305.851	800.000	-0.095	0.312
-304.837	-33.552	0.317	-0.174
-303.822	-200.000	0.022	0.142
-302.807	-200.000	-0.026	-0.210
-301.793	800.000	0.119	0.518
-300.778	519.806	0.076	0.176
-299.764	-68.669	0.111	0.043
-298.749	-113.974	-0.279	-0.054
-297.735	-200.000	0.013	0.129
-296.720	453.121	-0.152	0.335
-295.705	269.948	-0.115	0.201
-294.691	800.000	-0.078	0.283
-293.676	-200.000	-0.007	0.272
-292.662	-51.454	0.304	-0.141
-291.647	-124.142	0.277	0.043
-290.632	-200.000	-0.061	0.320
-289.618	-115.538	0.051	-0.009
-288.603	25.696	0.094	-0.078
-287.589	-146.510	-0.119	-0.010
-286.574	568.220	-0.031	0.074
-285.559	-101.006	0.167	-0.041
-284.545	-141.684	-0.221	-0.022
-283.530	-200.000	-0.005	-0.119
-282.516	-44.114	-0.112	-0.056
-281.501	-58.968	0.176	-0.076
-280.486	-158.513	0.021	0.001
-279.472	86.147	-0.120	0.131
-278.457	-115.997	-0.200	0.037
-277.443	-147.044	0.142	-0.012
-276.428	44.919	0.214	-0.196
-275.413	175.338	0.224	0.322
-274.399	-76.677	0.182	0.064
-273.384	17.142	-0.240	-0.189
-272.370	-187.207	0.142	-0.002
-271.355	-64.939	0.329	0.132
-270.340	-62.539	0.184	-0.076
-269.326	-200.000	0.011	-0.127
-268.311	-90.081	0.134	-0.039
-267.297	-91.030	0.167	-0.048
-266.282	52.516	0.167	-0.158
-265.267	-85.968	0.328	0.101
-264.253	800.000	-0.058	-0.214
-263.238	-62.442	-0.072	-0.030
-262.224	-82.589	-0.098	-0.032
-261.209	-27.888	-0.199	0.114
-260.195	179.313	-0.240	0.349
-259.180	-28.418	0.172	-0.098
-258.165	206.775	0.251	-0.389
-257.151	235.579	-0.087	-0.142
-256.136	-200.000	-0.037	-0.187
-255.122	6.391	-0.046	0.034
-254.107	-200.000	-0.043	0.325
-253.092	-89.538	0.274	0.080
-252.078	800.000	-0.090	0.288
-251.063	286.194	-0.069	0.123
-250.049	34.716	-0.061	0.053
-249.034	49.972	-0.026	0.024
-248.019	223.773	-0.122	-0.196
-247.005	165.149	0.148	0.207
-245.990	107.184	-0.094	-0.111
-244.976	-97.709	0.257	0.066
-243.961	-200.000	0.363	0.001
-242.946	278.525	0.186	-0.330
-241.932	187.470	-0.061	-0.090
-240.917	800.000	0.063	0.195
-239.903	-102.921	-0.365	-0.086
-238.888	-52.976	0.199	-0.091
-237.873	-84.250	-0.127	-0.040
-236.859	67.826	-0.104	0.105
-235.844	-90.390	0.292	0.084
-234.830	0.554	-0.191	0.136
-233.815	18.796	0.122	-0.097
-232.800	-16.800	-0.187	-0.117
-231.786	-63.804	-0.129	-0.053
-230.771	-5.638	0.272	-0.185
-229.757	121.894	-0.195	0.241
-228.742	142.736	-0.120	-0.158
-227.727	-15.568	0.245	-0.155
-226.713	-134.862	0.032	-0.004
-225.698	629.128	-0.039	-0.098
-224.684	-111.078	-0.103	-0.021
-223.669	181.309	0.056	-0.082
-222.655	-56.224	0.181	0.080
-221.640	-13.184	-0.072	0.047
-220.625	649.002	0.053	0.135
-219.611	-0.225	-0.262	0.185
-218.596	-200.000	0.037	-0.260
-217.582	-136.185	0.116	-0.013
-216.567	212.617	0.064	-0.101
-215.552	-101.431	0.207	0.050
-214.538	27.124	0.052	-0.043
-213.523	-200.000	-0.000	-0.049
-212.509	800.000	-0.106	0.313
-211.494	-83.674	-0.095	0.030
-210.479	27.036	0.104	0.086
-209.465	218.300	0.142	0.225
-208.450	-200.000	-0.019	-0.409
-207.436	-113.735	0.082	0.016
-206.421	800.000	0.049	0.174
-205.406	-25.262	0.173	0.102
-204.392	30.286	-0.173	-0.147
-203.377	-176.047	0.198	-0.005
-202.363	-138.836	-0.359	-0.039
-201.348	-54.006	0.318	-0.143
-200.333	-200.000	0.005	-0.185
-199.319	20.051	0.119	0.095
-198.304	800.000	0.074	0.229
-197.290	5.654	0.047	-0.035
-196.275	118.051	-0.191	0.233
-195.260	-138.022	0.158	0.017
-194.246	-200.000	0.011	-0.069
-193.231	-57.853	-0.150	-0.065
-192.217	-200.000	0.024	0.118
-191.202	549.147	-0.070	0.165
-190.187	-48.963	-0.135	0.064
-189.173	-123.048	-0.310	0.049
-188.158	-30.642	0.397	-0.223
-187.144	-34.639	-0.101	0.054
-186.129	800.000	0.059	0.190
-185.114	227.566	0.078	0.125
-184.100	-130.374	0.279	0.037
-183.085	800.000	0.041	0.143
-182.071	800.000	-0.147	0.442
-181.056	90.258	-0.195	0.216
-180.042	313.804	-0.022	0.042
-179.027	623.718	-0.073	0.183
-178.012	-200.000	-0.005	-0.037
-176.998	163.054	0.270	-0.376
-175.983	-92.061	0.227	-0.064
-174.969	-108.660	-0.409	-0.087
-173.954	141.041	0.151	0.198
-172.939	-28.933	0.200	0.114
-171.925	800.000	-0.040	0.124
-170.910	-200.000	0.028	0.185
-169.896	149.790	0.219	0.294
-168.881	-48.452	0.136	-0.065
-167.866	455.619	0.030	-0.067
-166.852	-200.000	0.031	0.226
-165.837	800.000	-0.080	0.288
-164.823	-9.616	-0.083	0.054
-163.808	115.243	-0.222	-0.268
-162.793	-200.000	0.002	-0.307
-161.779	-134.650	-0.239	-0.029
-160.764	-120.148	0.213	-0.036
-159.750	9.450	0.165	0.124
-158.735	28.716	-0.275	-0.230
-157.720	339.237	-0.066	0.128
-156.706	-86.425	-0.323	0.098
-155.691	82.966	-0.274	0.294
-154.677	178.219	-0.060	-0.087
-153.662	-12.234	0.456	-0.295
-152.647	88.020	0.158	-0.173
-151.633	-200.000	-0.028	0.154
-150.618	-31.178	-0.204	-0.114
-149.604	-21.972	0.136	-0.081
-148.589	17.907	0.030	0.024
-147.574	421.452	-0.057	0.121
-146.560	413.478	-0.070	-0.148
-145.545	-200.000	-0.020	0.265
-144.531	504.031	0.037	0.085
-143.516	-37.653	-0.055	-0.029
-142.502	226.292	-0.198	-0.317
-141.487	-113.534	0.310	0.060
-140.472	287.634	-0.082	-0.146
-139.458	-200.000	0.006	0.120
-138.443	769.334	-0.044	-0.117
-137.429	-134.471	0.160	0.019
-136.414	-200.000	0.041	-0.319
-135.399	26.788	0.101	-0.084
-134.385	-44.387	-0.313	0.155
-133.370	-95.454	-0.225	0.060
-132.356	-200.000	0.016	0.160
-131.341	127.300	0.185	0.232
-130.326	710.466	0.090	-0.236
-129.312	-200.000	-0.002	-0.144
-128.297	0.652	-0.255	-0.180
-127.283	168.607	-0.195	0.275
-126.268	-112.454	0.088	0.017
-125.253	93.144	0.149	0.166
-124.239	-200.000	0.006	0.469
-123.224	800.000	0.094	0.298
-122.210	233.999	0.069	0.112
-121.195	-200.000	-0.014	-0.158
-120.180	-113.909	0.395	-0.076
-119.166	-30.802	0.234	0.130
-118.151	-56.897	0.207	-0.090
-117.137	154.770	-0.170	0.231
-116.122	-138.157	-0.424	0.046
-115.107	-76.817	-0.325	0.112
-114.093	-100.995	0.295	0.072
-113.078	-76.245	-0.046	0.016
-112.064	14.513	0.345	-0.266
-111.049	68.880	0.232	-0.235
-110.034	56.281	0.156	0.149
-109.020	104.599	0.072	-0.084
-108.005	-153.504	0.313	-0.021
-106.991	-25.770	0.325	-0.189
-105.976	-35.257	-0.226	0.121
-104.962	-87.412	0.110	-0.033
-103.947	-38.780	0.246	-0.128
-102.932	-200.000	-0.058	-0.317
-101.918	155.887	0.261	-0.355
-100.903	13.922	0.287	0.220
-99.889	-34.573	0.066	-0.036
-98.874	-17.793	-0.161	0.100
-97.859	-94.594	0.319	0.086
-96.845	466.723	0.090	-0.198
-95.830	-102.812	-0.263	0.062
-94.816	-200.000	-0.022	0.169
-93.801	-141.133	0.323	0.033
-92.786	-200.000	0.005	0.058
-91.772	-64.705	0.031	0.012
-90.757	242.480	0.219	-0.362
-89.743	-138.406	-0.247	0.027
-88.728	-53.579	0.055	0.025
-87.713	-54.861	-0.192	0.086
-86.699	-200.000	-0.035	0.399
-85.684	-148.594	0.334	-0.027
-84.670	0.305	0.272	-0.192
-83.655	-117.853	-0.039	-0.007
-82.640	800.000	-0.030	0.112
-81.626	567.656	-0.096	0.229
-80.611	-85.306	-0.173	0.053
-79.597	57.066	0.120	-0.115
-78.582	-5.847	0.299	-0.202
-77.567	-65.660	-0.184	0.073
-76.553	800.000	-0.115	-0.355
-75.538	-52.387	0.132	0.060
-74.524	-96.608	-0.178	0.046
-73.509	-118.030	0.425	0.075
-72.494	-108.197	0.271	-0.058
-71.480	-200.000	-0.040	0.177
-70.465	-106.317	0.070	-0.016
-69.451	21.928	-0.164	0.132
-68.436	-200.000	-0.069	-0.441
-67.422	-200.000	-0.009	-0.221
-66.407	-75.341	-0.237	-0.083
-65.392	-9.127	0.460	-0.303
-64.378	-138.276	-0.094	0.010
-63.363	499.284	-0.063	0.143
-62.349	-200.000	0.072	-0.325
-61.334	92.793	-0.835	-0.929
-60.319	-26.005	0.597	0.346
-59.305	696.914	-0.241	-0.623
-58.290	92.516	0.627	0.697
-57.276	451.231	0.584	1.270
-56.261	-200.000	96.086	574.198
-55.246	629.893	1390.438	3463.332
-54.232	191.891	2587.123	3840.380
-53.217	112.824	2287.649	2728.972
-52.203	43.312	1909.108	1717.045
-51.188	37.328	1700.676	1483.985
-50.173	34.496	1656.987	1424.696
-49.159	52.126	1702.646	1597.628
-48.144	54.171	1719.688	1629.013
-47.130	36.684	1680.028	1460.879
-46.115	34.033	1665.020	1427.899
-45.100	33.852	1660.055	1422.230
-44.086	33.833	1658.196	1420.434
-43.071	33.821	1654.817	1417.396
-42.057	33.750	1651.982	1414.380
-41.042	33.855	1650.498	1413.835
-40.027	33.741	1648.698	1411.391
-39.013	33.798	1646.490	1409.872
-37.998	33.801	1644.875	1408.451
-36.984	33.918	1643.815	1408.354
-35.969	33.933	1642.064	1406.907
-34.954	34.075	1640.012	1406.147
-33.940	33.961	1638.711	1404.135
-32.925	33.970	1636.668	1402.396
-31.911	34.011	1634.604	1400.870
-30.896	34.001	1633.428	1399.732
-29.881	33.860	1632.138	1397.536
-28.867	34.004	1630.107	1396.800
-27.852	33.993	1628.091	1394.933
-26.838	33.948	1626.774	1393.420
-25.823	33.863	1625.729	1391.845
-24.809	34.019	1624.212	1391.633
-23.794	33.999	1622.445	1389.924
-22.779	34.045	1620.716	1388.723
-21.765	34.025	1619.240	1387.251
-20.750	34.023	1617.956	1386.083
-19.736	34.075	1616.871	1385.482
-18.721	34.032	1615.271	1383.743
-17.706	33.969	1613.807	1381.974
-16.692	34.029	1611.925	1380.739
-15.677	33.985	1610.725	1379.337
-14.663	33.951	1609.363	1377.870
-13.648	33.899	1608.261	1376.495
-12.633	33.985	1606.675	1375.707
-11.619	33.928	1605.150	1373.934
-10.604	33.984	1603.337	1372.735
-9.590	34.067	1602.052	1372.179
-8.575	34.036	1600.920	1370.932
-7.560	33.975	1600.105	1369.737
-6.546	33.995	1598.732	1368.654
-5.531	34.030	1597.622	1367.901
-4.517	34.000	1596.272	1366.477
-3.502	34.017	1595.191	1365.617
-2.487	34.109	1593.018	1364.364
-1.473	33.462	1580.940	1349.355
-0.458	29.860	1558.983	1305.214
0.556	27.338	1557.088	1262.539
1.571	24.260	1579.815	1259.155
2.586	23.181	1592.150	1261.183
3.600	20.116	1538.070	1197.101
4.615	12.085	1429.813	1060.975
5.629	5.636	1366.616	973.997
6.644	4.324	1358.626	960.103
7.659	4.293	1357.660	959.144
8.673	4.435	1356.529	959.135
9.688	4.528	1354.602	958.265
10.702	4.482	1352.530	956.428
11.717	7.191	1357.280	976.425
12.731	15.059	1371.649	1035.523
13.746	21.269	1381.037	1081.073
14.761	22.161	1381.525	1086.877
15.775	21.325	1379.299	1079.862
16.790	20.404	1376.903	1072.209
17.804	19.614	1374.597	1065.450
18.819	19.133	1373.462	1061.511
19.834	18.932	1372.440	1059.391
20.848	18.851	1371.318	1057.930
21.863	18.684	1369.843	1055.673
22.877	18.548	1369.203	1054.248
23.892	18.492	1367.987	1052.874
24.907	18.368	1367.421	1051.583
25.921	18.431	1366.478	1051.153
26.936	18.517	1365.479	1050.818
27.950	18.597	1364.595	1050.532
28.965	18.643	1363.458	1049.849
29.980	18.801	1362.198	1049.752
30.994	18.764	1361.093	1048.579
32.009	18.861	1360.453	1048.586
33.023	18.789	1359.319	1047.179
34.038	18.718	1357.480	1045.239
35.053	18.729	1356.361	1044.350
36.067	18.727	1355.625	1043.682
37.082	18.783	1354.528	1043.083
38.096	18.790	1353.341	1042.120
39.111	18.862	1352.594	1041.892
40.126	18.731	1351.769	1040.371
41.140	18.313	1351.074	1037.211
42.155	18.318	1350.552	1036.745
43.169	18.136	1350.565	1035.560
44.184	18.302	1350.036	1036.069
45.199	18.386	1349.310	1035.932
46.213	18.416	1348.948	1035.743
47.228	18.521	1348.680	1036.077
48.242	18.669	1346.947	1035.549
49.257	18.624	1345.536	1034.104
50.271	18.555	1343.975	1032.395
51.286	18.596	1342.769	1031.622
52.301	18.615	1341.498	1030.672
53.315	18.545	1340.227	1029.181
54.330	18.413	1339.269	1027.566
55.344	18.401	1338.000	1026.425
56.359	18.478	1336.643	1025.756
57.374	18.280	1336.389	1024.284
58.388	18.244	1335.255	1023.110
59.403	18.193	1334.722	1022.308
60.417	18.277	1333.852	1022.053
61.432	18.130	1333.409	1020.746
62.447	18.050	1332.676	1019.613
63.461	18.076	1331.202	1018.550
64.476	18.009	1330.368	1017.423
65.490	18.054	1328.472	1016.155
66.505	18.060	1327.183	1015.111
67.520	18.036	1326.353	1014.248
68.534	18.121	1325.093	1013.695
69.549	18.042	1324.044	1012.337
70.563	17.979	1322.987	1011.064
71.578	17.902	1321.892	1009.684
72.593	17.845	1320.878	1008.483
73.607	17.928	1320.117	1008.300
74.622	17.919	1319.468	1007.664
75.636	17.980	1318.687	1007.338
76.651	17.998	1317.821	1006.695
77.666	17.926	1318.080	1006.379
78.680	17.992	1317.448	1006.195
79.695	18.051	1316.528	1005.750
80.709	18.153	1315.827	1005.728
81.724	18.279	1315.077	1005.805
82.739	18.326	1314.168	1005.299
83.753	18.419	1313.825	1005.492
84.768	18.536	1312.917	1005.396
85.782	18.681	1311.633	1005.172
86.797	18.727	1310.282	1004.317
87.812	18.573	1309.130	1002.447
88.826	18.596	1307.513	1001.251
89.841	18.689	1306.805	1001.162
90.855	18.680	1305.884	1000.315
91.870	18.707	1305.379	999.996
92.884	18.602	1304.619	998.718
93.899	18.700	1303.759	998.538
94.914	18.799	1303.085	998.512
95.928	18.896	1301.828	998.023
96.943	18.724	1300.747	996.107
97.957	18.700	1299.949	995.268
98.972	18.781	1298.205	994.316
99.987	18.754	1298.276	994.123
101.001	18.686	1296.831	992.536
102.016	18.670	1296.029	991.742
103.030	18.714	1295.211	991.286
104.045	18.636	1294.648	990.317
105.060	18.566	1293.049	988.599
106.074	18.330	1291.702	986.125
107.089	18.174	1289.879	983.747
108.103	18.035	1288.874	982.096
109.118	18.136	1287.362	981.435
110.133	18.119	1286.107	980.297
111.147	18.072	1285.016	979.105
112.162	18.133	1283.520	978.227
113.176	18.245	1282.782	978.219
114.191	18.239	1281.796	977.348
115.206	18.289	1280.864	976.838
116.220	18.256	1279.382	975.430
117.235	18.238	1278.408	974.499
118.249	18.170	1277.214	973.117
119.264	18.096	1275.902	971.612
120.279	18.038	1274.833	970.380
121.293	18.004	1274.229	969.641
122.308	18.058	1272.714	968.710
123.322	17.908	1271.624	966.946
124.337	17.978	1270.262	966.223
125.352	17.970	1269.578	965.572
126.366	18.002	1268.296	964.689
127.381	18.014	1267.104	963.769
128.395	17.937	1266.259	962.605
129.410	18.138	1264.800	962.539
130.424	18.140	1264.691	962.383
131.439	18.214	1263.817	962.051
132.454	18.216	1262.817	961.217
133.468	18.220	1262.245	960.719
134.483	18.161	1261.446	959.691
135.497	18.201	1260.536	959.139
136.512	18.235	1259.528	958.477
137.527	18.309	1257.946	957.603
138.541	18.324	1256.284	956.339
139.556	18.343	1255.512	955.769
140.570	18.545	1254.472	956.022
141.585	18.501	1253.312	954.810
142.600	18.692	1251.700	954.556
143.614	18.733	1251.211	954.327
144.629	18.733	1250.452	953.665
145.643	18.648	1249.475	952.362
146.658	18.599	1247.710	950.663
147.673	18.443	1246.436	948.742
148.687	18.329	1245.262	947.134
149.702	18.320	1243.936	945.995
150.716	18.214	1242.495	944.228
151.731	18.402	1240.913	943.979
152.746	18.339	1240.302	943.086
153.760	18.370	1239.049	942.221
154.775	18.589	1237.999	942.539
155.789	18.571	1237.420	941.918
156.804	18.537	1236.241	940.753
157.819	18.669	1235.326	940.693
158.833	18.714	1234.623	940.323
159.848	18.828	1233.917	940.326
160.862	18.837	1232.378	939.119
161.877	18.561	1231.463	936.830
162.892	18.356	1230.131	934.613
163.906	18.412	1229.022	933.996
164.921	18.390	1228.242	933.200
165.935	18.416	1227.838	932.951
166.950	18.428	1227.090	932.366
167.964	18.526	1226.057	932.032
168.979	18.386	1225.497	930.766
169.994	18.346	1224.861	929.984
171.008	18.526	1223.762	930.040
172.023	18.688	1223.000	930.256
173.037	18.778	1222.594	930.354
174.052	18.704	1221.484	929.024
175.067	18.497	1220.448	927.035
176.081	18.341	1219.201	925.163
177.096	18.323	1218.561	924.499
178.110	18.349	1217.407	923.682
179.125	18.434	1216.182	923.129
180.140	18.581	1214.912	922.873
181.154	18.591	1213.823	922.023
182.169	18.670	1213.040	921.771
183.183	18.767	1211.798	921.264
184.198	18.820	1210.886	920.775
185.213	18.685	1210.171	919.425
186.227	18.800	1208.352	918.576
187.242	18.880	1207.572	918.329
188.256	19.024	1206.091	917.890
189.271	18.933	1205.215	916.657
190.286	18.782	1203.881	914.756
191.300	18.556	1203.015	912.814
192.315	18.435	1201.955	911.286
193.329	18.388	1201.777	910.821
194.344	18.471	1201.331	910.842
195.359	18.564	1201.042	911.040
196.373	18.527	1200.668	910.480
197.388	18.785	1200.053	911.300
198.402	19.082	1199.244	912.179
199.417	19.064	1198.951	911.783
200.432	19.160	1198.618	911.956
201.446	19.181	1197.754	911.327
202.461	19.302	1196.935	911.265
203.475	19.298	1195.918	910.388
204.490	19.053	1194.731	908.111
205.504	19.014	1192.718	906.297
206.519	19.000	1191.718	905.379
207.534	18.922	1190.684	904.106
208.548	19.036	1189.847	903.991
209.563	18.892	1188.749	902.318
210.577	18.938	1188.192	902.057
211.592	18.830	1187.719	901.053
212.607	19.262	1186.561	902.355
213.621	19.219	1185.983	901.610
214.636	19.151	1184.764	900.252
215.650	19.169	1183.949	899.648
216.665	19.240	1183.301	899.444
217.680	19.227	1182.742	898.874
218.694	19.378	1181.443	898.591
219.709	19.256	1181.331	897.790
220.723	19.398	1180.051	897.475
221.738	19.306	1179.337	896.376
222.753	19.293	1178.712	895.753
223.767	19.377	1177.840	895.451
224.782	19.400	1177.462	895.203
225.796	19.504	1176.522	894.946
226.811	19.468	1176.038	894.314
227.826	19.303	1175.409	892.901
228.840	19.230	1174.443	891.709
229.855	19.191	1173.796	890.941
230.869	19.367	1173.036	891.194
231.884	19.254	1171.657	889.481
232.899	19.160	1171.046	888.458
233.913	19.149	1170.232	887.702
234.928	19.095	1169.463	886.764
235.942	19.025	1169.125	886.069
236.957	19.111	1168.207	885.736
237.972	19.110	1167.192	884.882
238.986	19.157	1166.403	884.449
240.001	19.135	1166.010	883.958
241.015	19.241	1165.409	883.969
242.030	19.335	1164.284	883.518
243.045	19.252	1163.789	882.640
244.059	19.286	1162.753	881.952
245.074	19.280	1162.217	881.434
246.088	19.414	1161.173	881.251
247.103	19.427	1160.726	880.896
248.117	19.521	1160.264	880.952
249.132	19.766	1159.605	881.623
250.147	19.984	1159.190	882.340
251.161	20.042	1158.350	881.916
252.176	20.102	1157.465	881.468
253.190	20.040	1157.389	881.017
254.205	20.241	1156.316	881.143
255.220	20.199	1155.992	880.605
256.234	20.147	1155.514	879.899
257.249	20.160	1154.509	879.122
258.263	20.095	1154.133	878.429
259.278	20.034	1153.243	877.368
260.293	20.060	1152.953	877.198
261.307	20.273	1152.216	877.641
262.322	20.188	1151.932	876.914
263.336	20.222	1150.782	876.135
264.351	20.273	1150.442	876.056
265.366	20.328	1149.684	875.676
266.380	20.294	1148.789	874.748
267.395	20.144	1147.805	873.167
268.409	20.051	1147.328	872.254
269.424	20.143	1146.690	872.155
270.439	20.047	1146.260	871.269
271.453	20.022	1145.267	870.313
272.468	19.993	1143.993	869.124
273.482	19.899	1143.677	868.332
274.497	19.921	1143.446	868.190
275.512	19.955	1142.178	867.321
276.526	20.028	1141.062	866.762
277.541	20.097	1140.531	866.630
278.555	20.059	1140.312	866.195
279.570	20.341	1139.320	866.773
280.585	20.251	1138.910	865.937
281.599	20.306	1137.925	865.385
282.614	20.253	1136.765	864.160
283.628	20.168	1135.998	863.077
284.643	20.075	1134.931	861.732
285.657	20.086	1134.188	861.143
286.672	20.154	1133.082	860.566
287.687	20.151	1132.384	859.943
288.701	20.131	1131.466	859.071
289.716	20.252	1130.537	858.889
290.730	20.132	1130.446	858.152
291.745	20.276	1129.877	858.357
292.760	20.363	1128.810	857.898
293.774	20.337	1128.428	857.404
294.789	20.474	1127.670	857.425
295.803	20.518	1127.246	857.247
296.818	20.331	1126.136	855.405
297.833	20.262	1125.348	854.392
298.847	20.191	1124.601	853.401
299.862	20.366	1123.715	853.513
300.876	20.234	1123.146	852.356
301.891	20.563	1122.283	853.238
302.906	20.565	1121.950	852.919
303.920	20.615	1121.223	852.536
304.935	20.584	1120.961	852.110
305.949	20.878	1120.166	852.871
306.964	20.862	1119.876	852.494
307.979	20.658	1118.632	850.480
308.993	20.603	1118.150	849.765
310.008	20.705	1117.666	849.822
311.022	20.904	1116.329	849.701
312.037	20.726	1115.772	848.332
313.052	20.506	1114.874	846.507
314.066	20.539	1113.498	845.545
315.081	20.419	1112.596	844.203
316.095	20.361	1111.839	843.273
317.110	20.383	1111.473	843.024
318.125	20.426	1110.543	842.456
319.139	20.386	1110.111	841.859
320.154	20.405	1109.145	841.141
321.168	20.426	1108.540	840.710
322.183	20.459	1108.019	840.401
323.197	20.413	1107.780	839.923
324.212	20.487	1106.801	839.463
325.227	20.593	1106.452	839.636
326.241	20.525	1106.106	838.974
327.256	20.556	1104.711	837.989
328.270	20.555	1103.441	836.948
329.285	20.471	1103.201	836.286
330.300	20.434	1102.140	835.232
331.314	20.540	1101.142	834.910
332.329	20.568	1100.098	834.177
333.343	20.630	1099.333	833.824
334.358	20.749	1098.562	833.732
335.373	20.779	1098.096	833.447
336.387	20.808	1097.102	832.761
337.402	20.858	1096.784	832.686
338.416	20.895	1095.860	832.086
339.431	20.909	1095.761	832.004
340.446	21.005	1094.897	831.733
341.460	21.178	1094.521	832.197
342.475	21.126	1093.631	831.197
343.489	21.149	1093.089	830.823
344.504	21.422	1091.612	830.923
345.519	21.367	1090.777	829.953
346.533	21.365	1090.030	829.304
347.548	21.432	1089.396	829.063
348.562	21.346	1088.628	827.998
349.577	21.264	1087.564	826.728
350.592	20.982	1087.002	824.896
351.606	20.997	1086.015	824.143
352.621	20.869	1085.422	823.015
353.635	20.917	1084.713	822.632
354.650	20.877	1084.227	822.003
355.665	20.863	1083.374	821.215
356.679	20.931	1082.633	820.904
357.694	21.060	1082.385	821.252
358.708	21.118	1081.843	821.038
359.723	21.172	1081.302	820.809
360.738	21.129	1080.796	820.152
361.752	21.173	1079.616	819.389
362.767	21.165	1079.253	819.003
363.781	21.114	1079.076	818.555
364.796	21.340	1078.230	818.900
365.810	21.484	1077.776	819.158
366.825	21.503	1077.291	818.807
367.840	21.585	1076.974	818.877
368.854	21.752	1076.157	818.963
369.869	21.617	1075.485	817.749
370.883	21.598	1074.475	816.820
371.898	21.547	1073.593	815.839
372.913	21.556	1073.208	815.515
373.927	21.581	1072.823	815.268
374.942	21.639	1072.518	815.235
375.956	21.639	1071.533	814.415
376.971	21.611	1071.168	813.933
377.986	21.693	1070.575	813.792
379.000	21.815	1069.718	813.637
380.015	21.919	1069.351	813.765
381.029	21.894	1069.019	813.326
382.044	21.719	1068.370	811.952
383.059	21.823	1067.351	811.586
384.073	21.894	1066.308	811.050
385.088	21.793	1065.308	809.749
386.102	21.804	1064.858	809.386
387.117	21.766	1063.450	808.069
388.132	21.680	1062.621	806.972
389.146	21.561	1061.702	805.657
390.161	21.596	1061.124	805.305
391.175	21.575	1060.569	804.717
392.190	21.669	1060.088	804.713
393.205	21.734	1058.994	804.110
394.219	21.824	1058.548	804.112
395.234	21.677	1057.359	802.463
396.248	21.649	1056.371	801.517
397.263	21.638	1055.471	800.709
398.278	21.483	1054.606	799.279
399.292	21.488	1053.577	798.451
400.307	21.351	1053.361	797.588
401.321	21.366	1052.525	796.956
402.336	21.504	1051.758	796.930
403.350	21.500	1051.059	796.313
404.365	21.608	1050.282	796.147
405.380	21.623	1049.950	795.893
406.394	21.635	1049.256	795.351
407.409	21.853	1048.592	795.764
408.423	21.958	1048.028	795.745
409.438	21.925	1047.253	794.933
410.453	22.070	1046.581	795.009
411.467	22.128	1045.737	794.560
412.482	22.131	1045.110	794.030
413.496	22.238	1044.464	793.948
414.511	22.070	1044.587	793.216
415.526	22.249	1044.004	793.509
416.540	22.463	1043.470	793.999
417.555	22.388	1042.983	793.218
418.569	22.316	1042.397	792.381
419.584	22.289	1041.611	791.591
420.599	22.402	1040.952	791.526
421.613	155.338	1401.098	1793.426
422.628	142.203	1453.579	1793.537
