DTS Sentinel unit serial number:	SN413079Multiplexer serial number:	ORYXHardware model number:	OX4-SRSoftware version number:	ORYX F/W v4.00 Oryx Data Collector v3.7.2.0data status	okinstallation	princeton_trtdifferential loss correction	single-endedforward channel	channel 2reverse channel	N/Adate	2019/09/11time	12:05:11forward acquisition time	60.00reverse acquisition time	0.00gamma	496.2192k internal	0.2299k external	0.2299temperature offset calibration	0.9968default loss term (dB/km)	0.3790temperature slope calibration	1.0000multiplexer offset coefficient	1.0000multiplexer slope coefficient	1.0000fibre end	0.00T internal ref (°C)	39.48T ext. ref 1 (°C)	0.19T ext. ref 2 (°C)	37.79length (m)	temperature (°C)	Stokes	anti-Stokes-747.200	-98.190	0.349	0.092
-746.185	-30.078	0.070	0.040
-745.171	-41.270	0.032	-0.017
-744.156	181.779	-0.095	-0.143
-743.142	-123.172	-0.263	0.043
-742.127	-38.113	0.338	0.183
-741.112	-13.820	-0.055	0.036
-740.098	5.035	0.147	-0.110
-739.083	78.587	0.166	0.181
-738.069	800.000	-0.056	-0.178
-737.054	-86.103	-0.085	0.027
-736.039	404.320	0.174	0.375
-735.025	-86.396	0.177	-0.055
-734.010	329.186	0.034	0.066
-732.996	128.287	-0.151	-0.196
-731.981	539.914	0.026	-0.063
-730.966	-200.000	0.029	-0.131
-729.952	68.185	-0.101	-0.106
-728.937	-8.710	0.172	-0.117
-727.923	316.940	0.125	-0.241
-726.908	-90.158	-0.119	0.035
-725.894	-121.818	-0.110	-0.019
-724.879	-30.574	-0.182	0.105
-723.864	-164.359	0.232	-0.011
-722.850	-2.308	0.163	0.117
-721.835	-62.831	-0.085	0.036
-720.821	-15.416	-0.064	0.042
-719.806	189.480	-0.089	-0.136
-718.791	-39.470	-0.198	0.106
-717.777	800.000	0.059	0.236
-716.762	-130.590	0.274	0.038
-715.748	-88.227	0.045	-0.014
-714.733	-118.076	-0.331	-0.060
-713.718	491.345	0.089	-0.208
-712.704	117.179	-0.183	-0.230
-711.689	18.292	0.134	0.109
-710.675	6.677	-0.348	0.264
-709.660	384.110	0.021	-0.045
-708.645	-66.504	-0.206	0.083
-707.631	91.112	-0.060	-0.069
-706.616	311.777	0.041	0.079
-705.602	340.264	0.140	-0.279
-704.587	5.791	-0.219	-0.165
-703.572	743.588	0.045	0.124
-702.558	-87.252	0.230	-0.071
-701.543	-35.032	0.021	-0.012
-700.529	-148.318	-0.224	0.019
-699.514	-136.448	-0.198	0.023
-698.499	-0.861	0.233	-0.168
-697.485	361.593	-0.142	0.290
-696.470	-200.000	0.015	0.262
-695.456	-163.579	-0.068	-0.003
-694.441	409.620	0.066	-0.142
-693.426	720.488	-0.064	-0.172
-692.412	-46.407	0.098	0.049
-691.397	-71.896	0.290	0.110
-690.383	-70.277	-0.106	-0.041
-689.368	38.732	-0.138	-0.126
-688.354	-21.853	0.179	0.111
-687.339	197.680	0.045	0.071
-686.324	-200.000	0.005	0.319
-685.310	-61.198	-0.269	-0.116
-684.295	346.074	0.144	-0.288
-683.281	73.907	0.246	-0.263
-682.266	240.240	-0.208	-0.352
-681.251	-200.000	-0.024	-0.177
-680.237	-200.000	0.048	-0.340
-679.222	105.385	0.195	-0.234
-678.208	125.431	0.207	-0.266
-677.193	-14.851	0.231	0.151
-676.178	800.000	-0.064	-0.194
-675.164	329.200	0.041	-0.079
-674.149	504.508	0.066	0.155
-673.135	-138.915	0.391	-0.043
-672.120	-182.439	0.437	-0.008
-671.105	-200.000	-0.069	-0.407
-670.091	-200.000	-0.032	-0.147
-669.076	-75.411	-0.310	-0.113
-668.062	-28.597	0.146	-0.086
-667.047	209.226	0.092	-0.147
-666.032	27.105	0.199	0.170
-665.018	35.429	-0.182	0.163
-664.003	198.118	-0.106	0.164
-662.989	201.072	0.130	0.203
-661.974	-69.554	0.214	-0.083
-660.959	-98.727	-0.127	0.033
-659.945	-200.000	-0.004	0.125
-658.930	-118.562	0.229	-0.041
-657.916	-62.194	-0.132	-0.056
-656.901	6.573	0.379	-0.287
-655.886	-74.486	-0.044	0.016
-654.872	147.501	0.281	-0.385
-653.857	325.202	-0.191	-0.372
-652.843	103.715	-0.329	-0.393
-651.828	245.014	-0.102	-0.174
-650.814	800.000	-0.087	-0.290
-649.799	-135.723	-0.105	-0.013
-648.784	-48.136	0.303	-0.149
-647.770	279.260	-0.101	-0.184
-646.755	-88.852	-0.153	-0.046
-645.741	569.246	0.056	0.138
-644.726	68.392	-0.313	0.326
-643.711	-78.537	0.070	-0.024
-642.697	-167.772	0.177	-0.007
-641.682	-108.039	-0.125	-0.028
-640.668	-200.000	0.049	0.000
-639.653	-200.000	-0.028	0.279
-638.638	-200.000	0.018	0.171
-637.624	171.003	-0.244	-0.356
-636.609	800.000	-0.111	0.386
-635.595	800.000	-0.022	0.088
-634.580	-200.000	0.002	0.097
-633.565	592.923	-0.042	0.107
-632.551	250.590	0.181	0.312
-631.536	119.699	-0.147	0.185
-630.522	-99.231	-0.239	0.061
-629.507	504.674	0.011	0.026
-628.492	261.592	0.133	-0.234
-627.478	-159.492	0.318	-0.018
-626.463	532.628	0.052	0.125
-625.449	-6.440	0.133	0.092
-624.434	-200.000	0.019	-0.095
-623.419	-187.056	-0.114	0.002
-622.405	-46.423	0.276	0.137
-621.390	800.000	-0.047	0.180
-620.376	-79.373	0.524	-0.180
-619.361	-98.967	-0.227	-0.058
-618.346	-157.404	-0.240	-0.015
-617.332	5.500	0.324	-0.243
-616.317	-2.617	-0.177	0.126
-615.303	55.357	-0.268	-0.263
-614.288	221.351	0.105	-0.171
-613.273	444.171	-0.018	-0.040
-612.259	-30.422	0.461	0.265
-611.244	102.972	-0.121	0.144
-610.230	-65.804	0.259	0.105
-609.215	91.562	0.121	0.138
-608.201	-38.933	0.365	-0.195
-607.186	-200.000	0.058	-0.393
-606.171	-156.077	-0.074	0.005
-605.157	-105.830	-0.057	0.013
-604.142	-8.168	-0.162	-0.111
-603.128	222.959	-0.137	-0.224
-602.113	-18.344	-0.184	-0.117
-601.098	517.653	-0.129	0.306
-600.084	5.241	-0.055	0.041
-599.069	-200.000	-0.017	-0.224
-598.055	-200.000	0.006	-0.059
-597.040	355.337	-0.126	0.254
-596.025	142.723	-0.114	0.154
-595.011	-76.952	0.159	0.057
-593.996	-200.000	-0.039	-0.226
-592.982	800.000	0.056	-0.178
-591.967	-83.580	0.247	-0.080
-590.952	-9.416	0.237	0.161
-589.938	383.446	-0.030	-0.063
-588.923	27.224	-0.342	-0.291
-587.909	-91.331	-0.258	0.075
-586.894	64.398	0.133	0.136
-585.879	466.078	-0.065	0.148
-584.865	49.569	0.181	-0.173
-583.850	800.000	-0.107	-0.378
-582.836	-55.746	-0.171	0.078
-581.821	-80.691	0.033	0.011
-580.806	178.064	0.112	-0.166
-579.792	800.000	0.016	-0.070
-578.777	-81.166	0.185	-0.062
-577.763	-65.162	-0.171	0.070
-576.748	518.434	0.136	-0.323
-575.733	56.005	0.123	-0.121
-574.719	23.018	-0.232	0.193
-573.704	-200.000	-0.074	0.402
-572.690	-18.941	0.092	-0.058
-571.675	-88.755	-0.247	0.075
-570.661	-81.443	0.246	0.082
-569.646	495.448	-0.105	-0.245
-568.631	-28.612	-0.132	0.077
-567.617	206.710	-0.119	0.188
-566.602	800.000	-0.027	-0.114
-565.588	658.507	-0.129	-0.336
-564.573	-85.092	0.123	0.039
-563.558	-92.977	0.090	-0.026
-562.544	-59.231	0.209	-0.091
-561.529	-119.898	0.269	0.047
-560.515	-74.326	0.127	-0.046
-559.500	9.338	0.024	0.019
-558.485	81.598	0.324	-0.356
-557.471	273.583	0.033	0.058
-556.456	-200.000	-0.004	-0.248
-555.442	-22.613	-0.048	0.029
-554.427	-200.000	0.038	0.264
-553.412	-72.673	0.227	0.085
-552.398	-132.021	-0.156	0.021
-551.383	-200.000	0.040	0.283
-550.369	-114.665	0.380	-0.074
-549.354	-85.150	0.290	0.092
-548.339	-49.168	-0.227	0.110
-547.325	-200.000	0.029	-0.219
-546.310	-52.614	-0.238	-0.111
-545.296	-64.221	-0.452	-0.187
-544.281	-161.445	0.289	0.015
-543.266	-89.483	0.091	-0.027
-542.252	284.998	0.016	0.028
-541.237	182.008	0.027	0.041
-540.223	-136.624	0.090	0.011
-539.208	-114.951	0.131	-0.025
-538.193	-172.287	0.212	-0.007
-537.179	-30.325	-0.105	0.060
-536.164	75.091	-0.188	0.201
-535.150	6.244	0.069	0.052
-534.135	-120.662	0.158	0.027
-533.121	27.418	0.223	-0.189
-532.106	4.158	-0.220	0.163
-531.091	-102.419	0.105	-0.026
-530.077	55.393	-0.324	0.318
-529.062	-200.000	-0.008	0.037
-528.048	-68.633	0.129	0.051
-527.033	-200.000	0.008	-0.086
-526.018	98.197	-0.108	-0.126
-525.004	-200.000	-0.006	0.121
-523.989	80.805	0.178	0.195
-522.975	800.000	-0.065	0.279
-521.960	424.071	0.127	-0.277
-520.945	-200.000	0.013	-0.105
-519.931	556.113	-0.039	-0.094
-518.916	800.000	-0.099	0.304
-517.902	291.324	-0.092	0.169
-516.887	30.840	0.335	0.290
-515.872	37.207	-0.171	0.153
-514.858	-200.000	0.020	-0.177
-513.843	800.000	-0.040	-0.127
-512.829	283.600	0.070	-0.127
-511.814	-200.000	0.033	-0.295
-510.799	800.000	-0.031	0.129
-509.785	800.000	0.068	0.225
-508.770	-200.000	0.032	0.195
-507.756	800.000	-0.042	-0.143
-506.741	-200.000	-0.067	-0.497
-505.726	-27.358	0.241	-0.142
-504.712	18.183	-0.135	-0.109
-503.697	211.848	-0.184	0.292
-502.683	235.596	0.121	-0.202
-501.668	-145.806	0.119	-0.011
-500.653	65.275	-0.062	0.064
-499.639	6.267	-0.264	0.198
-498.624	187.137	-0.137	-0.207
-497.610	-109.419	-0.170	-0.036
-496.595	-16.398	0.226	0.145
-495.581	-200.000	0.033	-0.490
-494.566	800.000	-0.068	-0.284
-493.551	-146.539	0.290	0.025
-492.537	800.000	0.026	0.109
-491.522	800.000	0.057	0.176
-490.508	-64.395	-0.312	-0.128
-489.493	-40.651	0.119	0.062
-488.478	481.293	0.040	0.091
-487.464	634.642	0.159	-0.407
-486.449	55.434	-0.165	0.161
-485.435	-139.641	0.407	-0.044
-484.420	-38.167	0.229	0.123
-483.405	800.000	-0.037	-0.120
-482.391	-93.826	-0.360	-0.100
-481.376	-10.442	-0.142	-0.095
-480.362	-200.000	-0.032	-0.257
-479.347	800.000	-0.061	0.233
-478.332	800.000	0.098	-0.380
-477.318	-200.000	0.020	-0.250
-476.303	477.242	-0.045	-0.102
-475.289	759.424	0.144	-0.395
-474.274	-67.954	-0.154	-0.061
-473.259	-23.302	-0.269	-0.163
-472.245	-200.000	0.025	0.444
-471.230	692.772	-0.094	-0.249
-470.216	800.000	0.050	-0.153
-469.201	353.776	-0.091	0.183
-468.186	551.745	0.116	-0.280
-467.172	216.643	-0.103	0.166
-466.157	65.931	-0.177	0.181
-465.143	-39.316	-0.036	0.019
-464.128	-40.315	-0.135	0.071
-463.113	-25.939	-0.186	0.111
-462.099	48.335	0.211	0.200
-461.084	282.725	0.161	-0.292
-460.070	800.000	-0.134	-0.540
-459.055	734.916	0.022	0.059
-458.040	800.000	0.078	-0.335
-457.026	42.270	0.202	-0.185
-456.011	64.778	0.240	0.244
-454.997	-126.864	0.078	-0.012
-453.982	163.608	0.056	-0.080
-452.968	260.643	-0.216	-0.378
-451.953	190.991	0.070	0.106
-450.938	133.418	0.109	0.142
-449.924	73.867	0.066	-0.069
-448.909	83.920	0.145	-0.160
-447.895	-65.573	0.185	-0.075
-446.880	800.000	0.106	0.333
-445.865	-66.237	0.228	-0.092
-444.851	-75.391	0.265	0.095
-443.836	70.095	-0.257	0.267
-442.822	-66.460	-0.282	0.113
-441.807	-200.000	-0.049	-0.241
-440.792	68.076	-0.232	-0.239
-439.778	-143.775	0.173	-0.016
-438.763	-1.138	0.126	-0.090
-437.749	-200.000	0.030	0.145
-436.734	-200.000	-0.062	0.415
-435.719	-72.066	-0.218	-0.082
-434.705	-200.000	0.018	0.254
-433.690	449.084	0.059	0.131
-432.676	410.238	0.076	0.163
-431.661	-200.000	-0.048	0.262
-430.646	-11.379	-0.065	-0.043
-429.632	800.000	0.074	-0.216
-428.617	-99.625	0.277	0.070
-427.603	-1.307	0.207	-0.148
-426.588	9.384	-0.147	0.112
-425.573	800.000	-0.064	-0.270
-424.559	-146.108	0.360	-0.032
-423.544	800.000	0.083	-0.260
-422.530	632.436	0.088	-0.224
-421.515	-55.259	-0.251	-0.114
-420.500	-200.000	0.029	-0.214
-419.486	-48.780	0.074	-0.036
-418.471	115.940	-0.072	0.089
-417.457	-181.135	0.192	-0.004
-416.442	407.783	0.088	0.188
-415.428	150.776	0.069	-0.094
-414.413	-51.260	0.248	-0.117
-413.398	-4.462	0.044	0.030
-412.384	-1.065	-0.137	0.098
-411.369	-122.874	0.174	-0.028
-410.355	-33.157	-0.161	-0.090
-409.340	-75.590	-0.235	-0.084
-408.325	-138.926	-0.375	-0.041
-407.311	457.086	0.036	-0.080
-406.296	-83.534	-0.189	-0.061
-405.282	-200.000	0.033	0.411
-404.267	-200.000	0.022	0.239
-403.252	-40.834	0.330	-0.172
-402.238	800.000	-0.040	-0.120
-401.223	-83.280	0.056	-0.018
-400.209	-74.683	0.111	-0.040
-399.194	-86.528	0.277	0.086
-398.179	-6.339	0.283	0.194
-397.165	-36.408	0.041	-0.022
-396.150	-37.348	-0.072	-0.039
-395.136	469.752	0.054	0.122
-394.121	35.945	0.278	0.246
-393.106	101.432	-0.055	-0.065
-392.092	244.383	-0.069	0.117
-391.077	41.000	-0.081	0.073
-390.063	-73.572	-0.280	-0.103
-389.048	-40.878	0.134	0.070
-388.033	-13.304	-0.209	0.137
-387.019	348.831	0.124	-0.247
-386.004	-200.000	-0.057	-0.454
-384.990	-99.379	-0.126	-0.032
-383.975	-20.713	-0.134	0.083
-382.960	410.633	0.152	0.324
-381.946	-79.676	-0.050	-0.017
-380.931	800.000	0.021	-0.077
-379.917	-200.000	0.004	-0.168
-378.902	-10.347	0.191	-0.127
-377.888	800.000	0.034	0.144
-376.873	34.144	0.155	-0.136
-375.858	-200.000	0.002	0.017
-374.844	173.099	0.175	0.253
-373.829	800.000	0.014	0.047
-372.815	415.770	-0.096	0.206
-371.800	-189.621	-0.285	-0.003
-370.785	18.378	0.151	0.122
-369.771	-200.000	-0.014	-0.078
-368.756	354.556	-0.033	0.065
-367.742	-200.000	-0.009	0.102
-366.727	56.277	-0.159	-0.156
-365.712	-82.359	0.163	0.053
-364.698	205.144	0.141	0.221
-363.683	-161.809	0.139	0.007
-362.669	-128.038	-0.149	-0.022
-361.654	-93.284	-0.054	0.015
-360.639	-80.057	0.350	0.118
-359.625	354.882	0.169	-0.338
-358.610	-101.735	-0.237	0.058
-357.596	82.735	0.257	-0.281
-356.581	31.719	0.050	0.043
-355.566	278.979	-0.071	-0.127
-354.552	-200.000	-0.011	-0.122
-353.537	151.328	-0.043	-0.059
-352.523	57.080	-0.191	-0.187
-351.508	90.731	0.028	0.031
-350.493	86.389	-0.137	-0.152
-349.479	-60.850	-0.283	0.120
-348.464	-112.704	0.062	-0.012
-347.450	800.000	0.084	-0.352
-346.435	-200.000	0.069	0.307
-345.420	-200.000	-0.041	0.209
-344.406	62.728	-0.134	0.135
-343.391	-181.598	-0.192	-0.004
-342.377	-75.250	-0.198	-0.071
-341.362	-200.000	-0.034	0.203
-340.348	383.082	-0.122	0.252
-339.333	566.113	0.025	0.061
-338.318	-112.615	0.232	0.046
-337.304	-116.402	0.149	-0.028
-336.289	430.708	-0.043	0.094
-335.275	-56.846	0.179	-0.080
-334.260	135.081	0.162	-0.212
-333.245	53.961	0.066	0.064
-332.231	-123.475	-0.437	-0.070
-331.216	-154.552	0.130	0.009
-330.202	-122.425	0.019	0.003
-329.187	140.615	-0.061	-0.081
-328.172	800.000	-0.038	-0.148
-327.158	21.920	0.063	0.051
-326.143	-61.536	-0.272	-0.115
-325.129	649.654	0.060	0.153
-324.114	24.792	-0.326	0.271
-323.099	-18.795	-0.156	0.098
-322.085	-188.449	-0.012	-0.000
-321.070	-162.989	0.155	0.008
-320.056	411.775	-0.126	-0.269
-319.041	-200.000	0.058	0.349
-318.026	800.000	0.020	0.065
-317.012	-162.068	0.333	-0.017
-315.997	272.455	-0.179	-0.316
-314.983	-70.963	0.140	-0.053
-313.968	-134.620	-0.255	0.031
-312.953	43.403	-0.173	-0.159
-311.939	34.891	-0.104	-0.092
-310.924	11.358	-0.197	-0.151
-309.910	117.157	0.127	-0.157
-308.895	-200.000	0.014	-0.240
-307.880	142.592	-0.196	-0.261
-306.866	206.484	0.078	0.121
-305.851	800.000	-0.086	-0.250
-304.837	669.268	0.054	-0.140
-303.822	-69.113	0.387	-0.150
-302.807	-27.238	0.344	0.201
-301.793	-28.280	-0.090	0.052
-300.778	800.000	0.009	-0.037
-299.764	-2.918	-0.258	-0.181
-298.749	63.337	0.029	-0.029
-297.735	-9.374	-0.267	0.179
-296.720	430.814	-0.127	-0.275
-295.705	106.816	0.191	0.228
-294.691	-200.000	-0.017	0.089
-293.676	26.795	0.213	0.179
-292.662	-135.574	-0.170	0.020
-291.647	65.161	-0.081	0.082
-290.632	-104.683	0.322	0.074
-289.618	161.974	-0.038	-0.053
-288.603	-187.791	-0.139	-0.002
-287.589	566.340	0.111	0.270
-286.574	369.301	-0.133	0.270
-285.559	50.292	0.043	-0.041
-284.545	800.000	0.115	0.323
-283.530	589.043	-0.087	0.216
-282.516	295.057	-0.113	-0.207
-281.501	-200.000	-0.003	0.042
-280.486	-172.625	0.194	-0.006
-279.472	518.569	-0.149	0.351
-278.457	22.897	-0.029	0.024
-277.443	54.755	-0.083	-0.081
-276.428	51.491	0.199	-0.189
-275.413	363.216	0.103	0.208
-274.399	-97.254	-0.231	0.060
-273.384	552.026	-0.078	-0.189
-272.370	-71.833	-0.338	-0.126
-271.355	-200.000	-0.009	0.045
-270.340	-147.129	-0.083	0.007
-269.326	204.300	-0.117	-0.182
-268.311	-89.118	0.076	0.022
-267.297	251.905	-0.159	-0.271
-266.282	124.525	0.199	-0.251
-265.267	-124.093	0.219	0.034
-264.253	-178.712	-0.115	0.003
-263.238	-108.796	-0.210	-0.045
-262.224	-200.000	0.074	0.328
-261.209	374.887	-0.109	0.222
-260.195	582.701	-0.138	0.338
-259.180	-152.240	0.123	-0.009
-258.165	295.885	-0.120	-0.220
-257.151	-200.000	0.012	0.183
-256.136	200.003	-0.087	-0.134
-255.122	-49.293	0.089	-0.043
-254.107	51.057	-0.130	0.123
-253.092	-93.428	0.122	-0.034
-252.078	-27.472	-0.069	0.040
-251.063	-44.428	-0.162	0.081
-250.049	46.466	-0.168	-0.156
-249.034	800.000	0.061	0.229
-248.019	-96.655	-0.196	0.052
-247.005	-200.000	-0.020	0.119
-245.990	80.343	0.038	0.040
-244.976	800.000	-0.133	-0.418
-243.961	425.324	0.166	0.358
-242.946	-200.000	-0.026	0.535
-241.932	-20.886	-0.541	0.332
-240.917	307.648	-0.106	-0.197
-239.903	-119.185	-0.258	0.045
-238.888	34.145	0.253	0.220
-237.873	-22.693	0.491	-0.297
-236.859	63.416	0.309	-0.310
-235.844	252.850	0.108	0.185
-234.830	784.280	-0.128	0.350
-233.815	213.335	0.078	-0.124
-232.800	51.741	0.244	-0.232
-231.786	-107.514	-0.220	0.048
-230.771	-43.385	-0.438	0.222
-229.757	10.993	-0.081	0.062
-228.742	636.293	-0.114	-0.289
-227.727	-200.000	0.008	-0.134
-226.713	-88.401	0.324	0.097
-225.698	-44.205	0.107	-0.053
-224.684	-74.428	0.135	-0.049
-223.669	-200.000	0.076	-0.399
-222.655	-54.111	0.440	0.200
-221.640	4.239	0.140	-0.102
-220.625	118.903	-0.211	0.261
-219.611	800.000	0.048	0.202
-218.596	-49.491	-0.122	-0.058
-217.582	377.592	0.129	-0.264
-216.567	133.651	-0.055	0.072
-215.552	-61.361	0.368	0.155
-214.538	-148.332	-0.195	-0.016
-213.523	245.776	-0.104	-0.176
-212.509	-29.651	-0.231	0.132
-211.494	-120.021	-0.257	0.044
-210.479	99.850	-0.117	-0.135
-209.465	-136.013	-0.321	0.038
-208.450	800.000	0.167	0.521
-207.436	516.174	0.172	0.401
-206.421	-100.703	-0.297	0.073
-205.406	-47.100	-0.038	0.019
-204.392	-200.000	0.027	-0.447
-203.377	800.000	-0.097	0.416
-202.363	800.000	-0.020	0.068
-201.348	-200.000	0.059	0.493
-200.333	49.492	-0.176	0.166
-199.319	235.763	0.123	0.203
-198.304	54.197	-0.275	0.265
-197.290	276.961	-0.274	-0.487
-196.275	-77.728	0.047	-0.016
-195.260	-200.000	0.000	-0.025
-194.246	-167.645	0.322	-0.013
-193.231	60.276	0.149	-0.147
-192.217	29.239	0.161	0.136
-191.202	-71.109	-0.215	-0.081
-190.187	443.138	0.213	-0.466
-189.173	8.407	0.126	-0.095
-188.158	-136.717	0.039	-0.004
-187.144	173.167	-0.200	0.288
-186.129	-92.574	0.089	0.025
-185.114	-200.000	0.007	0.420
-184.100	-181.708	-0.339	-0.007
-183.085	-19.379	0.453	0.280
-182.071	-18.176	-0.111	0.070
-181.056	154.091	0.035	-0.047
-180.042	76.948	0.137	0.146
-179.027	-41.850	-0.216	0.110
-178.012	-7.468	-0.125	-0.084
-176.998	64.945	0.095	-0.096
-175.983	745.536	-0.080	0.214
-174.969	723.980	-0.130	-0.345
-173.954	326.252	-0.094	-0.180
-172.939	-14.472	0.365	0.234
-171.925	-200.000	-0.002	0.081
-170.910	-63.680	-0.280	0.115
-169.896	759.438	0.043	0.117
-168.881	123.692	0.022	-0.028
-167.866	-22.716	-0.096	0.058
-166.852	-200.000	-0.036	0.185
-165.837	-200.000	0.011	-0.180
-164.823	-119.368	0.088	-0.015
-163.808	-200.000	-0.016	0.144
-162.793	55.710	0.113	0.110
-161.779	-200.000	0.009	-0.106
-160.764	-90.368	-0.267	-0.077
-159.750	-200.000	-0.066	-0.337
-158.735	-200.000	-0.028	0.232
-157.720	0.790	-0.060	-0.043
-156.706	203.647	-0.148	-0.228
-155.691	-124.351	-0.161	0.025
-154.677	-93.197	-0.113	-0.031
-153.662	-41.414	-0.063	0.032
-152.647	45.745	-0.182	-0.168
-151.633	800.000	0.140	-0.416
-150.618	800.000	-0.187	-0.586
-149.604	-200.000	0.004	-0.029
-148.589	-91.345	0.159	-0.045
-147.574	-85.065	-0.152	0.048
-146.560	498.967	0.051	0.116
-145.545	10.990	0.171	0.130
-144.531	300.217	-0.100	0.184
-143.516	-37.788	-0.281	0.149
-142.502	67.716	0.056	-0.057
-141.487	-39.602	-0.195	0.102
-140.472	800.000	-0.032	-0.110
-139.458	-11.123	-0.091	0.060
-138.443	-118.032	-0.166	0.030
-137.429	14.102	0.102	0.079
-136.414	90.509	0.109	-0.122
-135.399	-146.704	0.353	-0.030
-134.385	190.786	-0.147	0.220
-133.370	-5.269	0.139	0.095
-132.356	-68.440	-0.188	0.073
-131.341	-162.381	-0.156	0.008
-130.326	800.000	-0.025	0.080
-129.312	-126.260	0.132	-0.020
-128.297	-200.000	-0.061	0.383
-127.283	-62.719	0.104	0.043
-126.268	-200.000	0.017	-0.092
-125.253	-116.168	0.217	-0.040
-124.239	-200.000	0.019	0.289
-123.224	-200.000	-0.012	0.166
-122.210	-0.355	-0.048	-0.034
-121.195	584.932	0.109	0.268
-120.180	692.919	-0.092	0.239
-119.166	800.000	-0.043	-0.175
-118.151	33.023	-0.082	-0.071
-117.137	486.140	-0.057	0.128
-116.122	99.955	0.015	-0.017
-115.107	-30.042	0.250	0.142
-114.093	358.070	0.111	-0.220
-113.078	290.859	-0.128	0.232
-112.064	227.326	-0.125	0.202
-111.049	-73.091	0.158	-0.058
-110.034	800.000	-0.045	-0.140
-109.020	114.216	-0.034	0.041
-108.005	355.342	-0.050	-0.098
-106.991	-200.000	0.003	0.104
-105.976	16.936	-0.280	-0.221
-104.962	-53.414	0.117	-0.053
-103.947	-189.529	-0.125	0.001
-102.932	-200.000	0.014	0.185
-101.918	-200.000	-0.017	-0.186
-100.903	-32.515	-0.164	-0.091
-99.889	394.523	-0.061	-0.127
-98.874	260.037	0.135	0.233
-97.859	-47.737	-0.103	0.050
-96.845	507.400	0.083	0.191
-95.830	389.199	-0.109	0.225
-94.816	-27.613	-0.095	0.055
-93.801	-101.386	-0.198	-0.048
-92.786	36.023	0.145	0.127
-91.772	800.000	0.085	0.354
-90.757	800.000	-0.008	-0.026
-89.743	-200.000	0.075	0.363
-88.728	-70.587	-0.534	-0.201
-87.713	21.404	-0.212	0.171
-86.699	800.000	-0.075	-0.226
-85.684	-92.088	-0.102	0.029
-84.670	751.180	0.087	-0.233
-83.655	-35.483	0.202	-0.109
-82.640	-200.000	-0.006	-0.086
-81.626	800.000	-0.081	-0.244
-80.611	-92.579	0.118	0.033
-79.597	-192.768	0.208	0.002
-78.582	160.672	-0.026	0.036
-77.567	-134.206	-0.229	-0.028
-76.553	-200.000	-0.055	0.377
-75.538	800.000	0.107	0.400
-74.524	-148.037	0.317	-0.026
-73.509	40.826	0.166	0.149
-72.494	68.615	0.132	-0.134
-71.480	-200.000	-0.059	-0.315
-70.465	33.374	-0.099	0.086
-69.451	570.482	-0.110	0.265
-68.436	-200.000	0.015	0.204
-67.422	-134.032	0.280	-0.034
-66.407	128.253	-0.116	0.146
-65.392	31.620	0.087	0.075
-64.378	800.000	0.071	0.201
-63.363	-151.251	0.038	-0.003
-62.349	-200.000	0.003	0.120
-61.334	44.407	-0.672	-0.613
-60.319	783.318	0.159	0.432
-59.305	336.069	-0.232	-0.448
-58.290	211.800	0.504	0.788
-57.276	800.000	0.416	1.651
-56.261	-200.000	76.613	492.031
-55.246	588.745	1354.254	3314.895
-54.232	179.847	2608.004	3796.344
-53.217	119.252	2373.777	2917.536
-52.203	48.972	1983.995	1850.452
-51.188	42.854	1769.139	1601.505
-50.173	39.994	1723.239	1537.680
-49.159	54.220	1758.281	1680.730
-48.144	59.387	1776.209	1738.261
-47.130	42.712	1741.116	1574.775
-46.115	39.523	1727.168	1537.270
-45.100	39.331	1722.904	1531.920
-44.086	39.462	1720.055	1530.342
-43.071	39.376	1717.140	1527.025
-42.057	39.447	1714.506	1525.173
-41.042	39.315	1712.825	1522.595
-40.027	39.331	1710.931	1520.973
-39.013	39.217	1709.135	1518.434
-37.998	39.308	1707.699	1517.804
-36.984	39.372	1706.016	1516.738
-35.969	39.620	1704.620	1517.347
-34.954	39.595	1702.845	1515.511
-33.940	39.540	1700.901	1513.305
-32.925	39.464	1699.468	1511.383
-31.911	39.525	1697.353	1509.910
-30.896	39.488	1695.481	1507.905
-29.881	39.401	1694.175	1506.011
-28.867	39.446	1692.876	1505.142
-27.852	39.535	1690.544	1503.689
-26.838	39.428	1689.535	1501.918
-25.823	39.489	1687.760	1500.741
-24.809	39.554	1686.312	1499.891
-23.794	39.459	1685.253	1498.164
-22.779	39.480	1683.462	1496.672
-21.765	39.517	1681.700	1495.327
-20.750	39.444	1680.442	1493.595
-19.736	39.532	1678.778	1492.730
-18.721	39.535	1677.116	1491.213
-17.706	39.506	1676.163	1490.088
-16.692	39.492	1674.414	1488.367
-15.677	39.482	1672.805	1486.802
-14.663	39.526	1671.049	1485.517
-13.648	39.593	1669.213	1484.327
-12.633	39.637	1667.505	1483.082
-11.619	39.554	1665.930	1480.995
-10.604	39.417	1664.773	1478.881
-9.590	39.505	1663.749	1478.571
-8.575	39.524	1662.262	1477.333
-7.560	39.637	1660.614	1476.662
-6.546	39.455	1660.019	1474.709
-5.531	39.454	1659.235	1473.950
-4.517	39.332	1657.898	1471.791
-3.502	39.577	1656.469	1472.290
-2.487	39.569	1654.778	1470.670
-1.473	39.583	1643.999	1461.136
-0.458	37.638	1624.436	1429.425
0.556	32.564	1624.569	1398.733
1.571	30.045	1650.809	1402.163
2.586	29.181	1664.626	1407.177
3.600	25.128	1609.197	1330.198
4.615	13.050	1486.176	1145.116
5.629	2.383	1410.747	1016.335
6.644	0.415	1400.564	995.924
7.659	0.183	1399.363	993.452
8.673	0.094	1398.247	991.984
9.688	0.080	1396.616	990.646
10.702	-0.276	1393.821	986.238
11.717	3.699	1401.935	1018.130
12.731	14.772	1423.900	1107.779
13.746	22.762	1436.954	1171.090
14.761	23.567	1437.234	1176.555
15.775	23.432	1437.176	1175.503
16.790	23.530	1436.499	1175.496
17.804	23.645	1435.974	1175.726
18.819	23.831	1435.811	1176.721
19.834	23.925	1434.885	1176.477
20.848	23.898	1434.113	1175.561
21.863	23.979	1433.184	1175.229
22.877	23.954	1432.206	1174.159
23.892	23.823	1431.266	1172.424
24.907	23.982	1430.615	1172.833
25.921	23.977	1429.393	1171.697
26.936	23.959	1428.707	1170.912
27.950	23.926	1427.378	1169.501
28.965	23.960	1425.855	1168.370
29.980	23.957	1424.429	1167.081
30.994	23.915	1423.394	1165.857
32.009	23.882	1422.415	1164.730
33.023	23.885	1421.043	1163.527
34.038	23.854	1419.955	1162.330
35.053	23.837	1419.243	1161.530
36.067	23.888	1418.190	1160.903
37.082	23.886	1417.150	1159.938
38.096	23.877	1415.771	1158.648
39.111	23.878	1414.991	1157.910
40.126	23.854	1414.490	1157.243
41.140	23.847	1413.853	1156.574
42.155	23.941	1413.291	1156.625
43.169	23.938	1413.232	1156.453
44.184	23.922	1412.884	1155.960
45.199	23.897	1412.617	1155.481
46.213	23.926	1412.329	1155.328
47.228	23.886	1411.137	1153.992
48.242	23.944	1410.296	1153.577
49.257	24.003	1408.306	1152.226
50.271	23.943	1407.306	1150.919
51.286	23.807	1405.818	1148.726
52.301	23.906	1403.788	1147.602
53.315	23.867	1403.396	1146.927
54.330	23.903	1402.234	1146.108
55.344	23.933	1401.593	1145.677
56.359	23.804	1400.757	1144.060
57.374	23.868	1399.442	1143.296
58.388	23.896	1398.879	1142.919
59.403	23.919	1398.354	1142.537
60.417	23.868	1397.902	1141.734
61.432	24.015	1396.739	1141.632
62.447	23.994	1396.011	1140.796
63.461	23.867	1395.360	1139.354
64.476	23.885	1394.490	1138.657
65.490	23.933	1392.943	1137.599
66.505	23.917	1391.138	1135.921
67.520	23.915	1389.943	1134.834
68.534	23.965	1388.674	1134.018
69.549	23.964	1388.119	1133.458
70.563	23.933	1387.074	1132.307
71.578	23.946	1386.208	1131.582
72.593	23.959	1385.237	1130.769
73.607	23.854	1384.900	1129.728
74.622	23.909	1383.692	1128.990
75.636	23.913	1383.421	1128.694
76.651	23.870	1382.758	1127.783
77.666	23.916	1381.599	1127.030
78.680	23.848	1381.578	1126.482
79.695	23.859	1380.687	1125.724
80.709	23.921	1379.666	1125.183
81.724	23.825	1379.032	1123.959
82.739	23.847	1377.886	1123.065
83.753	23.881	1377.066	1122.511
84.768	23.888	1375.819	1121.440
85.782	23.899	1374.767	1120.554
86.797	23.973	1373.602	1119.973
87.812	23.920	1372.327	1118.497
88.826	23.821	1371.315	1116.952
89.841	23.978	1369.996	1116.768
90.855	23.930	1369.186	1115.704
91.870	23.967	1368.165	1115.005
92.884	23.936	1367.642	1114.287
93.899	24.035	1366.473	1113.853
94.914	23.911	1365.923	1112.531
95.928	24.054	1364.749	1112.371
96.943	23.936	1364.349	1111.211
97.957	24.019	1363.643	1111.054
98.972	24.012	1362.799	1110.224
99.987	23.936	1361.975	1108.986
101.001	23.916	1360.978	1107.948
102.016	23.947	1359.715	1107.013
103.030	23.983	1358.891	1106.468
104.045	23.957	1358.072	1105.542
105.060	23.930	1357.341	1104.681
106.074	23.917	1356.459	1103.787
107.089	23.985	1355.055	1102.969
108.103	23.992	1354.166	1102.192
109.118	23.968	1353.110	1101.084
110.133	23.971	1351.693	1099.851
111.147	24.032	1350.534	1099.191
112.162	24.054	1349.175	1098.124
113.176	24.085	1348.152	1097.386
114.191	23.977	1347.965	1096.467
115.206	24.030	1346.397	1095.423
116.220	24.004	1345.094	1094.105
117.235	24.000	1344.444	1093.456
118.249	23.997	1343.160	1092.294
119.264	23.968	1342.475	1091.463
120.279	24.054	1341.696	1091.261
121.293	24.087	1340.610	1090.487
122.308	24.072	1339.563	1089.441
123.322	24.093	1339.227	1089.201
124.337	24.005	1338.231	1087.756
125.352	24.132	1337.091	1087.508
126.366	24.132	1336.077	1086.591
127.381	24.085	1335.364	1085.630
128.395	24.050	1334.819	1084.875
129.410	24.134	1333.637	1084.331
130.424	24.143	1332.869	1083.666
131.439	24.174	1332.027	1083.074
132.454	24.061	1331.660	1081.991
133.468	24.125	1330.757	1081.549
134.483	24.255	1329.790	1081.459
135.497	24.070	1329.455	1079.969
136.512	24.092	1328.181	1078.969
137.527	24.190	1327.010	1078.517
138.541	24.150	1325.695	1077.108
139.556	24.072	1324.912	1075.909
140.570	24.016	1324.049	1074.773
141.585	24.098	1322.698	1074.074
142.600	24.087	1321.278	1072.763
143.614	24.161	1320.743	1072.676
144.629	24.145	1319.743	1071.673
145.643	24.017	1318.557	1069.846
146.658	23.946	1317.464	1068.443
147.673	23.968	1316.554	1067.739
148.687	24.038	1315.524	1067.230
149.702	24.000	1314.294	1065.909
150.716	24.020	1313.231	1065.074
151.731	24.036	1312.168	1064.213
152.746	24.031	1311.599	1063.625
153.760	24.087	1310.162	1062.700
154.775	24.048	1309.028	1061.452
155.789	24.033	1308.329	1060.704
156.804	24.085	1307.325	1060.105
157.819	24.081	1306.318	1059.174
158.833	24.064	1305.768	1058.529
159.848	24.089	1305.024	1057.984
160.862	24.160	1303.978	1057.463
161.877	24.106	1303.350	1056.542
162.892	24.088	1303.174	1056.200
163.906	24.251	1301.694	1055.868
164.921	24.208	1300.653	1054.676
165.935	24.211	1299.972	1054.050
166.950	24.160	1299.225	1053.047
167.964	24.071	1298.845	1052.122
168.979	24.111	1298.309	1051.829
169.994	24.103	1297.941	1051.390
171.008	24.163	1297.195	1051.047
172.023	24.041	1296.524	1049.696
173.037	24.058	1295.696	1049.030
174.052	24.196	1294.326	1048.638
175.067	24.290	1293.362	1048.320
176.081	24.188	1293.343	1047.610
177.096	24.101	1292.328	1046.185
178.110	24.166	1291.409	1045.730
179.125	24.270	1289.799	1044.942
180.140	24.337	1288.586	1044.264
181.154	24.307	1287.958	1043.485
182.169	24.156	1287.019	1041.750
183.183	24.295	1285.696	1041.395
184.198	24.246	1284.659	1040.181
185.213	24.210	1283.997	1039.344
186.227	24.261	1282.887	1038.649
187.242	24.357	1281.711	1038.160
188.256	24.301	1281.070	1037.224
189.271	24.373	1280.472	1037.069
190.286	24.393	1279.281	1036.126
191.300	24.225	1278.960	1034.802
192.315	24.354	1278.612	1035.176
193.329	24.207	1278.564	1034.193
194.344	24.250	1277.528	1033.511
195.359	24.306	1276.948	1033.277
196.373	24.225	1276.407	1032.279
197.388	24.237	1276.184	1032.076
198.402	24.221	1276.031	1031.766
199.417	24.326	1275.327	1031.717
200.432	24.203	1275.246	1030.849
201.446	24.167	1274.218	1029.715
202.461	24.280	1272.949	1029.250
203.475	24.311	1272.313	1028.825
204.490	24.230	1271.226	1027.387
205.504	24.316	1270.235	1026.991
206.519	24.212	1269.493	1025.705
207.534	24.403	1268.276	1025.726
208.548	24.375	1267.066	1024.499
209.563	24.371	1266.613	1024.018
210.577	24.364	1265.846	1023.268
211.592	24.358	1264.895	1022.373
212.607	24.451	1264.041	1022.123
213.621	24.453	1263.410	1021.536
214.636	24.363	1262.998	1020.598
215.650	24.513	1261.646	1020.272
216.665	24.423	1260.731	1018.926
217.680	24.402	1259.768	1017.939
218.694	24.461	1259.413	1017.896
219.709	24.380	1258.414	1016.542
220.723	24.440	1257.828	1016.316
221.738	24.386	1257.331	1015.518
222.753	24.351	1256.222	1014.337
223.767	24.406	1255.664	1014.109
224.782	24.430	1255.093	1013.693
225.796	24.406	1254.844	1013.268
226.811	24.462	1254.318	1013.072
227.826	24.583	1253.281	1012.829
228.840	24.540	1252.808	1012.113
229.855	24.385	1252.292	1010.728
230.869	24.465	1251.702	1010.614
231.884	24.467	1250.737	1009.755
232.899	24.548	1250.253	1009.733
233.913	24.391	1249.721	1008.329
234.928	24.611	1248.975	1008.880
235.942	24.670	1247.832	1008.198
236.957	24.649	1247.260	1007.533
237.972	24.682	1246.588	1007.085
238.986	24.650	1246.179	1006.484
240.001	24.565	1245.906	1005.698
241.015	24.710	1244.594	1005.364
242.030	24.718	1243.544	1004.470
243.045	24.547	1243.217	1003.157
244.059	24.722	1242.420	1003.409
245.074	24.702	1241.528	1002.489
246.088	24.721	1240.596	1001.751
247.103	24.764	1239.967	1001.398
248.117	24.635	1239.238	1000.000
249.132	24.596	1238.603	999.177
250.147	24.770	1237.580	999.236
251.161	24.773	1236.600	998.377
252.176	24.823	1236.062	998.133
253.190	24.643	1235.770	996.801
254.205	24.776	1234.811	996.681
255.220	24.732	1234.153	995.817
256.234	24.751	1233.418	995.243
257.249	24.796	1233.114	995.161
258.263	24.779	1232.333	994.348
259.278	24.808	1231.801	993.988
260.293	24.699	1231.575	993.112
261.307	24.756	1230.979	992.864
262.322	24.813	1229.652	992.023
263.336	24.814	1229.327	991.677
264.351	24.713	1229.082	990.831
265.366	24.729	1228.371	990.258
266.380	24.808	1227.738	990.097
267.395	24.868	1226.597	989.420
268.409	24.834	1225.955	988.626
269.424	24.837	1225.459	988.158
270.439	24.820	1225.254	987.810
271.453	24.888	1224.228	987.273
272.468	24.853	1223.189	986.150
273.482	24.797	1222.695	985.360
274.497	24.832	1222.641	985.422
275.512	24.818	1221.916	984.671
276.526	24.821	1221.292	984.097
277.541	24.888	1220.503	983.746
278.555	24.915	1219.923	983.339
279.570	24.931	1218.908	982.522
280.585	24.962	1217.972	981.850
281.599	24.943	1217.109	980.964
282.614	24.908	1216.241	979.983
283.628	24.935	1215.262	979.257
284.643	24.922	1214.447	978.441
285.657	24.956	1213.611	977.870
286.672	24.875	1213.018	976.862
287.687	24.925	1212.357	976.518
288.701	25.072	1211.687	976.690
289.716	25.018	1211.146	975.874
290.730	24.989	1210.205	974.869
291.745	25.003	1209.546	974.329
292.760	25.083	1209.053	974.280
293.774	25.200	1208.105	974.070
294.789	25.122	1207.653	973.195
295.803	25.132	1207.052	972.676
296.818	25.075	1206.825	972.100
297.833	25.065	1205.803	971.136
298.847	25.050	1205.335	970.592
299.862	25.055	1204.525	969.879
300.876	25.135	1203.489	969.393
301.891	25.174	1202.827	968.983
302.906	25.151	1202.415	968.442
303.920	25.164	1201.764	967.904
304.935	25.156	1201.157	967.286
305.949	25.122	1200.652	966.610
306.964	25.182	1199.866	966.213
307.979	25.251	1198.933	965.749
308.993	25.109	1198.741	964.747
310.008	25.245	1197.814	964.646
311.022	25.217	1196.721	963.531
312.037	25.294	1195.939	963.227
313.052	25.196	1195.361	962.152
314.066	25.207	1194.398	961.348
315.081	25.273	1193.784	961.121
316.095	25.266	1193.045	960.409
317.110	25.275	1192.392	959.845
318.125	25.303	1191.973	959.573
319.139	25.342	1190.891	958.822
320.154	25.265	1190.822	958.270
321.168	25.277	1190.212	957.758
322.183	25.249	1189.831	957.217
323.197	25.300	1188.662	956.465
324.212	25.246	1188.307	955.811
325.227	25.241	1187.904	955.372
326.241	25.367	1187.452	955.597
327.256	25.454	1186.446	955.164
328.270	25.287	1185.589	953.502
329.285	25.276	1184.724	952.661
330.300	25.395	1183.853	952.511
331.314	25.378	1183.262	951.864
332.329	25.403	1182.265	951.108
333.343	25.414	1181.447	950.421
334.358	25.466	1180.865	950.146
335.373	25.552	1180.137	949.929
336.387	25.466	1179.495	948.874
337.402	25.499	1178.871	948.460
338.416	25.551	1178.266	948.164
339.431	25.456	1177.844	947.242
340.446	25.477	1177.430	946.935
341.460	25.639	1176.111	946.644
342.475	25.512	1175.279	945.222
343.489	25.479	1174.836	944.608
344.504	25.522	1173.795	943.915
345.519	25.599	1172.525	943.214
346.533	25.599	1171.846	942.583
347.548	25.634	1171.041	942.039
348.562	25.640	1170.219	941.322
349.577	25.668	1169.650	940.928
350.592	25.558	1169.105	939.831
351.606	25.573	1168.203	939.103
352.621	25.640	1167.686	938.951
353.635	25.551	1167.094	937.927
354.650	25.679	1166.307	937.881
355.665	25.748	1165.556	937.556
356.679	25.796	1164.946	937.231
357.694	25.725	1164.533	936.445
358.708	25.763	1163.895	936.046
359.723	25.653	1163.211	934.842
360.738	25.699	1162.788	934.660
361.752	25.780	1161.886	934.269
362.767	25.725	1161.532	933.620
363.781	25.828	1160.949	933.604
364.796	25.941	1160.019	933.358
365.810	25.760	1159.714	932.090
366.825	25.899	1158.832	932.021
367.840	25.851	1158.484	931.411
368.854	25.887	1157.869	931.019
369.869	25.891	1156.980	930.239
370.883	25.942	1155.969	929.607
371.898	25.808	1155.952	928.823
372.913	25.924	1155.116	928.666
373.927	25.952	1155.012	928.644
374.942	25.933	1154.333	927.919
375.956	25.993	1153.516	927.486
376.971	26.025	1152.622	926.850
377.986	25.920	1152.400	926.049
379.000	25.998	1151.929	925.993
380.015	26.047	1151.294	925.649
381.029	26.031	1150.205	924.612
382.044	25.940	1150.202	924.058
383.059	26.065	1149.058	923.699
384.073	26.055	1148.340	922.989
385.088	26.146	1147.290	922.528
386.102	25.992	1146.700	921.186
387.117	25.999	1146.114	920.668
388.132	26.062	1144.684	919.762
389.146	26.104	1144.275	919.565
390.161	26.249	1143.560	919.646
391.175	26.003	1143.651	918.389
392.190	26.087	1142.274	917.628
393.205	26.076	1141.949	917.229
394.219	26.125	1141.240	916.826
395.234	26.136	1140.197	915.962
396.248	26.236	1139.205	915.593
397.263	26.293	1138.230	915.018
398.278	26.283	1137.800	914.540
399.292	26.270	1137.396	914.067
400.307	26.241	1136.374	913.019
401.321	26.140	1135.863	912.015
402.336	26.189	1135.198	911.652
403.350	26.240	1134.583	911.335
404.365	26.280	1134.108	911.073
405.380	26.323	1133.005	910.322
406.394	26.340	1132.389	909.830
407.409	26.349	1131.377	908.982
408.423	26.345	1130.817	908.434
409.438	26.305	1130.370	907.793
410.453	26.419	1129.555	907.633
411.467	26.421	1129.088	907.187
412.482	26.416	1128.099	906.287
413.496	26.449	1127.157	905.615
414.511	26.457	1126.858	905.331
415.526	26.502	1126.209	904.959
416.540	26.406	1126.188	904.379
417.555	26.443	1125.057	903.574
418.569	26.433	1124.915	903.330
419.584	26.408	1124.608	902.880
420.599	26.543	1123.739	902.776
421.613	136.572	1395.304	1748.450
422.628	127.374	1434.888	1748.573
