DTS Sentinel unit serial number:	SN413079Multiplexer serial number:	ORYXHardware model number:	OX4-SRSoftware version number:	ORYX F/W v4.00 Oryx Data Collector v3.7.2.0data status	okinstallation	princeton_trtdifferential loss correction	single-endedforward channel	channel 2reverse channel	N/Adate	2019/09/19time	04:31:35forward acquisition time	60.00reverse acquisition time	0.00gamma	496.2192k internal	0.2351k external	0.2351temperature offset calibration	1.0012default loss term (dB/km)	0.3790temperature slope calibration	1.0000multiplexer offset coefficient	1.0000multiplexer slope coefficient	1.0000fibre end	0.00T internal ref (°C)	20.12T ext. ref 1 (°C)	0.62T ext. ref 2 (°C)	13.12length (m)	temperature (°C)	Stokes	anti-Stokes-747.200	-47.810	-0.414	-0.200
-746.185	-30.359	0.076	0.043
-745.171	-200.000	-0.066	-0.295
-744.156	-58.293	-0.373	0.162
-743.142	-102.275	0.135	-0.032
-742.127	-130.648	-0.466	0.063
-741.112	-69.226	0.047	-0.018
-740.098	-200.000	-0.001	-0.016
-739.083	137.611	0.218	-0.285
-738.069	139.298	-0.068	-0.089
-737.054	-189.631	0.186	0.002
-736.039	80.697	-0.168	0.181
-735.025	20.205	0.289	0.233
-734.010	-0.970	-0.282	-0.199
-732.996	25.929	0.247	-0.206
-731.981	-18.770	-0.173	0.108
-730.966	-81.266	-0.254	-0.084
-729.952	-26.279	-0.084	-0.049
-728.937	-87.496	-0.493	0.149
-727.923	260.325	-0.060	-0.103
-726.908	-77.460	-0.059	-0.021
-725.894	128.381	-0.203	-0.257
-724.879	-58.405	-0.289	-0.125
-723.864	800.000	-0.109	0.304
-722.850	-9.903	0.224	0.149
-721.835	53.200	0.096	-0.092
-720.821	-34.647	0.148	-0.081
-719.806	-78.935	-0.449	0.152
-718.791	-156.839	-0.040	0.002
-717.777	76.988	-0.145	0.154
-716.762	12.863	-0.150	-0.116
-715.748	-136.002	-0.238	0.028
-714.733	134.308	0.179	0.231
-713.718	-200.000	0.029	0.171
-712.704	-166.667	-0.055	0.002
-711.689	-99.742	-0.595	0.149
-710.675	85.977	-0.022	-0.024
-709.660	76.705	-0.175	-0.185
-708.645	-126.692	0.201	0.030
-707.631	463.217	0.100	0.223
-706.616	599.073	0.188	0.464
-705.602	-200.000	0.000	-0.040
-704.587	800.000	-0.073	-0.202
-703.572	27.073	0.117	-0.098
-702.558	800.000	0.052	-0.224
-701.543	-50.608	-0.390	-0.183
-700.529	-200.000	-0.005	-0.163
-699.514	-177.887	-0.174	0.004
-698.499	-141.448	0.315	0.032
-697.485	-49.641	-0.263	0.125
-696.470	-90.266	0.248	0.072
-695.456	41.427	0.187	-0.168
-694.441	-66.856	-0.057	0.022
-693.426	-51.393	-0.090	-0.042
-692.412	800.000	-0.065	0.207
-691.397	-200.000	-0.007	0.184
-690.383	755.812	-0.070	0.188
-689.368	225.495	-0.201	-0.324
-688.354	-28.417	0.148	0.085
-687.339	7.169	0.094	-0.070
-686.324	290.234	-0.122	-0.220
-685.310	-200.000	0.019	-0.162
-684.295	-138.544	0.245	0.027
-683.281	-200.000	-0.001	-0.092
-682.266	112.625	0.098	0.118
-681.251	-142.106	-0.169	-0.017
-680.237	4.827	-0.201	-0.147
-679.222	800.000	-0.106	0.414
-678.208	-172.269	0.244	0.008
-677.193	-15.823	0.120	-0.076
-676.178	800.000	0.098	-0.390
-675.164	-200.000	0.021	-0.157
-674.149	-149.123	0.322	0.026
-673.135	-65.981	-0.172	0.068
-672.120	129.330	-0.167	-0.212
-671.105	-196.600	-0.623	0.004
-670.091	800.000	0.074	0.211
-669.076	615.969	-0.194	0.485
-668.062	-60.092	0.136	-0.058
-667.047	195.355	-0.098	-0.148
-666.032	-44.039	-0.335	-0.167
-665.018	-44.492	0.281	0.140
-664.003	198.823	0.147	0.224
-662.989	-200.000	-0.002	-0.025
-661.974	-157.601	0.073	0.004
-660.959	-128.426	0.125	0.018
-659.945	-68.484	-0.202	0.078
-658.930	0.500	-0.280	-0.199
-657.916	715.927	-0.071	-0.186
-656.901	-173.473	0.198	-0.006
-655.886	82.284	-0.106	-0.114
-654.872	47.904	-0.135	-0.125
-653.857	0.211	0.093	0.066
-652.843	-12.817	0.375	-0.243
-651.828	84.834	-0.200	-0.218
-650.814	60.708	-0.229	-0.225
-649.799	-70.659	0.214	-0.080
-648.784	-200.000	0.103	-0.452
-647.770	-56.390	-0.272	0.120
-646.755	-200.000	-0.041	-0.316
-645.741	-49.388	-0.044	-0.021
-644.726	109.094	-0.220	0.262
-643.711	-141.056	-0.345	-0.035
-642.697	-122.953	0.195	-0.031
-641.682	-123.227	-0.123	0.020
-640.668	285.796	0.079	-0.142
-639.653	-200.000	0.029	-0.395
-638.638	499.897	-0.081	-0.185
-637.624	-21.491	0.293	-0.177
-636.609	-130.347	-0.297	-0.040
-635.595	101.209	0.130	-0.150
-634.580	689.469	-0.053	-0.139
-633.565	58.042	-0.258	0.251
-632.551	-70.579	0.141	-0.053
-631.536	-75.225	0.569	-0.202
-630.522	57.633	0.150	0.146
-629.507	-200.000	-0.019	0.127
-628.492	404.480	-0.046	0.096
-627.478	-2.559	-0.113	-0.079
-626.463	96.323	-0.213	0.242
-625.449	-200.000	-0.015	-0.108
-624.434	-113.044	-0.073	0.014
-623.419	-165.739	0.286	-0.012
-622.405	-83.645	0.093	-0.030
-621.390	-200.000	0.005	0.098
-620.376	152.037	0.122	0.165
-619.361	-54.622	-0.280	0.126
-618.346	262.638	0.077	0.134
-617.332	-122.043	-0.056	0.009
-616.317	342.167	-0.118	0.230
-615.303	60.208	0.129	-0.126
-614.288	800.000	-0.036	-0.137
-613.273	82.019	0.088	0.095
-612.259	-176.039	-0.248	-0.007
-611.244	334.112	0.017	-0.033
-610.230	329.309	0.149	-0.283
-609.215	-200.000	-0.010	-0.201
-608.201	-84.774	0.154	0.048
-607.186	40.610	-0.156	0.139
-606.171	-74.925	-0.148	-0.053
-605.157	-91.478	0.026	0.007
-604.142	-43.440	-0.298	-0.149
-603.128	-169.626	-0.269	0.010
-602.113	68.007	-0.062	0.063
-601.098	-110.827	0.304	0.062
-600.084	17.129	-0.247	-0.194
-599.069	-200.000	-0.020	-0.239
-598.055	-29.530	-0.226	0.128
-597.040	7.443	0.153	-0.113
-596.025	229.253	-0.224	0.363
-595.011	70.212	-0.072	0.074
-593.996	-52.155	0.202	0.093
-592.982	-200.000	0.006	-0.281
-591.967	-200.000	0.023	-0.229
-590.952	-29.930	-0.184	0.104
-589.938	-124.053	-0.348	-0.054
-588.923	-99.731	0.120	0.030
-587.909	112.823	0.085	-0.102
-586.894	-161.010	0.166	0.009
-585.879	76.945	-0.194	0.205
-584.865	-51.099	-0.268	-0.124
-583.850	-32.854	0.205	0.113
-582.836	-60.666	0.150	0.063
-581.821	-89.562	0.240	-0.070
-580.806	-200.000	0.087	-0.414
-579.792	-200.000	-0.016	-0.118
-578.777	-200.000	0.054	-0.276
-577.763	46.816	0.326	0.300
-576.748	-62.147	-0.244	-0.101
-575.733	-29.909	0.073	0.041
-574.719	137.685	-0.063	-0.082
-573.704	225.028	-0.176	0.282
-572.690	-200.000	0.061	0.350
-571.675	800.000	-0.059	0.233
-570.661	-99.246	-0.336	-0.084
-569.646	-160.150	0.096	-0.005
-568.631	43.554	0.142	-0.129
-567.617	-112.585	0.391	-0.077
-566.602	-9.985	0.026	-0.017
-565.588	28.297	0.247	0.207
-564.573	327.786	-0.050	-0.095
-563.558	-200.000	-0.053	-0.237
-562.544	-81.759	0.217	-0.071
-561.529	25.066	-0.281	-0.231
-560.515	-84.590	-0.142	0.044
-559.500	98.338	0.172	0.196
-558.485	-126.208	-0.327	-0.048
-557.471	-33.777	0.154	0.084
-556.456	34.120	0.370	-0.319
-555.442	135.718	-0.230	0.296
-554.427	10.690	-0.130	0.098
-553.412	70.825	0.249	-0.255
-552.398	466.218	-0.133	-0.295
-551.383	150.927	0.145	0.196
-550.369	-200.000	0.029	-0.161
-549.354	-200.000	0.027	-0.152
-548.339	-70.819	0.049	0.018
-547.325	-110.936	0.037	-0.008
-546.310	56.883	0.050	0.049
-545.296	-200.000	-0.048	-0.308
-544.281	-103.018	0.316	-0.074
-543.266	73.739	-0.266	0.276
-542.252	-200.000	0.046	-0.343
-541.237	47.666	0.336	0.311
-540.223	-87.112	0.291	0.088
-539.208	-120.118	-0.086	0.015
-538.193	-152.558	-0.478	0.034
-537.179	-200.000	-0.020	0.106
-536.164	-145.394	0.172	0.015
-535.150	-200.000	-0.003	0.250
-534.135	-200.000	-0.019	0.165
-533.121	800.000	-0.044	0.173
-532.106	-200.000	0.027	-0.135
-531.091	92.317	0.101	-0.113
-530.077	800.000	0.106	0.313
-529.062	93.992	-0.127	-0.142
-528.048	176.531	-0.017	-0.025
-527.033	-91.704	0.350	-0.098
-526.018	3.286	0.241	0.174
-525.004	481.636	-0.074	-0.166
-523.989	263.678	0.077	-0.132
-522.975	-46.314	0.180	-0.088
-521.960	-102.847	-0.048	0.011
-520.945	-79.744	0.326	-0.109
-519.931	82.721	-0.316	0.339
-518.916	-8.232	0.216	-0.144
-517.902	-134.713	-0.429	-0.052
-516.887	-200.000	-0.016	0.373
-515.872	-200.000	-0.034	-0.243
-514.858	26.752	0.156	-0.129
-513.843	136.145	-0.062	-0.079
-512.829	800.000	0.032	-0.096
-511.814	374.317	0.187	0.377
-510.799	226.218	0.080	-0.128
-509.785	663.203	-0.076	0.193
-508.770	181.358	-0.013	-0.019
-507.756	-200.000	-0.055	-0.248
-506.741	-98.299	0.026	-0.007
-505.726	-178.147	0.017	-0.000
-504.712	17.306	-0.191	0.150
-503.697	-45.035	0.079	0.039
-502.683	76.714	-0.016	-0.017
-501.668	136.196	-0.025	-0.032
-500.653	-200.000	-0.029	-0.143
-499.639	12.424	-0.027	-0.021
-498.624	800.000	-0.084	0.347
-497.610	328.890	0.074	0.141
-496.595	-159.641	0.046	-0.003
-495.581	-82.667	0.438	-0.140
-494.566	-200.000	0.011	0.140
-493.551	47.987	-0.133	-0.123
-492.537	800.000	0.103	-0.313
-491.522	178.860	-0.029	0.042
-490.508	-79.737	-0.132	0.044
-489.493	537.312	0.059	-0.138
-488.478	368.413	-0.171	-0.341
-487.464	-98.175	0.230	0.058
-486.449	-91.792	0.203	0.057
-485.435	-200.000	0.010	0.050
-484.420	-120.699	0.203	-0.034
-483.405	-154.802	-0.094	-0.006
-482.391	274.675	0.057	0.099
-481.376	-200.000	-0.008	-0.035
-480.362	-200.000	-0.000	0.206
-479.347	-93.758	-0.195	-0.053
-478.332	-11.827	0.388	0.251
-477.318	187.843	0.051	0.075
-476.303	358.085	0.183	0.360
-475.289	296.259	-0.043	0.077
-474.274	-71.771	0.366	0.135
-473.259	206.075	-0.133	-0.205
-472.245	24.093	0.140	0.114
-471.230	800.000	0.095	0.323
-470.216	-17.499	0.136	-0.084
-469.201	66.536	0.164	0.164
-468.186	-200.000	-0.007	0.050
-467.172	-110.150	0.152	0.031
-466.157	13.098	0.116	-0.089
-465.143	-200.000	-0.006	-0.238
-464.128	-13.367	-0.126	-0.081
-463.113	-200.000	0.013	-0.218
-462.099	243.764	-0.130	0.216
-461.084	800.000	-0.068	-0.239
-460.070	6.559	0.244	0.179
-459.055	30.184	-0.149	-0.126
-458.040	490.720	0.115	0.260
-457.026	-200.000	-0.046	0.237
-456.011	82.822	-0.040	0.043
-454.997	583.842	0.110	-0.267
-453.982	-200.000	0.010	0.200
-452.968	6.312	-0.143	-0.105
-451.953	-200.000	0.038	-0.247
-450.938	248.842	0.114	-0.190
-449.924	81.671	-0.173	-0.184
-448.909	-200.000	-0.019	-0.119
-447.895	800.000	-0.088	0.322
-446.880	800.000	0.077	0.314
-445.865	134.945	0.028	-0.036
-444.851	-103.286	0.541	-0.126
-443.836	-200.000	0.004	-0.255
-442.822	62.686	0.106	0.104
-441.807	598.820	0.283	-0.692
-440.792	431.711	-0.061	0.130
-439.778	194.545	0.031	0.046
-438.763	-200.000	-0.005	0.434
-437.749	800.000	0.081	0.237
-436.734	444.094	0.019	-0.041
-435.719	-24.150	-0.187	-0.110
-434.705	-155.171	0.183	-0.012
-433.690	166.995	-0.140	-0.196
-432.676	-200.000	-0.007	-0.293
-431.661	-108.917	-0.117	-0.025
-430.646	574.501	0.023	-0.054
-429.632	-81.271	0.197	0.064
-428.617	-200.000	0.026	-0.197
-427.603	203.883	-0.425	-0.648
-426.588	-75.724	-0.259	0.091
-425.573	-31.415	-0.204	-0.113
-424.559	530.128	0.132	0.308
-423.544	-67.550	-0.215	-0.083
-422.530	26.601	-0.094	-0.077
-421.515	454.688	0.050	0.110
-420.500	800.000	-0.123	0.401
-419.486	456.926	0.078	0.170
-418.471	4.877	-0.086	0.062
-417.457	-86.830	-0.245	0.074
-416.442	-79.250	-0.185	-0.062
-415.428	-34.235	-0.437	-0.236
-414.413	-21.530	0.535	0.321
-413.398	267.672	0.048	0.082
-412.384	162.460	0.073	-0.101
-411.369	28.369	-0.165	0.137
-410.355	800.000	-0.063	0.195
-409.340	28.353	-0.331	0.275
-408.325	62.269	-0.173	0.170
-407.311	-20.911	0.125	0.076
-406.296	229.738	-0.119	-0.192
-405.282	394.409	-0.114	0.235
-404.267	24.947	0.186	0.152
-403.252	800.000	-0.037	0.114
-402.238	800.000	0.096	0.396
-401.223	-151.571	0.228	0.017
-400.209	-200.000	-0.005	0.289
-399.194	569.982	-0.179	-0.427
-398.179	-56.530	0.134	-0.059
-397.165	369.570	-0.067	0.134
-396.150	-9.351	0.200	0.132
-395.136	-200.000	0.018	-0.208
-394.121	-200.000	0.002	0.197
-393.106	-200.000	0.028	-0.281
-392.092	159.779	-0.153	0.209
-391.077	-200.000	0.006	-0.083
-390.063	-76.797	-0.190	0.065
-389.048	-100.376	0.320	0.078
-388.033	524.809	-0.147	0.339
-387.019	-58.033	0.089	0.038
-386.004	132.506	-0.147	0.187
-384.990	410.434	0.135	-0.282
-383.975	92.756	0.170	-0.189
-382.960	-16.651	0.363	0.226
-381.946	800.000	0.048	-0.157
-380.931	612.914	0.122	-0.301
-379.917	795.941	-0.056	0.153
-378.902	-200.000	0.020	-0.275
-377.888	-65.485	0.168	-0.066
-376.873	54.561	-0.099	0.094
-375.858	-200.000	-0.036	0.167
-374.844	153.579	-0.233	-0.314
-373.829	-164.847	-0.443	-0.020
-372.815	289.731	0.056	-0.099
-371.800	-72.524	-0.090	0.033
-370.785	159.029	-0.205	-0.280
-369.771	65.034	-0.091	0.090
-368.756	-200.000	-0.001	-0.203
-367.742	-46.568	0.177	0.085
-366.727	-72.355	0.119	-0.043
-365.712	33.806	-0.125	0.107
-364.698	-53.801	0.307	0.138
-363.683	226.964	0.081	0.130
-362.669	-8.605	-0.128	0.084
-361.654	0.741	0.161	-0.113
-360.639	547.081	0.079	-0.186
-359.625	-104.065	-0.482	0.110
-358.610	91.477	-0.133	0.147
-357.596	161.283	-0.103	0.142
-356.581	175.942	-0.162	-0.231
-355.566	41.930	0.104	-0.092
-354.552	800.000	0.008	0.032
-353.537	-116.144	-0.294	0.054
-352.523	800.000	-0.035	-0.131
-351.508	-0.977	0.095	0.066
-350.493	-125.760	0.134	0.020
-349.479	135.508	-0.167	0.213
-348.464	-45.456	-0.066	-0.032
-347.450	-145.058	-0.109	-0.010
-346.435	800.000	-0.041	0.128
-345.420	-18.447	0.302	0.185
-344.406	-80.079	-0.258	-0.085
-343.391	-200.000	-0.012	0.163
-342.377	40.850	0.051	0.045
-341.362	268.901	0.078	0.135
-340.348	151.892	0.171	-0.229
-339.333	-82.553	-0.209	-0.067
-338.318	121.957	-0.143	-0.175
-337.304	-85.586	-0.324	0.099
-336.289	129.078	-0.095	-0.119
-335.275	-200.000	-0.029	-0.132
-334.260	375.271	0.248	0.496
-333.245	289.289	0.047	-0.083
-332.231	-185.324	0.275	0.004
-331.216	800.000	-0.032	0.087
-330.202	-17.602	0.045	0.028
-329.187	-159.029	0.324	-0.018
-328.172	446.797	0.088	0.190
-327.158	-40.606	0.084	0.043
-326.143	121.432	-0.237	-0.290
-325.129	-141.653	0.091	0.009
-324.114	-167.757	-0.157	0.006
-323.099	-60.418	-0.390	-0.163
-322.085	-200.000	0.025	0.254
-321.070	201.179	0.232	-0.350
-320.056	578.903	-0.088	-0.211
-319.041	-200.000	0.009	-0.105
-318.026	138.616	0.029	-0.038
-317.012	-85.500	0.151	0.046
-315.997	64.036	0.116	0.115
-314.983	635.263	0.050	-0.124
-313.968	-200.000	0.013	0.085
-312.953	487.677	-0.067	-0.149
-311.939	-200.000	0.002	0.182
-310.924	-134.840	0.125	0.015
-309.910	-19.025	-0.205	0.125
-308.895	145.251	-0.130	0.170
-307.880	-106.794	0.108	-0.024
-306.866	-200.000	0.048	-0.215
-305.851	-42.522	-0.233	-0.117
-304.837	9.828	-0.033	-0.025
-303.822	-20.690	0.104	-0.063
-302.807	-200.000	0.010	-0.108
-301.793	-67.863	0.241	-0.092
-300.778	-200.000	-0.028	-0.132
-299.764	264.687	0.175	-0.299
-298.749	-58.439	0.135	0.057
-297.735	0.389	-0.231	-0.162
-296.720	-125.010	0.219	-0.033
-295.705	-75.183	0.127	0.045
-294.691	-7.272	0.204	-0.135
-293.676	-200.000	0.006	-0.516
-292.662	-58.554	0.273	0.116
-291.647	-200.000	-0.073	-0.326
-290.632	-95.228	-0.126	-0.033
-289.618	-71.339	-0.188	0.069
-288.603	-16.991	-0.304	-0.188
-287.589	-58.396	-0.263	-0.112
-286.574	800.000	-0.038	0.121
-285.559	189.414	-0.107	0.157
-284.545	303.878	0.050	-0.092
-283.530	183.571	0.032	-0.046
-282.516	800.000	-0.052	-0.213
-281.501	-48.862	0.178	-0.084
-280.486	217.436	-0.096	-0.150
-279.472	-138.199	0.411	-0.045
-278.457	800.000	-0.037	0.112
-277.443	800.000	-0.027	-0.112
-276.428	129.775	0.279	0.349
-275.413	138.927	-0.231	0.297
-274.399	-147.656	0.243	-0.020
-273.384	399.064	-0.019	-0.039
-272.370	49.909	-0.154	-0.142
-271.355	-55.827	0.184	-0.081
-270.340	-168.978	0.172	0.006
-269.326	800.000	-0.043	0.156
-268.311	-75.015	-0.123	-0.043
-267.297	214.306	0.159	0.246
-266.282	339.871	-0.052	0.100
-265.267	253.256	0.094	0.158
-264.253	-55.242	-0.243	0.107
-263.238	249.062	0.125	-0.208
-262.224	-200.000	0.022	-0.100
-261.209	-200.000	0.050	0.497
-260.195	-35.140	-0.230	0.123
-259.180	-110.925	0.148	0.030
-258.165	-111.477	-0.384	0.077
-257.151	343.745	0.082	0.157
-256.136	436.078	0.047	-0.101
-255.122	616.997	-0.051	0.125
-254.107	-157.301	0.084	0.005
-253.092	-62.536	0.301	-0.122
-252.078	218.936	0.226	0.354
-251.063	36.327	0.124	0.107
-250.049	-134.644	-0.390	-0.047
-249.034	41.698	-0.119	0.105
-248.019	-200.000	-0.021	0.101
-247.005	15.800	-0.122	-0.094
-245.990	-26.016	-0.130	-0.075
-244.976	-200.000	-0.046	0.231
-243.961	800.000	-0.124	-0.341
-242.946	-106.020	-0.182	0.040
-241.932	-13.947	0.297	-0.187
-240.917	-112.032	-0.455	0.090
-239.903	-5.893	0.069	-0.047
-238.888	-55.979	0.067	0.029
-237.873	800.000	-0.095	0.323
-236.859	800.000	-0.048	-0.187
-235.844	552.729	0.039	0.091
-234.830	-200.000	-0.028	0.244
-233.815	320.843	-0.121	-0.225
-232.800	-103.386	0.186	0.043
-231.786	34.279	-0.228	0.195
-230.771	-76.774	-0.133	-0.045
-229.757	180.146	-0.167	0.239
-228.742	-144.621	0.133	0.012
-227.727	-44.410	-0.249	-0.122
-226.713	59.756	0.065	0.063
-225.698	-71.162	-0.081	-0.030
-224.684	-131.287	0.076	0.010
-223.669	800.000	0.025	-0.070
-222.655	0.926	-0.074	-0.052
-221.640	110.077	0.013	-0.015
-220.625	-200.000	0.030	0.291
-219.611	-74.880	0.024	-0.008
-218.596	-122.179	0.219	-0.035
-217.582	284.696	0.029	0.052
-216.567	800.000	-0.073	-0.274
-215.552	-72.441	-0.039	-0.014
-214.538	-200.000	0.002	0.058
-213.523	437.745	-0.059	0.127
-212.509	243.829	-0.075	0.124
-211.494	-47.442	-0.138	-0.066
-210.479	800.000	-0.033	0.111
-209.465	473.606	-0.073	-0.160
-208.450	37.435	-0.025	-0.022
-207.436	-124.569	-0.479	-0.073
-206.421	-200.000	-0.074	0.393
-205.406	-99.803	0.061	-0.015
-204.392	-165.700	0.063	-0.003
-203.377	291.441	0.091	-0.163
-202.363	182.563	0.117	0.169
-201.348	-77.396	0.265	0.090
-200.333	-70.974	-0.097	-0.036
-199.319	-129.359	0.290	0.039
-198.304	-72.310	-0.184	0.066
-197.290	170.255	0.175	0.245
-196.275	454.713	0.147	-0.318
-195.260	-18.335	-0.147	-0.090
-194.246	-80.534	-0.267	0.087
-193.231	-51.634	0.109	0.050
-192.217	-173.625	-0.168	0.005
-191.202	249.785	-0.127	0.211
-190.187	-200.000	0.017	0.091
-189.173	711.622	-0.041	-0.105
-188.158	95.237	0.262	-0.292
-187.144	310.309	0.267	-0.487
-186.129	-200.000	0.008	-0.102
-185.114	-96.889	0.132	-0.034
-184.100	-1.308	0.115	0.079
-183.085	677.001	-0.038	0.097
-182.071	286.476	-0.202	-0.355
-181.056	800.000	0.030	0.089
-180.042	25.917	-0.306	-0.249
-179.027	-116.613	-0.225	0.040
-178.012	-200.000	-0.031	-0.317
-176.998	-2.062	0.132	0.090
-175.983	-66.855	-0.208	-0.080
-174.969	-129.289	0.088	-0.012
-173.954	-200.000	-0.051	0.333
-172.939	-47.186	0.150	-0.071
-171.925	-200.000	0.014	0.294
-170.910	-100.090	0.238	0.058
-169.896	-49.257	-0.326	0.152
-168.881	-200.000	0.025	-0.169
-167.866	800.000	0.052	-0.171
-166.852	-116.739	0.169	0.030
-165.837	-72.044	-0.245	-0.089
-164.823	-139.084	0.227	-0.024
-163.808	183.574	-0.060	0.086
-162.793	-59.213	-0.116	0.049
-161.779	-43.008	-0.247	0.122
-160.764	67.702	0.342	0.341
-159.750	-200.000	0.035	0.179
-158.735	331.656	-0.073	-0.137
-157.720	162.516	-0.044	0.060
-156.706	377.004	-0.062	-0.123
-155.691	319.372	0.064	0.117
-154.677	-107.969	-0.182	-0.039
-153.662	628.458	0.136	0.336
-152.647	14.529	-0.073	0.055
-151.633	194.192	-0.169	-0.250
-150.618	-200.000	-0.013	0.245
-149.604	144.521	0.064	-0.083
-148.589	-88.616	0.247	-0.072
-147.574	-39.911	0.048	0.024
-146.560	-79.769	-0.112	-0.037
-145.545	96.090	-0.115	-0.128
-144.531	18.492	-0.147	0.115
-143.516	-4.568	-0.130	0.087
-142.502	-73.954	-0.321	0.113
-141.487	-200.000	-0.014	0.113
-140.472	-116.591	0.279	0.050
-139.458	-200.000	-0.024	0.199
-138.443	-78.862	0.234	0.078
-137.429	153.330	-0.056	-0.074
-136.414	-98.851	-0.260	-0.064
-135.399	-93.834	0.199	-0.053
-134.385	21.328	0.129	0.102
-133.370	800.000	-0.044	0.155
-132.356	-52.735	0.230	-0.103
-131.341	-200.000	0.023	-0.202
-130.326	144.383	0.190	0.247
-129.312	389.604	-0.126	0.254
-128.297	-17.690	-0.071	-0.044
-127.283	-96.541	0.179	0.046
-126.268	-3.062	0.051	0.035
-125.253	562.991	0.013	-0.032
-124.239	-66.918	0.101	0.039
-123.224	186.540	-0.190	-0.276
-122.210	-84.621	-0.250	-0.077
-121.195	-200.000	0.013	0.075
-120.180	58.914	0.164	0.157
-119.166	-20.801	-0.103	-0.061
-118.151	-95.254	-0.265	0.069
-117.137	510.555	0.063	0.143
-116.122	800.000	-0.036	0.150
-115.107	115.718	0.080	-0.095
-114.093	-200.000	0.018	0.081
-113.078	-143.704	0.098	0.009
-112.064	-14.476	-0.057	-0.036
-111.049	75.094	-0.203	-0.208
-110.034	-41.159	0.077	0.039
-109.020	800.000	-0.064	-0.244
-108.005	-94.136	0.176	-0.047
-106.991	-52.706	-0.191	0.086
-105.976	-69.369	0.312	-0.117
-104.962	-58.145	0.086	-0.037
-103.947	65.040	-0.367	0.361
-102.932	-128.310	-0.441	-0.061
-101.918	-188.200	-0.055	-0.001
-100.903	-76.756	-0.075	-0.026
-99.889	741.461	-0.065	-0.171
-98.874	-24.367	0.164	-0.095
-97.859	212.522	0.237	-0.363
-96.845	83.910	0.057	0.060
-95.830	800.000	-0.051	-0.158
-94.816	350.887	-0.050	-0.096
-93.801	97.421	0.095	-0.106
-92.786	74.969	0.185	-0.190
-91.772	-200.000	-0.014	-0.254
-90.757	454.613	-0.102	-0.220
-89.743	-200.000	-0.018	0.293
-88.728	119.094	-0.234	-0.281
-87.713	-200.000	-0.032	0.309
-86.699	-200.000	0.004	0.036
-85.684	127.850	0.180	-0.223
-84.670	-200.000	0.022	0.161
-83.655	-17.637	-0.066	-0.040
-82.640	-182.440	-0.174	0.003
-81.626	800.000	0.078	0.294
-80.611	-200.000	-0.084	0.368
-79.597	-200.000	0.015	0.143
-78.582	-143.164	0.084	0.008
-77.567	-200.000	0.033	-0.369
-76.553	722.857	0.128	0.331
-75.538	188.972	-0.248	-0.361
-74.524	205.855	0.046	0.069
-73.509	-106.567	-0.185	-0.040
-72.494	-120.868	-0.216	-0.035
-71.480	800.000	0.046	0.191
-70.465	33.241	0.059	-0.050
-69.451	156.061	-0.131	-0.176
-68.436	800.000	0.090	-0.279
-67.422	-200.000	0.029	0.218
-66.407	-30.387	-0.107	-0.059
-65.392	-53.065	-0.101	-0.045
-64.378	64.855	-0.044	-0.043
-63.363	-36.583	-0.386	0.202
-62.349	408.958	-0.031	-0.063
-61.334	154.665	-1.060	-1.414
-60.319	108.020	0.844	0.978
-59.305	202.392	-1.041	-1.561
-58.290	340.974	0.808	1.533
-57.276	800.000	0.394	1.482
-56.261	-200.000	136.971	640.811
-55.246	336.699	1659.993	3130.938
-54.232	134.936	2804.078	3536.941
-53.217	79.000	2309.264	2401.114
-52.203	28.535	1909.423	1568.391
-51.188	22.880	1704.056	1356.356
-50.173	21.173	1666.757	1313.776
-49.159	42.375	1741.672	1537.449
-48.144	38.886	1750.348	1518.112
-47.130	22.531	1700.895	1350.951
-46.115	20.243	1685.576	1321.321
-45.100	20.027	1680.774	1315.868
-44.086	20.070	1677.645	1313.686
-43.071	20.043	1675.655	1311.873
-42.057	19.936	1673.667	1309.456
-41.042	19.987	1671.778	1308.314
-40.027	19.886	1670.067	1306.158
-39.013	19.943	1667.495	1304.524
-37.998	20.002	1665.949	1303.708
-36.984	19.906	1665.776	1302.798
-35.969	20.091	1663.416	1302.288
-34.954	20.142	1661.814	1301.368
-33.940	20.023	1660.398	1299.313
-32.925	20.124	1658.397	1298.454
-31.911	20.196	1656.123	1297.163
-30.896	20.058	1654.672	1294.944
-29.881	20.064	1653.731	1294.194
-28.867	20.102	1651.990	1293.065
-27.852	20.106	1650.280	1291.704
-26.838	20.080	1649.655	1290.975
-25.823	20.102	1648.038	1289.819
-24.809	20.145	1646.897	1289.199
-23.794	20.258	1645.195	1288.651
-22.779	20.217	1643.559	1287.018
-21.765	20.135	1642.343	1285.400
-20.750	20.144	1640.826	1284.231
-19.736	20.174	1639.358	1283.257
-18.721	20.168	1637.961	1282.069
-17.706	20.185	1636.508	1281.000
-16.692	20.171	1635.211	1279.833
-15.677	20.152	1633.414	1278.236
-14.663	20.277	1631.990	1277.994
-13.648	20.145	1631.136	1276.300
-12.633	20.229	1629.221	1275.372
-11.619	20.062	1628.133	1273.242
-10.604	20.186	1626.624	1272.918
-9.590	20.143	1625.445	1271.632
-8.575	20.165	1623.981	1270.594
-7.560	20.185	1622.537	1269.561
-6.546	20.230	1621.446	1268.985
-5.531	20.179	1620.388	1267.740
-4.517	20.185	1619.167	1266.776
-3.502	20.156	1618.025	1265.616
-2.487	20.194	1616.441	1264.608
-1.473	19.725	1603.659	1251.162
-0.458	16.529	1583.577	1212.568
0.556	11.711	1585.888	1180.050
1.571	9.420	1611.062	1181.863
2.586	9.223	1623.102	1189.132
3.600	8.806	1567.720	1145.477
4.615	5.092	1463.940	1044.720
5.629	1.299	1408.869	980.855
6.644	0.617	1402.397	971.878
7.659	0.706	1401.630	971.830
8.673	0.543	1400.961	970.235
9.688	0.633	1398.304	968.886
10.702	0.448	1394.802	965.190
11.717	2.403	1396.118	978.525
12.731	7.961	1405.291	1020.563
13.746	14.244	1415.036	1067.980
14.761	16.951	1418.289	1087.725
15.775	16.513	1417.100	1083.912
16.790	15.576	1414.583	1075.891
17.804	14.791	1412.305	1069.044
18.819	14.452	1410.998	1065.790
19.834	14.357	1409.569	1064.008
20.848	14.046	1408.229	1060.919
21.863	13.840	1406.871	1058.489
22.877	13.609	1405.522	1055.912
23.892	13.498	1404.874	1054.620
24.907	13.592	1403.583	1054.154
25.921	13.572	1402.688	1053.264
26.936	13.604	1402.086	1052.924
27.950	13.718	1400.853	1052.628
28.965	13.728	1400.425	1052.275
29.980	13.831	1398.852	1051.655
30.994	13.805	1397.917	1050.695
32.009	13.930	1397.019	1050.718
33.023	13.863	1395.660	1049.181
34.038	13.807	1395.080	1048.296
35.053	13.774	1394.038	1047.210
36.067	13.803	1392.248	1045.955
37.082	13.709	1391.733	1044.882
38.096	13.816	1390.504	1044.541
39.111	13.710	1389.908	1043.338
40.126	13.657	1389.376	1042.508
41.140	13.576	1388.689	1041.396
42.155	13.633	1387.989	1041.136
43.169	13.534	1388.011	1040.439
44.184	13.595	1387.604	1040.427
45.199	13.544	1387.598	1040.005
46.213	13.672	1386.691	1040.035
47.228	13.706	1385.736	1039.442
48.242	13.636	1384.250	1037.800
49.257	13.662	1382.795	1036.775
50.271	13.674	1381.195	1035.563
51.286	13.617	1380.003	1034.219
52.301	13.700	1378.423	1033.464
53.315	13.679	1377.608	1032.631
54.330	13.665	1376.724	1031.791
55.344	13.662	1375.283	1030.598
56.359	13.579	1373.996	1029.026
57.374	13.545	1373.798	1028.575
58.388	13.547	1372.679	1027.659
59.403	13.529	1372.578	1027.381
60.417	13.534	1371.233	1026.317
61.432	13.570	1370.521	1025.914
62.447	13.572	1369.551	1025.110
63.461	13.495	1368.166	1023.508
64.476	13.553	1367.077	1022.962
65.490	13.531	1365.835	1021.804
66.505	13.490	1364.221	1020.251
67.520	13.608	1363.088	1020.040
68.534	13.538	1362.218	1018.872
69.549	13.564	1360.622	1017.746
70.563	13.613	1359.437	1017.070
71.578	13.526	1358.843	1016.001
72.593	13.550	1357.549	1015.090
73.607	13.375	1357.325	1013.764
74.622	13.468	1355.854	1013.143
75.636	13.411	1355.691	1012.586
76.651	13.576	1354.391	1012.529
77.666	13.489	1353.786	1011.459
78.680	13.509	1352.895	1010.828
79.695	13.532	1352.421	1010.519
80.709	13.474	1351.816	1009.625
81.724	13.510	1351.077	1009.205
82.739	13.577	1349.685	1008.485
83.753	13.527	1349.020	1007.594
84.768	13.622	1348.077	1007.376
85.782	13.678	1346.612	1006.530
86.797	13.636	1345.462	1005.331
87.812	13.669	1343.971	1004.328
88.826	13.719	1342.540	1003.472
89.841	13.674	1342.146	1002.817
90.855	13.683	1340.928	1001.872
91.870	13.765	1339.659	1001.329
92.884	13.786	1338.454	1000.469
93.899	13.715	1338.465	999.957
94.914	13.747	1337.530	999.366
95.928	13.742	1336.270	998.306
96.943	13.656	1336.025	997.514
97.957	13.667	1334.812	996.588
98.972	13.739	1333.622	996.042
99.987	13.627	1332.624	994.540
101.001	13.655	1331.802	994.001
102.016	13.756	1330.405	993.478
103.030	13.777	1329.343	992.723
104.045	13.732	1328.812	991.971
105.060	13.767	1327.119	990.829
106.074	13.661	1325.853	989.163
107.089	13.591	1324.678	987.780
108.103	13.613	1323.140	986.679
109.118	13.555	1321.851	985.285
110.133	13.608	1320.205	984.282
111.147	13.596	1318.765	983.049
112.162	13.723	1317.029	982.421
113.176	13.691	1316.958	982.093
114.191	13.722	1315.765	981.299
115.206	13.775	1314.402	980.510
116.220	13.583	1313.619	978.708
117.235	13.689	1312.363	978.312
118.249	13.634	1311.356	977.148
119.264	13.788	1310.057	977.001
120.279	13.680	1309.201	975.641
121.293	13.705	1307.908	974.740
122.308	13.640	1306.768	973.417
123.322	13.664	1306.263	973.098
124.337	13.639	1305.264	972.122
125.352	13.667	1303.727	971.053
126.366	13.716	1302.270	970.168
127.381	13.537	1301.655	968.578
128.395	13.533	1301.052	968.021
129.410	13.714	1299.533	967.859
130.424	13.673	1299.021	967.155
131.439	13.656	1297.322	965.706
132.454	13.643	1296.509	964.938
133.468	13.740	1295.586	964.733
134.483	13.650	1294.817	963.551
135.497	13.722	1293.425	962.847
136.512	13.677	1292.645	961.922
137.527	13.743	1290.636	960.723
138.541	13.655	1289.545	959.319
139.556	13.780	1288.250	958.990
140.570	13.761	1287.187	958.008
141.585	13.792	1286.109	957.298
142.600	13.791	1284.664	956.131
143.614	13.770	1283.871	955.336
144.629	13.903	1282.583	955.059
145.643	13.921	1281.433	954.222
146.658	13.916	1280.303	953.263
147.673	13.854	1278.717	951.643
148.687	13.782	1277.978	950.596
149.702	13.852	1276.424	949.761
150.716	13.783	1275.104	948.299
151.731	13.788	1274.427	947.739
152.746	13.753	1273.216	946.558
153.760	13.857	1271.578	945.845
154.775	13.854	1270.620	945.031
155.789	13.855	1269.627	944.218
156.804	13.988	1268.592	944.119
157.819	13.915	1267.389	942.727
158.833	14.011	1266.440	942.483
159.848	14.035	1265.791	942.053
160.862	13.981	1264.457	940.671
161.877	14.053	1263.094	939.978
162.892	13.935	1262.563	938.835
163.906	13.954	1261.678	938.200
164.921	13.984	1260.260	937.235
165.935	14.054	1259.819	937.214
166.950	14.027	1259.132	936.469
167.964	14.055	1258.149	935.811
168.979	13.992	1257.272	934.725
169.994	13.949	1256.910	934.129
171.008	14.060	1255.688	933.764
172.023	14.153	1255.254	933.877
173.037	14.120	1253.768	932.505
174.052	14.119	1253.117	931.936
175.067	14.046	1251.781	930.447
176.081	14.096	1251.079	930.125
177.096	14.078	1250.467	929.489
178.110	14.133	1248.972	928.598
179.125	14.040	1247.803	927.128
180.140	14.172	1246.442	926.771
181.154	14.143	1245.145	925.565
182.169	14.077	1244.699	924.785
183.183	14.169	1243.267	924.148
184.198	14.246	1241.967	923.528
185.213	14.259	1240.711	922.584
186.227	14.273	1239.702	921.830
187.242	14.275	1238.492	920.863
188.256	14.235	1238.181	920.329
189.271	14.383	1236.414	919.747
190.286	14.244	1235.789	918.435
191.300	14.116	1235.032	917.085
192.315	14.131	1234.194	916.467
193.329	14.196	1233.492	916.219
194.344	14.138	1232.857	915.350
195.359	14.223	1232.359	915.367
196.373	14.225	1231.779	914.864
197.388	14.404	1231.289	915.407
198.402	14.321	1230.646	914.387
199.417	14.435	1229.699	914.230
200.432	14.409	1228.756	913.308
201.446	14.483	1228.025	913.086
202.461	14.571	1227.487	913.086
203.475	14.569	1226.581	912.319
204.490	14.474	1225.652	911.031
205.504	14.421	1224.043	909.465
206.519	14.451	1222.841	908.657
207.534	14.508	1221.586	907.950
208.548	14.506	1220.350	906.940
209.563	14.499	1220.010	906.572
210.577	14.527	1218.824	905.761
211.592	14.580	1218.042	905.388
212.607	14.642	1216.916	904.807
213.621	14.577	1216.174	903.821
214.636	14.720	1215.169	903.773
215.650	14.651	1214.636	902.920
216.665	14.645	1213.430	901.913
217.680	14.687	1212.501	901.367
218.694	14.750	1212.026	901.275
219.709	14.741	1211.427	900.699
220.723	14.710	1210.710	899.922
221.738	14.677	1209.298	898.615
222.753	14.694	1208.544	898.066
223.767	14.739	1208.192	897.966
224.782	14.896	1207.312	898.076
225.796	14.924	1206.611	897.629
226.811	14.872	1205.960	896.786
227.826	14.866	1205.258	896.153
228.840	14.813	1204.733	895.399
229.855	14.915	1203.760	895.142
230.869	14.868	1203.152	894.360
231.884	14.851	1202.434	893.657
232.899	14.795	1201.630	892.680
233.913	14.869	1200.638	892.259
234.928	14.865	1200.084	891.747
235.942	14.871	1199.298	891.114
236.957	14.921	1198.191	890.478
237.972	14.959	1197.423	890.033
238.986	14.970	1196.919	889.640
240.001	14.985	1195.642	888.692
241.015	14.938	1195.316	888.121
242.030	14.938	1194.797	887.654
243.045	15.016	1193.585	887.089
244.059	15.018	1192.889	886.504
245.074	15.094	1191.865	886.065
246.088	15.018	1191.694	885.459
247.103	15.096	1190.688	885.047
248.117	15.047	1190.058	884.242
249.132	15.096	1189.312	883.865
250.147	15.164	1188.256	883.361
251.161	15.241	1187.336	883.006
252.176	15.140	1187.021	882.162
253.190	15.174	1186.398	881.800
254.205	15.211	1185.700	881.397
255.220	15.327	1185.027	881.428
256.234	15.341	1184.915	881.340
257.249	15.345	1183.638	880.336
258.263	15.380	1183.158	880.084
259.278	15.380	1182.530	879.535
260.293	15.507	1182.096	879.801
261.307	15.493	1181.038	878.866
262.322	15.514	1180.604	878.574
263.336	15.441	1179.898	877.589
264.351	15.604	1178.906	877.624
265.366	15.595	1178.440	877.150
266.380	15.544	1177.607	876.190
267.395	15.532	1176.889	875.515
268.409	15.532	1175.902	874.702
269.424	15.536	1175.552	874.385
270.439	15.575	1175.103	874.179
271.453	15.589	1174.340	873.603
272.468	15.401	1173.614	872.012
273.482	15.578	1172.550	872.062
274.497	15.489	1172.365	871.383
275.512	15.549	1171.280	870.811
276.526	15.608	1170.576	870.517
277.541	15.594	1169.819	869.807
278.555	15.719	1168.565	869.441
279.570	15.723	1168.136	869.067
280.585	15.687	1167.253	868.149
281.599	15.687	1166.346	867.394
282.614	15.660	1165.825	866.792
283.628	15.748	1164.431	866.135
284.643	15.775	1163.664	865.623
285.657	15.729	1162.808	864.676
286.672	15.837	1161.693	864.323
287.687	15.787	1160.681	863.235
288.701	15.857	1160.060	863.058
289.716	15.770	1159.088	861.813
290.730	15.901	1158.120	861.687
291.745	15.801	1158.015	861.022
292.760	15.872	1157.037	860.581
293.774	15.780	1156.405	859.566
294.789	16.029	1155.516	860.101
295.803	15.968	1154.779	859.161
296.818	15.884	1154.467	858.428
297.833	15.867	1153.808	857.776
298.847	15.955	1152.746	857.358
299.862	15.942	1152.107	856.742
300.876	15.996	1151.291	856.330
301.891	16.087	1150.322	855.995
302.906	16.130	1149.927	855.847
303.920	16.191	1149.002	855.390
304.935	16.135	1148.614	854.743
305.949	16.176	1148.241	854.594
306.964	16.210	1147.393	854.061
307.979	16.160	1146.812	853.300
308.993	16.142	1145.919	852.471
310.008	16.171	1145.059	851.899
311.022	16.241	1144.225	851.558
312.037	16.222	1143.389	850.768
313.052	16.275	1142.091	849.993
314.066	16.253	1141.404	849.296
315.081	16.235	1140.368	848.356
316.095	16.203	1139.963	847.821
317.110	16.217	1139.040	847.131
318.125	16.163	1138.321	846.248
319.139	16.108	1137.862	845.558
320.154	16.160	1137.242	845.280
321.168	16.194	1136.639	844.928
322.183	16.185	1136.396	844.629
323.197	16.202	1135.555	844.015
324.212	16.276	1134.601	843.602
325.227	16.314	1133.972	843.245
326.241	16.297	1133.274	842.569
327.256	16.254	1132.684	841.843
328.270	16.300	1131.484	841.102
329.285	16.319	1130.456	840.361
330.300	16.345	1129.622	839.794
331.314	16.362	1128.333	838.847
332.329	16.464	1127.682	838.792
333.343	16.311	1126.931	837.405
334.358	16.351	1126.107	836.917
335.373	16.542	1125.192	837.105
336.387	16.467	1124.698	836.293
337.402	16.550	1123.646	835.847
338.416	16.497	1123.172	835.160
339.431	16.559	1122.528	834.911
340.446	16.536	1121.948	834.295
341.460	16.528	1121.063	833.521
342.475	16.700	1119.941	833.460
343.489	16.598	1119.304	832.410
344.504	16.691	1118.324	832.069
345.519	16.726	1117.382	831.463
346.533	16.806	1116.635	831.229
347.548	16.796	1115.735	830.435
348.562	16.732	1115.238	829.679
349.577	16.714	1114.482	828.954
350.592	16.700	1113.882	828.366
351.606	16.658	1112.909	827.364
352.621	16.759	1112.032	827.131
353.635	16.685	1111.874	826.580
354.650	16.830	1110.802	826.414
355.665	16.714	1110.344	825.437
356.679	16.714	1109.576	824.793
357.694	16.770	1108.918	824.504
358.708	16.780	1108.040	823.829
359.723	16.817	1107.693	823.673
360.738	16.904	1106.733	823.310
361.752	16.943	1106.591	823.322
362.767	16.871	1105.707	822.242
363.781	16.841	1105.530	821.892
364.796	16.979	1104.434	821.672
365.810	16.964	1104.156	821.323
366.825	17.119	1102.968	821.115
367.840	16.938	1103.284	820.399
368.854	17.030	1102.346	820.076
369.869	17.040	1101.355	819.312
370.883	17.068	1100.527	818.763
371.898	17.170	1099.355	818.307
372.913	17.113	1099.238	817.876
373.927	17.102	1098.899	817.495
374.942	17.163	1098.029	817.068
375.956	17.252	1097.388	816.950
376.971	17.126	1096.958	815.949
377.986	17.197	1096.340	815.758
379.000	17.225	1095.702	815.348
380.015	17.185	1095.525	814.953
381.029	17.358	1094.096	814.646
382.044	17.325	1093.533	813.997
383.059	17.343	1092.854	813.506
384.073	17.363	1091.920	812.833
385.088	17.368	1091.059	812.142
386.102	17.342	1090.307	811.388
387.117	17.363	1088.763	810.267
388.132	17.332	1088.449	809.817
389.146	17.291	1087.308	808.699
390.161	17.401	1086.842	808.805
391.175	17.499	1085.566	808.247
392.190	17.476	1084.799	807.494
393.205	17.412	1084.866	807.172
394.219	17.427	1083.974	806.507
395.234	17.393	1083.205	805.704
396.248	17.469	1082.044	805.129
397.263	17.499	1081.097	804.495
398.278	17.453	1080.207	803.540
399.292	17.451	1079.678	803.067
400.307	17.433	1078.799	802.257
401.321	17.456	1078.401	802.001
402.336	17.511	1077.767	801.719
403.350	17.402	1077.215	800.723
404.365	17.636	1076.011	800.855
405.380	17.486	1075.685	799.840
406.394	17.589	1074.954	799.709
407.409	17.524	1074.051	798.662
408.423	17.690	1073.328	798.829
409.438	17.831	1072.207	798.584
410.453	17.682	1072.134	797.763
411.467	17.663	1071.060	796.802
412.482	17.714	1070.276	796.389
413.496	17.856	1069.315	796.266
414.511	17.750	1068.929	795.412
415.526	17.763	1068.740	795.263
416.540	17.913	1067.969	795.316
417.555	17.941	1068.057	795.442
418.569	17.920	1067.239	794.668
419.584	17.906	1066.538	794.009
420.599	17.952	1065.707	793.535
421.613	109.498	1332.807	1492.005
422.628	101.238	1371.661	1492.056
